-2.426018e-003,2.214118e-005
-2.782238e-003,4.645098e-005
-2.961645e-003,6.541262e-005
-2.931339e-003,8.405013e-005
-2.696830e-003,1.004187e-004
-2.287938e-003,1.072255e-004
-1.746153e-003,8.875003e-005
-1.128036e-003,4.029249e-005
-4.948471e-004,-2.275091e-005
1.065772e-004,-7.088431e-005
6.400964e-004,-8.401160e-005
1.083021e-003,-6.083626e-005
1.421900e-003,-1.464765e-005
1.655923e-003,3.656499e-005
1.792869e-003,7.918817e-005
1.849430e-003,1.111150e-004
1.848133e-003,1.363972e-004
1.815720e-003,1.629759e-004
1.775690e-003,1.864754e-004
1.737929e-003,2.000889e-004
1.708109e-003,1.973338e-004
1.692712e-003,1.795066e-004
1.694495e-003,1.551968e-004
1.709891e-003,1.329939e-004
1.726098e-003,1.158149e-004
1.729987e-003,1.007429e-004
1.709567e-003,8.275361e-005
1.660785e-003,5.649903e-005
1.586073e-003,2.408596e-005
1.483648e-003,-9.785687e-006
1.354319e-003,-4.365734e-005
1.199547e-003,-7.250496e-005
1.024192e-003,-8.336334e-005
8.433264e-004,-6.926366e-005
6.869333e-004,-3.733679e-005
5.665187e-004,-7.354708e-006
4.631210e-004,-1.682422e-006
3.386548e-004,-3.085418e-005
1.611932e-004,-8.206682e-005
-8.482193e-005,-1.289037e-004
-3.903150e-004,-1.491618e-004
-7.298418e-004,-1.397621e-004
-1.044573e-003,-1.083214e-004
-1.271788e-003,-7.039811e-005
-1.385396e-003,-3.717472e-005
-1.406951e-003,-1.740276e-005
-1.377779e-003,-1.497178e-005
-1.326242e-003,-2.226472e-005
-1.251044e-003,-2.988179e-005
-1.137598e-003,-2.890940e-005
-9.774775e-004,-1.999580e-005
-7.781372e-004,-2.168618e-006
-5.515699e-004,2.441009e-005
-3.049066e-004,6.071273e-005
-4.965375e-005,1.020394e-004
1.953890e-004,1.423936e-004
4.154738e-004,1.743205e-004
6.008766e-004,1.853410e-004
7.485182e-004,1.678379e-004
8.611536e-004,1.316973e-004
9.457518e-004,9.296372e-005
1.011064e-003,6.362990e-005
1.060008e-003,4.515445e-005
1.084156e-003,3.105477e-005
1.073622e-003,2.100672e-005
1.021436e-003,1.371378e-005
9.280867e-004,8.851824e-006
8.105892e-004,3.503668e-006
6.896884e-004,-3.303075e-006
5.704083e-004,-1.302699e-005
4.498316e-004,-2.712668e-005
3.269861e-004,-4.219875e-005
2.128921e-004,-4.819516e-005
1.320215e-004,-4.057810e-005
1.000946e-004,-2.453363e-005
1.158149e-004,-5.085794e-006
1.660552e-004,1.355172e-005
2.276400e-004,2.781346e-005
2.829043e-004,3.283749e-005
3.180725e-004,2.732727e-005
3.245551e-004,1.290346e-005
2.880904e-004,-4.761663e-006
2.008992e-004,-1.659243e-005
5.358185e-005,-1.886135e-005
-1.833576e-004,-1.383732e-005
-5.420081e-004,-7.678839e-006
-9.957909e-004,-8.002969e-006
-1.440984e-003,-1.756482e-005
-1.750367e-003,-3.004385e-005
-1.836586e-003,-3.522994e-005
-1.690241e-003,-2.518189e-005
-1.382641e-003,2.369210e-006
-1.024314e-003,4.013043e-005
-7.176869e-004,7.108490e-005
-5.194810e-004,8.680524e-005
-4.288865e-004,9.020861e-005
-4.029561e-004,9.182927e-005
-3.903150e-004,9.636710e-005
-3.577399e-004,1.107909e-004
-3.037722e-004,1.386661e-004
-2.446183e-004,1.710792e-004
-1.982676e-004,1.939304e-004
-1.865989e-004,2.020337e-004
-2.182017e-004,1.955511e-004
-2.789761e-004,1.775618e-004
-3.331059e-004,1.568175e-004
-3.472056e-004,1.360731e-004
-3.045825e-004,1.135460e-004
-2.094501e-004,8.696730e-005
-7.509801e-005,6.087479e-005
7.708132e-005,4.434413e-005
2.109473e-004,4.061663e-005
2.978143e-004,4.320967e-005
3.384927e-004,4.483032e-005
3.621542e-004,4.369587e-005
4.094774e-004,4.904402e-005
5.020167e-004,6.622294e-005
6.329655e-004,9.182927e-005
7.767176e-004,1.203528e-004
8.997252e-004,1.440143e-004
9.745996e-004,1.589243e-004
9.924268e-004,1.694586e-004
9.695755e-004,1.819376e-004
9.277626e-004,1.971717e-004
8.849773e-004,2.120818e-004
8.524021e-004,2.214815e-004
8.287406e-004,2.247228e-004
7.977861e-004,2.242366e-004
7.490044e-004,2.161334e-004
6.814231e-004,1.952270e-004
6.044420e-004,1.644345e-004
5.289195e-004,1.315353e-004
4.587452e-004,1.038221e-004
3.969983e-004,8.372600e-005
3.441650e-004,6.670914e-005
2.914938e-004,5.115087e-005
2.266676e-004,4.353380e-005
1.462832e-004,4.142695e-005
5.390598e-005,3.753739e-005
-4.754691e-005,2.959618e-005
-1.577513e-004,2.133085e-005
-2.739521e-004,1.711715e-005
-3.823738e-004,1.533444e-005
-4.706994e-004,1.079661e-005
-5.395771e-004,3.665733e-006
-5.941931e-004,-6.544382e-006
-6.355197e-004,-1.902341e-005
-6.599916e-004,-3.636440e-005
-6.497815e-004,-5.889147e-005
-5.813900e-004,-8.498399e-005
-4.444448e-004,-1.112386e-004
-2.522354e-004,-1.347380e-004
-3.733679e-005,-1.514308e-004
1.684862e-004,-1.580754e-004
3.415720e-004,-1.598582e-004
4.671726e-004,-1.556445e-004
5.358884e-004,-1.434896e-004
5.457744e-004,-1.190177e-004
5.068786e-004,-8.174268e-005
4.388112e-004,-3.960571e-005
3.675024e-004,1.234753e-006
3.039728e-004,3.980630e-005
2.441707e-004,7.302969e-005
1.790204e-004,9.490851e-005
1.038221e-004,1.054428e-004
1.792748e-005,1.081979e-004
-9.859748e-005,1.070634e-004
-2.648765e-004,1.028497e-004
-4.669719e-004,9.685329e-005
-6.467023e-004,9.458438e-005
-7.348658e-004,9.879807e-005
-7.050458e-004,1.051186e-004
-5.932207e-004,1.059289e-004
-4.791268e-004,9.896014e-005
-4.246728e-004,8.777764e-005
-4.311554e-004,7.627100e-005
-4.583824e-004,6.816773e-005
-4.664857e-004,6.508849e-005
-4.326140e-004,6.298164e-005
-3.595226e-004,5.974033e-005
-2.640661e-004,5.714729e-005
-1.724992e-004,5.730935e-005
-1.118868e-004,5.293359e-005
-9.584237e-005,3.672705e-005
-1.198280e-004,1.095867e-005
-1.635857e-004,-1.140634e-005
-2.034537e-004,-1.886135e-005
-2.310048e-004,-8.651231e-006
-2.562870e-004,8.527692e-006
-3.008549e-004,1.906194e-005
-3.724878e-004,1.241726e-005
-4.559515e-004,-9.623623e-006
-5.082985e-004,-3.604027e-005
-4.912817e-004,-5.986387e-005
-3.980942e-004,-7.850138e-005
-2.653627e-004,-8.757703e-005
-1.499722e-004,-8.077029e-005
-9.195280e-005,-5.662256e-005
-1.041077e-004,-2.210265e-005
-1.857886e-004,1.257933e-005
-3.209511e-004,4.061663e-005
-4.869059e-004,5.536457e-005
-6.622605e-004,5.082674e-005
-8.393979e-004,2.862379e-005
-1.016697e-003,-3.789271e-006
-1.194807e-003,-3.344722e-005
-1.359790e-003,-4.965375e-005
-1.499004e-003,-4.965375e-005
-1.621525e-003,-3.668853e-005
-1.770625e-003,-1.545797e-005
-1.997517e-003,7.231170e-006
-2.291179e-003,2.651694e-005
-2.563936e-003,4.029249e-005
-2.695371e-003,4.758544e-005
-2.602183e-003,5.050261e-005
-2.288424e-003,5.649903e-005
-1.844527e-003,7.205730e-005
-1.382641e-003,1.015532e-004
-9.675915e-004,1.441764e-004
-6.034308e-004,1.908512e-004
-2.512630e-004,2.307192e-004
1.394765e-004,2.597290e-004
6.049282e-004,2.773941e-004
1.136827e-003,2.814457e-004
1.685581e-003,2.749631e-004
2.181503e-003,2.569738e-004
2.567706e-003,2.221298e-004
2.818423e-003,1.675138e-004
2.947428e-003,1.012291e-004
2.992320e-003,3.899597e-005
2.993455e-003,-7.516774e-006
2.978544e-003,-2.826113e-005
2.957152e-003,-2.631635e-005
2.924901e-003,-1.254080e-005
2.873850e-003,5.772582e-006
2.796544e-003,2.667901e-005
2.687473e-003,4.953022e-005
2.547286e-003,7.724339e-005
2.375334e-003,1.067393e-004
2.171941e-003,1.315353e-004
1.933380e-003,1.464453e-004
1.663540e-003,1.503348e-004
1.374739e-003,1.427178e-004
1.083994e-003,1.261871e-004
8.002171e-004,1.062531e-004
5.229231e-004,8.875003e-005
2.590807e-004,7.302969e-005
2.797553e-005,5.536457e-005
-1.412206e-004,3.364782e-005
-2.316531e-004,6.907039e-006
-2.507768e-004,-2.437157e-005
-2.277635e-004,-5.921561e-005
-1.862748e-004,-9.568031e-005
-1.219349e-004,-1.246900e-004
-4.761663e-006,-1.407345e-004
1.859892e-004,-1.420310e-004
4.297355e-004,-1.280934e-004
6.681337e-004,-1.010285e-004
8.336026e-004,-6.326724e-005
8.900014e-004,-2.485776e-005
8.430023e-004,7.069104e-006
7.383081e-004,3.137890e-005
6.375034e-004,5.147500e-005
5.827252e-004,7.351588e-005
5.869390e-004,9.960840e-005
6.368551e-004,1.291043e-004
7.047605e-004,1.545486e-004
7.650488e-004,1.696206e-004
7.942206e-004,1.738343e-004
7.750969e-004,1.665414e-004
7.026537e-004,1.492004e-004
5.861287e-004,1.240803e-004
4.388112e-004,9.588090e-005
2.825802e-004,7.027457e-005
1.415833e-004,5.196120e-005
2.667901e-005,4.126489e-005
-6.602235e-005,3.235129e-005
-1.442999e-004,2.052053e-005
-2.229016e-004,7.485573e-007
-3.115513e-004,-2.809907e-005
-4.125179e-004,-6.359137e-005
-5.222362e-004,-9.389758e-005
-6.311440e-004,-1.075111e-004
-7.313003e-004,-1.010285e-004
-8.222189e-004,-8.044616e-005
-9.043860e-004,-5.305713e-005
-9.815291e-004,-2.388537e-005
-1.050569e-003,3.827798e-006
-1.105833e-003,2.894792e-005
-1.145215e-003,5.260946e-005
-1.175845e-003,7.270556e-005
-1.207448e-003,9.312579e-005
-1.241968e-003,1.174356e-004
-1.263199e-003,1.406109e-004
-1.251044e-003,1.485521e-004
-1.194159e-003,1.265113e-004
-1.087844e-003,7.448828e-005
-9.379336e-004,1.403791e-005
-7.556102e-004,-2.518189e-005
-5.629145e-004,-2.437157e-005
-3.839945e-004,1.841368e-005
-2.366771e-004,8.972242e-005
-1.297140e-004,1.670276e-004
-6.537409e-005,2.263435e-004
-4.284701e-005,2.529222e-004
-5.500191e-005,2.521119e-004
-9.503204e-005,2.383363e-004
-1.540238e-004,2.206712e-004
-2.133397e-004,1.991165e-004
-2.462390e-004,1.731861e-004
-2.382978e-004,1.451487e-004
-1.943781e-004,1.244044e-004
-1.361966e-004,1.122495e-004
-8.352540e-005,1.036600e-004
-5.629843e-005,7.902610e-005
-6.845333e-005,1.501031e-005
-1.180453e-004,-9.276313e-005
-1.898402e-004,-2.225774e-004
-2.558008e-004,-3.344025e-004
-2.846484e-004,-3.935563e-004
-2.656868e-004,-3.838324e-004
-2.131776e-004,-3.168994e-004
-1.522411e-004,-2.199844e-004
-1.063766e-004,-1.242038e-004
-8.773910e-005,-4.884343e-005
-9.503204e-005,-5.479652e-007
-1.219349e-004,2.181705e-005
-1.676373e-004,2.473422e-005
-2.344082e-004,1.841368e-005
-3.162512e-004,1.614476e-005
-3.930701e-004,1.906194e-005
-4.387725e-004,2.133085e-005
-4.290486e-004,1.679302e-005
-3.600088e-004,8.365628e-006
-2.449424e-004,2.623614e-007
-1.091317e-004,-2.816880e-006
1.371378e-005,4.638125e-006
9.247753e-005,1.808955e-005
1.167873e-004,3.170303e-005
9.442231e-005,3.737532e-005
4.320967e-005,3.510640e-005
-1.043395e-005,3.218923e-005
-3.879538e-005,3.202716e-005
-1.805102e-005,3.299956e-005
5.747142e-005,3.251336e-005
1.730240e-004,3.170303e-005
3.026763e-004,3.121684e-005
4.213081e-004,2.910999e-005
5.190336e-004,2.343770e-005
5.987698e-004,1.403791e-005
6.673234e-004,4.800190e-006
7.298806e-004,-3.789271e-006
7.956792e-004,-1.189254e-005
8.626123e-004,-1.529591e-005
9.182007e-004,-1.075808e-005
9.436450e-004,2.623614e-007
9.292212e-004,1.338965e-005
8.729845e-004,2.424803e-005
7.679660e-004,3.073064e-005
6.084936e-004,3.721326e-005
4.112601e-004,4.920609e-005
2.120818e-004,7.011251e-005
4.223728e-005,9.085687e-005
-9.600443e-005,1.000946e-004
-2.182017e-004,9.717742e-005
-3.332680e-004,8.939829e-005
-4.392587e-004,8.405013e-005
-5.262878e-004,8.696730e-005
-5.891691e-004,9.831188e-005
-6.298475e-004,1.107909e-004
-6.575607e-004,1.167873e-004
-6.821946e-004,1.122495e-004
-7.150938e-004,9.912220e-005
-7.723029e-004,8.453633e-005
-8.688938e-004,7.724339e-005
-1.015887e-003,7.935023e-005
-1.202424e-003,9.053274e-005
-1.393661e-003,1.022014e-004
-1.554430e-003,1.062531e-004
-1.660097e-003,1.002567e-004
-1.698506e-003,8.907416e-005
-1.653938e-003,7.724339e-005
-1.514238e-003,6.606088e-005
-1.297718e-003,5.196120e-005
-1.054945e-003,3.478227e-005
-8.366428e-004,2.311357e-005
-6.721465e-004,2.343770e-005
-5.718281e-004,3.575467e-005
-5.436288e-004,5.147500e-005
-5.974344e-004,6.460230e-005
-7.217385e-004,7.384001e-005
-8.761867e-004,8.145709e-005
-9.953047e-004,8.923622e-005
-1.011997e-003,1.026876e-004
-8.826694e-004,1.292664e-004
-6.099135e-004,1.662173e-004
-2.451045e-004,2.127300e-004
1.467694e-004,2.636185e-004
5.094717e-004,3.086727e-004
8.036204e-004,3.389789e-004
1.014306e-003,3.493511e-004
1.149630e-003,3.415720e-004
1.237794e-003,3.180725e-004
1.303431e-003,2.835526e-004
1.356264e-003,2.393087e-004
1.398887e-003,1.872858e-004
1.437621e-003,1.284560e-004
1.482189e-003,6.055066e-005
1.539722e-003,-1.399939e-005
1.610707e-003,-8.401160e-005
1.687688e-003,-1.352242e-004
1.758673e-003,-1.634236e-004
1.805672e-003,-1.645580e-004
1.807941e-003,-1.371690e-004
1.760132e-003,-8.871149e-005
1.671644e-003,-3.020592e-005
1.562087e-003,2.116879e-005
1.454152e-003,5.487837e-005
1.361450e-003,7.076077e-005
1.283821e-003,7.643306e-005
1.207326e-003,8.210535e-005
1.103766e-003,9.199134e-005
9.404037e-004,1.044704e-004
7.088121e-004,1.140322e-004
4.519385e-004,1.180839e-004
2.406053e-004,1.163011e-004
1.192183e-004,1.062531e-004
8.729143e-005,8.567078e-005
1.070634e-004,5.487837e-005
1.363972e-004,1.906194e-005
1.586002e-004,-1.383732e-005
1.816135e-004,-3.555407e-005
2.094887e-004,-4.381940e-005
2.308813e-004,-3.944364e-005
2.200230e-004,-2.712668e-005
1.436902e-004,-1.270286e-005
-1.480971e-005,-2.492749e-006
-2.248463e-004,-3.858999e-007
-4.259694e-004,-4.599598e-006
-5.528664e-004,-1.124428e-005
-5.721523e-004,-1.707863e-005
-4.875541e-004,-1.983374e-005
-3.241924e-004,-2.258885e-005
-1.164247e-004,-2.696461e-005
1.028497e-004,-3.344722e-005
3.083486e-004,-4.025397e-005
4.843515e-004,-4.835723e-005
6.193520e-004,-5.046408e-005
7.041122e-004,-3.830918e-005
7.400908e-004,-1.578211e-005
7.347426e-004,8.041497e-006
6.997365e-004,2.343770e-005
6.439860e-004,2.084466e-005
5.742979e-004,3.827798e-006
5.020167e-004,-1.189254e-005
4.435111e-004,-1.707863e-005
4.104497e-004,-1.513384e-005
4.046154e-004,-1.562004e-005
4.214702e-004,-1.983374e-005
4.525867e-004,-2.664048e-005
4.809482e-004,-3.490581e-005
4.864584e-004,-4.414354e-005
4.568004e-004,-6.083626e-005
3.960259e-004,-9.098041e-005
3.146691e-004,-1.293899e-004
2.289365e-004,-1.614788e-004
1.511452e-004,-1.705545e-004
8.583285e-005,-1.493239e-004
2.570661e-005,-1.047560e-004
-3.522994e-005,-4.851930e-005
-1.018388e-004,8.689757e-006
-1.806025e-004,5.974033e-005
-2.703867e-004,1.031738e-004
-3.499608e-004,1.396385e-004
-3.933942e-004,1.722137e-004
-3.856151e-004,2.099749e-004
-3.230579e-004,2.619979e-004
-2.100984e-004,3.260137e-004
-6.521203e-005,3.903536e-004
7.529860e-005,4.341113e-004
1.817755e-004,4.286011e-004
2.354192e-004,3.564820e-004
2.375260e-004,2.290986e-004
2.068957e-004,8.664317e-005
1.699447e-004,-2.793700e-005
1.456350e-004,-9.000801e-005
1.331559e-004,-1.021629e-004
1.242423e-004,-8.887356e-005
1.043083e-004,-7.590833e-005
5.844381e-005,-7.137050e-005
-1.286493e-005,-7.282909e-005
-9.859748e-005,-7.590833e-005
-2.089639e-004,-8.449779e-005
-3.716775e-004,-1.049180e-004
-6.052136e-004,-1.255003e-004
-9.037378e-004,-1.235555e-004
-1.239861e-003,-8.352540e-005
-1.573878e-003,-1.075808e-005
-1.879857e-003,7.205730e-005
-2.157313e-003,1.363972e-004
-2.423587e-003,1.712413e-004
-2.698126e-003,1.835582e-004
-2.975421e-003,1.859892e-004
-3.219816e-003,1.822617e-004
-3.369564e-003,1.699447e-004
-3.363244e-003,1.406109e-004
-3.170062e-003,8.518459e-005
-2.808493e-003,-2.978945e-006
-2.334127e-003,-1.173971e-004
-1.816976e-003,-2.339220e-004
-1.305984e-003,-3.225717e-004
-8.269189e-004,-3.621157e-004
-3.914495e-004,-3.459091e-004
-2.453363e-005,-2.869173e-004
2.363915e-004,-2.065330e-004
3.788470e-004,-1.269589e-004
4.250356e-004,-6.278104e-005
4.093153e-004,-1.594417e-005
3.640990e-004,2.181705e-005
3.036486e-004,5.795762e-005
2.274780e-004,9.312579e-005
1.445005e-004,1.229458e-004
6.832980e-005,1.445005e-004
9.106226e-007,1.561692e-004
-4.965375e-005,1.573037e-004
-5.500191e-005,1.521176e-004
2.295151e-005,1.474177e-004
2.039785e-004,1.469315e-004
4.751138e-004,1.477418e-004
7.742866e-004,1.498487e-004
1.017061e-003,1.433660e-004
1.133100e-003,1.237561e-004
1.088370e-003,9.134307e-005
9.041010e-004,5.633696e-005
6.430136e-004,3.040651e-005
3.775505e-004,1.533444e-005
1.459591e-004,1.014835e-005
-7.412562e-005,1.436204e-005
-3.092824e-004,2.392390e-005
-5.363358e-004,3.316162e-005
-6.902979e-004,3.980630e-005
-7.073147e-004,4.256141e-005
-5.650214e-004,4.191315e-005
-3.102547e-004,4.094075e-005
-2.550602e-005,4.142695e-005
2.200230e-004,4.515445e-005
4.007258e-004,5.893001e-005
5.370228e-004,8.340186e-005
6.530616e-004,1.135460e-004
7.655350e-004,1.420695e-004
8.951874e-004,1.667035e-004
1.050608e-003,1.892305e-004
1.232122e-003,2.146748e-004
1.434866e-003,2.435224e-004
1.647496e-003,2.757734e-004
1.848458e-003,3.112657e-004
2.018789e-003,3.427064e-004
2.137259e-003,3.582647e-004
2.188148e-003,3.487029e-004
2.169348e-003,3.166139e-004
2.092205e-003,2.757734e-004
1.974383e-003,2.373639e-004
1.835006e-003,2.059233e-004
1.698385e-003,1.812893e-004
1.573594e-003,1.611932e-004
1.459176e-003,1.423936e-004
1.346378e-003,1.229458e-004
1.224018e-003,1.073875e-004
1.071839e-003,9.766362e-005
8.794671e-004,9.182927e-005
6.606787e-004,8.648111e-005
4.556660e-004,7.319175e-005
3.106175e-004,5.050261e-005
2.582704e-004,2.181705e-005
3.065658e-004,-6.706447e-006
4.333010e-004,-3.636440e-005
6.026593e-004,-6.537409e-005
7.684522e-004,-8.741497e-005
8.938909e-004,-9.260106e-005
9.572585e-004,-8.692878e-005
9.504518e-004,-8.028410e-005
8.801153e-004,-7.833932e-005
7.660213e-004,-7.914964e-005
6.318311e-004,-8.190475e-005
4.971547e-004,-8.579432e-005
3.702575e-004,-8.352540e-005
2.579462e-004,-6.958779e-005
1.624898e-004,-4.495386e-005
8.356393e-005,-1.205460e-005
1.582063e-005,2.116879e-005
-4.625038e-005,5.115087e-005
-1.047560e-004,7.886404e-005
-1.596961e-004,1.052807e-004
-2.123673e-004,1.278078e-004
-2.674695e-004,1.410971e-004
-3.219235e-004,1.441764e-004
-3.682741e-004,1.409351e-004
-3.974459e-004,1.291043e-004
-3.984183e-004,1.107909e-004
-3.762153e-004,8.923622e-005
-3.467194e-004,6.492643e-005
-3.250027e-004,3.591673e-005
-3.214373e-004,4.151929e-006
-3.382920e-004,-2.323711e-005
-3.692465e-004,-4.171255e-005
-4.019837e-004,-5.030201e-005
-4.224039e-004,-5.013995e-005
-4.227281e-004,-4.171255e-005
-4.016596e-004,-2.907146e-005
-3.634122e-004,-1.351319e-005
-3.105789e-004,3.989864e-006
-2.459148e-004,1.663096e-005
-1.750923e-004,1.468617e-005
-1.079973e-004,3.017472e-006
-5.662256e-005,-9.461557e-006
-3.604027e-005,-1.562004e-005
-6.261898e-005,-9.947754e-006
-1.391138e-004,7.393235e-006
-2.520733e-004,2.424803e-005
-3.742705e-004,3.202716e-005
-4.776682e-004,2.732727e-005
-5.444391e-004,1.176900e-005
-5.807417e-004,-1.092015e-005
-6.079687e-004,-3.555407e-005
-6.394094e-004,-6.213279e-005
-6.727948e-004,-8.806324e-005
-6.988873e-004,-1.125351e-004
-7.168766e-004,-1.331174e-004
-7.424828e-004,-1.415448e-004
-7.936954e-004,-1.329553e-004
-8.671110e-004,-1.079973e-004
-9.474955e-004,-7.979790e-005
-1.024314e-003,-5.986387e-005
-1.106157e-003,-5.370539e-005
-1.204045e-003,-6.116039e-005
-1.315384e-003,-7.542214e-005
-1.415702e-003,-8.757703e-005
-1.459622e-003,-9.292519e-005
-1.416026e-003,-9.098041e-005
-1.289777e-003,-8.320127e-005
-1.117988e-003,-7.250496e-005
-9.457127e-004,-6.002593e-005
-7.948300e-004,-4.657451e-005
-6.658260e-004,-3.053005e-005
-5.463838e-004,-1.108221e-005
-4.279141e-004,9.013888e-006
-3.154408e-004,2.846173e-005
-2.237119e-004,4.677511e-005
-1.744440e-004,5.860587e-005
-1.835197e-004,6.217131e-005
-2.601766e-004,5.601283e-005
-3.992286e-004,4.466826e-005
-5.744212e-004,3.640293e-005
-7.342175e-004,3.510640e-005
-8.288636e-004,3.834771e-005
-8.246499e-004,3.624086e-005
-7.251419e-004,2.684107e-005
-5.703695e-004,1.987226e-005
-4.175420e-004,2.424803e-005
-3.204648e-004,3.964423e-005
-3.003688e-004,6.087479e-005
-3.298646e-004,8.113296e-005
-3.523917e-004,9.312579e-005
-3.198166e-004,8.956035e-005
-2.086398e-004,6.881599e-005
-3.215070e-005,4.013043e-005
1.717275e-004,1.663096e-005
3.629646e-004,5.610517e-006
5.110924e-004,9.986280e-006
6.000663e-004,2.684107e-005
6.303724e-004,5.196120e-005
5.953663e-004,8.194328e-005
4.939134e-004,1.120874e-004
3.469201e-004,1.313732e-004
1.940925e-004,1.372075e-004
8.210535e-005,1.331559e-004
5.520250e-005,1.247285e-004
1.308870e-004,1.143563e-004
2.825802e-004,1.056048e-004
4.566384e-004,9.960840e-005
6.023351e-004,1.010670e-004
6.849886e-004,1.101426e-004
6.901746e-004,1.257009e-004
6.196762e-004,1.396385e-004
4.906721e-004,1.495245e-004
3.358997e-004,1.571416e-004
1.950649e-004,1.626518e-004
9.766362e-005,1.637863e-004
5.131293e-005,1.571416e-004
4.839576e-005,1.412592e-004
7.221937e-005,1.174356e-004
1.056048e-004,9.685329e-005
1.291043e-004,8.875003e-005
1.302387e-004,9.280166e-005
1.174356e-004,1.039842e-004
1.106288e-004,1.208390e-004
1.281319e-004,1.453108e-004
1.761032e-004,1.759412e-004
2.493568e-004,2.044647e-004
3.430306e-004,2.205091e-004
4.572866e-004,2.179161e-004
5.986076e-004,2.046267e-004
7.754210e-004,1.903650e-004
9.888613e-004,1.782101e-004
1.228394e-003,1.678379e-004
1.466955e-003,1.568175e-004
1.671482e-003,1.423936e-004
1.815072e-003,1.291043e-004
1.886381e-003,1.216493e-004
1.883950e-003,1.274836e-004
1.817827e-003,1.453108e-004
1.695792e-003,1.641104e-004
1.519302e-003,1.662173e-004
1.278148e-003,1.334801e-004
9.598515e-004,5.941620e-005
5.733254e-004,-4.219875e-005
1.780480e-004,-1.465688e-004
-1.326312e-004,-2.272773e-004
-2.797865e-004,-2.658489e-004
-2.386219e-004,-2.593662e-004
-4.900549e-005,-2.177155e-004
2.130541e-004,-1.601823e-004
4.717104e-004,-1.031353e-004
6.700785e-004,-5.192267e-005
7.715315e-004,-7.192643e-006
7.729901e-004,2.846173e-005
7.007089e-004,5.439218e-005
5.916388e-004,6.978838e-005
4.739794e-004,7.513654e-005
3.593991e-004,7.708132e-005
2.441707e-004,8.129502e-005
1.190562e-004,9.053274e-005
-1.821308e-005,1.036600e-004
-1.595340e-004,1.192183e-004
-2.932379e-004,1.344524e-004
-4.005251e-004,1.479039e-004
-4.674581e-004,1.551968e-004
-4.953333e-004,1.441764e-004
-4.937127e-004,1.128978e-004
-4.664857e-004,6.751947e-005
-4.100870e-004,2.295151e-005
-3.222476e-004,-3.303075e-006
-2.083157e-004,-2.006553e-006
-8.401160e-005,2.116879e-005
3.251336e-005,4.969228e-005
1.281319e-004,6.849186e-005
1.968476e-004,6.849186e-005
2.475740e-004,4.434413e-005
2.885766e-004,-3.465141e-006
3.248792e-004,-6.440169e-005
3.581026e-004,-1.151281e-004
3.903536e-004,-1.287416e-004
4.166082e-004,-9.713889e-005
4.281149e-004,-3.182657e-005
4.235770e-004,4.110282e-005
4.117463e-004,8.972242e-005
3.995913e-004,9.199134e-005
3.877606e-004,4.790957e-005
3.691231e-004,-2.177852e-005
3.384927e-004,-8.530812e-005
2.911697e-004,-1.185315e-004
2.273159e-004,-1.165867e-004
1.495245e-004,-8.806324e-005
5.795762e-005,-4.592625e-005
-6.051213e-005,-2.978945e-006
-2.224154e-004,3.008238e-005
-4.376381e-004,4.628891e-005
-6.966184e-004,4.888196e-005
-9.718052e-004,5.017848e-005
-1.221386e-003,6.071273e-005
-1.410678e-003,7.935023e-005
-1.544058e-003,9.652916e-005
-1.657504e-003,1.052807e-004
-1.771111e-003,9.879807e-005
-1.853927e-003,7.821578e-005
-1.842744e-003,5.374392e-005
-1.687162e-003,3.186510e-005
-1.391717e-003,1.387585e-005
-1.007460e-003,-3.858999e-007
-6.068342e-004,-8.327101e-006
-2.569353e-004,-6.706447e-006
5.124321e-006,5.448451e-006
1.765894e-004,2.100672e-005
2.835526e-004,3.040651e-005
3.587509e-004,3.040651e-005
4.242253e-004,2.343770e-005
4.811102e-004,1.630683e-005
5.190336e-004,1.322759e-005
5.298919e-004,1.371378e-005
5.177370e-004,2.003433e-005
4.940755e-004,3.348575e-005
4.765724e-004,5.131293e-005
4.713863e-004,7.157111e-005
4.760862e-004,9.037068e-005
4.749518e-004,1.054428e-004
4.498316e-004,1.128978e-004
3.924605e-004,1.122495e-004
3.124002e-004,1.046324e-004
2.182402e-004,9.571883e-005
1.150046e-004,9.296372e-005
4.244267e-007,9.442231e-005
-1.269589e-004,1.013911e-004
-2.489941e-004,1.180839e-004
-3.392644e-004,1.415833e-004
-3.802670e-004,1.587622e-004
-3.668155e-004,1.595726e-004
-3.024756e-004,1.440143e-004
-1.916230e-004,1.171115e-004
-5.273300e-005,8.453633e-005
8.583285e-005,5.066468e-005
1.989545e-004,2.262737e-005
2.746390e-004,3.989864e-006
3.046211e-004,-3.465141e-006
2.777182e-004,-2.006553e-006
1.866375e-004,1.072688e-006
2.732727e-005,3.179537e-006
-1.947022e-004,5.772582e-006
-4.574100e-004,8.041497e-006
-7.419966e-004,8.203561e-006
-1.042304e-003,9.013888e-006
-1.352983e-003,1.274139e-005
-1.657504e-003,2.246531e-005
-1.927342e-003,3.624086e-005
-2.140459e-003,4.790957e-005
-2.286966e-003,5.763348e-005
-2.355681e-003,6.541262e-005
-2.342230e-003,6.897806e-005
-2.248070e-003,6.427816e-005
-2.082601e-003,4.855782e-005
-1.849713e-003,2.538249e-005
-1.542923e-003,-2.238345e-007
-1.153318e-003,-1.902341e-005
-6.854359e-004,-2.015787e-005
-1.718510e-004,5.864920e-007
3.299032e-004,3.786152e-005
7.527319e-004,7.546067e-005
1.050284e-003,9.798775e-005
1.209270e-003,1.039842e-004
1.259187e-003,9.814982e-005
1.251894e-003,8.356393e-005
1.239253e-003,6.735740e-005
1.252380e-003,4.855782e-005
1.295651e-003,2.943412e-005
1.353185e-003,9.013888e-006
1.398401e-003,-1.059601e-005
1.411204e-003,-2.874733e-005
1.385760e-003,-4.414354e-005
1.329847e-003,-5.613637e-005
1.252380e-003,-6.099833e-005
1.159354e-003,-6.018800e-005
1.060494e-003,-5.127441e-005
9.792994e-004,-3.069211e-005
9.438071e-004,3.017472e-006
9.689272e-004,4.304760e-005
1.042343e-003,7.902610e-005
1.132937e-003,1.026876e-004
1.211053e-003,1.111150e-004
1.252056e-003,1.098185e-004
1.243628e-003,1.031738e-004
1.186905e-003,9.636710e-005
1.092097e-003,9.296372e-005
9.765443e-004,9.669123e-005
8.554814e-004,1.075496e-004
7.376598e-004,1.229458e-004
6.269691e-004,1.391524e-004
5.303781e-004,1.504969e-004
4.559901e-004,1.534141e-004
4.076946e-004,1.467694e-004
3.799814e-004,1.315353e-004
3.527545e-004,1.099806e-004
3.055935e-004,8.323980e-005
2.315296e-004,5.504044e-005
1.396385e-004,3.121684e-005
5.520250e-005,1.501031e-005
1.257933e-005,6.907039e-006
3.672705e-005,7.393235e-006
1.237561e-004,1.614476e-005
2.373639e-004,3.316162e-005
3.344411e-004,5.698522e-005
3.898674e-004,8.502253e-005
4.052637e-004,1.114392e-004
4.091532e-004,1.258630e-004
4.264942e-004,1.257009e-004
4.657140e-004,1.151667e-004
5.206542e-004,1.022014e-004
5.744599e-004,8.842590e-005
6.185417e-004,7.140904e-005
6.512789e-004,5.309565e-005
6.721854e-004,4.029249e-005
6.746163e-004,3.364782e-005
6.353965e-004,2.246531e-005
5.055821e-004,-8.002969e-006
2.469258e-004,-6.440169e-005
-1.217728e-004,-1.438137e-004
-5.223982e-004,-2.313289e-004
-8.650042e-004,-3.031239e-004
-1.085737e-003,-3.402368e-004
-1.169363e-003,-3.335922e-004
-1.138408e-003,-2.906448e-004
-1.034687e-003,-2.280877e-004
-9.069791e-004,-1.637477e-004
-7.867267e-004,-1.133454e-004
-6.766843e-004,-8.465986e-005
-5.661558e-004,-7.266703e-005
-4.514136e-004,-6.488790e-005
-3.327818e-004,-5.435365e-005
-2.193361e-004,-3.992984e-005
-1.263107e-004,-2.372330e-005
-6.926366e-005,-9.299492e-006
-5.419158e-005,2.207145e-006
-8.077029e-005,6.258778e-006
-1.483515e-004,6.907039e-006
-2.554767e-004,1.128280e-005
-3.890185e-004,2.781346e-005
-5.249913e-004,5.844381e-005
-6.418403e-004,1.005808e-004
-7.308142e-004,1.498487e-004
-7.928851e-004,1.974959e-004
-8.369669e-004,2.394708e-004
-8.628973e-004,2.744769e-004
-8.512287e-004,2.994350e-004
-7.812164e-004,3.086727e-004
-6.546435e-004,3.033245e-004
-4.916058e-004,2.879283e-004
-3.152788e-004,2.675081e-004
-1.331174e-004,2.401191e-004
5.941620e-005,2.026820e-004
2.652392e-004,1.592484e-004
4.699277e-004,1.171115e-004
6.480376e-004,8.583285e-005
7.697488e-004,7.221937e-005
8.151271e-004,7.675719e-005
7.872518e-004,9.101894e-005
7.109190e-004,1.012291e-004
6.175693e-004,9.798775e-005
5.354022e-004,8.437427e-005
4.814344e-004,6.914012e-005
4.511281e-004,5.730935e-005
4.271425e-004,5.066468e-005
3.932708e-004,4.726130e-005
3.420582e-004,4.337174e-005
2.783665e-004,3.737532e-005
2.115955e-004,3.316162e-005
1.503348e-004,3.299956e-005
1.051186e-004,3.802358e-005
7.967437e-005,4.612685e-005
6.314371e-005,5.471631e-005
4.061663e-005,6.411610e-005
-3.858999e-007,6.914012e-005
-6.229485e-005,6.849186e-005
-1.269589e-004,6.103685e-005
-1.665028e-004,4.953022e-005
-1.648822e-004,4.175108e-005
-1.243659e-004,3.948217e-005
-5.305713e-005,4.077869e-005
3.445814e-005,3.915804e-005
1.185700e-004,3.543053e-005
1.799928e-004,3.251336e-005
1.966855e-004,3.170303e-005
1.642725e-004,3.299956e-005
9.344992e-005,3.510640e-005
-3.141010e-006,3.672705e-005
-1.178833e-004,3.721326e-005
-2.501285e-004,3.332369e-005
-4.113835e-004,2.311357e-005
-6.266062e-004,7.879431e-006
-9.251304e-004,-1.189254e-005
-1.317328e-003,-3.166451e-005
-1.781484e-003,-4.592625e-005
-2.245801e-003,-5.289506e-005
-2.602507e-003,-5.435365e-005
-2.751770e-003,-5.338126e-005
-2.637838e-003,-4.932962e-005
-2.278214e-003,-4.236081e-005
-1.762036e-003,-3.312309e-005
-1.217010e-003,-2.161646e-005
-7.635513e-004,-8.651231e-006
-4.922540e-004,4.151929e-006
-4.217557e-004,1.630683e-005
-4.839887e-004,2.651694e-005
-5.651835e-004,3.202716e-005
-5.638869e-004,3.462021e-005
-4.405552e-004,4.061663e-005
-2.241981e-004,5.309565e-005
1.727922e-005,7.367795e-005
2.214815e-004,9.263960e-005
3.561578e-004,1.077117e-004
4.245494e-004,1.210010e-004
4.535591e-004,1.318594e-004
4.684691e-004,1.375317e-004
4.890515e-004,1.373696e-004
5.268127e-004,1.321835e-004
5.862907e-004,1.240803e-004
6.666752e-004,1.143563e-004
7.593766e-004,1.072255e-004
8.522401e-004,1.106288e-004
9.339211e-004,1.250527e-004
9.995577e-004,1.436902e-004
1.051094e-003,1.611932e-004
1.098418e-003,1.752929e-004
1.155303e-003,1.848548e-004
1.232284e-003,1.866375e-004
1.331468e-003,1.806411e-004
1.442969e-003,1.702689e-004
1.549446e-003,1.610312e-004
1.631938e-003,1.592484e-004
1.676506e-003,1.671896e-004
1.675209e-003,1.791825e-004
1.630965e-003,1.806411e-004
1.556577e-003,1.508210e-004
1.464362e-003,7.416414e-005
1.362260e-003,-4.041603e-005
1.258052e-003,-1.600202e-004
1.159192e-003,-2.472113e-004
1.074270e-003,-2.762210e-004
1.013657e-003,-2.472113e-004
9.828649e-004,-1.776853e-004
9.745996e-004,-9.179074e-005
9.690893e-004,-1.140634e-005
9.491552e-004,4.483032e-005
9.076665e-004,6.784360e-005
8.438127e-004,6.476436e-005
7.634282e-004,4.920609e-005
6.742922e-004,3.380988e-005
5.892079e-004,2.327564e-005
5.084993e-004,1.825161e-005
4.271425e-004,1.549650e-005
3.381686e-004,7.231170e-006
2.438465e-004,-8.327101e-006
1.493625e-004,-2.469570e-005
6.022653e-005,-3.069211e-005
-1.707863e-005,-2.064406e-005
-8.757703e-005,2.623614e-007
-1.574272e-004,1.841368e-005
-2.235498e-004,2.230324e-005
-2.878897e-004,1.290346e-005
-3.598467e-004,-7.100305e-007
-4.473620e-004,-1.010982e-005
-5.496251e-004,-1.205460e-005
-6.554538e-004,-7.678839e-006
-7.437794e-004,3.503668e-006
-8.037435e-004,2.019640e-005
-8.426392e-004,3.883391e-005
-8.726213e-004,5.293359e-005
-9.053584e-004,5.520250e-005
-9.408508e-004,4.110282e-005
-9.769913e-004,1.144487e-005
-1.015725e-003,-2.534396e-005
-1.053648e-003,-6.180866e-005
-1.077310e-003,-1.018388e-004
-1.053648e-003,-1.535376e-004
-9.565711e-004,-2.092881e-004
-7.823509e-004,-2.470493e-004
-5.522182e-004,-2.486699e-004
-3.078238e-004,-2.083157e-004
-9.778715e-005,-1.407345e-004
4.110282e-005,-6.731887e-005
9.928427e-005,-4.275467e-006
9.442231e-005,4.061663e-005
6.670914e-005,7.270556e-005
6.492643e-005,1.043083e-004
1.154908e-004,1.410971e-004
2.135403e-004,1.775618e-004
3.271481e-004,2.072198e-004
4.192013e-004,2.213195e-004
4.717104e-004,2.166196e-004
4.893756e-004,1.971717e-004
4.879170e-004,1.676758e-004
4.804620e-004,1.381799e-004
4.751138e-004,1.122495e-004
4.673347e-004,9.085687e-005
4.506420e-004,7.335382e-005
4.169323e-004,5.763348e-005
3.491890e-004,3.948217e-005
2.253711e-004,1.841368e-005
3.932010e-005,1.234753e-006
-1.862748e-004,-2.168618e-006
-3.989045e-004,9.175954e-006
-5.358497e-004,2.489629e-005
-5.567560e-004,2.797553e-005
-4.702132e-004,1.355172e-005
-3.259751e-004,-1.254080e-005
-1.932436e-004,-3.685059e-005
-1.373311e-004,-4.884343e-005
-2.075054e-004,-4.608832e-005
-4.196488e-004,-3.215070e-005
-7.371347e-004,-9.785687e-006
-1.075365e-003,2.116879e-005
-1.340342e-003,5.957827e-005
-1.471128e-003,9.944633e-005
-1.463511e-003,1.342904e-004
-1.366272e-003,1.598967e-004
-1.241482e-003,1.749688e-004
-1.131602e-003,1.777239e-004
-1.062562e-003,1.723757e-004
-1.042952e-003,1.676758e-004
-1.058024e-003,1.707551e-004
-1.072934e-003,1.838824e-004
-1.049435e-003,2.039785e-004
-9.628916e-004,2.260194e-004
-8.045539e-004,2.373639e-004
-5.770142e-004,2.286124e-004
-2.922655e-004,2.026820e-004
2.586868e-005,1.725378e-004
3.478925e-004,1.500107e-004
6.387999e-004,1.386661e-004
8.558055e-004,1.329939e-004
9.660100e-004,1.263492e-004
9.679548e-004,1.156529e-004
8.870841e-004,1.028497e-004
7.626179e-004,9.361198e-005
6.310208e-004,8.712937e-005
5.222749e-004,8.291567e-005
4.537212e-004,8.080882e-005
4.226046e-004,8.113296e-005
4.099635e-004,8.372600e-005
3.982948e-004,8.291567e-005
3.806297e-004,7.918817e-005
3.623164e-004,7.465034e-005
3.615060e-004,7.513654e-005
3.898674e-004,8.097089e-005
4.417284e-004,8.745350e-005
5.023408e-004,8.567078e-005
5.593878e-004,7.238143e-005
6.094660e-004,5.082674e-005
6.580856e-004,2.732727e-005
7.125397e-004,8.851824e-006
7.759072e-004,-1.682422e-006
8.379783e-004,-5.409925e-006
8.799533e-004,-5.571990e-006
8.815739e-004,-7.678839e-006
8.352232e-004,-2.210265e-005
7.506250e-004,-5.095028e-005
6.634339e-004,-8.822530e-005
6.078454e-004,-1.256624e-004
6.055764e-004,-1.517549e-004
6.588960e-004,-1.575892e-004
7.490044e-004,-1.455964e-004
8.441368e-004,-1.290658e-004
9.123664e-004,-1.211245e-004
9.404037e-004,-1.267968e-004
9.308418e-004,-1.387897e-004
8.953495e-004,-1.498101e-004
8.449472e-004,-1.499722e-004
7.866035e-004,-1.339277e-004
7.279359e-004,-1.055663e-004
6.721854e-004,-7.104637e-005
6.076833e-004,-3.344722e-005
5.240575e-004,3.341602e-006
4.187151e-004,3.380988e-005
2.931144e-004,5.828174e-005
1.469315e-004,8.550872e-005
-1.659243e-005,1.229458e-004
-1.883817e-004,1.615174e-004
-3.650328e-004,1.762653e-004
-5.509217e-004,1.535762e-004
-7.552860e-004,1.010670e-004
-9.750465e-004,4.077869e-005
-1.183138e-003,-6.382316e-006
-1.336452e-003,-3.231276e-005
-1.392527e-003,-3.685059e-005
-1.344555e-003,-2.356124e-005
-1.232892e-003,1.883015e-006
-1.124147e-003,3.137890e-005
-1.077796e-003,5.536457e-005
-1.106157e-003,6.395403e-005
-1.170659e-003,5.390598e-005
-1.216200e-003,2.651694e-005
-1.204207e-003,-6.706447e-006
-1.121229e-003,-3.571614e-005
-9.713190e-004,-5.516398e-005
-7.671168e-004,-6.359137e-005
-5.235327e-004,-5.986387e-005
-2.652006e-004,-4.074016e-005
-1.967167e-005,-4.113402e-006
1.809652e-004,4.904402e-005
3.164518e-004,1.091703e-004
3.807918e-004,1.665414e-004
3.660438e-004,2.099749e-004
2.705873e-004,2.376881e-004
9.458438e-005,2.498430e-004
-1.712027e-004,2.566497e-004
-5.089468e-004,2.642668e-004
-8.543079e-004,2.718839e-004
-1.114261e-003,2.715597e-004
-1.197076e-003,2.555152e-004
-1.069693e-003,2.154851e-004
-7.674409e-004,1.539003e-004
-3.629260e-004,7.432621e-005
7.708132e-005,-1.205460e-005
5.021787e-004,-8.725291e-005
8.716880e-004,-1.349001e-004
1.153358e-003,-1.525652e-004
1.329199e-003,-1.488377e-004
1.405208e-003,-1.313347e-004
1.418335e-003,-1.102662e-004
1.428221e-003,-9.470791e-005
1.479758e-003,-8.287714e-005
1.577808e-003,-7.331529e-005
1.688174e-003,-5.727082e-005
1.762401e-003,-3.263690e-005
1.764345e-003,-3.627206e-006
1.680557e-003,2.197911e-005
1.523192e-003,3.867184e-005
1.323203e-003,4.515445e-005
1.112679e-003,4.369587e-005
9.089630e-004,4.223728e-005
7.097846e-004,4.726130e-005
5.114165e-004,5.666109e-005
3.098072e-004,6.719534e-005
1.099806e-004,7.627100e-005
-7.963584e-005,8.080882e-005
-2.587180e-004,8.242948e-005
-4.365036e-004,8.178122e-005
-6.126686e-004,7.983643e-005
-7.787854e-004,7.610893e-005
-9.272373e-004,7.092283e-005
-1.066775e-003,6.978838e-005
-1.209879e-003,7.384001e-005
-1.344555e-003,8.129502e-005
-1.439526e-003,9.166720e-005
-1.468859e-003,1.070634e-004
-1.417323e-003,1.239182e-004
-1.280864e-003,1.363972e-004
-1.076337e-003,1.435281e-004
-8.348601e-004,1.477418e-004
-5.932207e-004,1.522796e-004
-3.812393e-004,1.607070e-004
-2.047502e-004,1.710792e-004
-4.787104e-005,1.804790e-004
1.031738e-004,1.867996e-004
2.516257e-004,1.902029e-004
3.905157e-004,1.942546e-004
5.055821e-004,1.986303e-004
5.862907e-004,2.039785e-004
6.326414e-004,2.104611e-004
6.493341e-004,2.148369e-004
6.389620e-004,2.169437e-004
6.073592e-004,2.201850e-004
5.496639e-004,2.235884e-004
4.564763e-004,2.164575e-004
3.313618e-004,1.903650e-004
1.936063e-004,1.453108e-004
7.157111e-005,8.648111e-005
-3.627206e-006,1.646889e-005
-1.108221e-005,-6.310517e-005
5.682316e-005,-1.465688e-004
1.835582e-004,-2.209568e-004
3.339549e-004,-2.626076e-004
4.817585e-004,-2.489941e-004
6.122212e-004,-1.775233e-004
7.237222e-004,-6.942573e-005
8.238786e-004,4.709924e-005
9.248454e-004,1.427178e-004
1.027109e-003,1.970097e-004
1.115921e-003,2.057612e-004
1.172157e-003,1.824238e-004
1.184798e-003,1.511452e-004
1.153520e-003,1.297525e-004
1.082859e-003,1.237561e-004
9.763822e-004,1.300767e-004
8.449472e-004,1.367214e-004
7.120535e-004,1.344524e-004
6.024972e-004,1.203528e-004
5.310263e-004,9.717742e-005
5.039615e-004,7.189524e-005
5.080131e-004,5.034054e-005
5.156302e-004,3.786152e-005
4.978030e-004,3.656499e-005
4.198496e-004,4.175108e-005
2.373639e-004,4.823369e-005
-7.315322e-005,4.936815e-005
-4.711856e-004,4.142695e-005
-8.491218e-004,3.251336e-005
-1.110209e-003,2.992031e-005
-1.220251e-003,3.008238e-005
-1.217172e-003,2.505835e-005
-1.178763e-003,9.500084e-006
-1.189459e-003,-8.975361e-006
-1.311170e-003,-1.999580e-005
-1.555565e-003,-2.566809e-005
-1.867378e-003,-3.652646e-005
-2.147752e-003,-5.354332e-005
-2.303821e-003,-7.201877e-005
-2.282752e-003,-8.628051e-005
-2.076443e-003,-9.859748e-005
-1.716009e-003,-1.091317e-004
-1.258337e-003,-1.159385e-004
-7.758683e-004,-1.148040e-004
-3.361852e-004,-1.026491e-004
1.241726e-005,-8.563225e-005
2.404432e-004,-7.250496e-005
3.430306e-004,-7.023605e-005
3.365479e-004,-7.769105e-005
2.488706e-004,-8.757703e-005
1.200286e-004,-8.709084e-005
-1.205460e-005,-7.623246e-005
-1.201522e-004,-6.342930e-005
-1.971332e-004,-5.889147e-005
-2.489941e-004,-6.812920e-005
-2.888622e-004,-8.773910e-005
-3.316474e-004,-1.096179e-004
-3.903150e-004,-1.204763e-004
-4.585445e-004,-1.102662e-004
-5.144570e-004,-8.239095e-005
-5.283947e-004,-4.997788e-005
-4.810716e-004,-2.307504e-005
-3.671397e-004,-3.627206e-006
-2.031296e-004,1.371378e-005
-1.950961e-005,2.570661e-005
1.555209e-004,2.846173e-005
2.971661e-004,2.457216e-005
3.913260e-004,2.003433e-005
4.354078e-004,1.808955e-005
4.282769e-004,1.646889e-005
3.655576e-004,1.355172e-005
2.487085e-004,1.160693e-005
9.555677e-005,1.160693e-005
-5.710876e-005,1.176900e-005
-1.601823e-004,1.176900e-005
-1.784957e-004,1.257933e-005
-1.036215e-004,1.338965e-005
4.061663e-005,1.663096e-005
2.140265e-004,2.570661e-005
3.785229e-004,4.304760e-005
5.122268e-004,6.395403e-005
6.101142e-004,7.837785e-005
6.830437e-004,7.594687e-005
7.374978e-004,5.406805e-005
7.674798e-004,2.084466e-005
7.655350e-004,-1.010982e-005
7.280979e-004,-2.907146e-005
6.611649e-004,-3.328516e-005
5.802942e-004,-2.469570e-005
4.997478e-004,-7.840905e-006
4.209840e-004,1.095867e-005
3.478925e-004,2.554455e-005
2.963557e-004,3.154097e-005
2.931144e-004,2.959618e-005
3.639370e-004,2.570661e-005
5.101199e-004,2.343770e-005
7.039502e-004,2.635488e-005
9.010218e-004,3.769945e-005
1.056443e-003,5.747142e-005
1.144606e-003,7.724339e-005
1.163568e-003,8.793970e-005
1.133424e-003,8.696730e-005
1.084804e-003,8.048469e-005
1.045422e-003,7.772959e-005
1.025488e-003,8.453633e-005
1.022571e-003,9.782569e-005
1.026136e-003,1.111150e-004
1.029054e-003,1.184080e-004
1.029702e-003,1.192183e-004
1.025002e-003,1.154908e-004
1.007175e-003,1.075496e-004
9.695755e-004,9.750155e-005
9.075044e-004,9.118101e-005
8.156133e-004,9.085687e-005
6.898505e-004,9.685329e-005
5.350781e-004,1.101426e-004
3.671783e-004,1.269974e-004
2.041405e-004,1.451487e-004
5.682316e-005,1.582760e-004
-7.574627e-005,1.598967e-004
-1.964849e-004,1.459591e-004
-3.157650e-004,1.232699e-004
-4.358554e-004,1.038221e-004
-5.463838e-004,9.555677e-005
-6.251476e-004,9.328785e-005
-6.509160e-004,9.247753e-005
-6.228787e-004,9.085687e-005
-5.569181e-004,8.421220e-005
-4.841508e-004,7.448828e-005
-4.313175e-004,6.735740e-005
-4.126800e-004,6.865393e-005
-4.301830e-004,8.048469e-005
-4.878783e-004,9.685329e-005
-5.969482e-004,1.117633e-004
-7.567446e-004,1.260251e-004
-9.492782e-004,1.372075e-004
-1.139219e-003,1.466074e-004
-1.284591e-003,1.608691e-004
-1.354765e-003,1.790204e-004
-1.344393e-003,1.939304e-004
-1.270492e-003,1.934442e-004
-1.156073e-003,1.650828e-004
-1.018480e-003,1.093323e-004
-8.706765e-004,4.645098e-005
-7.159041e-004,1.234753e-006
-5.572422e-004,-1.707863e-005
-3.969597e-004,-1.610623e-005
-2.481837e-004,-8.651231e-006
-1.271210e-004,-1.682422e-006
-4.317114e-005,6.420843e-006
6.744974e-006,1.468617e-005
3.607880e-005,2.116879e-005
6.444023e-005,2.829966e-005
9.750155e-005,3.915804e-005
1.247285e-004,5.212327e-005
1.363972e-004,6.249544e-005
1.368834e-004,6.687120e-005
1.352628e-004,6.006446e-005
1.415833e-004,4.515445e-005
1.535762e-004,2.894792e-005
1.641104e-004,1.841368e-005
1.665414e-004,1.501031e-005
1.582760e-004,1.825161e-005
1.425557e-004,2.878586e-005
1.198666e-004,4.288554e-005
8.680524e-005,5.471631e-005
4.337174e-005,6.541262e-005
-5.734055e-006,7.772959e-005
-5.467778e-005,9.409818e-005
-9.665269e-005,1.138701e-004
-1.167488e-004,1.344524e-004
-9.535618e-005,1.560071e-004
-1.383732e-005,1.799928e-004
1.297525e-004,1.999268e-004
3.187208e-004,2.101370e-004
5.183853e-004,2.034923e-004
6.835299e-004,1.790204e-004
7.823899e-004,1.420695e-004
8.060514e-004,9.944633e-005
7.721797e-004,6.119892e-005
7.157809e-004,3.235129e-005
6.699165e-004,1.549650e-005
6.507927e-004,9.662150e-006
6.553305e-004,8.365628e-006
6.665131e-004,9.986280e-006
6.699165e-004,9.824214e-006
6.642442e-004,3.989864e-006
6.577615e-004,-8.651231e-006
6.541961e-004,-2.534396e-005
6.490100e-004,-3.798505e-005
6.303724e-004,-3.782299e-005
5.924492e-004,-2.469570e-005
5.388056e-004,-2.654814e-006
4.837033e-004,2.068259e-005
4.333010e-004,4.045456e-005
3.861399e-004,5.196120e-005
3.396272e-004,5.374392e-005
2.973281e-004,4.661304e-005
2.642668e-004,3.429608e-005
2.475740e-004,2.165498e-005
2.495188e-004,1.176900e-005
2.679943e-004,2.531276e-006
2.986246e-004,-7.030578e-006
3.344411e-004,-1.691656e-005
3.632887e-004,-2.647842e-005
3.822504e-004,-3.539201e-005
3.863020e-004,-4.138842e-005
3.561578e-004,-4.592625e-005
2.684805e-004,-4.527799e-005
1.056048e-004,-3.539201e-005
-1.459205e-004,-1.805102e-005
-5.076503e-004,-1.196226e-006
-9.812050e-004,5.448451e-006
-1.510996e-003,-5.479652e-007
-1.994113e-003,-1.432352e-005
-2.336558e-003,-2.177852e-005
-2.490844e-003,-1.335112e-005
-2.454704e-003,1.484824e-005
-2.270759e-003,5.860587e-005
-2.007727e-003,1.070634e-004
-1.730433e-003,1.440143e-004
-1.481663e-003,1.569795e-004
-1.275354e-003,1.477418e-004
-1.103402e-003,1.245665e-004
-9.508988e-004,9.636710e-005
-8.103882e-004,7.448828e-005
-6.902979e-004,6.087479e-005
-6.172064e-004,5.439218e-005
-6.219063e-004,4.466826e-005
-7.005080e-004,2.732727e-005
-7.857542e-004,-1.034161e-006
-7.794337e-004,-4.317114e-005
-6.178546e-004,-9.730095e-005
-3.147926e-004,-1.554824e-004
4.726130e-005,-2.032917e-004
3.791711e-004,-2.220912e-004
6.310208e-004,-2.021572e-004
8.010274e-004,-1.507825e-004
9.078285e-004,-8.790116e-005
9.569344e-004,-3.522994e-005
9.429968e-004,-3.465141e-006
8.611536e-004,3.989864e-006
7.190223e-004,-1.124428e-005
5.405883e-004,-4.236081e-005
3.629646e-004,-8.174268e-005
2.286124e-004,-1.214487e-004
1.607070e-004,-1.506204e-004
1.542244e-004,-1.666649e-004
1.861513e-004,-1.699062e-004
2.321778e-004,-1.616409e-004
2.717218e-004,-1.457585e-004
2.986246e-004,-1.267968e-004
3.187208e-004,-1.078352e-004
3.380065e-004,-8.628051e-005
3.572923e-004,-6.197072e-005
3.739850e-004,-3.960571e-005
3.911640e-004,-2.372330e-005
4.091532e-004,-1.092015e-005
4.224426e-004,3.989864e-006
4.240632e-004,2.133085e-005
4.112601e-004,3.462021e-005
3.856537e-004,4.272347e-005
3.524303e-004,5.277152e-005
3.243930e-004,7.205730e-005
3.162897e-004,9.750155e-005
3.422202e-004,1.237561e-004
4.072085e-004,1.407730e-004
5.141716e-004,1.438522e-004
6.551685e-004,1.357490e-004
8.034584e-004,1.210010e-004
9.282487e-004,1.054428e-004
1.008309e-003,9.588090e-005
1.037319e-003,9.620503e-005
1.024354e-003,1.047945e-004
9.862683e-004,1.208390e-004
9.413761e-004,1.388282e-004
8.987529e-004,1.553589e-004
8.574261e-004,1.726999e-004
8.160995e-004,1.927960e-004
7.836864e-004,2.145127e-004
7.788244e-004,2.388225e-004
8.151271e-004,2.598910e-004
8.896772e-004,2.757734e-004
9.820545e-004,2.814457e-004
1.061791e-003,2.728562e-004
1.097607e-003,2.513016e-004
1.069084e-003,2.258573e-004
9.682790e-004,2.028440e-004
7.934103e-004,1.817755e-004
5.498260e-004,1.644345e-004
2.634565e-004,1.516314e-004
-2.064406e-005,1.428798e-004
-2.481837e-004,1.338042e-004
-3.776739e-004,1.235941e-004
-4.076560e-004,1.175977e-004
-3.684362e-004,1.158149e-004
-3.044204e-004,1.163011e-004
-2.501285e-004,1.148425e-004
-2.206326e-004,1.111150e-004
-2.147983e-004,1.030118e-004
-2.199844e-004,9.150514e-005
-2.156086e-004,8.550872e-005
-1.851403e-004,9.263960e-005
-1.250141e-004,1.128978e-004
-4.787104e-005,1.391524e-004
2.116879e-005,1.573037e-004
5.585077e-005,1.576278e-004
4.175108e-005,1.404489e-004
-1.173047e-005,1.164632e-004
-8.109442e-005,9.750155e-005
-1.404103e-004,9.037068e-005
-1.776853e-004,9.150514e-005
-1.942160e-004,9.393611e-005
-1.981056e-004,9.101894e-005
-1.958366e-004,7.951231e-005
-1.932436e-004,6.168512e-005
-1.908126e-004,4.418206e-005
-1.911368e-004,3.056858e-005
-2.029675e-004,2.068259e-005
-2.355427e-004,1.468617e-005
-3.003688e-004,9.013888e-006
-4.068456e-004,-5.479652e-007
-5.462218e-004,-1.432352e-005
-6.781429e-004,-2.858526e-005
-7.497758e-004,-4.025397e-005
-7.262763e-004,-4.349527e-005
-6.129927e-004,-3.685059e-005
-4.454172e-004,-2.583015e-005
-2.700626e-004,-1.707863e-005
-1.245279e-004,-1.286493e-005
-3.749886e-005,-9.623623e-006
-2.583015e-005,-5.734055e-006
-8.968388e-005,4.244267e-007
-2.222533e-004,1.063454e-005
-4.112214e-004,2.133085e-005
-6.259579e-004,3.283749e-005
-8.262706e-004,4.369587e-005
-9.823395e-004,5.212327e-005
-1.070341e-003,5.714729e-005
-1.071313e-003,5.714729e-005
-9.797465e-004,5.034054e-005
-8.082814e-004,4.077869e-005
-5.786348e-004,3.591673e-005
-3.194925e-004,3.478227e-005
-5.565017e-005,3.932010e-005
1.895547e-004,4.888196e-005
3.880847e-004,5.811968e-005
5.204921e-004,5.860587e-005
5.736496e-004,4.531652e-005
5.365366e-004,2.019640e-005
4.237391e-004,-7.354708e-006
2.806354e-004,-3.004385e-005
1.611932e-004,-4.219875e-005
9.977046e-005,-4.106429e-005
1.007429e-004,-2.858526e-005
1.375317e-004,-1.027188e-005
1.772377e-004,1.128280e-005
1.932822e-004,3.056858e-005
1.692965e-004,4.402000e-005
8.745350e-005,4.758544e-005
-6.553616e-005,4.158902e-005
-2.822175e-004,2.813760e-005
-5.361738e-004,8.689757e-006
-7.970989e-004,-1.318906e-005
-1.035335e-003,-3.522994e-005
-1.224303e-003,-5.013995e-005
-1.354603e-003,-5.548810e-005
-1.437257e-003,-5.176060e-005
-1.476801e-003,-4.268495e-005
-1.465618e-003,-3.328516e-005
-1.400954e-003,-3.053005e-005
-1.295774e-003,-4.268495e-005
-1.172766e-003,-6.748093e-005
-1.058348e-003,-9.243900e-005
-9.761809e-004,-1.079973e-004
-9.244822e-004,-1.151281e-004
-8.791039e-004,-1.173971e-004
-8.105503e-004,-1.135075e-004
-7.097456e-004,-1.055663e-004
-5.878726e-004,-9.357345e-005
-4.671339e-004,-7.850138e-005
-3.692465e-004,-6.099833e-005
-3.016653e-004,-4.041603e-005
-2.425115e-004,-1.691656e-005
-1.475412e-004,8.041497e-006
1.144487e-005,3.235129e-005
2.354192e-004,5.536457e-005
5.088234e-004,7.351588e-005
8.107513e-004,8.437427e-005
1.110410e-003,8.307774e-005
1.382843e-003,6.525056e-005
1.618324e-003,3.818564e-005
1.824796e-003,1.355172e-005
2.015223e-003,-2.330684e-006
2.187986e-003,-3.951337e-006
2.327687e-003,1.274139e-005
2.417147e-003,4.612685e-005
2.451343e-003,8.469840e-005
2.435136e-003,1.150046e-004
2.376468e-003,1.278078e-004
2.287008e-003,1.231079e-004
2.165458e-003,1.077117e-004
1.992372e-003,8.907416e-005
1.733715e-003,7.821578e-005
1.394187e-003,8.048469e-005
1.050770e-003,9.490851e-005
8.188545e-004,1.106288e-004
7.770417e-004,1.133840e-004
9.109078e-004,9.701536e-005
1.129534e-003,6.735740e-005
1.319313e-003,3.932010e-005
1.399698e-003,2.635488e-005
1.350105e-003,3.251336e-005
1.205867e-003,5.309565e-005
1.027919e-003,7.902610e-005
8.592089e-004,1.026876e-004
7.138362e-004,1.218114e-004
5.822390e-004,1.334801e-004
4.509661e-004,1.381799e-004
3.065658e-004,1.394765e-004
1.441764e-004,1.448246e-004
-3.733679e-005,1.579519e-004
-2.382978e-004,1.744826e-004
-4.653512e-004,1.855030e-004
-7.206041e-004,1.861513e-004
-9.859049e-004,1.775618e-004
-1.224789e-003,1.663793e-004
-1.402089e-003,1.592484e-004
-1.499652e-003,1.566554e-004
-1.521531e-003,1.527658e-004
-1.478259e-003,1.436902e-004
-1.386692e-003,1.333180e-004
-1.263199e-003,1.245665e-004
-1.116854e-003,1.164632e-004
-9.523574e-004,1.072255e-004
-7.786234e-004,9.312579e-005
-6.113721e-004,7.708132e-005
-4.710235e-004,6.314371e-005
-3.710292e-004,5.471631e-005
-3.055549e-004,5.212327e-005
-2.541802e-004,5.358185e-005
-1.934057e-004,5.909207e-005
-1.109144e-004,6.541262e-005
-1.335112e-005,6.962632e-005
8.469840e-005,7.270556e-005
1.735102e-004,7.578480e-005
2.576221e-004,7.529860e-005
3.538889e-004,7.254349e-005
4.817585e-004,6.995045e-005
6.447963e-004,6.914012e-005
8.240407e-004,6.670914e-005
9.763822e-004,5.876794e-005
1.046070e-003,4.709924e-005
1.005716e-003,3.769945e-005
8.724983e-004,3.332369e-005
6.789921e-004,3.559260e-005
4.499937e-004,3.786152e-005
2.057612e-004,3.413401e-005
-3.798505e-005,2.230324e-005
-2.716832e-004,3.989864e-006
-5.074882e-004,-1.594417e-005
-7.726270e-004,-3.393342e-005
-1.074068e-003,-4.333321e-005
-1.398361e-003,-4.252288e-005
-1.700289e-003,-3.992984e-005
-1.913081e-003,-4.203669e-005
-1.967373e-003,-4.787104e-005
-1.823945e-003,-5.338126e-005
-1.499166e-003,-5.775702e-005
-1.066613e-003,-5.937767e-005
-6.309819e-004,-5.646050e-005
-2.852967e-004,-5.192267e-005
-7.218083e-005,-4.965375e-005
3.332369e-005,-4.997788e-005
9.717742e-005,-4.803310e-005
1.671896e-004,-4.252288e-005
2.511395e-004,-3.522994e-005
3.284447e-004,-3.053005e-005
3.705817e-004,-2.907146e-005
3.543751e-004,-3.263690e-005
2.624841e-004,-3.944364e-005
8.437427e-005,-4.949169e-005
-1.686097e-004,-6.359137e-005
-4.570859e-004,-7.882551e-005
-7.262763e-004,-8.887356e-005
-9.254545e-004,-8.741497e-005
-1.023828e-003,-7.282909e-005
-1.022370e-003,-5.159854e-005
-9.515471e-004,-2.907146e-005
-8.505804e-004,-1.318906e-005
-7.468586e-004,-1.010982e-005
-6.497815e-004,-1.805102e-005
-5.528664e-004,-2.826113e-005
-4.433104e-004,-3.296103e-005
-3.240303e-004,-2.599222e-005
-2.091260e-004,-3.303075e-006
-1.182074e-004,3.964423e-005
-5.775702e-005,9.733949e-005
-1.643037e-005,1.556830e-004
2.522042e-005,2.070577e-004
8.242948e-005,2.462775e-004
1.629759e-004,2.689667e-004
2.649151e-004,2.756114e-004
3.828986e-004,2.704253e-004
5.101199e-004,2.605393e-004
6.349103e-004,2.538946e-004
7.444666e-004,2.571359e-004
8.293889e-004,2.654012e-004
8.864359e-004,2.691287e-004
9.147974e-004,2.613496e-004
9.135008e-004,2.490327e-004
8.806015e-004,2.428742e-004
8.183684e-004,2.454672e-004
7.412253e-004,2.457913e-004
6.669993e-004,2.234263e-004
5.994180e-004,1.684862e-004
5.316746e-004,8.550872e-005
4.568004e-004,-8.813297e-006
3.788470e-004,-9.179074e-005
3.119140e-004,-1.459205e-004
2.681563e-004,-1.629374e-004
2.496809e-004,-1.455964e-004
2.534084e-004,-1.042698e-004
2.785285e-004,-5.500191e-005
3.128864e-004,-1.691656e-005
3.440029e-004,1.883015e-006
3.647473e-004,2.855406e-006
3.725264e-004,-7.840905e-006
3.670162e-004,-2.096819e-005
3.512959e-004,-2.874733e-005
3.247172e-004,-2.809907e-005
2.914938e-004,-2.258885e-005
2.582704e-004,-1.902341e-005
2.299089e-004,-1.918548e-005
2.028440e-004,-1.756482e-005
1.764274e-004,-1.010982e-005
1.514693e-004,5.864920e-007
1.273216e-004,1.014835e-005
1.112771e-004,1.808955e-005
1.179218e-004,2.246531e-005
1.537382e-004,2.149292e-005
2.172678e-004,1.808955e-005
2.955454e-004,1.306552e-005
3.668542e-004,8.365628e-006
4.149876e-004,4.962256e-006
4.334631e-004,3.503668e-006
4.258459e-004,3.341602e-006
4.023465e-004,6.096713e-006
3.683128e-004,8.203561e-006
3.271481e-004,7.069104e-006
2.829043e-004,1.883015e-006
2.409294e-004,-6.544382e-006
2.039785e-004,-1.464765e-005
1.762653e-004,-2.210265e-005
1.639483e-004,-2.728874e-005
1.676758e-004,-2.777494e-005
1.832341e-004,-2.291298e-005
2.068957e-004,-1.367526e-005
2.381743e-004,-2.168618e-006
2.777182e-004,1.063454e-005
3.279585e-004,2.359977e-005
3.845193e-004,2.765140e-005
4.368664e-004,2.035846e-005
4.709001e-004,5.286386e-006
4.687933e-004,-8.651231e-006
4.174185e-004,-1.254080e-005
3.119140e-004,-4.437533e-006
1.571416e-004,1.614476e-005
-4.398147e-005,3.753739e-005
-2.971275e-004,4.904402e-005
-6.040791e-004,4.207521e-005
-9.640261e-004,1.614476e-005
-1.355576e-003,-2.226472e-005
-1.710985e-003,-6.067420e-005
-1.934960e-003,-8.757703e-005
-1.953597e-003,-9.649063e-005
-1.739833e-003,-8.514606e-005
-1.329969e-003,-5.905355e-005
-8.133054e-004,-2.858526e-005
-3.015032e-004,-3.303075e-006
1.148425e-004,1.338965e-005
3.991052e-004,2.100672e-005
5.650601e-004,2.133085e-005
6.514410e-004,2.003433e-005
6.882299e-004,1.922400e-005
6.810990e-004,1.889987e-005
6.208106e-004,1.938607e-005
5.021787e-004,2.068259e-005
3.436788e-004,2.538249e-005
1.749688e-004,3.299956e-005
1.663096e-005,4.515445e-005
-1.272830e-004,6.525056e-005
-2.535319e-004,9.766362e-005
-3.475298e-004,1.383420e-004
-3.929080e-004,1.778859e-004
-3.852910e-004,2.085163e-004
-3.285681e-004,2.237504e-004
-2.308428e-004,2.279641e-004
-1.062145e-004,2.286124e-004
3.348575e-005,2.303951e-004
1.812893e-004,2.282883e-004
3.089968e-004,2.172678e-004
3.582647e-004,1.997648e-004
2.939247e-004,1.780480e-004
1.624898e-004,1.574657e-004
6.768153e-005,1.449867e-004
8.891209e-005,1.420695e-004
2.276400e-004,1.443384e-004
4.085050e-004,1.412592e-004
5.260024e-004,1.257009e-004
5.026649e-004,9.490851e-005
3.172621e-004,5.260946e-005
7.393235e-006,8.851824e-006
-3.499608e-004,-2.145439e-005
-6.672845e-004,-2.583015e-005
-8.687317e-004,-4.113402e-006
-9.171892e-004,3.121684e-005
-8.228672e-004,6.508849e-005
-6.429748e-004,8.956035e-005
-4.528722e-004,1.000946e-004
-3.120375e-004,9.717742e-005
-2.540181e-004,8.567078e-005
-2.849726e-004,7.027457e-005
-3.864254e-004,5.536457e-005
-5.293670e-004,4.353380e-005
-6.911082e-004,3.559260e-005
-8.556044e-004,3.089270e-005
-1.011673e-003,2.765140e-005
-1.146998e-003,2.586868e-005
-1.233865e-003,2.554455e-005
-1.252016e-003,2.716520e-005
-1.205666e-003,2.635488e-005
-1.117664e-003,2.311357e-005
-1.008108e-003,1.549650e-005
-8.946622e-004,5.448451e-006
-7.825129e-004,-7.840905e-006
-6.651777e-004,-2.518189e-005
-5.339048e-004,-4.527799e-005
-3.729740e-004,-6.229485e-005
-1.650442e-004,-6.829127e-005
8.875003e-005,-6.537409e-005
3.542131e-004,-6.132245e-005
5.921251e-004,-6.342930e-005
7.763934e-004,-6.521203e-005
9.060458e-004,-5.953974e-005
9.976128e-004,-4.138842e-005
1.070866e-003,-1.318906e-005
1.138610e-003,2.311357e-005
1.202140e-003,6.152305e-005
1.254487e-003,9.555677e-005
1.289007e-003,1.235941e-004
1.310075e-003,1.482280e-004
1.333251e-003,1.670276e-004
1.367446e-003,1.746447e-004
1.405370e-003,1.657311e-004
1.431138e-003,1.449867e-004
1.430814e-003,1.180839e-004
1.401318e-003,9.053274e-005
1.345568e-003,7.092283e-005
1.270045e-003,6.444023e-005
1.187716e-003,7.302969e-005
1.110410e-003,8.777764e-005
1.046070e-003,1.015532e-004
9.932371e-004,1.133840e-004
9.434829e-004,1.245665e-004
8.942151e-004,1.331559e-004
8.478643e-004,1.347766e-004
8.113996e-004,1.286181e-004
7.851450e-004,1.171115e-004
7.637523e-004,1.010670e-004
7.454389e-004,8.388807e-005
7.266394e-004,7.092283e-005
7.039502e-004,6.589881e-005
6.806127e-004,6.832980e-005
6.622994e-004,7.140904e-005
6.524133e-004,7.254349e-005
6.456067e-004,7.286762e-005
6.365310e-004,7.772959e-005
6.238898e-004,9.426025e-005
6.044420e-004,1.172735e-004
5.710566e-004,1.331559e-004
5.204921e-004,1.245665e-004
4.535591e-004,8.113296e-005
3.793332e-004,1.241726e-005
3.127243e-004,-5.775702e-005
2.602152e-004,-1.070249e-004
2.198609e-004,-1.219349e-004
1.829100e-004,-1.036215e-004
1.380179e-004,-6.375343e-005
7.481241e-005,-1.950961e-005
-1.221667e-005,1.306552e-005
-1.157764e-004,3.170303e-005
-2.126914e-004,3.948217e-005
-2.711970e-004,4.061663e-005
-2.600145e-004,4.304760e-005
-1.708786e-004,4.920609e-005
-3.296103e-005,5.520250e-005
9.539470e-005,5.341978e-005
1.647587e-004,4.337174e-005
1.564933e-004,3.137890e-005
7.643306e-005,2.035846e-005
-5.613637e-005,9.500084e-006
-2.135018e-004,-5.085794e-006
-3.786463e-004,-2.356124e-005
-5.501113e-004,-4.349527e-005
-7.285452e-004,-6.261898e-005
-9.118411e-004,-7.655659e-005
-1.079417e-003,-8.012203e-005
-1.209069e-003,-6.991192e-005
-1.292857e-003,-4.738484e-005
-1.354765e-003,-2.453363e-005
-1.451519e-003,-1.059601e-005
-1.644052e-003,-5.896120e-006
-1.954732e-003,-5.571990e-006
-2.338827e-003,-2.816880e-006
-2.712550e-003,1.072688e-006
-2.998272e-003,9.662150e-006
-3.147048e-003,2.214118e-005
-3.150290e-003,3.834771e-005
-3.033764e-003,5.909207e-005
-2.840420e-003,8.210535e-005
-2.611907e-003,1.036600e-004
-2.387609e-003,1.206769e-004
-2.187620e-003,1.282940e-004
-2.003189e-003,1.203528e-004
-1.811790e-003,9.442231e-005
-1.581819e-003,5.876794e-005
-1.292370e-003,2.716520e-005
-9.455506e-004,8.851824e-006
-5.580526e-004,4.244267e-007
-1.562927e-004,-2.006553e-006
2.323399e-004,5.864920e-007
5.781874e-004,4.151929e-006
8.593709e-004,6.420843e-006
1.070218e-003,1.112074e-005
1.218022e-003,2.473422e-005
1.319799e-003,4.045456e-005
1.395322e-003,4.774750e-005
1.457717e-003,4.418206e-005
1.508444e-003,3.348575e-005
1.540208e-003,2.716520e-005
1.538264e-003,3.024445e-005
1.492561e-003,3.737532e-005
1.409908e-003,4.337174e-005
1.313479e-003,4.564065e-005
1.234391e-003,5.115087e-005
1.193226e-003,6.589881e-005
1.195171e-003,8.550872e-005
1.231960e-003,9.620503e-005
1.291276e-003,9.490851e-005
1.350592e-003,8.567078e-005
1.392242e-003,7.497447e-005
1.410394e-003,6.687120e-005
1.405208e-003,6.379197e-005
1.360154e-003,6.703327e-005
1.236984e-003,7.416414e-005
1.005554e-003,8.242948e-005
6.921194e-004,8.453633e-005
3.736609e-004,7.546067e-005
1.372075e-004,5.471631e-005
3.202716e-005,2.684107e-005
5.212327e-005,2.207145e-006
1.449867e-004,-9.947754e-006
2.401191e-004,-8.975361e-006
2.824181e-004,4.244267e-007
2.641047e-004,1.257933e-005
2.203471e-004,2.246531e-005
2.036543e-004,2.797553e-005
2.568118e-004,3.056858e-005
3.827366e-004,3.137890e-005
5.561465e-004,3.316162e-005
7.376598e-004,3.380988e-005
8.893531e-004,3.364782e-005
9.859441e-004,3.445814e-005
1.017871e-003,3.996836e-005
9.951819e-004,5.034054e-005
9.444553e-004,6.379197e-005
8.942151e-004,7.481241e-005
8.587227e-004,7.983643e-005
8.319819e-004,7.578480e-005
8.015136e-004,6.476436e-005
7.584042e-004,5.082674e-005
7.016812e-004,3.915804e-005
6.264829e-004,3.137890e-005
5.248679e-004,2.570661e-005
3.866261e-004,2.278944e-005
2.119197e-004,2.327564e-005
7.717366e-006,2.765140e-005
-2.065330e-004,3.121684e-005
-4.036044e-004,3.364782e-005
-5.655076e-004,3.688912e-005
-6.972667e-004,3.867184e-005
-8.193018e-004,3.883391e-005
-9.530057e-004,3.478227e-005
-1.112478e-003,3.202716e-005
-1.300150e-003,2.878586e-005
-1.508079e-003,2.489629e-005
-1.721844e-003,2.295151e-005
-1.926694e-003,2.424803e-005
-2.109828e-003,2.651694e-005
-2.251960e-003,2.732727e-005
-2.317596e-003,2.522042e-005
-2.275459e-003,2.522042e-005
-2.112259e-003,3.235129e-005
-1.835451e-003,5.212327e-005
-1.472425e-003,8.032263e-005
-1.060941e-003,1.077117e-004
-6.348715e-004,1.244044e-004
-2.264670e-004,1.331559e-004
1.482280e-004,1.389903e-004
4.772207e-004,1.466074e-004
7.548388e-004,1.592484e-004
9.792994e-004,1.717275e-004
1.147523e-003,1.785342e-004
1.259511e-003,1.714033e-004
1.323851e-003,1.469315e-004
1.354319e-003,1.114392e-004
1.360154e-003,7.367795e-005
1.346864e-003,4.661304e-005
1.311534e-003,3.559260e-005
1.246870e-003,3.867184e-005
1.147361e-003,4.969228e-005
1.014792e-003,5.925414e-005
8.598571e-004,6.427816e-005
7.054087e-004,6.735740e-005
5.786736e-004,6.978838e-005
4.942375e-004,7.205730e-005
4.504799e-004,7.124698e-005
4.362181e-004,6.865393e-005
4.329768e-004,6.200925e-005
4.242253e-004,4.661304e-005
4.044533e-004,1.889987e-005
3.673404e-004,-1.950961e-005
3.127243e-004,-6.067420e-005
2.425500e-004,-9.470791e-005
1.681620e-004,-1.148040e-004
1.022014e-004,-1.180453e-004
5.228533e-005,-1.109144e-004
1.938607e-005,-9.973194e-005
-5.479652e-007,-8.303921e-005
-1.675450e-005,-5.565017e-005
-4.527799e-005,-2.031993e-005
-1.005423e-004,1.549650e-005
-1.891920e-004,4.790957e-005
-3.073376e-004,7.384001e-005
-4.363416e-004,9.004655e-005
-5.431426e-004,9.814982e-005
-5.912759e-004,1.031738e-004
-5.591870e-004,1.111150e-004
-4.535204e-004,1.197045e-004
-3.079858e-004,1.224596e-004
-1.640719e-004,1.195424e-004
-7.526008e-005,1.112771e-004
-8.725291e-005,9.750155e-005
-2.113949e-004,8.275361e-005
-4.079801e-004,6.784360e-005
-6.091031e-004,5.358185e-005
-7.520447e-004,4.353380e-005
-7.941817e-004,4.029249e-005
-7.269246e-004,4.418206e-005
-5.765280e-004,5.406805e-005
-3.823738e-004,6.427816e-005
-1.797922e-004,6.930219e-005
4.638125e-006,6.670914e-005
1.543865e-004,5.990240e-005
2.579462e-004,5.455424e-005
3.175863e-004,4.936815e-005
3.459477e-004,4.353380e-005
3.603715e-004,3.624086e-005
3.691231e-004,2.684107e-005
3.736609e-004,1.241726e-005
3.650714e-004,-4.761663e-006
3.368721e-004,-2.015787e-005
2.960316e-004,-2.777494e-005
2.563256e-004,-2.550602e-005
2.295848e-004,-1.399939e-005
2.196988e-004,-3.858999e-007
2.261814e-004,9.662150e-006
2.428742e-004,1.565857e-005
2.616738e-004,1.954813e-005
2.764217e-004,2.651694e-005
2.827422e-004,3.721326e-005
2.767458e-004,5.147500e-005
2.582704e-004,6.379197e-005
2.133783e-004,6.962632e-005
1.210010e-004,7.189524e-005
-1.464765e-005,7.546067e-005
-1.624512e-004,8.486046e-005
-2.818933e-004,1.004187e-004
-3.447747e-004,1.132219e-004
-3.391023e-004,1.192183e-004
-2.746004e-004,1.227837e-004
-1.747682e-004,1.292664e-004
-7.201877e-005,1.342904e-004
1.371378e-005,1.287802e-004
8.340186e-005,1.054428e-004
1.467694e-004,7.319175e-005
2.111093e-004,4.402000e-005
2.759355e-004,2.797553e-005
3.274723e-004,2.829966e-005
3.534027e-004,3.834771e-005
3.508097e-004,4.904402e-005
3.222862e-004,5.406805e-005
2.817698e-004,4.612685e-005
2.406053e-004,1.906194e-005
1.949028e-004,-2.485776e-005
1.328318e-004,-7.072224e-005
5.244739e-005,-9.940780e-005
-3.798505e-005,-1.015147e-004
-1.220969e-004,-8.158062e-005
-1.865989e-004,-5.402952e-005
-2.310048e-004,-3.377135e-005
-2.755728e-004,-2.728874e-005
-3.483401e-004,-3.004385e-005
-4.595169e-004,-3.717472e-005
-5.886829e-004,-4.754691e-005
-7.027768e-004,-5.743289e-005
-7.813785e-004,-5.727082e-005
-8.118468e-004,-4.462973e-005
-7.915886e-004,-2.858526e-005
-7.311383e-004,-2.226472e-005
-6.476747e-004,-3.101624e-005
-5.681007e-004,-5.111234e-005
-5.146191e-004,-7.056018e-005
-4.997090e-004,-7.704279e-005
-5.175362e-004,-6.245691e-005
-5.399013e-004,-3.555407e-005
-5.272602e-004,-8.489165e-006
-4.533584e-004,1.419998e-005
-3.185201e-004,2.975825e-005
-1.480274e-004,3.980630e-005
2.424803e-005,4.871989e-005
1.618415e-004,6.038860e-005
2.487085e-004,7.659513e-005
2.955454e-004,9.393611e-005
3.234207e-004,1.073875e-004
3.474063e-004,1.091703e-004
3.752816e-004,9.555677e-005
4.101256e-004,7.335382e-005
4.439973e-004,4.645098e-005
4.623107e-004,2.116879e-005
4.559901e-004,-3.465141e-006
4.266563e-004,-2.453363e-005
3.833848e-004,-3.749886e-005
3.367100e-004,-3.960571e-005
2.903593e-004,-3.215070e-005
2.414156e-004,-1.659243e-005
1.916615e-004,-1.682422e-006
1.456350e-004,2.045080e-006
9.944633e-005,-1.092015e-005
4.142695e-005,-3.085418e-005
-4.268495e-005,-3.960571e-005
-1.533756e-004,-2.372330e-005
-2.783279e-004,1.582063e-005
-3.971218e-004,6.622294e-005
-4.825302e-004,1.104668e-004
-5.172121e-004,1.362352e-004
-5.005194e-004,1.451487e-004
-4.428242e-004,1.423936e-004
-3.549847e-004,1.329939e-004
-2.467252e-004,1.258630e-004
-1.214487e-004,1.273216e-004
2.019640e-005,1.385041e-004
1.739964e-004,1.527658e-004
3.266619e-004,1.634621e-004
4.649037e-004,1.701068e-004
5.853183e-004,1.749688e-004
6.930918e-004,1.816135e-004
7.940585e-004,1.879340e-004
8.877324e-004,1.924718e-004
9.664962e-004,1.944166e-004
1.018843e-003,1.974959e-004
1.033267e-003,1.991165e-004
1.003771e-003,1.944166e-004
9.323005e-004,1.832341e-004
8.373301e-004,1.705930e-004
7.399287e-004,1.548727e-004
6.496583e-004,1.362352e-004
5.660325e-004,1.203528e-004
4.888894e-004,1.103047e-004
4.271425e-004,9.247753e-005
3.843572e-004,4.920609e-005
3.574544e-004,-1.869928e-005
3.352514e-004,-9.859748e-005
3.101313e-004,-1.724992e-004
2.807975e-004,-2.182017e-004
2.451431e-004,-2.254946e-004
2.075439e-004,-1.971332e-004
1.833962e-004,-1.481895e-004
1.866375e-004,-9.778715e-005
2.221298e-004,-5.581224e-005
2.738286e-004,-1.869928e-005
3.145071e-004,1.533444e-005
3.234207e-004,4.434413e-005
2.937627e-004,6.784360e-005
2.381743e-004,8.664317e-005
1.770756e-004,1.013911e-004
1.260251e-004,1.161391e-004
9.215340e-005,1.339663e-004
7.821578e-005,1.539003e-004
8.453633e-005,1.739964e-004
1.075496e-004,1.890685e-004
1.325077e-004,1.905270e-004
1.453108e-004,1.759412e-004
1.406109e-004,1.508210e-004
1.234320e-004,1.221355e-004
1.057669e-004,9.782569e-005
9.879807e-005,8.291567e-005
1.112771e-004,8.032263e-005
1.482280e-004,8.161915e-005
1.949028e-004,7.999850e-005
2.320158e-004,6.995045e-005
2.388225e-004,5.682316e-005
2.041405e-004,4.839576e-005
1.284560e-004,4.466826e-005
2.230324e-005,4.239934e-005
-1.018388e-004,3.834771e-005
-2.267911e-004,3.251336e-005
-3.374817e-004,2.862379e-005
-4.159213e-004,2.862379e-005
-4.478482e-004,3.478227e-005
-4.327761e-004,4.450619e-005
-3.810773e-004,5.358185e-005
-3.094444e-004,6.200925e-005
-2.355427e-004,7.319175e-005
-1.724992e-004,8.567078e-005
-1.314967e-004,9.053274e-005
-1.203142e-004,8.437427e-005
-1.451102e-004,7.221937e-005
-2.135018e-004,5.730935e-005
-3.256510e-004,4.353380e-005
-4.705373e-004,3.478227e-005
-6.173684e-004,3.073064e-005
-7.452379e-004,2.651694e-005
-8.483115e-004,1.906194e-005
-9.261028e-004,1.598270e-005
-9.732638e-004,1.808955e-005
-9.878497e-004,2.359977e-005
-9.849325e-004,3.332369e-005
-9.902806e-004,4.288554e-005
-1.020263e-003,4.661304e-005
-1.077958e-003,4.110282e-005
-1.146836e-003,2.538249e-005
-1.193835e-003,5.772582e-006
-1.194483e-003,-7.840905e-006
-1.151698e-003,-1.156841e-005
-1.089951e-003,-9.785687e-006
-1.030311e-003,-8.651231e-006
-9.789361e-004,-4.113402e-006
-9.233477e-004,8.527692e-006
-8.444219e-004,2.959618e-005
-7.270867e-004,5.260946e-005
-5.656697e-004,6.816773e-005
-3.640604e-004,7.238143e-005
-1.376552e-004,6.865393e-005
8.956035e-005,6.265751e-005
2.955454e-004,5.601283e-005
4.662002e-004,4.758544e-005
6.028214e-004,4.158902e-005
7.060570e-004,4.564065e-005
7.744486e-004,5.601283e-005
8.055652e-004,6.476436e-005
8.104272e-004,6.768153e-005
8.005412e-004,6.330577e-005
7.916276e-004,5.455424e-005
7.921138e-004,4.661304e-005
8.057273e-004,4.337174e-005
8.300371e-004,4.596478e-005
8.489988e-004,5.196120e-005
8.556435e-004,5.617490e-005
8.546711e-004,5.795762e-005
8.592089e-004,5.779555e-005
8.831946e-004,5.471631e-005
9.426726e-004,4.742337e-005
1.048339e-003,3.737532e-005
1.193064e-003,2.927205e-005
1.352698e-003,2.522042e-005
1.492399e-003,2.586868e-005
1.583156e-003,2.570661e-005
1.608924e-003,2.246531e-005
1.575701e-003,1.274139e-005
1.496937e-003,-1.358292e-006
1.385760e-003,-1.707863e-005
1.254973e-003,-3.069211e-005
1.125807e-003,-4.106429e-005
1.021923e-003,-4.479180e-005
9.601757e-004,-3.652646e-005
9.404037e-004,-1.643037e-005
9.439691e-004,8.203561e-006
9.455898e-004,2.392390e-005
9.170663e-004,2.376183e-005
8.395989e-004,1.225519e-005
7.086501e-004,-3.951337e-006
5.383193e-004,-2.031993e-005
3.530786e-004,-3.215070e-005
1.710792e-004,-3.247483e-005
-8.975361e-006,-1.497178e-005
-2.058847e-004,1.695509e-005
-4.463896e-004,5.244739e-005
-7.512344e-004,7.691926e-005
-1.121878e-003,7.902610e-005
-1.524124e-003,5.925414e-005
-1.907408e-003,3.283749e-005
-2.229108e-003,1.419998e-005
-2.466372e-003,8.041497e-006
-2.634596e-003,8.365628e-006
-2.770407e-003,9.824214e-006
-2.890660e-003,1.144487e-005
-2.969586e-003,1.193106e-005
-2.959052e-003,1.241726e-005
-2.823241e-003,1.338965e-005
-2.568312e-003,1.419998e-005
-2.239480e-003,8.689757e-006
-1.893471e-003,-5.571990e-006
-1.565288e-003,-2.550602e-005
-1.255095e-003,-3.976777e-005
-9.497644e-004,-4.479180e-005
-6.426506e-004,-4.090223e-005
-3.457470e-004,-3.231276e-005
-7.704279e-005,-1.886135e-005
1.517934e-004,1.720949e-006
3.418961e-004,2.910999e-005
5.016925e-004,6.022653e-005
6.371792e-004,8.939829e-005
7.477078e-004,1.119254e-004
8.378162e-004,1.281319e-004
9.109078e-004,1.378558e-004
9.684410e-004,1.419075e-004
1.008471e-003,1.399627e-004
1.022895e-003,1.334801e-004
1.010902e-003,1.231079e-004
9.801098e-004,1.104668e-004
9.504518e-004,9.750155e-005
9.447794e-004,8.388807e-005
9.634170e-004,7.173317e-005
9.875648e-004,6.055066e-005
9.953439e-004,4.839576e-005
9.754099e-004,3.753739e-005
9.261419e-004,2.797553e-005
8.561296e-004,1.873781e-005
7.736383e-004,1.225519e-005
6.658648e-004,1.403791e-005
5.337815e-004,2.748933e-005
4.258459e-004,4.693717e-005
4.167703e-004,6.427816e-005
5.501501e-004,7.627100e-005
8.135064e-004,8.502253e-005
1.143310e-003,8.972242e-005
1.457231e-003,8.923622e-005
1.682664e-003,8.486046e-005
1.765966e-003,7.805372e-005
1.687040e-003,6.703327e-005
1.467603e-003,5.163707e-005
1.153358e-003,3.494434e-005
7.940585e-004,2.165498e-005
4.277907e-004,1.857574e-005
8.631904e-005,2.489629e-005
-1.982676e-004,3.429608e-005
-3.974459e-004,3.850977e-005
-4.914437e-004,3.818564e-005
-4.758855e-004,4.191315e-005
-3.742705e-004,5.439218e-005
-2.240360e-004,7.351588e-005
-6.829127e-005,9.960840e-005
6.184718e-005,1.297525e-004
1.498487e-004,1.597346e-004
1.937684e-004,1.853410e-004
2.038164e-004,1.987924e-004
1.981441e-004,1.983062e-004
1.947408e-004,1.850168e-004
2.055991e-004,1.639483e-004
2.252090e-004,1.410971e-004
2.289365e-004,1.193804e-004
1.887443e-004,9.555677e-005
9.717742e-005,7.140904e-005
-2.145439e-005,4.888196e-005
-1.340898e-004,2.570661e-005
-2.044261e-004,1.234753e-006
-2.060468e-004,-2.096819e-005
-1.433275e-004,-4.041603e-005
-4.706071e-005,-5.840528e-005
3.721326e-005,-7.542214e-005
7.772959e-005,-8.952182e-005
6.508849e-005,-9.811128e-005
1.468617e-005,-1.015147e-004
-4.754691e-005,-9.778715e-005
-1.026491e-004,-8.287714e-005
-1.439758e-004,-5.953974e-005
-1.802784e-004,-3.328516e-005
-2.240360e-004,-1.092015e-005
-2.804347e-004,5.286386e-006
-3.425058e-004,1.501031e-005
-4.070077e-004,1.922400e-005
-4.653512e-004,2.165498e-005
-5.026262e-004,2.149292e-005
-5.097571e-004,2.262737e-005
-4.864197e-004,2.295151e-005
-4.277521e-004,1.695509e-005
-3.309991e-004,5.772582e-006
-2.037778e-004,-4.437533e-006
-6.148453e-005,-7.840905e-006
7.594687e-005,-2.006553e-006
1.822617e-004,9.175954e-006
2.485465e-004,2.149292e-005
2.811216e-004,3.008238e-005
2.916558e-004,3.251336e-005
2.790147e-004,2.813760e-005
2.323399e-004,2.781346e-005
1.535762e-004,3.769945e-005
5.439218e-005,5.504044e-005
-5.775702e-005,7.335382e-005
-1.903264e-004,8.729143e-005
-3.407230e-004,9.199134e-005
-4.890127e-004,8.907416e-005
-6.099135e-004,8.518459e-005
-6.710120e-004,8.729143e-005
-6.554538e-004,9.636710e-005
-5.692351e-004,1.143563e-004
-4.314796e-004,1.410971e-004
-2.673074e-004,1.686482e-004
-1.123730e-004,1.876099e-004
2.623614e-007,1.918236e-004
5.876794e-005,1.809652e-004
7.546067e-005,1.598967e-004
7.432621e-005,1.323456e-004
7.173317e-005,1.034980e-004
7.627100e-005,8.016056e-005
8.858796e-005,6.476436e-005
9.798775e-005,5.811968e-005
8.761556e-005,6.119892e-005
5.228533e-005,6.832980e-005
-4.113402e-006,7.254349e-005
-6.845333e-005,6.249544e-005
-1.238797e-004,3.526847e-005
-1.580754e-004,-3.465141e-006
-1.694200e-004,-4.430560e-005
-1.569410e-004,-7.785312e-005
-1.217728e-004,-9.584237e-005
-6.926366e-005,-9.243900e-005
-7.516774e-006,-7.007398e-005
5.552663e-005,-4.252288e-005
1.133840e-004,-1.740276e-005
1.650828e-004,3.503668e-006
2.070577e-004,2.359977e-005
2.425500e-004,4.677511e-005
2.764217e-004,7.594687e-005
3.026763e-004,1.093323e-004
3.161277e-004,1.410971e-004
3.083486e-004,1.620035e-004
2.717218e-004,1.650828e-004
2.005751e-004,1.514693e-004
9.280166e-005,1.255388e-004
-3.928157e-005,9.669123e-005
-1.796301e-004,7.221937e-005
-3.160891e-004,5.196120e-005
-4.454172e-004,3.672705e-005
-5.582146e-004,2.424803e-005
-6.279027e-004,1.290346e-005
-6.275786e-004,-2.238345e-007
-5.478425e-004,-1.464765e-005
-3.998769e-004,-2.615428e-005
-2.084778e-004,-3.101624e-005
-1.092015e-005,-3.036798e-005
1.574657e-004,-2.777494e-005
2.759355e-004,-2.356124e-005
3.435167e-004,-1.788895e-005
3.691231e-004,-1.173047e-005
3.675024e-004,-3.303075e-006
3.572923e-004,5.448451e-006
3.470822e-004,1.338965e-005
3.396272e-004,2.084466e-005
3.337928e-004,2.327564e-005
3.326584e-004,1.776542e-005
3.333066e-004,4.638125e-006
3.211517e-004,-1.318906e-005
2.882525e-004,-2.647842e-005
2.367157e-004,-2.988179e-005
1.801549e-004,-1.886135e-005
1.323456e-004,5.124321e-006
9.215340e-005,3.705119e-005
4.142695e-005,7.254349e-005
-4.787104e-005,1.015532e-004
-1.885437e-004,1.174356e-004
-3.682741e-004,1.201907e-004
-5.533526e-004,1.172735e-004
-7.178489e-004,1.138701e-004
-8.586837e-004,1.125736e-004
-9.991942e-004,1.128978e-004
-1.186218e-003,1.127357e-004
-1.450870e-003,1.098185e-004
-1.754743e-003,1.047945e-004
-2.003999e-003,9.928427e-005
-2.099132e-003,8.793970e-005
-1.989738e-003,5.957827e-005
-1.692023e-003,1.241726e-005
-1.276164e-003,-4.754691e-005
-8.324290e-004,-1.086455e-004
-4.295348e-004,-1.575892e-004
-9.438377e-005,-1.898402e-004
1.731861e-004,-2.021572e-004
3.880847e-004,-1.930815e-004
5.600361e-004,-1.682856e-004
6.990882e-004,-1.350622e-004
8.180442e-004,-1.020008e-004
9.329487e-004,-7.396355e-005
1.057415e-003,-4.949169e-005
1.192902e-003,-2.826113e-005
1.325309e-003,-7.840905e-006
1.435028e-003,1.209313e-005
1.499368e-003,3.543053e-005
1.501151e-003,6.055066e-005
1.434380e-003,8.745350e-005
1.316720e-003,1.104668e-004
1.177830e-003,1.278078e-004
1.047853e-003,1.354248e-004
9.460760e-004,1.339663e-004
8.746051e-004,1.265113e-004
8.183684e-004,1.156529e-004
7.572697e-004,1.072255e-004
6.854748e-004,1.025256e-004
6.128695e-004,1.010670e-004
5.504742e-004,9.847395e-005
5.029890e-004,9.669123e-005
4.746277e-004,1.013911e-004
4.632831e-004,1.182459e-004
4.678209e-004,1.423936e-004
4.843515e-004,1.637863e-004
5.055821e-004,1.725378e-004
5.268127e-004,1.660552e-004
5.467467e-004,1.534141e-004
5.666808e-004,1.441764e-004
5.864528e-004,1.441764e-004
6.104385e-004,1.514693e-004
6.387999e-004,1.586002e-004
6.700785e-004,1.621656e-004
6.969814e-004,1.613553e-004
7.078398e-004,1.584381e-004
6.838541e-004,1.504969e-004
6.140039e-004,1.354248e-004
5.002340e-004,1.151667e-004
3.402754e-004,9.636710e-005
1.339663e-004,7.724339e-005
-1.032974e-004,5.115087e-005
-3.436402e-004,1.954813e-005
-5.661558e-004,-8.651231e-006
-7.583653e-004,-2.615428e-005
-8.967690e-004,-3.182657e-005
-9.624055e-004,-2.647842e-005
-9.512230e-004,-1.318906e-005
-8.860727e-004,4.313994e-006
-7.988816e-004,2.489629e-005
-7.144455e-004,4.726130e-005
-6.484850e-004,6.946425e-005
-5.930586e-004,8.664317e-005
-5.363358e-004,9.588090e-005
-4.721580e-004,9.328785e-005
-4.027940e-004,7.659513e-005
-3.378058e-004,5.260946e-005
-2.848105e-004,2.959618e-005
-2.384598e-004,1.193106e-005
-1.856265e-004,1.883015e-006
-1.183694e-004,1.558884e-006
-4.414354e-005,1.095867e-005
2.246531e-005,2.343770e-005
7.416414e-005,2.732727e-005
1.167873e-004,2.343770e-005
1.496866e-004,1.419998e-005
1.678379e-004,9.175954e-006
1.660552e-004,9.986280e-006
1.506590e-004,1.630683e-005
1.409351e-004,2.635488e-005
1.574657e-004,3.705119e-005
2.057612e-004,4.272347e-005
2.749631e-004,4.402000e-005
3.368721e-004,4.547859e-005
3.663680e-004,4.483032e-005
3.538889e-004,3.786152e-005
3.112657e-004,2.133085e-005
2.663736e-004,-4.761663e-006
2.415776e-004,-3.085418e-005
2.475740e-004,-4.398147e-005
2.803112e-004,-3.814712e-005
3.352514e-004,-1.707863e-005
3.987810e-004,1.128280e-005
4.564763e-004,3.429608e-005
4.973168e-004,4.418206e-005
5.119027e-004,4.596478e-005
4.971547e-004,4.677511e-005
4.568004e-004,5.082674e-005
3.963500e-004,5.698522e-005
3.269861e-004,6.281957e-005
2.605393e-004,7.076077e-005
2.039785e-004,8.323980e-005
1.628139e-004,9.766362e-005
1.359110e-004,1.080358e-004
1.185700e-004,1.091703e-004
1.013911e-004,1.010670e-004
8.064676e-005,8.956035e-005
5.763348e-005,7.870197e-005
3.478227e-005,6.897806e-005
8.203561e-006,5.698522e-005
-2.048200e-005,4.191315e-005
-4.997788e-005,2.473422e-005
-7.833932e-005,9.986280e-006
-1.110765e-004,1.396819e-006
-1.567789e-004,-5.247859e-006
-2.327876e-004,-1.707863e-005
-3.553089e-004,-3.522994e-005
-5.254775e-004,-5.597430e-005
-7.300038e-004,-7.444974e-005
-9.513850e-004,-8.838737e-005
-1.166446e-003,-9.859748e-005
-1.344717e-003,-9.924574e-005
-1.450708e-003,-8.579432e-005
-1.462215e-003,-5.662256e-005
-1.393661e-003,-1.788895e-005
-1.270492e-003,2.149292e-005
-1.113774e-003,5.034054e-005
-9.447403e-004,6.800567e-005
-7.808923e-004,7.546067e-005
-6.369783e-004,7.270556e-005
-5.256395e-004,6.233338e-005
-4.531963e-004,5.115087e-005
-4.118697e-004,4.450619e-005
-3.799428e-004,4.191315e-005
-3.344025e-004,4.094075e-005
-2.653627e-004,4.158902e-005
-1.729855e-004,4.499239e-005
-6.504996e-005,4.855782e-005
4.191315e-005,4.855782e-005
1.278078e-004,4.499239e-005
1.796687e-004,4.126489e-005
1.974959e-004,3.899597e-005
1.921477e-004,3.883391e-005
1.804790e-004,4.288554e-005
1.790204e-004,5.017848e-005
1.965235e-004,5.633696e-005
2.326641e-004,6.152305e-005
2.803112e-004,6.703327e-005
3.349273e-004,7.432621e-005
3.892192e-004,8.178122e-005
4.358940e-004,8.793970e-005
4.738173e-004,8.988448e-005
5.099579e-004,8.696730e-005
5.548500e-004,7.918817e-005
6.073592e-004,6.995045e-005
6.572753e-004,6.654707e-005
7.020054e-004,7.173317e-005
7.491664e-004,8.032263e-005
8.071859e-004,8.599491e-005
8.767120e-004,8.388807e-005
9.522345e-004,7.513654e-005
1.019492e-003,6.136099e-005
1.066977e-003,4.790957e-005
1.090963e-003,3.964423e-005
1.092421e-003,4.353380e-005
1.082859e-003,5.795762e-005
1.070380e-003,7.659513e-005
1.058549e-003,9.426025e-005
1.043964e-003,1.046324e-004
1.024192e-003,1.039842e-004
9.903199e-004,9.409818e-005
9.340832e-004,8.080882e-005
8.593709e-004,6.751947e-005
7.757451e-004,6.233338e-005
6.917953e-004,6.606088e-005
6.062247e-004,7.416414e-005
5.080131e-004,8.226741e-005
3.794953e-004,8.891209e-005
2.036543e-004,9.604297e-005
-2.453363e-005,1.054428e-004
-2.908069e-004,1.214872e-004
-5.656697e-004,1.409351e-004
-8.171949e-004,1.553589e-004
-1.030311e-003,1.534141e-004
-1.223331e-003,1.244044e-004
-1.427533e-003,6.622294e-005
-1.663500e-003,-4.113402e-006
-1.918429e-003,-6.245691e-005
-2.138028e-003,-9.211487e-005
-2.252932e-003,-9.081834e-005
-2.212902e-003,-6.958779e-005
-2.013885e-003,-3.960571e-005
-1.703368e-003,-1.432352e-005
-1.346338e-003,1.558884e-006
-9.927116e-004,8.689757e-006
-6.747395e-004,1.225519e-005
-4.139765e-004,1.679302e-005
-2.240360e-004,2.278944e-005
-1.161005e-004,2.505835e-005
-8.530812e-005,1.938607e-005
-1.010285e-004,4.962256e-006
-1.264727e-004,-1.140634e-005
-1.389517e-004,-2.096819e-005
-1.316588e-004,-2.420950e-005
-1.045939e-004,-2.518189e-005
-6.553616e-005,-2.534396e-005
-1.756482e-005,-2.307504e-005
3.251336e-005,-1.626830e-005
8.178122e-005,-7.840905e-006
1.373696e-004,2.623614e-007
2.039785e-004,5.772582e-006
2.885766e-004,1.014835e-005
3.919743e-004,9.824214e-006
5.029890e-004,2.693341e-006
6.031455e-004,-1.124428e-005
6.788300e-004,-2.955766e-005
7.259911e-004,-4.900549e-005
7.515974e-004,-6.067420e-005
7.635903e-004,-5.516398e-005
7.691005e-004,-2.971972e-005
7.770417e-004,1.063454e-005
7.972998e-004,5.115087e-005
8.311716e-004,7.870197e-005
8.773602e-004,9.134307e-005
9.267902e-004,9.393611e-005
9.635790e-004,8.891209e-005
9.708721e-004,8.469840e-005
9.353797e-004,8.356393e-005
8.653674e-004,8.372600e-005
7.869277e-004,8.567078e-005
7.269635e-004,9.150514e-005
6.977917e-004,9.814982e-005
6.851506e-004,1.046324e-004
6.528996e-004,1.056048e-004
5.708945e-004,1.030118e-004
4.350837e-004,1.000946e-004
2.778803e-004,1.018773e-004
1.407730e-004,1.099806e-004
5.017848e-005,1.195424e-004
4.800190e-006,1.222975e-004
-1.286493e-005,1.174356e-004
-1.967167e-005,1.056048e-004
-2.437157e-005,9.426025e-005
-3.847125e-005,8.712937e-005
-6.310517e-005,8.210535e-005
-9.600443e-005,7.853991e-005
-1.366828e-004,7.416414e-005
-1.828714e-004,6.881599e-005
-2.303566e-004,6.314371e-005
-2.671454e-004,5.747142e-005
-2.744383e-004,5.244739e-005
-2.402425e-004,4.823369e-005
-1.655304e-004,4.742337e-005
-6.958779e-005,4.790957e-005
1.549650e-005,4.855782e-005
5.714729e-005,5.034054e-005
3.624086e-005,5.568870e-005
-4.916756e-005,6.444023e-005
-1.827094e-004,7.529860e-005
-3.381300e-004,8.599491e-005
-4.933885e-004,9.426025e-005
-6.418403e-004,9.993253e-005
-7.799199e-004,1.036600e-004
-8.901243e-004,1.077117e-004
-9.528436e-004,1.111150e-004
-9.568952e-004,1.148425e-004
-8.979035e-004,1.188942e-004
-7.818647e-004,1.219734e-004
-6.185029e-004,1.222975e-004
-4.193247e-004,1.177597e-004
-2.071812e-004,1.112771e-004
-3.141010e-006,1.070634e-004
1.814514e-004,1.075496e-004
3.425443e-004,1.078737e-004
4.743035e-004,9.847395e-005
5.671670e-004,7.254349e-005
6.196762e-004,3.283749e-005
6.407447e-004,-7.516774e-006
6.381517e-004,-3.717472e-005
6.198382e-004,-5.370539e-005
5.929354e-004,-6.197072e-005
5.681394e-004,-6.667061e-005
5.475571e-004,-7.299116e-005
5.384814e-004,-8.271508e-005
5.422089e-004,-9.438377e-005
5.553362e-004,-1.024870e-004
5.718669e-004,-1.032974e-004
5.867769e-004,-9.778715e-005
5.987698e-004,-9.405964e-005
6.024972e-004,-9.746302e-005
5.930975e-004,-1.057284e-004
5.655463e-004,-1.159385e-004
5.049338e-004,-1.173971e-004
3.971604e-004,-9.989400e-005
2.303951e-004,-6.391550e-005
9.824214e-006,-1.837515e-005
-2.295462e-004,2.473422e-005
-4.300210e-004,5.747142e-005
-5.348772e-004,7.789165e-005
-5.115398e-004,8.518459e-005
-3.603329e-004,8.129502e-005
-1.258244e-004,7.367795e-005
1.240803e-004,6.832980e-005
3.253654e-004,6.946425e-005
4.443214e-004,7.140904e-005
4.780310e-004,7.627100e-005
4.485351e-004,8.534666e-005
3.858158e-004,9.426025e-005
3.128864e-004,9.701536e-005
2.372019e-004,9.166720e-005
1.607070e-004,7.789165e-005
8.340186e-005,5.974033e-005
8.203561e-006,4.223728e-005
-6.537409e-005,2.927205e-005
-1.357104e-004,2.197911e-005
-2.006986e-004,2.019640e-005
-2.538560e-004,1.889987e-005
-2.955068e-004,1.598270e-005
-3.285681e-004,1.225519e-005
-3.510952e-004,5.610517e-006
-3.593605e-004,-7.354708e-006
-3.530400e-004,-2.437157e-005
-3.374817e-004,-4.009190e-005
-3.295405e-004,-4.787104e-005
-3.410472e-004,-4.236081e-005
-3.721637e-004,-2.469570e-005
-4.172178e-004,3.017472e-006
-4.744269e-004,3.786152e-005
-5.546492e-004,7.805372e-005
-6.705258e-004,1.185700e-004
-8.207604e-004,1.526038e-004
-9.868774e-004,1.751308e-004
-1.126578e-003,1.858272e-004
-1.188973e-003,1.822617e-004
-1.139543e-003,1.688103e-004
-9.726156e-004,1.547106e-004
-7.244936e-004,1.445005e-004
-4.538446e-004,1.380179e-004
-2.175534e-004,1.316973e-004
-4.462973e-005,1.231079e-004
5.536457e-005,1.122495e-004
9.685329e-005,9.977046e-005
1.128978e-004,8.810177e-005
1.313732e-004,7.886404e-005
1.686482e-004,6.881599e-005
2.260194e-004,5.455424e-005
2.892249e-004,3.980630e-005
3.465960e-004,2.959618e-005
3.986190e-004,2.570661e-005
4.538833e-004,2.570661e-005
5.175750e-004,2.959618e-005
5.906665e-004,3.218923e-005
6.708889e-004,3.121684e-005
7.588904e-004,2.278944e-005
8.436506e-004,1.014835e-005
8.997252e-004,-3.303075e-006
9.115561e-004,-1.189254e-005
8.810877e-004,-1.367526e-005
8.240407e-004,-6.382316e-006
7.616455e-004,9.500084e-006
7.112431e-004,2.376183e-005
6.807748e-004,3.008238e-005
6.741302e-004,2.635488e-005
6.995744e-004,1.387585e-005
7.572697e-004,-3.141010e-006
8.400852e-004,-1.772689e-005
9.303557e-004,-2.485776e-005
1.006364e-003,-2.372330e-005
1.053525e-003,-1.270286e-005
1.061953e-003,7.717366e-006
1.030188e-003,3.380988e-005
9.653618e-004,6.168512e-005
8.843290e-004,9.150514e-005
8.023239e-004,1.180839e-004
7.224256e-004,1.363972e-004
6.394482e-004,1.445005e-004
5.422089e-004,1.451487e-004
4.206599e-004,1.381799e-004
2.628082e-004,1.232699e-004
6.768153e-005,1.030118e-004
-1.491618e-004,8.453633e-005
-3.695707e-004,6.735740e-005
-5.901415e-004,5.504044e-005
-8.252982e-004,5.147500e-005
-1.091247e-003,5.504044e-005
-1.404844e-003,6.119892e-005
-1.763008e-003,6.589881e-005
-2.135434e-003,6.589881e-005
-2.467669e-003,5.974033e-005
-2.708660e-003,4.661304e-005
-2.835558e-003,2.554455e-005
-2.850954e-003,4.476060e-006
-2.780131e-003,-5.085794e-006
-2.661661e-003,2.207145e-006
-2.531847e-003,2.214118e-005
-2.402356e-003,4.304760e-005
-2.261197e-003,5.568870e-005
-2.082439e-003,5.779555e-005
-1.844689e-003,5.260946e-005
-1.547137e-003,4.547859e-005
-1.198859e-003,3.834771e-005
-8.170329e-004,3.202716e-005
-4.167317e-004,2.295151e-005
-1.967167e-005,9.013888e-006
3.521062e-004,-1.140634e-005
6.763990e-004,-3.506787e-005
9.378106e-004,-5.062615e-005
1.134396e-003,-4.544005e-005
1.273448e-003,-1.805102e-005
1.367284e-003,2.035846e-005
1.436973e-003,5.698522e-005
1.499530e-003,8.226741e-005
1.553174e-003,9.620503e-005
1.586721e-003,9.944633e-005
1.592394e-003,9.604297e-005
1.571649e-003,8.972242e-005
1.531619e-003,8.323980e-005
1.484134e-003,7.659513e-005
1.438917e-003,7.335382e-005
1.399698e-003,7.659513e-005
1.361450e-003,8.421220e-005
1.311696e-003,8.810177e-005
1.239577e-003,8.178122e-005
1.147037e-003,6.881599e-005
1.047691e-003,5.293359e-005
9.562862e-004,3.688912e-005
8.817360e-004,2.327564e-005
8.212855e-004,1.484824e-005
7.691005e-004,1.014835e-005
7.209671e-004,3.989864e-006
6.726715e-004,-4.761663e-006
6.266450e-004,-1.497178e-005
5.892079e-004,-2.501983e-005
5.595500e-004,-3.652646e-005
5.316746e-004,-4.560212e-005
4.952099e-004,-4.754691e-005
4.493454e-004,-4.381940e-005
3.934329e-004,-3.992984e-005
3.292550e-004,-3.944364e-005
2.569738e-004,-4.430560e-005
1.761032e-004,-4.787104e-005
8.615698e-005,-4.673658e-005
-9.623623e-006,-3.895744e-005
-1.002181e-004,-2.566809e-005
-1.690959e-004,-9.623623e-006
-2.044261e-004,2.369210e-006
-2.042640e-004,7.069104e-006
-1.737958e-004,4.313994e-006
-1.186936e-004,-7.100305e-007
-4.868136e-005,-2.654814e-006
2.489629e-005,2.531276e-006
9.247753e-005,9.986280e-006
1.401247e-004,1.582063e-005
1.564933e-004,2.052053e-005
1.407730e-004,2.684107e-005
1.004187e-004,3.737532e-005
4.531652e-005,4.871989e-005
-2.113026e-005,5.714729e-005
-8.822530e-005,6.022653e-005
-1.496480e-004,6.136099e-005
-2.008607e-004,6.557468e-005
-2.373254e-004,7.789165e-005
-2.541802e-004,9.717742e-005
-2.457528e-004,1.138701e-004
-2.088019e-004,1.203528e-004
-1.483515e-004,1.137081e-004
-7.396355e-005,1.038221e-004
-2.492749e-006,1.044704e-004
5.293359e-005,1.161391e-004
8.648111e-005,1.308870e-004
9.620503e-005,1.391524e-004
8.388807e-005,1.349386e-004
5.633696e-005,1.221355e-004
1.792748e-005,1.051186e-004
-2.145439e-005,9.020861e-005
-5.257093e-005,8.016056e-005
-6.926366e-005,7.351588e-005
-7.347736e-005,6.606088e-005
-6.991192e-005,5.341978e-005
-5.905355e-005,3.705119e-005
-4.284701e-005,2.100672e-005
-2.469570e-005,5.934647e-006
-4.113402e-006,-6.058186e-006
2.052053e-005,-1.075808e-005
5.147500e-005,-9.461557e-006
8.502253e-005,-7.192643e-006
1.107909e-004,-5.085794e-006
1.222975e-004,-2.654814e-006
1.137081e-004,9.106226e-007
7.805372e-005,9.500084e-006
2.045080e-006,2.846173e-005
-1.199901e-004,5.633696e-005
-2.687660e-004,8.729143e-005
-4.006872e-004,1.137081e-004
-4.690787e-004,1.279698e-004
-4.527101e-004,1.268354e-004
-3.671397e-004,1.132219e-004
-2.439700e-004,9.231547e-005
-1.136696e-004,6.865393e-005
3.989864e-006,4.871989e-005
1.002567e-004,3.753739e-005
1.804790e-004,3.834771e-005
2.474120e-004,4.677511e-005
3.030004e-004,6.006446e-005
3.441650e-004,7.546067e-005
3.615060e-004,8.956035e-005
3.402754e-004,9.539470e-005
2.757734e-004,9.539470e-005
1.829100e-004,9.328785e-005
8.226741e-005,9.069480e-005
-7.192643e-006,8.599491e-005
-8.255302e-005,7.659513e-005
-1.551583e-004,6.136099e-005
-2.486699e-004,4.288554e-005
-3.839945e-004,2.765140e-005
-5.577284e-004,1.695509e-005
-7.476689e-004,9.662150e-006
-9.288579e-004,5.124321e-006
-1.082496e-003,2.531276e-006
-1.193349e-003,5.864920e-007
-1.247316e-003,-1.196226e-006
-1.233055e-003,-6.176923e-008
-1.154453e-003,4.244267e-007
-1.038414e-003,4.962256e-006
-9.168651e-004,1.614476e-005
-8.061745e-004,3.348575e-005
-7.058561e-004,4.904402e-005
-6.063480e-004,5.893001e-005
-4.950092e-004,6.346784e-005
-3.685983e-004,6.541262e-005
-2.459148e-004,6.395403e-005
-1.626133e-004,6.055066e-005
-1.519170e-004,5.779555e-005
-2.131776e-004,5.633696e-005
-3.162512e-004,5.504044e-005
-4.274279e-004,4.920609e-005
-5.259637e-004,3.883391e-005
-6.018102e-004,2.554455e-005
-6.554538e-004,8.689757e-006
-6.909461e-004,-1.010982e-005
-7.112043e-004,-2.793700e-005
-7.125008e-004,-3.960571e-005
-6.736051e-004,-4.203669e-005
-5.705316e-004,-3.879538e-005
-3.972838e-004,-3.263690e-005
-1.804405e-004,-2.485776e-005
3.105477e-005,-1.351319e-005
1.869616e-004,3.017472e-006
2.728562e-004,2.230324e-005
3.180725e-004,3.850977e-005
3.653956e-004,5.066468e-005
4.417284e-004,6.168512e-005
5.493397e-004,6.719534e-005
6.691061e-004,6.573675e-005
7.671557e-004,5.860587e-005
8.117237e-004,5.228533e-005
7.900069e-004,5.471631e-005
7.068673e-004,6.638501e-005
5.845079e-004,8.178122e-005
4.533971e-004,9.442231e-005
3.422202e-004,1.049566e-004
2.720459e-004,1.122495e-004
2.478982e-004,1.103047e-004
2.597290e-004,9.426025e-005
3.072141e-004,6.411610e-005
3.965121e-004,2.716520e-005
5.446399e-004,-3.303075e-006
7.546767e-004,-1.967167e-005
1.004906e-003,-2.080613e-005
1.254973e-003,-1.108221e-005
1.464524e-003,1.883015e-006
1.600821e-003,1.419998e-005
1.657544e-003,2.473422e-005
1.653006e-003,3.380988e-005
1.619296e-003,4.337174e-005
1.584939e-003,5.471631e-005
1.563222e-003,6.557468e-005
1.547988e-003,7.513654e-005
1.521895e-003,8.340186e-005
1.474410e-003,8.777764e-005
1.406018e-003,8.275361e-005
1.326120e-003,6.768153e-005
1.240873e-003,5.017848e-005
1.130831e-003,3.429608e-005
9.606619e-004,1.971020e-005
7.217774e-004,7.555300e-006
4.401077e-004,8.689757e-006
1.649207e-004,2.197911e-005
-6.861539e-005,3.850977e-005
-2.582318e-004,5.423011e-005
-4.266176e-004,6.768153e-005
-6.039171e-004,7.870197e-005
-8.056883e-004,8.956035e-005
-1.031121e-003,1.000946e-004
-1.270329e-003,1.120874e-004
-1.507593e-003,1.292664e-004
-1.719575e-003,1.432040e-004
-1.875481e-003,1.479039e-004
-1.944521e-003,1.372075e-004
-1.910974e-003,1.101426e-004
-1.776946e-003,7.221937e-005
-1.560751e-003,3.543053e-005
-1.298529e-003,1.176900e-005
-1.033876e-003,4.151929e-006
-7.980713e-004,8.851824e-006
-5.961379e-004,1.306552e-005
-4.146248e-004,5.124321e-006
-2.454286e-004,-1.918548e-005
-9.503204e-005,-5.613637e-005
2.311357e-005,-9.681476e-005
1.112771e-004,-1.284175e-004
1.919856e-004,-1.404103e-004
2.811216e-004,-1.321450e-004
3.796573e-004,-1.047560e-004
4.793275e-004,-6.310517e-005
5.632774e-004,-1.545797e-005
6.242140e-004,2.765140e-005
6.655407e-004,6.022653e-005
6.939021e-004,8.145709e-005
7.141603e-004,9.118101e-005
7.282600e-004,9.199134e-005
7.379840e-004,8.712937e-005
7.443045e-004,8.486046e-005
7.485182e-004,8.761556e-005
7.545147e-004,9.312579e-005
7.590525e-004,9.960840e-005
7.525698e-004,1.057669e-004
7.238842e-004,1.088461e-004
6.684579e-004,1.060910e-004
5.906665e-004,9.571883e-005
5.075269e-004,7.967437e-005
4.422145e-004,6.444023e-005
4.151496e-004,5.341978e-005
4.269804e-004,4.855782e-005
4.665244e-004,4.807163e-005
5.081752e-004,4.904402e-005
5.324850e-004,5.244739e-005
5.230852e-004,5.909207e-005
4.725208e-004,6.735740e-005
3.921364e-004,6.946425e-005
3.164518e-004,6.087479e-005
2.765838e-004,3.769945e-005
2.850111e-004,7.555300e-006
3.323342e-004,-2.064406e-005
3.882468e-004,-3.701266e-005
4.164462e-004,-3.895744e-005
3.953777e-004,-2.566809e-005
3.276343e-004,-2.168618e-006
2.255332e-004,2.295151e-005
1.072255e-004,4.709924e-005
-1.173047e-005,6.557468e-005
-1.224211e-004,7.546067e-005
-2.324634e-004,7.789165e-005
-3.598467e-004,7.416414e-005
-5.023021e-004,6.346784e-005
-6.321164e-004,4.904402e-005
-7.196317e-004,3.834771e-005
-7.479931e-004,3.299956e-005
-7.308142e-004,3.202716e-005
-6.902979e-004,3.397195e-005
-6.478368e-004,3.607880e-005
-6.120203e-004,3.688912e-005
-5.770142e-004,4.239934e-005
-5.347152e-004,5.212327e-005
-4.882024e-004,6.427816e-005
-4.478482e-004,7.432621e-005
-4.214316e-004,7.805372e-005
-4.149489e-004,7.724339e-005
-4.295348e-004,7.935023e-005
-4.561135e-004,8.761556e-005
-4.655133e-004,1.022014e-004
-4.201350e-004,1.208390e-004
-3.018273e-004,1.433660e-004
-1.238797e-004,1.634621e-004
7.189524e-005,1.731861e-004
2.295848e-004,1.710792e-004
3.077003e-004,1.608691e-004
2.944109e-004,1.443384e-004
2.054371e-004,1.287802e-004
6.865393e-005,1.205148e-004
-8.903562e-005,1.180839e-004
-2.429977e-004,1.150046e-004
-3.830221e-004,1.043083e-004
-5.070020e-004,8.502253e-005
-6.202856e-004,5.520250e-005
-7.300038e-004,1.387585e-005
-8.317808e-004,-2.647842e-005
-9.090859e-004,-5.354332e-005
-9.546263e-004,-6.294311e-005
-9.713190e-004,-5.516398e-005
-9.632158e-004,-3.620233e-005
-9.320992e-004,-1.189254e-005
-8.831555e-004,1.031041e-005
-8.209224e-004,2.424803e-005
-7.496137e-004,2.797553e-005
-6.742533e-004,2.084466e-005
-6.018102e-004,3.827798e-006
-5.329325e-004,-1.691656e-005
-4.567618e-004,-3.474375e-005
-3.519055e-004,-4.851930e-005
-2.107467e-004,-5.840528e-005
-5.095028e-005,-6.504996e-005
9.507057e-005,-6.440169e-005
1.968476e-004,-5.581224e-005
2.430362e-004,-4.219875e-005
2.430362e-004,-2.485776e-005
2.141886e-004,-4.599598e-006
1.658931e-004,1.565857e-005
1.018773e-004,3.494434e-005
2.522042e-005,5.406805e-005
-5.143647e-005,7.497447e-005
-1.102662e-004,9.523264e-005
-1.438137e-004,1.120874e-004
-1.554824e-004,1.210010e-004
-1.415448e-004,1.177597e-004
-9.373551e-005,1.065772e-004
-2.238345e-007,9.442231e-005
1.372075e-004,8.680524e-005
3.004074e-004,8.161915e-005
4.636072e-004,7.610893e-005
6.081695e-004,7.092283e-005
7.216153e-004,7.092283e-005
7.951930e-004,7.675719e-005
8.254993e-004,8.631904e-005
8.167477e-004,9.328785e-005
7.781762e-004,9.490851e-005
7.204809e-004,9.037068e-005
6.507927e-004,8.210535e-005
5.819149e-004,7.465034e-005
5.308643e-004,7.335382e-005
5.084993e-004,8.145709e-005
5.157922e-004,9.490851e-005
5.546879e-004,1.044704e-004
6.247002e-004,1.044704e-004
7.235601e-004,9.701536e-005
8.400852e-004,8.583285e-005
9.557999e-004,7.092283e-005
1.046881e-003,5.341978e-005
1.094042e-003,3.688912e-005
1.092421e-003,2.586868e-005
1.044936e-003,2.522042e-005
9.619584e-004,3.186510e-005
8.579124e-004,4.126489e-005
7.428459e-004,4.742337e-005
6.292380e-004,4.693717e-005
5.297298e-004,4.434413e-005
4.546936e-004,4.450619e-005
4.049395e-004,4.661304e-005
3.783608e-004,5.341978e-005
3.692851e-004,6.670914e-005
3.697713e-004,8.550872e-005
3.634508e-004,1.026876e-004
3.349273e-004,1.151667e-004
2.830664e-004,1.218114e-004
2.184023e-004,1.221355e-004
1.608691e-004,1.172735e-004
1.253768e-004,1.060910e-004
1.156529e-004,8.891209e-005
1.210010e-004,7.238143e-005
1.253768e-004,6.055066e-005
1.135460e-004,5.196120e-005
8.583285e-005,4.288554e-005
5.309565e-005,2.797553e-005
2.781346e-005,4.313994e-006
1.841368e-005,-3.069211e-005
3.008238e-005,-7.023605e-005
6.055066e-005,-1.020008e-004
1.002567e-004,-1.195039e-004
1.380179e-004,-1.211245e-004
1.660552e-004,-1.123730e-004
1.876099e-004,-9.503204e-005
2.206712e-004,-7.104637e-005
2.812837e-004,-4.560212e-005
3.678265e-004,-2.258885e-005
4.516144e-004,-4.923729e-006
4.793275e-004,5.772582e-006
4.031568e-004,1.063454e-005
2.085163e-004,1.630683e-005
-7.752898e-005,2.133085e-005
-3.977700e-004,2.392390e-005
-6.914323e-004,2.035846e-005
-9.233477e-004,8.851824e-006
-1.091409e-003,-8.165034e-006
-1.221548e-003,-2.664048e-005
-1.335318e-003,-3.879538e-005
-1.428829e-003,-4.138842e-005
-1.480528e-003,-3.539201e-005
-1.480690e-003,-2.988179e-005
-1.440822e-003,-3.101624e-005
-1.370486e-003,-4.090223e-005
-1.287184e-003,-5.289506e-005
-1.226248e-003,-6.261898e-005
-1.223655e-003,-6.731887e-005
-1.276002e-003,-6.310517e-005
-1.333373e-003,-5.062615e-005
-1.334021e-003,-3.441962e-005
-1.240996e-003,-2.437157e-005
-1.060617e-003,-2.550602e-005
-8.277292e-004,-3.377135e-005
-5.969482e-004,-4.349527e-005
-4.096008e-004,-5.046408e-005
-2.788141e-004,-5.338126e-005
-1.916230e-004,-5.419158e-005
-1.251762e-004,-5.419158e-005
-4.932962e-005,-5.111234e-005
6.200925e-005,-4.074016e-005
2.145127e-004,-2.323711e-005
3.968363e-004,-3.465141e-006
5.885596e-004,1.452411e-005
7.653730e-004,2.992031e-005
9.052355e-004,4.547859e-005
9.916164e-004,6.395403e-005
1.019492e-003,8.664317e-005
1.000854e-003,1.106288e-004
9.580688e-004,1.321835e-004
9.131767e-004,1.526038e-004
8.767120e-004,1.735102e-004
8.493229e-004,1.965235e-004
8.274441e-004,2.164575e-004
8.010274e-004,2.268297e-004
7.616455e-004,2.213195e-004
7.089743e-004,1.996027e-004
6.509548e-004,1.680000e-004
5.966629e-004,1.381799e-004
5.519328e-004,1.153287e-004
5.138475e-004,9.928427e-005
4.715484e-004,8.615698e-005
4.188771e-004,7.951231e-005
3.509718e-004,7.983643e-005
2.769079e-004,9.199134e-005
2.179161e-004,1.114392e-004
1.885823e-004,1.304008e-004
1.902029e-004,1.417454e-004
2.148369e-004,1.423936e-004
2.516257e-004,1.365593e-004
2.921420e-004,1.295905e-004
3.287688e-004,1.154908e-004
3.579406e-004,9.652916e-005
3.757677e-004,8.275361e-005
3.824124e-004,7.967437e-005
3.739850e-004,8.323980e-005
3.467580e-004,8.615698e-005
3.007315e-004,8.631904e-005
2.389846e-004,8.453633e-005
1.645966e-004,8.161915e-005
8.421220e-005,7.821578e-005
7.879431e-006,7.513654e-005
-5.483985e-005,7.011251e-005
-9.551824e-005,6.006446e-005
-1.076731e-004,4.596478e-005
-9.276313e-005,3.218923e-005
-5.013995e-005,2.570661e-005
1.598270e-005,2.619281e-005
9.312579e-005,3.040651e-005
1.547106e-004,3.478227e-005
1.741585e-004,3.380988e-005
1.423936e-004,2.846173e-005
7.853991e-005,2.327564e-005
1.808955e-005,2.343770e-005
-9.461557e-006,2.959618e-005
-1.844488e-006,4.385793e-005
2.052053e-005,6.444023e-005
3.235129e-005,8.648111e-005
2.522042e-005,1.022014e-004
-2.978945e-006,1.067393e-004
-5.078821e-005,1.041462e-004
-1.172350e-004,1.007429e-004
-1.937298e-004,9.750155e-005
-2.681178e-004,9.426025e-005
-3.253268e-004,9.620503e-005
-3.566054e-004,1.057669e-004
-3.630880e-004,1.211631e-004
-3.613053e-004,1.310491e-004
-3.825359e-004,1.268354e-004
-4.583824e-004,1.085220e-004
-6.009999e-004,8.502253e-005
-7.917507e-004,6.751947e-005
-9.787740e-004,5.957827e-005
-1.098702e-003,5.860587e-005
-1.110857e-003,5.730935e-005
-1.015077e-003,5.131293e-005
-8.468529e-004,4.126489e-005
-6.611261e-004,3.137890e-005
-5.078123e-004,2.522042e-005
-4.143007e-004,2.505835e-005
-3.720016e-004,3.283749e-005
-3.517435e-004,4.385793e-005
-3.217614e-004,5.730935e-005
-2.562870e-004,7.286762e-005
-1.506204e-004,8.599491e-005
-2.048200e-005,9.101894e-005
1.167873e-004,8.323980e-005
2.464396e-004,6.427816e-005
3.551854e-004,4.434413e-005
4.394594e-004,3.543053e-005
5.068786e-004,3.429608e-005
5.668428e-004,2.927205e-005
6.277794e-004,1.193106e-005
6.919574e-004,-1.205460e-005
7.538663e-004,-3.749886e-005
7.976240e-004,-5.889147e-005
8.071859e-004,-7.185670e-005
7.783382e-004,-7.461181e-005
7.214532e-004,-6.974985e-005
6.527375e-004,-6.359137e-005
5.965008e-004,-5.872941e-005
5.683014e-004,-5.937767e-005
5.661946e-004,-6.618442e-005
5.772150e-004,-7.931171e-005
5.801322e-004,-9.697682e-005
5.611706e-004,-1.156143e-004
5.201680e-004,-1.306864e-004
4.702519e-004,-1.349001e-004
4.316803e-004,-1.250141e-004
4.229288e-004,-1.020008e-004
4.498316e-004,-7.363942e-005
4.935893e-004,-4.916756e-005
5.225990e-004,-3.474375e-005
5.107682e-004,-2.923352e-005
4.495075e-004,-2.907146e-005
3.451374e-004,-2.712668e-005
2.086784e-004,-2.161646e-005
4.888196e-005,-1.432352e-005
-1.271210e-004,-9.785687e-006
-3.109030e-004,-1.027188e-005
-5.071640e-004,-1.480971e-005
-7.180110e-004,-1.659243e-005
-9.320992e-004,-1.691656e-005
-1.125767e-003,-1.837515e-005
-1.270654e-003,-1.950961e-005
-1.328997e-003,-1.626830e-005
-1.269681e-003,-8.813297e-006
-1.086548e-003,1.234753e-006
-8.056883e-004,9.500084e-006
-4.792888e-004,1.565857e-005
-1.690959e-004,2.003433e-005
8.242948e-005,2.100672e-005
2.579462e-004,1.727922e-005
3.687989e-004,1.176900e-005
4.367043e-004,1.014835e-005
4.744656e-004,1.257933e-005
4.885652e-004,1.987226e-005
4.817585e-004,3.283749e-005
4.517764e-004,5.001641e-005
4.012120e-004,6.962632e-005
3.388168e-004,9.344992e-005
2.754493e-004,1.193804e-004
2.138645e-004,1.430419e-004
1.435281e-004,1.587622e-004
6.379197e-005,1.639483e-004
-1.270286e-005,1.548727e-004
-7.007398e-005,1.289422e-004
-1.000561e-004,8.826383e-005
-1.186936e-004,4.353380e-005
-1.562927e-004,1.063454e-005
-2.397564e-004,2.045080e-006
-3.776739e-004,2.003433e-005
-5.617801e-004,5.439218e-005
-7.603100e-004,9.150514e-005
-9.209167e-004,1.172735e-004
-9.927116e-004,1.294284e-004
-9.523574e-004,1.338042e-004
-7.990436e-004,1.386661e-004
-5.606457e-004,1.472556e-004
-2.812450e-004,1.561692e-004
-8.002969e-006,1.626518e-004
2.193747e-004,1.655690e-004
3.854917e-004,1.658931e-004
4.895377e-004,1.626518e-004
5.404262e-004,1.522796e-004
5.545259e-004,1.383420e-004
5.477191e-004,1.289422e-004
5.342677e-004,1.271595e-004
5.154681e-004,1.312111e-004
4.811102e-004,1.338042e-004
4.154738e-004,1.302387e-004
3.211517e-004,1.231079e-004
2.153230e-004,1.187321e-004
1.229458e-004,1.193804e-004
5.585077e-005,1.211631e-004
2.003433e-005,1.192183e-004
1.079661e-005,1.085220e-004
2.197911e-005,9.263960e-005
5.034054e-005,7.724339e-005
9.263960e-005,6.914012e-005
1.443384e-004,6.622294e-005
1.965235e-004,6.152305e-005
2.478982e-004,5.196120e-005
3.030004e-004,4.094075e-005
3.647473e-004,2.992031e-005
4.350837e-004,2.392390e-005
5.083373e-004,2.554455e-005
5.686256e-004,3.251336e-005
6.062247e-004,3.980630e-005
6.180555e-004,4.661304e-005
6.047661e-004,5.212327e-005
5.678153e-004,5.666109e-005
5.128751e-004,6.200925e-005
4.490213e-004,6.508849e-005
3.869503e-004,6.346784e-005
3.370341e-004,5.763348e-005
3.101313e-004,5.066468e-005
3.133726e-004,4.645098e-005
3.456236e-004,4.369587e-005
3.966742e-004,4.272347e-005
4.486972e-004,4.239934e-005
4.794896e-004,4.483032e-005
4.772207e-004,5.244739e-005
4.478869e-004,6.314371e-005
4.180668e-004,7.497447e-005
4.143393e-004,8.664317e-005
4.396215e-004,9.717742e-005
4.739794e-004,9.912220e-005
4.828930e-004,8.956035e-005
4.490213e-004,7.335382e-005
3.790091e-004,5.390598e-005
2.966798e-004,3.802358e-005
2.333123e-004,2.862379e-005
2.111093e-004,2.748933e-005
2.373639e-004,3.267542e-005
3.034866e-004,3.786152e-005
3.877606e-004,3.802358e-005
4.616624e-004,2.992031e-005
4.945617e-004,1.679302e-005
4.674967e-004,-5.479652e-007
3.801435e-004,-1.967167e-005
2.511395e-004,-3.425755e-005
1.052807e-004,-3.944364e-005
-3.296103e-005,-3.571614e-005
-1.470550e-004,-2.988179e-005
-2.373254e-004,-2.339917e-005
-3.211131e-004,-1.578211e-005
-4.280762e-004,-2.168618e-006
-5.702075e-004,1.825161e-005
-7.316245e-004,4.077869e-005
-8.802384e-004,5.552663e-005
-9.841222e-004,5.714729e-005
-1.030797e-003,4.807163e-005
-1.044248e-003,3.218923e-005
-1.077472e-003,1.193106e-005
-1.178763e-003,-7.030578e-006
-1.365948e-003,-2.501983e-005
-1.628170e-003,-4.252288e-005
-1.934635e-003,-6.099833e-005
-2.232026e-003,-7.736692e-005
-2.452759e-003,-8.806324e-005
-2.543191e-003,-8.773910e-005
-2.484523e-003,-8.044616e-005
-2.291342e-003,-6.861539e-005
-1.992169e-003,-5.678463e-005
-1.613908e-003,-4.868136e-005
-1.185245e-003,-4.706071e-005
-7.415105e-004,-5.062615e-005
-3.154408e-004,-5.629843e-005
6.362990e-005,-5.856734e-005
3.781987e-004,-5.386745e-005
6.240519e-004,-3.976777e-005
8.076721e-004,-1.772689e-005
9.421864e-004,5.286386e-006
1.042019e-003,2.149292e-005
1.117703e-003,2.959618e-005
1.177344e-003,3.154097e-005
1.224991e-003,3.559260e-005
1.254001e-003,4.693717e-005
1.253676e-003,5.876794e-005
1.217860e-003,6.427816e-005
1.145741e-003,6.200925e-005
1.040236e-003,5.795762e-005
9.196593e-004,5.666109e-005
8.021619e-004,6.152305e-005
7.021675e-004,7.043664e-005
6.326414e-004,7.448828e-005
5.906665e-004,6.849186e-005
5.597120e-004,5.017848e-005
5.187094e-004,2.441009e-005
4.527488e-004,2.045080e-006
3.593991e-004,-1.043395e-005
2.409294e-004,-9.623623e-006
1.124116e-004,1.072688e-006
-1.027188e-005,1.468617e-005
-1.122110e-004,2.635488e-005
-1.880575e-004,3.656499e-005
-2.348944e-004,5.179913e-005
-2.488320e-004,7.384001e-005
-2.207947e-004,9.442231e-005
-1.457585e-004,1.054428e-004
-3.522994e-005,1.025256e-004
8.777764e-005,8.729143e-005
2.005751e-004,6.751947e-005
2.827422e-004,5.115087e-005
3.247172e-004,4.547859e-005
3.307136e-004,5.325772e-005
3.115899e-004,7.011251e-005
2.796630e-004,9.118101e-005
2.448189e-004,1.103047e-004
2.149989e-004,1.229458e-004
1.926339e-004,1.257009e-004
1.827479e-004,1.227837e-004
1.947408e-004,1.227837e-004
2.342847e-004,1.282940e-004
2.971661e-004,1.365593e-004
3.773884e-004,1.410971e-004
4.738173e-004,1.367214e-004
5.835355e-004,1.240803e-004
6.976296e-004,1.065772e-004
8.032963e-004,8.923622e-005
8.906496e-004,7.481241e-005
9.559620e-004,6.622294e-005
9.982612e-004,5.990240e-005
1.019005e-003,5.147500e-005
1.015440e-003,4.337174e-005
9.909682e-004,3.964423e-005
9.554758e-004,4.337174e-005
9.224144e-004,5.325772e-005
8.971322e-004,6.476436e-005
8.744430e-004,7.043664e-005
8.421920e-004,6.508849e-005
8.005412e-004,4.823369e-005
7.694246e-004,2.797553e-005
7.668316e-004,1.338965e-005
7.866035e-004,9.013888e-006
7.911414e-004,1.630683e-005
7.250187e-004,3.073064e-005
5.574430e-004,4.450619e-005
3.057555e-004,4.985435e-005
1.598270e-005,4.515445e-005
-2.611490e-004,3.089270e-005
-4.992229e-004,1.355172e-005
-6.920805e-004,4.244267e-007
-8.487977e-004,-3.789271e-006
-9.847704e-004,-8.720958e-007
-1.123660e-003,5.448451e-006
-1.280540e-003,7.717366e-006
-1.446170e-003,3.341602e-006
-1.582143e-003,-6.220251e-006
-1.647942e-003,-1.659243e-005
-1.622173e-003,-2.631635e-005
-1.505486e-003,-3.393342e-005
-1.322028e-003,-3.830918e-005
-1.113937e-003,-3.895744e-005
-9.152445e-004,-3.279896e-005
-7.343796e-004,-2.194059e-005
-5.740970e-004,-2.492749e-006
-4.360174e-004,2.667901e-005
-3.147926e-004,6.427816e-005
-2.039399e-004,1.039842e-004
-1.109144e-004,1.370455e-004
-6.148453e-005,1.534141e-004
-7.898758e-005,1.446626e-004
-1.666649e-004,1.166253e-004
-3.011791e-004,7.999850e-005
-4.473620e-004,4.693717e-005
-5.726385e-004,2.732727e-005
-6.586951e-004,2.700314e-005
-7.076388e-004,3.510640e-005
-7.343796e-004,3.834771e-005
-7.465344e-004,2.894792e-005
-7.311383e-004,1.225519e-005
-6.680949e-004,-2.006553e-006
-5.470321e-004,-7.840905e-006
-3.698948e-004,-6.706447e-006
-1.609926e-004,-3.465141e-006
3.980630e-005,-1.520357e-006
1.880961e-004,1.002961e-007
2.504912e-004,6.096713e-006
2.192126e-004,1.971020e-005
1.127357e-004,3.883391e-005
-3.312309e-005,5.795762e-005
-1.843300e-004,7.157111e-005
-3.110651e-004,7.384001e-005
-4.027940e-004,6.233338e-005
-4.700511e-004,4.223728e-005
-5.355255e-004,2.408596e-005
-6.170443e-004,1.646889e-005
-7.118525e-004,2.116879e-005
-7.911024e-004,3.299956e-005
-8.074710e-004,4.013043e-005
-7.261143e-004,3.380988e-005
-5.377944e-004,1.614476e-005
-2.634179e-004,-2.492749e-006
5.941620e-005,-1.464765e-005
3.877606e-004,-2.161646e-005
6.879057e-004,-2.210265e-005
9.447794e-004,-1.756482e-005
1.152547e-003,-1.140634e-005
1.308292e-003,-5.247859e-006
1.406991e-003,2.693341e-006
1.447507e-003,1.614476e-005
1.431462e-003,4.142695e-005
1.374091e-003,7.983643e-005
1.298569e-003,1.245665e-004
1.230177e-003,1.624898e-004
1.188850e-003,1.861513e-004
1.185609e-003,1.992786e-004
1.213646e-003,2.086784e-004
1.252380e-003,2.184023e-004
1.279607e-003,2.289365e-004
1.285927e-003,2.363915e-004
1.265993e-003,2.308813e-004
1.213160e-003,2.120818e-004
1.116893e-003,1.879340e-004
9.694134e-004,1.645966e-004
7.801210e-004,1.501728e-004
5.704083e-004,1.453108e-004
3.548613e-004,1.436902e-004
1.430419e-004,1.391524e-004
-6.278104e-005,1.307249e-004
-2.686040e-004,1.182459e-004
-4.724821e-004,1.034980e-004
-6.611261e-004,9.296372e-005
-8.133054e-004,9.328785e-005
-9.019551e-004,1.010670e-004
-9.084377e-004,1.054428e-004
-8.400462e-004,9.766362e-005
-7.356761e-004,7.999850e-005
-6.358439e-004,6.557468e-005
-5.608077e-004,6.281957e-005
-4.990608e-004,6.638501e-005
-4.274279e-004,6.654707e-005
-3.224097e-004,5.714729e-005
-1.844921e-004,3.899597e-005
-3.279896e-005,1.889987e-005
1.104668e-004,5.772582e-006
2.292607e-004,8.041497e-006
3.120761e-004,2.197911e-005
3.629646e-004,3.656499e-005
3.947294e-004,4.207521e-005
4.192013e-004,3.413401e-005
4.448076e-004,1.776542e-005
4.712243e-004,2.369210e-006
4.872688e-004,-6.544382e-006
4.739794e-004,-9.299492e-006
4.174185e-004,-8.651231e-006
3.164518e-004,-1.124428e-005
1.848548e-004,-2.145439e-005
4.871989e-005,-3.976777e-005
-6.942573e-005,-6.018800e-005
-1.527273e-004,-7.833932e-005
-1.961608e-004,-9.470791e-005
-2.015089e-004,-1.079973e-004
-1.781715e-004,-1.128592e-004
-1.368449e-004,-1.050801e-004
-9.195280e-005,-8.790116e-005
-4.770897e-005,-6.764300e-005
-1.196226e-006,-4.965375e-005
4.013043e-005,-3.733679e-005
5.471631e-005,-3.425755e-005
2.035846e-005,-3.652646e-005
-6.261898e-005,-4.203669e-005
-1.671511e-004,-4.819516e-005
-2.587180e-004,-5.289506e-005
-3.164132e-004,-5.402952e-005
-3.418575e-004,-4.495386e-005
-3.486642e-004,-2.210265e-005
-3.455850e-004,1.306552e-005
-3.355369e-004,5.115087e-005
-3.151167e-004,8.729143e-005
-2.776796e-004,1.153287e-004
-2.199844e-004,1.347766e-004
-1.438137e-004,1.506590e-004
-4.932962e-005,1.624898e-004
6.346784e-005,1.667035e-004
1.947408e-004,1.597346e-004
3.380065e-004,1.409351e-004
4.741414e-004,1.111150e-004
5.801322e-004,7.562274e-005
6.386379e-004,4.515445e-005
6.428515e-004,2.603075e-005
5.999042e-004,2.052053e-005
5.323229e-004,2.862379e-005
4.627969e-004,5.001641e-005
4.015361e-004,7.205730e-005
3.415720e-004,8.323980e-005
2.726942e-004,7.935023e-005
1.986303e-004,6.557468e-005
1.307249e-004,4.661304e-005
7.627100e-005,2.635488e-005
3.753739e-005,1.063454e-005
1.338965e-005,3.341602e-006
-1.358292e-006,2.693341e-006
-2.404744e-005,6.744974e-006
-6.569822e-005,1.079661e-005
-1.229073e-004,1.160693e-005
-1.854645e-004,5.772582e-006
-2.504527e-004,-2.168618e-006
-3.170615e-004,-6.544382e-006
-3.849668e-004,-1.034161e-006
-4.531963e-004,1.679302e-005
-5.240189e-004,4.385793e-005
-5.995412e-004,7.108490e-005
-6.789533e-004,9.199134e-005
-7.603100e-004,1.039842e-004
-8.364808e-004,1.093323e-004
-8.930415e-004,1.114392e-004
-9.152445e-004,1.090082e-004
-8.953104e-004,9.977046e-005
-8.257844e-004,8.550872e-005
-7.026148e-004,6.703327e-005
-5.355255e-004,4.693717e-005
-3.525538e-004,2.797553e-005
-1.869231e-004,1.274139e-005
-5.872941e-005,4.962256e-006
3.089270e-005,4.313994e-006
9.847395e-005,1.014835e-005
1.618415e-004,2.214118e-005
2.307192e-004,3.526847e-005
3.135346e-004,4.304760e-005
4.073705e-004,3.867184e-005
5.015305e-004,2.603075e-005
5.877493e-004,1.047248e-005
6.640821e-004,-2.816880e-006
7.316634e-004,-1.010982e-005
7.906552e-004,-1.221667e-005
8.342508e-004,-1.189254e-005
8.566158e-004,-1.043395e-005
8.524021e-004,-7.840905e-006
8.225821e-004,-2.168618e-006
7.669936e-004,5.772582e-006
6.900126e-004,1.387585e-005
5.992559e-004,2.116879e-005
5.062303e-004,2.813760e-005
4.190392e-004,3.380988e-005
3.402754e-004,3.672705e-005
2.645909e-004,3.802358e-005
1.829100e-004,3.721326e-005
8.259154e-005,3.462021e-005
-4.300908e-005,2.748933e-005
-1.862748e-004,2.230324e-005
-3.269475e-004,2.214118e-005
-4.390966e-004,2.975825e-005
-5.074882e-004,4.645098e-005
-5.314739e-004,6.654707e-005
-5.225603e-004,8.080882e-005
-5.050572e-004,8.145709e-005
-5.060296e-004,7.140904e-005
-5.434667e-004,5.876794e-005
-6.232028e-004,5.115087e-005
-7.296797e-004,4.612685e-005
-8.314567e-004,4.126489e-005
-8.925553e-004,4.126489e-005
-8.825072e-004,4.758544e-005
-7.810544e-004,5.990240e-005
-5.977585e-004,7.400208e-005
-3.656811e-004,8.534666e-005
-1.157764e-004,9.166720e-005
1.242423e-004,9.053274e-005
3.256896e-004,8.356393e-005
4.765724e-004,7.254349e-005
5.730013e-004,5.860587e-005
6.135177e-004,4.434413e-005
5.922871e-004,3.332369e-005
5.057441e-004,2.894792e-005
3.675024e-004,3.478227e-005
2.143507e-004,4.871989e-005
9.393611e-005,6.508849e-005
3.786152e-005,7.983643e-005
2.927205e-005,9.215340e-005
1.338965e-005,1.018773e-004
-5.791909e-005,1.070634e-004
-1.916230e-004,1.093323e-004
-3.506090e-004,1.098185e-004
-4.830163e-004,1.081979e-004
-5.502734e-004,1.036600e-004
-5.484907e-004,9.669123e-005
-5.014918e-004,8.972242e-005
-4.400690e-004,8.178122e-005
-3.925839e-004,6.687120e-005
-3.731361e-004,4.239934e-005
-3.715154e-004,8.851824e-006
-3.591985e-004,-3.117831e-005
-3.143064e-004,-7.493595e-005
-2.378116e-004,-1.172350e-004
-1.392759e-004,-1.494860e-004
-3.150244e-005,-1.608306e-004
7.805372e-005,-1.462447e-004
1.934442e-004,-1.102662e-004
3.224483e-004,-6.213279e-005
4.676588e-004,-1.189254e-005
6.289139e-004,3.526847e-005
8.015136e-004,7.351588e-005
9.789753e-004,9.896014e-005
1.149630e-003,1.120874e-004
1.304403e-003,1.133840e-004
1.437297e-003,1.028497e-004
1.541667e-003,8.437427e-005
1.605035e-003,6.476436e-005
1.611193e-003,4.758544e-005
1.552687e-003,3.624086e-005
1.428869e-003,3.380988e-005
1.250435e-003,4.191315e-005
1.021274e-003,5.974033e-005
7.384701e-004,7.740545e-005
3.999155e-004,8.583285e-005
1.776542e-005,8.453633e-005
-3.642225e-004,7.659513e-005
-6.808981e-004,6.589881e-005
-8.745661e-004,5.601283e-005
-9.196202e-004,4.985435e-005
-8.460426e-004,4.969228e-005
-7.280590e-004,5.228533e-005
-6.385990e-004,5.423011e-005
-6.115341e-004,5.115087e-005
-6.321164e-004,4.142695e-005
-6.617744e-004,3.316162e-005
-6.630709e-004,3.543053e-005
-6.163961e-004,4.726130e-005
-5.280705e-004,5.990240e-005
-4.287245e-004,6.508849e-005
-3.506090e-004,6.508849e-005
-2.912931e-004,6.249544e-005
-2.300324e-004,5.876794e-005
-1.489998e-004,5.244739e-005
-3.782299e-005,4.547859e-005
1.007429e-004,3.850977e-005
2.521119e-004,3.218923e-005
3.950535e-004,2.846173e-005
5.060683e-004,2.732727e-005
5.705704e-004,2.992031e-005
5.833735e-004,3.413401e-005
5.517707e-004,3.899597e-005
4.851619e-004,4.142695e-005
3.929467e-004,3.656499e-005
2.893869e-004,2.732727e-005
1.880961e-004,2.100672e-005
9.798775e-005,2.133085e-005
2.052053e-005,2.992031e-005
-4.462973e-005,4.013043e-005
-1.008664e-004,4.645098e-005
-1.525652e-004,4.953022e-005
-2.042640e-004,4.953022e-005
-2.577456e-004,4.904402e-005
-3.071755e-004,5.260946e-005
-3.429920e-004,6.071273e-005
-3.574157e-004,7.043664e-005
-3.538503e-004,7.432621e-005
-3.369955e-004,7.092283e-005
-3.052307e-004,6.362990e-005
-2.509389e-004,6.217131e-005
-1.660166e-004,6.946425e-005
-4.673658e-005,7.870197e-005
1.081979e-004,8.502253e-005
2.887386e-004,8.534666e-005
4.741414e-004,8.210535e-005
6.394482e-004,8.048469e-005
7.660213e-004,8.210535e-005
8.405714e-004,8.032263e-005
8.572641e-004,6.897806e-005
8.206373e-004,5.293359e-005
7.464113e-004,3.980630e-005
6.631097e-004,2.716520e-005
5.934216e-004,1.371378e-005
5.550120e-004,3.017472e-006
5.554982e-004,-5.896120e-006
5.916388e-004,-1.464765e-005
6.571133e-004,-2.518189e-005
7.564594e-004,-3.377135e-005
9.071802e-004,-3.652646e-005
1.126293e-003,-3.134038e-005
1.406666e-003,-2.242678e-005
1.717184e-003,-1.853721e-005
2.003392e-003,-2.210265e-005
2.202572e-003,-2.712668e-005
2.271287e-003,-2.469570e-005
2.201275e-003,-9.299492e-006
2.018789e-003,1.776542e-005
1.766128e-003,4.807163e-005
1.480082e-003,7.465034e-005
1.185123e-003,9.166720e-005
9.002115e-004,1.022014e-004
6.366930e-004,1.111150e-004
4.029947e-004,1.188942e-004
1.916615e-004,1.216493e-004
-1.367526e-005,1.213252e-004
-2.321393e-004,1.216493e-004
-4.694028e-004,1.229458e-004
-7.316245e-004,1.266733e-004
-1.017670e-003,1.294284e-004
-1.325594e-003,1.218114e-004
-1.651507e-003,1.018773e-004
-1.992493e-003,7.724339e-005
-2.363785e-003,6.055066e-005
-2.803955e-003,5.860587e-005
-3.338124e-003,6.703327e-005
-3.968237e-003,7.594687e-005
-4.673064e-003,7.659513e-005
-4.967539e-003,6.557468e-005
-4.967377e-003,4.726130e-005
-4.967377e-003,2.975825e-005
-4.967539e-003,1.565857e-005
-4.967539e-003,8.689757e-006
-4.967539e-003,1.225519e-005
-4.747939e-003,2.489629e-005
-3.801633e-003,4.013043e-005
-2.786128e-003,4.904402e-005
-1.772084e-003,4.936815e-005
-8.225431e-004,4.483032e-005
1.274139e-005,4.029249e-005
6.982779e-004,3.818564e-005
1.221912e-003,3.802358e-005
1.593204e-003,3.672705e-005
1.831441e-003,3.251336e-005
1.965631e-003,2.829966e-005
2.027216e-003,2.343770e-005
2.037751e-003,1.452411e-005
