3.277964e-004,8.680524e-005
4.728449e-004,6.444023e-005
5.532294e-004,3.753739e-005
5.869390e-004,1.112074e-005
5.968249e-004,-7.840905e-006
5.953663e-004,-1.432352e-005
5.939078e-004,-1.643037e-005
6.015248e-004,-2.712668e-005
6.195141e-004,-5.483985e-005
6.389620e-004,-9.632856e-005
6.428515e-004,-1.444620e-004
6.203245e-004,-1.912988e-004
5.824011e-004,-2.300324e-004
5.527431e-004,-2.499665e-004
5.441537e-004,-2.415391e-004
5.537155e-004,-2.075054e-004
5.668428e-004,-1.562927e-004
5.697600e-004,-9.843541e-005
5.585775e-004,-4.381940e-005
5.282713e-004,-3.141010e-006
4.788413e-004,2.068259e-005
4.229288e-004,3.121684e-005
3.866261e-004,3.218923e-005
3.893812e-004,2.684107e-005
4.292493e-004,2.278944e-005
4.921307e-004,3.056858e-005
5.670049e-004,6.719534e-005
6.485238e-004,1.415833e-004
7.329599e-004,2.435224e-004
8.131823e-004,3.443271e-004
8.809257e-004,4.104497e-004
9.267902e-004,4.245494e-004
9.426726e-004,3.914881e-004
9.214421e-004,3.239068e-004
8.686087e-004,2.380122e-004
8.097789e-004,1.532520e-004
7.712073e-004,8.712937e-005
7.686143e-004,5.196120e-005
7.976240e-004,4.369587e-005
8.254993e-004,4.677511e-005
8.036204e-004,4.531652e-005
6.937401e-004,2.927205e-005
4.747897e-004,-1.682422e-006
1.171115e-004,-4.236081e-005
-4.029561e-004,-8.790116e-005
-1.059645e-003,-1.349001e-004
-1.794449e-003,-1.815749e-004
-2.546433e-003,-2.240360e-004
-3.255632e-003,-2.580697e-004
-3.853980e-003,-2.755728e-004
-4.285562e-003,-2.726556e-004
-4.517480e-003,-2.553146e-004
-4.541628e-003,-2.344082e-004
-4.367568e-003,-2.207947e-004
-4.016695e-003,-2.169051e-004
-3.509752e-003,-2.180396e-004
-2.870564e-003,-2.144742e-004
-2.139000e-003,-2.026434e-004
-1.371620e-003,-1.838438e-004
-6.441093e-004,-1.595340e-004
-3.360929e-005,-1.297140e-004
4.101256e-004,-9.227693e-005
6.713750e-004,-4.997788e-005
7.597007e-004,-9.947754e-006
7.063812e-004,2.295151e-005
5.540397e-004,4.693717e-005
3.568061e-004,6.508849e-005
1.680000e-004,8.210535e-005
3.137890e-005,1.057669e-004
-3.053005e-005,1.385041e-004
-2.161646e-005,1.772377e-004
3.445814e-005,2.127300e-004
1.112771e-004,2.344468e-004
1.641104e-004,2.346088e-004
1.420695e-004,2.146748e-004
3.721326e-005,1.867996e-004
-1.063766e-004,1.704310e-004
-2.224154e-004,1.783722e-004
-2.653627e-004,2.055991e-004
-2.279256e-004,2.331502e-004
-1.394379e-004,2.425500e-004
-4.981582e-005,2.308813e-004
2.693341e-006,2.068957e-004
1.517237e-005,1.798307e-004
1.857574e-005,1.555209e-004
4.871989e-005,1.443384e-004
1.247285e-004,1.500107e-004
2.480603e-004,1.688103e-004
4.114221e-004,1.949028e-004
6.073592e-004,2.201850e-004
8.238786e-004,2.329882e-004
1.048177e-003,2.299089e-004
1.263887e-003,2.088404e-004
1.446535e-003,1.736723e-004
1.569218e-003,1.318594e-004
1.623186e-003,9.312579e-005
1.620755e-003,7.092283e-005
1.582994e-003,7.286762e-005
1.534536e-003,9.701536e-005
1.493209e-003,1.269974e-004
1.475382e-003,1.457970e-004
1.495154e-003,1.456350e-004
1.553336e-003,1.333180e-004
1.630479e-003,1.222975e-004
1.699195e-003,1.224596e-004
1.743277e-003,1.359110e-004
1.746194e-003,1.584381e-004
1.700978e-003,1.801549e-004
1.607790e-003,1.927960e-004
1.480406e-003,1.877719e-004
1.342164e-003,1.595726e-004
1.216239e-003,1.138701e-004
1.113003e-003,6.379197e-005
1.031647e-003,2.214118e-005
9.585550e-004,-5.409925e-006
8.750913e-004,-1.869928e-005
7.700729e-004,-1.853721e-005
6.512789e-004,-8.327101e-006
5.345918e-004,1.063454e-005
4.264942e-004,3.543053e-005
3.253654e-004,6.200925e-005
2.312054e-004,8.486046e-005
1.628139e-004,9.750155e-005
1.443384e-004,9.620503e-005
1.791825e-004,8.129502e-005
2.409294e-004,6.006446e-005
2.924662e-004,3.640293e-005
3.067279e-004,1.355172e-005
2.819319e-004,-1.358292e-006
2.404432e-004,-4.113402e-006
1.989545e-004,2.045080e-006
1.477418e-004,8.851824e-006
5.147500e-005,1.031041e-005
-1.220969e-004,9.013888e-006
-3.536882e-004,1.371378e-005
-5.729626e-004,2.667901e-005
-6.975908e-004,4.564065e-005
-6.813843e-004,7.173317e-005
-5.340669e-004,1.023635e-004
-3.089582e-004,1.363972e-004
-7.380149e-005,1.642725e-004
1.101426e-004,1.762653e-004
2.088404e-004,1.688103e-004
2.226160e-004,1.432040e-004
1.707551e-004,1.070634e-004
7.935023e-005,6.719534e-005
-4.155049e-005,2.878586e-005
-1.903264e-004,-6.382316e-006
-3.591985e-004,-3.328516e-005
-5.317980e-004,-4.576419e-005
-6.833291e-004,-4.706071e-005
-7.919127e-004,-4.462973e-005
-8.719731e-004,-4.300908e-005
-9.588400e-004,-4.592625e-005
-1.061103e-003,-5.224680e-005
-1.145377e-003,-5.905355e-005
-1.167580e-003,-6.148453e-005
-1.106319e-003,-5.678463e-005
-9.727776e-004,-4.333321e-005
-7.990436e-004,-2.113026e-005
-6.235269e-004,5.610517e-006
-4.815578e-004,3.008238e-005
-3.930701e-004,4.547859e-005
-3.544986e-004,4.726130e-005
-3.423437e-004,3.380988e-005
-3.326198e-004,7.879431e-006
-3.091203e-004,-2.615428e-005
-2.695764e-004,-6.099833e-005
-2.267911e-004,-8.903562e-005
-1.861127e-004,-1.023250e-004
-1.407345e-004,-9.924574e-005
-8.676671e-005,-8.984595e-005
-3.847125e-005,-8.741497e-005
-3.587821e-005,-9.713889e-005
-1.178833e-004,-1.169109e-004
-2.976136e-004,-1.404103e-004
-5.554595e-004,-1.663408e-004
-8.531734e-004,-1.914609e-004
-1.139543e-003,-2.058847e-004
-1.363841e-003,-2.002124e-004
-1.494790e-003,-1.747682e-004
-1.506783e-003,-1.326312e-004
-1.382803e-003,-8.093235e-005
-1.137112e-003,-3.393342e-005
-8.345360e-004,-4.113402e-006
-5.687489e-004,4.962256e-006
-4.175420e-004,-1.844488e-006
-4.121938e-004,-1.740276e-005
-5.358497e-004,-3.571614e-005
-7.254660e-004,-5.078821e-005
-9.063308e-004,-5.986387e-005
-1.020911e-003,-6.829127e-005
-1.046841e-003,-8.125648e-005
-9.977357e-004,-9.956987e-005
-9.317751e-004,-1.149661e-004
-9.167030e-004,-1.232314e-004
-9.910910e-004,-1.261486e-004
-1.123498e-003,-1.292278e-004
-1.235323e-003,-1.295519e-004
-1.249423e-003,-1.214487e-004
-1.116367e-003,-1.081593e-004
-8.403703e-004,-9.811128e-005
-4.629203e-004,-9.762508e-005
-4.333321e-005,-1.081593e-004
3.611819e-004,-1.203142e-004
7.135121e-004,-1.216107e-004
1.005554e-003,-1.029732e-004
1.245573e-003,-6.261898e-005
1.444590e-003,-1.844488e-006
1.603414e-003,7.351588e-005
1.717832e-003,1.539003e-004
1.781038e-003,2.331502e-004
1.797245e-003,3.115899e-004
1.779418e-003,3.968363e-004
1.741656e-003,4.885652e-004
1.691578e-003,5.751082e-004
1.633396e-003,6.391240e-004
1.578132e-003,6.681337e-004
1.534536e-003,6.553305e-004
1.497909e-003,6.005524e-004
1.452045e-003,5.088234e-004
1.371822e-003,3.916502e-004
1.244763e-003,2.641047e-004
1.076215e-003,1.475797e-004
8.830325e-004,5.974033e-005
6.998985e-004,8.041497e-006
5.561465e-004,-1.367526e-005
4.540453e-004,-1.999580e-005
3.679886e-004,-2.728874e-005
2.705873e-004,-4.511592e-005
1.448246e-004,-6.877746e-005
-8.327101e-006,-8.854943e-005
-1.690959e-004,-1.010285e-004
-3.076617e-004,-1.067007e-004
-3.912874e-004,-1.044318e-004
-3.899909e-004,-9.211487e-005
-2.972895e-004,-6.569822e-005
-1.408965e-004,-2.907146e-005
3.526847e-005,7.555300e-006
1.989545e-004,3.526847e-005
3.264999e-004,5.536457e-005
4.063981e-004,7.627100e-005
4.472386e-004,1.041462e-004
4.611762e-004,1.423936e-004
4.524247e-004,1.877719e-004
4.214702e-004,2.362295e-004
3.718782e-004,2.814457e-004
3.148312e-004,3.201793e-004
2.501671e-004,3.462718e-004
1.793446e-004,3.470822e-004
1.060910e-004,3.133726e-004
3.640293e-005,2.483844e-004
-2.728874e-005,1.676758e-004
-8.384953e-005,8.875003e-005
-1.334415e-004,2.700314e-005
-1.801163e-004,-1.480971e-005
-2.206326e-004,-4.090223e-005
-2.417011e-004,-5.970180e-005
-2.259808e-004,-7.866345e-005
-1.541859e-004,-1.010285e-004
-1.869928e-005,-1.259865e-004
1.684862e-004,-1.459205e-004
3.743092e-004,-1.527273e-004
5.495019e-004,-1.447861e-004
6.530616e-004,-1.271210e-004
6.734819e-004,-1.028112e-004
6.247002e-004,-7.655659e-005
5.389676e-004,-5.727082e-005
4.470765e-004,-5.289506e-005
3.631267e-004,-6.359137e-005
2.752873e-004,-8.482193e-005
1.621656e-004,-1.081593e-004
2.068259e-005,-1.217728e-004
-1.292278e-004,-1.128592e-004
-2.507768e-004,-7.850138e-005
-3.044204e-004,-3.117831e-005
-2.613110e-004,1.047248e-005
-1.193418e-004,3.867184e-005
9.150514e-005,5.682316e-005
3.224483e-004,7.497447e-005
5.258403e-004,1.020394e-004
6.679717e-004,1.428798e-004
7.336082e-004,1.867996e-004
7.280979e-004,2.200230e-004
6.734819e-004,2.336364e-004
5.956905e-004,2.261814e-004
5.144957e-004,2.013854e-004
4.320044e-004,1.573037e-004
3.410858e-004,9.344992e-005
2.271538e-004,1.047248e-005
7.205730e-005,-8.660465e-005
-1.319829e-004,-1.773612e-004
-3.778360e-004,-2.425115e-004
-6.424886e-004,-2.708729e-004
-8.888278e-004,-2.658489e-004
-1.085737e-003,-2.433218e-004
-1.205017e-003,-2.169051e-004
-1.234513e-003,-1.877334e-004
-1.189621e-003,-1.548341e-004
-1.100161e-003,-1.115627e-004
-9.782878e-004,-5.532604e-005
-8.238396e-004,1.646889e-005
-6.499436e-004,1.036600e-004
-4.817198e-004,2.008992e-004
-3.389403e-004,2.965178e-004
-2.253325e-004,3.707437e-004
-1.391138e-004,4.044533e-004
-8.563225e-005,3.963500e-004
-7.801519e-005,3.629646e-004
-1.225831e-004,3.245551e-004
-2.070192e-004,2.983005e-004
-3.040963e-004,2.880904e-004
-3.854531e-004,2.927903e-004
-4.373140e-004,3.094830e-004
-4.690787e-004,3.360618e-004
-5.078123e-004,3.722023e-004
-5.903036e-004,4.104497e-004
-7.387553e-004,4.360561e-004
-9.487920e-004,4.363802e-004
-1.182328e-003,4.055878e-004
-1.378103e-003,3.469201e-004
-1.468535e-003,2.692908e-004
-1.413271e-003,1.882581e-004
-1.217172e-003,1.156529e-004
-9.231857e-004,5.066468e-005
-5.847933e-004,-1.724069e-005
-2.564491e-004,-9.519411e-005
9.338019e-006,-1.789819e-004
1.877719e-004,-2.567732e-004
2.934386e-004,-3.199787e-004
3.511338e-004,-3.681121e-004
3.668542e-004,-4.089525e-004
3.261757e-004,-4.405552e-004
2.120818e-004,-4.574100e-004
2.878586e-005,-4.553032e-004
-1.948643e-004,-4.324520e-004
-4.078180e-004,-3.895047e-004
-5.596732e-004,-3.327818e-004
-6.303337e-004,-2.733039e-004
-6.296854e-004,-2.222533e-004
-5.745832e-004,-1.810887e-004
-4.708614e-004,-1.489998e-004
-3.125237e-004,-1.246900e-004
-1.011905e-004,-1.055663e-004
1.459591e-004,-9.260106e-005
4.060740e-004,-8.806324e-005
6.695923e-004,-9.017008e-005
9.248454e-004,-9.438377e-005
1.148334e-003,-9.357345e-005
1.312506e-003,-7.655659e-005
1.366312e-003,-4.074016e-005
1.269559e-003,8.203561e-006
1.055470e-003,6.298164e-005
8.347370e-004,1.128978e-004
7.159431e-004,1.459591e-004
7.323117e-004,1.573037e-004
8.261476e-004,1.485521e-004
9.005356e-004,1.257009e-004
8.849773e-004,9.442231e-005
7.593766e-004,6.087479e-005
5.495019e-004,3.008238e-005
3.030004e-004,6.744974e-006
7.481241e-005,-5.734055e-006
-9.438377e-005,-5.479652e-007
-2.016710e-004,2.716520e-005
-2.682798e-004,7.302969e-005
-3.123616e-004,1.244044e-004
-3.287302e-004,1.623277e-004
-2.966413e-004,1.730240e-004
-1.959987e-004,1.558451e-004
-2.275091e-005,1.172735e-004
1.976579e-004,7.011251e-005
4.230909e-004,2.651694e-005
6.302104e-004,-5.247859e-006
8.107513e-004,-1.853721e-005
9.616343e-004,-1.075808e-005
1.089666e-003,1.403791e-005
1.189336e-003,4.239934e-005
1.241359e-003,6.735740e-005
1.227098e-003,8.259154e-005
1.144768e-003,8.437427e-005
1.003123e-003,7.416414e-005
8.112375e-004,5.633696e-005
5.720289e-004,3.510640e-005
3.081865e-004,1.711715e-005
6.152305e-005,1.160693e-005
-1.248521e-004,1.727922e-005
-2.310048e-004,2.748933e-005
-2.775176e-004,3.170303e-005
-3.222476e-004,2.278944e-005
-4.144627e-004,2.531276e-006
-5.629145e-004,-1.886135e-005
-7.426449e-004,-3.150244e-005
-9.165410e-004,-3.231276e-005
-1.061589e-003,-2.485776e-005
-1.186056e-003,-1.659243e-005
-1.304201e-003,-1.092015e-005
-1.411002e-003,-8.651231e-006
-1.475342e-003,-9.785687e-006
-1.459136e-003,-7.678839e-006
-1.341800e-003,-2.238345e-007
-1.124633e-003,8.203561e-006
-8.319428e-004,1.112074e-005
-5.060296e-004,1.176900e-005
-1.867610e-004,1.322759e-005
9.733949e-005,1.841368e-005
3.371962e-004,2.441009e-005
5.420469e-004,2.748933e-005
7.211291e-004,2.651694e-005
8.716880e-004,2.262737e-005
9.859441e-004,2.149292e-005
1.061953e-003,2.392390e-005
1.107007e-003,3.235129e-005
1.128562e-003,4.758544e-005
1.127589e-003,6.411610e-005
1.105548e-003,7.724339e-005
1.065842e-003,8.242948e-005
1.007337e-003,7.724339e-005
9.180387e-004,6.832980e-005
7.904932e-004,6.784360e-005
6.431757e-004,7.870197e-005
5.167646e-004,9.296372e-005
4.488592e-004,1.031738e-004
4.525867e-004,1.130598e-004
5.213025e-004,1.247285e-004
6.350724e-004,1.399627e-004
7.772038e-004,1.579519e-004
9.314901e-004,1.744826e-004
1.074918e-003,1.855030e-004
1.177830e-003,1.950649e-004
1.209919e-003,2.075439e-004
1.150603e-003,2.252090e-004
9.862683e-004,2.459534e-004
7.266394e-004,2.660495e-004
4.127187e-004,2.767458e-004
1.059289e-004,2.701011e-004
-1.383035e-004,2.501671e-004
-2.953447e-004,2.252090e-004
-3.919356e-004,2.034923e-004
-4.700511e-004,1.903650e-004
-5.424943e-004,1.851789e-004
-5.898174e-004,1.819376e-004
-5.992171e-004,1.739964e-004
-5.916001e-004,1.550348e-004
-6.100755e-004,1.263492e-004
-6.888392e-004,9.085687e-005
-8.321049e-004,5.520250e-005
-1.024963e-003,2.603075e-005
-1.242454e-003,9.175954e-006
-1.441795e-003,1.322759e-005
-1.570961e-003,3.624086e-005
-1.593488e-003,6.589881e-005
-1.517641e-003,8.631904e-005
-1.388799e-003,8.956035e-005
-1.266440e-003,7.821578e-005
-1.176169e-003,5.811968e-005
-1.079903e-003,3.413401e-005
-9.225374e-004,2.207145e-006
-6.899737e-004,-3.749886e-005
-4.136524e-004,-8.044616e-005
-1.323070e-004,-1.148040e-004
1.284560e-004,-1.298761e-004
3.495132e-004,-1.263107e-004
5.101199e-004,-1.143178e-004
5.939078e-004,-1.032974e-004
6.005524e-004,-1.031353e-004
5.426951e-004,-1.146419e-004
4.430249e-004,-1.318209e-004
3.263378e-004,-1.511066e-004
2.091646e-004,-1.702303e-004
1.047945e-004,-1.830335e-004
2.716520e-005,-1.890299e-004
-9.947754e-006,-1.856265e-004
5.934647e-006,-1.734716e-004
6.849186e-005,-1.520790e-004
1.524417e-004,-1.242038e-004
2.308813e-004,-9.065627e-005
2.840387e-004,-5.435365e-005
3.052693e-004,-1.432352e-005
3.018659e-004,3.008238e-005
2.923041e-004,7.724339e-005
2.913317e-004,1.188942e-004
3.059176e-004,1.516314e-004
3.363859e-004,1.722137e-004
3.668542e-004,1.791825e-004
3.728506e-004,1.754550e-004
3.446512e-004,1.662173e-004
2.851732e-004,1.534141e-004
2.038164e-004,1.394765e-004
1.171115e-004,1.291043e-004
3.170303e-005,1.268354e-004
-5.743289e-005,1.372075e-004
-1.639098e-004,1.610312e-004
-2.997205e-004,1.983062e-004
-4.659995e-004,2.446569e-004
-6.475126e-004,2.940868e-004
-8.121709e-004,3.386548e-004
-9.272373e-004,3.715541e-004
-9.778016e-004,3.866261e-004
-9.614330e-004,3.773884e-004
-8.813728e-004,3.443271e-004
-7.426449e-004,2.994350e-004
-5.528664e-004,2.547049e-004
-3.258130e-004,2.151610e-004
-8.514606e-005,1.764274e-004
1.482280e-004,1.320215e-004
3.534027e-004,8.145709e-005
5.172509e-004,3.073064e-005
6.349103e-004,-1.205460e-005
7.186981e-004,-4.365734e-005
7.849829e-004,-6.699474e-005
8.339267e-004,-9.276313e-005
8.603433e-004,-1.340898e-004
8.642329e-004,-1.989159e-004
8.520780e-004,-2.840002e-004
8.238786e-004,-3.762153e-004
7.755831e-004,-4.590307e-004
7.112431e-004,-5.176983e-004
6.420412e-004,-5.442770e-004
5.836976e-004,-5.405495e-004
5.566327e-004,-5.058675e-004
5.718669e-004,-4.421759e-004
6.281036e-004,-3.480160e-004
7.049225e-004,-2.241981e-004
7.686143e-004,-8.077029e-005
7.827140e-004,7.027457e-005
7.146465e-004,2.200230e-004
5.407503e-004,3.678265e-004
2.532463e-004,5.138475e-004
-1.229073e-004,6.511168e-004
-5.282326e-004,7.629420e-004
-8.721351e-004,8.280923e-004
-1.075365e-003,8.319819e-004
-1.109399e-003,7.734763e-004
-9.990322e-004,6.669993e-004
-7.962885e-004,5.383193e-004
-5.567560e-004,4.141773e-004
-3.387782e-004,3.143450e-004
-1.853024e-004,2.425500e-004
-1.049180e-004,1.942546e-004
-8.660465e-005,1.581140e-004
-1.199901e-004,1.224596e-004
-1.995642e-004,8.064676e-005
-3.222476e-004,3.008238e-005
-4.786406e-004,-2.696461e-005
-6.363300e-004,-9.098041e-005
-7.473448e-004,-1.548341e-004
-7.663065e-004,-2.100984e-004
-6.711741e-004,-2.600145e-004
-4.684305e-004,-3.074996e-004
-1.862748e-004,-3.514193e-004
1.185700e-004,-3.873978e-004
3.726885e-004,-4.078180e-004
5.260024e-004,-4.057112e-004
5.652222e-004,-3.781601e-004
5.196818e-004,-3.301888e-004
4.294114e-004,-2.676316e-004
3.218000e-004,-1.974573e-004
2.039785e-004,-1.250141e-004
6.476436e-005,-5.629843e-005
-1.067007e-004,-1.358292e-006
-2.932379e-004,2.894792e-005
-4.468758e-004,3.073064e-005
-5.172121e-004,4.476060e-006
-4.742648e-004,-3.717472e-005
-3.274337e-004,-8.093235e-005
-1.290658e-004,-1.154523e-004
5.374392e-005,-1.350622e-004
1.717275e-004,-1.397621e-004
2.023578e-004,-1.368449e-004
1.498487e-004,-1.331174e-004
3.073064e-005,-1.326312e-004
-1.442999e-004,-1.316588e-004
-3.767015e-004,-1.290658e-004
-6.706879e-004,-1.259865e-004
-1.004218e-003,-1.229073e-004
-1.307767e-003,-1.170729e-004
-1.486363e-003,-1.086455e-004
-1.468373e-003,-1.007043e-004
-1.244399e-003,-9.324932e-005
-8.970931e-004,-8.741497e-005
-5.643732e-004,-8.514606e-005
-3.548227e-004,-8.384953e-005
-2.838381e-004,-8.093235e-005
-2.870794e-004,-7.817725e-005
-2.762210e-004,-7.623246e-005
-1.938919e-004,-7.688072e-005
-3.134038e-005,-7.947377e-005
1.885823e-004,-8.158062e-005
4.247115e-004,-7.995997e-005
6.396102e-004,-6.796713e-005
8.112375e-004,-4.365734e-005
9.381348e-004,-1.189254e-005
1.027595e-003,2.165498e-005
1.093394e-003,5.504044e-005
1.157572e-003,8.210535e-005
1.235039e-003,9.588090e-005
1.325471e-003,9.280166e-005
1.406991e-003,7.708132e-005
1.459662e-003,5.714729e-005
1.474572e-003,3.688912e-005
1.452531e-003,2.311357e-005
1.402777e-003,1.857574e-005
1.333575e-003,2.862379e-005
1.253676e-003,5.471631e-005
1.169078e-003,8.729143e-005
1.080266e-003,1.120874e-004
9.901578e-004,1.171115e-004
9.066940e-004,1.046324e-004
8.431644e-004,7.967437e-005
8.045929e-004,4.985435e-005
7.872518e-004,2.246531e-005
7.712073e-004,2.207145e-006
7.362012e-004,-8.489165e-006
6.671614e-004,-1.108221e-005
5.639257e-004,-7.840905e-006
4.397836e-004,7.393235e-006
3.156415e-004,3.526847e-005
2.083542e-004,6.962632e-005
1.258630e-004,1.015532e-004
6.444023e-005,1.214872e-004
1.808955e-005,1.205148e-004
-1.416145e-005,1.033359e-004
-3.166451e-005,8.307774e-005
-4.009190e-005,7.546067e-005
-4.981582e-005,8.972242e-005
-6.569822e-005,1.231079e-004
-8.384953e-005,1.645966e-004
-1.007043e-004,2.067336e-004
-1.219349e-004,2.446569e-004
-1.535376e-004,2.790147e-004
-1.964849e-004,3.174242e-004
-2.460769e-004,3.720402e-004
-2.840002e-004,4.503178e-004
-2.943724e-004,5.478812e-004
-2.805968e-004,6.532237e-004
-2.593662e-004,7.511112e-004
-2.444563e-004,8.216097e-004
-2.420253e-004,8.441368e-004
-2.485079e-004,7.998929e-004
-2.545043e-004,6.796403e-004
-2.493182e-004,5.025028e-004
-2.339220e-004,3.088348e-004
-2.207947e-004,1.325077e-004
-2.180396e-004,-2.978945e-006
-2.240360e-004,-9.065627e-005
-2.319772e-004,-1.361966e-004
-2.334358e-004,-1.489998e-004
-2.321393e-004,-1.389517e-004
-2.405667e-004,-1.144799e-004
-2.645523e-004,-8.158062e-005
-2.909690e-004,-4.657451e-005
-3.117133e-004,-1.724069e-005
-3.326198e-004,1.396819e-006
-3.687603e-004,6.744974e-006
-4.282383e-004,5.610517e-006
-5.065158e-004,1.112074e-005
-5.849554e-004,2.992031e-005
-6.371404e-004,5.795762e-005
-6.407059e-004,8.826383e-005
-5.956517e-004,1.117633e-004
-5.178603e-004,1.237561e-004
-4.225660e-004,1.229458e-004
-3.261371e-004,1.161391e-004
-2.499665e-004,1.143563e-004
-2.028055e-004,1.210010e-004
-1.799543e-004,1.325077e-004
-1.666649e-004,1.360731e-004
-1.478653e-004,1.234320e-004
-1.136696e-004,9.539470e-005
-5.759496e-005,5.811968e-005
2.295151e-005,1.614476e-005
1.281319e-004,-2.372330e-005
2.540566e-004,-5.419158e-005
4.010499e-004,-7.282909e-005
5.679773e-004,-8.303921e-005
7.302047e-004,-9.114247e-005
8.556435e-004,-1.071869e-004
9.144733e-004,-1.345760e-004
8.908117e-004,-1.673132e-004
7.804451e-004,-2.006986e-004
6.008766e-004,-2.303566e-004
3.871123e-004,-2.530457e-004
1.824238e-004,-2.671454e-004
2.700314e-005,-2.734659e-004
-5.402952e-005,-2.741142e-004
-6.569822e-005,-2.664971e-004
-3.539201e-005,-2.512630e-004
9.662150e-006,-2.295462e-004
5.374392e-005,-2.071812e-004
8.729143e-005,-1.898402e-004
9.814982e-005,-1.776853e-004
7.513654e-005,-1.707165e-004
8.041497e-006,-1.682856e-004
-1.193418e-004,-1.673132e-004
-3.037722e-004,-1.630995e-004
-5.254775e-004,-1.528894e-004
-7.562584e-004,-1.334415e-004
-9.713190e-004,-1.034594e-004
-1.147970e-003,-6.537409e-005
-1.272274e-003,-2.534396e-005
-1.330780e-003,9.500084e-006
-1.331590e-003,3.672705e-005
-1.327863e-003,5.844381e-005
-1.371620e-003,7.384001e-005
-1.456380e-003,8.048469e-005
-1.536927e-003,7.610893e-005
-1.559130e-003,6.298164e-005
-1.494790e-003,5.504044e-005
-1.342773e-003,6.719534e-005
-1.120905e-003,9.798775e-005
-8.552803e-004,1.261871e-004
-5.669662e-004,1.297525e-004
-2.750866e-004,1.015532e-004
1.396819e-006,4.823369e-005
2.493568e-004,-9.461557e-006
4.694415e-004,-5.176060e-005
6.666752e-004,-6.634648e-005
8.449472e-004,-5.208473e-005
9.979369e-004,-1.999580e-005
1.117379e-003,1.533444e-005
1.193226e-003,4.288554e-005
1.223532e-003,5.504044e-005
1.230501e-003,5.034054e-005
1.234877e-003,3.462021e-005
1.238766e-003,1.873781e-005
1.232284e-003,5.124321e-006
1.201977e-003,-4.599598e-006
1.142337e-003,-1.027188e-005
1.059846e-003,-1.383732e-005
9.541793e-004,-1.772689e-005
8.045929e-004,-2.064406e-005
5.785116e-004,-2.210265e-005
2.407673e-004,-2.420950e-005
-2.332737e-004,-2.615428e-005
-8.162226e-004,-2.793700e-005
-1.422509e-003,-3.166451e-005
-1.961214e-003,-3.344722e-005
-2.351468e-003,-2.858526e-005
-2.522123e-003,-1.173047e-005
-2.433149e-003,1.630683e-005
-2.094594e-003,4.742337e-005
-1.575661e-003,7.173317e-005
-9.742362e-004,8.242948e-005
-3.778360e-004,7.659513e-005
1.673517e-004,6.152305e-005
6.629477e-004,4.888196e-005
1.121431e-003,4.645098e-005
1.530485e-003,5.747142e-005
1.846351e-003,7.432621e-005
2.008416e-003,8.453633e-005
1.978921e-003,8.421220e-005
1.767749e-003,7.157111e-005
1.433893e-003,4.628891e-005
1.068111e-003,1.436204e-005
7.577559e-004,-1.659243e-005
5.538776e-004,-3.960571e-005
4.666864e-004,-4.787104e-005
4.566384e-004,-3.296103e-005
4.474007e-004,3.989864e-006
3.717161e-004,5.682316e-005
2.166196e-004,1.216493e-004
2.765140e-005,1.974959e-004
-1.157764e-004,2.809595e-004
-1.585616e-004,3.582647e-004
-1.173971e-004,4.164462e-004
-5.662256e-005,4.462662e-004
-3.377135e-005,4.470765e-004
-7.477388e-005,4.214702e-004
-1.621271e-004,3.704196e-004
-2.523974e-004,3.000832e-004
-2.977757e-004,2.179161e-004
-2.749245e-004,1.412592e-004
-2.199844e-004,8.858796e-005
-2.023193e-004,6.751947e-005
-2.635799e-004,7.286762e-005
-3.870737e-004,9.150514e-005
-5.031124e-004,1.065772e-004
-5.217499e-004,1.117633e-004
-3.770256e-004,1.057669e-004
-6.099833e-005,8.956035e-005
3.623164e-004,6.784360e-005
7.791486e-004,4.661304e-005
1.090314e-003,3.413401e-005
1.251245e-003,3.462021e-005
1.279769e-003,4.709924e-005
1.234391e-003,6.897806e-005
1.173454e-003,9.296372e-005
1.122727e-003,1.099806e-004
1.079942e-003,1.167873e-004
1.028729e-003,1.148425e-004
9.530449e-004,1.069013e-004
8.460816e-004,9.296372e-005
7.117293e-004,7.805372e-005
5.692738e-004,6.541262e-005
4.396215e-004,5.682316e-005
3.418961e-004,5.212327e-005
2.858215e-004,4.726130e-005
2.718839e-004,3.510640e-005
2.914938e-004,1.176900e-005
3.394651e-004,-1.821308e-005
4.085050e-004,-5.078821e-005
4.935893e-004,-8.222889e-005
5.896941e-004,-1.123730e-004
6.901746e-004,-1.384655e-004
7.929241e-004,-1.561307e-004
8.927564e-004,-1.600202e-004
9.749237e-004,-1.455964e-004
1.024029e-003,-1.161005e-004
1.030998e-003,-7.623246e-005
9.955060e-004,-2.664048e-005
9.313280e-004,3.299956e-005
8.656915e-004,9.539470e-005
8.217717e-004,1.435281e-004
8.002171e-004,1.569795e-004
7.882242e-004,1.291043e-004
7.694246e-004,6.784360e-005
7.287462e-004,-8.165034e-006
6.498203e-004,-7.607040e-005
5.135234e-004,-1.248521e-004
3.055935e-004,-1.553203e-004
3.445814e-005,-1.712027e-004
-2.669833e-004,-1.724992e-004
-5.621042e-004,-1.613168e-004
-8.445840e-004,-1.430034e-004
-1.140191e-003,-1.191798e-004
-1.465780e-003,-9.098041e-005
-1.798987e-003,-5.694669e-005
-2.091028e-003,-1.302699e-005
-2.310303e-003,4.175108e-005
-2.452435e-003,1.018773e-004
-2.516937e-003,1.571416e-004
-2.495058e-003,2.017096e-004
-2.371402e-003,2.359053e-004
-2.145482e-003,2.676701e-004
-1.840962e-003,3.085106e-004
-1.499976e-003,3.551854e-004
-1.170983e-003,3.898674e-004
-8.919070e-004,3.942432e-004
-6.752257e-004,3.592371e-004
-5.115398e-004,2.866318e-004
-3.856151e-004,1.923098e-004
-2.972895e-004,9.636710e-005
-2.613110e-004,1.614476e-005
-2.878897e-004,-4.203669e-005
-3.838324e-004,-7.736692e-005
-5.481666e-004,-9.438377e-005
-7.654961e-004,-9.632856e-005
-1.003246e-003,-9.000801e-005
-1.212148e-003,-8.709084e-005
-1.329321e-003,-9.973194e-005
-1.305660e-003,-1.321450e-004
-1.131115e-003,-1.780095e-004
-8.418289e-004,-2.250084e-004
-5.074882e-004,-2.624455e-004
-1.857886e-004,-2.848105e-004
8.599491e-005,-2.911311e-004
2.889007e-004,-2.867553e-004
4.250356e-004,-2.828657e-004
5.114165e-004,-2.848105e-004
5.731634e-004,-2.930758e-004
6.287518e-004,-3.002067e-004
6.828816e-004,-3.024756e-004
7.243704e-004,-2.980999e-004
7.284220e-004,-2.870794e-004
6.702406e-004,-2.668213e-004
5.448019e-004,-2.298704e-004
3.796573e-004,-1.666649e-004
2.222919e-004,-7.282909e-005
1.235941e-004,5.455424e-005
1.135460e-004,2.041405e-004
1.926339e-004,3.576164e-004
3.243930e-004,4.911583e-004
4.551798e-004,5.888838e-004
5.470709e-004,6.486858e-004
5.880735e-004,6.781818e-004
5.939078e-004,6.845024e-004
5.871010e-004,6.666752e-004
5.789977e-004,6.201623e-004
5.707324e-004,5.460985e-004
5.606844e-004,4.600418e-004
5.543638e-004,3.809539e-004
5.611706e-004,3.232586e-004
5.775391e-004,2.929523e-004
5.901803e-004,2.806354e-004
5.939078e-004,2.655633e-004
5.965008e-004,2.303951e-004
6.081695e-004,1.710792e-004
6.256726e-004,9.571883e-005
6.319931e-004,1.776542e-005
6.084936e-004,-4.673658e-005
5.462606e-004,-8.919769e-005
4.498316e-004,-1.073490e-004
3.354135e-004,-1.086455e-004
2.174299e-004,-1.084835e-004
1.130598e-004,-1.162626e-004
3.510640e-005,-1.344139e-004
-4.761663e-006,-1.609926e-004
-1.682422e-006,-1.904885e-004
3.283749e-005,-2.199844e-004
8.453633e-005,-2.455907e-004
1.409351e-004,-2.582318e-004
1.952270e-004,-2.480217e-004
2.498430e-004,-2.160948e-004
3.159656e-004,-1.697441e-004
4.059119e-004,-1.146419e-004
5.211404e-004,-5.046408e-005
6.396102e-004,2.197911e-005
7.233981e-004,9.474644e-005
7.496526e-004,1.496866e-004
7.232359e-004,1.744826e-004
6.738060e-004,1.680000e-004
6.331276e-004,1.339663e-004
6.234036e-004,8.372600e-005
6.519272e-004,2.975825e-005
7.097846e-004,-2.631635e-005
7.815795e-004,-8.449779e-005
8.606674e-004,-1.379793e-004
9.467243e-004,-1.760647e-004
1.042181e-003,-1.898402e-004
1.146713e-003,-1.773612e-004
1.248976e-003,-1.515928e-004
1.326768e-003,-1.259865e-004
1.365826e-003,-1.135075e-004
1.356426e-003,-1.183694e-004
1.289979e-003,-1.308485e-004
1.159192e-003,-1.396000e-004
9.525587e-004,-1.368449e-004
6.635959e-004,-1.169109e-004
2.827422e-004,-8.093235e-005
-2.058847e-004,-4.041603e-005
-7.753821e-004,-7.030578e-006
-1.344880e-003,1.079661e-005
-1.835289e-003,2.100672e-005
-2.221005e-003,3.559260e-005
-2.525040e-003,6.670914e-005
-2.784183e-003,1.159770e-004
-3.016585e-003,1.817755e-004
-3.208633e-003,2.543808e-004
-3.315921e-003,3.169380e-004
-3.295014e-003,3.629646e-004
-3.134245e-003,3.922984e-004
-2.857113e-003,4.018603e-004
-2.498623e-003,3.874364e-004
-2.098483e-003,3.501614e-004
-1.695913e-003,2.983005e-004
-1.321380e-003,2.427121e-004
-9.803947e-004,1.887443e-004
-6.562641e-004,1.445005e-004
-3.256510e-004,1.125736e-004
1.128280e-005,9.474644e-005
3.268240e-004,8.972242e-005
5.903423e-004,9.247753e-005
7.819037e-004,9.652916e-005
8.935668e-004,9.879807e-005
9.350555e-004,9.798775e-005
9.194972e-004,9.426025e-005
8.655294e-004,8.502253e-005
7.994067e-004,6.071273e-005
7.418735e-004,1.711715e-005
6.929297e-004,-3.685059e-005
6.423653e-004,-8.692878e-005
5.730013e-004,-1.248521e-004
4.723587e-004,-1.538618e-004
3.404375e-004,-1.755785e-004
1.876099e-004,-1.890299e-004
2.068259e-005,-1.927574e-004
-1.488377e-004,-1.840059e-004
-3.073376e-004,-1.626133e-004
-4.431483e-004,-1.302002e-004
-5.408736e-004,-9.017008e-005
-5.739350e-004,-4.608832e-005
-5.108916e-004,-2.168618e-006
-3.403989e-004,3.705119e-005
-9.227693e-005,7.092283e-005
1.741585e-004,1.054428e-004
4.099635e-004,1.466074e-004
5.880735e-004,1.893926e-004
7.026537e-004,2.248849e-004
7.674798e-004,2.456293e-004
8.021619e-004,2.462775e-004
8.165857e-004,2.312054e-004
8.058894e-004,2.051129e-004
7.642385e-004,1.670276e-004
6.963331e-004,1.203528e-004
6.170831e-004,7.302969e-005
5.486915e-004,3.218923e-005
5.005581e-004,2.623614e-007
4.720346e-004,-2.339917e-005
4.465903e-004,-4.300908e-005
4.062360e-004,-6.197072e-005
3.440029e-004,-7.882551e-005
2.705873e-004,-9.778715e-005
2.059233e-004,-1.230693e-004
1.697827e-004,-1.556445e-004
1.675138e-004,-1.901644e-004
1.970097e-004,-2.165810e-004
2.525981e-004,-2.285738e-004
3.260137e-004,-2.263049e-004
4.046154e-004,-2.143121e-004
4.694415e-004,-1.924333e-004
5.018546e-004,-1.611547e-004
4.929410e-004,-1.188556e-004
4.511281e-004,-7.185670e-005
4.068843e-004,-2.971972e-005
4.008879e-004,1.234753e-006
4.482110e-004,2.457216e-005
5.354022e-004,4.936815e-005
6.261588e-004,7.481241e-005
6.896884e-004,9.263960e-005
7.222636e-004,9.896014e-005
7.337703e-004,9.409818e-005
7.279359e-004,8.469840e-005
6.971434e-004,7.400208e-005
6.279415e-004,6.184718e-005
5.214645e-004,4.677511e-005
4.033188e-004,3.056858e-005
3.098072e-004,1.565857e-005
2.623220e-004,1.234753e-006
2.658874e-004,-1.399939e-005
3.234207e-004,-3.134038e-005
4.292493e-004,-5.013995e-005
5.626291e-004,-6.618442e-005
6.793162e-004,-7.671866e-005
7.379840e-004,-8.109442e-005
7.186981e-004,-8.514606e-005
6.319931e-004,-8.903562e-005
5.101199e-004,-8.644258e-005
3.830607e-004,-7.137050e-005
2.673460e-004,-4.333321e-005
1.691344e-004,-1.358292e-006
9.442231e-005,4.839576e-005
4.304760e-005,9.733949e-005
1.396819e-006,1.402868e-004
-5.467778e-005,1.767515e-004
-1.396000e-004,2.065715e-004
-2.511009e-004,2.300710e-004
-3.588744e-004,2.474120e-004
-4.274279e-004,2.652392e-004
-4.292107e-004,2.890628e-004
-3.648708e-004,3.151553e-004
-2.669833e-004,3.357376e-004
-1.788198e-004,3.438409e-004
-1.264727e-004,3.360618e-004
-1.219349e-004,3.192069e-004
-1.673132e-004,2.937627e-004
-2.559629e-004,2.605393e-004
-3.702189e-004,2.214815e-004
-4.651892e-004,1.811273e-004
-4.888507e-004,1.477418e-004
-4.164075e-004,1.284560e-004
-2.647144e-004,1.260251e-004
-8.417366e-005,1.355869e-004
6.703327e-005,1.462832e-004
1.547106e-004,1.503348e-004
1.744826e-004,1.451487e-004
1.325077e-004,1.331559e-004
2.943412e-005,1.195424e-004
-1.396000e-004,1.062531e-004
-3.707051e-004,9.312579e-005
-6.450816e-004,7.967437e-005
-9.270752e-004,6.622294e-005
-1.188324e-003,5.212327e-005
-1.423805e-003,3.656499e-005
-1.633680e-003,2.181705e-005
-1.817138e-003,1.079661e-005
-1.980824e-003,8.689757e-006
-2.143700e-003,1.387585e-005
-2.314355e-003,2.052053e-005
-2.471072e-003,1.841368e-005
-2.582573e-003,4.244267e-007
-2.623738e-003,-2.907146e-005
-2.570580e-003,-5.872941e-005
-2.392308e-003,-7.509801e-005
-2.070770e-003,-7.493595e-005
-1.636435e-003,-6.586029e-005
-1.155425e-003,-5.338126e-005
-6.852738e-004,-3.717472e-005
-2.476975e-004,-9.947754e-006
1.579519e-004,3.105477e-005
5.290816e-004,7.416414e-005
8.566158e-004,1.038221e-004
1.120621e-003,1.098185e-004
1.302620e-003,8.842590e-005
1.400832e-003,4.402000e-005
1.438431e-003,-1.027188e-005
1.448479e-003,-5.808115e-005
1.457879e-003,-9.195280e-005
1.481541e-003,-1.135075e-004
1.522867e-003,-1.300381e-004
1.566301e-003,-1.468929e-004
1.586073e-003,-1.621271e-004
1.567760e-003,-1.763888e-004
1.515737e-003,-1.857886e-004
1.441024e-003,-1.810887e-004
1.354805e-003,-1.598582e-004
1.268910e-003,-1.251762e-004
1.193874e-003,-8.709084e-005
1.135693e-003,-5.565017e-005
1.095176e-003,-3.636440e-005
1.057091e-003,-2.842320e-005
9.844855e-004,-2.437157e-005
8.355473e-004,-1.545797e-005
6.031455e-004,-3.141010e-006
3.287688e-004,1.063454e-005
7.756751e-005,2.052053e-005
-8.563225e-005,2.700314e-005
-1.263107e-004,3.559260e-005
-5.224680e-005,5.682316e-005
9.928427e-005,9.344992e-005
2.901973e-004,1.407730e-004
4.931031e-004,1.872858e-004
6.827196e-004,2.265056e-004
8.305233e-004,2.589186e-004
9.131767e-004,2.838767e-004
9.267902e-004,2.927903e-004
8.872462e-004,2.780423e-004
8.207993e-004,2.380122e-004
7.545147e-004,1.775618e-004
7.036260e-004,1.143563e-004
6.655407e-004,6.265751e-005
6.175693e-004,2.910999e-005
5.310263e-004,1.095867e-005
3.957018e-004,1.396819e-006
2.184023e-004,-6.868512e-006
2.068259e-005,-1.707863e-005
-1.684476e-004,-2.890940e-005
-3.348887e-004,-4.106429e-005
-4.809095e-004,-5.111234e-005
-6.173684e-004,-6.213279e-005
-7.525309e-004,-7.655659e-005
-8.959587e-004,-1.002181e-004
-1.054134e-003,-1.308485e-004
-1.238241e-003,-1.624512e-004
-1.464484e-003,-1.823852e-004
-1.759443e-003,-1.817370e-004
-2.140134e-003,-1.558065e-004
-2.570256e-003,-1.118868e-004
-2.936849e-003,-5.937767e-005
-3.088218e-003,-8.975361e-006
-2.912377e-003,3.818564e-005
-2.390688e-003,8.648111e-005
-1.612287e-003,1.370455e-004
-7.358382e-004,1.806411e-004
7.416414e-005,2.023578e-004
6.976296e-004,1.987924e-004
1.096635e-003,1.803169e-004
1.296948e-003,1.603829e-004
1.352212e-003,1.485521e-004
1.318503e-003,1.454729e-004
1.236659e-003,1.485521e-004
1.141527e-003,1.508210e-004
1.050770e-003,1.498487e-004
9.650376e-004,1.445005e-004
8.791430e-004,1.370455e-004
7.997308e-004,1.229458e-004
7.472216e-004,1.000946e-004
7.392805e-004,6.914012e-005
7.729901e-004,3.121684e-005
8.188545e-004,-1.189254e-005
8.361956e-004,-6.553616e-005
7.985964e-004,-1.314967e-004
6.982779e-004,-2.042640e-004
5.357263e-004,-2.632558e-004
3.214759e-004,-2.865932e-004
8.323980e-005,-2.699005e-004
-1.310105e-004,-2.254946e-004
-2.695764e-004,-1.697441e-004
-2.972895e-004,-1.165867e-004
-2.157707e-004,-7.120844e-005
-5.500191e-005,-3.296103e-005
1.535762e-004,1.002961e-007
3.759298e-004,3.915804e-005
5.888838e-004,9.474644e-005
7.786624e-004,1.629759e-004
9.264661e-004,2.273159e-004
1.007661e-003,2.730183e-004
1.014792e-003,2.984626e-004
9.512621e-004,3.127243e-004
8.342508e-004,3.292550e-004
6.914712e-004,3.545372e-004
5.498260e-004,3.866261e-004
4.282769e-004,4.211461e-004
3.358997e-004,4.498316e-004
2.725321e-004,4.642555e-004
2.196988e-004,4.593935e-004
1.440143e-004,4.297355e-004
2.246531e-005,3.734988e-004
-1.366828e-004,2.924662e-004
-3.052307e-004,1.976579e-004
-4.538446e-004,1.130598e-004
-5.596732e-004,6.055066e-005
-6.144513e-004,5.293359e-005
-6.275786e-004,8.372600e-005
-6.154237e-004,1.308870e-004
-5.937069e-004,1.707551e-004
-5.689110e-004,1.830720e-004
-5.450873e-004,1.602208e-004
-5.330945e-004,1.000946e-004
-5.481666e-004,1.371378e-005
-5.938690e-004,-8.709084e-005
-6.549676e-004,-1.877334e-004
-7.157421e-004,-2.788141e-004
-7.672788e-004,-3.559572e-004
-8.037435e-004,-4.173799e-004
-8.167087e-004,-4.661616e-004
-8.121709e-004,-5.011677e-004
-8.184914e-004,-5.180224e-004
-8.690558e-004,-5.170500e-004
-9.706708e-004,-5.053813e-004
-1.096596e-003,-5.021400e-004
-1.205341e-003,-5.198051e-004
-1.259147e-003,-5.549733e-004
-1.225600e-003,-5.885208e-004
-1.085737e-003,-5.964620e-004
-8.509045e-004,-5.635628e-004
-5.624284e-004,-4.847991e-004
-2.796244e-004,-3.645466e-004
-4.738484e-005,-2.156086e-004
1.226217e-004,-5.483985e-005
2.529222e-004,1.059289e-004
3.811159e-004,2.589186e-004
5.305402e-004,4.026706e-004
7.016812e-004,5.370228e-004
8.809257e-004,6.593821e-004
1.057415e-003,7.684522e-004
1.213484e-003,8.637467e-004
1.333737e-003,9.353797e-004
1.414932e-003,9.702237e-004
1.456745e-003,9.525587e-004
1.461445e-003,8.791430e-004
1.435838e-003,7.676419e-004
1.389487e-003,6.405826e-004
1.332927e-003,5.076890e-004
1.282362e-003,3.720402e-004
1.242494e-003,2.406053e-004
1.190471e-003,1.221355e-004
1.111221e-003,2.035846e-005
1.000368e-003,-6.472583e-005
8.412196e-004,-1.319829e-004
6.093039e-004,-1.806025e-004
2.944109e-004,-2.159328e-004
-1.109144e-004,-2.476975e-004
-5.888449e-004,-2.793003e-004
-1.077148e-003,-3.073376e-004
-1.491549e-003,-3.228959e-004
-1.764467e-003,-3.190063e-004
-1.884719e-003,-2.987481e-004
-1.880668e-003,-2.648765e-004
-1.786022e-003,-2.227395e-004
-1.610019e-003,-1.776853e-004
-1.354765e-003,-1.349001e-004
-1.049597e-003,-9.778715e-005
-7.674409e-004,-6.391550e-005
-5.831727e-004,-2.728874e-005
-5.175362e-004,1.776542e-005
-5.322842e-004,6.719534e-005
-5.612939e-004,1.119254e-004
-5.523803e-004,1.477418e-004
-4.919299e-004,1.733481e-004
-3.977700e-004,1.914994e-004
-2.804347e-004,2.091646e-004
-1.295519e-004,2.329882e-004
5.941620e-005,2.590807e-004
2.764217e-004,2.749631e-004
4.966685e-004,2.631323e-004
6.940642e-004,2.140265e-004
8.473782e-004,1.305629e-004
9.454277e-004,2.392390e-005
9.968025e-004,-8.417366e-005
1.022895e-003,-1.721751e-004
1.037481e-003,-2.290600e-004
1.034564e-003,-2.566112e-004
1.002961e-003,-2.635799e-004
9.391072e-004,-2.580697e-004
8.532125e-004,-2.457528e-004
7.647247e-004,-2.287359e-004
6.892022e-004,-2.065330e-004
6.285898e-004,-1.825473e-004
5.801322e-004,-1.624512e-004
5.477191e-004,-1.451102e-004
5.331332e-004,-1.289037e-004
5.225990e-004,-1.152902e-004
4.879170e-004,-1.067007e-004
4.083429e-004,-1.029732e-004
2.859835e-004,-1.028112e-004
1.402868e-004,-1.063766e-004
-1.156841e-005,-1.070249e-004
-1.700683e-004,-9.438377e-005
-3.480160e-004,-6.504996e-005
-5.480045e-004,-1.934754e-005
-7.473448e-004,3.397195e-005
-9.026033e-004,8.340186e-005
-9.794222e-004,1.208390e-004
-9.701846e-004,1.464453e-004
-8.881795e-004,1.613553e-004
-7.539894e-004,1.663793e-004
-5.844692e-004,1.642725e-004
-4.032802e-004,1.553589e-004
-2.334358e-004,1.402868e-004
-9.130454e-005,1.216493e-004
1.987226e-005,1.036600e-004
1.064151e-004,9.053274e-005
1.751308e-004,8.291567e-005
2.370398e-004,8.356393e-005
2.961937e-004,9.361198e-005
3.542131e-004,1.073875e-004
4.110980e-004,1.171115e-004
4.686312e-004,1.148425e-004
5.334574e-004,9.863601e-005
6.034696e-004,7.367795e-005
6.665131e-004,5.341978e-005
6.992503e-004,5.017848e-005
6.885540e-004,6.589881e-005
6.441480e-004,9.280166e-005
5.961767e-004,1.166253e-004
5.744599e-004,1.252147e-004
5.879113e-004,1.141943e-004
6.235657e-004,8.810177e-005
6.597064e-004,5.617490e-005
6.763990e-004,3.251336e-005
6.605167e-004,3.024445e-005
6.052523e-004,5.147500e-005
5.091476e-004,8.469840e-005
3.733367e-004,1.148425e-004
2.193747e-004,1.307249e-004
7.902610e-005,1.305629e-004
-1.562004e-005,1.167873e-004
-4.625038e-005,9.685329e-005
-1.529591e-005,8.567078e-005
5.293359e-005,9.474644e-005
1.248906e-004,1.222975e-004
1.791825e-004,1.556830e-004
2.068957e-004,1.832341e-004
2.021958e-004,2.036543e-004
1.668655e-004,2.198609e-004
1.128978e-004,2.282883e-004
5.001641e-005,2.192126e-004
-2.015787e-005,1.867996e-004
-9.438377e-005,1.329939e-004
-1.574272e-004,6.460230e-005
-1.888679e-004,-9.299492e-006
-1.851403e-004,-7.736692e-005
-1.639098e-004,-1.302002e-004
-1.486757e-004,-1.674752e-004
-1.575892e-004,-1.927574e-004
-1.963229e-004,-2.073433e-004
-2.470493e-004,-2.120432e-004
-2.809209e-004,-2.052364e-004
-2.724935e-004,-1.870851e-004
-2.094501e-004,-1.528894e-004
-1.054042e-004,-9.373551e-005
1.436204e-005,-7.192643e-006
1.406109e-004,9.766362e-005
2.816078e-004,1.986303e-004
4.342734e-004,2.838767e-004
5.684635e-004,3.498373e-004
6.347482e-004,3.957018e-004
6.008766e-004,4.195254e-004
4.728449e-004,4.146634e-004
2.937627e-004,3.785229e-004
1.166253e-004,3.179104e-004
-2.161646e-005,2.428742e-004
-1.125351e-004,1.624898e-004
-1.712027e-004,8.323980e-005
-2.238740e-004,1.646889e-005
-2.887001e-004,-3.053005e-005
-3.713534e-004,-5.678463e-005
-4.679442e-004,-6.537409e-005
-5.731246e-004,-6.359137e-005
-6.783050e-004,-5.159854e-005
-7.765166e-004,-3.117831e-005
-8.838038e-004,-6.706447e-006
-1.040035e-003,1.112074e-005
-1.256716e-003,1.306552e-005
-1.486201e-003,2.623614e-007
-1.643728e-003,-2.339917e-005
-1.652317e-003,-4.835723e-005
-1.478097e-003,-6.586029e-005
-1.146025e-003,-7.412562e-005
-7.296797e-004,-7.704279e-005
-3.120375e-004,-8.093235e-005
4.304760e-005,-8.838737e-005
3.089968e-004,-9.908367e-005
4.861343e-004,-1.128592e-004
5.908285e-004,-1.302002e-004
6.397723e-004,-1.457585e-004
6.472273e-004,-1.520790e-004
6.232416e-004,-1.468929e-004
5.695979e-004,-1.365208e-004
4.833791e-004,-1.277692e-004
3.733367e-004,-1.248521e-004
2.738286e-004,-1.267968e-004
2.188885e-004,-1.321450e-004
2.101370e-004,-1.386276e-004
2.190506e-004,-1.425172e-004
2.093266e-004,-1.425172e-004
1.631380e-004,-1.355484e-004
8.631904e-005,-1.169109e-004
-6.058186e-006,-8.903562e-005
-1.211245e-004,-5.872941e-005
-2.922655e-004,-3.766092e-005
-5.275843e-004,-2.437157e-005
-7.983954e-004,-7.516774e-006
-1.052028e-003,2.295151e-005
-1.237430e-003,6.946425e-005
-1.323811e-003,1.287802e-004
-1.304525e-003,1.871237e-004
-1.200965e-003,2.266676e-004
-1.043924e-003,2.380122e-004
-8.522010e-004,2.211574e-004
-6.298475e-004,1.889064e-004
-3.792946e-004,1.529279e-004
-1.224211e-004,1.231079e-004
9.928427e-005,1.028497e-004
2.556773e-004,9.523264e-005
3.435167e-004,9.701536e-005
3.725264e-004,1.049566e-004
3.409237e-004,1.153287e-004
2.500050e-004,1.261871e-004
1.276457e-004,1.331559e-004
2.392390e-005,1.383420e-004
-1.318906e-005,1.448246e-004
3.445814e-005,1.493625e-004
1.479039e-004,1.524417e-004
2.927903e-004,1.547106e-004
4.386491e-004,1.551968e-004
5.770529e-004,1.514693e-004
7.044364e-004,1.428798e-004
8.178822e-004,1.320215e-004
9.078285e-004,1.200286e-004
9.656859e-004,1.083599e-004
9.904819e-004,1.038221e-004
1.002313e-003,1.088461e-004
1.016250e-003,1.151667e-004
1.027919e-003,1.141943e-004
1.023705e-003,1.033359e-004
9.927509e-004,8.372600e-005
9.321384e-004,6.168512e-005
8.447851e-004,4.628891e-005
7.415494e-004,3.948217e-005
6.362069e-004,3.850977e-005
5.438296e-004,3.559260e-005
4.785172e-004,2.505835e-005
4.360561e-004,7.717366e-006
4.002396e-004,-1.108221e-005
3.582647e-004,-2.599222e-005
3.034866e-004,-3.522994e-005
2.472499e-004,-3.749886e-005
2.034923e-004,-3.328516e-005
1.806411e-004,-2.664048e-005
1.704310e-004,-2.469570e-005
1.564933e-004,-2.777494e-005
1.158149e-004,-3.490581e-005
2.894792e-005,-4.479180e-005
-1.034594e-004,-6.018800e-005
-2.491561e-004,-7.736692e-005
-3.549847e-004,-9.324932e-005
-3.702189e-004,-1.023250e-004
-2.778417e-004,-9.357345e-005
-1.088076e-004,-6.472583e-005
6.881599e-005,-2.761287e-005
1.879340e-004,3.827798e-006
2.148369e-004,1.971020e-005
1.697827e-004,1.889987e-005
1.010670e-004,4.962256e-006
5.082674e-005,-1.027188e-005
3.964423e-005,-1.626830e-005
7.853991e-005,-8.651231e-006
1.587622e-004,1.176900e-005
2.558394e-004,3.753739e-005
3.440029e-004,5.990240e-005
4.041292e-004,7.448828e-005
4.216323e-004,7.691926e-005
3.958639e-004,6.784360e-005
3.467580e-004,5.050261e-005
3.046211e-004,2.959618e-005
2.867939e-004,1.014835e-005
2.877662e-004,-3.303075e-006
2.840387e-004,-1.059601e-005
2.522740e-004,-1.416145e-005
1.858272e-004,-1.675450e-005
9.312579e-005,-1.610623e-005
-7.516774e-006,-8.651231e-006
-1.060525e-004,1.160693e-005
-1.937298e-004,5.034054e-005
-2.663351e-004,1.091703e-004
-3.138202e-004,1.867996e-004
-3.295405e-004,2.694529e-004
-3.193304e-004,3.360618e-004
-2.963171e-004,3.707437e-004
-2.650385e-004,3.689610e-004
-2.292221e-004,3.354135e-004
-1.964849e-004,2.804733e-004
-1.768750e-004,2.154851e-004
-1.677994e-004,1.485521e-004
-1.579134e-004,9.085687e-005
-1.434896e-004,5.196120e-005
-1.426792e-004,3.413401e-005
-1.836818e-004,3.575467e-005
-2.797865e-004,5.455424e-005
-4.066836e-004,8.388807e-005
-5.283947e-004,1.216493e-004
-6.204477e-004,1.704310e-004
-6.714982e-004,2.297469e-004
-6.844635e-004,2.931144e-004
-6.774946e-004,3.501614e-004
-6.776568e-004,3.961880e-004
-6.990493e-004,4.337872e-004
-7.264384e-004,4.676588e-004
-7.348658e-004,4.976409e-004
-7.129869e-004,5.162784e-004
-6.603157e-004,5.146578e-004
-5.901415e-004,4.837033e-004
-5.332566e-004,4.195254e-004
-5.099192e-004,3.286067e-004
-4.982505e-004,2.231022e-004
-4.533584e-004,1.218114e-004
-3.300267e-004,4.320967e-005
-1.079973e-004,-7.354708e-006
1.949028e-004,-3.668853e-005
5.178991e-004,-6.132245e-005
7.812554e-004,-9.357345e-005
9.310039e-004,-1.431654e-004
9.587171e-004,-2.083157e-004
8.882186e-004,-2.836761e-004
7.652109e-004,-3.660052e-004
6.407447e-004,-4.564376e-004
5.566327e-004,-5.557836e-004
5.279472e-004,-6.620985e-004
5.449640e-004,-7.664685e-004
5.866148e-004,-8.538217e-004
6.362069e-004,-9.082756e-004
6.681337e-004,-9.210788e-004
6.436618e-004,-8.938518e-004
5.269747e-004,-8.359945e-004
3.250413e-004,-7.573929e-004
9.377405e-005,-6.638812e-004
-9.017008e-005,-5.591870e-004
-1.710407e-004,-4.423380e-004
-1.366828e-004,-3.134960e-004
-1.140634e-005,-1.718510e-004
1.568175e-004,-2.501983e-005
3.140208e-004,1.106288e-004
4.203357e-004,2.180782e-004
4.553419e-004,2.877662e-004
4.198496e-004,3.143450e-004
3.477304e-004,3.055935e-004
2.955454e-004,2.801492e-004
3.008935e-004,2.537325e-004
3.555096e-004,2.362295e-004
4.201737e-004,2.316917e-004
4.568004e-004,2.368777e-004
4.522626e-004,2.493568e-004
4.196875e-004,2.660495e-004
3.824124e-004,2.816078e-004
3.490270e-004,2.923041e-004
3.166139e-004,3.002453e-004
2.829043e-004,3.042969e-004
2.406053e-004,3.039728e-004
1.726999e-004,2.991108e-004
6.379197e-005,2.931144e-004
-8.579432e-005,2.913317e-004
-2.605007e-004,2.991108e-004
-4.403932e-004,3.222862e-004
-6.287130e-004,3.623164e-004
-8.439357e-004,4.072085e-004
-1.082334e-003,4.360561e-004
-1.300312e-003,4.297355e-004
-1.431747e-003,3.739850e-004
-1.435474e-003,2.730183e-004
-1.315222e-003,1.454729e-004
-1.115233e-003,1.614476e-005
-9.004965e-004,-9.146661e-005
-7.241695e-004,-1.674752e-004
-6.105618e-004,-2.125294e-004
-5.616180e-004,-2.374874e-004
-5.609698e-004,-2.493182e-004
-5.787969e-004,-2.511009e-004
-5.799314e-004,-2.417011e-004
-5.350393e-004,-2.237119e-004
-4.439586e-004,-2.018331e-004
-3.305129e-004,-1.718510e-004
-2.227395e-004,-1.358725e-004
-1.302002e-004,-9.746302e-005
-5.192267e-005,-5.646050e-005
2.084466e-005,-1.140634e-005
9.069480e-005,3.818564e-005
1.547106e-004,9.085687e-005
2.090025e-004,1.375317e-004
2.542187e-004,1.704310e-004
3.004074e-004,1.864754e-004
3.602095e-004,1.858272e-004
4.417284e-004,1.697827e-004
5.357263e-004,1.474177e-004
6.247002e-004,1.313732e-004
6.963331e-004,1.289422e-004
7.528939e-004,1.401247e-004
8.026481e-004,1.571416e-004
8.535366e-004,1.691344e-004
9.068561e-004,1.610312e-004
9.554758e-004,1.278078e-004
9.893475e-004,7.821578e-005
9.893475e-004,3.559260e-005
9.391072e-004,1.971020e-005
8.387886e-004,3.429608e-005
7.169154e-004,6.897806e-005
6.101142e-004,1.057669e-004
5.326470e-004,1.232699e-004
4.804620e-004,1.145184e-004
4.401077e-004,8.777764e-005
3.910019e-004,5.228533e-005
3.206655e-004,1.922400e-005
2.229401e-004,-4.275467e-006
9.247753e-005,-2.080613e-005
-6.278104e-005,-3.134038e-005
-2.130156e-004,-2.955766e-005
-3.193304e-004,-3.303075e-006
-3.580640e-004,5.098881e-005
-3.387782e-004,1.244044e-004
-2.878897e-004,1.952270e-004
-2.267911e-004,2.375260e-004
-1.558065e-004,2.386605e-004
-7.072224e-005,2.017096e-004
2.295151e-005,1.415833e-004
1.086841e-004,7.708132e-005
1.637863e-004,2.035846e-005
1.752929e-004,-2.356124e-005
1.616794e-004,-6.002593e-005
1.574657e-004,-9.260106e-005
1.855030e-004,-1.220969e-004
2.496809e-004,-1.491618e-004
3.362238e-004,-1.728234e-004
4.192013e-004,-1.867610e-004
4.657140e-004,-1.867610e-004
4.550177e-004,-1.744440e-004
3.900295e-004,-1.525652e-004
2.911697e-004,-1.214487e-004
1.848548e-004,-7.363942e-005
9.215340e-005,-6.220251e-006
2.538249e-005,7.659513e-005
-1.092015e-005,1.613553e-004
-2.048200e-005,2.318537e-004
-1.351319e-005,2.736665e-004
6.420843e-006,2.793389e-004
3.753739e-005,2.482223e-004
7.578480e-005,1.919856e-004
1.163011e-004,1.245665e-004
1.514693e-004,5.779555e-005
1.725378e-004,3.341602e-006
1.780480e-004,-3.312309e-005
1.726999e-004,-5.435365e-005
1.568175e-004,-7.137050e-005
1.281319e-004,-9.227693e-005
8.826383e-005,-1.190177e-004
4.758544e-005,-1.481895e-004
2.181705e-005,-1.744440e-004
2.149292e-005,-1.958366e-004
4.888196e-005,-2.083157e-004
1.083599e-004,-2.091260e-004
2.015475e-004,-1.914609e-004
3.143450e-004,-1.514308e-004
4.245494e-004,-9.713889e-005
5.037994e-004,-3.976777e-005
5.219507e-004,1.209313e-005
4.676588e-004,5.617490e-005
3.414099e-004,9.766362e-005
1.425557e-004,1.435281e-004
-1.216107e-004,1.919856e-004
-4.365036e-004,2.305572e-004
-7.980713e-004,2.540566e-004
-1.169525e-003,2.670219e-004
-1.456867e-003,2.717218e-004
-1.560588e-003,2.623220e-004
-1.438391e-003,2.368777e-004
-1.122202e-003,1.986303e-004
-6.993735e-004,1.490383e-004
-2.836761e-004,9.020861e-005
2.716520e-005,2.781346e-005
1.869616e-004,-2.453363e-005
1.913374e-004,-5.419158e-005
7.610893e-005,-6.002593e-005
-9.940780e-005,-4.495386e-005
-2.840002e-004,-1.189254e-005
-4.496309e-004,3.089270e-005
-5.975965e-004,7.124698e-005
-7.515585e-004,1.033359e-004
-9.410128e-004,1.269974e-004
-1.171308e-003,1.409351e-004
-1.429478e-003,1.380179e-004
-1.697372e-003,1.151667e-004
-1.950356e-003,8.210535e-005
-2.161527e-003,5.082674e-005
-2.312248e-003,3.073064e-005
-2.387609e-003,2.262737e-005
-2.374643e-003,1.792748e-005
-2.260225e-003,1.014835e-005
-2.042571e-003,-2.978945e-006
-1.729623e-003,-2.096819e-005
-1.332238e-003,-4.106429e-005
-8.729454e-004,-6.035006e-005
-3.914495e-004,-7.331529e-005
5.423011e-005,-8.174268e-005
4.162841e-004,-9.033214e-005
6.862851e-004,-9.649063e-005
8.875704e-004,-1.003802e-004
1.048988e-003,-9.892161e-005
1.189336e-003,-8.984595e-005
1.314127e-003,-7.299116e-005
1.423521e-003,-4.997788e-005
1.512657e-003,-1.934754e-005
1.570677e-003,1.938607e-005
1.579590e-003,5.649903e-005
1.525947e-003,8.259154e-005
1.413149e-003,9.507057e-005
1.256269e-003,9.896014e-005
1.072325e-003,1.007429e-004
8.904876e-004,1.026876e-004
7.545147e-004,1.059289e-004
6.960090e-004,1.081979e-004
7.117293e-004,1.140322e-004
7.823899e-004,1.239182e-004
8.781705e-004,1.339663e-004
9.707100e-004,1.386661e-004
1.043315e-003,1.334801e-004
1.097283e-003,1.205148e-004
1.142986e-003,1.015532e-004
1.200357e-003,8.259154e-005
1.275555e-003,6.784360e-005
1.356588e-003,5.990240e-005
1.421576e-003,6.427816e-005
1.448479e-003,8.097089e-005
1.428221e-003,9.960840e-005
1.369391e-003,1.036600e-004
1.285117e-003,8.453633e-005
1.187878e-003,4.774750e-005
1.083832e-003,6.258778e-006
9.731409e-004,-2.809907e-005
8.494850e-004,-5.694669e-005
7.127018e-004,-8.125648e-005
5.777012e-004,-1.003802e-004
4.621486e-004,-1.023250e-004
3.720402e-004,-7.558420e-005
2.905214e-004,-1.286493e-005
1.859892e-004,8.226741e-005
3.624086e-005,1.932822e-004
-1.514308e-004,2.952213e-004
-3.405610e-004,3.741471e-004
-4.836646e-004,4.256839e-004
-5.442770e-004,4.521005e-004
-5.139708e-004,4.589073e-004
-4.087905e-004,4.491834e-004
-2.622834e-004,4.217943e-004
-1.193418e-004,3.751195e-004
-2.404744e-005,3.086727e-004
-3.141010e-006,2.274780e-004
-5.338126e-005,1.428798e-004
-1.467309e-004,6.703327e-005
-2.402425e-004,7.555300e-006
-2.964792e-004,-3.101624e-005
-3.031239e-004,-4.997788e-005
-2.671454e-004,-5.500191e-005
-2.000504e-004,-5.889147e-005
-1.045939e-004,-6.877746e-005
9.500084e-006,-8.303921e-005
1.294284e-004,-9.503204e-005
2.396328e-004,-9.811128e-005
3.313618e-004,-9.049421e-005
4.008879e-004,-7.428768e-005
4.530729e-004,-5.435365e-005
4.958582e-004,-3.863331e-005
5.517707e-004,-3.215070e-005
6.392861e-004,-3.474375e-005
7.509491e-004,-4.057810e-005
8.502953e-004,-5.046408e-005
8.919461e-004,-6.326724e-005
8.274441e-004,-7.347736e-005
6.200003e-004,-7.817725e-005
2.869559e-004,-7.785312e-005
-1.104282e-004,-7.574627e-005
-4.946851e-004,-7.266703e-005
-8.189777e-004,-6.488790e-005
-1.095461e-003,-5.402952e-005
-1.353307e-003,-4.625038e-005
-1.588950e-003,-4.592625e-005
-1.763656e-003,-5.305713e-005
-1.846958e-003,-6.326724e-005
-1.833669e-003,-6.748093e-005
-1.739833e-003,-5.613637e-005
-1.595595e-003,-2.761287e-005
-1.438715e-003,1.014835e-005
-1.302256e-003,4.742337e-005
-1.199183e-003,7.497447e-005
-1.117016e-003,8.907416e-005
-1.036631e-003,8.469840e-005
-9.541402e-004,5.909207e-005
-8.828314e-004,1.679302e-005
-8.337256e-004,-3.215070e-005
-8.021229e-004,-7.785312e-005
-7.590135e-004,-1.154523e-004
-6.656639e-004,-1.441378e-004
-4.969540e-004,-1.642339e-004
-2.522354e-004,-1.762267e-004
5.098881e-005,-1.799543e-004
3.794953e-004,-1.708786e-004
6.883919e-004,-1.499722e-004
9.368383e-004,-1.230693e-004
1.102145e-003,-9.584237e-005
1.185933e-003,-7.218083e-005
1.207812e-003,-5.159854e-005
1.197278e-003,-3.701266e-005
1.171185e-003,-2.890940e-005
1.131479e-003,-2.404744e-005
1.065842e-003,-1.999580e-005
9.601757e-004,-1.578211e-005
8.120479e-004,-1.092015e-005
6.287518e-004,-4.437533e-006
4.214702e-004,3.179537e-006
1.984682e-004,1.371378e-005
-4.203669e-005,3.024445e-005
-2.984240e-004,5.374392e-005
-5.551354e-004,8.323980e-005
-7.714925e-004,1.190562e-004
-9.069791e-004,1.613553e-004
-9.320992e-004,2.054371e-004
-8.275671e-004,2.448189e-004
-6.071583e-004,2.759355e-004
-3.207890e-004,2.992729e-004
-2.971972e-005,3.151553e-004
2.017096e-004,3.185587e-004
3.237448e-004,2.991108e-004
2.957075e-004,2.430362e-004
8.793970e-005,1.485521e-004
-2.815692e-004,3.267542e-005
-7.172007e-004,-7.704279e-005
-1.082010e-003,-1.561307e-004
-1.275516e-003,-1.895161e-004
-1.286860e-003,-1.697441e-004
-1.182328e-003,-1.075111e-004
-1.042466e-003,-3.069211e-005
-9.154065e-004,3.575467e-005
-8.147639e-004,8.291567e-005
-7.353520e-004,1.094944e-004
-6.609640e-004,1.124116e-004
-5.601594e-004,8.696730e-005
-4.000389e-004,3.413401e-005
-1.815749e-004,-2.858526e-005
4.158902e-005,-7.574627e-005
1.911753e-004,-9.000801e-005
2.099749e-004,-6.650855e-005
1.070634e-004,-1.643037e-005
-4.462973e-005,4.758544e-005
-1.598582e-004,1.133840e-004
-1.827094e-004,1.692965e-004
-9.924574e-005,2.067336e-004
7.400208e-005,2.211574e-004
3.025142e-004,2.077060e-004
5.475571e-004,1.759412e-004
7.695867e-004,1.410971e-004
9.489931e-004,1.153287e-004
1.076701e-003,1.033359e-004
1.152709e-003,1.005808e-004
1.175885e-003,1.005808e-004
1.152061e-003,9.717742e-005
1.100686e-003,8.842590e-005
1.050770e-003,7.432621e-005
1.024516e-003,5.957827e-005
1.024354e-003,5.098881e-005
1.036671e-003,5.617490e-005
1.049636e-003,7.951231e-005
1.053850e-003,1.218114e-004
1.042181e-003,1.783722e-004
1.007985e-003,2.375260e-004
9.520724e-004,2.867939e-004
8.802774e-004,3.135346e-004
7.956792e-004,3.059176e-004
7.018433e-004,2.561635e-004
6.101142e-004,1.701068e-004
5.441537e-004,6.816773e-005
5.172509e-004,-2.161646e-005
5.245437e-004,-8.271508e-005
5.482053e-004,-1.169109e-004
5.713807e-004,-1.345760e-004
5.812666e-004,-1.410586e-004
5.695979e-004,-1.361966e-004
5.315125e-004,-1.139937e-004
4.728449e-004,-6.861539e-005
4.054257e-004,4.638125e-006
3.449753e-004,9.474644e-005
3.002453e-004,1.833962e-004
2.709115e-004,2.581083e-004
2.498430e-004,3.089968e-004
2.323399e-004,3.311998e-004
2.214815e-004,3.201793e-004
2.151610e-004,2.726942e-004
2.085163e-004,1.978200e-004
1.983062e-004,1.119254e-004
1.827479e-004,3.170303e-005
1.663793e-004,-2.761287e-005
1.535762e-004,-6.018800e-005
1.503348e-004,-7.428768e-005
1.649207e-004,-8.871149e-005
2.018716e-004,-1.135075e-004
2.509774e-004,-1.478653e-004
2.932765e-004,-1.844921e-004
3.073762e-004,-2.156086e-004
2.887386e-004,-2.339220e-004
2.409294e-004,-2.371633e-004
1.733481e-004,-2.279256e-004
8.712937e-005,-2.092881e-004
-2.437157e-005,-1.802784e-004
-1.797922e-004,-1.430034e-004
-3.891806e-004,-1.018388e-004
-6.418403e-004,-6.164659e-005
-9.123273e-004,-2.404744e-005
-1.163042e-003,8.041497e-006
-1.347635e-003,3.575467e-005
-1.429478e-003,5.974033e-005
-1.393985e-003,8.064676e-005
-1.265630e-003,9.960840e-005
-1.094813e-003,1.175977e-004
-9.273993e-004,1.300767e-004
-7.881852e-004,1.273216e-004
-6.865704e-004,1.007429e-004
-6.295234e-004,4.758544e-005
-6.275786e-004,-2.339917e-005
-6.854359e-004,-9.389758e-005
-7.839716e-004,-1.433275e-004
-8.826694e-004,-1.540238e-004
-9.393921e-004,-1.225831e-004
-9.317751e-004,-5.516398e-005
-8.789418e-004,3.413401e-005
-8.194639e-004,1.258630e-004
-7.818647e-004,2.002510e-004
-7.695478e-004,2.399570e-004
-7.641996e-004,2.399570e-004
-7.254660e-004,2.122438e-004
-6.244993e-004,1.764274e-004
-4.598410e-004,1.470936e-004
-2.514251e-004,1.261871e-004
-3.117831e-005,1.067393e-004
1.689724e-004,8.534666e-005
3.360618e-004,6.184718e-005
4.744656e-004,3.526847e-005
5.958526e-004,3.827798e-006
7.071915e-004,-2.842320e-005
8.148029e-004,-5.338126e-005
9.157698e-004,-6.569822e-005
9.976128e-004,-6.974985e-005
1.042991e-003,-7.428768e-005
1.037481e-003,-9.130454e-005
9.750857e-004,-1.295519e-004
8.575883e-004,-1.893540e-004
6.956849e-004,-2.583938e-004
5.059062e-004,-3.194925e-004
3.114278e-004,-3.561192e-004
1.386661e-004,-3.561192e-004
7.231170e-006,-3.183580e-004
-7.201877e-005,-2.532078e-004
-9.730095e-005,-1.812508e-004
-8.514606e-005,-1.089697e-004
-6.731887e-005,-3.036798e-005
-7.542214e-005,6.022653e-005
-1.230693e-004,1.663793e-004
-1.950263e-004,2.876042e-004
-2.569353e-004,4.106118e-004
-2.906448e-004,5.144957e-004
-2.951827e-004,5.780254e-004
-2.705488e-004,5.906665e-004
-2.143121e-004,5.540397e-004
-1.297140e-004,4.790034e-004
-3.911951e-005,3.854917e-004
2.327564e-005,2.992729e-004
3.235129e-005,2.376881e-004
-1.967167e-005,1.989545e-004
-1.225831e-004,1.749688e-004
-2.494803e-004,1.547106e-004
-3.752429e-004,1.347766e-004
-4.864197e-004,1.177597e-004
-5.708557e-004,1.039842e-004
-6.295234e-004,8.858796e-005
-6.648535e-004,6.265751e-005
-6.640432e-004,1.679302e-005
-6.035930e-004,-5.224680e-005
-4.700511e-004,-1.321450e-004
-2.736280e-004,-2.045882e-004
-5.095028e-005,-2.559629e-004
1.555209e-004,-2.815692e-004
3.077003e-004,-2.809209e-004
3.952156e-004,-2.558008e-004
4.363802e-004,-2.104225e-004
4.615003e-004,-1.509446e-004
5.002340e-004,-8.530812e-005
5.679773e-004,-1.853721e-005
6.543581e-004,4.288554e-005
7.321496e-004,9.296372e-005
7.809313e-004,1.342904e-004
7.940585e-004,1.681620e-004
7.781762e-004,1.970097e-004
7.475458e-004,2.137024e-004
7.152948e-004,2.120818e-004
6.877437e-004,1.876099e-004
6.793162e-004,1.464453e-004
6.984400e-004,1.034980e-004
7.292324e-004,7.189524e-005
7.444666e-004,5.487837e-005
7.182119e-004,4.936815e-005
6.501445e-004,4.515445e-005
5.658705e-004,3.559260e-005
4.929410e-004,2.262737e-005
4.448076e-004,1.679302e-005
4.143393e-004,2.619281e-005
3.741471e-004,5.017848e-005
2.872800e-004,8.388807e-005
1.284560e-004,1.203528e-004
-9.827335e-005,1.535762e-004
-3.590364e-004,1.809652e-004
-5.935449e-004,2.013854e-004
-7.470206e-004,2.200230e-004
-7.980713e-004,2.360674e-004
-7.606342e-004,2.427121e-004
-6.648535e-004,2.312054e-004
-5.424943e-004,1.927960e-004
-4.168937e-004,1.273216e-004
-2.946965e-004,4.758544e-005
-1.833576e-004,-2.647842e-005
-1.220969e-004,-8.012203e-005
-1.580754e-004,-1.073490e-004
-2.799485e-004,-1.091317e-004
-4.225660e-004,-9.227693e-005
-5.160776e-004,-6.618442e-005
-5.100812e-004,-4.770897e-005
-3.776739e-004,-4.381940e-005
-1.256624e-004,-5.176060e-005
2.046267e-004,-6.586029e-005
5.415606e-004,-8.028410e-005
8.107513e-004,-8.401160e-005
9.697375e-004,-7.590833e-005
1.014143e-003,-5.856734e-005
9.702237e-004,-3.879538e-005
8.827084e-004,-2.437157e-005
7.958413e-004,-2.210265e-005
7.431700e-004,-3.134038e-005
7.360392e-004,-4.138842e-005
7.655350e-004,-4.236081e-005
8.096169e-004,-3.425755e-005
8.384645e-004,-2.307504e-005
8.188545e-004,-1.416145e-005
7.344185e-004,-9.623623e-006
5.887217e-004,-1.075808e-005
3.979707e-004,-1.643037e-005
1.752929e-004,-2.501983e-005
-6.537409e-005,-3.474375e-005
-3.029618e-004,-4.203669e-005
-5.074882e-004,-4.576419e-005
-6.457299e-004,-4.949169e-005
-6.915944e-004,-5.662256e-005
-6.591813e-004,-6.553616e-005
-5.974344e-004,-7.396355e-005
-5.682627e-004,-8.028410e-005
-6.181788e-004,-7.850138e-005
-7.445897e-004,-6.618442e-005
-8.964448e-004,-4.495386e-005
-1.000815e-003,-2.210265e-005
-9.982219e-004,-3.303075e-006
-8.708385e-004,1.274139e-005
-6.494574e-004,2.262737e-005
-3.932322e-004,2.278944e-005
-1.653684e-004,1.484824e-005
2.207145e-006,6.907039e-006
1.120874e-004,5.124321e-006
1.879340e-004,1.193106e-005
2.414156e-004,2.505835e-005
2.715597e-004,3.802358e-005
2.684805e-004,4.353380e-005
2.268297e-004,3.494434e-005
1.414213e-004,1.225519e-005
1.987226e-005,-1.675450e-005
-1.222590e-004,-3.976777e-005
-2.609869e-004,-4.981582e-005
-3.645466e-004,-4.706071e-005
-3.930701e-004,-3.814712e-005
-3.250027e-004,-3.134038e-005
-1.742820e-004,-2.907146e-005
1.241726e-005,-3.069211e-005
1.837203e-004,-3.069211e-005
3.059176e-004,-2.258885e-005
3.619922e-004,-7.354708e-006
3.616681e-004,1.063454e-005
3.284447e-004,3.105477e-005
2.916558e-004,5.066468e-005
2.704253e-004,6.719534e-005
2.584324e-004,8.242948e-005
2.350950e-004,1.018773e-004
1.885823e-004,1.190562e-004
1.282940e-004,1.261871e-004
8.372600e-005,1.197045e-004
8.583285e-005,1.043083e-004
1.548727e-004,8.745350e-005
2.866318e-004,7.546067e-005
4.558280e-004,7.205730e-005
6.191900e-004,7.756751e-005
7.204809e-004,8.615698e-005
7.152948e-004,9.296372e-005
5.908285e-004,1.015532e-004
3.751195e-004,1.169494e-004
1.197045e-004,1.359110e-004
-1.279313e-004,1.581140e-004
-3.402368e-004,1.780480e-004
-5.199672e-004,1.916615e-004
-6.851117e-004,1.936063e-004
-8.499321e-004,1.820997e-004
-1.000815e-003,1.636242e-004
-1.107454e-003,1.508210e-004
-1.130953e-003,1.480659e-004
-1.041007e-003,1.495245e-004
-8.338877e-004,1.551968e-004
-5.415219e-004,1.692965e-004
-2.241981e-004,1.953890e-004
5.179913e-005,2.346088e-004
2.384984e-004,2.853353e-004
3.245551e-004,3.383307e-004
3.282826e-004,3.898674e-004
2.806354e-004,4.337872e-004
2.034923e-004,4.555039e-004
1.064151e-004,4.430249e-004
5.610517e-006,3.992672e-004
-7.850138e-005,3.355755e-004
-1.300381e-004,2.652392e-004
-1.470550e-004,1.970097e-004
-1.468929e-004,1.312111e-004
-1.549962e-004,6.800567e-005
-1.921091e-004,9.338019e-006
-2.622834e-004,-4.381940e-005
-3.476918e-004,-9.519411e-005
-4.027940e-004,-1.441378e-004
-3.783222e-004,-1.885437e-004
-2.535319e-004,-2.230636e-004
-5.013995e-005,-2.360288e-004
1.832341e-004,-2.229016e-004
3.903536e-004,-1.835197e-004
5.238955e-004,-1.280934e-004
5.762426e-004,-6.456376e-005
5.845079e-004,-1.358292e-006
5.950422e-004,5.471631e-005
6.221071e-004,9.993253e-005
6.436618e-004,1.253768e-004
6.321552e-004,1.258630e-004
5.845079e-004,1.026876e-004
5.162784e-004,6.103685e-005
4.454558e-004,6.582909e-006
3.828986e-004,-4.851930e-005
3.380065e-004,-9.730095e-005
3.200173e-004,-1.368449e-004
3.321721e-004,-1.690959e-004
3.747953e-004,-1.994021e-004
4.465903e-004,-2.303566e-004
5.323229e-004,-2.558008e-004
6.063868e-004,-2.686040e-004
6.302104e-004,-2.634179e-004
5.811046e-004,-2.335979e-004
4.644175e-004,-1.747682e-004
3.067279e-004,-9.486997e-005
1.542244e-004,-1.545797e-005
5.082674e-005,4.094075e-005
2.246531e-005,5.876794e-005
6.379197e-005,3.543053e-005
1.492004e-004,-1.675450e-005
2.453051e-004,-7.493595e-005
3.261757e-004,-1.232314e-004
3.767402e-004,-1.556445e-004
3.905157e-004,-1.692580e-004
3.657197e-004,-1.596961e-004
3.059176e-004,-1.261486e-004
2.290986e-004,-7.120844e-005
1.634621e-004,9.106226e-007
1.132219e-004,8.826383e-005
5.828174e-005,1.825858e-004
-2.761287e-005,2.712356e-004
-1.472171e-004,3.389789e-004
-2.752486e-004,3.756057e-004
-3.771877e-004,3.785229e-004
-4.384484e-004,3.530786e-004
-4.784785e-004,3.149932e-004
-5.316359e-004,2.756114e-004
-6.118583e-004,2.422259e-004
-7.050458e-004,2.209953e-004
-7.829992e-004,2.112714e-004
-8.223810e-004,2.086784e-004
-8.270809e-004,2.068957e-004
-8.244879e-004,1.976579e-004
-8.342118e-004,1.767515e-004
-8.500942e-004,1.508210e-004
-8.564147e-004,1.278078e-004
-8.460426e-004,1.177597e-004
-8.120089e-004,1.291043e-004
-7.488034e-004,1.553589e-004
-6.522125e-004,1.861513e-004
-5.287188e-004,2.158092e-004
-3.920977e-004,2.480603e-004
-2.428356e-004,2.845250e-004
-7.882551e-005,3.201793e-004
8.712937e-005,3.480546e-004
2.325020e-004,3.577785e-004
3.440029e-004,3.363859e-004
4.192013e-004,2.722080e-004
4.649037e-004,1.655690e-004
4.929410e-004,3.332369e-005
5.178991e-004,-1.034594e-004
5.420469e-004,-2.256567e-004
5.529052e-004,-3.168994e-004
5.352401e-004,-3.674638e-004
4.840274e-004,-3.773498e-004
4.051016e-004,-3.540124e-004
3.209897e-004,-3.084720e-004
2.568118e-004,-2.540181e-004
2.380122e-004,-2.037778e-004
2.723700e-004,-1.697441e-004
3.530786e-004,-1.609926e-004
4.595555e-004,-1.846541e-004
5.631153e-004,-2.410529e-004
6.350724e-004,-3.188442e-004
6.691061e-004,-3.971218e-004
6.825575e-004,-4.538446e-004
6.998985e-004,-4.788027e-004
7.229118e-004,-4.708614e-004
7.413873e-004,-4.358554e-004
7.447907e-004,-3.809152e-004
7.178878e-004,-3.078238e-004
6.478755e-004,-2.139880e-004
5.287575e-004,-9.892161e-005
3.683128e-004,2.424803e-005
1.819376e-004,1.389903e-004
-1.853721e-005,2.303951e-004
-2.285738e-004,2.863077e-004
-4.428242e-004,3.062417e-004
-6.501056e-004,3.017039e-004
-8.364808e-004,2.914938e-004
-9.891462e-004,2.867939e-004
-1.096271e-003,2.874421e-004
-1.153967e-003,2.876042e-004
-1.172118e-003,2.791768e-004
-1.170659e-003,2.615117e-004
-1.167256e-003,2.370398e-004
-1.163204e-003,2.124059e-004
-1.144729e-003,1.960373e-004
-1.090275e-003,1.864754e-004
-9.828256e-004,1.786963e-004
-8.220569e-004,1.704310e-004
-6.238511e-004,1.660552e-004
-4.162455e-004,1.649207e-004
-2.220912e-004,1.571416e-004
-4.398147e-005,1.310491e-004
1.278078e-004,8.356393e-005
2.890628e-004,1.938607e-005
4.273045e-004,-4.900549e-005
5.391297e-004,-1.092938e-004
6.305345e-004,-1.559686e-004
7.107570e-004,-1.854645e-004
7.856312e-004,-2.018331e-004
8.595330e-004,-2.122052e-004
9.318143e-004,-2.217671e-004
9.950198e-004,-2.352185e-004
1.034888e-003,-2.536940e-004
1.043315e-003,-2.708729e-004
1.023381e-003,-2.807589e-004
9.864303e-004,-2.758969e-004
9.434829e-004,-2.525595e-004
9.023183e-004,-2.123673e-004
8.590468e-004,-1.572651e-004
8.088066e-004,-9.017008e-005
7.446286e-004,-1.464765e-005
6.682958e-004,6.330577e-005
5.916388e-004,1.370455e-004
5.156302e-004,1.987924e-004
4.292493e-004,2.464396e-004
3.264999e-004,2.838767e-004
2.102990e-004,3.154794e-004
8.226741e-005,3.391410e-004
-6.099833e-005,3.435167e-004
-2.182017e-004,3.203414e-004
-3.791325e-004,2.712356e-004
-5.262878e-004,2.080301e-004
-6.416783e-004,1.466074e-004
-7.107180e-004,9.847395e-005
-7.262763e-004,6.832980e-005
-6.886772e-004,5.406805e-005
-6.091031e-004,5.098881e-005
-4.985746e-004,5.504044e-005
-3.711913e-004,6.265751e-005
-2.438080e-004,7.189524e-005
-1.332795e-004,8.242948e-005
-4.851930e-005,9.263960e-005
1.452411e-005,1.072255e-004
6.622294e-005,1.284560e-004
1.145184e-004,1.548727e-004
1.620035e-004,1.829100e-004
2.080301e-004,2.075439e-004
2.464396e-004,2.211574e-004
2.760976e-004,2.182402e-004
2.953833e-004,1.976579e-004
3.059176e-004,1.673517e-004
3.072141e-004,1.346145e-004
2.976522e-004,1.046324e-004
2.760976e-004,7.902610e-005
2.417397e-004,6.217131e-005
2.015475e-004,5.147500e-005
1.581140e-004,4.693717e-005
1.009049e-004,4.596478e-005
2.068259e-005,4.239934e-005
-7.866345e-005,3.283749e-005
-1.806025e-004,1.663096e-005
-2.671454e-004,-6.382316e-006
-3.256510e-004,-3.182657e-005
-3.459091e-004,-5.305713e-005
-3.308370e-004,-6.326724e-005
-3.015032e-004,-6.018800e-005
-3.036101e-004,-4.446767e-005
-3.789704e-004,-2.015787e-005
-5.311497e-004,1.883015e-006
-7.231971e-004,1.533444e-005
-8.995241e-004,2.295151e-005
-1.008108e-003,2.619281e-005
-1.028042e-003,2.992031e-005
-9.755327e-004,3.672705e-005
-8.768350e-004,4.110282e-005
-7.616066e-004,3.786152e-005
-6.580469e-004,2.570661e-005
-5.807417e-004,7.879431e-006
-5.129984e-004,-9.947754e-006
-4.277521e-004,-2.291298e-005
-3.063652e-004,-3.020592e-005
-1.352242e-004,-3.506787e-005
9.361198e-005,-4.122636e-005
3.603715e-004,-5.095028e-005
6.274553e-004,-6.180866e-005
8.684467e-004,-7.169464e-005
1.079132e-003,-7.752898e-005
1.269883e-003,-7.347736e-005
1.439404e-003,-5.629843e-005
1.570515e-003,-3.117831e-005
1.628696e-003,-3.789271e-006
1.589152e-003,1.971020e-005
1.463227e-003,3.348575e-005
1.285765e-003,3.802358e-005
1.106197e-003,4.142695e-005
9.647135e-004,5.115087e-005
8.671501e-004,6.703327e-005
7.859553e-004,8.210535e-005
6.825575e-004,9.166720e-005
5.308643e-004,9.555677e-005
3.183966e-004,9.701536e-005
3.624086e-005,9.685329e-005
-3.173856e-004,9.620503e-005
-7.043975e-004,9.928427e-005
-1.053648e-003,1.070634e-004
-1.298205e-003,1.171115e-004
-1.427533e-003,1.222975e-004
-1.496735e-003,1.198666e-004
-1.579226e-003,1.103047e-004
-1.688458e-003,1.004187e-004
-1.766087e-003,9.458438e-005
-1.747612e-003,9.328785e-005
-1.611963e-003,9.134307e-005
-1.387989e-003,8.680524e-005
-1.112316e-003,8.048469e-005
-8.034194e-004,7.546067e-005
-4.844749e-004,7.675719e-005
-1.922712e-004,8.372600e-005
4.904402e-005,8.972242e-005
2.388225e-004,8.567078e-005
3.937570e-004,7.659513e-005
5.354022e-004,6.654707e-005
6.815851e-004,5.633696e-005
8.348991e-004,4.402000e-005
9.807580e-004,3.008238e-005
1.105873e-003,1.971020e-005
1.195333e-003,1.614476e-005
1.241035e-003,1.906194e-005
1.249787e-003,2.797553e-005
1.239739e-003,3.867184e-005
1.227746e-003,4.758544e-005
1.219805e-003,5.649903e-005
1.203598e-003,6.444023e-005
1.152385e-003,7.027457e-005
1.040560e-003,7.173317e-005
8.661777e-004,6.346784e-005
6.516030e-004,4.531652e-005
4.081808e-004,2.230324e-005
1.461212e-004,7.485573e-007
-1.203142e-004,-1.707863e-005
-3.595226e-004,-3.247483e-005
-5.376323e-004,-4.057810e-005
-6.248234e-004,-4.090223e-005
-6.118583e-004,-3.182657e-005
-5.176983e-004,-1.351319e-005
-3.877220e-004,7.231170e-006
-2.731418e-004,2.181705e-005
-2.026434e-004,2.343770e-005
-1.755785e-004,1.306552e-005
-1.724992e-004,-1.682422e-006
-1.746061e-004,-1.448558e-005
-1.734716e-004,-2.501983e-005
-1.716889e-004,-2.874733e-005
-1.781715e-004,-2.096819e-005
-2.083157e-004,-3.789271e-006
-2.708729e-004,1.695509e-005
-3.635742e-004,3.786152e-005
-4.695649e-004,6.038860e-005
-5.621042e-004,8.518459e-005
-6.133168e-004,1.145184e-004
-6.011620e-004,1.457970e-004
-5.241809e-004,1.681620e-004
-4.047388e-004,1.720516e-004
-2.742762e-004,1.556830e-004
-1.587237e-004,1.261871e-004
-6.877746e-005,9.539470e-005
-5.896120e-006,7.465034e-005
3.105477e-005,6.849186e-005
4.564065e-005,6.865393e-005
4.693717e-005,6.119892e-005
5.423011e-005,3.818564e-005
8.599491e-005,3.017472e-006
1.577899e-004,-3.490581e-005
2.739907e-004,-6.569822e-005
4.247115e-004,-8.028410e-005
5.877493e-004,-7.477388e-005
7.284220e-004,-5.516398e-005
8.235545e-004,-3.604027e-005
8.645570e-004,-2.923352e-005
8.601813e-004,-3.717472e-005
8.264717e-004,-5.727082e-005
7.750969e-004,-8.498399e-005
7.120535e-004,-1.138316e-004
6.368551e-004,-1.316588e-004
5.475571e-004,-1.337657e-004
4.392974e-004,-1.235555e-004
3.104554e-004,-1.034594e-004
1.710792e-004,-7.509801e-005
4.126489e-005,-3.976777e-005
-6.586029e-005,2.207145e-006
-1.512687e-004,4.790957e-005
-2.310048e-004,8.518459e-005
-3.292164e-004,9.247753e-005
-4.578962e-004,6.362990e-005
-6.142893e-004,1.079661e-005
-7.674409e-004,-4.430560e-005
-8.726213e-004,-8.595638e-005
-9.032516e-004,-1.008664e-004
-8.479874e-004,-8.790116e-005
-7.061802e-004,-5.435365e-005
-4.951712e-004,-1.513384e-005
-2.648765e-004,1.744128e-005
-8.190475e-005,4.207521e-005
1.517237e-005,6.800567e-005
3.429608e-005,1.080358e-004
1.274139e-005,1.688103e-004
-7.354708e-006,2.488706e-004
-4.599598e-006,3.350894e-004
1.274139e-005,4.114221e-004
3.721326e-005,4.702519e-004
7.740545e-005,5.115786e-004
1.548727e-004,5.386435e-004
2.764217e-004,5.543638e-004
4.076946e-004,5.564707e-004
4.976409e-004,5.362125e-004
5.154681e-004,4.919686e-004
4.649037e-004,4.217943e-004
3.781987e-004,3.266619e-004
2.953833e-004,2.138645e-004
2.474120e-004,9.928427e-005
2.415776e-004,5.864920e-007
2.652392e-004,-7.104637e-005
2.984626e-004,-1.092938e-004
3.380065e-004,-1.135075e-004
3.955397e-004,-8.757703e-005
4.812723e-004,-3.749886e-005
5.838597e-004,2.765140e-005
6.749405e-004,9.814982e-005
7.308530e-004,1.634621e-004
7.457631e-004,2.112714e-004
7.316634e-004,2.289365e-004
7.021675e-004,2.120818e-004
6.691061e-004,1.628139e-004
6.462549e-004,8.356393e-005
6.457687e-004,-1.464765e-005
6.671614e-004,-1.165867e-004
6.895264e-004,-2.036158e-004
6.666752e-004,-2.624455e-004
5.457744e-004,-2.924276e-004
3.156415e-004,-3.006929e-004
3.024445e-005,-2.925896e-004
-2.308428e-004,-2.713591e-004
-4.154351e-004,-2.428356e-004
-5.259637e-004,-2.102605e-004
-6.016482e-004,-1.773612e-004
-6.750637e-004,-1.447861e-004
-7.530171e-004,-1.159385e-004
-8.233534e-004,-9.551824e-005
-8.737558e-004,-8.611845e-005
-9.167030e-004,-8.417366e-005
-9.815291e-004,-8.530812e-005
-1.090761e-003,-8.287714e-005
-1.242778e-003,-7.963584e-005
-1.424454e-003,-7.914964e-005
-1.612125e-003,-8.368747e-005
-1.768680e-003,-9.989400e-005
-1.848903e-003,-1.340898e-004
-1.819407e-003,-1.833576e-004
-1.674034e-003,-2.410529e-004
-1.437419e-003,-3.047445e-004
-1.142298e-003,-3.656811e-004
-8.210845e-004,-4.096008e-004
-4.961436e-004,-4.238625e-004
-1.831956e-004,-4.024699e-004
9.458438e-005,-3.481780e-004
3.201793e-004,-2.728177e-004
4.901859e-004,-1.942160e-004
6.115729e-004,-1.282554e-004
6.969814e-004,-7.461181e-005
7.545147e-004,-3.360929e-005
7.882242e-004,-5.896120e-006
7.911414e-004,7.717366e-006
7.524077e-004,1.031041e-005
6.802886e-004,1.014835e-005
6.010386e-004,1.987226e-005
5.530672e-004,5.601283e-005
5.637636e-004,1.266733e-004
6.271311e-004,2.276400e-004
7.122156e-004,3.425443e-004
7.851450e-004,4.566384e-004
8.274441e-004,5.618188e-004
8.418679e-004,6.525755e-004
8.395989e-004,7.172396e-004
8.326301e-004,7.405770e-004
8.327922e-004,7.094605e-004
8.470540e-004,6.211348e-004
8.713638e-004,4.879170e-004
8.924323e-004,3.334687e-004
8.974564e-004,1.872858e-004
8.771982e-004,7.238143e-005
8.336026e-004,9.106226e-007
7.778521e-004,-2.988179e-005
7.272876e-004,-3.604027e-005
6.932539e-004,-3.441962e-005
6.720233e-004,-3.085418e-005
6.387999e-004,-2.793700e-005
5.550120e-004,-2.048200e-005
3.824124e-004,-5.409925e-006
1.161391e-004,1.663096e-005
-2.122052e-004,4.013043e-005
-5.557836e-004,5.730935e-005
-8.630594e-004,6.395403e-005
-1.107454e-003,6.055066e-005
-1.299015e-003,5.034054e-005
-1.453625e-003,4.239934e-005
-1.555402e-003,4.110282e-005
-1.571123e-003,4.807163e-005
-1.480366e-003,5.325772e-005
-1.290426e-003,5.050261e-005
-1.035983e-003,4.077869e-005
-7.661444e-004,2.829966e-005
-5.298532e-004,1.371378e-005
-3.585502e-004,4.244267e-007
-2.580697e-004,-1.529591e-005
-2.086398e-004,-3.798505e-005
-1.831956e-004,-6.974985e-005
-1.627753e-004,-1.079973e-004
-1.383035e-004,-1.481895e-004
-1.068628e-004,-1.843300e-004
-6.958779e-005,-2.144742e-004
-3.215070e-005,-2.392702e-004
-1.034161e-006,-2.608248e-004
2.262737e-005,-2.846484e-004
3.656499e-005,-3.136581e-004
2.943412e-005,-3.460712e-004
-9.623623e-006,-3.757291e-004
-9.017008e-005,-3.927460e-004
-2.055606e-004,-3.896667e-004
-3.246786e-004,-3.622777e-004
-4.087905e-004,-3.156029e-004
-4.271038e-004,-2.551526e-004
-3.622777e-004,-1.807646e-004
-2.269532e-004,-8.854943e-005
-5.451571e-005,2.489629e-005
1.258630e-004,1.581140e-004
2.995970e-004,2.983005e-004
4.681450e-004,4.316803e-004
6.345861e-004,5.436675e-004
7.898449e-004,6.253485e-004
9.219282e-004,6.778577e-004
1.028081e-003,7.080018e-004
1.111221e-003,7.167534e-004
1.179288e-003,6.989262e-004
1.240387e-003,6.533858e-004
1.298407e-003,5.858045e-004
1.346216e-003,5.049338e-004
1.372795e-003,4.172565e-004
1.366960e-003,3.271481e-004
1.319313e-003,2.435224e-004
1.221912e-003,1.725378e-004
1.079132e-003,1.182459e-004
9.047493e-004,7.935023e-005
7.123776e-004,4.985435e-005
5.070407e-004,2.473422e-005
2.858215e-004,3.665733e-006
3.980630e-005,-1.237873e-005
-2.271153e-004,-2.048200e-005
-4.927402e-004,-1.788895e-005
-7.178489e-004,-1.205460e-005
-8.675972e-004,-1.108221e-005
-9.346923e-004,-2.031993e-005
-9.353405e-004,-3.847125e-005
-9.076273e-004,-6.278104e-005
-9.045481e-004,-9.227693e-005
-9.551125e-004,-1.235555e-004
-1.046031e-003,-1.549962e-004
-1.133060e-003,-1.831956e-004
-1.168714e-003,-2.037778e-004
-1.122526e-003,-2.139880e-004
-9.948185e-004,-2.104225e-004
-8.137916e-004,-1.943781e-004
-6.108859e-004,-1.665028e-004
-4.037664e-004,-1.258244e-004
-1.987538e-004,-8.222889e-005
4.244267e-007,-4.722277e-005
1.918236e-004,-2.777494e-005
3.731747e-004,-2.307504e-005
5.431813e-004,-2.583015e-005
6.919574e-004,-2.907146e-005
8.002171e-004,-2.647842e-005
8.540228e-004,-1.383732e-005
8.567779e-004,6.420843e-006
8.256614e-004,2.927205e-005
7.861174e-004,4.888196e-005
7.538663e-004,6.265751e-005
7.340944e-004,6.978838e-005
7.182119e-004,7.367795e-005
7.029778e-004,7.951231e-005
6.963331e-004,9.182927e-005
7.078398e-004,1.101426e-004
7.493285e-004,1.222975e-004
8.151271e-004,1.180839e-004
8.794671e-004,9.717742e-005
9.066940e-004,6.476436e-005
8.682846e-004,3.413401e-005
7.595387e-004,1.517237e-005
5.890458e-004,1.079661e-005
3.645853e-004,1.582063e-005
9.782569e-005,2.262737e-005
-1.862748e-004,2.246531e-005
-4.426621e-004,1.630683e-005
-6.197994e-004,7.231170e-006
-6.958080e-004,-2.978945e-006
-6.912702e-004,-1.659243e-005
-6.471885e-004,-3.069211e-005
-6.018102e-004,-4.284701e-005
-5.796073e-004,-5.273300e-005
-5.802555e-004,-5.629843e-005
-5.847933e-004,-5.224680e-005
-5.732867e-004,-4.025397e-005
-5.360117e-004,-2.372330e-005
-4.873921e-004,-5.247859e-006
-4.575721e-004,1.144487e-005
-4.786406e-004,2.359977e-005
-5.721523e-004,2.975825e-005
-7.486413e-004,3.380988e-005
-9.966012e-004,4.029249e-005
-1.272922e-003,5.309565e-005
-1.513752e-003,6.654707e-005
-1.658476e-003,7.335382e-005
-1.663824e-003,7.270556e-005
-1.509862e-003,7.043664e-005
-1.215227e-003,7.513654e-005
-8.327533e-004,8.875003e-005
-4.301830e-004,1.088461e-004
-6.667061e-005,1.265113e-004
2.328261e-004,1.344524e-004
4.760862e-004,1.339663e-004
6.778577e-004,1.320215e-004
8.378162e-004,1.360731e-004
9.425106e-004,1.446626e-004
9.846475e-004,1.551968e-004
9.728168e-004,1.637863e-004
9.266281e-004,1.667035e-004
8.686087e-004,1.629759e-004
8.144788e-004,1.532520e-004
7.712073e-004,1.386661e-004
7.373357e-004,1.218114e-004
7.165913e-004,1.107909e-004
7.157809e-004,1.039842e-004
7.306910e-004,9.798775e-005
7.499768e-004,8.923622e-005
7.613213e-004,7.513654e-005
7.558112e-004,5.358185e-005
7.344185e-004,2.635488e-005
7.016812e-004,-3.627206e-006
6.613270e-004,-3.101624e-005
6.089798e-004,-4.900549e-005
5.448019e-004,-5.192267e-005
4.812723e-004,-3.814712e-005
4.256839e-004,-1.027188e-005
3.809539e-004,2.441009e-005
3.428685e-004,5.763348e-005
3.091589e-004,8.405013e-005
2.765838e-004,1.013911e-004
2.477361e-004,1.099806e-004
2.302331e-004,1.103047e-004
2.242366e-004,9.896014e-005
2.111093e-004,7.659513e-005
1.629759e-004,5.034054e-005
6.800567e-005,3.105477e-005
-6.845333e-005,1.744128e-005
-2.274394e-004,6.744974e-006
-3.856151e-004,-1.358292e-006
-5.168880e-004,-3.858999e-007
-6.037550e-004,1.274139e-005
-6.415162e-004,2.975825e-005
-6.340612e-004,3.980630e-005
-5.948414e-004,3.769945e-005
-5.450873e-004,2.992031e-005
-5.058675e-004,2.910999e-005
-4.833405e-004,4.661304e-005
-4.715097e-004,8.129502e-005
-4.595169e-004,1.237561e-004
-4.403932e-004,1.621656e-004
-4.143007e-004,1.851789e-004
-3.849668e-004,1.827479e-004
-3.532020e-004,1.530900e-004
-3.250027e-004,9.847395e-005
-3.123616e-004,2.797553e-005
-3.321336e-004,-4.381940e-005
-3.875599e-004,-1.102662e-004
-4.682684e-004,-1.705545e-004
-5.637249e-004,-2.248463e-004
-6.638812e-004,-2.684419e-004
-7.638755e-004,-2.955068e-004
-8.682455e-004,-3.027998e-004
-9.573814e-004,-2.927517e-004
-9.799085e-004,-2.699005e-004
-8.761867e-004,-2.381357e-004
-6.181788e-004,-2.039399e-004
-2.240360e-004,-1.729855e-004
2.441707e-004,-1.462447e-004
6.966572e-004,-1.196660e-004
1.059846e-003,-8.725291e-005
1.305862e-003,-4.365734e-005
1.456745e-003,9.338019e-006
1.556091e-003,6.411610e-005
1.630803e-003,1.094944e-004
1.690281e-003,1.373696e-004
1.709729e-003,1.406109e-004
1.629345e-003,1.210010e-004
1.403749e-003,8.307774e-005
1.068273e-003,3.397195e-005
7.243704e-004,-2.048200e-005
4.765724e-004,-7.623246e-005
3.788470e-004,-1.269589e-004
4.078567e-004,-1.632615e-004
4.802999e-004,-1.726613e-004
5.028270e-004,-1.498101e-004
4.081808e-004,-1.008664e-004
1.799928e-004,-3.976777e-005
-1.577513e-004,2.327564e-005
-5.471942e-004,8.421220e-005
-9.157307e-004,1.423936e-004
-1.188162e-003,1.926339e-004
-1.317815e-003,2.299089e-004
-1.309549e-003,2.568118e-004
-1.215875e-003,2.757734e-004
-1.109561e-003,2.910076e-004
-1.041007e-003,3.033245e-004
-1.013942e-003,3.117519e-004
-1.017346e-003,3.099692e-004
-1.049272e-003,2.889007e-004
-1.123498e-003,2.509774e-004
-1.248289e-003,2.047888e-004
-1.398361e-003,1.584381e-004
-1.525744e-003,1.216493e-004
-1.580685e-003,9.863601e-005
-1.535144e-003,8.696730e-005
-1.409382e-003,8.080882e-005
-1.251854e-003,8.032263e-005
-1.111181e-003,8.972242e-005
-9.974116e-004,1.112771e-004
-8.791039e-004,1.430419e-004
-7.170386e-004,1.752929e-004
-4.933885e-004,2.018716e-004
-2.154466e-004,2.205091e-004
9.085687e-005,2.308813e-004
3.913260e-004,2.294227e-004
6.666752e-004,2.086784e-004
9.091251e-004,1.678379e-004
1.108304e-003,1.174356e-004
1.248328e-003,7.059870e-005
1.322230e-003,4.029249e-005
1.342650e-003,3.218923e-005
1.330495e-003,4.142695e-005
1.308617e-003,5.925414e-005
1.286090e-003,8.259154e-005
1.258862e-003,1.104668e-004
1.219481e-003,1.359110e-004
1.164864e-003,1.490383e-004
1.103604e-003,1.399627e-004
1.049312e-003,1.078737e-004
1.013819e-003,5.115087e-005
9.940474e-004,-3.328516e-005
9.817304e-004,-1.384655e-004
9.715203e-004,-2.438080e-004
9.600137e-004,-3.275957e-004
9.429968e-004,-3.708672e-004
9.170663e-004,-3.679500e-004
8.760637e-004,-3.292164e-004
8.139926e-004,-2.700626e-004
7.331220e-004,-1.964849e-004
6.498203e-004,-1.117248e-004
5.901803e-004,-1.950961e-005
5.699221e-004,7.367795e-005
5.937457e-004,1.607070e-004
6.506307e-004,2.388225e-004
7.237222e-004,3.077003e-004
7.979481e-004,3.668542e-004
8.559676e-004,4.161220e-004
8.942151e-004,4.525867e-004
9.130146e-004,4.679830e-004
9.156077e-004,4.499937e-004
9.034527e-004,3.965121e-004
8.807636e-004,3.166139e-004
8.571020e-004,2.229401e-004
8.374921e-004,1.385041e-004
8.170719e-004,8.810177e-005
7.742866e-004,8.194328e-005
6.762370e-004,1.101426e-004
4.809482e-004,1.517934e-004
1.660552e-004,1.827479e-004
-2.613110e-004,1.863134e-004
-7.672788e-004,1.556830e-004
-1.307767e-003,9.312579e-005
-1.828969e-003,1.079661e-005
-2.275297e-003,-7.963584e-005
-2.584518e-003,-1.600202e-004
-2.713198e-003,-2.203085e-004
-2.651451e-003,-2.569353e-004
-2.426666e-003,-2.690902e-004
-2.099294e-003,-2.582318e-004
-1.731568e-003,-2.345703e-004
-1.368217e-003,-2.123673e-004
-1.030797e-003,-2.042640e-004
-7.170386e-004,-2.131776e-004
-4.121938e-004,-2.335979e-004
-1.018388e-004,-2.562870e-004
2.015475e-004,-2.773555e-004
4.551798e-004,-2.945344e-004
6.026593e-004,-3.096065e-004
6.178935e-004,-3.230579e-004
5.247058e-004,-3.361852e-004
3.859779e-004,-3.480160e-004
2.751252e-004,-3.579019e-004
2.428742e-004,-3.626019e-004
2.927903e-004,-3.562813e-004
3.863020e-004,-3.295405e-004
4.610142e-004,-2.765452e-004
4.663623e-004,-1.995642e-004
3.906778e-004,-1.101041e-004
2.658874e-004,-2.242678e-005
1.394765e-004,5.568870e-005
4.953022e-005,1.192183e-004
1.338965e-005,1.673517e-004
2.748933e-005,1.991165e-004
7.416414e-005,2.146748e-004
1.331559e-004,2.175920e-004
1.830720e-004,2.172678e-004
2.107852e-004,2.146748e-004
2.148369e-004,2.026820e-004
1.979821e-004,1.773998e-004
1.633001e-004,1.423936e-004
1.107909e-004,1.078737e-004
3.867184e-005,8.729143e-005
-3.976777e-005,8.583285e-005
-9.243900e-005,9.912220e-005
-8.984595e-005,1.112771e-004
-1.934754e-005,1.085220e-004
1.038221e-004,8.534666e-005
2.410914e-004,4.693717e-005
3.522683e-004,3.341602e-006
4.175806e-004,-3.863331e-005
4.368664e-004,-7.704279e-005
4.213081e-004,-1.094559e-004
3.856537e-004,-1.316588e-004
3.381686e-004,-1.415448e-004
2.858215e-004,-1.352242e-004
2.397949e-004,-1.117248e-004
2.099749e-004,-6.812920e-005
2.026820e-004,-5.896120e-006
2.120818e-004,6.687120e-005
2.247228e-004,1.372075e-004
2.242366e-004,1.949028e-004
2.060853e-004,2.420638e-004
1.720516e-004,2.884145e-004
1.219734e-004,3.370341e-004
5.309565e-005,3.788470e-004
-3.830918e-005,4.051016e-004
-1.509446e-004,4.072085e-004
-2.750866e-004,3.854917e-004
-3.946908e-004,3.525924e-004
-5.035987e-004,3.227724e-004
-6.047274e-004,3.041349e-004
-6.927288e-004,2.961937e-004
-7.518826e-004,2.905214e-004
-7.732753e-004,2.772320e-004
-7.697098e-004,2.485465e-004
-7.554481e-004,2.088404e-004
-7.256281e-004,1.602208e-004
-6.650157e-004,1.103047e-004
-5.619422e-004,6.557468e-005
-4.168937e-004,3.121684e-005
-2.420253e-004,9.824214e-006
-5.581224e-005,-8.720958e-007
1.192183e-004,-4.923729e-006
2.697770e-004,-7.516774e-006
3.825745e-004,-1.221667e-005
4.363802e-004,-2.080613e-005
4.115842e-004,-2.890940e-005
2.880904e-004,-3.490581e-005
4.855782e-005,-3.944364e-005
-2.859450e-004,-3.733679e-005
-6.351956e-004,-2.826113e-005
-8.902864e-004,-2.080613e-005
-9.786120e-004,-2.258885e-005
-9.084377e-004,-3.296103e-005
-7.421587e-004,-4.268495e-005
-5.483286e-004,-4.203669e-005
-3.603329e-004,-2.955766e-005
-1.959987e-004,-1.286493e-005
-7.218083e-005,5.772582e-006
8.689757e-006,2.473422e-005
5.050261e-005,4.175108e-005
5.682316e-005,4.953022e-005
3.380988e-005,4.385793e-005
-1.173047e-005,2.748933e-005
-7.558420e-005,1.403791e-005
-1.643960e-004,9.824214e-006
-2.895104e-004,7.555300e-006
-4.480102e-004,-3.303075e-006
-6.136409e-004,-2.680255e-005
-7.376209e-004,-5.905355e-005
-7.768407e-004,-9.405964e-005
-7.055320e-004,-1.214487e-004
-5.363358e-004,-1.298761e-004
-3.154408e-004,-1.102662e-004
-9.146661e-005,-6.229485e-005
1.072255e-004,4.244267e-007
2.675081e-004,5.844381e-005
3.871123e-004,9.669123e-005
4.705760e-004,1.130598e-004
5.289195e-004,1.112771e-004
5.775391e-004,9.118101e-005
6.300483e-004,5.439218e-005
6.956849e-004,4.151929e-006
7.759072e-004,-5.046408e-005
8.587227e-004,-9.373551e-005
9.264661e-004,-1.152902e-004
9.677928e-004,-1.148040e-004
9.745996e-004,-1.044318e-004
9.455898e-004,-9.551824e-005
8.846531e-004,-9.697682e-005
7.997308e-004,-1.024870e-004
7.008709e-004,-1.011905e-004
6.097901e-004,-8.401160e-005
5.543638e-004,-4.787104e-005
5.564707e-004,-6.176923e-008
6.191900e-004,4.418206e-005
7.159431e-004,7.221937e-005
8.136685e-004,7.902610e-005
8.807636e-004,6.865393e-005
8.968081e-004,5.082674e-005
8.559676e-004,4.013043e-005
7.726659e-004,4.677511e-005
6.759128e-004,7.011251e-005
5.901803e-004,1.038221e-004
5.298919e-004,1.398006e-004
4.909962e-004,1.765894e-004
4.587452e-004,2.175920e-004
4.166082e-004,2.665357e-004
3.629646e-004,3.222862e-004
3.112657e-004,3.746333e-004
2.767458e-004,4.081808e-004
2.707494e-004,4.141773e-004
2.923041e-004,3.922984e-004
3.303894e-004,3.480546e-004
3.807918e-004,2.916558e-004
4.360561e-004,2.354192e-004
4.824068e-004,1.882581e-004
5.033132e-004,1.522796e-004
4.785172e-004,1.237561e-004
3.910019e-004,9.879807e-005
2.404432e-004,7.756751e-005
5.341978e-005,5.779555e-005
-1.305243e-004,3.672705e-005
-2.891863e-004,1.063454e-005
-4.267797e-004,-1.886135e-005
-5.575664e-004,-4.576419e-005
-6.907840e-004,-6.472583e-005
-8.249740e-004,-7.509801e-005
-9.342061e-004,-7.299116e-005
-9.820153e-004,-6.099833e-005
-9.387439e-004,-4.592625e-005
-7.927230e-004,-3.198863e-005
-5.669662e-004,-2.129233e-005
-3.049066e-004,-1.092015e-005
-5.759496e-005,1.072688e-006
1.351007e-004,1.257933e-005
2.487085e-004,2.052053e-005
2.736665e-004,2.424803e-005
2.208333e-004,2.700314e-005
1.304008e-004,2.894792e-005
5.552663e-005,2.651694e-005
3.478227e-005,1.808955e-005
6.995045e-005,3.179537e-006
1.398006e-004,-1.270286e-005
2.180782e-004,-2.404744e-005
2.793389e-004,-2.566809e-005
2.986246e-004,-7.192643e-006
2.636185e-004,2.992031e-005
1.762653e-004,7.173317e-005
6.119892e-005,1.022014e-004
-4.025397e-005,1.156529e-004
-9.422171e-005,1.166253e-004
-9.892161e-005,1.154908e-004
-7.979790e-005,1.213252e-004
-6.440169e-005,1.365593e-004
-7.331529e-005,1.611932e-004
-1.114006e-004,1.902029e-004
-1.723372e-004,2.167816e-004
-2.420253e-004,2.325020e-004
-3.151167e-004,2.271538e-004
-3.956631e-004,1.939304e-004
-4.924161e-004,1.342904e-004
-6.178546e-004,5.747142e-005
-7.771648e-004,-2.809907e-005
-9.572193e-004,-1.204763e-004
-1.126254e-003,-2.165810e-004
-1.241968e-003,-3.045825e-004
-1.267574e-003,-3.710292e-004
-1.192376e-003,-4.091146e-004
-1.042952e-003,-4.246728e-004
-8.753764e-004,-4.269418e-004
-7.450759e-004,-4.271038e-004
-6.761981e-004,-4.343967e-004
-6.523746e-004,-4.483344e-004
-6.314681e-004,-4.561135e-004
-5.773383e-004,-4.444448e-004
-4.883645e-004,-4.008492e-004
-3.880461e-004,-3.248406e-004
-3.060411e-004,-2.297083e-004
-2.566112e-004,-1.289037e-004
-2.331117e-004,-3.215070e-005
-2.026434e-004,5.779555e-005
-1.292278e-004,1.457970e-004
3.179537e-006,2.329882e-004
1.876099e-004,3.128864e-004
4.025085e-004,3.770643e-004
6.169211e-004,4.157979e-004
8.026481e-004,4.251977e-004
9.468863e-004,4.008879e-004
1.052229e-003,3.446512e-004
1.121269e-003,2.707494e-004
1.158706e-003,1.989545e-004
1.170699e-003,1.529279e-004
1.173616e-003,1.449867e-004
1.191767e-003,1.621656e-004
1.247518e-003,1.825858e-004
1.346702e-003,1.866375e-004
1.479596e-003,1.678379e-004
1.616055e-003,1.305629e-004
1.706002e-003,8.405013e-005
1.690767e-003,3.688912e-005
1.537940e-003,-3.303075e-006
1.262590e-003,-3.247483e-005
9.122043e-004,-5.030201e-005
5.431813e-004,-5.678463e-005
2.023578e-004,-4.706071e-005
-9.243900e-005,-1.853721e-005
-3.541744e-004,2.424803e-005
-6.128306e-004,7.205730e-005
-8.910967e-004,1.119254e-004
-1.191566e-003,1.336421e-004
-1.494304e-003,1.313732e-004
-1.767870e-003,1.101426e-004
-1.968183e-003,8.453633e-005
-2.050188e-003,7.059870e-005
-1.994438e-003,7.594687e-005
-1.820055e-003,1.009049e-004
-1.575823e-003,1.407730e-004
-1.313277e-003,1.848548e-004
-1.058024e-003,2.201850e-004
-8.186535e-004,2.318537e-004
-5.974344e-004,2.130541e-004
-4.089525e-004,1.660552e-004
-2.687660e-004,1.080358e-004
-1.771991e-004,5.747142e-005
-1.245279e-004,2.214118e-005
-9.373551e-005,-8.720958e-007
-6.748093e-005,-2.275091e-005
-2.615428e-005,-4.835723e-005
3.915804e-005,-7.363942e-005
1.188942e-004,-9.260106e-005
1.950649e-004,-1.041077e-004
2.524360e-004,-1.120489e-004
2.906834e-004,-1.191798e-004
3.237448e-004,-1.250141e-004
3.697713e-004,-1.250141e-004
4.488592e-004,-1.138316e-004
5.629533e-004,-9.632856e-005
6.982779e-004,-7.963584e-005
8.301992e-004,-6.942573e-005
9.360280e-004,-6.488790e-005
1.005230e-003,-6.342930e-005
1.037805e-003,-5.905355e-005
1.033916e-003,-4.252288e-005
9.963163e-004,-5.247859e-006
9.415381e-004,5.471631e-005
8.874083e-004,1.266733e-004
8.465678e-004,1.987924e-004
8.217717e-004,2.623220e-004
8.105892e-004,3.115899e-004
8.115617e-004,3.446512e-004
8.209614e-004,3.666921e-004
8.216097e-004,3.817642e-004
7.877380e-004,3.926225e-004
7.028157e-004,3.924605e-004
5.668428e-004,3.746333e-004
3.958639e-004,3.391410e-004
2.216436e-004,2.923041e-004
6.411610e-005,2.462775e-004
-7.315322e-005,2.077060e-004
-2.003745e-004,1.788584e-004
-3.180339e-004,1.563313e-004
-4.089525e-004,1.381799e-004
-4.478482e-004,1.255388e-004
-4.319658e-004,1.140322e-004
-3.885323e-004,9.685329e-005
-3.449367e-004,7.173317e-005
-3.058790e-004,4.158902e-005
-2.600145e-004,1.063454e-005
-2.029675e-004,-1.448558e-005
-1.499722e-004,-3.733679e-005
-1.148040e-004,-5.872941e-005
-8.822530e-005,-8.109442e-005
-3.766092e-005,-1.042698e-004
5.568870e-005,-1.303623e-004
1.777239e-004,-1.635857e-004
2.957075e-004,-2.094501e-004
3.793332e-004,-2.746004e-004
4.109359e-004,-3.541744e-004
3.914881e-004,-4.360174e-004
3.461098e-004,-5.078123e-004
3.096451e-004,-5.601594e-004
3.081865e-004,-5.904656e-004
3.431926e-004,-6.003516e-004
3.958639e-004,-5.864140e-004
4.433490e-004,-5.434667e-004
4.704139e-004,-4.650271e-004
4.676588e-004,-3.493125e-004
4.311941e-004,-1.940539e-004
3.726885e-004,-5.085794e-006
3.077003e-004,2.021958e-004
2.363915e-004,4.004017e-004
1.483901e-004,5.587395e-004
3.413401e-005,6.537099e-004
-1.060525e-004,6.802886e-004
-2.541802e-004,6.439860e-004
-3.877220e-004,5.538776e-004
-4.990608e-004,4.247115e-004
-5.958137e-004,2.757734e-004
-6.919185e-004,1.316973e-004
-7.954782e-004,1.468617e-005
-8.945001e-004,-6.586029e-005
-9.585159e-004,-1.096179e-004
-9.607848e-004,-1.256624e-004
-8.914208e-004,-1.229073e-004
-7.629031e-004,-1.135075e-004
-6.026205e-004,-1.034594e-004
-4.441207e-004,-9.065627e-005
-3.092824e-004,-7.169464e-005
-2.078295e-004,-4.965375e-005
-1.339277e-004,-3.134038e-005
-8.660465e-005,-2.258885e-005
-7.007398e-005,-2.372330e-005
-8.725291e-005,-3.020592e-005
-1.276072e-004,-3.360929e-005
-1.712027e-004,-3.312309e-005
-1.984297e-004,-3.587821e-005
-2.063709e-004,-5.419158e-005
-2.026434e-004,-9.000801e-005
-2.021572e-004,-1.261486e-004
-2.241981e-004,-1.407345e-004
-2.861070e-004,-1.219349e-004
-3.810773e-004,-7.056018e-005
-4.852852e-004,2.531276e-006
-5.705316e-004,8.518459e-005
-6.168823e-004,1.714033e-004
-6.283889e-004,2.616738e-004
-6.384369e-004,3.581026e-004
-6.758740e-004,4.577728e-004
-7.385933e-004,5.530672e-004
-7.962885e-004,6.276174e-004
-8.066607e-004,6.644062e-004
-7.407001e-004,6.514410e-004
-6.082928e-004,5.879113e-004
-4.473620e-004,4.861343e-004
-2.984240e-004,3.652335e-004
-1.731475e-004,2.514636e-004
-6.229485e-005,1.611932e-004
4.580272e-005,9.458438e-005
1.628139e-004,4.871989e-005
2.903593e-004,1.565857e-005
4.273045e-004,-1.043395e-005
5.684635e-004,-3.409548e-005
7.020054e-004,-5.354332e-005
8.233925e-004,-6.456376e-005
9.282487e-004,-6.423963e-005
1.009120e-003,-5.419158e-005
1.051581e-003,-3.749886e-005
1.042343e-003,-2.129233e-005
9.830269e-004,-1.464765e-005
8.909737e-004,-1.707863e-005
7.833623e-004,-2.194059e-005
6.832058e-004,-2.339917e-005
6.224313e-004,-2.015787e-005
6.399344e-004,-1.821308e-005
7.713694e-004,-2.404744e-005
1.024678e-003,-3.798505e-005
1.350754e-003,-5.483985e-005
1.658679e-003,-6.294311e-005
1.855588e-003,-5.224680e-005
1.876657e-003,-2.437157e-005
1.716212e-003,7.555300e-006
1.416876e-003,2.927205e-005
1.056605e-003,3.397195e-005
7.311772e-004,2.441009e-005
5.162784e-004,8.527692e-006
4.183909e-004,-8.651231e-006
3.692851e-004,-2.712668e-005
2.579462e-004,-4.770897e-005
-5.247859e-006,-6.829127e-005
-4.045767e-004,-9.308726e-005
-8.107123e-004,-1.308485e-004
-1.083306e-003,-1.831956e-004
-1.161746e-003,-2.446183e-004
-1.069693e-003,-3.039342e-004
-8.880175e-004,-3.468815e-004
-7.000217e-004,-3.624398e-004
-5.505976e-004,-3.399127e-004
-4.434724e-004,-2.734659e-004
-3.497987e-004,-1.692580e-004
-2.384598e-004,-4.868136e-005
-1.054042e-004,6.557468e-005
2.667901e-005,1.517934e-004
1.247285e-004,2.039785e-004
1.652449e-004,2.248849e-004
1.417454e-004,2.159713e-004
6.930219e-005,1.840444e-004
-2.550602e-005,1.383420e-004
-1.188556e-004,8.712937e-005
-1.951884e-004,3.786152e-005
-2.462390e-004,-5.896120e-006
-2.666592e-004,-4.851930e-005
-2.549905e-004,-9.195280e-005
-2.327876e-004,-1.324691e-004
-2.386219e-004,-1.624512e-004
-3.117133e-004,-1.778474e-004
-4.632444e-004,-1.835197e-004
-6.685811e-004,-1.895161e-004
-8.742419e-004,-2.028055e-004
-1.008594e-003,-2.125294e-004
-1.014266e-003,-2.031296e-004
-8.799142e-004,-1.648822e-004
-6.470264e-004,-1.008664e-004
-3.951770e-004,-2.210265e-005
-1.972952e-004,6.119892e-005
-7.995997e-005,1.425557e-004
-2.793700e-005,2.158092e-004
-5.409925e-006,2.713976e-004
1.501031e-005,2.986246e-004
4.580272e-005,2.913317e-004
8.340186e-005,2.535705e-004
1.166253e-004,1.947408e-004
1.435281e-004,1.273216e-004
1.688103e-004,5.974033e-005
2.015475e-004,4.962256e-006
2.475740e-004,-2.210265e-005
3.000832e-004,-1.156841e-005
3.391410e-004,3.186510e-005
3.474063e-004,8.826383e-005
3.224483e-004,1.430419e-004
2.832284e-004,1.855030e-004
2.642668e-004,2.119197e-004
2.953833e-004,2.271538e-004
3.743092e-004,2.397949e-004
4.759242e-004,2.509774e-004
5.671670e-004,2.558394e-004
6.272933e-004,2.500050e-004
6.431757e-004,2.292607e-004
6.190279e-004,1.932822e-004
5.640878e-004,1.504969e-004
4.922927e-004,1.107909e-004
4.070464e-004,7.416414e-005
3.091589e-004,3.591673e-005
1.992786e-004,-2.654814e-006
8.323980e-005,-3.636440e-005
-3.053005e-005,-5.565017e-005
-1.253383e-004,-5.095028e-005
-1.786577e-004,-1.772689e-005
-1.857886e-004,3.624086e-005
-1.716889e-004,9.458438e-005
-1.741199e-004,1.446626e-004
-2.065330e-004,1.772377e-004
-2.483458e-004,1.897167e-004
-2.736280e-004,1.855030e-004
-2.707108e-004,1.712413e-004
-2.387839e-004,1.514693e-004
-1.844921e-004,1.344524e-004
-1.285796e-004,1.253768e-004
-9.924574e-005,1.234320e-004
-1.151281e-004,1.237561e-004
-1.755785e-004,1.261871e-004
-2.606628e-004,1.308870e-004
-3.459091e-004,1.352628e-004
-4.089525e-004,1.435281e-004
-4.399070e-004,1.573037e-004
-4.402311e-004,1.725378e-004
-4.175420e-004,1.864754e-004
-3.815635e-004,2.005751e-004
-3.429920e-004,2.132162e-004
-3.105789e-004,2.224539e-004
-2.862691e-004,2.237504e-004
-2.643903e-004,2.101370e-004
-2.426735e-004,1.770756e-004
-2.186879e-004,1.276457e-004
-1.857886e-004,7.351588e-005
-1.381414e-004,2.910999e-005
-7.007398e-005,-6.176923e-008
1.646889e-005,-2.080613e-005
1.133840e-004,-4.057810e-005
2.072198e-004,-6.504996e-005
2.866318e-004,-9.260106e-005
3.384927e-004,-1.212866e-004
3.498373e-004,-1.462447e-004
3.136967e-004,-1.624512e-004
2.393087e-004,-1.679614e-004
1.500107e-004,-1.661787e-004
7.529860e-005,-1.650442e-004
3.753739e-005,-1.755785e-004
4.385793e-005,-2.016710e-004
8.502253e-005,-2.350565e-004
1.451487e-004,-2.622834e-004
2.034923e-004,-2.729797e-004
2.488706e-004,-2.583938e-004
2.816078e-004,-2.159328e-004
3.091589e-004,-1.506204e-004
3.360618e-004,-6.926366e-005
3.668542e-004,1.582063e-005
4.049395e-004,9.490851e-005
4.519385e-004,1.611932e-004
4.979650e-004,2.093266e-004
5.281092e-004,2.389846e-004
5.366987e-004,2.548670e-004
5.258403e-004,2.629703e-004
5.070407e-004,2.607013e-004
4.908342e-004,2.362295e-004
4.825688e-004,1.817755e-004
4.744656e-004,9.701536e-005
4.357320e-004,-8.165034e-006
3.190449e-004,-1.198280e-004
9.928427e-005,-2.206326e-004
-1.927574e-004,-2.961551e-004
-4.810716e-004,-3.381300e-004
-6.987252e-004,-3.407230e-004
-8.142778e-004,-3.087962e-004
-8.246499e-004,-2.509389e-004
-7.520447e-004,-1.767129e-004
-6.373025e-004,-1.000561e-004
-5.270981e-004,-2.307504e-005
-4.554653e-004,6.265751e-005
-4.326140e-004,1.637863e-004
-4.423380e-004,2.697770e-004
-4.559515e-004,3.566440e-004
-4.520619e-004,4.021844e-004
-4.282383e-004,3.984569e-004
-3.938804e-004,3.561578e-004
-3.575778e-004,2.932765e-004
-3.212752e-004,2.316917e-004
-2.747625e-004,1.824238e-004
-2.066950e-004,1.464453e-004
-1.105903e-004,1.161391e-004
1.533444e-005,8.550872e-005
1.616794e-004,5.536457e-005
3.101313e-004,3.040651e-005
4.491834e-004,1.598270e-005
5.759185e-004,1.095867e-005
6.882299e-004,1.031041e-005
7.796347e-004,7.555300e-006
8.475402e-004,-5.247859e-006
8.995632e-004,-2.712668e-005
9.400796e-004,-5.046408e-005
9.590412e-004,-6.974985e-005
9.285729e-004,-8.482193e-005
8.326301e-004,-9.568031e-005
6.840162e-004,-1.020008e-004
5.162784e-004,-1.052422e-004
3.650714e-004,-1.041077e-004
2.525981e-004,-9.794922e-005
1.833962e-004,-8.547019e-005
1.526038e-004,-6.553616e-005
1.459591e-004,-4.187462e-005
1.496866e-004,-2.339917e-005
1.521176e-004,-1.335112e-005
1.495245e-004,-6.706447e-006
1.469315e-004,2.855406e-006
1.589243e-004,1.452411e-005
2.004130e-004,2.181705e-005
2.770700e-004,2.068259e-005
3.751195e-004,1.225519e-005
4.644175e-004,3.179537e-006
5.216266e-004,2.855406e-006
5.357263e-004,1.808955e-005
5.034753e-004,4.499239e-005
4.333010e-004,7.594687e-005
3.380065e-004,1.030118e-004
2.250470e-004,1.208390e-004
9.993253e-005,1.295905e-004
-1.821308e-005,1.331559e-004
-1.042698e-004,1.333180e-004
-1.387897e-004,1.380179e-004
-1.219349e-004,1.589243e-004
-8.320127e-005,1.991165e-004
-6.440169e-005,2.488706e-004
-9.227693e-005,2.877662e-004
-1.697441e-004,2.997591e-004
-2.823795e-004,2.756114e-004
-4.010113e-004,2.185644e-004
-4.890127e-004,1.457970e-004
-5.220741e-004,8.307774e-005
-4.992229e-004,4.920609e-005
-4.423380e-004,5.034054e-005
-3.867496e-004,7.351588e-005
-3.635742e-004,1.005808e-004
-3.862634e-004,1.188942e-004
-4.392587e-004,1.221355e-004
-4.909575e-004,1.081979e-004
-5.105674e-004,7.756751e-005
-4.852852e-004,3.056858e-005
-4.175420e-004,-2.777494e-005
-3.203028e-004,-8.773910e-005
-2.123673e-004,-1.402483e-004
-1.049180e-004,-1.754164e-004
-3.858999e-007,-1.848162e-004
9.847395e-005,-1.588858e-004
1.957131e-004,-9.989400e-005
3.004074e-004,-2.129233e-005
4.149876e-004,6.022653e-005
5.357263e-004,1.257009e-004
6.443101e-004,1.581140e-004
7.203188e-004,1.487142e-004
7.404149e-004,1.023635e-004
6.945504e-004,3.850977e-005
5.943940e-004,-2.453363e-005
4.679830e-004,-7.153257e-005
3.337928e-004,-9.405964e-005
1.824238e-004,-9.681476e-005
-1.237873e-005,-8.952182e-005
-2.583938e-004,-7.914964e-005
-5.366600e-004,-7.396355e-005
-8.207604e-004,-7.688072e-005
-1.091734e-003,-8.368747e-005
-1.331428e-003,-8.887356e-005
-1.511483e-003,-8.757703e-005
-1.594136e-003,-7.947377e-005
-1.550865e-003,-6.278104e-005
-1.387016e-003,-3.782299e-005
-1.147484e-003,-6.868512e-006
-9.034136e-004,2.311357e-005
-7.144455e-004,4.839576e-005
-6.031067e-004,6.800567e-005
-5.653455e-004,8.048469e-005
-5.726385e-004,9.069480e-005
-5.870622e-004,1.026876e-004
-5.757177e-004,1.135460e-004
-5.202913e-004,1.171115e-004
-4.157593e-004,1.124116e-004
-2.692523e-004,1.000946e-004
-9.730095e-005,7.578480e-005
7.546067e-005,3.899597e-005
2.256952e-004,-2.492749e-006
3.357376e-004,-3.134038e-005
3.960259e-004,-2.761287e-005
4.140152e-004,2.149292e-005
4.120704e-004,1.111150e-004
4.148255e-004,2.227780e-004
4.375147e-004,3.287688e-004
4.854860e-004,4.005638e-004
5.554982e-004,4.214702e-004
6.378275e-004,3.914881e-004
7.165913e-004,3.232586e-004
7.718556e-004,2.388225e-004
7.879001e-004,1.616794e-004
7.640765e-004,1.015532e-004
7.154568e-004,5.358185e-005
6.631097e-004,1.079661e-005
6.190279e-004,-2.664048e-005
5.828873e-004,-5.354332e-005
5.470709e-004,-6.974985e-005
5.089855e-004,-8.255302e-005
4.718725e-004,-9.600443e-005
4.470765e-004,-1.042698e-004
4.404318e-004,-1.008664e-004
4.537212e-004,-9.049421e-005
4.833791e-004,-8.190475e-005
5.190336e-004,-8.271508e-005
5.506363e-004,-9.600443e-005
5.744599e-004,-1.175591e-004
5.909906e-004,-1.379793e-004
6.028214e-004,-1.483515e-004
6.101142e-004,-1.405724e-004
6.021731e-004,-1.076731e-004
5.681394e-004,-5.159854e-005
5.016925e-004,1.744128e-005
4.169323e-004,8.810177e-005
3.321721e-004,1.581140e-004
2.563256e-004,2.307192e-004
1.871237e-004,3.109416e-004
1.166253e-004,3.992672e-004
4.061663e-005,4.793275e-004
-3.847125e-005,5.268127e-004
-1.154523e-004,5.268127e-004
-1.783336e-004,4.820826e-004
-2.251705e-004,4.133669e-004
-2.684419e-004,3.461098e-004
-3.186821e-004,2.882525e-004
-3.648708e-004,2.365536e-004
-3.854531e-004,1.879340e-004
-3.679500e-004,1.410971e-004
-3.165753e-004,9.247753e-005
-2.472113e-004,3.656499e-005
-1.802784e-004,-2.923352e-005
-1.392759e-004,-9.811128e-005
-1.418689e-004,-1.626133e-004
-1.810887e-004,-2.162569e-004
-2.365150e-004,-2.574215e-004
-2.921034e-004,-2.841623e-004
-3.446126e-004,-2.932379e-004
-4.011734e-004,-2.867553e-004
-4.595169e-004,-2.710350e-004
-5.136466e-004,-2.465631e-004
-5.525423e-004,-2.141500e-004
-5.544871e-004,-1.802784e-004
-4.997090e-004,-1.486757e-004
-3.895047e-004,-1.180453e-004
-2.374874e-004,-8.644258e-005
-5.354332e-005,-5.953974e-005
1.564933e-004,-4.365734e-005
3.830607e-004,-3.895744e-005
6.115729e-004,-4.203669e-005
8.157754e-004,-4.803310e-005
9.710341e-004,-5.808115e-005
1.072649e-003,-6.861539e-005
1.129858e-003,-7.607040e-005
1.156761e-003,-8.352540e-005
1.162758e-003,-1.024870e-004
1.146713e-003,-1.431654e-004
1.095662e-003,-1.998883e-004
9.898336e-004,-2.598524e-004
8.084824e-004,-3.070135e-004
5.363746e-004,-3.282440e-004
1.778859e-004,-3.198166e-004
-2.324634e-004,-2.883759e-004
-6.458919e-004,-2.478596e-004
-1.009080e-003,-2.136638e-004
-1.258012e-003,-1.919471e-004
-1.344555e-003,-1.788198e-004
-1.264171e-003,-1.681235e-004
-1.054621e-003,-1.524032e-004
-7.839716e-004,-1.272830e-004
-5.277464e-004,-9.389758e-005
-3.399127e-004,-5.548810e-005
-2.353806e-004,-1.075808e-005
-2.019951e-004,4.515445e-005
-2.254946e-004,1.163011e-004
-2.959930e-004,2.021958e-004
-3.982562e-004,2.897111e-004
-4.904713e-004,3.626405e-004
-5.230465e-004,4.128807e-004
-4.705373e-004,4.422145e-004
-3.356990e-004,4.511281e-004
-1.339277e-004,4.428628e-004
1.224596e-004,4.185530e-004
4.177427e-004,3.880847e-004
7.178878e-004,3.616681e-004
9.754099e-004,3.404375e-004
1.143958e-003,3.171001e-004
1.196143e-003,2.854973e-004
1.136989e-003,2.487085e-004
1.012361e-003,2.156472e-004
8.669881e-004,1.902029e-004
7.235601e-004,1.694586e-004
5.859666e-004,1.485521e-004
4.482110e-004,1.274836e-004
3.007315e-004,1.072255e-004
1.436902e-004,8.923622e-005
-9.623623e-006,7.772959e-005
-1.535376e-004,7.319175e-005
-3.079858e-004,7.027457e-005
-4.891748e-004,5.747142e-005
-6.953219e-004,3.462021e-005
-9.077894e-004,1.160693e-005
-1.111343e-003,-1.027188e-005
-1.303229e-003,-4.057810e-005
-1.474208e-003,-8.012203e-005
-1.590246e-003,-1.220969e-004
-1.595108e-003,-1.569410e-004
-1.450060e-003,-1.760647e-004
-1.162556e-003,-1.771991e-004
-7.828371e-004,-1.624512e-004
-3.752429e-004,-1.352242e-004
-2.238345e-007,-9.762508e-005
2.965178e-004,-6.391550e-005
4.950479e-004,-4.527799e-005
5.984456e-004,-3.976777e-005
6.198382e-004,-3.604027e-005
5.759185e-004,-2.469570e-005
4.960202e-004,-6.382316e-006
4.110980e-004,1.193106e-005
3.449753e-004,2.765140e-005
3.055935e-004,4.223728e-005
2.645909e-004,5.520250e-005
1.712413e-004,6.508849e-005
1.160693e-005,7.076077e-005
-1.648822e-004,7.173317e-005
-3.000446e-004,7.594687e-005
-3.621157e-004,9.215340e-005
-3.497987e-004,1.213252e-004
-2.815692e-004,1.577899e-004
-1.729855e-004,1.916615e-004
-3.685059e-005,2.184023e-004
1.049566e-004,2.389846e-004
2.346088e-004,2.598910e-004
3.393030e-004,2.889007e-004
4.110980e-004,3.245551e-004
4.527488e-004,3.644232e-004
4.754380e-004,4.038051e-004
4.856481e-004,4.373526e-004
4.793275e-004,4.529109e-004
4.495075e-004,4.367043e-004
4.007258e-004,3.807918e-004
3.589129e-004,2.905214e-004
3.548613e-004,1.835582e-004
4.034809e-004,7.967437e-005
5.013684e-004,-2.978945e-006
6.268070e-004,-5.646050e-005
7.504629e-004,-7.769105e-005
8.442989e-004,-7.282909e-005
8.895152e-004,-5.257093e-005
8.882186e-004,-3.150244e-005
8.603433e-004,-1.967167e-005
8.246890e-004,-1.886135e-005
7.921138e-004,-2.534396e-005
7.575939e-004,-3.198863e-005
7.036260e-004,-3.069211e-005
6.034696e-004,-1.950961e-005
4.305458e-004,-8.651231e-006
1.761032e-004,-3.951337e-006
-1.332795e-004,-1.844488e-006
-4.410414e-004,8.041497e-006
-6.906220e-004,3.299956e-005
-8.641938e-004,7.497447e-005
-9.651606e-004,1.271595e-004
-9.982219e-004,1.752929e-004
-9.792602e-004,2.080301e-004
-9.320992e-004,2.211574e-004
-8.760247e-004,2.171058e-004
-8.262706e-004,1.952270e-004
-7.836474e-004,1.558451e-004
-7.309762e-004,9.701536e-005
-6.423265e-004,2.441009e-005
-4.971160e-004,-5.192267e-005
-2.921034e-004,-1.261486e-004
-4.770897e-005,-1.922712e-004
1.911753e-004,-2.382978e-004
3.772264e-004,-2.580697e-004
4.757621e-004,-2.541802e-004
4.801379e-004,-2.334358e-004
4.122324e-004,-2.096122e-004
3.125622e-004,-1.930815e-004
2.219677e-004,-1.887058e-004
1.663793e-004,-1.895161e-004
1.509831e-004,-1.865989e-004
1.595726e-004,-1.755785e-004
1.678379e-004,-1.562927e-004
1.566554e-004,-1.313347e-004
1.250527e-004,-1.045939e-004
8.518459e-005,-8.060822e-005
5.131293e-005,-6.132245e-005
3.688912e-005,-4.560212e-005
4.888196e-005,-2.939559e-005
8.421220e-005,-1.335112e-005
1.381799e-004,-4.761663e-006
1.994406e-004,-1.156841e-005
2.621599e-004,-3.409548e-005
3.271481e-004,-6.748093e-005
4.033188e-004,-1.013526e-004
4.952099e-004,-1.250141e-004
5.948801e-004,-1.306864e-004
6.887161e-004,-1.105903e-004
7.644006e-004,-6.197072e-005
8.107513e-004,1.063454e-005
8.144788e-004,9.766362e-005
7.655350e-004,1.855030e-004
6.665131e-004,2.564876e-004
5.350781e-004,2.952213e-004
4.016982e-004,2.983005e-004
3.015418e-004,2.743148e-004
2.551911e-004,2.383363e-004
2.602152e-004,2.073818e-004
2.932765e-004,1.921477e-004
3.253654e-004,1.974959e-004
3.388168e-004,2.172678e-004
3.346032e-004,2.404432e-004
3.211517e-004,2.498430e-004
3.026763e-004,2.321778e-004
2.780423e-004,1.838824e-004
2.435224e-004,1.124116e-004
1.934442e-004,2.846173e-005
1.214872e-004,-5.354332e-005
2.781346e-005,-1.255003e-004
-7.866345e-005,-1.814128e-004
-1.956746e-004,-2.211188e-004
-3.211131e-004,-2.468872e-004
-4.390966e-004,-2.648765e-004
-5.236947e-004,-2.780037e-004
-5.611319e-004,-2.838381e-004
-5.527044e-004,-2.768693e-004
-5.084606e-004,-2.545043e-004
-4.559515e-004,-2.144742e-004
-4.296969e-004,-1.605064e-004
-4.598410e-004,-9.649063e-005
-5.531906e-004,-3.166451e-005
-7.149318e-004,2.214118e-005
-9.338820e-004,6.071273e-005
-1.169201e-003,8.340186e-005
-1.361086e-003,9.426025e-005
-1.459460e-003,1.036600e-004
-1.445360e-003,1.284560e-004
-1.327863e-003,1.782101e-004
-1.133546e-003,2.513016e-004
-8.975793e-004,3.358997e-004
-6.475126e-004,4.164462e-004
-4.053871e-004,4.768966e-004
-1.916230e-004,5.042856e-004
-1.497178e-005,4.924549e-004
1.206769e-004,4.454558e-004
2.122438e-004,3.773884e-004
2.563256e-004,3.044590e-004
2.558394e-004,2.370398e-004
2.263435e-004,1.782101e-004
1.927960e-004,1.266733e-004
1.733481e-004,7.675719e-005
1.709171e-004,2.408596e-005
1.676758e-004,-3.360929e-005
1.334801e-004,-9.438377e-005
4.094075e-005,-1.577513e-004
-1.081593e-004,-2.248463e-004
-2.846484e-004,-2.951827e-004
-4.609755e-004,-3.609812e-004
-6.290372e-004,-4.087905e-004
-7.802441e-004,-4.266176e-004
-8.857485e-004,-4.141386e-004
-9.061688e-004,-3.796187e-004
-8.220569e-004,-3.288923e-004
-6.441093e-004,-2.609869e-004
-4.024699e-004,-1.697441e-004
-1.365208e-004,-5.694669e-005
1.231079e-004,5.828174e-005
3.626405e-004,1.511452e-004
5.785116e-004,2.057612e-004
7.601869e-004,2.193747e-004
8.948633e-004,2.012234e-004
9.767064e-004,1.689724e-004
1.006202e-003,1.446626e-004
9.843234e-004,1.412592e-004
9.079906e-004,1.582760e-004
7.799589e-004,1.838824e-004
6.172452e-004,2.078680e-004
4.521005e-004,2.252090e-004
3.205035e-004,2.336364e-004
2.504912e-004,2.300710e-004
2.615117e-004,2.135403e-004
3.444891e-004,1.835582e-004
4.725208e-004,1.509831e-004
6.125453e-004,1.257009e-004
7.366874e-004,1.070634e-004
8.251751e-004,9.134307e-005
8.619640e-004,7.562274e-005
8.323060e-004,5.617490e-005
7.199947e-004,2.441009e-005
5.294057e-004,-2.307504e-005
2.914938e-004,-8.077029e-005
5.179913e-005,-1.434896e-004
-1.509446e-004,-2.028055e-004
-3.018273e-004,-2.468872e-004
-4.084663e-004,-2.650385e-004
-4.953333e-004,-2.579077e-004
-5.783107e-004,-2.313289e-004
-6.530228e-004,-1.917850e-004
-7.024527e-004,-1.415448e-004
-6.928909e-004,-8.174268e-005
-5.992171e-004,-1.659243e-005
-4.198109e-004,4.353380e-005
-1.833576e-004,9.458438e-005
6.427816e-005,1.389903e-004
2.804733e-004,1.761032e-004
4.420525e-004,2.041405e-004
5.428572e-004,2.192126e-004
5.811046e-004,2.258573e-004
5.692738e-004,2.284503e-004
5.329712e-004,2.239125e-004
5.023408e-004,2.051129e-004
4.961823e-004,1.702689e-004
5.133613e-004,1.247285e-004
5.332953e-004,7.027457e-005
5.350781e-004,9.824214e-006
5.177370e-004,-4.544005e-005
4.887274e-004,-8.838737e-005
4.564763e-004,-1.157764e-004
4.264942e-004,-1.279313e-004
3.979707e-004,-1.217728e-004
3.744712e-004,-9.519411e-005
3.602095e-004,-4.462973e-005
3.559958e-004,2.473422e-005
3.603715e-004,9.896014e-005
3.653956e-004,1.618415e-004
3.673404e-004,2.004130e-004
3.649094e-004,2.125679e-004
3.571302e-004,2.054371e-004
3.370341e-004,1.900409e-004
3.052693e-004,1.712413e-004
2.689667e-004,1.566554e-004
2.336364e-004,1.561692e-004
2.065715e-004,1.804790e-004
1.955511e-004,2.318537e-004
2.057612e-004,3.052693e-004
2.284503e-004,3.869503e-004
2.456293e-004,4.568004e-004
2.328261e-004,5.028270e-004
1.720516e-004,5.224369e-004
6.606088e-005,5.166026e-004
-6.796713e-005,4.866205e-004
-2.081536e-004,4.352457e-004
-3.309991e-004,3.679886e-004
-4.217557e-004,2.856594e-004
-4.750752e-004,1.921477e-004
-4.914437e-004,9.069480e-005
-4.872300e-004,-1.237873e-005
-4.995470e-004,-1.107524e-004
-5.614560e-004,-1.969711e-004
-6.747395e-004,-2.622834e-004
-7.954782e-004,-3.005308e-004
-8.760247e-004,-3.125237e-004
-9.076273e-004,-3.053928e-004
-9.003344e-004,-2.914552e-004
-8.640318e-004,-2.809209e-004
-7.982333e-004,-2.755728e-004
-7.081250e-004,-2.687660e-004
-6.081308e-004,-2.549905e-004
-5.121881e-004,-2.357047e-004
-4.249970e-004,-2.144742e-004
-3.391023e-004,-1.906506e-004
-2.434839e-004,-1.640719e-004
-1.195039e-004,-1.396000e-004
5.374392e-005,-1.190177e-004
2.778803e-004,-9.940780e-005
5.214645e-004,-7.801519e-005
7.305289e-004,-5.224680e-005
8.549952e-004,-2.161646e-005
8.736327e-004,9.500084e-006
7.877380e-004,3.656499e-005
6.297242e-004,5.844381e-005
4.454558e-004,7.643306e-005
2.743148e-004,9.280166e-005
1.451487e-004,1.047945e-004
7.027457e-005,1.056048e-004
4.402000e-005,9.523264e-005
4.483032e-005,7.967437e-005
4.110282e-005,6.638501e-005
-8.165034e-006,5.860587e-005
-1.178833e-004,5.585077e-005
-2.616351e-004,5.601283e-005
-3.904771e-004,6.119892e-005
-4.598410e-004,7.027457e-005
-4.621099e-004,8.032263e-005
-4.206212e-004,8.356393e-005
-3.664914e-004,7.092283e-005
-3.156029e-004,4.110282e-005
-2.650385e-004,-8.720958e-007
-2.002124e-004,-4.916756e-005
-1.172350e-004,-1.007043e-004
-3.263690e-005,-1.556445e-004
1.889987e-005,-2.159328e-004
4.962256e-006,-2.755728e-004
-7.282909e-005,-3.258130e-004
-1.726613e-004,-3.642225e-004
-2.493182e-004,-3.929080e-004
-2.872415e-004,-4.128421e-004
-3.047445e-004,-4.152730e-004
-3.275957e-004,-3.875599e-004
-3.582261e-004,-3.248406e-004
-3.687603e-004,-2.300324e-004
-3.266234e-004,-1.167488e-004
-2.201465e-004,-4.437533e-006
-6.067420e-005,9.604297e-005
1.273216e-004,1.851789e-004
3.185587e-004,2.641047e-004
4.849998e-004,3.324963e-004
6.102764e-004,3.922984e-004
6.964952e-004,4.485351e-004
7.634282e-004,5.050959e-004
8.329543e-004,5.580913e-004
9.078285e-004,5.908285e-004
9.671445e-004,5.882355e-004
9.830269e-004,5.464226e-004
9.381348e-004,4.660382e-004
8.363576e-004,3.456236e-004
6.892022e-004,1.987924e-004
5.102821e-004,5.196120e-005
3.089968e-004,-7.120844e-005
1.054428e-004,-1.546721e-004
-8.303921e-005,-1.937298e-004
-2.394322e-004,-1.891920e-004
-3.415334e-004,-1.423551e-004
-3.796187e-004,-5.937767e-005
-3.591985e-004,4.953022e-005
-3.026377e-004,1.670276e-004
-2.452666e-004,2.666978e-004
-2.154466e-004,3.248792e-004
-2.293842e-004,3.344411e-004
-2.940482e-004,3.052693e-004
-4.191626e-004,2.529222e-004
-6.063480e-004,1.968476e-004
-8.322670e-004,1.534141e-004
-1.044086e-003,1.289422e-004
-1.186056e-003,1.231079e-004
-1.213445e-003,1.338042e-004
-1.103240e-003,1.613553e-004
-8.731075e-004,2.085163e-004
-5.740970e-004,2.720459e-004
-2.605007e-004,3.420582e-004
3.267542e-005,3.963500e-004
2.931144e-004,4.125566e-004
5.109303e-004,3.822504e-004
6.674855e-004,3.109416e-004
7.441424e-004,2.090025e-004
7.345806e-004,9.733949e-005
6.579236e-004,-6.176923e-008
5.460985e-004,-6.796713e-005
4.328148e-004,-9.649063e-005
3.352514e-004,-8.968388e-005
2.603772e-004,-6.180866e-005
2.080301e-004,-3.198863e-005
1.752929e-004,-7.678839e-006
1.540623e-004,1.744128e-005
1.255388e-004,5.552663e-005
7.659513e-005,1.128978e-004
1.565857e-005,1.863134e-004
-3.782299e-005,2.598910e-004
-5.629843e-005,3.093210e-004
-2.485776e-005,3.124002e-004
4.288554e-005,2.594048e-004
1.098185e-004,1.597346e-004
1.402868e-004,3.721326e-005
1.135460e-004,-7.914964e-005
3.008238e-005,-1.716889e-004
-9.114247e-005,-2.355427e-004
-2.151224e-004,-2.760590e-004
-3.040963e-004,-3.062031e-004
-3.275957e-004,-3.374817e-004
-2.687660e-004,-3.728119e-004
-1.468929e-004,-4.057112e-004
-5.896120e-006,-4.258073e-004
1.120874e-004,-4.309934e-004
1.979821e-004,-4.227281e-004
2.655633e-004,-4.031182e-004
3.274723e-004,-3.784843e-004
3.812780e-004,-3.515814e-004
4.112601e-004,-3.227338e-004
4.026706e-004,-2.930758e-004
3.582647e-004,-2.632558e-004
2.997591e-004,-2.382978e-004
2.558394e-004,-2.245222e-004
2.534084e-004,-2.259808e-004
3.036486e-004,-2.370012e-004
3.961880e-004,-2.483458e-004
5.026649e-004,-2.498044e-004
5.874252e-004,-2.345703e-004
6.279415e-004,-2.045882e-004
6.237278e-004,-1.635857e-004
5.919630e-004,-1.161005e-004
5.559844e-004,-6.845333e-005
5.250300e-004,-2.826113e-005
4.932652e-004,-7.100305e-007
4.569625e-004,5.934647e-006
4.201737e-004,-5.734055e-006
3.973224e-004,-2.226472e-005
3.948915e-004,-3.296103e-005
4.042912e-004,-3.020592e-005
4.151496e-004,-9.623623e-006
4.180668e-004,2.619281e-005
4.132048e-004,7.011251e-005
