-4.587065e-004,-1.830335e-004
-4.912817e-004,-1.687718e-004
-5.287188e-004,-1.718510e-004
-5.343910e-004,-1.802784e-004
-4.797750e-004,-1.857886e-004
-3.671397e-004,-1.867610e-004
-2.300324e-004,-1.818990e-004
-1.028112e-004,-1.736337e-004
7.069104e-006,-1.632615e-004
1.150046e-004,-1.470550e-004
2.367157e-004,-1.216107e-004
3.709058e-004,-9.065627e-005
5.029890e-004,-5.921561e-005
6.128695e-004,-2.874733e-005
6.906608e-004,-5.479652e-007
7.300427e-004,2.505835e-005
7.195084e-004,4.936815e-005
6.606787e-004,7.043664e-005
5.802942e-004,8.210535e-005
5.170887e-004,8.097089e-005
4.943996e-004,6.508849e-005
5.054200e-004,3.607880e-005
5.285954e-004,6.582909e-006
5.383193e-004,-9.299492e-006
5.104441e-004,-4.275467e-006
4.261701e-004,2.035846e-005
2.816078e-004,5.974033e-005
7.157111e-005,1.044704e-004
-2.216050e-004,1.457970e-004
-5.885208e-004,1.746447e-004
-9.585159e-004,1.880961e-004
-1.237917e-003,1.866375e-004
-1.368703e-003,1.722137e-004
-1.347959e-003,1.532520e-004
-1.218955e-003,1.388282e-004
-1.045221e-003,1.328318e-004
-8.983896e-004,1.336421e-004
-8.299981e-004,1.363972e-004
-8.515528e-004,1.420695e-004
-9.633778e-004,1.535762e-004
-1.169363e-003,1.689724e-004
-1.432071e-003,1.837203e-004
-1.650373e-003,1.913374e-004
-1.720547e-003,1.859892e-004
-1.615691e-003,1.730240e-004
-1.425264e-003,1.576278e-004
-1.321704e-003,1.368834e-004
-1.451194e-003,1.056048e-004
-1.831238e-003,6.622294e-005
-2.342068e-003,2.943412e-005
-2.804927e-003,4.151929e-006
-3.061963e-003,-2.330684e-006
-3.026147e-003,9.175954e-006
-2.692940e-003,3.413401e-005
-2.110963e-003,6.865393e-005
-1.367893e-003,1.022014e-004
-5.804176e-004,1.232699e-004
1.351007e-004,1.331559e-004
6.906608e-004,1.394765e-004
1.043802e-003,1.462832e-004
1.195819e-003,1.521176e-004
1.181881e-003,1.524417e-004
1.065356e-003,1.454729e-004
9.126905e-004,1.331559e-004
7.720176e-004,1.190562e-004
6.718612e-004,1.030118e-004
6.412309e-004,9.004655e-005
7.091363e-004,8.712937e-005
8.759017e-004,8.939829e-005
1.107169e-003,9.020861e-005
1.344271e-003,8.405013e-005
1.532267e-003,6.914012e-005
1.643768e-003,4.758544e-005
1.676506e-003,2.327564e-005
1.644093e-003,5.610517e-006
1.555767e-003,2.369210e-006
1.423683e-003,9.662150e-006
1.273772e-003,1.922400e-005
1.142337e-003,2.781346e-005
1.055632e-003,3.121684e-005
1.013981e-003,2.684107e-005
1.000368e-003,1.663096e-005
9.919406e-004,4.638125e-006
9.647135e-004,-6.706447e-006
8.950254e-004,-1.691656e-005
7.903310e-004,-2.907146e-005
6.950366e-004,-4.268495e-005
6.504686e-004,-5.516398e-005
6.817472e-004,-6.342930e-005
7.895207e-004,-6.829127e-005
9.520724e-004,-7.169464e-005
1.143958e-003,-7.266703e-005
1.339409e-003,-6.780506e-005
1.516223e-003,-5.775702e-005
1.663054e-003,-4.544005e-005
1.786873e-003,-3.328516e-005
1.900319e-003,-2.194059e-005
2.006796e-003,-1.302699e-005
2.098525e-003,-7.678839e-006
2.168700e-003,-6.382316e-006
2.222992e-003,-1.205460e-005
2.271774e-003,-2.534396e-005
2.309859e-003,-4.025397e-005
2.311642e-003,-4.706071e-005
2.248112e-003,-4.090223e-005
2.103549e-003,-2.291298e-005
1.875360e-003,3.665733e-006
1.589801e-003,3.073064e-005
1.278797e-003,5.082674e-005
9.674686e-004,6.103685e-005
6.575995e-004,6.346784e-005
3.141829e-004,5.666109e-005
-1.217728e-004,4.288554e-005
-6.710120e-004,2.748933e-005
-1.282160e-003,1.582063e-005
-1.839827e-003,7.717366e-006
-2.234619e-003,1.396819e-006
-2.429583e-003,-6.544382e-006
-2.446762e-003,-1.610623e-005
-2.325699e-003,-2.534396e-005
-2.094108e-003,-3.198863e-005
-1.767708e-003,-3.474375e-005
-1.362383e-003,-2.939559e-005
-9.118411e-004,-1.075808e-005
-4.663236e-004,2.197911e-005
-7.720485e-005,5.844381e-005
2.099749e-004,8.745350e-005
3.696093e-004,1.054428e-004
4.094774e-004,1.114392e-004
3.561578e-004,1.109530e-004
2.456293e-004,1.112771e-004
1.075496e-004,1.192183e-004
-5.775702e-005,1.318594e-004
-2.459148e-004,1.373696e-004
-4.133283e-004,1.297525e-004
-5.001953e-004,1.179218e-004
-4.700511e-004,1.088461e-004
-3.392644e-004,1.049566e-004
-1.676373e-004,1.065772e-004
-3.377135e-005,1.107909e-004
-3.789271e-006,1.166253e-004
-1.068628e-004,1.221355e-004
-3.207890e-004,1.222975e-004
-5.864140e-004,1.122495e-004
-8.356704e-004,8.550872e-005
-1.019939e-003,4.077869e-005
-1.130629e-003,-1.983374e-005
-1.192862e-003,-8.433573e-005
-1.236944e-003,-1.368449e-004
-1.281512e-003,-1.726613e-004
-1.325432e-003,-1.861127e-004
-1.351200e-003,-1.797922e-004
-1.342611e-003,-1.601823e-004
-1.297557e-003,-1.345760e-004
-1.225600e-003,-1.088076e-004
-1.143270e-003,-8.595638e-005
-1.060617e-003,-6.359137e-005
-9.732638e-004,-4.122636e-005
-8.716489e-004,-1.416145e-005
-7.470206e-004,1.679302e-005
-5.962999e-004,5.050261e-005
-4.065215e-004,8.858796e-005
-1.724992e-004,1.295905e-004
9.426025e-005,1.667035e-004
3.704196e-004,1.910132e-004
6.169211e-004,1.981441e-004
7.976240e-004,1.914994e-004
8.875704e-004,1.735102e-004
8.716880e-004,1.461212e-004
7.681281e-004,1.130598e-004
6.271311e-004,8.097089e-005
5.093096e-004,5.244739e-005
4.482110e-004,2.959618e-005
4.363802e-004,9.013888e-006
4.397836e-004,-1.059601e-005
4.206599e-004,-2.809907e-005
3.616681e-004,-4.219875e-005
2.657254e-004,-4.608832e-005
1.407730e-004,-3.604027e-005
-5.479652e-007,-1.059601e-005
-1.496480e-004,2.343770e-005
-3.084720e-004,5.682316e-005
-4.817198e-004,8.242948e-005
-6.828429e-004,9.782569e-005
-9.254545e-004,1.002567e-004
-1.209717e-003,9.101894e-005
-1.536441e-003,7.627100e-005
-1.894767e-003,5.941620e-005
-2.265897e-003,4.353380e-005
-2.618714e-003,3.218923e-005
-2.898439e-003,2.489629e-005
-3.047216e-003,1.922400e-005
-3.026309e-003,8.851824e-006
-2.837989e-003,-1.416145e-005
-2.526499e-003,-5.273300e-005
-2.157637e-003,-1.005423e-004
-1.794935e-003,-1.438137e-004
-1.469508e-003,-1.707165e-004
-1.164501e-003,-1.721751e-004
-8.374531e-004,-1.451102e-004
-4.565997e-004,-9.811128e-005
-1.999580e-005,-4.446767e-005
4.409180e-004,6.907039e-006
8.778464e-004,5.730935e-005
1.254973e-003,1.070634e-004
1.558198e-003,1.586002e-004
1.785576e-003,2.096508e-004
1.939539e-003,2.563256e-004
2.017816e-003,2.927903e-004
2.021868e-003,3.203414e-004
1.957204e-003,3.396272e-004
1.845378e-003,3.441650e-004
1.726260e-003,3.284447e-004
1.638906e-003,2.876042e-004
1.604549e-003,2.208333e-004
1.622052e-003,1.346145e-004
1.664351e-003,4.564065e-005
1.699519e-003,-2.842320e-005
1.701464e-003,-7.526008e-005
1.663216e-003,-9.114247e-005
1.597580e-003,-7.914964e-005
1.526109e-003,-5.013995e-005
1.463876e-003,-1.707863e-005
1.411042e-003,1.419998e-005
1.360316e-003,3.932010e-005
1.301810e-003,5.568870e-005
1.233418e-003,5.909207e-005
1.166647e-003,4.920609e-005
1.106845e-003,2.748933e-005
1.051419e-003,7.485573e-007
9.927509e-004,-2.566809e-005
9.233868e-004,-4.592625e-005
8.465678e-004,-5.435365e-005
7.802830e-004,-4.511592e-005
7.329599e-004,-2.437157e-005
7.023295e-004,-8.720958e-007
6.802886e-004,1.825161e-005
6.572753e-004,2.992031e-005
6.287518e-004,3.543053e-005
6.034696e-004,3.688912e-005
5.979594e-004,3.462021e-005
6.183797e-004,2.619281e-005
6.358827e-004,9.824214e-006
6.002283e-004,-8.002969e-006
4.856481e-004,-1.788895e-005
3.192069e-004,-1.675450e-005
1.521176e-004,-3.627206e-006
1.906194e-005,1.695509e-005
-7.218083e-005,3.899597e-005
-1.302002e-004,6.152305e-005
-1.689338e-004,7.870197e-005
-1.997262e-004,8.259154e-005
-2.288980e-004,7.059870e-005
-2.540181e-004,4.693717e-005
-2.799485e-004,1.792748e-005
-3.091203e-004,-1.173047e-005
-3.360231e-004,-3.895744e-005
-3.418575e-004,-6.359137e-005
-3.107410e-004,-8.368747e-005
-2.428356e-004,-9.632856e-005
-1.583996e-004,-1.005423e-004
-9.179074e-005,-1.020008e-004
-5.937767e-005,-1.079973e-004
-3.685059e-005,-1.185315e-004
2.505835e-005,-1.269589e-004
1.517934e-004,-1.253383e-004
3.136967e-004,-1.101041e-004
4.532350e-004,-8.303921e-005
5.285954e-004,-4.787104e-005
5.386435e-004,-8.327101e-006
5.128751e-004,3.154097e-005
4.840274e-004,7.319175e-005
4.760862e-004,1.226217e-004
4.922927e-004,1.827479e-004
5.234093e-004,2.495188e-004
5.473950e-004,3.099692e-004
5.365366e-004,3.522683e-004
4.929410e-004,3.678265e-004
4.418904e-004,3.568061e-004
4.132048e-004,3.192069e-004
4.101256e-004,2.637806e-004
4.028327e-004,2.064095e-004
3.321721e-004,1.548727e-004
1.294284e-004,1.096565e-004
-2.376495e-004,7.221937e-005
-7.416725e-004,3.883391e-005
-1.318463e-003,4.962256e-006
-1.916484e-003,-3.474375e-005
-2.513533e-003,-7.574627e-005
-3.079629e-003,-1.068628e-004
-3.566637e-003,-1.232314e-004
-3.921237e-003,-1.267968e-004
-4.099834e-003,-1.191798e-004
-4.087355e-003,-1.034594e-004
-3.906327e-003,-8.093235e-005
-3.601805e-003,-5.694669e-005
-3.229216e-003,-3.344722e-005
-2.829561e-003,-8.002969e-006
-2.426504e-003,1.987226e-005
-2.026526e-003,4.385793e-005
-1.634490e-003,6.071273e-005
-1.265630e-003,6.800567e-005
-9.418231e-004,6.622294e-005
-6.859221e-004,4.758544e-005
-5.094330e-004,1.031041e-005
-3.908012e-004,-3.490581e-005
-2.911311e-004,-7.039811e-005
-1.692580e-004,-9.033214e-005
6.420843e-006,-1.010285e-004
2.579462e-004,-1.118868e-004
5.835355e-004,-1.311726e-004
9.509380e-004,-1.592099e-004
1.320934e-003,-1.856265e-004
1.658030e-003,-1.987538e-004
1.930949e-003,-1.912988e-004
2.117163e-003,-1.690959e-004
2.181665e-003,-1.391138e-004
2.078429e-003,-1.067007e-004
1.805024e-003,-7.331529e-005
1.441835e-003,-3.798505e-005
1.113652e-003,-1.844488e-006
9.151215e-004,2.116879e-005
8.741189e-004,1.371378e-005
9.580688e-004,-2.420950e-005
1.097931e-003,-7.088431e-005
1.225153e-003,-9.535618e-005
1.303755e-003,-7.704279e-005
1.329523e-003,-1.545797e-005
1.318827e-003,7.189524e-005
1.284955e-003,1.613553e-004
1.242656e-003,2.376881e-004
1.211377e-003,2.911697e-004
1.195495e-003,3.218000e-004
1.189823e-003,3.354135e-004
1.178316e-003,3.380065e-004
1.146875e-003,3.324963e-004
1.090314e-003,3.196932e-004
1.011875e-003,2.966798e-004
9.147974e-004,2.645909e-004
7.976240e-004,2.360674e-004
6.567891e-004,2.153230e-004
4.918065e-004,1.979821e-004
3.077003e-004,1.791825e-004
1.106288e-004,1.555209e-004
-9.584237e-005,1.315353e-004
-3.175477e-004,1.116012e-004
-5.614560e-004,9.863601e-005
-8.248120e-004,9.101894e-005
-1.072124e-003,8.178122e-005
-1.255744e-003,6.346784e-005
-1.351848e-003,3.380988e-005
-1.377779e-003,-5.896120e-006
-1.364489e-003,-5.338126e-005
-1.339207e-003,-1.041077e-004
-1.310035e-003,-1.488377e-004
-1.259633e-003,-1.784957e-004
-1.183300e-003,-1.833576e-004
-1.125605e-003,-1.674752e-004
-1.133870e-003,-1.430034e-004
-1.208907e-003,-1.235555e-004
-1.305174e-003,-1.141557e-004
-1.348607e-003,-1.110765e-004
-1.270978e-003,-1.076731e-004
-1.042304e-003,-9.324932e-005
-6.841394e-004,-6.051213e-005
-2.465631e-004,-1.302699e-005
2.051129e-004,3.672705e-005
6.211348e-004,7.465034e-005
9.741134e-004,9.831188e-005
1.248976e-003,1.094944e-004
1.447183e-003,1.137081e-004
1.577159e-003,1.171115e-004
1.661920e-003,1.192183e-004
1.730474e-003,1.205148e-004
1.801296e-003,1.195424e-004
1.864664e-003,1.175977e-004
1.892701e-003,1.133840e-004
1.851375e-003,1.072255e-004
1.712809e-003,1.015532e-004
1.476841e-003,9.717742e-005
1.170699e-003,9.053274e-005
8.374921e-004,7.724339e-005
5.122268e-004,5.714729e-005
2.248849e-004,3.380988e-005
6.258778e-006,1.176900e-005
-1.136696e-004,-3.627206e-006
-1.276072e-004,-1.108221e-005
-5.500191e-005,-9.623623e-006
6.184718e-005,4.244267e-007
1.610312e-004,1.598270e-005
1.782101e-004,2.813760e-005
8.194328e-005,3.186510e-005
-9.940780e-005,2.441009e-005
-2.812450e-004,9.986280e-006
-3.890185e-004,-5.896120e-006
-4.008492e-004,-1.497178e-005
-3.376438e-004,-1.464765e-005
-2.389460e-004,-7.354708e-006
-1.509446e-004,3.341602e-006
-1.024870e-004,1.776542e-005
-1.002181e-004,3.332369e-005
-1.331174e-004,4.515445e-005
-1.681235e-004,4.936815e-005
-1.671511e-004,4.596478e-005
-1.115627e-004,4.077869e-005
-8.489165e-006,4.029249e-005
1.234320e-004,4.985435e-005
2.597290e-004,6.703327e-005
3.781987e-004,8.777764e-005
4.608521e-004,1.049566e-004
5.015305e-004,1.145184e-004
5.172509e-004,1.133840e-004
5.285954e-004,1.062531e-004
5.294057e-004,1.004187e-004
5.047718e-004,9.912220e-005
4.577728e-004,1.000946e-004
4.080188e-004,9.944633e-005
3.848434e-004,9.442231e-005
4.059119e-004,8.469840e-005
4.587452e-004,7.286762e-005
5.044476e-004,6.055066e-005
5.112544e-004,4.612685e-005
4.678209e-004,2.554455e-005
3.718782e-004,-4.923729e-006
2.344468e-004,-3.879538e-005
8.761556e-005,-7.477388e-005
-1.562004e-005,-1.165867e-004
-3.928157e-005,-1.674752e-004
1.079661e-005,-2.199844e-004
7.805372e-005,-2.575835e-004
7.821578e-005,-2.661730e-004
-5.143647e-005,-2.454286e-004
-3.107410e-004,-1.982676e-004
-6.390853e-004,-1.357104e-004
-9.604607e-004,-6.958779e-005
-1.206800e-003,-1.254080e-005
-1.333373e-003,3.024445e-005
-1.332076e-003,5.860587e-005
-1.233216e-003,7.724339e-005
-1.107616e-003,9.280166e-005
-1.036956e-003,1.094944e-004
-1.053486e-003,1.244044e-004
-1.116530e-003,1.315353e-004
-1.157856e-003,1.269974e-004
-1.143918e-003,1.161391e-004
-1.094164e-003,1.085220e-004
-1.059158e-003,1.083599e-004
-1.076823e-003,1.124116e-004
-1.139705e-003,1.167873e-004
-1.206638e-003,1.208390e-004
-1.229489e-003,1.245665e-004
-1.182976e-003,1.234320e-004
-1.070017e-003,1.172735e-004
-9.081136e-004,1.090082e-004
-7.150938e-004,9.944633e-005
-5.023021e-004,9.199134e-005
-2.741142e-004,9.004655e-005
-2.485776e-005,9.280166e-005
2.478982e-004,9.636710e-005
5.389676e-004,9.863601e-005
8.269579e-004,9.814982e-005
1.074756e-003,9.523264e-005
1.241521e-003,9.069480e-005
1.301648e-003,8.291567e-005
1.253514e-003,7.319175e-005
1.123376e-003,6.314371e-005
9.515862e-004,5.212327e-005
7.718556e-004,3.737532e-005
5.990939e-004,2.133085e-005
4.407560e-004,1.128280e-005
2.983005e-004,1.274139e-005
1.615174e-004,2.651694e-005
3.017472e-006,4.936815e-005
-1.981056e-004,7.400208e-005
-4.345588e-004,8.923622e-005
-6.484850e-004,9.328785e-005
-7.695478e-004,8.486046e-005
-7.593377e-004,6.638501e-005
-6.351956e-004,4.790957e-005
-4.619479e-004,3.543053e-005
-3.353749e-004,2.943412e-005
-3.423437e-004,2.716520e-005
-5.091088e-004,2.992031e-005
-7.794337e-004,3.899597e-005
-1.033066e-003,4.742337e-005
-1.162718e-003,4.888196e-005
-1.129657e-003,4.483032e-005
-9.554367e-004,3.721326e-005
-6.841394e-004,3.105477e-005
-3.608191e-004,2.894792e-005
-4.300908e-005,2.959618e-005
2.099749e-004,2.862379e-005
3.666921e-004,2.505835e-005
4.477248e-004,1.744128e-005
4.945617e-004,7.555300e-006
5.457744e-004,-1.682422e-006
6.200003e-004,-7.030578e-006
7.118914e-004,-1.205460e-005
7.990826e-004,-2.161646e-005
8.580744e-004,-3.749886e-005
8.831946e-004,-5.629843e-005
8.801153e-004,-7.104637e-005
8.627743e-004,-8.012203e-005
8.498091e-004,-9.114247e-005
8.577503e-004,-1.084835e-004
8.951874e-004,-1.321450e-004
9.600137e-004,-1.543479e-004
1.041371e-003,-1.621271e-004
1.128886e-003,-1.459205e-004
1.211701e-003,-1.115627e-004
1.287548e-003,-6.764300e-005
1.353833e-003,-2.518189e-005
1.401156e-003,9.338019e-006
1.415418e-003,3.915804e-005
1.386570e-003,6.962632e-005
1.316072e-003,1.038221e-004
1.212836e-003,1.398006e-004
1.085614e-003,1.778859e-004
9.389451e-004,2.141886e-004
7.671557e-004,2.444948e-004
5.618188e-004,2.624841e-004
3.315239e-004,2.668598e-004
9.847395e-005,2.598910e-004
-1.104282e-004,2.417397e-004
-2.852967e-004,2.083542e-004
-4.374760e-004,1.598967e-004
-5.909518e-004,1.054428e-004
-7.580412e-004,6.314371e-005
-9.371233e-004,4.304760e-005
-1.117502e-003,4.515445e-005
-1.290263e-003,5.520250e-005
-1.429640e-003,5.487837e-005
-1.488307e-003,2.489629e-005
-1.411812e-003,-3.733679e-005
-1.180221e-003,-1.188556e-004
-8.384255e-004,-2.003745e-004
-4.779923e-004,-2.663351e-004
-1.914609e-004,-3.092824e-004
-2.874733e-005,-3.301888e-004
2.846173e-005,-3.298646e-004
3.915804e-005,-3.117133e-004
3.834771e-005,-2.784900e-004
2.100672e-005,-2.327876e-004
-3.604027e-005,-1.796301e-004
-1.444620e-004,-1.248521e-004
-2.906448e-004,-7.347736e-005
-4.343967e-004,-2.339917e-005
-5.240189e-004,3.251336e-005
-5.415219e-004,9.717742e-005
-5.118640e-004,1.639483e-004
-4.762096e-004,2.166196e-004
-4.697270e-004,2.433604e-004
-4.950092e-004,2.431983e-004
-5.249913e-004,2.242366e-004
-5.236947e-004,1.994406e-004
-4.580583e-004,1.775618e-004
-2.992343e-004,1.595726e-004
-3.328516e-005,1.448246e-004
3.172621e-004,1.342904e-004
6.984400e-004,1.300767e-004
1.051905e-003,1.323456e-004
1.335682e-003,1.391524e-004
1.531943e-003,1.496866e-004
1.630803e-003,1.603829e-004
1.622376e-003,1.688103e-004
1.495802e-003,1.678379e-004
1.265669e-003,1.566554e-004
9.763822e-004,1.346145e-004
6.947124e-004,1.039842e-004
4.937514e-004,7.140904e-005
4.106118e-004,4.061663e-005
4.363802e-004,1.160693e-005
5.148199e-004,-1.480971e-005
5.762426e-004,-3.555407e-005
5.728393e-004,-4.608832e-005
4.785172e-004,-4.284701e-005
2.900352e-004,-3.085418e-005
3.121684e-005,-1.983374e-005
-2.423494e-004,-2.145439e-005
-4.690787e-004,-4.090223e-005
-6.129927e-004,-8.190475e-005
-6.710120e-004,-1.399241e-004
-6.586951e-004,-2.023193e-004
-5.943552e-004,-2.527216e-004
-4.992229e-004,-2.801106e-004
-3.951770e-004,-2.801106e-004
-3.045825e-004,-2.562870e-004
-2.493182e-004,-2.188499e-004
-2.379736e-004,-1.762267e-004
-2.668213e-004,-1.316588e-004
-3.211131e-004,-8.287714e-005
-3.835083e-004,-2.615428e-005
-4.343967e-004,4.515445e-005
-4.601651e-004,1.323456e-004
-4.567618e-004,2.258573e-004
-4.352071e-004,3.149932e-004
-4.131662e-004,3.893812e-004
-3.930701e-004,4.394594e-004
-3.507711e-004,4.543695e-004
-2.630937e-004,4.320044e-004
-1.339277e-004,3.835469e-004
4.638125e-006,3.242310e-004
1.070634e-004,2.645909e-004
1.229458e-004,2.099749e-004
1.841368e-005,1.628139e-004
-1.964849e-004,1.229458e-004
-4.682684e-004,9.604297e-005
-7.351899e-004,8.226741e-005
-9.591641e-004,7.708132e-005
-1.137436e-003,7.335382e-005
-1.270978e-003,6.800567e-005
-1.352497e-003,5.763348e-005
-1.364976e-003,4.628891e-005
-1.290588e-003,4.142695e-005
-1.123985e-003,4.466826e-005
-8.842900e-004,5.487837e-005
-6.204477e-004,6.768153e-005
-3.890185e-004,7.740545e-005
-2.261429e-004,7.789165e-005
-1.211245e-004,6.460230e-005
-2.631635e-005,3.348575e-005
1.128978e-004,-9.947754e-006
3.258516e-004,-5.046408e-005
6.049282e-004,-7.039811e-005
9.201455e-004,-5.791909e-005
1.233904e-003,-1.724069e-005
1.498720e-003,3.980630e-005
1.661596e-003,1.025256e-004
1.686068e-003,1.603829e-004
1.573108e-003,2.060853e-004
1.368257e-003,2.302331e-004
1.126293e-003,2.196988e-004
8.877324e-004,1.683241e-004
6.720233e-004,8.842590e-005
4.790034e-004,5.772582e-006
3.201793e-004,-5.532604e-005
2.153230e-004,-8.692878e-005
1.867996e-004,-9.600443e-005
2.483844e-004,-9.535618e-005
3.944053e-004,-9.357345e-005
6.018489e-004,-9.584237e-005
8.368439e-004,-1.065387e-004
1.061305e-003,-1.238797e-004
1.245087e-003,-1.431654e-004
1.380898e-003,-1.551583e-004
1.484782e-003,-1.543479e-004
1.571487e-003,-1.451102e-004
1.650575e-003,-1.370070e-004
1.725612e-003,-1.355484e-004
1.784766e-003,-1.379793e-004
1.807131e-003,-1.363587e-004
1.778121e-003,-1.279313e-004
1.696116e-003,-1.135075e-004
1.560305e-003,-9.292519e-005
1.363233e-003,-7.120844e-005
1.091773e-003,-5.176060e-005
7.287462e-004,-3.393342e-005
2.585945e-004,-2.064406e-005
-3.078238e-004,-1.351319e-005
-9.246442e-004,-6.058186e-006
-1.528662e-003,8.527692e-006
-2.067205e-003,2.813760e-005
-2.529254e-003,4.823369e-005
-2.966345e-003,6.281957e-005
-3.447194e-003,6.476436e-005
-3.960620e-003,5.552663e-005
-4.389934e-003,4.369587e-005
-4.600458e-003,3.235129e-005
-4.518128e-003,2.246531e-005
-4.150399e-003,2.035846e-005
-3.573119e-003,2.959618e-005
-2.885312e-003,4.774750e-005
-2.167523e-003,6.995045e-005
-1.466753e-003,9.004655e-005
-7.943438e-004,9.944633e-005
-1.554824e-004,9.393611e-005
4.378388e-004,7.302969e-005
9.622825e-004,4.888196e-005
1.386894e-003,3.607880e-005
1.675209e-003,4.013043e-005
1.801783e-003,5.876794e-005
1.776338e-003,8.340186e-005
1.648468e-003,1.104668e-004
1.485592e-003,1.385041e-004
1.333737e-003,1.641104e-004
1.196953e-003,1.783722e-004
1.041371e-003,1.783722e-004
8.355473e-004,1.658931e-004
5.871010e-004,1.448246e-004
3.237448e-004,1.161391e-004
5.730935e-005,8.648111e-005
-2.271153e-004,5.909207e-005
-5.280705e-004,3.753739e-005
-8.032573e-004,2.133085e-005
-9.831497e-004,8.041497e-006
-1.003408e-003,-6.058186e-006
-8.368049e-004,-2.177852e-005
-5.117019e-004,-3.506787e-005
-1.148040e-004,-4.689864e-005
2.490327e-004,-5.483985e-005
5.015305e-004,-5.840528e-005
6.214589e-004,-5.646050e-005
6.410688e-004,-4.641245e-005
6.208106e-004,-2.988179e-005
6.046041e-004,-1.027188e-005
6.067109e-004,7.231170e-006
6.109247e-004,1.322759e-005
5.976353e-004,2.369210e-006
5.595500e-004,-1.999580e-005
4.968306e-004,-4.138842e-005
4.213081e-004,-4.689864e-005
3.527545e-004,-3.360929e-005
3.013797e-004,-7.354708e-006
2.728562e-004,2.392390e-005
2.649151e-004,5.666109e-005
2.762596e-004,8.437427e-005
3.085106e-004,1.046324e-004
3.611819e-004,1.138701e-004
4.248735e-004,1.128978e-004
4.858101e-004,1.065772e-004
5.323229e-004,1.025256e-004
5.640878e-004,1.091703e-004
5.940698e-004,1.294284e-004
6.490100e-004,1.597346e-004
7.601869e-004,1.874478e-004
9.368383e-004,2.005751e-004
1.136989e-003,1.952270e-004
1.289007e-003,1.697827e-004
1.336654e-003,1.257009e-004
1.265507e-003,7.092283e-005
1.106035e-003,2.084466e-005
9.173904e-004,-9.947754e-006
7.477078e-004,-2.031993e-005
6.170831e-004,-1.562004e-005
5.164405e-004,-6.706447e-006
4.235770e-004,-1.520357e-006
3.166139e-004,-4.599598e-006
1.833962e-004,-1.221667e-005
2.489629e-005,-1.643037e-005
-1.459205e-004,-1.416145e-005
-3.003688e-004,-3.951337e-006
-4.100870e-004,1.274139e-005
-4.512515e-004,2.959618e-005
-4.313175e-004,4.207521e-005
-3.906391e-004,4.839576e-005
-3.763774e-004,4.564065e-005
-4.249970e-004,3.672705e-005
-5.295291e-004,2.878586e-005
-6.421645e-004,2.846173e-005
-7.227109e-004,3.332369e-005
-7.692236e-004,3.980630e-005
-7.980713e-004,4.304760e-005
-8.073090e-004,3.737532e-005
-7.569067e-004,2.214118e-005
-6.031067e-004,6.744974e-006
-3.365093e-004,1.002961e-007
1.338965e-005,1.558884e-006
3.919743e-004,7.717366e-006
7.381460e-004,1.436204e-005
9.896716e-004,2.052053e-005
1.102955e-003,2.376183e-005
1.077349e-003,2.635488e-005
9.583930e-004,3.024445e-005
8.045929e-004,3.786152e-005
6.587339e-004,5.082674e-005
5.331332e-004,6.460230e-005
4.132048e-004,7.610893e-005
2.806354e-004,8.145709e-005
1.271595e-004,7.610893e-005
-3.441962e-005,6.427816e-005
-1.686097e-004,5.163707e-005
-2.373254e-004,4.450619e-005
-2.128535e-004,4.531652e-005
-9.892161e-005,5.147500e-005
6.687120e-005,5.925414e-005
2.177540e-004,6.395403e-005
2.966798e-004,5.828174e-005
2.889007e-004,3.915804e-005
2.286124e-004,1.160693e-005
1.667035e-004,-1.659243e-005
1.480659e-004,-3.814712e-005
2.033302e-004,-4.916756e-005
3.391410e-004,-4.738484e-005
5.379952e-004,-3.847125e-005
7.457631e-004,-2.826113e-005
8.901634e-004,-1.707863e-005
8.963219e-004,-4.275467e-006
7.144844e-004,1.792748e-005
3.435167e-004,5.212327e-005
-1.713648e-004,9.393611e-005
-7.546377e-004,1.351007e-004
-1.327376e-003,1.667035e-004
-1.842258e-003,1.817755e-004
-2.287938e-003,1.803169e-004
-2.694074e-003,1.633001e-004
-3.105883e-003,1.359110e-004
-3.513155e-003,1.052807e-004
-3.832587e-003,7.011251e-005
-3.950572e-003,2.522042e-005
-3.787695e-003,-2.923352e-005
-3.340555e-003,-8.352540e-005
-2.683864e-003,-1.222590e-004
-1.936418e-003,-1.371690e-004
-1.238727e-003,-1.308485e-004
-7.078008e-004,-1.102662e-004
-3.964735e-004,-8.595638e-005
-2.708729e-004,-6.683268e-005
-2.360288e-004,-5.759496e-005
-1.943781e-004,-5.483985e-005
-8.628051e-005,-5.743289e-005
9.782569e-005,-6.180866e-005
3.284447e-004,-7.104637e-005
5.556603e-004,-8.919769e-005
7.386322e-004,-1.151281e-004
8.624502e-004,-1.366828e-004
9.368383e-004,-1.417068e-004
9.867544e-004,-1.293899e-004
1.039426e-003,-1.068628e-004
1.119648e-003,-8.255302e-005
1.244925e-003,-6.197072e-005
1.418659e-003,-4.106429e-005
1.625941e-003,-1.237873e-005
1.837599e-003,2.246531e-005
2.013603e-003,5.844381e-005
2.123159e-003,9.150514e-005
2.164972e-003,1.222975e-004
2.159624e-003,1.548727e-004
2.114407e-003,1.939304e-004
2.005175e-003,2.380122e-004
1.800000e-003,2.773941e-004
1.503095e-003,2.979764e-004
1.169240e-003,2.923041e-004
8.699052e-004,2.624841e-004
6.422033e-004,2.138645e-004
4.804620e-004,1.550348e-004
3.483787e-004,9.652916e-005
2.156472e-004,5.374392e-005
7.918817e-005,3.591673e-005
-4.025397e-005,3.850977e-005
-1.314967e-004,5.098881e-005
-2.062088e-004,6.249544e-005
-2.771934e-004,6.849186e-005
-3.454229e-004,6.881599e-005
-4.170558e-004,6.719534e-005
-5.097571e-004,6.589881e-005
-6.494574e-004,5.860587e-005
-8.321049e-004,4.126489e-005
-1.007946e-003,2.230324e-005
-1.111830e-003,9.013888e-006
-1.078444e-003,6.420843e-006
-8.648421e-004,1.436204e-005
-4.770199e-004,2.862379e-005
2.684107e-005,4.466826e-005
5.614947e-004,6.184718e-005
1.048015e-003,8.097089e-005
1.428383e-003,1.028497e-004
1.667916e-003,1.263492e-004
1.754459e-003,1.467694e-004
1.699843e-003,1.571416e-004
1.532753e-003,1.550348e-004
1.285765e-003,1.423936e-004
9.968025e-004,1.219734e-004
6.998985e-004,9.571883e-005
4.203357e-004,6.168512e-005
1.692965e-004,2.230324e-005
-5.273300e-005,-1.416145e-005
-2.486699e-004,-4.090223e-005
-4.206212e-004,-5.532604e-005
-5.716661e-004,-5.613637e-005
-7.068285e-004,-4.479180e-005
-8.325911e-004,-2.453363e-005
-9.402025e-004,1.883015e-006
-1.000977e-003,2.165498e-005
-9.925496e-004,2.732727e-005
-9.252925e-004,1.906194e-005
-8.400462e-004,7.485573e-007
-7.839716e-004,-2.129233e-005
-7.958023e-004,-4.025397e-005
-8.901243e-004,-5.013995e-005
-1.039062e-003,-5.013995e-005
-1.183462e-003,-4.414354e-005
-1.249099e-003,-4.203669e-005
-1.177466e-003,-4.787104e-005
-9.599745e-004,-5.889147e-005
-6.304957e-004,-6.407756e-005
-2.575835e-004,-5.808115e-005
7.708132e-005,-4.527799e-005
3.060797e-004,-3.053005e-005
4.038051e-004,-1.643037e-005
3.867882e-004,-3.303075e-006
2.910076e-004,5.286386e-006
1.615174e-004,5.448451e-006
4.223728e-005,-6.220251e-006
-4.317114e-005,-3.101624e-005
-9.503204e-005,-6.180866e-005
-1.326312e-004,-9.130454e-005
-1.723372e-004,-1.126972e-004
-2.092881e-004,-1.255003e-004
-2.186879e-004,-1.319829e-004
-1.682856e-004,-1.300381e-004
-4.479180e-005,-1.261486e-004
1.339663e-004,-1.250141e-004
3.227724e-004,-1.251762e-004
4.757621e-004,-1.250141e-004
5.699221e-004,-1.253383e-004
6.115729e-004,-1.261486e-004
6.165970e-004,-1.269589e-004
6.057385e-004,-1.245279e-004
5.935836e-004,-1.128592e-004
5.880735e-004,-8.692878e-005
5.906665e-004,-4.641245e-005
6.018489e-004,7.485573e-007
6.362069e-004,4.596478e-005
7.052467e-004,8.469840e-005
8.028101e-004,1.085220e-004
9.002115e-004,1.161391e-004
9.561240e-004,1.161391e-004
9.327867e-004,1.234320e-004
8.217717e-004,1.456350e-004
6.470652e-004,1.777239e-004
4.464283e-004,2.098128e-004
2.657254e-004,2.362295e-004
1.338042e-004,2.574600e-004
4.888196e-005,2.731804e-004
-9.947754e-006,2.887386e-004
-7.558420e-005,3.125622e-004
-1.663408e-004,3.443271e-004
-2.724935e-004,3.788470e-004
-3.544986e-004,4.083429e-004
-3.747567e-004,4.271425e-004
-3.326198e-004,4.360561e-004
-2.619593e-004,4.375147e-004
-2.021572e-004,4.341113e-004
-1.760647e-004,4.279528e-004
-1.935677e-004,4.187151e-004
-2.465631e-004,3.994293e-004
-3.086341e-004,3.624784e-004
-3.522297e-004,3.106175e-004
-3.608191e-004,2.457913e-004
-3.360231e-004,1.736723e-004
-2.932379e-004,9.750155e-005
-2.577456e-004,1.808955e-005
-2.504527e-004,-6.650855e-005
-2.671454e-004,-1.512687e-004
-2.789761e-004,-2.245222e-004
-2.436459e-004,-2.734659e-004
-1.412206e-004,-2.959930e-004
2.441009e-005,-2.927517e-004
2.231022e-004,-2.682798e-004
4.036430e-004,-2.311669e-004
5.263265e-004,-1.942160e-004
5.720289e-004,-1.661787e-004
5.401021e-004,-1.464067e-004
4.328148e-004,-1.331174e-004
2.470879e-004,-1.255003e-004
-8.975361e-006,-1.256624e-004
-2.935620e-004,-1.297140e-004
-5.400633e-004,-1.279313e-004
-6.914323e-004,-1.172350e-004
-7.321107e-004,-9.551824e-005
-6.859221e-004,-5.970180e-005
-5.933827e-004,-1.432352e-005
-4.929024e-004,3.186510e-005
-4.110594e-004,6.800567e-005
-3.577399e-004,8.599491e-005
-3.175477e-004,8.048469e-005
-2.535319e-004,5.666109e-005
-1.337657e-004,2.732727e-005
4.207521e-005,3.827798e-006
2.436845e-004,-8.813297e-006
4.302217e-004,-1.302699e-005
5.717048e-004,-1.254080e-005
6.475514e-004,-1.173047e-005
6.360448e-004,-1.237873e-005
5.302160e-004,-1.448558e-005
3.561578e-004,-2.437157e-005
1.710792e-004,-4.625038e-005
4.029249e-005,-7.704279e-005
-8.813297e-006,-1.060525e-004
1.225519e-005,-1.225831e-004
6.168512e-005,-1.235555e-004
8.080882e-005,-1.144799e-004
2.700314e-005,-1.031353e-004
-1.083214e-004,-9.649063e-005
-2.963171e-004,-9.892161e-005
-4.839887e-004,-1.099420e-004
-6.194753e-004,-1.177212e-004
-6.590192e-004,-1.094559e-004
-5.856036e-004,-8.352540e-005
-4.225660e-004,-4.430560e-005
-2.191741e-004,4.244267e-007
-1.707863e-005,4.985435e-005
1.618415e-004,1.009049e-004
3.122381e-004,1.543865e-004
4.266563e-004,2.065715e-004
5.033132e-004,2.535705e-004
5.426951e-004,2.918179e-004
5.495019e-004,3.185587e-004
5.344298e-004,3.326584e-004
4.935893e-004,3.307136e-004
4.034809e-004,3.047831e-004
2.412535e-004,2.568118e-004
1.290346e-005,1.966855e-004
-2.410529e-004,1.393144e-004
-4.744269e-004,9.490851e-005
-6.674466e-004,6.606088e-005
-8.257844e-004,4.920609e-005
-9.520333e-004,4.126489e-005
-1.027880e-003,3.510640e-005
-1.006973e-003,2.765140e-005
-8.397221e-004,1.614476e-005
-5.117019e-004,7.485573e-007
-6.780506e-005,-1.318906e-005
4.025085e-004,-2.145439e-005
8.125340e-004,-2.258885e-005
1.122727e-003,-1.983374e-005
1.345568e-003,-1.918548e-005
1.495478e-003,-1.967167e-005
1.571163e-003,-1.853721e-005
1.561601e-003,-1.934754e-005
1.462579e-003,-2.194059e-005
1.293545e-003,-2.907146e-005
1.086749e-003,-3.425755e-005
8.606674e-004,-3.312309e-005
6.107626e-004,-2.631635e-005
3.081865e-004,-2.258885e-005
-7.363942e-005,-2.501983e-005
-5.014918e-004,-2.647842e-005
-8.779694e-004,-1.643037e-005
-1.107940e-003,7.069104e-006
-1.150401e-003,3.251336e-005
-1.034200e-003,5.098881e-005
-8.593319e-004,5.860587e-005
-7.449138e-004,5.374392e-005
-7.562584e-004,4.013043e-005
-8.836417e-004,2.846173e-005
-1.065155e-003,2.489629e-005
-1.222682e-003,2.554455e-005
-1.309063e-003,2.376183e-005
-1.320084e-003,2.181705e-005
-1.259471e-003,2.214118e-005
-1.137598e-003,2.522042e-005
-9.544643e-004,2.813760e-005
-7.094215e-004,2.781346e-005
-4.115455e-004,2.684107e-005
-8.174268e-005,2.797553e-005
2.375260e-004,3.105477e-005
4.848377e-004,3.024445e-005
6.151383e-004,2.424803e-005
6.200003e-004,1.889987e-005
5.284333e-004,1.873781e-005
3.809539e-004,2.603075e-005
2.120818e-004,3.591673e-005
4.304760e-005,4.110282e-005
-1.104282e-004,4.077869e-005
-2.397564e-004,4.045456e-005
-3.609812e-004,4.029249e-005
-5.128363e-004,3.364782e-005
-7.128249e-004,1.776542e-005
-9.230236e-004,-3.141010e-006
-1.060779e-003,-1.983374e-005
-1.050083e-003,-2.437157e-005
-8.693800e-004,-1.189254e-005
-5.601594e-004,1.646889e-005
-1.989159e-004,5.196120e-005
1.359110e-004,8.307774e-005
3.825745e-004,1.033359e-004
5.080131e-004,1.096565e-004
5.200059e-004,1.026876e-004
4.598797e-004,8.761556e-005
3.764160e-004,6.719534e-005
3.132105e-004,4.596478e-005
2.950592e-004,3.186510e-005
3.226103e-004,2.586868e-005
3.848434e-004,2.424803e-005
4.730070e-004,2.424803e-005
5.879113e-004,2.862379e-005
7.311772e-004,3.802358e-005
8.893531e-004,5.179913e-005
1.034726e-003,6.962632e-005
1.145417e-003,8.939829e-005
1.212512e-003,1.052807e-004
1.235849e-003,1.112771e-004
1.219967e-003,1.077117e-004
1.166809e-003,9.669123e-005
1.083832e-003,8.210535e-005
9.875648e-004,6.914012e-005
9.031286e-004,6.249544e-005
8.431644e-004,6.427816e-005
8.042687e-004,7.238143e-005
7.665075e-004,8.323980e-005
7.110811e-004,9.280166e-005
6.349103e-004,9.750155e-005
5.465847e-004,9.798775e-005
4.580969e-004,9.814982e-005
3.772264e-004,9.993253e-005
3.174242e-004,1.018773e-004
3.008935e-004,9.750155e-005
3.469201e-004,7.724339e-005
4.689553e-004,4.142695e-005
6.676475e-004,1.396819e-006
9.178766e-004,-3.360929e-005
1.172968e-003,-6.213279e-005
1.375874e-003,-8.595638e-005
1.474248e-003,-1.083214e-004
1.437459e-003,-1.289037e-004
1.277014e-003,-1.412206e-004
1.049960e-003,-1.374931e-004
8.314957e-004,-1.149661e-004
6.684579e-004,-7.817725e-005
5.572810e-004,-3.360929e-005
4.662002e-004,9.338019e-006
3.757677e-004,4.402000e-005
2.944109e-004,7.448828e-005
2.367157e-004,1.059289e-004
2.031682e-004,1.394765e-004
1.775618e-004,1.730240e-004
1.495245e-004,1.973338e-004
1.380179e-004,2.083542e-004
1.517934e-004,2.031682e-004
1.561692e-004,1.788584e-004
9.118101e-005,1.398006e-004
-7.137050e-005,9.069480e-005
-3.154408e-004,3.964423e-005
-5.856036e-004,-3.303075e-006
-8.087676e-004,-2.777494e-005
-9.163789e-004,-2.939559e-005
-8.744040e-004,-1.254080e-005
-7.008321e-004,1.112074e-005
-4.621099e-004,2.975825e-005
-2.323013e-004,4.094075e-005
-6.812920e-005,4.515445e-005
-1.358292e-006,4.499239e-005
-3.782299e-005,4.304760e-005
-1.660166e-004,3.591673e-005
-3.656811e-004,2.408596e-005
-6.081308e-004,1.176900e-005
-8.590078e-004,7.231170e-006
-1.089303e-003,8.689757e-006
-1.291398e-003,9.662150e-006
-1.474856e-003,4.638125e-006
-1.617149e-003,-8.975361e-006
-1.670469e-003,-2.712668e-005
-1.614880e-003,-4.592625e-005
-1.480042e-003,-6.407756e-005
-1.320246e-003,-7.736692e-005
-1.175197e-003,-8.352540e-005
-1.045059e-003,-8.255302e-005
-8.977414e-004,-7.266703e-005
-7.092595e-004,-5.095028e-005
-4.854473e-004,-2.064406e-005
-2.635799e-004,7.879431e-006
-1.058904e-004,2.943412e-005
-7.444974e-005,4.483032e-005
-1.890299e-004,5.293359e-005
-4.235384e-004,5.471631e-005
-7.142835e-004,5.179913e-005
-9.846083e-004,4.661304e-005
-1.173252e-003,4.596478e-005
-1.260768e-003,5.228533e-005
-1.267736e-003,6.233338e-005
-1.256068e-003,6.881599e-005
-1.286050e-003,7.238143e-005
-1.372269e-003,7.497447e-005
-1.487497e-003,7.708132e-005
-1.598512e-003,7.562274e-005
-1.685865e-003,6.541262e-005
-1.741616e-003,4.807163e-005
-1.765439e-003,2.716520e-005
-1.760091e-003,1.290346e-005
-1.722816e-003,1.112074e-005
-1.636273e-003,2.197911e-005
-1.454760e-003,3.688912e-005
-1.131440e-003,4.953022e-005
-6.494574e-004,6.492643e-005
-4.106429e-005,8.567078e-005
6.143280e-004,1.164632e-004
1.231635e-003,1.534141e-004
1.752839e-003,1.895547e-004
2.150872e-003,2.124059e-004
2.431733e-003,2.128921e-004
2.619243e-003,1.884202e-004
2.739983e-003,1.432040e-004
2.806106e-003,8.518459e-005
2.812588e-003,2.052053e-005
2.722966e-003,-4.495386e-005
2.485863e-003,-1.073490e-004
2.094960e-003,-1.605064e-004
1.633720e-003,-1.972952e-004
1.234066e-003,-2.180396e-004
9.925888e-004,-2.279256e-004
9.300315e-004,-2.292221e-004
9.987473e-004,-2.227395e-004
1.125158e-003,-2.109087e-004
1.231798e-003,-1.940539e-004
1.262104e-003,-1.754164e-004
1.187391e-003,-1.556445e-004
1.009444e-003,-1.314967e-004
7.425218e-004,-9.973194e-005
4.117463e-004,-5.921561e-005
5.504044e-005,-1.027188e-005
-2.921034e-004,4.320967e-005
-6.031067e-004,9.863601e-005
-8.599802e-004,1.516314e-004
-1.060941e-003,1.947408e-004
-1.217820e-003,2.229401e-004
-1.346500e-003,2.321778e-004
-1.447953e-003,2.256952e-004
-1.496573e-003,2.080301e-004
-1.455732e-003,1.833962e-004
-1.316518e-003,1.482280e-004
-1.093030e-003,1.012291e-004
-8.077951e-004,5.066468e-005
-4.833405e-004,1.014835e-005
-1.556445e-004,-1.351319e-005
1.289422e-004,-1.886135e-005
3.245551e-004,-8.002969e-006
4.086670e-004,1.501031e-005
4.059119e-004,4.061663e-005
3.747953e-004,6.184718e-005
3.769022e-004,7.286762e-005
4.362181e-004,6.946425e-005
5.310263e-004,5.795762e-005
6.230795e-004,4.628891e-005
6.914712e-004,4.061663e-005
7.366874e-004,4.110282e-005
7.712073e-004,4.369587e-005
8.034584e-004,4.904402e-005
8.363576e-004,6.200925e-005
8.692570e-004,8.340186e-005
9.049113e-004,1.057669e-004
9.415381e-004,1.175977e-004
9.762202e-004,1.125736e-004
9.959922e-004,9.507057e-005
9.791374e-004,7.902610e-005
9.023183e-004,7.837785e-005
7.538663e-004,9.750155e-005
5.443157e-004,1.312111e-004
2.981384e-004,1.683241e-004
4.839576e-005,1.987924e-004
-1.661787e-004,2.133783e-004
-3.240303e-004,2.091646e-004
-4.249970e-004,1.908512e-004
-4.807474e-004,1.667035e-004
-5.050572e-004,1.470936e-004
-5.068399e-004,1.320215e-004
-4.860956e-004,1.167873e-004
-4.454172e-004,9.426025e-005
-3.890185e-004,6.103685e-005
-3.297026e-004,2.376183e-005
-2.796244e-004,-5.409925e-006
-2.374874e-004,-2.194059e-005
-1.872472e-004,-3.150244e-005
-1.041077e-004,-3.863331e-005
4.547859e-005,-4.284701e-005
2.807975e-004,-4.365734e-005
5.882355e-004,-3.425755e-005
9.240351e-004,-1.399939e-005
1.235039e-003,1.128280e-005
1.482837e-003,3.364782e-005
1.654303e-003,5.001641e-005
1.747004e-003,6.281957e-005
1.759159e-003,7.140904e-005
1.694495e-003,7.238143e-005
1.568894e-003,5.990240e-005
1.407963e-003,3.397195e-005
1.235363e-003,5.864920e-007
1.066977e-003,-3.652646e-005
9.006977e-004,-7.412562e-005
7.099466e-004,-1.123730e-004
4.670106e-004,-1.540238e-004
1.705930e-004,-1.969711e-004
-1.692580e-004,-2.350565e-004
-5.397392e-004,-2.635799e-004
-9.402025e-004,-2.783279e-004
-1.361896e-003,-2.796244e-004
-1.786994e-003,-2.637420e-004
-2.191671e-003,-2.284118e-004
-2.561019e-003,-1.791439e-004
-2.883529e-003,-1.272830e-004
-3.140890e-003,-8.498399e-005
-3.310897e-003,-5.678463e-005
-3.372482e-003,-4.009190e-005
-3.321755e-003,-2.890940e-005
-3.176220e-003,-2.339917e-005
-2.968127e-003,-2.194059e-005
-2.727946e-003,-2.226472e-005
-2.451138e-003,-1.886135e-005
-2.098808e-003,-2.330684e-006
-1.616663e-003,2.910999e-005
-9.812050e-004,6.427816e-005
-2.376495e-004,8.907416e-005
4.984512e-004,9.814982e-005
1.076863e-003,9.361198e-005
1.399535e-003,8.550872e-005
1.459824e-003,8.275361e-005
1.330334e-003,9.134307e-005
1.121917e-003,1.072255e-004
9.308418e-004,1.237561e-004
8.109134e-004,1.375317e-004
7.661833e-004,1.513072e-004
7.554870e-004,1.655690e-004
7.169154e-004,1.780480e-004
5.971491e-004,1.842065e-004
3.751195e-004,1.801549e-004
8.161915e-005,1.636242e-004
-2.079916e-004,1.373696e-004
-4.248349e-004,1.020394e-004
-5.356875e-004,6.346784e-005
-5.411978e-004,2.619281e-005
-4.622720e-004,-5.247859e-006
-3.188442e-004,-2.194059e-005
-1.295519e-004,-1.529591e-005
8.712937e-005,8.041497e-006
2.976522e-004,3.656499e-005
4.749518e-004,5.763348e-005
6.140039e-004,6.589881e-005
7.376598e-004,6.103685e-005
8.733086e-004,4.985435e-005
1.044126e-003,3.850977e-005
1.249949e-003,2.910999e-005
1.463551e-003,1.906194e-005
1.638096e-003,8.689757e-006
1.730149e-003,-1.682422e-006
1.722046e-003,-4.113402e-006
1.626752e-003,8.689757e-006
1.470034e-003,4.029249e-005
1.278797e-003,8.421220e-005
1.078159e-003,1.297525e-004
8.843290e-004,1.707551e-004
7.020054e-004,2.018716e-004
5.313505e-004,2.182402e-004
3.704196e-004,2.187264e-004
2.206712e-004,2.055991e-004
7.870197e-005,1.833962e-004
-6.197072e-005,1.603829e-004
-1.916230e-004,1.414213e-004
-2.878897e-004,1.261871e-004
-3.266234e-004,1.132219e-004
-3.110651e-004,1.067393e-004
-2.652006e-004,1.073875e-004
-2.222533e-004,1.120874e-004
-2.083157e-004,1.185700e-004
-2.378116e-004,1.312111e-004
-3.079858e-004,1.530900e-004
-4.014975e-004,1.842065e-004
-4.799371e-004,2.182402e-004
-5.042469e-004,2.469258e-004
-4.609755e-004,2.577842e-004
-3.630880e-004,2.407673e-004
-2.378116e-004,1.997648e-004
-1.139937e-004,1.438522e-004
-9.623623e-006,8.534666e-005
7.594687e-005,3.462021e-005
1.482280e-004,-2.006553e-006
2.114335e-004,-2.356124e-005
2.597290e-004,-3.231276e-005
2.780423e-004,-3.053005e-005
2.658874e-004,-2.631635e-005
2.347709e-004,-2.307504e-005
1.950649e-004,-2.388537e-005
1.493625e-004,-3.069211e-005
1.043083e-004,-4.284701e-005
6.654707e-005,-6.067420e-005
3.073064e-005,-8.158062e-005
-2.372330e-005,-1.044318e-004
-1.318209e-004,-1.292278e-004
-3.214373e-004,-1.548341e-004
-5.773383e-004,-1.797922e-004
-8.398841e-004,-2.026434e-004
-1.039224e-003,-2.128535e-004
-1.121716e-003,-2.028055e-004
-1.068234e-003,-1.770371e-004
-8.962828e-004,-1.451102e-004
-6.612882e-004,-1.118868e-004
-4.318037e-004,-8.417366e-005
-2.601766e-004,-6.991192e-005
-1.608306e-004,-6.667061e-005
-1.170729e-004,-6.634648e-005
-9.697682e-005,-6.472583e-005
-7.412562e-005,-6.504996e-005
-3.571614e-005,-6.991192e-005
1.889987e-005,-7.882551e-005
9.490851e-005,-8.595638e-005
1.961993e-004,-8.449779e-005
3.159656e-004,-6.683268e-005
4.370285e-004,-3.539201e-005
5.431813e-004,2.207145e-006
6.271311e-004,3.526847e-005
6.934159e-004,5.455424e-005
7.438183e-004,6.200925e-005
7.713694e-004,6.265751e-005
7.762313e-004,6.395403e-005
7.640765e-004,6.881599e-005
7.300427e-004,7.432621e-005
6.736440e-004,7.740545e-005
6.128695e-004,7.675719e-005
5.739737e-004,7.546067e-005
5.644119e-004,8.080882e-005
5.618188e-004,9.328785e-005
5.144957e-004,1.138701e-004
3.512959e-004,1.352628e-004
1.031041e-005,1.492004e-004
-4.818819e-004,1.511452e-004
-1.008756e-003,1.368834e-004
-1.441957e-003,1.086841e-004
-1.708878e-003,6.849186e-005
-1.815193e-003,2.505835e-005
-1.814707e-003,-1.351319e-005
-1.767222e-003,-4.284701e-005
-1.687648e-003,-5.889147e-005
-1.552323e-003,-5.808115e-005
-1.328187e-003,-4.057810e-005
-1.011835e-003,-1.156841e-005
-6.371404e-004,1.971020e-005
-2.507768e-004,4.369587e-005
1.022014e-004,5.682316e-005
3.942432e-004,6.298164e-005
6.298863e-004,6.751947e-005
8.293889e-004,7.643306e-005
9.938853e-004,9.263960e-005
1.104090e-003,1.164632e-004
1.143310e-003,1.466074e-004
1.105873e-003,1.832341e-004
1.002151e-003,2.182402e-004
8.643949e-004,2.420638e-004
7.522457e-004,2.417397e-004
7.049225e-004,2.167816e-004
7.195084e-004,1.749688e-004
7.575939e-004,1.239182e-004
7.746107e-004,7.059870e-005
7.460872e-004,2.181705e-005
6.582477e-004,-1.886135e-005
5.034753e-004,-5.127441e-005
2.939247e-004,-7.347736e-005
6.038860e-005,-8.303921e-005
-1.506204e-004,-7.963584e-005
-2.903207e-004,-6.812920e-005
-3.374817e-004,-5.370539e-005
-3.086341e-004,-4.057810e-005
-2.288980e-004,-3.263690e-005
-1.161005e-004,-2.793700e-005
1.371378e-005,-2.064406e-005
1.235941e-004,-9.623623e-006
1.702689e-004,2.855406e-006
1.349386e-004,1.209313e-005
4.320967e-005,1.209313e-005
-5.467778e-005,5.864920e-007
-1.089697e-004,-1.853721e-005
-9.924574e-005,-3.522994e-005
-3.636440e-005,-4.479180e-005
5.682316e-005,-4.576419e-005
1.671896e-004,-4.155049e-005
2.919800e-004,-3.296103e-005
4.347596e-004,-2.161646e-005
5.887217e-004,-1.108221e-005
7.405770e-004,-8.165034e-006
8.658536e-004,-2.113026e-005
9.451036e-004,-4.835723e-005
9.575827e-004,-7.833932e-005
8.872462e-004,-9.454584e-005
7.350668e-004,-9.211487e-005
5.229231e-004,-7.526008e-005
2.978143e-004,-4.916756e-005
1.221355e-004,-1.934754e-005
4.888196e-005,1.112074e-005
9.037068e-005,4.223728e-005
2.156472e-004,7.529860e-005
3.657197e-004,1.088461e-004
4.764104e-004,1.427178e-004
5.018546e-004,1.709171e-004
4.354078e-004,1.851789e-004
3.052693e-004,1.871237e-004
1.480659e-004,1.853410e-004
-1.869928e-005,1.833962e-004
-1.959987e-004,1.759412e-004
-3.839945e-004,1.594105e-004
-5.637249e-004,1.315353e-004
-7.003458e-004,9.426025e-005
-7.765166e-004,5.163707e-005
-7.985575e-004,7.879431e-006
-7.894817e-004,-2.664048e-005
-7.638755e-004,-4.300908e-005
-7.269246e-004,-4.511592e-005
-6.637191e-004,-4.122636e-005
-5.407116e-004,-3.911951e-005
-3.264613e-004,-4.333321e-005
-1.610623e-005,-5.435365e-005
3.428685e-004,-6.958779e-005
6.689440e-004,-8.903562e-005
8.702294e-004,-1.139937e-004
8.757396e-004,-1.384655e-004
6.830437e-004,-1.558065e-004
3.699334e-004,-1.609926e-004
2.992031e-005,-1.494860e-004
-2.737901e-004,-1.243659e-004
-5.136466e-004,-8.854943e-005
-6.823567e-004,-3.911951e-005
-7.810544e-004,2.570661e-005
-8.283774e-004,1.028497e-004
-8.556044e-004,1.859892e-004
-8.940139e-004,2.650771e-004
-9.473334e-004,3.354135e-004
-9.917392e-004,3.926225e-004
-1.012160e-003,4.336251e-004
-1.025773e-003,4.540453e-004
-1.068072e-003,4.483731e-004
-1.177628e-003,4.159599e-004
-1.363679e-003,3.606957e-004
-1.575336e-003,2.880904e-004
-1.718764e-003,2.090025e-004
-1.723140e-003,1.338042e-004
-1.574364e-003,7.481241e-005
-1.309873e-003,3.559260e-005
-9.854187e-004,1.176900e-005
-6.504298e-004,-1.520357e-006
-3.580640e-004,-7.840905e-006
-1.695821e-004,-1.318906e-005
-1.235555e-004,-2.728874e-005
-1.979435e-004,-5.451571e-005
-3.089582e-004,-8.530812e-005
-3.600088e-004,-1.099420e-004
-2.875656e-004,-1.185315e-004
-9.195280e-005,-1.050801e-004
1.639483e-004,-7.736692e-005
4.049395e-004,-4.770897e-005
5.882355e-004,-2.258885e-005
7.089743e-004,-2.654814e-006
7.872518e-004,7.717366e-006
8.464057e-004,1.720949e-006
9.070182e-004,-2.453363e-005
9.700616e-004,-6.586029e-005
1.024192e-003,-1.034594e-004
1.061629e-003,-1.214487e-004
1.095662e-003,-1.157764e-004
1.141365e-003,-9.227693e-005
1.196305e-003,-6.586029e-005
1.244114e-003,-4.608832e-005
1.260321e-003,-3.879538e-005
1.230339e-003,-3.879538e-005
1.157247e-003,-3.652646e-005
1.052553e-003,-2.469570e-005
9.300315e-004,-2.654814e-006
8.088066e-004,2.829966e-005
7.016812e-004,6.298164e-005
6.172452e-004,9.750155e-005
5.640878e-004,1.321835e-004
5.410744e-004,1.676758e-004
5.418848e-004,1.989545e-004
5.545259e-004,2.187264e-004
5.678153e-004,2.227780e-004
5.814287e-004,2.159713e-004
6.018489e-004,2.122438e-004
6.352345e-004,2.209953e-004
6.934159e-004,2.407673e-004
7.880622e-004,2.644288e-004
9.099354e-004,2.801492e-004
1.027271e-003,2.796630e-004
1.108790e-003,2.572980e-004
1.137799e-003,2.177540e-004
1.113328e-003,1.650828e-004
1.057901e-003,1.023635e-004
9.956680e-004,3.267542e-005
9.451036e-004,-3.863331e-005
9.271143e-004,-1.008664e-004
9.455898e-004,-1.378173e-004
9.794615e-004,-1.407345e-004
9.932371e-004,-1.240417e-004
9.464001e-004,-1.109144e-004
8.023239e-004,-1.193418e-004
5.323229e-004,-1.558065e-004
1.432040e-004,-2.066950e-004
-3.262992e-004,-2.496423e-004
-8.133054e-004,-2.616351e-004
-1.278595e-003,-2.379736e-004
-1.742426e-003,-1.940539e-004
-2.257632e-003,-1.582375e-004
-2.822755e-003,-1.502963e-004
-3.339096e-003,-1.723372e-004
-3.657232e-003,-2.104225e-004
-3.652370e-003,-2.472113e-004
-3.293232e-003,-2.634179e-004
-2.644968e-003,-2.465631e-004
-1.830589e-003,-1.942160e-004
-1.000167e-003,-1.152902e-004
-2.976136e-004,-2.501983e-005
1.856651e-004,6.233338e-005
4.465903e-004,1.388282e-004
5.595500e-004,2.026820e-004
6.196762e-004,2.598910e-004
6.896884e-004,3.182345e-004
7.864415e-004,3.749574e-004
8.900014e-004,4.167703e-004
9.570965e-004,4.248735e-004
9.433209e-004,3.944053e-004
8.293889e-004,3.308756e-004
6.402585e-004,2.485465e-004
4.436731e-004,1.652449e-004
3.099692e-004,9.669123e-005
2.853353e-004,4.304760e-005
3.673404e-004,-6.176923e-008
5.088234e-004,-3.668853e-005
6.375034e-004,-6.780506e-005
6.937401e-004,-9.422171e-005
6.540340e-004,-1.146419e-004
5.415606e-004,-1.237176e-004
4.123945e-004,-1.211245e-004
3.284447e-004,-1.144799e-004
3.218000e-004,-1.102662e-004
3.801435e-004,-1.083214e-004
4.637692e-004,-1.073490e-004
5.401021e-004,-1.094559e-004
6.005524e-004,-1.154523e-004
6.516030e-004,-1.258244e-004
7.127018e-004,-1.413827e-004
8.065376e-004,-1.590478e-004
9.316522e-004,-1.746061e-004
1.063087e-003,-1.817370e-004
1.169726e-003,-1.697441e-004
1.230339e-003,-1.376552e-004
1.230015e-003,-8.935975e-005
1.151089e-003,-2.890940e-005
9.888613e-004,3.834771e-005
7.430080e-004,1.064151e-004
4.143393e-004,1.699447e-004
2.278944e-005,2.218057e-004
-3.854531e-004,2.590807e-004
-7.578791e-004,2.804733e-004
-1.057376e-003,2.869559e-004
-1.274705e-003,2.790147e-004
-1.438553e-003,2.600531e-004
-1.605156e-003,2.350950e-004
-1.811628e-003,2.120818e-004
-2.042733e-003,1.983062e-004
-2.241750e-003,1.978200e-004
-2.350657e-003,2.083542e-004
-2.343365e-003,2.226160e-004
-2.243532e-003,2.297469e-004
-2.107883e-003,2.229401e-004
-1.990872e-003,1.996027e-004
-1.928963e-003,1.642725e-004
-1.908219e-003,1.231079e-004
-1.872888e-003,8.097089e-005
-1.777270e-003,4.175108e-005
-1.610829e-003,1.257933e-005
-1.391554e-003,-8.720958e-007
-1.155101e-003,-1.034161e-006
-9.267511e-004,6.258778e-006
-7.087733e-004,1.419998e-005
-5.039228e-004,2.116879e-005
-3.165753e-004,2.927205e-005
-1.548341e-004,3.883391e-005
-3.393342e-005,5.017848e-005
3.802358e-005,6.038860e-005
6.136099e-005,6.492643e-005
5.568870e-005,6.249544e-005
5.844381e-005,5.811968e-005
1.057669e-004,5.925414e-005
2.196988e-004,6.525056e-005
3.953777e-004,6.800567e-005
6.060626e-004,5.941620e-005
8.138305e-004,3.413401e-005
9.875648e-004,-5.085794e-006
1.106359e-003,-5.013995e-005
1.161461e-003,-9.292519e-005
1.171995e-003,-1.292278e-004
1.170050e-003,-1.566169e-004
1.178154e-003,-1.752544e-004
1.195819e-003,-1.838438e-004
1.205867e-003,-1.780095e-004
1.197440e-003,-1.562927e-004
1.177830e-003,-1.253383e-004
1.169564e-003,-9.243900e-005
1.183502e-003,-5.775702e-005
1.202950e-003,-1.886135e-005
1.194036e-003,2.149292e-005
1.134558e-003,5.649903e-005
1.025488e-003,7.821578e-005
9.003735e-004,8.469840e-005
8.089686e-004,8.437427e-005
7.951930e-004,8.405013e-005
8.637467e-004,8.388807e-005
9.796235e-004,8.567078e-005
1.097769e-003,9.069480e-005
1.192254e-003,9.669123e-005
1.257080e-003,9.896014e-005
1.297596e-003,9.069480e-005
1.306510e-003,7.189524e-005
1.256269e-003,4.726130e-005
1.130507e-003,2.327564e-005
9.465622e-004,6.258778e-006
7.514353e-004,-1.844488e-006
5.845079e-004,-1.682422e-006
4.626348e-004,1.002961e-007
3.875985e-004,-2.978945e-006
3.585888e-004,-1.059601e-005
3.697713e-004,-2.275091e-005
4.201737e-004,-4.057810e-005
5.057441e-004,-5.872941e-005
6.083316e-004,-6.618442e-005
7.036260e-004,-5.532604e-005
7.640765e-004,-2.988179e-005
7.679660e-004,4.638125e-006
6.943883e-004,4.628891e-005
5.217887e-004,9.555677e-005
2.545429e-004,1.511452e-004
-5.030201e-005,2.026820e-004
-3.170615e-004,2.378501e-004
-4.888507e-004,2.496809e-004
-5.527044e-004,2.383363e-004
-5.361738e-004,2.102990e-004
-4.906334e-004,1.738343e-004
-4.658374e-004,1.359110e-004
-4.839887e-004,1.002567e-004
-5.418460e-004,6.816773e-005
-6.134789e-004,3.591673e-005
-6.650157e-004,-8.720958e-007
-6.723086e-004,-4.738484e-005
-6.270924e-004,-9.649063e-005
-5.334187e-004,-1.316588e-004
-4.032802e-004,-1.404103e-004
-2.661730e-004,-1.232314e-004
-1.796301e-004,-9.098041e-005
-2.100984e-004,-5.937767e-005
-3.862634e-004,-3.474375e-005
-6.719845e-004,-1.497178e-005
-9.844463e-004,3.827798e-006
-1.246830e-003,2.278944e-005
-1.416837e-003,4.158902e-005
-1.492845e-003,6.298164e-005
-1.504676e-003,8.777764e-005
-1.482635e-003,1.078737e-004
-1.444063e-003,1.158149e-004
-1.402575e-003,1.009049e-004
-1.352172e-003,5.974033e-005
-1.265630e-003,4.962256e-006
-1.108588e-003,-4.365734e-005
-8.818590e-004,-7.072224e-005
-6.296854e-004,-7.120844e-005
-4.215936e-004,-5.078821e-005
-3.353749e-004,-2.161646e-005
-4.309934e-004,2.693341e-006
-6.945115e-004,1.452411e-005
-1.010539e-003,1.063454e-005
-1.229975e-003,-4.275467e-006
-1.251530e-003,-1.999580e-005
-1.066938e-003,-2.777494e-005
-7.408622e-004,-2.599222e-005
-3.692465e-004,-1.464765e-005
-4.041603e-005,3.179537e-006
1.893926e-004,1.792748e-005
2.970040e-004,2.084466e-005
2.999211e-004,1.371378e-005
2.407673e-004,3.179537e-006
1.636242e-004,-5.247859e-006
8.534666e-005,-8.165034e-006
-2.978945e-006,-5.571990e-006
-1.164247e-004,4.800190e-006
-2.541802e-004,1.792748e-005
-3.891806e-004,2.862379e-005
-4.925782e-004,3.348575e-005
-5.515699e-004,3.494434e-005
-5.577284e-004,3.640293e-005
-4.982505e-004,4.013043e-005
-3.548227e-004,4.191315e-005
-1.274451e-004,3.607880e-005
1.584381e-004,2.651694e-005
4.587452e-004,2.278944e-005
7.353909e-004,3.607880e-005
9.556379e-004,6.751947e-005
1.097607e-003,1.098185e-004
1.151251e-003,1.508210e-004
1.136341e-003,1.762653e-004
1.101011e-003,1.722137e-004
1.097607e-003,1.406109e-004
1.156599e-003,9.199134e-005
1.282038e-003,4.790957e-005
1.446696e-003,2.052053e-005
1.600497e-003,8.851824e-006
1.691416e-003,5.448451e-006
1.682340e-003,5.448451e-006
1.569704e-003,1.112074e-005
1.384301e-003,2.343770e-005
1.181233e-003,4.158902e-005
1.009768e-003,6.298164e-005
8.971322e-004,8.486046e-005
8.472161e-004,1.075496e-004
8.420299e-004,1.299146e-004
8.553193e-004,1.482280e-004
8.598571e-004,1.584381e-004
8.287406e-004,1.568175e-004
7.522457e-004,1.443384e-004
6.413930e-004,1.239182e-004
5.224369e-004,1.000946e-004
4.222805e-004,7.302969e-005
3.535648e-004,5.017848e-005
3.044590e-004,3.688912e-005
2.551911e-004,3.510640e-005
1.986303e-004,3.867184e-005
1.446626e-004,4.061663e-005
1.101426e-004,3.737532e-005
1.070634e-004,3.397195e-005
1.180839e-004,4.013043e-005
1.117633e-004,5.455424e-005
6.865393e-005,6.703327e-005
-2.654814e-006,7.076077e-005
-7.785312e-005,6.670914e-005
-1.442999e-004,6.265751e-005
-2.078295e-004,6.427816e-005
-2.773555e-004,7.448828e-005
-3.442885e-004,9.296372e-005
-3.815635e-004,1.143563e-004
-3.720016e-004,1.315353e-004
-3.206269e-004,1.391524e-004
-2.481837e-004,1.349386e-004
-1.768750e-004,1.239182e-004
-1.225831e-004,1.132219e-004
-9.276313e-005,1.090082e-004
-9.195280e-005,1.107909e-004
-1.237176e-004,1.154908e-004
-1.739578e-004,1.137081e-004
-2.198223e-004,1.000946e-004
-2.345703e-004,7.302969e-005
-2.024813e-004,3.980630e-005
-1.342519e-004,1.193106e-005
-5.435365e-005,-5.896120e-006
5.772582e-006,-1.853721e-005
2.214118e-005,-3.198863e-005
3.503668e-006,-4.706071e-005
-1.821308e-005,-6.375343e-005
-2.809907e-005,-8.125648e-005
-4.544005e-005,-9.697682e-005
-1.000561e-004,-1.070249e-004
-1.990780e-004,-1.073490e-004
-3.160891e-004,-9.908367e-005
-4.117076e-004,-8.725291e-005
-4.702132e-004,-7.704279e-005
-5.047331e-004,-7.412562e-005
-5.411978e-004,-8.271508e-005
-5.854416e-004,-1.013526e-004
-6.287130e-004,-1.242038e-004
-6.604778e-004,-1.451102e-004
-6.596675e-004,-1.580754e-004
-6.193132e-004,-1.621271e-004
-5.595111e-004,-1.579134e-004
-5.183466e-004,-1.404103e-004
-5.178603e-004,-1.062145e-004
-5.467080e-004,-5.565017e-005
-5.570801e-004,5.286386e-006
-5.060296e-004,6.622294e-005
-3.791325e-004,1.166253e-004
-2.023193e-004,1.483901e-004
-2.647842e-005,1.577899e-004
9.053274e-005,1.492004e-004
1.104668e-004,1.282940e-004
3.591673e-005,1.009049e-004
-9.324932e-005,7.319175e-005
-2.104225e-004,5.131293e-005
-2.642282e-004,3.786152e-005
-2.410529e-004,2.975825e-005
-1.585616e-004,2.797553e-005
-5.386745e-005,3.526847e-005
2.522042e-005,4.953022e-005
3.267542e-005,6.670914e-005
-5.013995e-005,7.983643e-005
-2.079916e-004,8.097089e-005
-3.963114e-004,6.768153e-005
-5.747453e-004,4.564065e-005
-7.398898e-004,2.408596e-005
-9.108687e-004,1.063454e-005
-1.082820e-003,7.717366e-006
-1.210365e-003,1.112074e-005
-1.240347e-003,9.338019e-006
-1.139543e-003,-1.108221e-005
-9.107066e-004,-4.819516e-005
-5.946793e-004,-8.530812e-005
-2.577456e-004,-1.078352e-004
3.008238e-005,-1.117248e-004
2.261814e-004,-1.015147e-004
3.316860e-004,-8.628051e-005
3.875985e-004,-7.769105e-005
4.386491e-004,-8.044616e-005
5.115786e-004,-9.697682e-005
6.067109e-004,-1.248521e-004
7.086501e-004,-1.536997e-004
8.010274e-004,-1.673132e-004
8.750913e-004,-1.525652e-004
9.266281e-004,-1.050801e-004
9.566103e-004,-3.312309e-005
9.669825e-004,4.483032e-005
9.536931e-004,1.146805e-004
9.126905e-004,1.730240e-004
8.468920e-004,2.240746e-004
7.691005e-004,2.730183e-004
6.987641e-004,3.200173e-004
6.481997e-004,3.585888e-004
6.078454e-004,3.785229e-004
5.558224e-004,3.741471e-004
4.759242e-004,3.472442e-004
3.649094e-004,3.013797e-004
2.359053e-004,2.448189e-004
1.153287e-004,1.927960e-004
3.753739e-005,1.529279e-004
2.619281e-005,1.252147e-004
8.793970e-005,1.056048e-004
2.094887e-004,8.891209e-005
3.718782e-004,6.573675e-005
5.428572e-004,3.510640e-005
6.697544e-004,3.179537e-006
6.990882e-004,-1.983374e-005
6.073592e-004,-3.166451e-005
4.193634e-004,-3.085418e-005
1.949028e-004,-2.129233e-005
-1.010982e-005,-6.544382e-006
-1.571030e-004,7.069104e-006
-2.342461e-004,1.484824e-005
-2.413770e-004,1.387585e-005
-1.887058e-004,7.069104e-006
-1.018388e-004,2.623614e-007
-1.254080e-005,1.234753e-006
5.147500e-005,9.338019e-006
8.291567e-005,2.149292e-005
9.247753e-005,3.154097e-005
8.615698e-005,3.462021e-005
6.006446e-005,3.121684e-005
2.623614e-007,2.359977e-005
-1.036215e-004,1.517237e-005
-2.468872e-004,4.476060e-006
-3.985803e-004,-5.247859e-006
-5.108916e-004,-1.075808e-005
-5.363358e-004,-4.923729e-006
-4.559515e-004,7.393235e-006
-2.888622e-004,1.501031e-005
-8.449779e-005,6.744974e-006
1.022014e-004,-1.448558e-005
2.312054e-004,-3.766092e-005
2.926282e-004,-4.932962e-005
3.064038e-004,-4.592625e-005
2.960316e-004,-3.328516e-005
2.807975e-004,-1.691656e-005
2.668598e-004,-4.437533e-006
2.542187e-004,-2.006553e-006
2.393087e-004,-9.785687e-006
2.196988e-004,-2.080613e-005
1.887443e-004,-2.761287e-005
1.375317e-004,-2.728874e-005
6.541262e-005,-2.096819e-005
-1.805102e-005,-1.092015e-005
-9.762508e-005,1.002961e-007
-1.545100e-004,9.013888e-006
-1.783336e-004,1.193106e-005
-1.686097e-004,8.527692e-006
-1.266348e-004,1.558884e-006
-6.132245e-005,-5.734055e-006
7.879431e-006,-1.140634e-005
6.200925e-005,-1.464765e-005
8.064676e-005,-1.416145e-005
5.730935e-005,-1.286493e-005
1.396819e-006,-1.594417e-005
-6.213279e-005,-2.015787e-005
-1.028112e-004,-2.113026e-005
-9.730095e-005,-1.772689e-005
-2.955766e-005,-1.286493e-005
9.636710e-005,-8.002969e-006
2.457913e-004,7.485573e-007
3.730126e-004,1.095867e-005
4.504799e-004,2.230324e-005
4.767345e-004,3.559260e-005
4.673347e-004,5.212327e-005
4.391353e-004,6.946425e-005
3.916502e-004,8.405013e-005
3.140208e-004,9.782569e-005
2.127300e-004,1.120874e-004
1.245665e-004,1.255388e-004
1.052807e-004,1.409351e-004
1.812893e-004,1.547106e-004
3.410858e-004,1.639483e-004
5.495019e-004,1.671896e-004
7.553250e-004,1.667035e-004
9.037769e-004,1.629759e-004
9.352176e-004,1.587622e-004
8.079962e-004,1.597346e-004
5.347539e-004,1.668655e-004
1.867996e-004,1.739964e-004
-1.459205e-004,1.795066e-004
-3.891806e-004,1.824238e-004
-5.222362e-004,1.811273e-004
-5.896553e-004,1.739964e-004
-6.573986e-004,1.607070e-004
-7.693857e-004,1.415833e-004
-9.194582e-004,1.174356e-004
-1.063696e-003,8.939829e-005
-1.152346e-003,6.249544e-005
-1.145377e-003,3.769945e-005
-1.025449e-003,1.257933e-005
-8.053642e-004,-1.594417e-005
-5.533526e-004,-5.046408e-005
-3.911253e-004,-9.276313e-005
-4.428242e-004,-1.442999e-004
-7.434553e-004,-1.984297e-004
-1.204693e-003,-2.428356e-004
-1.652155e-003,-2.677937e-004
-1.913567e-003,-2.729797e-004
-1.886826e-003,-2.608248e-004
-1.567233e-003,-2.350565e-004
-1.038252e-003,-2.032917e-004
-4.541687e-004,-1.700683e-004
1.711715e-005,-1.371690e-004
2.710735e-004,-1.034594e-004
3.030004e-004,-6.845333e-005
1.921477e-004,-3.490581e-005
3.235129e-005,-5.734055e-006
-1.360346e-004,2.586868e-005
-3.297026e-004,6.541262e-005
-5.672903e-004,1.132219e-004
-8.231914e-004,1.655690e-004
-1.042142e-003,2.137024e-004
-1.178925e-003,2.470879e-004
-1.217496e-003,2.501671e-004
-1.176980e-003,2.224539e-004
-1.097892e-003,1.762653e-004
-1.015401e-003,1.235941e-004
-9.484679e-004,7.578480e-005
-8.940139e-004,3.964423e-005
-8.387496e-004,1.679302e-005
-7.630652e-004,5.934647e-006
-6.599916e-004,8.203561e-006
-5.339048e-004,2.084466e-005
-3.896667e-004,3.445814e-005
-2.173913e-004,4.953022e-005
-5.734055e-006,6.541262e-005
2.466016e-004,8.307774e-005
5.423710e-004,1.010670e-004
8.682846e-004,1.169494e-004
1.193226e-003,1.265113e-004
1.479110e-003,1.281319e-004
1.695143e-003,1.253768e-004
1.833872e-003,1.229458e-004
1.916687e-003,1.226217e-004
1.969845e-003,1.252147e-004
2.007282e-003,1.312111e-004
2.035481e-003,1.325077e-004
2.056874e-003,1.213252e-004
2.075350e-003,9.896014e-005
2.081670e-003,7.319175e-005
2.055578e-003,5.228533e-005
1.977948e-003,3.656499e-005
1.843920e-003,2.230324e-005
1.667268e-003,5.286386e-006
1.464686e-003,-1.156841e-005
1.253028e-003,-2.501983e-005
1.046557e-003,-2.777494e-005
8.535366e-004,-1.205460e-005
6.819093e-004,2.278944e-005
5.435054e-004,6.930219e-005
4.431869e-004,1.156529e-004
3.786849e-004,1.526038e-004
3.427064e-004,1.688103e-004
3.292550e-004,1.587622e-004
3.373583e-004,1.224596e-004
3.636129e-004,6.784360e-005
4.012120e-004,4.638125e-006
4.438352e-004,-5.419158e-005
4.806241e-004,-9.486997e-005
4.942375e-004,-1.101041e-004
4.777069e-004,-1.008664e-004
4.386491e-004,-7.282909e-005
3.976466e-004,-3.604027e-005
3.798194e-004,-2.006553e-006
3.997534e-004,2.684107e-005
4.647416e-004,5.406805e-005
5.613326e-004,8.567078e-005
6.503065e-004,1.171115e-004
6.919574e-004,1.352628e-004
6.708889e-004,1.313732e-004
5.966629e-004,1.046324e-004
4.890515e-004,6.460230e-005
3.626405e-004,2.748933e-005
2.273159e-004,1.883015e-006
8.956035e-005,-1.351319e-005
-4.349527e-005,-2.388537e-005
-1.705545e-004,-3.425755e-005
-2.903207e-004,-5.143647e-005
-4.066836e-004,-7.266703e-005
-5.202913e-004,-8.984595e-005
-6.261200e-004,-1.010285e-004
-7.217385e-004,-1.123730e-004
-8.155743e-004,-1.274451e-004
-9.194582e-004,-1.449481e-004
-1.033066e-003,-1.571030e-004
-1.130629e-003,-1.556445e-004
-1.168877e-003,-1.355484e-004
-1.099999e-003,-9.649063e-005
-9.079515e-004,-4.657451e-005
-6.121824e-004,9.500084e-006
-2.695764e-004,6.946425e-005
4.304760e-005,1.282940e-004
2.631323e-004,1.785342e-004
3.621542e-004,2.161334e-004
3.449753e-004,2.412535e-004
2.276400e-004,2.535705e-004
4.239934e-005,2.556773e-004
-1.520790e-004,2.475740e-004
-2.776796e-004,2.281262e-004
-2.874036e-004,1.965235e-004
-1.862748e-004,1.595726e-004
-2.226472e-005,1.185700e-004
1.485521e-004,7.594687e-005
2.825802e-004,3.769945e-005
3.582647e-004,1.128280e-005
3.692851e-004,-1.520357e-006
3.396272e-004,9.106226e-007
3.102933e-004,1.987226e-005
3.080244e-004,4.839576e-005
3.216379e-004,6.962632e-005
3.044590e-004,7.205730e-005
2.041405e-004,5.423011e-005
7.393235e-006,2.359977e-005
-2.530457e-004,-1.124428e-005
-5.296912e-004,-4.122636e-005
-7.748959e-004,-6.083626e-005
-9.427955e-004,-7.023605e-005
-1.001301e-003,-7.120844e-005
-9.504127e-004,-6.553616e-005
-8.191397e-004,-5.872941e-005
-6.565882e-004,-5.710876e-005
-5.162397e-004,-6.569822e-005
-4.394208e-004,-8.222889e-005
-4.476861e-004,-1.000561e-004
-5.437908e-004,-1.105903e-004
-7.125008e-004,-1.180453e-004
-9.241580e-004,-1.264727e-004
-1.138408e-003,-1.404103e-004
-1.320408e-003,-1.590478e-004
-1.446170e-003,-1.773612e-004
-1.503866e-003,-1.830335e-004
-1.503866e-003,-1.695821e-004
-1.469022e-003,-1.371690e-004
-1.436284e-003,-9.033214e-005
-1.469832e-003,-3.960571e-005
-1.632545e-003,6.582909e-006
-1.951814e-003,4.158902e-005
-2.394739e-003,6.541262e-005
-2.840744e-003,8.486046e-005
-3.113663e-003,1.059289e-004
-3.068284e-003,1.325077e-004
-2.662148e-003,1.652449e-004
-1.972397e-003,2.033302e-004
-1.151211e-003,2.420638e-004
-3.634122e-004,2.715597e-004
2.566497e-004,2.832284e-004
6.443101e-004,2.725321e-004
8.280923e-004,2.451431e-004
8.898393e-004,2.078680e-004
9.105837e-004,1.644345e-004
9.352176e-004,1.188942e-004
9.682790e-004,7.594687e-005
9.943715e-004,4.191315e-005
1.001989e-003,1.565857e-005
9.896716e-004,-2.492749e-006
9.637411e-004,-9.785687e-006
9.282487e-004,-6.868512e-006
8.911358e-004,-2.816880e-006
8.598571e-004,-6.868512e-006
8.428402e-004,-2.356124e-005
8.548331e-004,-4.560212e-005
9.076665e-004,-6.667061e-005
9.961543e-004,-8.222889e-005
1.104090e-003,-8.919769e-005
1.223694e-003,-8.984595e-005
1.348485e-003,-9.422171e-005
1.457069e-003,-1.047560e-004
1.511847e-003,-1.193418e-004
1.468737e-003,-1.361966e-004
1.312506e-003,-1.577513e-004
1.086101e-003,-1.843300e-004
8.687708e-004,-2.109087e-004
7.334461e-004,-2.326255e-004
7.099466e-004,-2.394322e-004
7.752589e-004,-2.287359e-004
8.786567e-004,-2.016710e-004
9.655238e-004,-1.614788e-004
1.003609e-003,-1.110765e-004
9.812443e-004,-5.257093e-005
9.055596e-004,1.322759e-005
8.013516e-004,8.502253e-005
6.880678e-004,1.598967e-004
5.498260e-004,2.380122e-004
3.676645e-004,3.145071e-004
1.550348e-004,3.796573e-004
-4.236081e-005,4.250356e-004
-1.856265e-004,4.457800e-004
-2.616351e-004,4.430249e-004
-2.831898e-004,4.196875e-004
-2.692523e-004,3.817642e-004
-2.217671e-004,3.427064e-004
-1.318209e-004,3.166139e-004
3.989864e-006,3.026763e-004
1.762653e-004,2.937627e-004
3.642611e-004,2.814457e-004
5.537155e-004,2.564876e-004
7.402528e-004,2.164575e-004
9.267902e-004,1.671896e-004
1.116245e-003,1.161391e-004
1.299217e-003,6.930219e-005
1.448479e-003,2.992031e-005
1.534860e-003,1.720949e-006
1.539884e-003,-1.513384e-005
1.465496e-003,-2.518189e-005
1.332602e-003,-2.696461e-005
1.175237e-003,-2.048200e-005
1.024029e-003,-4.761663e-006
8.951874e-004,1.727922e-005
7.943827e-004,4.175108e-005
7.276117e-004,5.730935e-005
6.900126e-004,6.119892e-005
6.517651e-004,5.568870e-005
5.712186e-004,4.320967e-005
4.130428e-004,2.748933e-005
1.642725e-004,1.825161e-005
-1.569410e-004,1.938607e-005
-5.227224e-004,2.813760e-005
-9.071411e-004,3.786152e-005
-1.288157e-003,4.774750e-005
-1.632708e-003,5.390598e-005
-1.907733e-003,5.034054e-005
-2.093784e-003,3.397195e-005
-2.187944e-003,5.286386e-006
-2.192806e-003,-2.907146e-005
-2.118580e-003,-6.164659e-005
-1.983903e-003,-8.935975e-005
-1.806442e-003,-1.151281e-004
-1.585709e-003,-1.396000e-004
-1.309063e-003,-1.637477e-004
-9.795843e-004,-1.864369e-004
-6.437851e-004,-2.037778e-004
-3.705430e-004,-2.081536e-004
-2.094501e-004,-2.031296e-004
-1.613168e-004,-1.951884e-004
-1.911368e-004,-1.865989e-004
-2.464010e-004,-1.718510e-004
-2.770314e-004,-1.446240e-004
-2.548284e-004,-1.062145e-004
-1.781715e-004,-5.856734e-005
-6.602235e-005,-4.599598e-006
5.811968e-005,5.050261e-005
1.692965e-004,1.039842e-004
2.527601e-004,1.532520e-004
3.017039e-004,1.908512e-004
3.224483e-004,2.135403e-004
3.318480e-004,2.235884e-004
3.482167e-004,2.261814e-004
3.785229e-004,2.198609e-004
4.172565e-004,2.010613e-004
4.548556e-004,1.697827e-004
4.992615e-004,1.304008e-004
5.689497e-004,9.101894e-005
6.692682e-004,5.617490e-005
7.885484e-004,2.732727e-005
8.984287e-004,4.800190e-006
9.703858e-004,-8.975361e-006
9.791374e-004,-1.675450e-005
9.212799e-004,-2.129233e-005
8.193408e-004,-2.291298e-005
7.057329e-004,-2.323711e-005
6.052523e-004,-1.983374e-005
5.391297e-004,-1.205460e-005
5.225990e-004,-3.465141e-006
5.692738e-004,9.106226e-007
6.760749e-004,-1.196226e-006
8.097789e-004,-9.137427e-006
9.274384e-004,-1.643037e-005
9.940474e-004,-1.659243e-005
9.969645e-004,-2.654814e-006
9.358659e-004,2.262737e-005
8.118858e-004,4.790957e-005
6.357207e-004,6.217131e-005
4.230909e-004,6.217131e-005
2.059233e-004,5.423011e-005
1.290346e-005,4.807163e-005
-1.470550e-004,4.758544e-005
-3.010170e-004,4.985435e-005
-4.800992e-004,5.228533e-005
-6.883531e-004,5.341978e-005
-8.979035e-004,5.406805e-005
-1.075689e-003,5.714729e-005
-1.217658e-003,6.168512e-005
-1.346662e-003,6.638501e-005
-1.488631e-003,6.784360e-005
-1.662690e-003,6.492643e-005
-1.885368e-003,5.471631e-005
-2.150345e-003,3.656499e-005
-2.426180e-003,1.241726e-005
-2.683540e-003,-1.480971e-005
-2.919832e-003,-4.025397e-005
-3.142024e-003,-5.613637e-005
-3.316893e-003,-6.148453e-005
-3.372157e-003,-6.456376e-005
-3.226622e-003,-7.234290e-005
-2.828103e-003,-8.384953e-005
-2.193940e-003,-9.292519e-005
-1.412137e-003,-9.162867e-005
-6.141271e-004,-7.833932e-005
6.444023e-005,-5.905355e-005
5.318367e-004,-3.782299e-005
7.772038e-004,-1.594417e-005
8.355473e-004,2.531276e-006
7.488423e-004,1.468617e-005
5.798081e-004,2.619281e-005
4.004017e-004,3.964423e-005
2.796630e-004,5.131293e-005
2.577842e-004,5.536457e-005
3.452995e-004,5.196120e-005
5.268127e-004,4.645098e-005
7.736383e-004,4.239934e-005
1.049150e-003,4.288554e-005
1.297110e-003,4.547859e-005
1.466144e-003,5.163707e-005
1.538912e-003,6.249544e-005
1.541181e-003,7.562274e-005
1.522381e-003,8.745350e-005
1.514926e-003,9.182927e-005
1.519626e-003,8.923622e-005
1.529350e-003,8.291567e-005
1.547663e-003,7.562274e-005
1.581373e-003,6.800567e-005
1.632100e-003,6.281957e-005
1.697898e-003,6.022653e-005
1.769693e-003,6.038860e-005
1.828686e-003,6.525056e-005
1.848133e-003,7.837785e-005
1.808265e-003,9.798775e-005
1.717508e-003,1.179218e-004
1.612652e-003,1.336421e-004
1.533888e-003,1.410971e-004
1.513792e-003,1.410971e-004
1.558360e-003,1.372075e-004
1.644579e-003,1.351007e-004
1.724639e-003,1.326697e-004
1.747815e-003,1.274836e-004
1.685095e-003,1.177597e-004
1.540208e-003,1.038221e-004
1.333088e-003,8.631904e-005
1.076701e-003,6.914012e-005
7.815795e-004,5.893001e-005
4.678209e-004,5.957827e-005
1.626518e-004,7.011251e-005
-1.102662e-004,8.129502e-005
-3.460712e-004,8.340186e-005
-5.693972e-004,7.205730e-005
-8.269189e-004,4.953022e-005
-1.158666e-003,1.857574e-005
-1.574364e-003,-2.031993e-005
-2.050512e-003,-6.245691e-005
-2.548053e-003,-9.081834e-005
-2.997299e-003,-9.276313e-005
-3.319972e-003,-6.634648e-005
-3.466966e-003,-2.534396e-005
-3.457242e-003,1.419998e-005
-3.377992e-003,4.353380e-005
-3.303280e-003,5.990240e-005
-3.225488e-003,6.606088e-005
-3.082384e-003,6.914012e-005
-2.811248e-003,7.610893e-005
-2.379829e-003,8.323980e-005
-1.802390e-003,8.680524e-005
-1.139057e-003,8.226741e-005
-4.768579e-004,6.751947e-005
1.036600e-004,5.374392e-005
5.747841e-004,4.871989e-005
9.502897e-004,5.277152e-005
1.247194e-003,5.617490e-005
1.470682e-003,5.147500e-005
1.615083e-003,3.526847e-005
1.680233e-003,1.646889e-005
1.679423e-003,4.962256e-006
1.641175e-003,8.851824e-006
1.598552e-003,2.651694e-005
1.562898e-003,4.547859e-005
1.524812e-003,5.714729e-005
1.475706e-003,5.876794e-005
1.415094e-003,5.017848e-005
1.353671e-003,3.267542e-005
1.299541e-003,1.549650e-005
1.258052e-003,4.962256e-006
1.224667e-003,1.072688e-006
1.175237e-003,-1.844488e-006
1.077349e-003,-5.409925e-006
9.147974e-004,-1.237873e-005
6.977917e-004,-2.437157e-005
4.559901e-004,-3.911951e-005
2.284503e-004,-4.981582e-005
4.175108e-005,-5.467778e-005
-9.794922e-005,-5.791909e-005
-1.938919e-004,-6.229485e-005
-2.436459e-004,-6.812920e-005
-2.511009e-004,-7.088431e-005
-2.295462e-004,-6.634648e-005
-1.992400e-004,-5.516398e-005
-1.759026e-004,-3.328516e-005
-1.726613e-004,-3.627206e-006
-1.979435e-004,2.846173e-005
-2.449424e-004,5.325772e-005
-3.083100e-004,6.589881e-005
-3.862634e-004,6.395403e-005
-4.674581e-004,5.244739e-005
-5.272602e-004,3.964423e-005
-5.405495e-004,3.364782e-005
-4.929024e-004,3.607880e-005
-3.865875e-004,4.677511e-005
-2.339220e-004,5.876794e-005
-4.657451e-005,6.444023e-005
1.574657e-004,6.265751e-005
3.499994e-004,5.082674e-005
5.010443e-004,2.894792e-005
5.903423e-004,2.045080e-006
6.196762e-004,-1.983374e-005
6.062247e-004,-3.117831e-005
5.715428e-004,-3.474375e-005
5.373469e-004,-3.587821e-005
5.106062e-004,-3.798505e-005
4.824068e-004,-3.879538e-005
4.381629e-004,-3.749886e-005
3.683128e-004,-3.231276e-005
2.842008e-004,-1.772689e-005
2.093266e-004,1.234753e-006
1.654069e-004,2.035846e-005
1.530900e-004,4.029249e-005
1.639483e-004,6.281957e-005
1.850168e-004,8.518459e-005
1.952270e-004,1.039842e-004
1.705930e-004,1.179218e-004
1.002567e-004,1.247285e-004
3.989864e-006,1.247285e-004
-9.033214e-005,1.252147e-004
-1.609926e-004,1.334801e-004
-2.126914e-004,1.504969e-004
-2.681178e-004,1.714033e-004
-3.382920e-004,1.910132e-004
-4.113835e-004,2.033302e-004
-4.630823e-004,2.059233e-004
-4.682684e-004,1.966855e-004
-4.151110e-004,1.775618e-004
-3.136581e-004,1.498487e-004
-1.874093e-004,1.179218e-004
-6.699474e-005,8.016056e-005
1.954813e-005,4.142695e-005
5.552663e-005,7.231170e-006
3.105477e-005,-1.545797e-005
-4.592625e-005,-2.437157e-005
-1.499722e-004,-1.886135e-005
-2.481837e-004,2.623614e-007
-3.138202e-004,2.570661e-005
-3.407230e-004,4.547859e-005
-3.413713e-004,5.034054e-005
-3.329439e-004,4.045456e-005
-3.209511e-004,2.262737e-005
-3.047445e-004,3.341602e-006
-2.815692e-004,-1.562004e-005
-2.420253e-004,-3.312309e-005
-1.695821e-004,-4.819516e-005
-5.889147e-005,-5.775702e-005
7.983643e-005,-6.067420e-005
2.208333e-004,-6.035006e-005
3.292550e-004,-6.683268e-005
3.804677e-004,-8.547019e-005
3.712299e-004,-1.183694e-004
3.234207e-004,-1.645580e-004
2.689667e-004,-2.227395e-004
2.143507e-004,-2.885380e-004
1.367214e-004,-3.494745e-004
2.635488e-005,-3.872357e-004
-1.021629e-004,-3.888564e-004
-2.162569e-004,-3.510952e-004
-2.841623e-004,-2.840002e-004
-2.937241e-004,-1.998883e-004
-2.653627e-004,-1.094559e-004
-2.340841e-004,-2.339917e-005
-2.326255e-004,5.293359e-005
-2.846484e-004,1.224596e-004
-4.096008e-004,1.876099e-004
-6.259579e-004,2.514636e-004
-9.376094e-004,3.143450e-004
-1.302094e-003,3.671783e-004
-1.634652e-003,4.002396e-004
-1.854737e-003,4.106118e-004
-1.912919e-003,4.036430e-004
-1.785859e-003,3.835469e-004
-1.473559e-003,3.538889e-004
-1.014104e-003,3.190449e-004
-4.760475e-004,2.799871e-004
4.450619e-005,2.363915e-004
4.525867e-004,1.869616e-004
6.974676e-004,1.401247e-004
7.890345e-004,1.043083e-004
7.888725e-004,8.453633e-005
7.678040e-004,7.724339e-005
7.689385e-004,7.481241e-005
7.974620e-004,6.995045e-005
8.316578e-004,5.844381e-005
8.528883e-004,4.304760e-005
8.472161e-004,2.878586e-005
8.065376e-004,1.614476e-005
7.263152e-004,6.096713e-006
5.973111e-004,-1.844488e-006
3.974845e-004,-8.975361e-006
1.151667e-004,-1.675450e-005
-2.371633e-004,-2.518189e-005
-6.246614e-004,-3.652646e-005
-1.008756e-003,-4.965375e-005
-1.361896e-003,-6.067420e-005
-1.647456e-003,-6.569822e-005
-1.819731e-003,-6.294311e-005
-1.849227e-003,-5.159854e-005
-1.728002e-003,-3.215070e-005
-1.481663e-003,-7.678839e-006
-1.165473e-003,1.598270e-005
-8.546320e-004,3.510640e-005
-6.016482e-004,4.758544e-005
-4.040906e-004,5.066468e-005
-2.169051e-004,4.029249e-005
1.047248e-005,2.327564e-005
3.073762e-004,8.527692e-006
6.676475e-004,-2.330684e-006
1.041046e-003,-1.302699e-005
1.336492e-003,-2.923352e-005
1.474572e-003,-5.386745e-005
1.459824e-003,-8.012203e-005
1.370364e-003,-1.031353e-004
1.302458e-003,-1.183694e-004
1.304565e-003,-1.191798e-004
1.359181e-003,-1.036215e-004
1.405046e-003,-8.012203e-005
1.385274e-003,-5.581224e-005
1.281876e-003,-3.474375e-005
1.112517e-003,-1.318906e-005
9.152836e-004,1.160693e-005
7.308530e-004,4.094075e-005
5.825632e-004,7.416414e-005
4.696036e-004,1.031738e-004
3.853296e-004,1.192183e-004
3.320101e-004,1.171115e-004
3.167760e-004,9.782569e-005
3.598853e-004,6.703327e-005
4.718725e-004,3.413401e-005
6.360448e-004,4.313994e-006
8.054032e-004,-1.983374e-005
9.297074e-004,-3.522994e-005
9.830269e-004,-4.074016e-005
9.640653e-004,-3.409548e-005
8.963219e-004,-1.545797e-005
8.151271e-004,1.095867e-005
7.441424e-004,3.769945e-005
6.960090e-004,6.589881e-005
6.663510e-004,9.847395e-005
6.443101e-004,1.325077e-004
6.245381e-004,1.642725e-004
5.948801e-004,1.893926e-004
5.276230e-004,2.004130e-004
3.991052e-004,1.936063e-004
2.232642e-004,1.730240e-004
3.510640e-005,1.466074e-004
-1.300381e-004,1.164632e-004
-2.405667e-004,8.242948e-005
-2.663351e-004,4.920609e-005
-1.927574e-004,1.906194e-005
-3.231276e-005,-7.840905e-006
1.718895e-004,-3.020592e-005
3.581026e-004,-4.657451e-005
4.786793e-004,-5.532604e-005
5.178991e-004,-5.565017e-005
4.875929e-004,-4.738484e-005
4.159599e-004,-2.842320e-005
3.337928e-004,3.827798e-006
2.547049e-004,4.871989e-005
1.720516e-004,1.038221e-004
6.703327e-005,1.569795e-004
-7.833932e-005,1.939304e-004
-2.721694e-004,2.028440e-004
-4.987367e-004,1.790204e-004
-7.207661e-004,1.203528e-004
-8.915829e-004,3.235129e-005
-9.808808e-004,-6.812920e-005
-9.828256e-004,-1.574272e-004
-9.081136e-004,-2.172293e-004
-7.747338e-004,-2.399184e-004
-6.108859e-004,-2.269532e-004
-4.348829e-004,-1.874093e-004
-2.666592e-004,-1.253383e-004
-1.319829e-004,-4.057810e-005
-4.835723e-005,6.217131e-005
-2.015787e-005,1.714033e-004
-4.138842e-005,2.762596e-004
-9.179074e-005,3.723644e-004
-1.457585e-004,4.574487e-004
-1.781715e-004,5.190336e-004
-1.757406e-004,5.370228e-004
-1.339277e-004,5.025028e-004
-4.414354e-005,4.232529e-004
8.858796e-005,3.201793e-004
2.410914e-004,2.221298e-004
3.722023e-004,1.504969e-004
4.420525e-004,1.083599e-004
4.198496e-004,8.793970e-005
2.827422e-004,7.157111e-005
2.019640e-005,5.244739e-005
-3.499608e-004,2.862379e-005
-7.799199e-004,3.341602e-006
-1.212310e-003,-1.788895e-005
-1.576309e-003,-3.409548e-005
-1.802876e-003,-4.446767e-005
-1.844203e-003,-4.835723e-005
-1.693482e-003,-4.738484e-005
-1.390420e-003,-4.398147e-005
-1.008270e-003,-4.041603e-005
-6.288751e-004,-3.620233e-005
-3.036101e-004,-2.955766e-005
-4.025397e-005,-2.485776e-005
1.756170e-004,-2.096819e-005
3.551854e-004,-1.691656e-005
4.882411e-004,-1.286493e-005
5.482053e-004,-1.027188e-005
5.052580e-004,-1.140634e-005
3.508097e-004,-1.821308e-005
9.879807e-005,-2.728874e-005
-2.049123e-004,-3.766092e-005
-4.830163e-004,-5.370539e-005
-6.536711e-004,-7.850138e-005
-6.593434e-004,-1.097800e-004
-4.977643e-004,-1.425172e-004
-2.209568e-004,-1.718510e-004
9.053274e-005,-1.956746e-004
3.683128e-004,-2.104225e-004
5.885596e-004,-2.139880e-004
7.760693e-004,-2.063709e-004
9.682790e-004,-1.857886e-004
1.173616e-003,-1.564548e-004
1.350105e-003,-1.258244e-004
1.424656e-003,-1.020008e-004
1.325147e-003,-9.033214e-005
1.033429e-003,-9.000801e-005
6.028214e-004,-9.276313e-005
1.206769e-004,-8.790116e-005
-3.376438e-004,-7.282909e-005
-7.188214e-004,-5.354332e-005
-9.813671e-004,-3.911951e-005
-1.111343e-003,-3.296103e-005
-1.137922e-003,-3.571614e-005
-1.114585e-003,-4.689864e-005
-1.082982e-003,-6.278104e-005
-1.050893e-003,-7.655659e-005
-9.865531e-004,-8.336334e-005
-8.491218e-004,-7.850138e-005
-6.225546e-004,-6.164659e-005
-3.371576e-004,-3.733679e-005
-6.504996e-005,-1.399939e-005
1.229458e-004,4.313994e-006
1.952270e-004,1.954813e-005
1.574657e-004,3.235129e-005
5.163707e-005,4.077869e-005
-7.671866e-005,4.450619e-005
-2.002124e-004,4.337174e-005
-3.194925e-004,3.753739e-005
-4.394208e-004,3.137890e-005
-5.470321e-004,2.959618e-005
-6.196374e-004,2.943412e-005
-6.385990e-004,2.910999e-005
-6.011620e-004,2.522042e-005
-5.151053e-004,1.582063e-005
-3.873978e-004,2.531276e-006
-2.211188e-004,-5.085794e-006
-2.372330e-005,2.623614e-007
1.853410e-004,1.792748e-005
3.736609e-004,4.158902e-005
5.146578e-004,6.557468e-005
5.934216e-004,8.518459e-005
6.146522e-004,9.652916e-005
6.018489e-004,9.814982e-005
5.875872e-004,8.826383e-005
5.914768e-004,6.881599e-005
6.084936e-004,4.920609e-005
6.149763e-004,3.688912e-005
5.905044e-004,3.299956e-005
5.211404e-004,3.850977e-005
3.984569e-004,5.893001e-005
2.273159e-004,9.474644e-005
3.543053e-005,1.448246e-004
-1.279313e-004,2.034923e-004
-2.029675e-004,2.641047e-004
-1.480274e-004,3.216379e-004
4.466826e-005,3.689610e-004
3.431926e-004,4.029947e-004
6.951987e-004,4.250356e-004
1.035212e-003,4.336251e-004
1.312668e-003,4.250356e-004
1.500178e-003,3.989431e-004
1.593042e-003,3.571302e-004
1.598876e-003,3.094830e-004
1.525947e-003,2.641047e-004
1.378791e-003,2.222919e-004
1.163568e-003,1.817755e-004
8.961599e-004,1.407730e-004
6.114109e-004,9.863601e-005
3.613439e-004,5.893001e-005
2.020337e-004,2.473422e-005
1.658931e-004,-6.176923e-008
2.365536e-004,-1.886135e-005
3.626405e-004,-3.279896e-005
4.832171e-004,-3.506787e-005
5.491777e-004,-2.275091e-005
5.379952e-004,-1.520357e-006
4.676588e-004,2.311357e-005
3.820883e-004,4.758544e-005
3.300653e-004,6.200925e-005
3.422202e-004,5.909207e-005
4.107739e-004,3.899597e-005
4.956961e-004,5.286386e-006
5.533914e-004,-3.279896e-005
5.610085e-004,-6.472583e-005
5.217887e-004,-8.563225e-005
4.529109e-004,-9.341139e-005
3.728506e-004,-9.195280e-005
2.782044e-004,-8.692878e-005
1.467694e-004,-8.239095e-005
-3.798505e-005,-7.785312e-005
-2.702246e-004,-7.218083e-005
-5.201293e-004,-6.845333e-005
-7.476689e-004,-7.007398e-005
-9.186478e-004,-7.785312e-005
-1.019939e-003,-9.049421e-005
-1.072124e-003,-1.055663e-004
-1.110371e-003,-1.217728e-004
-1.156236e-003,-1.323070e-004
-1.202262e-003,-1.305243e-004
-1.220251e-003,-1.175591e-004
-1.169687e-003,-9.600443e-005
-1.020911e-003,-7.299116e-005
-7.763545e-004,-5.516398e-005
-4.788027e-004,-4.673658e-005
-2.060468e-004,-4.317114e-005
-6.099833e-005,-4.268495e-005
-1.402483e-004,-4.689864e-005
-4.647030e-004,-5.386745e-005
-9.338820e-004,-6.310517e-005
-1.382479e-003,-7.218083e-005
-1.681975e-003,-8.222889e-005
-1.781808e-003,-9.065627e-005
-1.709689e-003,-9.665269e-005
-1.538223e-003,-9.600443e-005
-1.333211e-003,-8.433573e-005
-1.132250e-003,-6.261898e-005
-9.557608e-004,-4.057810e-005
-8.141157e-004,-2.210265e-005
-7.060181e-004,-3.141010e-006
-6.089411e-004,1.614476e-005
-4.883645e-004,3.996836e-005
-3.096065e-004,7.319175e-005
-6.569822e-005,1.158149e-004
2.124059e-004,1.673517e-004
4.734932e-004,2.172678e-004
6.796403e-004,2.555152e-004
8.148029e-004,2.806354e-004
8.878945e-004,2.965178e-004
9.246834e-004,3.057555e-004
9.551517e-004,3.054314e-004
9.958302e-004,2.934386e-004
1.047367e-003,2.678322e-004
1.104252e-003,2.326641e-004
1.155303e-003,1.890685e-004
1.185933e-003,1.401247e-004
1.182368e-003,9.312579e-005
1.146875e-003,5.244739e-005
1.090314e-003,1.776542e-005
1.035212e-003,-8.651231e-006
1.003771e-003,-1.967167e-005
1.006040e-003,-1.335112e-005
1.025326e-003,2.855406e-006
1.006527e-003,2.408596e-005
8.990770e-004,4.920609e-005
6.908229e-004,7.335382e-005
4.247115e-004,8.680524e-005
1.590864e-004,8.599491e-005
-5.791909e-005,7.238143e-005
-1.976194e-004,5.082674e-005
-2.515871e-004,2.554455e-005
-2.347323e-004,1.072688e-006
-1.776853e-004,-1.594417e-005
-1.114006e-004,-1.578211e-005
-5.629843e-005,-2.330684e-006
-2.161646e-005,1.322759e-005
3.017472e-006,1.630683e-005
3.672705e-005,2.207145e-006
9.490851e-005,-2.210265e-005
1.649207e-004,-4.219875e-005
2.196988e-004,-5.046408e-005
2.352571e-004,-4.544005e-005
2.049509e-004,-3.004385e-005
1.409351e-004,-8.813297e-006
6.281957e-005,1.484824e-005
-1.270286e-005,3.462021e-005
-7.380149e-005,4.547859e-005
-1.126972e-004,4.369587e-005
-1.186936e-004,3.121684e-005
-8.239095e-005,1.614476e-005
-5.734055e-006,4.962256e-006
9.523264e-005,5.864920e-007
1.924718e-004,1.396819e-006
2.647530e-004,9.338019e-006
3.059176e-004,2.538249e-005
3.266619e-004,4.191315e-005
3.435167e-004,4.288554e-005
3.684748e-004,2.149292e-005
3.984569e-004,-1.707863e-005
4.221185e-004,-6.326724e-005
4.263321e-004,-1.102662e-004
3.947294e-004,-1.554824e-004
3.143450e-004,-2.023193e-004
1.809652e-004,-2.507768e-004
3.341602e-006,-2.899966e-004
-1.948643e-004,-3.060411e-004
-3.864254e-004,-2.925896e-004
-5.505976e-004,-2.556388e-004
-6.742533e-004,-2.092881e-004
-7.517206e-004,-1.642339e-004
-7.911024e-004,-1.198280e-004
-8.102261e-004,-7.056018e-005
-8.356704e-004,-1.156841e-005
-8.927173e-004,5.941620e-005
-9.842842e-004,1.349386e-004
-1.098216e-003,2.057612e-004
-1.216848e-003,2.649151e-004
-1.317653e-003,3.081865e-004
-1.360114e-003,3.404375e-004
-1.302905e-003,3.720402e-004
-1.126415e-003,4.036430e-004
-8.275671e-004,4.290873e-004
-4.152730e-004,4.423766e-004
7.610893e-005,4.396215e-004
5.822390e-004,4.182289e-004
1.042181e-003,3.793332e-004
1.419956e-003,3.243930e-004
1.704057e-003,2.563256e-004
1.894160e-003,1.829100e-004
1.980541e-003,1.133840e-004
1.954287e-003,5.698522e-005
1.822041e-003,1.873781e-005
1.622862e-003,-3.951337e-006
1.413959e-003,-1.659243e-005
1.235039e-003,-2.242678e-005
1.098580e-003,-2.761287e-005
9.856200e-004,-3.555407e-005
8.643949e-004,-4.414354e-005
7.133500e-004,-4.965375e-005
5.344298e-004,-4.511592e-005
3.373583e-004,-2.728874e-005
1.279698e-004,-5.409925e-006
-9.162867e-005,1.403791e-005
-3.183580e-004,2.700314e-005
-5.462218e-004,3.186510e-005
-7.758683e-004,2.441009e-005
-1.023180e-003,4.151929e-006
-1.311980e-003,-2.501983e-005
-1.647942e-003,-5.435365e-005
-1.997193e-003,-7.704279e-005
-2.305603e-003,-8.579432e-005
-2.526337e-003,-8.012203e-005
-2.633138e-003,-6.440169e-005
-2.629572e-003,-4.722277e-005
-2.544488e-003,-3.231276e-005
-2.406246e-003,-2.031993e-005
-2.244181e-003,-1.399939e-005
-2.082439e-003,-1.805102e-005
-1.928477e-003,-3.247483e-005
-1.775325e-003,-5.062615e-005
-1.597215e-003,-6.326724e-005
-1.366596e-003,-6.342930e-005
-1.078120e-003,-4.949169e-005
-7.476689e-004,-2.696461e-005
-4.091146e-004,1.072688e-006
-9.308726e-005,2.992031e-005
1.773998e-004,5.471631e-005
3.910019e-004,7.270556e-005
5.681394e-004,8.550872e-005
7.527319e-004,9.798775e-005
9.980990e-004,1.133840e-004
1.332116e-003,1.302387e-004
1.722046e-003,1.409351e-004
2.090260e-003,1.399627e-004
2.352320e-003,1.286181e-004
2.458474e-003,1.069013e-004
2.415850e-003,7.578480e-005
2.270801e-003,4.013043e-005
2.078753e-003,5.286386e-006
1.877791e-003,-2.015787e-005
1.672778e-003,-3.247483e-005
1.452369e-003,-3.960571e-005
1.209270e-003,-4.689864e-005
9.327867e-004,-5.176060e-005
6.086557e-004,-5.419158e-005
2.349330e-004,-5.694669e-005
-1.603444e-004,-6.002593e-005
-5.230465e-004,-6.359137e-005
-7.906162e-004,-6.942573e-005
-9.204305e-004,-7.655659e-005
-9.120032e-004,-8.433573e-005
-7.995298e-004,-9.324932e-005
-6.345474e-004,-1.057284e-004
-4.752372e-004,-1.224211e-004
-3.741085e-004,-1.386276e-004
-3.520676e-004,-1.438137e-004
-3.705430e-004,-1.277692e-004
-3.486642e-004,-8.547019e-005
-2.036158e-004,-2.145439e-005
8.858796e-005,5.390598e-005
4.832171e-004,1.255388e-004
8.925944e-004,1.817755e-004
1.229529e-003,2.115955e-004
1.439566e-003,2.161334e-004
1.509092e-003,2.060853e-004
1.459338e-003,1.885823e-004
1.329199e-003,1.670276e-004
1.159192e-003,1.415833e-004
9.865924e-004,1.158149e-004
8.357094e-004,9.490851e-005
7.216153e-004,7.740545e-005
6.554926e-004,6.379197e-005
6.389620e-004,6.071273e-005
6.527375e-004,7.659513e-005
6.627856e-004,1.111150e-004
6.490100e-004,1.534141e-004
6.080074e-004,1.889064e-004
5.328091e-004,2.067336e-004
4.164462e-004,2.023578e-004
2.751252e-004,1.817755e-004
1.566554e-004,1.584381e-004
1.099806e-004,1.495245e-004
1.427178e-004,1.576278e-004
2.143507e-004,1.723757e-004
2.697770e-004,1.775618e-004
2.660495e-004,1.637863e-004
1.738343e-004,1.299146e-004
-1.610623e-005,7.837785e-005
-2.611490e-004,1.533444e-005
-4.713476e-004,-4.770897e-005
-5.679386e-004,-1.045939e-004
-5.282326e-004,-1.535376e-004
-3.982562e-004,-1.945401e-004
-2.904828e-004,-2.243601e-004
-3.196545e-004,-2.360288e-004
-5.125122e-004,-2.220912e-004
-7.758683e-004,-1.869231e-004
-9.795843e-004,-1.402483e-004
-1.052514e-003,-9.422171e-005
-1.010539e-003,-5.759496e-005
-9.128135e-004,-3.474375e-005
-8.227052e-004,-2.437157e-005
-7.723029e-004,-1.788895e-005
-7.458862e-004,-7.516774e-006
-7.039113e-004,6.744974e-006
-6.303337e-004,2.473422e-005
-5.369841e-004,4.077869e-005
-4.434724e-004,5.098881e-005
-3.744326e-004,5.633696e-005
-3.478539e-004,5.763348e-005
-3.614674e-004,5.795762e-005
-3.963114e-004,5.795762e-005
-4.324520e-004,5.568870e-005
-4.429862e-004,4.758544e-005
-4.068456e-004,3.202716e-005
-3.147926e-004,1.355172e-005
-1.843300e-004,2.207145e-006
-5.143647e-005,1.234753e-006
5.763348e-005,7.393235e-006
1.462832e-004,1.679302e-005
2.307192e-004,2.214118e-005
3.206655e-004,1.971020e-005
4.110980e-004,9.013888e-006
4.819206e-004,-1.010982e-005
5.055821e-004,-3.782299e-005
4.645796e-004,-6.780506e-005
3.530786e-004,-9.438377e-005
1.811273e-004,-1.141557e-004
-3.766092e-005,-1.227452e-004
-2.814071e-004,-1.173971e-004
-5.303394e-004,-9.908367e-005
-7.640375e-004,-7.007398e-005
-9.672674e-004,-2.955766e-005
-1.130953e-003,2.035846e-005
-1.240671e-003,8.097089e-005
-1.283295e-003,1.532520e-004
-1.251530e-003,2.295848e-004
-1.141974e-003,3.044590e-004
-9.559228e-004,3.696093e-004
-7.052078e-004,4.206599e-004
-4.091146e-004,4.571246e-004
-9.730095e-005,4.738173e-004
1.879340e-004,4.629589e-004
3.934329e-004,4.201737e-004
4.827309e-004,3.470822e-004
4.649037e-004,2.572980e-004
4.004017e-004,1.691344e-004
3.793332e-004,9.798775e-005
4.751138e-004,4.920609e-005
6.977917e-004,2.570661e-005
9.882130e-004,2.295151e-005
1.249787e-003,2.797553e-005
1.393539e-003,3.235129e-005
1.377170e-003,3.170303e-005
1.228232e-003,2.554455e-005
1.033105e-003,1.290346e-005
8.927564e-004,-1.844488e-006
8.712017e-004,-1.464765e-005
9.724927e-004,-2.469570e-005
1.141689e-003,-3.328516e-005
1.294841e-003,-3.620233e-005
1.360316e-003,-3.555407e-005
1.304565e-003,-3.360929e-005
1.140068e-003,-3.198863e-005
9.131767e-004,-2.826113e-005
6.776956e-004,-2.453363e-005
4.642555e-004,-2.534396e-005
2.809595e-004,-3.344722e-005
1.284560e-004,-4.462973e-005
-2.654814e-006,-5.889147e-005
-1.297140e-004,-7.509801e-005
-2.652006e-004,-9.017008e-005
-3.993907e-004,-1.039456e-004
-5.115398e-004,-1.151281e-004
-5.847933e-004,-1.182074e-004
-6.060239e-004,-1.114006e-004
-5.703695e-004,-1.024870e-004
-4.844749e-004,-1.015147e-004
-3.669776e-004,-1.120489e-004
-2.470493e-004,-1.297140e-004
-1.383035e-004,-1.436516e-004
-4.479180e-005,-1.496480e-004
2.927205e-005,-1.475412e-004
8.291567e-005,-1.378173e-004
1.094944e-004,-1.222590e-004
9.247753e-005,-1.002181e-004
1.889987e-005,-7.607040e-005
-9.827335e-005,-5.338126e-005
-2.152845e-004,-3.506787e-005
-2.852967e-004,-1.918548e-005
-2.872415e-004,-2.006553e-006
-2.371633e-004,2.262737e-005
-1.728234e-004,6.314371e-005
-1.269589e-004,1.222975e-004
-1.157764e-004,1.923098e-004
-1.430034e-004,2.568118e-004
-2.037778e-004,3.005694e-004
-2.877277e-004,3.136967e-004
-3.901529e-004,3.060797e-004
-5.211016e-004,2.926282e-004
-6.770085e-004,2.764217e-004
-8.222189e-004,2.532463e-004
-9.165410e-004,2.184023e-004
-9.518712e-004,1.751308e-004
-9.418231e-004,1.321835e-004
-8.951483e-004,9.847395e-005
-8.139536e-004,7.448828e-005
-7.018045e-004,5.682316e-005
-5.554595e-004,4.790957e-005
-3.745946e-004,4.774750e-005
-1.768750e-004,4.742337e-005
1.193106e-005,3.640293e-005
1.628139e-004,1.419998e-005
2.469258e-004,-1.643037e-005
2.579462e-004,-5.273300e-005
2.159713e-004,-9.341139e-005
1.526038e-004,-1.326312e-004
9.960840e-005,-1.624512e-004
7.384001e-005,-1.752544e-004
7.043664e-005,-1.668270e-004
6.444023e-005,-1.402483e-004
3.154097e-005,-1.020008e-004
-2.388537e-005,-5.905355e-005
-6.197072e-005,-1.950961e-005
-4.754691e-005,9.013888e-006
1.403791e-005,2.781346e-005
8.194328e-005,4.320967e-005
1.252147e-004,5.828174e-005
1.467694e-004,6.768153e-005
1.725378e-004,6.492643e-005
2.174299e-004,5.358185e-005
2.743148e-004,3.899597e-005
3.323342e-004,2.441009e-005
3.867882e-004,1.257933e-005
4.251977e-004,6.258778e-006
4.297355e-004,9.338019e-006
3.893812e-004,1.971020e-005
3.166139e-004,3.056858e-005
2.470879e-004,3.624086e-005
2.171058e-004,3.591673e-005
2.414156e-004,3.380988e-005
3.013797e-004,3.721326e-005
3.649094e-004,4.953022e-005
4.151496e-004,6.622294e-005
4.498316e-004,7.789165e-005
4.700898e-004,8.178122e-005
4.725208e-004,8.502253e-005
4.375147e-004,9.280166e-005
3.410858e-004,1.010670e-004
1.913374e-004,1.034980e-004
4.596478e-005,9.847395e-005
-3.858999e-007,8.745350e-005
1.334801e-004,7.011251e-005
4.615003e-004,4.839576e-005
9.144733e-004,2.684107e-005
1.367122e-003,7.231170e-006
1.700816e-003,-1.497178e-005
1.843109e-003,-3.863331e-005
1.799676e-003,-5.970180e-005
1.632910e-003,-7.185670e-005
1.419307e-003,-7.444974e-005
1.210243e-003,-7.088431e-005
1.017061e-003,-7.234290e-005
8.332784e-004,-8.368747e-005
6.530616e-004,-1.011905e-004
4.764104e-004,-1.164247e-004
3.033245e-004,-1.201522e-004
1.321835e-004,-1.049180e-004
-4.560212e-005,-7.477388e-005
-2.376495e-004,-4.090223e-005
-4.559515e-004,-1.124428e-005
-7.269246e-004,9.824214e-006
-1.073420e-003,2.197911e-005
-1.499004e-003,2.489629e-005
-1.977745e-003,2.505835e-005
-2.461834e-003,3.397195e-005
-2.894063e-003,5.520250e-005
-3.229540e-003,8.712937e-005
-3.442170e-003,1.266733e-004
-3.516396e-003,1.645966e-004
-3.443467e-003,1.914994e-004
-3.209281e-003,1.991165e-004
-2.804441e-003,1.910132e-004
-2.250015e-003,1.738343e-004
-1.610180e-003,1.509831e-004
-9.758568e-004,1.206769e-004
-4.311554e-004,8.793970e-005
-2.712668e-005,6.071273e-005
2.255332e-004,4.288554e-005
3.452995e-004,3.040651e-005
3.619922e-004,2.181705e-005
3.185587e-004,2.068259e-005
2.626462e-004,2.700314e-005
2.248849e-004,3.656499e-005
2.268297e-004,4.110282e-005
2.877662e-004,3.932010e-005
4.188771e-004,3.737532e-005
6.068730e-004,3.948217e-005
8.267958e-004,4.709924e-005
1.052067e-003,5.828174e-005
1.255945e-003,6.995045e-005
1.418011e-003,7.853991e-005
1.532916e-003,8.486046e-005
1.604549e-003,9.312579e-005
1.636475e-003,1.036600e-004
1.633882e-003,1.185700e-004
1.600173e-003,1.373696e-004
1.542639e-003,1.550348e-004
1.465982e-003,1.657311e-004
1.374902e-003,1.645966e-004
1.276852e-003,1.516314e-004
1.183340e-003,1.295905e-004
1.101011e-003,1.051186e-004
1.033753e-003,8.502253e-005
9.794615e-004,6.281957e-005
9.337590e-004,3.040651e-005
8.895152e-004,-1.156841e-005
8.344129e-004,-5.775702e-005
7.481941e-004,-9.551824e-005
6.143280e-004,-1.190177e-004
4.298976e-004,-1.308485e-004
1.918236e-004,-1.399241e-004
-8.887356e-005,-1.535376e-004
-3.796187e-004,-1.694200e-004
-6.334129e-004,-1.810887e-004
-7.943438e-004,-1.846541e-004
-8.183294e-004,-1.762267e-004
-6.914323e-004,-1.502963e-004
-4.345588e-004,-9.649063e-005
-9.535618e-005,-4.437533e-006
2.644288e-004,1.219734e-004
5.926113e-004,2.702632e-004
8.639088e-004,4.185530e-004
1.068922e-003,5.506363e-004
1.205705e-003,6.577615e-004
1.250111e-003,7.295565e-004
1.174426e-003,7.598628e-004
9.627687e-004,7.392805e-004
6.068730e-004,6.579236e-004
9.166720e-005,5.221128e-004
-5.668041e-004,3.559958e-004
-1.286050e-003,1.897167e-004
-1.931070e-003,4.661304e-005
-2.376750e-003,-6.456376e-005
-2.564746e-003,-1.489998e-004
-2.503485e-003,-2.173913e-004
-2.241263e-003,-2.744383e-004
-1.845013e-003,-3.141443e-004
-1.394147e-003,-3.250027e-004
-9.578676e-004,-3.011791e-004
-5.796073e-004,-2.475355e-004
-2.739521e-004,-1.794681e-004
-3.571614e-005,-1.167488e-004
1.526038e-004,-7.104637e-005
3.055935e-004,-4.284701e-005
4.373526e-004,-2.728874e-005
5.642498e-004,-1.772689e-005
6.914712e-004,-1.237873e-005
7.989205e-004,-1.562004e-005
8.318198e-004,-3.085418e-005
7.268014e-004,-5.370539e-005
4.780310e-004,-7.704279e-005
1.752929e-004,-9.600443e-005
-5.775702e-005,-1.086455e-004
-1.433275e-004,-1.169109e-004
-8.595638e-005,-1.263107e-004
6.055066e-005,-1.410586e-004
2.303951e-004,-1.559686e-004
3.838710e-004,-1.671511e-004
5.097958e-004,-1.703924e-004
6.047661e-004,-1.658546e-004
6.674855e-004,-1.577513e-004
6.892022e-004,-1.569410e-004
6.660269e-004,-1.694200e-004
6.118970e-004,-1.838438e-004
5.498260e-004,-1.851403e-004
4.885652e-004,-1.682856e-004
4.261701e-004,-1.374931e-004
3.581026e-004,-1.029732e-004
2.786906e-004,-7.396355e-005
1.811273e-004,-5.208473e-005
5.001641e-005,-3.231276e-005
-1.238797e-004,-4.113402e-006
-3.154408e-004,3.737532e-005
-4.587065e-004,8.777764e-005
-4.757234e-004,1.368834e-004
-3.269475e-004,1.798307e-004
-4.106429e-005,2.174299e-004
2.948972e-004,2.491947e-004
5.918010e-004,2.684805e-004
7.901690e-004,2.688046e-004
8.705535e-004,2.496809e-004
8.502953e-004,2.162954e-004
7.762313e-004,1.767515e-004
7.007089e-004,1.323456e-004
6.559788e-004,8.113296e-005
6.514410e-004,3.056858e-005
6.802886e-004,-4.599598e-006
7.221015e-004,-1.513384e-005
7.558112e-004,-6.544382e-006
7.666695e-004,1.387585e-005
7.515974e-004,3.543053e-005
7.170775e-004,4.677511e-005
6.793162e-004,3.915804e-005
6.530616e-004,1.419998e-005
6.315069e-004,-2.145439e-005
5.919630e-004,-5.775702e-005
4.997478e-004,-9.276313e-005
3.388168e-004,-1.235555e-004
1.224596e-004,-1.473791e-004
-1.162626e-004,-1.575892e-004
-3.373197e-004,-1.457585e-004
-5.241809e-004,-1.148040e-004
-6.893254e-004,-7.218083e-005
-8.384255e-004,-2.664048e-005
-9.565711e-004,1.565857e-005
-1.036307e-003,4.823369e-005
-1.094327e-003,6.525056e-005
-1.160125e-003,6.832980e-005
-1.245533e-003,6.071273e-005
-1.337425e-003,4.742337e-005
-1.409057e-003,3.186510e-005
-1.439688e-003,1.857574e-005
-1.428991e-003,1.306552e-005
-1.398847e-003,1.808955e-005
-1.378103e-003,3.202716e-005
-1.378265e-003,4.985435e-005
-1.399171e-003,6.687120e-005
-1.452329e-003,8.275361e-005
-1.573230e-003,9.620503e-005
-1.782780e-003,1.028497e-004
-2.045326e-003,1.031738e-004
-2.276269e-003,9.701536e-005
-2.391660e-003,8.453633e-005
-2.357302e-003,6.622294e-005
-2.207068e-003,4.304760e-005
-2.013399e-003,1.582063e-005
-1.830589e-003,-1.173047e-005
-1.655073e-003,-3.490581e-005
-1.432881e-003,-4.997788e-005
-1.111667e-003,-5.500191e-005
-6.946736e-004,-4.803310e-005
-2.402425e-004,-3.539201e-005
1.738343e-004,-2.404744e-005
4.906721e-004,-1.659243e-005
6.874196e-004,-5.734055e-006
7.572697e-004,2.019640e-005
7.076777e-004,6.168512e-005
5.708945e-004,1.098185e-004
4.085050e-004,1.488763e-004
2.850111e-004,1.688103e-004
2.419018e-004,1.696206e-004
2.989488e-004,1.584381e-004
4.465903e-004,1.457970e-004
6.480376e-004,1.389903e-004
8.666639e-004,1.404489e-004
1.079618e-003,1.453108e-004
1.282686e-003,1.475797e-004
1.485592e-003,1.466074e-004
1.698709e-003,1.425557e-004
1.918470e-003,1.359110e-004
2.112301e-003,1.287802e-004
2.233202e-003,1.282940e-004
2.250381e-003,1.378558e-004
2.174534e-003,1.522796e-004
2.058171e-003,1.618415e-004
1.958176e-003,1.620035e-004
1.894484e-003,1.592484e-004
1.825444e-003,1.598967e-004
1.690930e-003,1.608691e-004
1.476517e-003,1.590864e-004
1.240549e-003,1.530900e-004
1.066491e-003,1.454729e-004
9.950198e-004,1.433660e-004
1.008147e-003,1.513072e-004
1.048339e-003,1.616794e-004
1.062439e-003,1.642725e-004
1.029216e-003,1.548727e-004
9.600137e-004,1.363972e-004
8.733086e-004,1.179218e-004
7.783382e-004,1.065772e-004
6.639201e-004,1.033359e-004
5.175750e-004,1.060910e-004
3.402754e-004,1.098185e-004
1.443384e-004,1.070634e-004
-4.932962e-005,9.118101e-005
-2.206326e-004,7.157111e-005
-3.674638e-004,5.325772e-005
-5.050572e-004,3.494434e-005
-6.408680e-004,8.041497e-006
-7.643617e-004,-3.312309e-005
-8.504183e-004,-8.255302e-005
-8.847762e-004,-1.255003e-004
-8.695420e-004,-1.496480e-004
-8.121709e-004,-1.515928e-004
-7.244936e-004,-1.415448e-004
-6.193132e-004,-1.285796e-004
-5.011677e-004,-1.144799e-004
-3.603329e-004,-9.746302e-005
-1.797922e-004,-7.882551e-005
5.504044e-005,-6.294311e-005
3.276343e-004,-5.273300e-005
5.798081e-004,-4.997788e-005
7.396046e-004,-5.208473e-005
7.725038e-004,-5.727082e-005
6.937401e-004,-6.116039e-005
5.488536e-004,-6.116039e-005
3.927846e-004,-5.565017e-005
2.671840e-004,-4.722277e-005
1.978200e-004,-3.701266e-005
1.963614e-004,-2.566809e-005
2.522740e-004,-1.448558e-005
3.384927e-004,-5.085794e-006
4.230909e-004,1.558884e-006
4.760862e-004,4.313994e-006
4.820826e-004,7.717366e-006
4.383250e-004,1.841368e-005
3.545372e-004,3.964423e-005
2.410914e-004,6.541262e-005
1.046324e-004,9.004655e-005
-5.224680e-005,1.104668e-004
-2.193361e-004,1.247285e-004
-3.799428e-004,1.289422e-004
-5.223982e-004,1.203528e-004
-6.428128e-004,1.004187e-004
-7.353520e-004,7.918817e-005
-7.992057e-004,6.314371e-005
-8.406944e-004,5.163707e-005
-8.607905e-004,3.834771e-005
-8.701903e-004,1.889987e-005
-8.915829e-004,-1.189254e-005
-9.449024e-004,-5.143647e-005
-1.033390e-003,-8.968388e-005
-1.149267e-003,-1.162626e-004
-1.270654e-003,-1.277692e-004
-1.363679e-003,-1.287416e-004
-1.396903e-003,-1.267968e-004
-1.352983e-003,-1.261486e-004
-1.241320e-003,-1.274451e-004
-1.092544e-003,-1.305243e-004
-9.389059e-004,-1.344139e-004
-7.951541e-004,-1.365208e-004
-6.569124e-004,-1.324691e-004
-5.235327e-004,-1.186936e-004
-4.110594e-004,-9.503204e-005
-3.373197e-004,-6.229485e-005
-3.110651e-004,-2.113026e-005
-3.188442e-004,2.570661e-005
-3.287302e-004,6.930219e-005
-3.063652e-004,1.064151e-004
-2.308428e-004,1.432040e-004
-1.037836e-004,1.824238e-004
5.974033e-005,2.224539e-004
2.281262e-004,2.582704e-004
3.710678e-004,2.830664e-004
4.576108e-004,2.924662e-004
4.662002e-004,2.816078e-004
4.130428e-004,2.464396e-004
3.415720e-004,1.900409e-004
2.937627e-004,1.164632e-004
2.955454e-004,3.413401e-005
3.702575e-004,-4.641245e-005
5.350781e-004,-1.188556e-004
7.754210e-004,-1.833576e-004
1.035212e-003,-2.348944e-004
1.241521e-003,-2.677937e-004
1.342002e-003,-2.763831e-004
1.323851e-003,-2.632558e-004
1.204246e-003,-2.342461e-004
1.016088e-003,-1.924333e-004
7.985964e-004,-1.404103e-004
5.911527e-004,-7.914964e-005
4.196875e-004,-7.678839e-006
2.905214e-004,7.076077e-005
2.120818e-004,1.509831e-004
1.902029e-004,2.268297e-004
2.047888e-004,2.869559e-004
2.149989e-004,3.208276e-004
1.853410e-004,3.307136e-004
9.652916e-005,3.222862e-004
-5.127441e-005,2.992729e-004
-2.520733e-004,2.668598e-004
-5.082985e-004,2.245608e-004
-8.424771e-004,1.777239e-004
-1.275191e-003,1.299146e-004
-1.764467e-003,8.696730e-005
-2.202530e-003,5.487837e-005
-2.469776e-003,3.251336e-005
-2.506078e-003,2.149292e-005
-2.341906e-003,1.663096e-005
-2.051647e-003,1.128280e-005
-1.706447e-003,-3.951337e-006
-1.351038e-003,-2.647842e-005
-9.938461e-004,-4.576419e-005
-6.215821e-004,-5.370539e-005
-2.232257e-004,-4.851930e-005
1.989545e-004,-3.328516e-005
6.409067e-004,-1.643037e-005
1.088370e-003,-2.492749e-006
1.493696e-003,4.800190e-006
1.786224e-003,5.934647e-006
1.906639e-003,-2.330684e-006
1.838409e-003,-1.788895e-005
1.619945e-003,-3.474375e-005
1.326606e-003,-4.754691e-005
1.033916e-003,-5.192267e-005
7.857932e-004,-4.365734e-005
5.845079e-004,-2.453363e-005
4.007258e-004,9.106226e-007
2.020337e-004,2.927205e-005
-4.706071e-005,5.925414e-005
-3.621157e-004,8.599491e-005
-7.094215e-004,1.036600e-004
-1.010539e-003,1.109530e-004
-1.183949e-003,1.109530e-004
-1.180707e-003,1.078737e-004
-9.991942e-004,1.109530e-004
-6.820326e-004,1.226217e-004
-3.053928e-004,1.402868e-004
5.017848e-005,1.582760e-004
3.316860e-004,1.691344e-004
5.279472e-004,1.641104e-004
6.723474e-004,1.427178e-004
8.272820e-004,1.128978e-004
1.043315e-003,8.729143e-005
1.323203e-003,7.578480e-005
1.621079e-003,7.448828e-005
1.864826e-003,7.935023e-005
1.994317e-003,8.696730e-005
1.993506e-003,9.361198e-005
1.894646e-003,9.604297e-005
1.750084e-003,9.263960e-005
1.599362e-003,8.777764e-005
1.455124e-003,8.340186e-005
1.309589e-003,8.145709e-005
1.155303e-003,8.129502e-005
9.948577e-004,7.659513e-005
8.399231e-004,6.427816e-005
6.950366e-004,4.434413e-005
5.486915e-004,2.165498e-005
3.841952e-004,-1.682422e-006
1.965235e-004,-2.761287e-005
-1.675450e-005,-5.467778e-005
-2.517492e-004,-7.590833e-005
-4.878783e-004,-8.433573e-005
-6.877048e-004,-7.931171e-005
-8.099020e-004,-6.683268e-005
-8.308084e-004,-5.354332e-005
-7.570687e-004,-4.511592e-005
-6.173684e-004,-4.252288e-005
-4.634064e-004,-4.414354e-005
-3.596847e-004,-4.657451e-005
-3.340783e-004,-4.187462e-005
-3.630880e-004,-2.696461e-005
-3.943666e-004,-3.951337e-006
-3.831841e-004,1.938607e-005
-3.186821e-004,3.575467e-005
-2.332737e-004,4.142695e-005
-1.671511e-004,3.688912e-005
-1.462447e-004,2.813760e-005
-1.718510e-004,2.181705e-005
-2.258187e-004,1.873781e-005
-2.827036e-004,1.727922e-005
-3.250027e-004,1.582063e-005
-3.386162e-004,1.533444e-005
-3.165753e-004,1.695509e-005
-2.577456e-004,2.408596e-005
-1.759026e-004,3.559260e-005
-1.020008e-004,4.758544e-005
-6.553616e-005,5.682316e-005
-9.405964e-005,5.698522e-005
-2.160948e-004,4.450619e-005
-4.290486e-004,2.052053e-005
-6.891634e-004,-1.335112e-005
-9.246442e-004,-5.030201e-005
-1.064345e-003,-7.785312e-005
-1.072934e-003,-8.547019e-005
-9.729397e-004,-7.137050e-005
-8.259465e-004,-4.317114e-005
-6.902979e-004,-1.075808e-005
-6.009999e-004,1.501031e-005
-5.588629e-004,2.603075e-005
-5.369841e-004,2.165498e-005
-5.013297e-004,9.662150e-006
-4.272659e-004,1.720949e-006
-3.000446e-004,7.717366e-006
-1.204763e-004,2.765140e-005
9.053274e-005,5.423011e-005
3.000832e-004,8.145709e-005
4.788413e-004,1.057669e-004
6.071971e-004,1.255388e-004
6.775335e-004,1.436902e-004
6.935780e-004,1.621656e-004
6.663510e-004,1.786963e-004
6.143280e-004,1.882581e-004
5.595500e-004,1.848548e-004
5.162784e-004,1.668655e-004
4.773827e-004,1.399627e-004
4.258459e-004,1.114392e-004
3.433547e-004,8.486046e-005
2.226160e-004,6.152305e-005
7.983643e-005,4.045456e-005
-4.414354e-005,2.181705e-005
-1.125351e-004,3.341602e-006
-1.013526e-004,-1.837515e-005
-1.034161e-006,-4.949169e-005
1.851789e-004,-8.741497e-005
4.320044e-004,-1.232314e-004
6.971434e-004,-1.446240e-004
9.345693e-004,-1.449481e-004
1.104738e-003,-1.293899e-004
1.186905e-003,-1.024870e-004
1.184798e-003,-6.780506e-005
1.104414e-003,-3.134038e-005
9.535310e-004,-8.720958e-007
7.598628e-004,2.246531e-005
5.655463e-004,3.915804e-005
4.226046e-004,5.098881e-005
3.699334e-004,5.941620e-005
4.080188e-004,6.573675e-005
4.845136e-004,6.962632e-005
5.128751e-004,6.995045e-005
4.248735e-004,6.168512e-005
2.125679e-004,4.547859e-005
-7.995997e-005,3.380988e-005
-3.893426e-004,3.186510e-005
-6.577227e-004,3.688912e-005
-8.638697e-004,3.915804e-005
-1.025449e-003,2.959618e-005
-1.176332e-003,9.500084e-006
-1.349093e-003,-1.124428e-005
-1.554754e-003,-2.501983e-005
-1.775649e-003,-3.053005e-005
-1.971262e-003,-2.793700e-005
-2.088760e-003,-1.999580e-005
-2.076929e-003,-1.140634e-005
-1.917294e-003,-5.734055e-006
-1.630439e-003,-2.168618e-006
-1.271464e-003,2.693341e-006
-9.170272e-004,1.079661e-005
-6.319543e-004,1.825161e-005
-4.439586e-004,2.748933e-005
-3.301888e-004,4.029249e-005
-2.327876e-004,5.406805e-005
-9.033214e-005,7.059870e-005
1.305629e-004,8.307774e-005
4.256839e-004,8.664317e-005
7.540284e-004,8.323980e-005
1.073460e-003,8.048469e-005
1.377332e-003,8.421220e-005
1.672616e-003,8.891209e-005
1.937108e-003,8.161915e-005
2.114084e-003,5.390598e-005
2.153466e-003,1.663096e-005
2.041478e-003,-9.785687e-006
1.809724e-003,-9.461557e-006
1.508606e-003,2.035846e-005
1.186419e-003,7.205730e-005
8.762258e-004,1.294284e-004
5.849942e-004,1.835582e-004
3.055935e-004,2.289365e-004
3.251336e-005,2.629703e-004
-2.128535e-004,2.798251e-004
-3.942045e-004,2.756114e-004
-4.794509e-004,2.466016e-004
-4.587065e-004,1.961993e-004
-3.653569e-004,1.331559e-004
-2.797865e-004,6.670914e-005
-2.859450e-004,5.772582e-006
-4.418518e-004,-3.717472e-005
-7.541516e-004,-5.565017e-005
-1.168228e-003,-5.208473e-005
-1.585384e-003,-3.782299e-005
-1.901736e-003,-2.469570e-005
-2.042895e-003,-1.788895e-005
-1.998651e-003,-1.464765e-005
-1.824431e-003,-1.286493e-005
-1.593974e-003,-1.059601e-005
-1.361410e-003,-5.896120e-006
-1.159153e-003,1.234753e-006
-1.006649e-003,7.069104e-006
-9.047101e-004,6.907039e-006
-8.393979e-004,1.558884e-006
-7.932092e-004,-7.100305e-007
-7.361623e-004,3.341602e-006
-6.290372e-004,1.112074e-005
-4.434724e-004,1.679302e-005
-1.810887e-004,1.922400e-005
1.367214e-004,2.230324e-005
4.710622e-004,2.716520e-005
7.710453e-004,3.348575e-005
9.909682e-004,4.320967e-005
1.109114e-003,5.455424e-005
1.138124e-003,6.168512e-005
1.119810e-003,6.200925e-005
1.101659e-003,5.682316e-005
1.104414e-003,4.450619e-005
1.123376e-003,2.457216e-005
1.134720e-003,2.207145e-006
1.116569e-003,-1.432352e-005
1.057901e-003,-2.226472e-005
9.658480e-004,-2.242678e-005
8.524021e-004,-1.756482e-005
7.349047e-004,-1.124428e-005
6.355586e-004,-6.706447e-006
5.726772e-004,-7.840905e-006
5.618188e-004,-1.788895e-005
6.080074e-004,-3.409548e-005
7.050846e-004,-5.013995e-005
8.477023e-004,-5.953974e-005
1.030674e-003,-5.937767e-005
1.234877e-003,-4.462973e-005
1.425142e-003,-1.108221e-005
1.561925e-003,4.126489e-005
1.617676e-003,1.013911e-004
1.589476e-003,1.522796e-004
1.493371e-003,1.777239e-004
1.349133e-003,1.712413e-004
1.161461e-003,1.393144e-004
9.191731e-004,9.296372e-005
6.238898e-004,4.304760e-005
3.072141e-004,-1.358292e-006
1.063454e-005,-3.960571e-005
-2.331117e-004,-7.363942e-005
-3.967976e-004,-1.002181e-004
-4.666477e-004,-1.105903e-004
-4.446069e-004,-1.034594e-004
-3.617915e-004,-8.773910e-005
-2.867553e-004,-6.861539e-005
-3.008549e-004,-5.046408e-005
-4.463896e-004,-3.441962e-005
-6.941874e-004,-2.177852e-005
-9.688881e-004,-1.140634e-005
-1.190107e-003,-3.141010e-006
-1.308739e-003,4.962256e-006
-1.318787e-003,1.419998e-005
-1.231596e-003,3.316162e-005
-1.060941e-003,6.638501e-005
-8.478253e-004,1.078737e-004
-6.760361e-004,1.449867e-004
-6.259579e-004,1.678379e-004
-6.922426e-004,1.739964e-004
-7.815406e-004,1.650828e-004
-7.750580e-004,1.495245e-004
-6.173684e-004,1.359110e-004
-3.434781e-004,1.258630e-004
-3.960571e-005,1.187321e-004
2.044647e-004,1.104668e-004
3.441650e-004,9.393611e-005
3.890571e-004,7.254349e-005
3.927846e-004,5.017848e-005
4.177427e-004,3.332369e-005
4.942375e-004,2.522042e-005
6.102764e-004,2.246531e-005
7.248566e-004,2.424803e-005
7.817416e-004,2.554455e-005
7.284220e-004,2.441009e-005
5.350781e-004,2.149292e-005
2.179161e-004,1.808955e-005
-1.660166e-004,1.533444e-005
-5.337428e-004,1.630683e-005
-8.013126e-004,1.922400e-005
-9.094101e-004,1.841368e-005
-8.573871e-004,6.744974e-006
-7.110421e-004,-1.254080e-005
-5.606457e-004,-3.506787e-005
-4.672960e-004,-6.051213e-005
-4.425000e-004,-8.530812e-005
-4.572480e-004,-1.060525e-004
-4.792888e-004,-1.169109e-004
-4.875541e-004,-1.141557e-004
-4.643788e-004,-9.276313e-005
-3.932322e-004,-5.159854e-005
-2.707108e-004,3.989864e-006
-1.191798e-004,5.860587e-005
2.538249e-005,9.798775e-005
1.328318e-004,1.195424e-004
2.034923e-004,1.248906e-004
2.550291e-004,1.195424e-004
3.013797e-004,1.148425e-004
3.470822e-004,1.192183e-004
3.976466e-004,1.331559e-004
4.548556e-004,1.568175e-004
5.031511e-004,1.843686e-004
5.250300e-004,2.039785e-004
5.084993e-004,2.044647e-004
4.519385e-004,1.824238e-004
3.645853e-004,1.451487e-004
2.662116e-004,1.010670e-004
1.697827e-004,6.103685e-005
7.286762e-005,2.538249e-005
-2.631635e-005,-6.382316e-006
-1.094559e-004,-3.717472e-005
-1.635857e-004,-6.488790e-005
-1.924333e-004,-8.725291e-005
-2.050744e-004,-1.005423e-004
-2.117190e-004,-1.067007e-004
-2.279256e-004,-1.073490e-004
-2.669833e-004,-1.075111e-004
-3.238682e-004,-1.073490e-004
-3.736223e-004,-1.107524e-004
-3.809152e-004,-1.186936e-004
-3.181959e-004,-1.300381e-004
-1.747682e-004,-1.339277e-004
3.769945e-005,-1.164247e-004
2.814457e-004,-7.104637e-005
4.939134e-004,1.002961e-007
6.060626e-004,8.729143e-005
5.841838e-004,1.770756e-004
4.545315e-004,2.572980e-004
2.846870e-004,3.224483e-004
1.509831e-004,3.626405e-004
1.039842e-004,3.644232e-004
1.603829e-004,3.213138e-004
2.961937e-004,2.440086e-004
4.687933e-004,1.524417e-004
6.375034e-004,6.719534e-005
7.689385e-004,1.558884e-006
8.407334e-004,-4.317114e-005
8.279303e-004,-7.153257e-005
7.157809e-004,-9.130454e-005
5.153061e-004,-1.024870e-004
2.642668e-004,-1.020008e-004
7.555300e-006,-8.887356e-005
-2.088019e-004,-6.586029e-005
-3.488263e-004,-3.441962e-005
-4.000389e-004,2.369210e-006
-3.747567e-004,4.515445e-005
-3.002067e-004,9.166720e-005
-1.985918e-004,1.357490e-004
-7.769105e-005,1.649207e-004
6.557468e-005,1.673517e-004
2.286124e-004,1.410971e-004
3.976466e-004,9.928427e-005
5.467467e-004,5.909207e-005
6.517651e-004,3.267542e-005
6.992503e-004,2.522042e-005
6.940642e-004,3.445814e-005
6.493341e-004,5.779555e-005
5.717048e-004,8.696730e-005
4.632831e-004,1.174356e-004
3.266619e-004,1.475797e-004
1.730240e-004,1.683241e-004
1.371378e-005,1.785342e-004
-1.344139e-004,1.795066e-004
-2.562870e-004,1.757791e-004
-3.429920e-004,1.683241e-004
-3.948528e-004,1.574657e-004
-4.091146e-004,1.394765e-004
-3.828600e-004,1.130598e-004
-3.121995e-004,8.080882e-005
-2.060468e-004,4.693717e-005
-8.384953e-005,1.565857e-005
2.846173e-005,-1.075808e-005
8.875003e-005,-3.150244e-005
6.055066e-005,-4.479180e-005
-4.738484e-005,-5.030201e-005
-1.770371e-004,-4.819516e-005
-2.566112e-004,-4.009190e-005
-2.408908e-004,-2.988179e-005
-1.336036e-004,-2.177852e-005
2.635488e-005,-2.242678e-005
1.931201e-004,-3.360929e-005
3.237448e-004,-5.435365e-005
3.882468e-004,-8.141856e-005
3.827366e-004,-1.063766e-004
3.187208e-004,-1.199901e-004
2.149989e-004,-1.233935e-004
8.858796e-005,-1.167488e-004
-5.451571e-005,-1.018388e-004
-2.191741e-004,-8.433573e-005
-4.060353e-004,-7.120844e-005
-6.055377e-004,-6.342930e-005
-8.037435e-004,-5.775702e-005
-9.836360e-004,-5.240886e-005
-1.123660e-003,-4.689864e-005
-1.206800e-003,-4.268495e-005
-1.236458e-003,-4.300908e-005
-1.241968e-003,-4.932962e-005
-1.252502e-003,-5.840528e-005
-1.269519e-003,-6.991192e-005
-1.270329e-003,-8.222889e-005
-1.228679e-003,-9.033214e-005
-1.126091e-003,-9.065627e-005
-9.661330e-004,-8.271508e-005
-7.616066e-004,-7.363942e-005
-5.264499e-004,-6.667061e-005
-2.737901e-004,-6.083626e-005
-1.626830e-005,-5.257093e-005
2.362295e-004,-3.992984e-005
4.846757e-004,-2.031993e-005
7.412253e-004,2.693341e-006
1.015116e-003,2.635488e-005
1.299865e-003,4.969228e-005
1.571487e-003,7.157111e-005
1.796434e-003,8.469840e-005
1.954611e-003,8.712937e-005
2.045692e-003,8.161915e-005
2.071784e-003,7.238143e-005
2.021706e-003,6.508849e-005
1.883302e-003,6.816773e-005
1.658030e-003,8.664317e-005
1.328551e-003,1.182459e-004
8.682846e-004,1.532520e-004
2.905214e-004,1.827479e-004
-3.352128e-004,1.963614e-004
-9.118411e-004,1.947408e-004
-1.368541e-003,1.838824e-004
-1.680841e-003,1.725378e-004
-1.858951e-003,1.645966e-004
-1.924425e-003,1.586002e-004
-1.896712e-003,1.500107e-004
-1.810493e-003,1.300767e-004
-1.746639e-003,9.280166e-005
-1.843555e-003,4.013043e-005
-2.217764e-003,-1.772689e-005
-2.851602e-003,-7.234290e-005
-3.585760e-003,-1.214487e-004
-4.188971e-003,-1.673132e-004
-4.473722e-003,-2.063709e-004
-4.351686e-003,-2.324634e-004
-3.834370e-003,-2.420253e-004
-3.017233e-003,-2.353806e-004
-2.032847e-003,-2.149604e-004
-1.003894e-003,-1.818990e-004
-2.664048e-005,-1.358725e-004
8.280923e-004,-7.898758e-005
1.530322e-003,-1.626830e-005
2.085884e-003,4.320967e-005
2.504014e-003,9.134307e-005
2.792330e-003,1.219734e-004
2.958935e-003,1.286181e-004
3.017278e-003,1.166253e-004
2.988917e-003,9.717742e-005
2.900590e-003,8.486046e-005
2.784389e-003,8.891209e-005
2.666891e-003,1.060910e-004
2.561872e-003,1.240803e-004
2.463498e-003,1.320215e-004
2.357993e-003,1.286181e-004
2.241791e-003,1.240803e-004
2.118459e-003,1.289422e-004
2.002096e-003,1.417454e-004
1.907936e-003,1.558451e-004
1.838247e-003,1.644345e-004
1.773745e-003,1.667035e-004
1.690930e-003,1.628139e-004
1.579428e-003,1.564933e-004
1.446535e-003,1.472556e-004
1.304403e-003,1.362352e-004
1.160975e-003,1.250527e-004
1.011064e-003,1.132219e-004
8.392748e-004,1.020394e-004
6.378275e-004,9.085687e-005
4.132048e-004,7.772959e-005
1.858272e-004,6.071273e-005
-2.096819e-005,4.693717e-005
-1.912988e-004,4.418206e-005
-3.277578e-004,5.390598e-005
-4.368277e-004,7.270556e-005
-5.202913e-004,8.972242e-005
-5.697213e-004,9.750155e-005
-5.624284e-004,9.507057e-005
-4.912817e-004,8.712937e-005
-3.825359e-004,7.724339e-005
-2.818933e-004,6.622294e-005
-2.212809e-004,5.633696e-005
-2.083157e-004,4.758544e-005
-2.287359e-004,3.818564e-005
-2.489941e-004,2.992031e-005
-2.290600e-004,2.781346e-005
-1.438137e-004,3.753739e-005
5.610517e-006,5.860587e-005
2.005751e-004,8.145709e-005
4.170944e-004,1.022014e-004
6.303724e-004,1.261871e-004
8.109134e-004,1.553589e-004
9.306798e-004,1.850168e-004
9.773546e-004,2.043026e-004
9.519104e-004,2.046267e-004
8.682846e-004,1.855030e-004
7.464113e-004,1.477418e-004
6.041179e-004,9.474644e-005
4.579349e-004,3.753739e-005
3.266619e-004,-8.327101e-006
2.307192e-004,-3.215070e-005
1.778859e-004,-3.782299e-005
1.542244e-004,-3.717472e-005
1.451487e-004,-4.090223e-005
1.438522e-004,-5.694669e-005
1.498487e-004,-7.736692e-005
1.551968e-004,-8.984595e-005
1.415833e-004,-8.660465e-005
9.442231e-005,-6.650855e-005
9.500084e-006,-3.830918e-005
-9.762508e-005,-1.513384e-005
-1.945401e-004,-1.682422e-006
-2.603386e-004,6.096713e-006
-3.186821e-004,1.436204e-005
-4.251590e-004,2.441009e-005
-6.185029e-004,3.186510e-005
-8.933656e-004,2.975825e-005
-1.197562e-003,1.760335e-005
-1.455084e-003,2.693341e-006
-1.613746e-003,-4.761663e-006
-1.666741e-003,-2.006553e-006
-1.643566e-003,9.500084e-006
-1.595270e-003,2.473422e-005
-1.563344e-003,3.462021e-005
-1.558644e-003,3.543053e-005
-1.571123e-003,2.732727e-005
-1.584898e-003,1.776542e-005
-1.577929e-003,1.436204e-005
-1.534010e-003,1.825161e-005
-1.443901e-003,1.776542e-005
-1.300150e-003,3.665733e-006
-1.100971e-003,-2.339917e-005
-8.700282e-004,-5.435365e-005
-6.557779e-004,-7.882551e-005
-5.050572e-004,-8.935975e-005
-4.426621e-004,-8.449779e-005
-4.590307e-004,-7.120844e-005
-5.206154e-004,-5.321919e-005
-5.851174e-004,-3.490581e-005
-6.052136e-004,-1.967167e-005
-5.437908e-004,-8.165034e-006
-3.927460e-004,-4.437533e-006
-1.921091e-004,-1.335112e-005
-1.351319e-005,-3.441962e-005
8.761556e-005,-6.294311e-005
9.798775e-005,-9.081834e-005
4.450619e-005,-1.062145e-004
-2.939559e-005,-1.041077e-004
-8.790116e-005,-8.628051e-005
-1.067007e-004,-5.727082e-005
-8.012203e-005,-1.967167e-005
-3.004385e-005,2.343770e-005
1.241726e-005,6.444023e-005
2.878586e-005,9.474644e-005
1.549650e-005,1.098185e-004
-1.918548e-005,1.077117e-004
-6.991192e-005,9.571883e-005
-1.509446e-004,8.712937e-005
-2.838381e-004,9.101894e-005
-4.674581e-004,1.039842e-004
-6.841394e-004,1.161391e-004
-8.923932e-004,1.163011e-004
-1.036956e-003,9.944633e-005
-1.069693e-003,6.751947e-005
-9.625675e-004,3.008238e-005
-7.280590e-004,-6.382316e-006
-4.155972e-004,-3.944364e-005
-9.503204e-005,-7.023605e-005
1.748067e-004,-9.924574e-005
3.592371e-004,-1.224211e-004
4.593935e-004,-1.350622e-004
5.026649e-004,-1.342519e-004
5.272989e-004,-1.193418e-004
5.718669e-004,-9.162867e-005
6.554926e-004,-5.402952e-005
7.666695e-004,-1.659243e-005
8.754155e-004,1.031041e-005
9.572585e-004,2.684107e-005
1.009444e-003,3.705119e-005
1.040398e-003,4.175108e-005
