1.911753e-004,2.829966e-005
3.099692e-004,5.941620e-005
3.328204e-004,9.701536e-005
2.615117e-004,1.354248e-004
9.523264e-005,1.707551e-004
-1.622891e-004,1.986303e-004
-4.891748e-004,2.153230e-004
-8.220569e-004,2.218057e-004
-1.082172e-003,2.209953e-004
-1.209393e-003,2.159713e-004
-1.184111e-003,2.049509e-004
-1.026259e-003,1.786963e-004
-7.928851e-004,1.292664e-004
-5.645352e-004,5.844381e-005
-4.316416e-004,-2.291298e-005
-4.583824e-004,-1.047560e-004
-6.468644e-004,-1.810887e-004
-9.214029e-004,-2.457528e-004
-1.158018e-003,-2.942103e-004
-1.249099e-003,-3.264613e-004
-1.141164e-003,-3.418575e-004
-8.475012e-004,-3.413713e-004
-4.373140e-004,-3.245165e-004
3.827798e-006,-2.904828e-004
3.952156e-004,-2.426735e-004
6.789921e-004,-1.893540e-004
8.318198e-004,-1.389517e-004
8.613158e-004,-9.568031e-005
8.013516e-004,-6.359137e-005
6.942262e-004,-4.657451e-005
5.731634e-004,-4.122636e-005
4.613383e-004,-4.122636e-005
3.759298e-004,-3.814712e-005
3.255275e-004,-2.437157e-005
3.060797e-004,4.800190e-006
3.020280e-004,4.207521e-005
2.944109e-004,7.546067e-005
2.744769e-004,9.798775e-005
2.391467e-004,1.109530e-004
1.893926e-004,1.229458e-004
1.257009e-004,1.365593e-004
5.050261e-005,1.545486e-004
-2.712668e-005,1.726999e-004
-8.790116e-005,1.840444e-004
-1.120489e-004,1.911753e-004
-8.628051e-005,1.987924e-004
-2.258885e-005,2.083542e-004
4.077869e-005,2.159713e-004
5.763348e-005,2.211574e-004
8.689757e-006,2.326641e-004
-7.380149e-005,2.524360e-004
-1.259865e-004,2.736665e-004
-8.984595e-005,2.864697e-004
6.784360e-005,2.833905e-004
3.538889e-004,2.647530e-004
7.384701e-004,2.320158e-004
1.147523e-003,1.850168e-004
1.476355e-003,1.260251e-004
1.636962e-003,6.265751e-005
1.589314e-003,4.638125e-006
1.350754e-003,-3.830918e-005
9.788133e-004,-6.180866e-005
5.627912e-004,-6.602235e-005
1.955511e-004,-5.565017e-005
-7.979790e-005,-3.312309e-005
-2.794623e-004,-1.196226e-006
-4.457413e-004,3.478227e-005
-6.223925e-004,6.784360e-005
-8.227052e-004,8.810177e-005
-1.022532e-003,9.069480e-005
-1.190593e-003,7.691926e-005
-1.326890e-003,5.504044e-005
-1.441633e-003,3.510640e-005
-1.520558e-003,2.473422e-005
-1.526231e-003,2.554455e-005
-1.427533e-003,3.186510e-005
-1.222520e-003,3.672705e-005
-9.426334e-004,3.721326e-005
-6.541573e-004,3.267542e-005
-4.447689e-004,2.408596e-005
-3.711913e-004,1.112074e-005
-4.282383e-004,-1.358292e-006
-5.399013e-004,-1.092015e-005
-6.060239e-004,-2.096819e-005
-5.544871e-004,-3.701266e-005
-3.744326e-004,-6.229485e-005
-1.175591e-004,-9.049421e-005
1.404489e-004,-1.143178e-004
3.409237e-004,-1.277692e-004
4.640934e-004,-1.282554e-004
5.211404e-004,-1.199901e-004
5.332953e-004,-1.128592e-004
5.127130e-004,-1.161005e-004
4.705760e-004,-1.313347e-004
4.169323e-004,-1.543479e-004
3.636129e-004,-1.749302e-004
3.198552e-004,-1.846541e-004
2.882525e-004,-1.911368e-004
2.662116e-004,-2.096122e-004
2.568118e-004,-2.402425e-004
2.602152e-004,-2.668213e-004
2.713976e-004,-2.694143e-004
2.798251e-004,-2.326255e-004
2.757734e-004,-1.520790e-004
2.595669e-004,-3.506787e-005
2.446569e-004,1.059289e-004
2.359053e-004,2.555152e-004
2.184023e-004,3.979707e-004
1.838824e-004,5.172509e-004
1.453108e-004,5.903423e-004
1.180839e-004,5.995801e-004
1.022014e-004,5.449640e-004
7.724339e-005,4.462662e-004
3.251336e-005,3.323342e-004
-2.453363e-005,2.239125e-004
-7.315322e-005,1.344524e-004
-8.903562e-005,7.140904e-005
-6.051213e-005,3.656499e-005
9.175954e-006,2.068259e-005
1.065772e-004,1.095867e-005
2.192126e-004,-5.085794e-006
3.389789e-004,-2.890940e-005
4.611762e-004,-5.386745e-005
5.871010e-004,-7.266703e-005
7.138362e-004,-7.558420e-005
8.342508e-004,-6.634648e-005
9.290591e-004,-5.062615e-005
9.823786e-004,-3.490581e-005
9.956680e-004,-2.145439e-005
9.909682e-004,-9.947754e-006
9.948577e-004,-2.978945e-006
1.015602e-003,-4.599598e-006
1.044288e-003,-1.335112e-005
1.067949e-003,-2.161646e-005
1.078808e-003,-1.659243e-005
1.072487e-003,9.013888e-006
1.044450e-003,5.098881e-005
9.956680e-004,9.523264e-005
9.169042e-004,1.257009e-004
7.945448e-004,1.336421e-004
6.169211e-004,1.252147e-004
3.850055e-004,1.137081e-004
1.078737e-004,1.038221e-004
-1.984297e-004,9.150514e-005
-5.115398e-004,7.562274e-005
-8.188156e-004,6.071273e-005
-1.111181e-003,5.212327e-005
-1.375510e-003,5.520250e-005
-1.597053e-003,7.513654e-005
-1.757822e-003,1.101426e-004
-1.833993e-003,1.524417e-004
-1.817624e-003,1.902029e-004
-1.722816e-003,2.104611e-004
-1.589274e-003,2.033302e-004
-1.450060e-003,1.705930e-004
-1.314573e-003,1.278078e-004
-1.172118e-003,9.507057e-005
-1.006973e-003,8.275361e-005
-8.121709e-004,8.291567e-005
-5.893311e-004,8.421220e-005
-3.527158e-004,7.772959e-005
-1.162626e-004,5.828174e-005
1.153287e-004,2.619281e-005
3.444891e-004,-1.173047e-005
5.600361e-004,-4.625038e-005
7.399287e-004,-7.201877e-005
8.653674e-004,-8.741497e-005
9.264661e-004,-9.665269e-005
9.287350e-004,-1.065387e-004
8.888669e-004,-1.204763e-004
8.345749e-004,-1.360346e-004
8.015136e-004,-1.478653e-004
8.107513e-004,-1.528894e-004
8.553193e-004,-1.512687e-004
8.994011e-004,-1.447861e-004
9.021562e-004,-1.407345e-004
8.355473e-004,-1.431654e-004
6.947124e-004,-1.525652e-004
4.940755e-004,-1.605064e-004
2.514636e-004,-1.603444e-004
-1.626830e-005,-1.515928e-004
-2.955068e-004,-1.334415e-004
-5.608077e-004,-1.067007e-004
-7.860784e-004,-7.607040e-005
-9.512230e-004,-4.932962e-005
-1.079579e-003,-3.312309e-005
-1.245047e-003,-2.955766e-005
-1.525744e-003,-3.766092e-005
-1.936418e-003,-5.354332e-005
-2.387284e-003,-7.266703e-005
-2.714495e-003,-9.081834e-005
-2.779645e-003,-1.086455e-004
-2.528930e-003,-1.289037e-004
-2.012427e-003,-1.430034e-004
-1.346338e-003,-1.488377e-004
-6.617744e-004,-1.412206e-004
-5.581224e-005,-1.199901e-004
4.268184e-004,-8.239095e-005
7.823899e-004,-3.279896e-005
1.022247e-003,2.165498e-005
1.144768e-003,7.513654e-005
1.142175e-003,1.248906e-004
1.017061e-003,1.696206e-004
8.079962e-004,2.112714e-004
5.893700e-004,2.480603e-004
4.375147e-004,2.764217e-004
3.884088e-004,2.924662e-004
4.239012e-004,2.955454e-004
4.929410e-004,2.921420e-004
5.517707e-004,2.879283e-004
5.791598e-004,2.816078e-004
5.660325e-004,2.692908e-004
5.222749e-004,2.482223e-004
4.770586e-004,2.235884e-004
4.666864e-004,1.996027e-004
5.015305e-004,1.769136e-004
5.623050e-004,1.519555e-004
6.049282e-004,1.258630e-004
5.926113e-004,9.960840e-005
5.203301e-004,7.659513e-005
4.119083e-004,5.876794e-005
3.115899e-004,4.596478e-005
2.701011e-004,3.624086e-005
3.117519e-004,2.910999e-005
4.224426e-004,2.327564e-005
5.577672e-004,1.873781e-005
6.605167e-004,1.517237e-005
6.840162e-004,1.322759e-005
6.234036e-004,1.095867e-005
5.065545e-004,7.717366e-006
3.788470e-004,3.665733e-006
2.876042e-004,2.369210e-006
2.607013e-004,2.369210e-006
2.832284e-004,-2.978945e-006
3.122381e-004,-1.659243e-005
3.141829e-004,-3.166451e-005
2.846870e-004,-4.025397e-005
2.380122e-004,-3.814712e-005
1.971717e-004,-2.566809e-005
1.694586e-004,-4.113402e-006
1.456350e-004,2.424803e-005
1.174356e-004,5.747142e-005
8.907416e-005,9.231547e-005
7.238143e-005,1.224596e-004
7.853991e-005,1.389903e-004
1.103047e-004,1.360731e-004
1.573037e-004,1.148425e-004
2.057612e-004,8.615698e-005
2.451431e-004,6.379197e-005
2.691287e-004,5.649903e-005
2.793389e-004,6.298164e-005
2.790147e-004,7.562274e-005
2.655633e-004,8.161915e-005
2.423880e-004,7.659513e-005
2.124059e-004,5.876794e-005
1.759412e-004,3.429608e-005
1.308870e-004,7.069104e-006
7.238143e-005,-1.999580e-005
4.313994e-006,-4.673658e-005
-6.391550e-005,-6.715681e-005
-1.217728e-004,-7.752898e-005
-1.645580e-004,-7.477388e-005
-1.937298e-004,-5.872941e-005
-2.053985e-004,-3.215070e-005
-1.888679e-004,-2.006553e-006
-1.379793e-004,2.862379e-005
-6.731887e-005,5.309565e-005
-2.978945e-006,6.735740e-005
3.073064e-005,6.638501e-005
2.765140e-005,5.179913e-005
-6.706447e-006,2.862379e-005
-6.051213e-005,6.582909e-006
-1.117248e-004,-7.192643e-006
-1.311726e-004,-1.010982e-005
-1.114006e-004,-4.923729e-006
-7.299116e-005,2.207145e-006
-4.738484e-005,8.365628e-006
-5.856734e-005,1.452411e-005
-1.076731e-004,2.262737e-005
-1.710407e-004,3.299956e-005
-2.154466e-004,4.628891e-005
-2.053985e-004,6.103685e-005
-1.242038e-004,7.594687e-005
2.700314e-005,9.085687e-005
2.218057e-004,1.047945e-004
4.110980e-004,1.133840e-004
5.535535e-004,1.164632e-004
6.357207e-004,1.143563e-004
6.725095e-004,1.073875e-004
6.853127e-004,9.490851e-005
6.900126e-004,7.546067e-005
6.932539e-004,5.163707e-005
6.926056e-004,3.218923e-005
6.799645e-004,2.214118e-005
6.499824e-004,2.133085e-005
6.016869e-004,2.505835e-005
5.444778e-004,2.765140e-005
4.958582e-004,2.910999e-005
4.691174e-004,2.992031e-005
4.650658e-004,2.829966e-005
4.689553e-004,2.359977e-005
4.606900e-004,1.565857e-005
4.209840e-004,8.851824e-006
3.274723e-004,6.420843e-006
1.611932e-004,4.313994e-006
-7.380149e-005,-1.682422e-006
-3.532020e-004,-1.059601e-005
-6.525366e-004,-2.015787e-005
-9.593262e-004,-2.923352e-005
-1.264819e-003,-3.263690e-005
-1.545030e-003,-2.745081e-005
-1.765115e-003,-1.707863e-005
-1.894605e-003,-5.571990e-006
-1.925236e-003,3.503668e-006
-1.881640e-003,8.203561e-006
-1.810979e-003,3.827798e-006
-1.739022e-003,-1.205460e-005
-1.651021e-003,-3.587821e-005
-1.514076e-003,-5.581224e-005
-1.315546e-003,-5.889147e-005
-1.075203e-003,-3.749886e-005
-8.449081e-004,5.772582e-006
-6.642053e-004,5.893001e-005
-5.454115e-004,1.104668e-004
-4.682684e-004,1.480659e-004
-4.021458e-004,1.691344e-004
-3.237062e-004,1.798307e-004
-2.297083e-004,1.879340e-004
-1.201522e-004,1.957131e-004
-1.358292e-006,1.978200e-004
1.120874e-004,1.910132e-004
2.002510e-004,1.757791e-004
2.483844e-004,1.530900e-004
2.477361e-004,1.222975e-004
2.015475e-004,8.648111e-005
1.253768e-004,4.855782e-005
4.661304e-005,1.128280e-005
-7.192643e-006,-2.177852e-005
-1.724069e-005,-4.608832e-005
2.197911e-005,-5.791909e-005
1.078737e-004,-5.905355e-005
2.208333e-004,-4.997788e-005
3.274723e-004,-2.907146e-005
4.025085e-004,1.002961e-007
4.521005e-004,2.829966e-005
5.123889e-004,4.337174e-005
6.091419e-004,4.029249e-005
7.336082e-004,2.505835e-005
8.566158e-004,9.013888e-006
9.525587e-004,-6.058186e-006
1.011550e-003,-2.080613e-005
1.045098e-003,-3.620233e-005
1.064708e-003,-4.981582e-005
1.073622e-003,-6.051213e-005
1.067625e-003,-6.845333e-005
1.044612e-003,-7.444974e-005
9.958302e-004,-8.028410e-005
9.091251e-004,-8.757703e-005
7.864415e-004,-9.276313e-005
6.530616e-004,-8.984595e-005
5.454502e-004,-7.412562e-005
4.817585e-004,-4.754691e-005
4.511281e-004,-1.983374e-005
4.256839e-004,-8.720958e-007
3.726885e-004,6.744974e-006
2.595669e-004,9.013888e-006
5.909207e-005,1.193106e-005
-2.402425e-004,1.873781e-005
-6.163961e-004,2.489629e-005
-1.026421e-003,2.927205e-005
-1.413271e-003,3.445814e-005
-1.718764e-003,4.175108e-005
-1.888609e-003,4.661304e-005
-1.899143e-003,4.693717e-005
-1.776946e-003,4.628891e-005
-1.581171e-003,4.612685e-005
-1.367082e-003,4.450619e-005
-1.145215e-003,4.515445e-005
-8.909347e-004,5.050261e-005
-5.917621e-004,6.265751e-005
-2.739521e-004,7.529860e-005
1.419998e-005,8.307774e-005
2.339606e-004,8.048469e-005
3.769022e-004,6.670914e-005
4.467524e-004,3.964423e-005
4.499937e-004,1.396819e-006
4.012120e-004,-4.219875e-005
3.271481e-004,-8.514606e-005
2.592428e-004,-1.224211e-004
2.341226e-004,-1.455964e-004
2.722080e-004,-1.506204e-004
3.725264e-004,-1.381414e-004
5.183853e-004,-1.133454e-004
6.879057e-004,-8.498399e-005
8.519160e-004,-5.937767e-005
9.883750e-004,-3.895744e-005
1.081725e-003,-2.291298e-005
1.125158e-003,-5.085794e-006
1.116893e-003,1.517237e-005
1.052391e-003,3.543053e-005
9.222524e-004,5.439218e-005
7.221015e-004,7.659513e-005
4.715484e-004,1.064151e-004
2.213195e-004,1.470936e-004
3.105477e-005,1.936063e-004
-5.500191e-005,2.372019e-004
-2.080613e-005,2.689667e-004
1.201907e-004,2.879283e-004
3.253654e-004,2.970040e-004
5.284333e-004,2.986246e-004
6.734819e-004,2.876042e-004
7.421976e-004,2.556773e-004
7.515974e-004,2.026820e-004
7.332840e-004,1.362352e-004
7.174016e-004,6.703327e-005
7.235601e-004,1.720949e-006
7.572697e-004,-5.386745e-005
8.122099e-004,-9.438377e-005
8.511056e-004,-1.214487e-004
8.198270e-004,-1.417068e-004
6.890402e-004,-1.592099e-004
4.739794e-004,-1.705545e-004
2.344468e-004,-1.710407e-004
5.163707e-005,-1.624512e-004
-1.788895e-005,-1.473791e-004
1.549650e-005,-1.277692e-004
9.296372e-005,-1.065387e-004
1.393144e-004,-8.401160e-005
1.013911e-004,-6.342930e-005
-3.036798e-005,-5.176060e-005
-2.243601e-004,-4.900549e-005
-4.269418e-004,-4.300908e-005
-5.946793e-004,-1.594417e-005
-7.176869e-004,4.158902e-005
-8.094158e-004,1.278078e-004
-8.910967e-004,2.279641e-004
-9.726156e-004,3.243930e-004
-1.046841e-003,4.033188e-004
-1.085413e-003,4.626348e-004
-1.051865e-003,5.047718e-004
-9.235098e-004,5.354022e-004
-7.162283e-004,5.558224e-004
-4.721580e-004,5.608465e-004
-2.374874e-004,5.459364e-004
-4.835723e-005,5.068786e-004
8.097089e-005,4.448076e-004
1.503348e-004,3.649094e-004
1.603829e-004,2.757734e-004
1.198666e-004,1.923098e-004
5.747142e-005,1.268354e-004
1.646889e-005,8.923622e-005
2.862379e-005,7.870197e-005
9.993253e-005,8.307774e-005
2.321778e-004,9.247753e-005
4.239012e-004,9.636710e-005
6.475514e-004,9.231547e-005
8.501332e-004,8.518459e-005
9.917784e-004,7.578480e-005
1.062439e-003,6.362990e-005
1.080104e-003,4.612685e-005
1.066653e-003,2.230324e-005
1.032457e-003,-9.785687e-006
9.720065e-004,-4.949169e-005
8.695811e-004,-9.827335e-005
7.128638e-004,-1.512687e-004
5.083373e-004,-2.050744e-004
2.866318e-004,-2.621213e-004
9.037068e-005,-3.238682e-004
-4.722277e-005,-3.843186e-004
-1.329553e-004,-4.272659e-004
-2.102605e-004,-4.363416e-004
-3.162512e-004,-4.037664e-004
-4.493068e-004,-3.421816e-004
-5.749073e-004,-2.705488e-004
-6.552917e-004,-2.053985e-004
-6.721465e-004,-1.587237e-004
-6.303337e-004,-1.327932e-004
-5.499493e-004,-1.246900e-004
-4.533584e-004,-1.336036e-004
-3.635742e-004,-1.501342e-004
-2.917793e-004,-1.611547e-004
-2.392702e-004,-1.588858e-004
-2.057227e-004,-1.477033e-004
-1.901644e-004,-1.345760e-004
-1.880575e-004,-1.203142e-004
-1.864369e-004,-9.924574e-005
-1.724992e-004,-6.504996e-005
-1.431654e-004,-2.226472e-005
-1.024870e-004,1.889987e-005
-6.213279e-005,5.082674e-005
-4.074016e-005,6.703327e-005
-4.268495e-005,6.427816e-005
-6.375343e-005,4.466826e-005
-9.454584e-005,1.160693e-005
-1.267968e-004,-2.793700e-005
-1.665028e-004,-6.634648e-005
-2.230636e-004,-9.632856e-005
-2.979378e-004,-1.193418e-004
-3.856151e-004,-1.295519e-004
-4.781544e-004,-1.169109e-004
-5.740970e-004,-7.590833e-005
-6.841394e-004,-7.678839e-006
-8.165467e-004,7.481241e-005
-9.641881e-004,1.550348e-004
-1.099675e-003,2.219677e-004
-1.191728e-003,2.691287e-004
-1.226734e-003,2.934386e-004
-1.213282e-003,2.869559e-004
-1.174225e-003,2.530843e-004
-1.121392e-003,1.994406e-004
-1.049921e-003,1.373696e-004
-9.499264e-004,7.610893e-005
-8.178432e-004,2.084466e-005
-6.672845e-004,-2.485776e-005
-5.097571e-004,-5.791909e-005
-3.546606e-004,-8.368747e-005
-2.188499e-004,-1.054042e-004
-1.185315e-004,-1.259865e-004
-4.317114e-005,-1.421931e-004
5.552663e-005,-1.465688e-004
2.381743e-004,-1.339277e-004
5.253541e-004,-1.042698e-004
8.715259e-004,-5.970180e-005
1.188040e-003,-3.951337e-006
1.383005e-003,5.293359e-005
1.407963e-003,9.912220e-005
1.287872e-003,1.295905e-004
1.104090e-003,1.440143e-004
9.402416e-004,1.496866e-004
8.457575e-004,1.553589e-004
8.224201e-004,1.681620e-004
8.428402e-004,1.906891e-004
8.713638e-004,2.193747e-004
8.783326e-004,2.501671e-004
8.399231e-004,2.752873e-004
7.336082e-004,2.934386e-004
5.490156e-004,3.020280e-004
3.002453e-004,2.971661e-004
8.851824e-006,2.739907e-004
-3.000446e-004,2.305572e-004
-6.050515e-004,1.701068e-004
-8.838038e-004,1.062531e-004
-1.100323e-003,5.455424e-005
-1.203397e-003,2.084466e-005
-1.148132e-003,2.693341e-006
-9.293441e-004,-7.030578e-006
-6.021343e-004,-1.367526e-005
-2.643903e-004,-2.015787e-005
-2.330684e-006,-2.858526e-005
1.423936e-004,-4.090223e-005
1.832341e-004,-5.808115e-005
1.673517e-004,-7.850138e-005
1.423936e-004,-1.023250e-004
1.362352e-004,-1.277692e-004
1.595726e-004,-1.524032e-004
2.135403e-004,-1.673132e-004
2.947351e-004,-1.710407e-004
3.910019e-004,-1.702303e-004
4.809482e-004,-1.708786e-004
5.397779e-004,-1.731475e-004
5.519328e-004,-1.697441e-004
5.164405e-004,-1.541859e-004
4.470765e-004,-1.237176e-004
3.722023e-004,-8.352540e-005
3.140208e-004,-3.458168e-005
2.806354e-004,2.667901e-005
2.603772e-004,1.096565e-004
2.213195e-004,2.224539e-004
1.359110e-004,3.597233e-004
6.096713e-006,5.036373e-004
-1.468929e-004,6.315069e-004
-2.909690e-004,7.271255e-004
-3.861013e-004,7.755831e-004
-4.000389e-004,7.694246e-004
-3.156029e-004,7.097846e-004
-1.423551e-004,6.097901e-004
8.486046e-005,4.853239e-004
3.195311e-004,3.563199e-004
5.133613e-004,2.396328e-004
6.373413e-004,1.449867e-004
6.840162e-004,7.270556e-005
6.773715e-004,2.295151e-005
6.535478e-004,-1.844488e-006
6.362069e-004,-6.220251e-006
6.204865e-004,-5.247859e-006
5.791598e-004,-1.124428e-005
4.845136e-004,-2.615428e-005
3.417340e-004,-4.462973e-005
1.913374e-004,-6.569822e-005
8.178122e-005,-8.887356e-005
3.543053e-005,-1.102662e-004
4.434413e-005,-1.279313e-004
8.712937e-005,-1.378173e-004
1.344524e-004,-1.353863e-004
1.386661e-004,-1.206384e-004
4.256141e-005,-9.859748e-005
-1.726613e-004,-7.688072e-005
-4.301830e-004,-6.035006e-005
-5.890070e-004,-5.143647e-005
-5.481666e-004,-4.916756e-005
-3.172235e-004,-5.354332e-005
8.689757e-006,-6.699474e-005
3.111037e-004,-9.130454e-005
5.115786e-004,-1.209625e-004
5.995801e-004,-1.491618e-004
6.062247e-004,-1.692580e-004
5.736496e-004,-1.807646e-004
5.319988e-004,-1.903264e-004
4.890515e-004,-2.047502e-004
4.425387e-004,-2.256567e-004
3.948915e-004,-2.442942e-004
3.524303e-004,-2.522354e-004
3.153174e-004,-2.433218e-004
2.769079e-004,-2.191741e-004
2.252090e-004,-1.896782e-004
1.543865e-004,-1.640719e-004
6.589881e-005,-1.462447e-004
-2.923352e-005,-1.355484e-004
-1.209625e-004,-1.308485e-004
-2.005366e-004,-1.263107e-004
-2.598524e-004,-1.204763e-004
-2.932379e-004,-1.118868e-004
-3.049066e-004,-9.778715e-005
-3.134960e-004,-7.866345e-005
-3.412092e-004,-5.176060e-005
-4.031182e-004,-1.464765e-005
-4.967919e-004,2.473422e-005
-5.967862e-004,5.649903e-005
-6.637191e-004,7.772959e-005
-6.627467e-004,9.393611e-005
-5.867381e-004,1.116012e-004
-4.608134e-004,1.289422e-004
-3.254889e-004,1.440143e-004
-2.104225e-004,1.574657e-004
-1.255003e-004,1.668655e-004
-7.104637e-005,1.684862e-004
-4.916756e-005,1.603829e-004
-5.646050e-005,1.425557e-004
-7.007398e-005,1.188942e-004
-6.423963e-005,9.847395e-005
-2.664048e-005,8.761556e-005
3.073064e-005,8.567078e-005
9.409818e-005,8.583285e-005
1.530900e-004,8.259154e-005
1.999268e-004,7.302969e-005
2.256952e-004,5.730935e-005
2.226160e-004,4.175108e-005
1.983062e-004,3.364782e-005
1.876099e-004,4.061663e-005
2.422259e-004,6.006446e-005
3.880847e-004,8.064676e-005
6.021731e-004,9.199134e-005
8.321439e-004,9.134307e-005
1.020302e-003,8.226741e-005
1.128076e-003,7.189524e-005
1.144282e-003,6.411610e-005
1.083183e-003,6.006446e-005
9.666583e-004,5.860587e-005
8.066997e-004,5.698522e-005
6.159487e-004,5.066468e-005
4.157979e-004,4.272347e-005
2.321778e-004,3.656499e-005
8.550872e-005,3.786152e-005
-1.594417e-005,4.288554e-005
-7.461181e-005,4.888196e-005
-9.973194e-005,5.309565e-005
-1.104282e-004,5.260946e-005
-1.292278e-004,4.888196e-005
-1.788198e-004,4.045456e-005
-2.713591e-004,2.538249e-005
-4.037664e-004,6.744974e-006
-5.583767e-004,-1.075808e-005
-7.112043e-004,-2.291298e-005
-8.442599e-004,-2.777494e-005
-9.494402e-004,-2.291298e-005
-1.025449e-003,-9.137427e-006
-1.075041e-003,7.393235e-006
-1.100485e-003,2.359977e-005
-1.093030e-003,4.158902e-005
-1.046679e-003,6.346784e-005
-9.756948e-004,8.178122e-005
-9.038998e-004,9.085687e-005
-8.523631e-004,8.567078e-005
-8.309705e-004,7.173317e-005
-8.282154e-004,5.439218e-005
-8.137916e-004,3.462021e-005
-7.549619e-004,1.744128e-005
-6.337370e-004,8.041497e-006
-4.512515e-004,6.420843e-006
-2.149604e-004,1.047248e-005
5.714729e-005,1.792748e-005
3.362238e-004,2.748933e-005
5.718669e-004,4.029249e-005
7.146465e-004,5.244739e-005
7.323117e-004,6.152305e-005
6.251864e-004,6.136099e-005
4.307079e-004,5.131293e-005
2.190506e-004,3.688912e-005
6.055066e-005,2.635488e-005
-2.330684e-006,2.441009e-005
3.089270e-005,3.137890e-005
1.278078e-004,4.256141e-005
2.427121e-004,5.487837e-005
3.414099e-004,6.589881e-005
4.073705e-004,7.189524e-005
4.365423e-004,7.367795e-005
4.289252e-004,7.448828e-005
3.918122e-004,7.805372e-005
3.302274e-004,8.502253e-005
2.516257e-004,9.620503e-005
1.778859e-004,1.052807e-004
1.381799e-004,1.114392e-004
1.448246e-004,1.167873e-004
1.937684e-004,1.167873e-004
2.619979e-004,1.093323e-004
3.214759e-004,9.507057e-005
3.487029e-004,7.918817e-005
3.324963e-004,6.541262e-005
2.765838e-004,5.277152e-005
1.937684e-004,4.013043e-005
9.620503e-005,2.684107e-005
4.244267e-007,1.646889e-005
-7.558420e-005,9.500084e-006
-1.173971e-004,-6.176923e-008
-1.229073e-004,-1.626830e-005
-1.151281e-004,-3.685059e-005
-1.266348e-004,-5.872941e-005
-1.762267e-004,-7.801519e-005
-2.543422e-004,-9.114247e-005
-3.271095e-004,-9.162867e-005
-3.776739e-004,-7.623246e-005
-4.262935e-004,-4.625038e-005
-5.110536e-004,-9.785687e-006
-6.437851e-004,1.971020e-005
-7.974230e-004,3.462021e-005
-9.120032e-004,3.996836e-005
-9.236718e-004,4.418206e-005
-8.141157e-004,5.212327e-005
-6.141271e-004,6.265751e-005
-3.778360e-004,7.157111e-005
-1.619650e-004,7.448828e-005
-3.141010e-006,6.703327e-005
8.583285e-005,4.920609e-005
1.145184e-004,2.700314e-005
9.539470e-005,8.527692e-006
3.445814e-005,-4.275467e-006
-6.018800e-005,-7.354708e-006
-1.699062e-004,-2.492749e-006
-2.652006e-004,9.500084e-006
-3.165753e-004,2.278944e-005
-3.032860e-004,3.543053e-005
-2.290600e-004,4.531652e-005
-1.128592e-004,4.969228e-005
2.781346e-005,4.774750e-005
1.652449e-004,4.483032e-005
2.629703e-004,4.402000e-005
2.984626e-004,4.790957e-005
2.874421e-004,5.536457e-005
2.863077e-004,6.638501e-005
3.498373e-004,8.210535e-005
4.875929e-004,1.017153e-004
6.580856e-004,1.193804e-004
7.971378e-004,1.260251e-004
8.538608e-004,1.221355e-004
8.109134e-004,1.088461e-004
6.908229e-004,8.956035e-005
5.326470e-004,7.189524e-005
3.754436e-004,6.541262e-005
2.453051e-004,7.529860e-005
1.445005e-004,9.652916e-005
6.119892e-005,1.171115e-004
3.665733e-006,1.310491e-004
-2.330684e-006,1.383420e-004
6.719534e-005,1.440143e-004
2.119197e-004,1.492004e-004
4.091532e-004,1.492004e-004
6.248623e-004,1.394765e-004
8.214476e-004,1.218114e-004
9.660100e-004,9.896014e-005
1.051094e-003,7.319175e-005
1.094366e-003,4.158902e-005
1.112355e-003,6.258778e-006
1.099390e-003,-2.339917e-005
1.028567e-003,-4.187462e-005
8.906496e-004,-5.111234e-005
7.186981e-004,-5.354332e-005
5.747841e-004,-5.257093e-005
5.081752e-004,-5.386745e-005
5.104441e-004,-5.565017e-005
5.204921e-004,-5.370539e-005
4.574487e-004,-4.446767e-005
2.777182e-004,-2.809907e-005
1.468617e-005,-1.108221e-005
-2.506147e-004,-7.192643e-006
-4.402311e-004,-2.307504e-005
-5.121881e-004,-5.662256e-005
-4.651892e-004,-1.010285e-004
-3.297026e-004,-1.494860e-004
-1.554824e-004,-1.945401e-004
1.072688e-006,-2.308428e-004
9.555677e-005,-2.511009e-004
1.043083e-004,-2.473734e-004
1.808955e-005,-2.209568e-004
-1.473791e-004,-1.744440e-004
-3.481780e-004,-1.120489e-004
-5.296912e-004,-3.911951e-005
-6.455678e-004,3.640293e-005
-6.698776e-004,1.026876e-004
-6.001896e-004,1.427178e-004
-4.585445e-004,1.477418e-004
-2.948585e-004,1.192183e-004
-1.629374e-004,6.395403e-005
-9.162867e-005,-2.006553e-006
-6.780506e-005,-5.791909e-005
-4.738484e-005,-8.822530e-005
1.517237e-005,-8.498399e-005
1.501728e-004,-4.949169e-005
3.469201e-004,7.393235e-006
5.579292e-004,6.995045e-005
7.311772e-004,1.266733e-004
8.323060e-004,1.704310e-004
8.465678e-004,1.984682e-004
7.699108e-004,2.054371e-004
6.097901e-004,1.903650e-004
4.042912e-004,1.561692e-004
2.090025e-004,1.056048e-004
7.221937e-005,4.337174e-005
4.962256e-006,-2.323711e-005
-2.745081e-005,-8.773910e-005
-7.979790e-005,-1.407345e-004
-1.994021e-004,-1.755785e-004
-3.989045e-004,-1.935677e-004
-6.436231e-004,-1.958366e-004
-8.651663e-004,-1.794681e-004
-1.002111e-003,-1.404103e-004
-1.030311e-003,-8.417366e-005
-9.549505e-004,-1.788895e-005
-7.898059e-004,5.082674e-005
-5.520561e-004,1.172735e-004
-2.687660e-004,1.773998e-004
1.371378e-005,2.279641e-004
2.425500e-004,2.675081e-004
3.851675e-004,2.958695e-004
4.383250e-004,3.133726e-004
4.130428e-004,3.219621e-004
3.284447e-004,3.255275e-004
2.159713e-004,3.227724e-004
1.078737e-004,3.133726e-004
1.501031e-005,2.963557e-004
-6.423963e-005,2.722080e-004
-1.316588e-004,2.414156e-004
-1.737958e-004,2.060853e-004
-1.679614e-004,1.705930e-004
-1.054042e-004,1.451487e-004
-3.858999e-007,1.363972e-004
1.172735e-004,1.427178e-004
2.180782e-004,1.542244e-004
2.924662e-004,1.595726e-004
3.487029e-004,1.519555e-004
3.974845e-004,1.281319e-004
4.524247e-004,8.923622e-005
5.164405e-004,4.272347e-005
5.824011e-004,2.207145e-006
6.292380e-004,-2.550602e-005
6.413930e-004,-4.171255e-005
6.109247e-004,-5.176060e-005
5.358884e-004,-6.116039e-005
4.135290e-004,-6.877746e-005
2.342847e-004,-6.731887e-005
-1.027188e-005,-5.354332e-005
-3.214373e-004,-3.312309e-005
-6.766843e-004,-1.221667e-005
-1.034687e-003,7.393235e-006
-1.352497e-003,2.457216e-005
-1.594136e-003,3.607880e-005
-1.727678e-003,3.786152e-005
-1.751177e-003,2.927205e-005
-1.692510e-003,1.176900e-005
-1.602077e-003,-8.165034e-006
-1.520234e-003,-2.453363e-005
-1.466753e-003,-3.668853e-005
-1.436933e-003,-4.592625e-005
-1.413919e-003,-4.932962e-005
-1.378913e-003,-4.349527e-005
-1.321056e-003,-2.680255e-005
-1.218631e-003,-8.327101e-006
-1.046517e-003,2.369210e-006
-7.954782e-004,9.106226e-007
-4.838267e-004,-1.448558e-005
-1.477033e-004,-4.349527e-005
1.709171e-004,-7.558420e-005
4.308700e-004,-9.730095e-005
6.041179e-004,-1.045939e-004
6.898505e-004,-9.713889e-005
7.084880e-004,-8.093235e-005
6.953607e-004,-6.342930e-005
6.856368e-004,-4.722277e-005
6.908229e-004,-3.279896e-005
6.955228e-004,-2.194059e-005
6.733198e-004,-1.480971e-005
6.172452e-004,-7.354708e-006
5.614947e-004,-2.816880e-006
5.537155e-004,-6.058186e-006
6.133557e-004,-1.902341e-005
7.221015e-004,-4.106429e-005
8.457575e-004,-6.440169e-005
9.512621e-004,-8.012203e-005
1.012037e-003,-8.368747e-005
1.002961e-003,-6.845333e-005
9.118802e-004,-4.106429e-005
7.491664e-004,-1.513384e-005
5.477191e-004,-3.789271e-006
3.448132e-004,-1.075808e-005
1.532520e-004,-2.923352e-005
-3.409548e-005,-4.511592e-005
-2.097743e-004,-4.932962e-005
-3.543365e-004,-4.057810e-005
-4.423380e-004,-2.647842e-005
-4.470378e-004,-1.659243e-005
-3.543365e-004,-1.221667e-005
-1.835197e-004,-1.416145e-005
2.392390e-005,-2.534396e-005
2.159713e-004,-4.122636e-005
3.503235e-004,-5.273300e-005
4.132048e-004,-5.013995e-005
4.237391e-004,-2.842320e-005
4.216323e-004,8.527692e-006
4.470765e-004,5.228533e-005
5.279472e-004,9.490851e-005
6.603546e-004,1.316973e-004
8.105892e-004,1.577899e-004
9.303557e-004,1.785342e-004
9.804339e-004,1.973338e-004
9.290591e-004,2.127300e-004
7.744486e-004,2.227780e-004
5.624671e-004,2.253711e-004
3.639370e-004,2.200230e-004
2.325020e-004,2.078680e-004
1.752929e-004,1.923098e-004
1.577899e-004,1.739964e-004
1.318594e-004,1.532520e-004
6.087479e-005,1.316973e-004
-6.926366e-005,1.127357e-004
-2.355427e-004,9.847395e-005
-3.844807e-004,8.956035e-005
-4.617858e-004,9.037068e-005
-4.546549e-004,1.017153e-004
-3.899909e-004,1.175977e-004
-3.045825e-004,1.222975e-004
-2.170672e-004,1.094944e-004
-1.214487e-004,8.486046e-005
-9.137427e-006,6.119892e-005
1.188942e-004,5.325772e-005
2.482223e-004,6.460230e-005
3.584267e-004,8.858796e-005
4.316803e-004,1.132219e-004
4.590693e-004,1.257009e-004
4.448076e-004,1.192183e-004
3.994293e-004,9.733949e-005
3.289309e-004,7.270556e-005
2.409294e-004,5.811968e-005
1.483901e-004,5.520250e-005
6.962632e-005,5.876794e-005
1.144487e-005,6.427816e-005
-3.685059e-005,6.703327e-005
-9.098041e-005,6.379197e-005
-1.504584e-004,5.390598e-005
-1.945401e-004,3.462021e-005
-2.026434e-004,3.989864e-006
-1.731475e-004,-3.506787e-005
-1.203142e-004,-7.785312e-005
-6.488790e-005,-1.182074e-004
-1.724069e-005,-1.507825e-004
1.744128e-005,-1.677994e-004
2.975825e-005,-1.677994e-004
1.014835e-005,-1.507825e-004
-3.555407e-005,-1.211245e-004
-8.854943e-005,-8.773910e-005
-1.353863e-004,-5.921561e-005
-1.820611e-004,-3.409548e-005
-2.426735e-004,-1.189254e-005
-3.203028e-004,4.476060e-006
-4.000389e-004,1.436204e-005
-4.575721e-004,2.441009e-005
-4.679442e-004,3.850977e-005
-4.133283e-004,5.536457e-005
-3.000446e-004,7.173317e-005
-1.658546e-004,7.789165e-005
-5.078821e-005,7.124698e-005
2.149292e-005,5.212327e-005
5.163707e-005,2.522042e-005
5.277152e-005,-4.761663e-006
4.013043e-005,-3.215070e-005
2.635488e-005,-5.467778e-005
1.695509e-005,-6.974985e-005
-6.176923e-008,-7.558420e-005
-4.300908e-005,-7.477388e-005
-1.157764e-004,-7.137050e-005
-1.898402e-004,-6.780506e-005
-2.159328e-004,-6.197072e-005
-1.682856e-004,-5.694669e-005
-6.602235e-005,-5.548810e-005
4.029249e-005,-5.986387e-005
9.361198e-005,-7.153257e-005
5.730935e-005,-9.114247e-005
-5.548810e-005,-1.157764e-004
-1.870851e-004,-1.400862e-004
-2.810830e-004,-1.629374e-004
-3.107410e-004,-1.833576e-004
-2.820554e-004,-1.976194e-004
-2.123673e-004,-1.943781e-004
-1.292278e-004,-1.669890e-004
-5.483985e-005,-1.149661e-004
-1.196226e-006,-3.539201e-005
2.716520e-005,7.027457e-005
2.181705e-005,1.947408e-004
-2.323711e-005,3.277964e-004
-9.146661e-005,4.580969e-004
-1.507825e-004,5.702462e-004
-1.786577e-004,6.561409e-004
-1.666649e-004,7.133500e-004
-1.110765e-004,7.412253e-004
-1.529591e-005,7.292324e-004
9.733949e-005,6.699165e-004
1.898788e-004,5.741358e-004
2.373639e-004,4.611762e-004
2.329882e-004,3.454615e-004
1.882581e-004,2.368777e-004
1.286181e-004,1.401247e-004
8.648111e-005,5.876794e-005
9.847395e-005,-6.220251e-006
1.851789e-004,-5.078821e-005
3.334687e-004,-8.060822e-005
5.039615e-004,-1.015147e-004
6.520892e-004,-1.177212e-004
7.490044e-004,-1.297140e-004
7.982723e-004,-1.321450e-004
8.211235e-004,-1.216107e-004
8.467298e-004,-1.037836e-004
8.861118e-004,-8.433573e-005
9.217662e-004,-7.039811e-005
9.261419e-004,-6.213279e-005
8.776843e-004,-6.051213e-005
7.639144e-004,-6.099833e-005
5.817529e-004,-6.132245e-005
3.558337e-004,-5.759496e-005
1.402868e-004,-3.587821e-005
-2.006553e-006,7.717366e-006
-2.437157e-005,6.314371e-005
7.546067e-005,1.128978e-004
2.516257e-004,1.448246e-004
4.234150e-004,1.496866e-004
5.174129e-004,1.274836e-004
4.987753e-004,8.534666e-005
3.908399e-004,3.478227e-005
2.454672e-004,-1.756482e-005
1.007429e-004,-6.472583e-005
-4.268495e-005,-1.023250e-004
-2.050744e-004,-1.355484e-004
-3.754050e-004,-1.679614e-004
-5.225603e-004,-1.995642e-004
-6.293613e-004,-2.182017e-004
-7.184972e-004,-2.136638e-004
-8.379393e-004,-1.856265e-004
-1.020587e-003,-1.499722e-004
-1.266440e-003,-1.245279e-004
-1.556375e-003,-1.162626e-004
-1.874185e-003,-1.235555e-004
-2.191185e-003,-1.408965e-004
-2.453893e-003,-1.598582e-004
-2.603966e-003,-1.734716e-004
-2.588408e-003,-1.749302e-004
-2.377884e-003,-1.613168e-004
-1.980500e-003,-1.318209e-004
-1.445360e-003,-9.324932e-005
-8.476632e-004,-5.727082e-005
-2.569353e-004,-3.328516e-005
2.809595e-004,-2.145439e-005
7.415494e-004,-1.335112e-005
1.116083e-003,7.485573e-007
1.371822e-003,2.700314e-005
1.469872e-003,6.330577e-005
1.393377e-003,9.863601e-005
1.165188e-003,1.190562e-004
8.392748e-004,1.197045e-004
4.896997e-004,1.044704e-004
2.083542e-004,8.340186e-005
6.622294e-005,6.638501e-005
7.918817e-005,5.244739e-005
2.094887e-004,3.624086e-005
3.903536e-004,1.112074e-005
5.514466e-004,-1.448558e-005
6.436618e-004,-2.599222e-005
6.559788e-004,-1.983374e-005
6.180555e-004,-2.978945e-006
5.754323e-004,1.744128e-005
5.550120e-004,4.110282e-005
5.470709e-004,6.703327e-005
5.334574e-004,9.490851e-005
5.097958e-004,1.216493e-004
4.822447e-004,1.391524e-004
4.576108e-004,1.386661e-004
4.470765e-004,1.229458e-004
4.668485e-004,9.879807e-005
5.225990e-004,7.870197e-005
6.054144e-004,6.930219e-005
6.969814e-004,6.768153e-005
7.697488e-004,6.719534e-005
8.070238e-004,6.281957e-005
8.144788e-004,5.714729e-005
8.146409e-004,5.763348e-005
8.175580e-004,6.784360e-005
8.015136e-004,8.453633e-005
7.287462e-004,9.782569e-005
5.712186e-004,9.766362e-005
3.239068e-004,7.675719e-005
7.069104e-006,4.126489e-005
-3.326198e-004,3.827798e-006
-6.385990e-004,-2.307504e-005
-8.612767e-004,-3.393342e-005
-9.735879e-004,-2.842320e-005
-9.771533e-004,-1.497178e-005
-8.972552e-004,-1.034161e-006
-7.677650e-004,1.630683e-005
-6.222304e-004,4.110282e-005
-4.797750e-004,7.011251e-005
-3.462333e-004,9.831188e-005
-2.241981e-004,1.166253e-004
-1.122110e-004,1.201907e-004
-4.923729e-006,1.104668e-004
1.124116e-004,9.604297e-005
2.548670e-004,8.534666e-005
4.260080e-004,7.853991e-005
6.021731e-004,6.897806e-005
7.337703e-004,4.985435e-005
7.825519e-004,2.343770e-005
7.407391e-004,-2.978945e-006
6.313449e-004,-2.226472e-005
4.929410e-004,-3.085418e-005
3.681507e-004,-2.712668e-005
2.910076e-004,-1.399939e-005
2.733424e-004,3.989864e-006
3.081865e-004,2.181705e-005
3.715541e-004,3.299956e-005
4.342734e-004,3.656499e-005
4.749518e-004,3.478227e-005
4.890515e-004,3.510640e-005
4.822447e-004,4.742337e-005
4.589073e-004,7.546067e-005
4.106118e-004,1.156529e-004
3.107795e-004,1.592484e-004
1.274836e-004,1.986303e-004
-1.326312e-004,2.252090e-004
-4.100870e-004,2.380122e-004
-6.283889e-004,2.448189e-004
-7.356761e-004,2.534084e-004
-7.240074e-004,2.616738e-004
-6.298475e-004,2.654012e-004
-5.105674e-004,2.576221e-004
-4.225660e-004,2.375260e-004
-4.071698e-004,2.075439e-004
-4.757234e-004,1.726999e-004
-6.019723e-004,1.385041e-004
-7.408622e-004,1.090082e-004
-8.387496e-004,8.550872e-005
-8.594940e-004,5.520250e-005
-7.925610e-004,8.851824e-006
-6.465402e-004,-5.321919e-005
-4.486585e-004,-1.225831e-004
-2.365150e-004,-1.880575e-004
-4.722277e-005,-2.397564e-004
9.053274e-005,-2.695764e-004
1.707551e-004,-2.747625e-004
2.078680e-004,-2.556388e-004
2.214815e-004,-2.186879e-004
2.234263e-004,-1.780095e-004
2.192126e-004,-1.491618e-004
2.133783e-004,-1.337657e-004
2.104611e-004,-1.271210e-004
2.153230e-004,-1.230693e-004
2.269918e-004,-1.188556e-004
2.444948e-004,-1.115627e-004
2.637806e-004,-1.003802e-004
2.754493e-004,-8.854943e-005
2.699391e-004,-7.623246e-005
2.514636e-004,-6.083626e-005
2.325020e-004,-3.928157e-005
2.248849e-004,-1.254080e-005
2.318537e-004,1.128280e-005
2.404432e-004,3.040651e-005
2.226160e-004,5.066468e-005
1.501728e-004,7.756751e-005
1.338965e-005,1.124116e-004
-1.788198e-004,1.542244e-004
-3.955011e-004,1.997648e-004
-6.013240e-004,2.444948e-004
-7.601480e-004,2.820940e-004
-8.458805e-004,3.052693e-004
-8.596560e-004,3.065658e-004
-8.256223e-004,2.850111e-004
-7.624169e-004,2.443327e-004
-6.773326e-004,1.892305e-004
-5.770142e-004,1.291043e-004
-4.723200e-004,7.789165e-005
-3.804290e-004,4.483032e-005
-3.173856e-004,3.073064e-005
-2.971275e-004,3.267542e-005
-3.136581e-004,4.531652e-005
-3.457470e-004,6.751947e-005
-3.598467e-004,9.717742e-005
-3.355369e-004,1.244044e-004
-2.883759e-004,1.351007e-004
-2.519113e-004,1.286181e-004
-2.502906e-004,1.111150e-004
-2.771934e-004,8.923622e-005
-3.024756e-004,7.059870e-005
-2.867553e-004,5.487837e-005
-1.951884e-004,4.110282e-005
-1.886135e-005,2.619281e-005
2.260194e-004,8.203561e-006
5.067165e-004,-1.221667e-005
7.822278e-004,-3.425755e-005
1.016899e-003,-5.710876e-005
1.189823e-003,-7.752898e-005
1.288845e-003,-9.081834e-005
1.307158e-003,-8.968388e-005
1.248328e-003,-7.558420e-005
1.116731e-003,-5.791909e-005
9.185249e-004,-4.479180e-005
6.657027e-004,-3.587821e-005
3.939191e-004,-2.761287e-005
1.556830e-004,-1.918548e-005
1.072688e-006,-7.354708e-006
-3.782299e-005,5.448451e-006
4.094075e-005,1.630683e-005
2.086784e-004,2.343770e-005
4.094774e-004,3.089270e-005
5.819149e-004,4.045456e-005
6.861230e-004,5.131293e-005
7.170775e-004,6.703327e-005
6.955228e-004,8.956035e-005
6.603546e-004,1.184080e-004
6.433377e-004,1.461212e-004
6.462549e-004,1.675138e-004
6.478755e-004,1.790204e-004
6.107626e-004,1.736723e-004
5.065545e-004,1.487142e-004
3.487029e-004,1.114392e-004
1.809652e-004,7.205730e-005
5.001641e-005,3.218923e-005
-1.821308e-005,-3.627206e-006
-2.874733e-005,-3.004385e-005
-9.137427e-006,-4.770897e-005
1.468617e-005,-5.840528e-005
1.922400e-005,-6.440169e-005
-8.165034e-006,-6.715681e-005
-7.007398e-005,-7.185670e-005
-1.627753e-004,-8.028410e-005
-2.765452e-004,-9.389758e-005
-4.014975e-004,-1.131834e-004
-5.290429e-004,-1.373311e-004
-6.526987e-004,-1.572651e-004
-7.575550e-004,-1.622891e-004
-8.291877e-004,-1.535376e-004
-8.632215e-004,-1.384655e-004
-8.653283e-004,-1.169109e-004
-8.479874e-004,-8.222889e-005
-8.236775e-004,-3.117831e-005
-7.912645e-004,3.105477e-005
-7.395656e-004,8.777764e-005
-6.645294e-004,1.260251e-004
-5.758798e-004,1.423936e-004
-4.882024e-004,1.409351e-004
-4.159213e-004,1.257009e-004
-3.544986e-004,1.010670e-004
-2.898345e-004,7.011251e-005
-2.292221e-004,3.380988e-005
-1.989159e-004,-9.623623e-006
-2.250084e-004,-5.516398e-005
-3.214373e-004,-9.065627e-005
-4.572480e-004,-1.054042e-004
-5.564319e-004,-9.940780e-005
-5.386047e-004,-7.850138e-005
-3.640604e-004,-5.062615e-005
-4.770897e-005,-1.821308e-005
3.475684e-004,1.906194e-005
7.292324e-004,6.087479e-005
1.012037e-003,1.023635e-004
1.150441e-003,1.373696e-004
1.142013e-003,1.598967e-004
1.018357e-003,1.658931e-004
8.135064e-004,1.553589e-004
5.684635e-004,1.295905e-004
3.409237e-004,9.247753e-005
1.889064e-004,4.807163e-005
1.432040e-004,2.855406e-006
1.929580e-004,-3.377135e-005
2.863077e-004,-5.386745e-005
3.602095e-004,-6.132245e-005
3.704196e-004,-6.359137e-005
3.088348e-004,-6.634648e-005
1.950649e-004,-6.699474e-005
4.126489e-005,-6.197072e-005
-1.465688e-004,-4.965375e-005
-3.514193e-004,-3.198863e-005
-5.418460e-004,-1.270286e-005
-6.784671e-004,6.258778e-006
-7.366485e-004,2.651694e-005
-7.074767e-004,4.612685e-005
-5.935449e-004,5.795762e-005
-3.972838e-004,6.265751e-005
-1.204763e-004,6.816773e-005
2.107852e-004,8.161915e-005
5.413986e-004,1.051186e-004
8.131823e-004,1.376937e-004
9.883750e-004,1.701068e-004
1.069246e-003,1.931201e-004
1.084480e-003,1.999268e-004
1.056443e-003,1.898788e-004
9.963163e-004,1.675138e-004
9.130146e-004,1.410971e-004
8.238786e-004,1.156529e-004
7.451148e-004,9.717742e-005
6.854748e-004,8.745350e-005
6.438239e-004,8.323980e-005
6.063868e-004,8.259154e-005
5.462606e-004,8.129502e-005
4.401077e-004,7.367795e-005
2.840387e-004,5.730935e-005
9.814982e-005,3.510640e-005
-7.947377e-005,1.517237e-005
-2.170672e-004,2.207145e-006
-2.977757e-004,-1.520357e-006
-3.306750e-004,2.045080e-006
-3.423437e-004,1.031041e-005
-3.637363e-004,2.505835e-005
-4.165696e-004,4.434413e-005
-5.084606e-004,6.395403e-005
-6.282268e-004,7.837785e-005
-7.564205e-004,8.178122e-005
-8.661386e-004,7.302969e-005
-9.312889e-004,5.179913e-005
-9.372853e-004,2.441009e-005
-8.956345e-004,1.002961e-007
-8.285395e-004,-1.124428e-005
-7.436173e-004,-7.678839e-006
-6.353577e-004,3.989864e-006
-4.974402e-004,1.614476e-005
-3.350507e-004,1.808955e-005
-1.658546e-004,1.193106e-005
-1.318906e-005,3.179537e-006
1.004187e-004,-4.275467e-006
1.598967e-004,-1.092015e-005
1.568175e-004,-1.950961e-005
9.685329e-005,-2.631635e-005
-5.085794e-006,-2.518189e-005
-1.284175e-004,-1.740276e-005
-2.590421e-004,-8.327101e-006
-3.878840e-004,-5.571990e-006
-4.974402e-004,-9.785687e-006
-5.693972e-004,-1.513384e-005
-5.789590e-004,-1.497178e-005
-5.141328e-004,-7.030578e-006
-3.937184e-004,1.436204e-005
-2.499665e-004,4.807163e-005
-1.094559e-004,8.988448e-005
1.257933e-005,1.263492e-004
1.065772e-004,1.482280e-004
1.670276e-004,1.503348e-004
1.987924e-004,1.388282e-004
2.052750e-004,1.232699e-004
1.973338e-004,1.104668e-004
1.991165e-004,1.030118e-004
2.350950e-004,9.993253e-005
3.117519e-004,9.701536e-005
4.153117e-004,9.199134e-005
5.298919e-004,8.858796e-005
6.436618e-004,8.826383e-005
7.507871e-004,8.956035e-005
8.410575e-004,9.020861e-005
8.921082e-004,8.323980e-005
8.760637e-004,6.865393e-005
7.872518e-004,4.985435e-005
6.447963e-004,2.716520e-005
4.893756e-004,7.393235e-006
3.640990e-004,-4.113402e-006
2.926282e-004,-8.327101e-006
2.623220e-004,-1.156841e-005
2.380122e-004,-1.545797e-005
1.966855e-004,-2.048200e-005
1.378558e-004,-2.469570e-005
6.995045e-005,-2.615428e-005
-3.627206e-006,-2.907146e-005
-9.357345e-005,-3.328516e-005
-2.036158e-004,-3.749886e-005
-3.225717e-004,-3.847125e-005
-4.313175e-004,-3.733679e-005
-5.094330e-004,-3.992984e-005
-5.494631e-004,-4.333321e-005
-5.483286e-004,-3.766092e-005
-5.050572e-004,-1.869928e-005
-4.402311e-004,6.582909e-006
-3.901529e-004,2.424803e-005
-3.861013e-004,2.327564e-005
-4.272659e-004,1.883015e-006
-4.669719e-004,-3.117831e-005
-4.303451e-004,-6.488790e-005
-2.707108e-004,-9.065627e-005
-1.520357e-006,-1.032974e-004
3.109416e-004,-9.940780e-005
5.867769e-004,-8.271508e-005
7.708832e-004,-5.937767e-005
8.528883e-004,-3.458168e-005
8.618019e-004,-1.254080e-005
8.449472e-004,5.934647e-006
8.392748e-004,2.732727e-005
8.583986e-004,5.504044e-005
8.927564e-004,8.648111e-005
9.227386e-004,1.143563e-004
9.313280e-004,1.291043e-004
9.180387e-004,1.257009e-004
8.985908e-004,1.054428e-004
8.831946e-004,7.335382e-005
8.674742e-004,3.640293e-005
8.329543e-004,2.531276e-006
7.554870e-004,-2.080613e-005
6.148142e-004,-3.344722e-005
3.926225e-004,-3.587821e-005
9.766362e-005,-3.053005e-005
-2.219292e-004,-2.291298e-005
-4.982505e-004,-1.821308e-005
-6.702017e-004,-1.626830e-005
-7.065043e-004,-1.497178e-005
-6.018102e-004,-8.975361e-006
-3.783222e-004,9.338019e-006
-8.611845e-005,4.256141e-005
2.091646e-004,8.388807e-005
4.439973e-004,1.281319e-004
5.718669e-004,1.705930e-004
5.670049e-004,2.070577e-004
4.331389e-004,2.269918e-004
2.070577e-004,2.213195e-004
-5.743289e-005,1.949028e-004
-3.292164e-004,1.584381e-004
-6.078066e-004,1.284560e-004
-9.069791e-004,1.163011e-004
-1.232244e-003,1.219734e-004
-1.550540e-003,1.396385e-004
-1.796070e-003,1.579519e-004
-1.898981e-003,1.704310e-004
-1.826862e-003,1.739964e-004
-1.599322e-003,1.702689e-004
-1.276650e-003,1.592484e-004
-9.335578e-004,1.394765e-004
-6.233649e-004,1.057669e-004
-3.721637e-004,5.844381e-005
-1.882196e-004,7.717366e-006
-7.104637e-005,-3.425755e-005
-1.286493e-005,-6.423963e-005
-3.627206e-006,-8.709084e-005
-2.113026e-005,-1.081593e-004
-2.696461e-005,-1.272830e-004
8.527692e-006,-1.399241e-004
7.918817e-005,-1.418689e-004
1.363972e-004,-1.293899e-004
1.342904e-004,-1.063766e-004
7.302969e-005,-7.704279e-005
-7.030578e-006,-4.544005e-005
-4.511592e-005,-1.513384e-005
-3.141010e-006,7.393235e-006
1.069013e-004,1.679302e-005
2.334744e-004,9.662150e-006
3.127243e-004,-9.947754e-006
2.963557e-004,-3.539201e-005
1.618415e-004,-5.953974e-005
-6.650855e-005,-7.444974e-005
-3.123616e-004,-8.028410e-005
-4.859335e-004,-7.363942e-005
-5.308256e-004,-5.338126e-005
-4.405552e-004,-1.432352e-005
-2.601766e-004,4.855782e-005
-5.808115e-005,1.342904e-004
1.022014e-004,2.271538e-004
1.877719e-004,3.044590e-004
1.987924e-004,3.508097e-004
1.600588e-004,3.602095e-004
1.030118e-004,3.384927e-004
4.807163e-005,2.989488e-004
6.258778e-006,2.519498e-004
-1.189254e-005,2.072198e-004
-1.034161e-006,1.707551e-004
5.260946e-005,1.415833e-004
1.675138e-004,1.093323e-004
3.559958e-004,6.930219e-005
6.088177e-004,3.251336e-005
8.888669e-004,7.717366e-006
1.142661e-003,-6.382316e-006
1.317206e-003,-1.659243e-005
1.384139e-003,-3.328516e-005
1.342650e-003,-6.504996e-005
1.218508e-003,-1.044318e-004
1.048501e-003,-1.329553e-004
8.528883e-004,-1.371690e-004
6.334517e-004,-1.156143e-004
4.051016e-004,-7.833932e-005
1.984682e-004,-4.187462e-005
3.543053e-005,-1.367526e-005
-9.503204e-005,6.907039e-006
-2.235498e-004,2.408596e-005
-3.626019e-004,4.272347e-005
-4.945230e-004,6.849186e-005
-5.969482e-004,1.028497e-004
-6.726327e-004,1.432040e-004
-7.405381e-004,1.816135e-004
-8.086055e-004,2.078680e-004
-8.710006e-004,2.141886e-004
-9.167030e-004,2.005751e-004
-9.288579e-004,1.704310e-004
-8.915829e-004,1.304008e-004
-7.977471e-004,9.020861e-005
-6.476747e-004,5.666109e-005
-4.538446e-004,2.910999e-005
-2.528836e-004,4.800190e-006
-9.762508e-005,-1.464765e-005
-2.923352e-005,-2.469570e-005
-5.095028e-005,-2.388537e-005
-1.242038e-004,-1.545797e-005
-1.887058e-004,-7.100305e-007
-1.895161e-004,1.484824e-005
-9.405964e-005,2.295151e-005
9.604297e-005,1.517237e-005
3.440029e-004,-3.789271e-006
5.908285e-004,-2.161646e-005
7.888725e-004,-2.826113e-005
9.113940e-004,-1.643037e-005
9.494793e-004,1.306552e-005
9.169042e-004,5.325772e-005
8.383024e-004,9.701536e-005
7.342565e-004,1.373696e-004
6.080074e-004,1.696206e-004
4.610142e-004,1.856651e-004
3.036486e-004,1.714033e-004
1.579519e-004,1.198666e-004
5.423011e-005,4.142695e-005
1.387585e-005,-5.046408e-005
4.888196e-005,-1.431654e-004
1.571416e-004,-2.282497e-004
3.264999e-004,-3.013411e-004
5.310263e-004,-3.643846e-004
7.379840e-004,-4.175420e-004
9.178766e-004,-4.548170e-004
1.041533e-003,-4.718338e-004
1.090801e-003,-4.655133e-004
1.063574e-003,-4.337485e-004
9.708721e-004,-3.781601e-004
8.358714e-004,-3.144684e-004
6.853127e-004,-2.540181e-004
5.422089e-004,-2.023193e-004
4.229288e-004,-1.593720e-004
3.307136e-004,-1.230693e-004
2.623220e-004,-9.049421e-005
2.122438e-004,-5.402952e-005
1.699447e-004,-5.247859e-006
1.224596e-004,5.974033e-005
6.395403e-005,1.407730e-004
-4.437533e-006,2.307192e-004
-7.931171e-005,3.140208e-004
-1.572651e-004,3.731747e-004
-2.327876e-004,4.018603e-004
-3.002067e-004,3.974845e-004
-3.533641e-004,3.645853e-004
-3.818876e-004,3.132105e-004
-3.830221e-004,2.571359e-004
-3.638984e-004,2.081922e-004
-3.360231e-004,1.692965e-004
-3.036101e-004,1.381799e-004
-2.619593e-004,1.130598e-004
-2.084778e-004,8.907416e-005
-1.528894e-004,6.638501e-005
-1.081593e-004,5.001641e-005
-8.952182e-005,4.385793e-005
-1.128592e-004,4.628891e-005
-1.765509e-004,5.098881e-005
-2.609869e-004,5.487837e-005
-3.468815e-004,5.585077e-005
-4.136524e-004,5.163707e-005
-4.426621e-004,4.077869e-005
-4.207833e-004,2.910999e-005
-3.468815e-004,1.792748e-005
-2.350565e-004,8.365628e-006
-1.007043e-004,-8.720958e-007
4.677511e-005,-1.027188e-005
2.028440e-004,-1.675450e-005
3.561578e-004,-1.448558e-005
4.696036e-004,-5.479652e-007
4.819206e-004,2.327564e-005
3.566440e-004,4.661304e-005
1.034980e-004,6.055066e-005
-2.220912e-004,6.395403e-005
-5.363358e-004,5.471631e-005
-7.614445e-004,3.575467e-005
-8.533355e-004,1.338965e-005
-8.199500e-004,-3.789271e-006
-7.173627e-004,-1.075808e-005
-6.142893e-004,-8.327101e-006
-5.572422e-004,-1.520357e-006
-5.577284e-004,3.989864e-006
-5.980827e-004,1.031041e-005
-6.408680e-004,2.068259e-005
-6.428128e-004,3.672705e-005
-5.779866e-004,5.439218e-005
-4.554653e-004,6.589881e-005
-3.146305e-004,6.800567e-005
-1.903264e-004,6.460230e-005
-9.162867e-005,5.990240e-005
-7.030578e-006,5.682316e-005
6.800567e-005,5.552663e-005
1.182459e-004,5.309565e-005
1.221355e-004,4.904402e-005
7.400208e-005,4.661304e-005
-1.691656e-005,5.131293e-005
-1.363587e-004,6.379197e-005
-2.514251e-004,8.226741e-005
-3.117133e-004,9.879807e-005
-2.695764e-004,1.023635e-004
-1.117248e-004,8.583285e-005
1.271595e-004,5.730935e-005
3.838710e-004,2.943412e-005
5.929354e-004,1.014835e-005
7.195084e-004,7.393235e-006
7.738004e-004,1.906194e-005
7.985964e-004,3.640293e-005
8.201511e-004,5.358185e-005
8.272820e-004,6.427816e-005
7.919517e-004,6.606088e-005
7.099466e-004,6.184718e-005
6.049282e-004,5.714729e-005
5.138475e-004,5.568870e-005
4.684691e-004,5.682316e-005
4.744656e-004,5.747142e-005
5.049338e-004,5.196120e-005
5.282713e-004,3.640293e-005
5.366987e-004,1.468617e-005
5.457744e-004,-4.437533e-006
5.650601e-004,-9.947754e-006
5.721910e-004,2.531276e-006
5.295678e-004,2.489629e-005
4.083429e-004,4.515445e-005
2.073818e-004,6.038860e-005
-4.203669e-005,6.427816e-005
-2.995584e-004,5.828174e-005
-5.389288e-004,4.969228e-005
-7.462103e-004,4.596478e-005
-9.235098e-004,5.325772e-005
-1.078120e-003,6.735740e-005
-1.212634e-003,7.805372e-005
-1.320894e-003,8.178122e-005
-1.407113e-003,7.837785e-005
-1.478421e-003,7.319175e-005
-1.543085e-003,7.076077e-005
-1.609046e-003,7.205730e-005
-1.688134e-003,7.335382e-005
-1.789425e-003,7.335382e-005
-1.898819e-003,7.205730e-005
-1.973693e-003,6.978838e-005
-1.966886e-003,6.184718e-005
-1.853603e-003,5.066468e-005
-1.641135e-003,4.418206e-005
-1.356224e-003,5.147500e-005
-1.032255e-003,6.897806e-005
-6.941874e-004,8.923622e-005
-3.455850e-004,1.049566e-004
1.355172e-005,1.120874e-004
3.655576e-004,1.069013e-004
6.767232e-004,9.037068e-005
9.104216e-004,6.719534e-005
1.034077e-003,4.466826e-005
1.021274e-003,2.635488e-005
8.728224e-004,1.744128e-005
6.402585e-004,1.614476e-005
4.149876e-004,1.598270e-005
2.820940e-004,7.555300e-006
2.803112e-004,-1.480971e-005
3.892192e-004,-4.673658e-005
5.546879e-004,-7.688072e-005
7.235601e-004,-9.892161e-005
8.705535e-004,-1.118868e-004
1.000206e-003,-1.156143e-004
1.126293e-003,-1.067007e-004
1.265831e-003,-8.628051e-005
1.423845e-003,-5.889147e-005
1.587045e-003,-3.377135e-005
1.741818e-003,-1.545797e-005
1.881033e-003,1.720949e-006
1.988969e-003,2.230324e-005
2.034509e-003,4.953022e-005
1.984431e-003,8.226741e-005
1.836627e-003,1.148425e-004
1.627562e-003,1.427178e-004
1.400832e-003,1.618415e-004
1.192091e-003,1.743205e-004
1.010092e-003,1.814514e-004
8.399231e-004,1.795066e-004
6.689440e-004,1.615174e-004
5.029890e-004,1.284560e-004
3.657197e-004,9.263960e-005
2.897111e-004,6.946425e-005
2.840387e-004,6.427816e-005
3.292550e-004,7.384001e-005
3.903536e-004,8.891209e-005
4.331389e-004,1.004187e-004
4.303838e-004,1.039842e-004
3.759298e-004,9.701536e-005
2.814457e-004,8.145709e-005
1.608691e-004,6.395403e-005
2.554455e-005,5.179913e-005
-1.177212e-004,4.871989e-005
-2.724935e-004,5.649903e-005
-4.395829e-004,7.140904e-005
-5.982447e-004,9.037068e-005
-7.133111e-004,1.078737e-004
-7.557722e-004,1.156529e-004
-7.194696e-004,1.128978e-004
-6.269303e-004,1.022014e-004
-5.275843e-004,8.712937e-005
-4.781544e-004,7.092283e-005
-5.211016e-004,5.309565e-005
-6.630709e-004,3.105477e-005
-8.710006e-004,3.017472e-006
-1.077958e-003,-2.842320e-005
-1.216038e-003,-5.710876e-005
-1.250233e-003,-7.947377e-005
-1.185569e-003,-9.098041e-005
-1.054783e-003,-9.065627e-005
-8.936898e-004,-8.239095e-005
-7.311383e-004,-6.796713e-005
-5.802555e-004,-5.240886e-005
-4.416897e-004,-4.236081e-005
-3.117133e-004,-4.025397e-005
-1.895161e-004,-4.592625e-005
-7.947377e-005,-6.116039e-005
8.041497e-006,-8.368747e-005
7.497447e-005,-1.076731e-004
1.318594e-004,-1.238797e-004
1.931201e-004,-1.209625e-004
2.618358e-004,-9.616650e-005
3.287688e-004,-5.402952e-005
3.786849e-004,-5.247859e-006
4.012120e-004,4.029249e-005
3.989431e-004,7.140904e-005
3.890571e-004,8.340186e-005
4.004017e-004,7.870197e-005
4.576108e-004,5.909207e-005
5.749461e-004,2.716520e-005
7.566215e-004,-1.335112e-005
9.752478e-004,-5.646050e-005
1.173616e-003,-9.762508e-005
1.288683e-003,-1.342519e-004
1.281390e-003,-1.640719e-004
1.161461e-003,-1.836818e-004
9.749237e-004,-1.935677e-004
7.765555e-004,-1.935677e-004
6.029834e-004,-1.804405e-004
4.621486e-004,-1.553203e-004
3.478925e-004,-1.214487e-004
2.517877e-004,-8.449779e-005
1.680000e-004,-4.965375e-005
9.231547e-005,-1.983374e-005
2.376183e-005,7.485573e-007
-4.544005e-005,1.290346e-005
-1.264727e-004,1.841368e-005
-2.190120e-004,2.570661e-005
-3.115513e-004,3.883391e-005
-3.901529e-004,5.649903e-005
-4.376381e-004,7.335382e-005
-4.488206e-004,8.469840e-005
-4.324520e-004,8.988448e-005
-4.073319e-004,8.972242e-005
-4.008492e-004,8.161915e-005
-4.316416e-004,6.914012e-005
-4.903093e-004,5.876794e-005
-5.514079e-004,5.568870e-005
-5.920862e-004,5.860587e-005
-6.058618e-004,6.719534e-005
-6.024585e-004,7.351588e-005
-5.946793e-004,7.092283e-005
-5.805796e-004,5.196120e-005
-5.483286e-004,1.403791e-005
-4.993849e-004,-3.555407e-005
-4.480102e-004,-8.141856e-005
-4.126800e-004,-1.070249e-004
-4.016596e-004,-1.041077e-004
-4.003631e-004,-7.412562e-005
-3.805911e-004,-2.291298e-005
-3.298646e-004,4.450619e-005
-2.595283e-004,1.232699e-004
-1.948643e-004,1.984682e-004
-1.588858e-004,2.530843e-004
-1.501342e-004,2.799871e-004
-1.509446e-004,2.856594e-004
-1.511066e-004,2.793389e-004
-1.673132e-004,2.689667e-004
-2.305186e-004,2.503292e-004
-3.510952e-004,2.171058e-004
-5.042469e-004,1.710792e-004
-6.483229e-004,1.171115e-004
-7.473448e-004,5.941620e-005
-7.770028e-004,4.313994e-006
-7.266005e-004,-4.090223e-005
-6.154237e-004,-7.169464e-005
-4.852852e-004,-7.995997e-005
-3.750809e-004,-5.824321e-005
-3.034480e-004,-6.058186e-006
-2.668213e-004,6.638501e-005
-2.483458e-004,1.427178e-004
-2.305186e-004,2.117576e-004
-1.981056e-004,2.676701e-004
-1.449481e-004,3.111037e-004
-7.623246e-005,3.412478e-004
-2.978945e-006,3.576164e-004
6.444023e-005,3.628025e-004
1.214872e-004,3.569682e-004
1.735102e-004,3.333066e-004
2.224539e-004,2.921420e-004
2.731804e-004,2.399570e-004
3.331445e-004,1.884202e-004
4.055878e-004,1.477418e-004
4.846757e-004,1.179218e-004
5.567948e-004,8.923622e-005
6.065489e-004,5.666109e-005
6.251864e-004,1.857574e-005
6.216210e-004,-2.096819e-005
6.225933e-004,-5.824321e-005
6.574374e-004,-9.065627e-005
7.399287e-004,-1.230693e-004
8.519160e-004,-1.673132e-004
9.553137e-004,-2.301945e-004
1.019168e-003,-3.070135e-004
1.029540e-003,-3.775118e-004
9.896716e-004,-4.126800e-004
9.070182e-004,-3.974459e-004
7.809313e-004,-3.350507e-004
6.042799e-004,-2.425115e-004
3.864641e-004,-1.397621e-004
1.610312e-004,-3.944364e-005
-2.177852e-005,5.390598e-005
-1.203142e-004,1.344524e-004
-1.258244e-004,1.999268e-004
-7.250496e-005,2.501671e-004
-1.805102e-005,2.807975e-004
-2.161646e-005,2.945730e-004
-1.308485e-004,2.900352e-004
-3.489884e-004,2.675081e-004
-6.176926e-004,2.284503e-004
-8.424771e-004,1.803169e-004
-9.494402e-004,1.363972e-004
-9.246442e-004,1.065772e-004
-8.092538e-004,9.782569e-005
-6.682570e-004,1.103047e-004
-5.493010e-004,1.375317e-004
-4.622720e-004,1.613553e-004
-4.003631e-004,1.675138e-004
-3.538503e-004,1.503348e-004
-3.143064e-004,1.107909e-004
-2.655248e-004,5.795762e-005
-1.890299e-004,3.503668e-006
-6.699474e-005,-5.402952e-005
1.133840e-004,-1.125351e-004
3.391410e-004,-1.621271e-004
5.708945e-004,-1.950263e-004
7.567835e-004,-2.081536e-004
8.658536e-004,-2.008607e-004
9.162559e-004,-1.827094e-004
9.546655e-004,-1.630995e-004
1.027433e-003,-1.412206e-004
1.148010e-003,-1.165867e-004
1.285927e-003,-8.709084e-005
1.384625e-003,-5.613637e-005
1.404884e-003,-2.696461e-005
1.351726e-003,9.986280e-006
1.256918e-003,6.281957e-005
1.148820e-003,1.224596e-004
1.032133e-003,1.710792e-004
8.883807e-004,1.932822e-004
7.026537e-004,1.824238e-004
4.686312e-004,1.383420e-004
1.971717e-004,6.832980e-005
-9.065627e-005,-1.416145e-005
-3.673017e-004,-9.324932e-005
-6.065101e-004,-1.501342e-004
-7.967748e-004,-1.739578e-004
-9.489540e-004,-1.663408e-004
-1.080389e-003,-1.363587e-004
-1.194321e-003,-9.114247e-005
-1.275191e-003,-4.041603e-005
-1.306470e-003,5.934647e-006
-1.290750e-003,4.126489e-005
-1.257364e-003,6.735740e-005
-1.249423e-003,8.826383e-005
-1.299663e-003,1.070634e-004
-1.400306e-003,1.250527e-004
-1.516507e-003,1.383420e-004
-1.616501e-003,1.466074e-004
-1.675655e-003,1.469315e-004
-1.681003e-003,1.359110e-004
-1.631411e-003,1.106288e-004
-1.521693e-003,7.675719e-005
-1.329969e-003,4.094075e-005
-1.044897e-003,5.124321e-006
-6.881910e-004,-3.004385e-005
-3.015032e-004,-5.840528e-005
7.059870e-005,-7.769105e-005
3.931088e-004,-8.692878e-005
6.569512e-004,-8.741497e-005
8.708776e-004,-8.190475e-005
1.044612e-003,-7.720485e-005
1.174426e-003,-7.785312e-005
1.249301e-003,-8.125648e-005
1.259997e-003,-8.401160e-005
1.214943e-003,-8.336334e-005
1.146065e-003,-8.498399e-005
1.099066e-003,-9.276313e-005
1.105873e-003,-1.060525e-004
1.162920e-003,-1.212866e-004
1.227260e-003,-1.389517e-004
1.243628e-003,-1.569410e-004
1.172482e-003,-1.713648e-004
1.011226e-003,-1.752544e-004
8.068617e-004,-1.660166e-004
6.315069e-004,-1.446240e-004
5.478812e-004,-1.115627e-004
5.668428e-004,-7.039811e-005
6.540340e-004,-2.291298e-005
7.537042e-004,2.651694e-005
8.149650e-004,7.335382e-005
8.066997e-004,1.166253e-004
7.313393e-004,1.548727e-004
6.055764e-004,1.863134e-004
4.425387e-004,2.083542e-004
2.608634e-004,2.206712e-004
9.896014e-005,2.247228e-004
6.744974e-006,2.255332e-004
3.503668e-006,2.250470e-004
5.568870e-005,2.243987e-004
9.328785e-005,2.242366e-004
4.969228e-005,2.250470e-004
-9.811128e-005,2.221298e-004
-3.157650e-004,2.107852e-004
-5.245051e-004,1.905270e-004
-6.501056e-004,1.613553e-004
-6.585330e-004,1.274836e-004
-5.750695e-004,9.328785e-005
-4.627582e-004,6.687120e-005
-3.771877e-004,5.423011e-005
-3.345645e-004,5.487837e-005
-3.086341e-004,6.768153e-005
-2.540181e-004,9.409818e-005
-1.350622e-004,1.273216e-004
5.666109e-005,1.560071e-004
3.085106e-004,1.645966e-004
5.789977e-004,1.456350e-004
8.016757e-004,1.062531e-004
9.113940e-004,6.055066e-005
8.888669e-004,2.489629e-005
7.658592e-004,9.338019e-006
5.916388e-004,1.128280e-005
3.992672e-004,2.246531e-005
2.049509e-004,3.478227e-005
1.371378e-005,4.628891e-005
-1.682856e-004,5.925414e-005
-3.392644e-004,7.270556e-005
-5.058675e-004,8.469840e-005
-6.690673e-004,9.118101e-005
-8.186535e-004,8.988448e-005
-9.286958e-004,8.016056e-005
-9.622434e-004,6.606088e-005
-8.946622e-004,4.920609e-005
-7.431311e-004,3.008238e-005
-5.596732e-004,8.851824e-006
-4.126800e-004,-1.173047e-005
-3.692465e-004,-3.263690e-005
-4.612996e-004,-5.354332e-005
-6.667983e-004,-6.861539e-005
-9.228615e-004,-7.266703e-005
-1.151860e-003,-6.877746e-005
-1.291398e-003,-6.423963e-005
-1.316680e-003,-6.796713e-005
-1.235972e-003,-7.979790e-005
-1.070989e-003,-9.405964e-005
-8.572250e-004,-1.018388e-004
-6.295234e-004,-9.892161e-005
-4.099249e-004,-8.935975e-005
-2.078295e-004,-7.898758e-005
-1.999580e-005,-7.088431e-005
1.522796e-004,-6.634648e-005
2.979764e-004,-6.893953e-005
4.099635e-004,-7.590833e-005
4.927790e-004,-8.660465e-005
5.600361e-004,-9.730095e-005
6.222692e-004,-1.010285e-004
6.828816e-004,-8.887356e-005
7.303669e-004,-6.132245e-005
7.488423e-004,-2.469570e-005
7.407391e-004,1.630683e-005
7.362012e-004,5.876794e-005
7.632662e-004,9.669123e-005
8.225821e-004,1.300767e-004
8.804395e-004,1.547106e-004
8.903255e-004,1.655690e-004
8.227442e-004,1.611932e-004
6.913091e-004,1.488763e-004
5.357263e-004,1.305629e-004
4.016982e-004,1.077117e-004
3.187208e-004,8.291567e-005
2.953833e-004,6.281957e-005
3.316860e-004,4.888196e-005
4.217943e-004,4.126489e-005
5.546879e-004,3.834771e-005
7.013571e-004,3.899597e-005
8.216097e-004,4.337174e-005
8.767120e-004,4.628891e-005
8.366818e-004,4.142695e-005
6.968193e-004,2.635488e-005
4.819206e-004,1.193106e-005
2.336364e-004,8.527692e-006
-1.358292e-006,1.906194e-005
-1.770371e-004,3.932010e-005
-2.645523e-004,6.055066e-005
-2.580697e-004,8.145709e-005
-1.791439e-004,1.005808e-004
-7.072224e-005,1.163011e-004
5.448451e-006,1.291043e-004
3.017472e-006,1.389903e-004
-7.736692e-005,1.425557e-004
-1.909747e-004,1.389903e-004
-2.864312e-004,1.281319e-004
-3.269475e-004,1.135460e-004
-2.946965e-004,9.652916e-005
-1.906506e-004,8.405013e-005
-3.360929e-005,8.259154e-005
1.338042e-004,9.134307e-005
2.509774e-004,1.056048e-004
2.684805e-004,1.175977e-004
1.770756e-004,1.179218e-004
1.436204e-005,9.960840e-005
-1.648822e-004,6.460230e-005
-3.154408e-004,2.311357e-005
-4.121938e-004,-9.623623e-006
-4.512515e-004,-2.874733e-005
-4.470378e-004,-3.717472e-005
-4.280762e-004,-3.895744e-005
-4.224039e-004,-3.474375e-005
-4.557894e-004,-2.566809e-005
-5.377944e-004,-1.286493e-005
-6.526987e-004,6.258778e-006
-7.768407e-004,3.202716e-005
-8.873692e-004,6.022653e-005
-9.564090e-004,8.599491e-005
-9.599745e-004,1.088461e-004
-8.912588e-004,1.284560e-004
-7.513964e-004,1.425557e-004
-5.612939e-004,1.487142e-004
-3.587123e-004,1.470936e-004
-1.896782e-004,1.347766e-004
-8.465986e-005,1.106288e-004
-4.138842e-005,8.356393e-005
-2.631635e-005,6.411610e-005
6.420843e-006,5.601283e-005
8.648111e-005,5.860587e-005
2.209953e-004,6.379197e-005
3.929467e-004,6.265751e-005
5.712186e-004,5.520250e-005
7.143224e-004,4.029249e-005
7.901690e-004,1.663096e-005
7.953551e-004,-1.610623e-005
7.559732e-004,-5.062615e-005
7.049225e-004,-7.769105e-005
6.657027e-004,-8.952182e-005
6.392861e-004,-8.530812e-005
6.012007e-004,-7.363942e-005
5.238955e-004,-6.261898e-005
3.948915e-004,-5.921561e-005
2.300710e-004,-6.586029e-005
6.233338e-005,-8.012203e-005
-8.660465e-005,-9.924574e-005
-2.117190e-004,-1.190177e-004
-3.139823e-004,-1.311726e-004
-3.896667e-004,-1.300381e-004
-4.288865e-004,-1.078352e-004
-4.280762e-004,-6.035006e-005
-3.911253e-004,7.879431e-006
-3.350507e-004,8.226741e-005
-2.903207e-004,1.498487e-004
-2.893483e-004,2.072198e-004
-3.501228e-004,2.511395e-004
-4.564376e-004,2.762596e-004
-5.661558e-004,2.782044e-004
-6.348715e-004,2.594048e-004
-6.489712e-004,2.234263e-004
-6.197994e-004,1.780480e-004
-5.689110e-004,1.333180e-004
-5.167259e-004,9.280166e-005
-4.784785e-004,5.876794e-005
-4.561135e-004,3.170303e-005
-4.355312e-004,9.338019e-006
-3.937184e-004,-6.544382e-006
-3.160891e-004,-1.270286e-005
-2.096122e-004,-9.461557e-006
-9.357345e-005,-7.100305e-007
7.069104e-006,8.041497e-006
7.529860e-005,1.387585e-005
1.200286e-004,1.614476e-005
1.790204e-004,1.533444e-005
2.897111e-004,6.744974e-006
4.529109e-004,-1.010982e-005
6.349103e-004,-3.166451e-005
7.896828e-004,-4.868136e-005
8.786567e-004,-5.856734e-005
8.854635e-004,-6.553616e-005
8.229063e-004,-7.558420e-005
7.297186e-004,-8.773910e-005
6.511168e-004,-9.778715e-005
6.200003e-004,-9.811128e-005
6.383137e-004,-8.757703e-005
6.916332e-004,-7.461181e-005
7.666695e-004,-6.602235e-005
8.575883e-004,-6.051213e-005
9.540172e-004,-5.532604e-005
1.028243e-003,-4.689864e-005
1.047043e-003,-3.231276e-005
9.927509e-004,-1.351319e-005
8.775223e-004,3.503668e-006
7.306910e-004,1.646889e-005
5.804563e-004,2.813760e-005
4.339492e-004,3.980630e-005
2.809595e-004,4.774750e-005
1.240803e-004,5.115087e-005
-1.092015e-005,5.017848e-005
-8.903562e-005,4.985435e-005
-9.179074e-005,5.260946e-005
-3.328516e-005,5.844381e-005
5.487837e-005,7.108490e-005
1.433660e-004,9.263960e-005
2.086784e-004,1.197045e-004
2.315296e-004,1.445005e-004
2.057612e-004,1.603829e-004
1.414213e-004,1.663793e-004
6.119892e-005,1.645966e-004
-1.286493e-005,1.550348e-004
-6.812920e-005,1.430419e-004
-1.170729e-004,1.294284e-004
-1.940539e-004,1.096565e-004
-3.303509e-004,7.675719e-005
-5.355255e-004,2.554455e-005
-8.139536e-004,-3.166451e-005
-1.161422e-003,-7.882551e-005
-1.553133e-003,-1.086455e-004
-1.939011e-003,-1.206384e-004
-2.245477e-003,-1.191798e-004
-2.406246e-003,-1.118868e-004
-2.388095e-003,-1.005423e-004
-2.197019e-003,-8.093235e-005
-1.874671e-003,-5.629843e-005
-1.488956e-003,-2.988179e-005
-1.105833e-003,-4.437533e-006
-7.719788e-004,2.295151e-005
-5.032745e-004,4.985435e-005
-3.006929e-004,7.481241e-005
-1.605064e-004,9.134307e-005
-7.493595e-005,9.442231e-005
-3.036798e-005,8.291567e-005
-1.513384e-005,6.071273e-005
-2.939559e-005,3.429608e-005
-7.752898e-005,1.144487e-005
-1.496480e-004,-3.627206e-006
-2.113949e-004,-1.124428e-005
-2.113949e-004,-1.513384e-005
-1.130213e-004,-1.772689e-005
7.659513e-005,-1.821308e-005
3.148312e-004,-1.432352e-005
5.507984e-004,-4.599598e-006
7.506250e-004,1.128280e-005
9.079906e-004,3.040651e-005
1.027271e-003,5.131293e-005
1.115272e-003,7.302969e-005
1.183016e-003,9.344992e-005
1.244763e-003,1.143563e-004
1.308292e-003,1.346145e-004
1.381384e-003,1.459591e-004
1.476841e-003,1.412592e-004
1.606817e-003,1.229458e-004
1.765480e-003,9.798775e-005
1.924629e-003,7.400208e-005
2.050553e-003,5.536457e-005
2.117001e-003,4.483032e-005
2.111328e-003,4.077869e-005
2.034023e-003,4.369587e-005
1.899994e-003,5.017848e-005
1.734525e-003,5.747142e-005
1.568570e-003,5.974033e-005
1.424656e-003,5.050261e-005
1.306186e-003,3.170303e-005
1.194360e-003,5.286386e-006
1.069408e-003,-2.923352e-005
9.178766e-004,-6.683268e-005
7.415494e-004,-1.016767e-004
5.593878e-004,-1.285796e-004
3.898674e-004,-1.438137e-004
2.346088e-004,-1.477033e-004
8.453633e-005,-1.444620e-004
-6.974985e-005,-1.352242e-004
-2.324634e-004,-1.170729e-004
-3.977700e-004,-8.854943e-005
-5.373082e-004,-4.819516e-005
-6.301716e-004,5.772582e-006
-6.800877e-004,7.173317e-005
-7.113663e-004,1.412592e-004
-7.486413e-004,2.047888e-004
-7.894817e-004,2.551911e-004
-8.311325e-004,2.874421e-004
-8.799142e-004,2.989488e-004
-9.450644e-004,2.927903e-004
-1.029825e-003,2.770700e-004
-1.124795e-003,2.566497e-004
-1.208259e-003,2.316917e-004
-1.250720e-003,2.000889e-004
-1.217010e-003,1.631380e-004
-1.097244e-003,1.219734e-004
-9.118411e-004,8.048469e-005
-6.979149e-004,4.369587e-005
-4.937127e-004,1.014835e-005
-3.245165e-004,-2.194059e-005
-1.984297e-004,-4.803310e-005
-1.248521e-004,-6.731887e-005
-1.131834e-004,-8.158062e-005
-1.665028e-004,-9.292519e-005
-2.793003e-004,-1.026491e-004
-4.327761e-004,-1.101041e-004
-6.001896e-004,-1.183694e-004
-7.551239e-004,-1.313347e-004
-8.739178e-004,-1.478653e-004
-9.421473e-004,-1.645580e-004
-9.555987e-004,-1.786577e-004
-9.157307e-004,-1.888679e-004
-8.346980e-004,-1.963229e-004
-7.309762e-004,-1.997262e-004
-6.244993e-004,-1.925954e-004
-5.300153e-004,-1.755785e-004
-4.604893e-004,-1.532135e-004
-4.181902e-004,-1.240417e-004
-3.849668e-004,-8.190475e-005
-3.295405e-004,-2.307504e-005
-2.418632e-004,5.309565e-005
-1.454343e-004,1.410971e-004
-8.255302e-005,2.370398e-004
-7.963584e-005,3.331445e-004
-1.327932e-004,4.179047e-004
-2.214430e-004,4.762483e-004
-3.100927e-004,4.945617e-004
-3.626019e-004,4.712243e-004
-3.643846e-004,4.177427e-004
-3.203028e-004,3.504856e-004
-2.493182e-004,2.778803e-004
-1.797922e-004,2.049509e-004
-1.318209e-004,1.370455e-004
-1.000561e-004,7.319175e-005
-6.537409e-005,1.387585e-005
-1.529591e-005,-4.041603e-005
5.893001e-005,-8.660465e-005
1.564933e-004,-1.222590e-004
2.692908e-004,-1.467309e-004
3.833848e-004,-1.606685e-004
4.843515e-004,-1.679614e-004
5.647360e-004,-1.736337e-004
6.204865e-004,-1.763888e-004
6.572753e-004,-1.677994e-004
6.898505e-004,-1.451102e-004
7.284220e-004,-1.117248e-004
7.705591e-004,-7.250496e-005
8.007033e-004,-3.150244e-005
7.940585e-004,5.448451e-006
7.370115e-004,3.397195e-005
6.488480e-004,5.115087e-005
5.746220e-004,5.439218e-005
5.535535e-004,4.483032e-005
5.887217e-004,3.283749e-005
6.575995e-004,2.927205e-005
7.259911e-004,3.753739e-005
7.746107e-004,5.196120e-005
8.196649e-004,6.379197e-005
8.987529e-004,6.735740e-005
1.029216e-003,6.589881e-005
1.183988e-003,6.800567e-005
1.303917e-003,7.918817e-005
1.332440e-003,1.009049e-004
1.244763e-003,1.299146e-004
1.052715e-003,1.553589e-004
8.005412e-004,1.694586e-004
5.428572e-004,1.699447e-004
3.088348e-004,1.545486e-004
9.150514e-005,1.229458e-004
-1.267968e-004,8.113296e-005
-3.387782e-004,3.802358e-005
-5.217499e-004,3.017472e-006
-6.590192e-004,-1.724069e-005
-7.419966e-004,-2.210265e-005
-7.786234e-004,-1.853721e-005
-7.906162e-004,-1.318906e-005
-8.045539e-004,-1.205460e-005
-8.364808e-004,-1.626830e-005
-8.816969e-004,-2.194059e-005
-9.272373e-004,-2.501983e-005
-9.607848e-004,-2.453363e-005
-9.669433e-004,-2.031993e-005
-9.261028e-004,-8.165034e-006
-8.372911e-004,1.403791e-005
-7.241695e-004,4.175108e-005
-6.116962e-004,6.897806e-005
-5.253154e-004,9.053274e-005
-4.906334e-004,1.049566e-004
-5.168880e-004,1.158149e-004
-5.794452e-004,1.242423e-004
-6.355197e-004,1.278078e-004
-6.468644e-004,1.219734e-004
-5.982447e-004,1.064151e-004
-5.011677e-004,8.226741e-005
-3.807532e-004,5.098881e-005
-2.702246e-004,1.695509e-005
-1.846541e-004,-1.821308e-005
-1.248521e-004,-5.030201e-005
-8.222889e-005,-7.250496e-005
-4.657451e-005,-7.947377e-005
-1.545797e-005,-7.137050e-005
1.031041e-005,-5.451571e-005
3.056858e-005,-3.441962e-005
5.017848e-005,-1.416145e-005
7.302969e-005,6.582909e-006
9.215340e-005,1.971020e-005
9.831188e-005,2.068259e-005
8.340186e-005,1.063454e-005
3.429608e-005,-8.720958e-007
-6.602235e-005,-7.678839e-006
-2.266291e-004,-8.720958e-007
-4.334243e-004,1.889987e-005
-6.614502e-004,4.531652e-005
-8.873692e-004,7.238143e-005
-1.087196e-003,9.377405e-005
-1.237754e-003,1.128978e-004
-1.309711e-003,1.326697e-004
-1.263685e-003,1.498487e-004
-1.067748e-003,1.595726e-004
-7.264384e-004,1.608691e-004
-2.809209e-004,1.513072e-004
2.065715e-004,1.325077e-004
6.765611e-004,1.086841e-004
1.088532e-003,8.923622e-005
1.419469e-003,7.853991e-005
1.658679e-003,7.497447e-005
1.811020e-003,7.708132e-005
1.880871e-003,8.242948e-005
1.871957e-003,8.842590e-005
1.793193e-003,9.312579e-005
1.666134e-003,9.685329e-005
1.524812e-003,9.750155e-005
1.398401e-003,9.490851e-005
1.287224e-003,8.615698e-005
1.177506e-003,6.897806e-005
1.062763e-003,4.450619e-005
9.548275e-004,1.484824e-005
8.767120e-004,-1.837515e-005
8.496470e-004,-5.046408e-005
8.767120e-004,-7.299116e-005
9.382968e-004,-7.688072e-005
9.985853e-004,-6.504996e-005
1.019978e-003,-4.689864e-005
9.815684e-004,-3.393342e-005
8.802774e-004,-2.680255e-005
7.258290e-004,-2.291298e-005
5.355643e-004,-2.177852e-005
3.430306e-004,-2.745081e-005
1.895547e-004,-4.414354e-005
9.944633e-005,-7.574627e-005
6.444023e-005,-1.198280e-004
4.985435e-005,-1.665028e-004
1.711715e-005,-2.052364e-004
-5.386745e-005,-2.259808e-004
-1.598582e-004,-2.199844e-004
-2.822175e-004,-1.857886e-004
-3.998769e-004,-1.310105e-004
-4.971160e-004,-6.132245e-005
-5.721523e-004,2.424803e-005
-6.324405e-004,1.235941e-004
-6.862462e-004,2.239125e-004
-7.423208e-004,3.081865e-004
-8.048780e-004,3.619922e-004
-8.663007e-004,3.775505e-004
-9.123273e-004,3.577785e-004
-9.137859e-004,3.098072e-004
-8.408565e-004,2.491947e-004
-6.855979e-004,1.910132e-004
-4.664857e-004,1.477418e-004
-2.254946e-004,1.206769e-004
-9.461557e-006,1.043083e-004
1.472556e-004,9.101894e-005
2.261814e-004,7.627100e-005
2.286124e-004,6.152305e-005
1.762653e-004,4.823369e-005
9.231547e-005,3.073064e-005
-2.168618e-006,2.531276e-006
-9.114247e-005,-3.879538e-005
-1.577513e-004,-9.260106e-005
-1.930815e-004,-1.472171e-004
-2.058847e-004,-1.867610e-004
-2.175534e-004,-2.045882e-004
-2.546663e-004,-2.076674e-004
-3.227338e-004,-2.058847e-004
-3.982562e-004,-2.036158e-004
-4.421759e-004,-1.985918e-004
-4.222419e-004,-1.911368e-004
-3.306750e-004,-1.812508e-004
-1.908126e-004,-1.712027e-004
-3.620233e-005,-1.583996e-004
1.015532e-004,-1.467309e-004
2.026820e-004,-1.306864e-004
2.707494e-004,-1.021629e-004
3.321721e-004,-6.180866e-005
4.088291e-004,-1.999580e-005
4.953720e-004,1.290346e-005
5.548500e-004,3.591673e-005
5.454502e-004,5.601283e-005
4.551798e-004,7.432621e-005
3.085106e-004,8.956035e-005
1.530900e-004,1.004187e-004
3.186510e-005,1.101426e-004
-3.668853e-005,1.193804e-004
-6.197072e-005,1.299146e-004
-7.153257e-005,1.448246e-004
-8.125648e-005,1.667035e-004
-8.368747e-005,1.983062e-004
-5.548810e-005,2.368777e-004
2.052053e-005,2.765838e-004
1.248906e-004,3.054314e-004
2.117576e-004,3.183966e-004
2.341226e-004,3.196932e-004
1.691344e-004,3.156415e-004
3.413401e-005,3.099692e-004
-1.246900e-004,3.042969e-004
-2.643903e-004,2.957075e-004
-3.707051e-004,2.814457e-004
-4.468758e-004,2.610255e-004
-4.927402e-004,2.337985e-004
-5.006815e-004,1.973338e-004
-4.601651e-004,1.519555e-004
-3.663293e-004,1.015532e-004
-2.282497e-004,4.823369e-005
-6.877746e-005,-3.789271e-006
7.092283e-005,-4.430560e-005
1.425557e-004,-6.845333e-005
1.211631e-004,-7.509801e-005
1.906194e-005,-6.910160e-005
-1.195039e-004,-6.278104e-005
-2.439700e-004,-6.812920e-005
-3.246786e-004,-8.514606e-005
-3.533641e-004,-1.055663e-004
-3.452609e-004,-1.219349e-004
-3.301888e-004,-1.334415e-004
-3.311612e-004,-1.358725e-004
-3.489884e-004,-1.313347e-004
-3.648708e-004,-1.159385e-004
-3.551468e-004,-8.530812e-005
-3.110651e-004,-4.106429e-005
-2.400805e-004,1.558884e-006
-1.673132e-004,2.716520e-005
-1.170729e-004,2.943412e-005
-9.486997e-005,9.013888e-006
-7.412562e-005,-2.988179e-005
-1.886135e-005,-7.574627e-005
9.263960e-005,-1.123730e-004
2.525981e-004,-1.302002e-004
4.154738e-004,-1.305243e-004
5.271368e-004,-1.130213e-004
5.538776e-004,-8.465986e-005
5.062303e-004,-5.710876e-005
4.384870e-004,-3.830918e-005
4.149876e-004,-3.069211e-005
4.811102e-004,-3.636440e-005
6.340999e-004,-5.257093e-005
8.242028e-004,-7.153257e-005
9.836751e-004,-8.563225e-005
1.064222e-003,-8.871149e-005
1.042829e-003,-8.044616e-005
9.211179e-004,-6.197072e-005
7.193464e-004,-3.425755e-005
4.780310e-004,3.341602e-006
2.469258e-004,4.596478e-005
6.930219e-005,8.793970e-005
-3.911951e-005,1.193804e-004
-1.081593e-004,1.373696e-004
-1.935677e-004,1.466074e-004
-3.509331e-004,1.543865e-004
-6.066721e-004,1.610312e-004
-9.544643e-004,1.658931e-004
-1.348121e-003,1.657311e-004
-1.694455e-003,1.597346e-004
-1.886502e-003,1.504969e-004
-1.851820e-003,1.321835e-004
-1.589436e-003,1.028497e-004
-1.153805e-003,6.654707e-005
-6.267682e-004,3.624086e-005
-1.008664e-004,1.987226e-005
3.409237e-004,1.760335e-005
6.465790e-004,2.116879e-005
8.195028e-004,2.052053e-005
9.066940e-004,1.468617e-005
9.698996e-004,3.989864e-006
1.050770e-003,-1.043395e-005
1.147686e-003,-2.907146e-005
1.225801e-003,-5.095028e-005
1.250759e-003,-6.926366e-005
1.204733e-003,-7.817725e-005
1.077673e-003,-7.299116e-005
8.689329e-004,-5.176060e-005
5.927733e-004,-2.048200e-005
2.762596e-004,6.744974e-006
-4.949169e-005,2.376183e-005
-3.566054e-004,2.716520e-005
-6.301716e-004,2.019640e-005
-8.675972e-004,1.031041e-005
-1.075527e-003,4.313994e-006
-1.263199e-003,6.258778e-006
-1.438877e-003,1.419998e-005
-1.608074e-003,2.197911e-005
-1.756201e-003,2.700314e-005
-1.844365e-003,3.024445e-005
-1.830752e-003,3.478227e-005
-1.705799e-003,4.369587e-005
-1.507755e-003,5.374392e-005
-1.291722e-003,6.152305e-005
-1.099837e-003,6.460230e-005
-9.403646e-004,6.087479e-005
-7.940196e-004,5.520250e-005
-6.494574e-004,4.855782e-005
-5.121881e-004,4.223728e-005
-3.877220e-004,3.769945e-005
-2.655248e-004,3.478227e-005
-1.133454e-004,3.283749e-005
1.005808e-004,3.024445e-005
3.681507e-004,2.813760e-005
6.580856e-004,3.073064e-005
9.366762e-004,4.045456e-005
1.179612e-003,5.455424e-005
1.365664e-003,6.865393e-005
1.482027e-003,7.708132e-005
1.519140e-003,7.805372e-005
1.472789e-003,7.448828e-005
1.351240e-003,7.108490e-005
1.175237e-003,6.897806e-005
9.747616e-004,6.865393e-005
7.699108e-004,6.865393e-005
5.525811e-004,6.687120e-005
2.921420e-004,6.654707e-005
-1.999580e-005,7.140904e-005
-3.361852e-004,8.226741e-005
-5.681007e-004,9.490851e-005
-6.431369e-004,1.007429e-004
-5.350393e-004,9.377405e-005
-2.733039e-004,8.145709e-005
7.027457e-005,6.865393e-005
4.159599e-004,5.893001e-005
7.073535e-004,5.487837e-005
9.271143e-004,5.504044e-005
1.088207e-003,6.103685e-005
1.209919e-003,7.189524e-005
1.299217e-003,9.004655e-005
1.354643e-003,1.169494e-004
1.372632e-003,1.483901e-004
1.354157e-003,1.752929e-004
1.308292e-003,1.908512e-004
1.251894e-003,1.906891e-004
1.206677e-003,1.736723e-004
1.190147e-003,1.385041e-004
1.205705e-003,8.907416e-005
1.234391e-003,3.299956e-005
1.239415e-003,-2.064406e-005
1.181071e-003,-6.083626e-005
1.034726e-003,-7.769105e-005
8.041066e-004,-7.493595e-005
5.195197e-004,-6.456376e-005
2.300710e-004,-5.273300e-005
-1.383732e-005,-3.944364e-005
-1.953505e-004,-2.453363e-005
-3.285681e-004,-8.002969e-006
-4.369898e-004,1.176900e-005
-5.421702e-004,3.850977e-005
-6.520504e-004,7.189524e-005
-7.612825e-004,1.099806e-004
-8.518769e-004,1.498487e-004
-9.037378e-004,1.882581e-004
-8.961207e-004,2.164575e-004
-8.068228e-004,2.281262e-004
-6.369783e-004,2.242366e-004
-4.173799e-004,2.122438e-004
-2.057227e-004,1.927960e-004
-5.176060e-005,1.680000e-004
2.522042e-005,1.432040e-004
3.348575e-005,1.163011e-004
-1.520357e-006,8.550872e-005
-4.884343e-005,5.244739e-005
-8.174268e-005,2.311357e-005
-8.401160e-005,7.485573e-007
-4.997788e-005,-1.756482e-005
6.258778e-006,-3.814712e-005
5.795762e-005,-5.889147e-005
8.210535e-005,-7.201877e-005
7.189524e-005,-7.185670e-005
2.894792e-005,-6.245691e-005
-3.685059e-005,-4.803310e-005
-1.167488e-004,-2.777494e-005
-2.037778e-004,-3.303075e-006
-2.890242e-004,1.922400e-005
-3.579019e-004,3.462021e-005
-3.927460e-004,3.786152e-005
-3.891806e-004,3.073064e-005
-3.549847e-004,2.035846e-005
-3.068514e-004,1.646889e-005
-2.476975e-004,2.408596e-005
-1.648822e-004,4.013043e-005
-4.560212e-005,5.957827e-005
1.140322e-004,7.740545e-005
3.055935e-004,9.069480e-005
5.054200e-004,9.328785e-005
6.840162e-004,8.372600e-005
8.122099e-004,6.525056e-005
8.763878e-004,4.450619e-005
8.783326e-004,2.586868e-005
8.229063e-004,1.306552e-005
7.201567e-004,5.772582e-006
5.869390e-004,3.179537e-006
4.431869e-004,2.045080e-006
3.007315e-004,-1.358292e-006
1.602208e-004,-9.299492e-006
6.744974e-006,-2.339917e-005
-1.686097e-004,-4.560212e-005
-3.601709e-004,-7.396355e-005
-5.557836e-004,-1.047560e-004
-7.395656e-004,-1.350622e-004
-8.888278e-004,-1.626133e-004
-9.833118e-004,-1.874093e-004
-1.022208e-003,-2.094501e-004
-1.025611e-003,-2.253325e-004
-1.015239e-003,-2.337599e-004
-1.003894e-003,-2.386219e-004
-9.850946e-004,-2.428356e-004
-9.439299e-004,-2.434839e-004
-8.776453e-004,-2.342461e-004
-7.992057e-004,-2.110708e-004
-7.183352e-004,-1.754164e-004
-6.241752e-004,-1.308485e-004
-5.034365e-004,-8.239095e-005
-3.624398e-004,-3.393342e-005
-2.259808e-004,6.096713e-006
-1.178833e-004,3.348575e-005
-3.571614e-005,4.888196e-005
5.341978e-005,5.795762e-005
1.754550e-004,6.573675e-005
3.310377e-004,7.221937e-005
4.950479e-004,7.043664e-005
6.323173e-004,5.747142e-005
7.128638e-004,3.753739e-005
7.154568e-004,1.225519e-005
6.242140e-004,-1.464765e-005
4.239012e-004,-4.365734e-005
1.219734e-004,-7.380149e-005
-2.342461e-004,-1.005423e-004
-5.684248e-004,-1.225831e-004
-8.115227e-004,-1.374931e-004
-9.267511e-004,-1.468929e-004
-9.243201e-004,-1.527273e-004
-8.549562e-004,-1.587237e-004
-7.813785e-004,-1.645580e-004
-7.432931e-004,-1.645580e-004
-7.455621e-004,-1.600202e-004
-7.651720e-004,-1.514308e-004
-7.676030e-004,-1.361966e-004
-7.227109e-004,-1.047560e-004
-6.099135e-004,-4.819516e-005
-4.374760e-004,3.413401e-005
-2.532078e-004,1.360731e-004
-1.165867e-004,2.397949e-004
-5.759496e-005,3.237448e-004
-7.185670e-005,3.778746e-004
-1.345760e-004,4.096394e-004
-2.136638e-004,4.295734e-004
-2.755728e-004,4.405939e-004
-2.932379e-004,4.417284e-004
-2.583938e-004,4.323286e-004
-1.812508e-004,4.170944e-004
-8.806324e-005,4.029947e-004
-2.006553e-006,3.940811e-004
7.157111e-005,3.903536e-004
1.423936e-004,3.906778e-004
2.248849e-004,3.914881e-004
3.182345e-004,3.858158e-004
4.072085e-004,3.650714e-004
4.851619e-004,3.264999e-004
5.603603e-004,2.786906e-004
6.413930e-004,2.396328e-004
7.185361e-004,2.214815e-004
7.627800e-004,2.224539e-004
7.426838e-004,2.308813e-004
6.653786e-004,2.342847e-004
5.801322e-004,2.256952e-004
5.485294e-004,2.052750e-004
6.028214e-004,1.814514e-004
7.280979e-004,1.579519e-004
8.755775e-004,1.372075e-004
9.901578e-004,1.148425e-004
1.025326e-003,8.712937e-005
9.658480e-004,5.098881e-005
8.425161e-004,1.047248e-005
7.041122e-004,-2.955766e-005
5.814287e-004,-6.245691e-005
4.832171e-004,-7.866345e-005
4.130428e-004,-7.947377e-005
3.733367e-004,-7.056018e-005
3.566440e-004,-5.548810e-005
3.519442e-004,-4.495386e-005
3.478925e-004,-4.803310e-005
3.414099e-004,-6.553616e-005
3.334687e-004,-8.935975e-005
3.245551e-004,-1.146419e-004
3.143450e-004,-1.376552e-004
3.039728e-004,-1.561307e-004
2.929523e-004,-1.652063e-004
2.911697e-004,-1.577513e-004
3.101313e-004,-1.214487e-004
3.485408e-004,-5.808115e-005
3.848434e-004,1.160693e-005
3.897054e-004,6.444023e-005
3.405996e-004,8.648111e-005
2.376881e-004,7.967437e-005
9.344992e-005,5.406805e-005
-7.120844e-005,1.987226e-005
-2.348944e-004,-1.302699e-005
-3.929080e-004,-4.349527e-005
-5.565939e-004,-7.574627e-005
-7.290315e-004,-1.143178e-004
-8.909347e-004,-1.611547e-004
-1.014428e-003,-2.084778e-004
-1.075689e-003,-2.431597e-004
-1.067748e-003,-2.590421e-004
-9.925496e-004,-2.580697e-004
-8.627353e-004,-2.426735e-004
-6.985632e-004,-2.203085e-004
-5.219121e-004,-1.963229e-004
-3.345645e-004,-1.703924e-004
-1.255003e-004,-1.449481e-004
1.109530e-004,-1.279313e-004
3.477304e-004,-1.204763e-004
5.235714e-004,-1.128592e-004
5.634395e-004,-9.179074e-005
4.331389e-004,-5.208473e-005
1.722137e-004,9.106226e-007
-1.271210e-004,5.925414e-005
-3.579019e-004,1.179218e-004
-4.394208e-004,1.723757e-004
-3.373197e-004,2.206712e-004
-7.671866e-005,2.574600e-004
2.696149e-004,2.801492e-004
6.106005e-004,2.893869e-004
8.618019e-004,2.829043e-004
9.682790e-004,2.600531e-004
9.251695e-004,2.172678e-004
7.718556e-004,1.526038e-004
5.695979e-004,7.351588e-005
3.790091e-004,-7.192643e-006
2.372019e-004,-7.769105e-005
1.616794e-004,-1.261486e-004
1.454729e-004,-1.472171e-004
1.689724e-004,-1.467309e-004
1.981441e-004,-1.355484e-004
1.976579e-004,-1.230693e-004
1.409351e-004,-1.164247e-004
3.105477e-005,-1.164247e-004
-9.162867e-005,-1.199901e-004
-1.786577e-004,-1.208004e-004
-2.097743e-004,-1.162626e-004
-1.968091e-004,-1.115627e-004
-1.626133e-004,-1.162626e-004
-1.182074e-004,-1.318209e-004
-5.905355e-005,-1.483515e-004
2.392390e-005,-1.630995e-004
1.304008e-004,-1.754164e-004
2.425500e-004,-1.797922e-004
3.300653e-004,-1.765509e-004
3.694472e-004,-1.647201e-004
3.529165e-004,-1.417068e-004
2.905214e-004,-1.015147e-004
2.055991e-004,-4.495386e-005
1.248906e-004,2.732727e-005
6.087479e-005,1.112771e-004
1.079661e-005,2.000889e-004
-3.668853e-005,2.817698e-004
-8.692878e-005,3.499994e-004
-1.295519e-004,4.012120e-004
-1.506204e-004,4.339492e-004
-1.389517e-004,4.436731e-004
-9.551824e-005,4.271425e-004
-3.344722e-005,3.871123e-004
2.894792e-005,3.336308e-004
6.589881e-005,2.809595e-004
5.909207e-005,2.350950e-004
1.112074e-005,1.984682e-004
-6.180866e-005,1.715654e-004
-1.350622e-004,1.550348e-004
-1.872472e-004,1.446626e-004
-2.122052e-004,1.378558e-004
-2.220912e-004,1.375317e-004
-2.303566e-004,1.402868e-004
-2.488320e-004,1.394765e-004
-2.752486e-004,1.279698e-004
-2.877277e-004,1.069013e-004
-2.656868e-004,8.388807e-005
-2.034537e-004,6.816773e-005
-1.123730e-004,6.152305e-005
-1.335112e-005,5.698522e-005
6.638501e-005,5.131293e-005
1.004187e-004,4.385793e-005
8.421220e-005,3.688912e-005
4.288554e-005,3.170303e-005
7.717366e-006,3.073064e-005
-9.623623e-006,3.105477e-005
-4.923729e-006,2.797553e-005
2.424803e-005,1.825161e-005
7.465034e-005,3.179537e-006
1.420695e-004,-1.529591e-005
2.216436e-004,-3.117831e-005
3.030004e-004,-3.944364e-005
3.684748e-004,-3.749886e-005
4.036430e-004,-2.404744e-005
4.164462e-004,-1.844488e-006
4.428628e-004,2.408596e-005
5.135234e-004,4.677511e-005
6.242140e-004,6.427816e-005
7.366874e-004,7.416414e-005
7.919517e-004,7.465034e-005
7.387943e-004,6.184718e-005
5.542017e-004,3.915804e-005
2.726942e-004,1.484824e-005
-2.777494e-005,-4.437533e-006
-2.626076e-004,-1.724069e-005
-3.854531e-004,-2.518189e-005
-4.010113e-004,-2.826113e-005
-3.538503e-004,-2.761287e-005
-2.921034e-004,-2.339917e-005
-2.397564e-004,-1.707863e-005
-2.000504e-004,-1.027188e-005
-1.864369e-004,-7.678839e-006
-2.172293e-004,-1.335112e-005
-2.935620e-004,-2.793700e-005
-3.814014e-004,-4.754691e-005
-4.356933e-004,-6.796713e-005
-4.258073e-004,-8.465986e-005
-3.536882e-004,-9.454584e-005
-2.532078e-004,-9.584237e-005
-1.609926e-004,-9.049421e-005
-9.632856e-005,-8.174268e-005
-4.916756e-005,-6.991192e-005
1.614476e-005,-5.710876e-005
1.409351e-004,-4.835723e-005
3.404375e-004,-4.592625e-005
5.830494e-004,-4.949169e-005
7.995688e-004,-5.581224e-005
9.204696e-004,-6.342930e-005
9.157698e-004,-7.185670e-005
8.029722e-004,-7.704279e-005
6.268070e-004,-7.347736e-005
4.371905e-004,-5.500191e-005
2.671840e-004,-2.275091e-005
1.244044e-004,1.695509e-005
6.420843e-006,5.309565e-005
-9.098041e-005,7.497447e-005
-1.720131e-004,8.388807e-005
-2.345703e-004,9.182927e-005
-2.695764e-004,1.133840e-004
-2.784900e-004,1.584381e-004
-2.739521e-004,2.239125e-004
-2.746004e-004,2.989488e-004
-2.972895e-004,3.671783e-004
-3.609812e-004,4.133669e-004
-4.916058e-004,4.324906e-004
-6.982390e-004,4.243874e-004
-9.627296e-004,3.911640e-004
-1.258985e-003,3.346032e-004
-1.558806e-003,2.581083e-004
-1.840151e-003,1.671896e-004
-2.096215e-003,7.173317e-005
-2.324889e-003,-2.177852e-005
-2.534764e-003,-1.058904e-004
-2.719843e-003,-1.720131e-004
-2.841878e-003,-2.139880e-004
-2.844795e-003,-2.334358e-004
-2.674141e-003,-2.342461e-004
-2.299931e-003,-2.194982e-004
-1.740643e-003,-1.903264e-004
-1.067748e-003,-1.512687e-004
-3.698948e-004,-1.071869e-004
2.765838e-004,-6.780506e-005
8.190167e-004,-4.106429e-005
1.228394e-003,-3.069211e-005
1.487375e-003,-3.166451e-005
1.588180e-003,-3.425755e-005
1.545881e-003,-2.842320e-005
1.392567e-003,-1.302699e-005
1.160975e-003,8.203561e-006
8.804395e-004,2.959618e-005
5.802942e-004,5.034054e-005
2.995970e-004,6.800567e-005
8.242948e-005,8.259154e-005
-3.409548e-005,9.539470e-005
-3.587821e-005,1.073875e-004
5.179913e-005,1.172735e-004
1.778859e-004,1.206769e-004
2.991108e-004,1.185700e-004
4.010499e-004,1.128978e-004
4.932652e-004,1.073875e-004
5.882355e-004,1.056048e-004
6.832058e-004,1.051186e-004
7.603490e-004,1.018773e-004
8.105892e-004,9.442231e-005
8.373301e-004,8.469840e-005
8.499712e-004,7.335382e-005
8.574261e-004,6.298164e-005
8.726603e-004,5.244739e-005
9.073423e-004,4.369587e-005
9.658480e-004,3.786152e-005
1.034402e-003,3.380988e-005
1.092421e-003,2.586868e-005
1.125645e-003,1.225519e-005
1.137638e-003,-2.816880e-006
1.149306e-003,-1.464765e-005
1.184798e-003,-1.772689e-005
1.249949e-003,-1.254080e-005
1.320609e-003,-2.978945e-006
1.372957e-003,7.555300e-006
1.407153e-003,1.387585e-005
1.448317e-003,1.403791e-005
1.513144e-003,7.393235e-006
1.590935e-003,-1.043395e-005
1.650899e-003,-3.539201e-005
1.658516e-003,-5.662256e-005
1.587045e-003,-6.942573e-005
1.425466e-003,-7.396355e-005
1.189174e-003,-7.396355e-005
9.130146e-004,-7.655659e-005
6.340999e-004,-8.773910e-005
3.717161e-004,-1.037836e-004
1.200286e-004,-1.159385e-004
-1.246900e-004,-1.186936e-004
-3.517435e-004,-1.107524e-004
-5.339048e-004,-9.470791e-005
-6.450816e-004,-7.266703e-005
-6.802498e-004,-4.770897e-005
-6.632329e-004,-2.226472e-005
-6.329267e-004,2.531276e-006
-6.113721e-004,2.165498e-005
-5.956517e-004,3.591673e-005
-5.653455e-004,4.547859e-005
-5.125122e-004,5.098881e-005
-4.499550e-004,5.082674e-005
-4.058733e-004,5.034054e-005
-4.071698e-004,4.823369e-005
-4.556273e-004,4.061663e-005
-5.345531e-004,3.186510e-005
-6.194753e-004,3.089270e-005
-6.841394e-004,3.688912e-005
-7.045596e-004,4.807163e-005
-6.680949e-004,6.427816e-005
-5.859278e-004,8.388807e-005
-4.813957e-004,1.004187e-004
-3.677879e-004,1.111150e-004
-2.592042e-004,1.166253e-004
-1.684476e-004,1.211631e-004
-1.126972e-004,1.240803e-004
-1.057284e-004,1.242423e-004
-1.491618e-004,1.248906e-004
-2.211188e-004,1.263492e-004
-2.953447e-004,1.263492e-004
-3.553089e-004,1.226217e-004
-3.920977e-004,1.174356e-004
-3.945287e-004,1.156529e-004
-3.653569e-004,1.195424e-004
-3.301888e-004,1.232699e-004
-3.290543e-004,1.240803e-004
-3.736223e-004,1.182459e-004
-4.426621e-004,1.002567e-004
-5.013297e-004,6.930219e-005
-5.311497e-004,3.267542e-005
-5.471942e-004,-2.330684e-006
-5.760418e-004,-3.198863e-005
-6.345474e-004,-5.435365e-005
-7.032630e-004,-7.282909e-005
-7.363243e-004,-8.433573e-005
-6.912702e-004,-8.514606e-005
-5.622663e-004,-7.380149e-005
-3.694086e-004,-5.273300e-005
-1.473791e-004,-2.388537e-005
6.897806e-005,1.144487e-005
2.504912e-004,4.677511e-005
3.791711e-004,7.708132e-005
4.512902e-004,1.007429e-004
4.801379e-004,1.167873e-004
4.817585e-004,1.279698e-004
4.608521e-004,1.385041e-004
4.251977e-004,1.459591e-004
3.924605e-004,1.493625e-004
3.835469e-004,1.508210e-004
4.052637e-004,1.561692e-004
4.397836e-004,1.663793e-004
4.600418e-004,1.799928e-004
4.485351e-004,1.945787e-004
4.039671e-004,2.038164e-004
3.336308e-004,2.036543e-004
2.488706e-004,1.916615e-004
1.673517e-004,1.701068e-004
1.138701e-004,1.501728e-004
1.090082e-004,1.385041e-004
1.517934e-004,1.363972e-004
2.219677e-004,1.376937e-004
2.863077e-004,1.329939e-004
3.127243e-004,1.111150e-004
2.835526e-004,6.168512e-005
2.039785e-004,-1.578211e-005
9.361198e-005,-1.057284e-004
-2.080613e-005,-1.865989e-004
-1.233935e-004,-2.483458e-004
-2.066950e-004,-2.887001e-004
-2.726556e-004,-3.096065e-004
-3.282440e-004,-3.160891e-004
-3.812393e-004,-3.156029e-004
-4.365036e-004,-3.096065e-004
-4.964678e-004,-2.930758e-004
-5.530285e-004,-2.564491e-004
-5.945172e-004,-1.961608e-004
-6.207718e-004,-1.193418e-004
-6.426506e-004,-4.057810e-005
-6.616123e-004,2.797553e-005
-6.650157e-004,8.502253e-005
-6.214201e-004,1.344524e-004
-5.066778e-004,1.796687e-004
-3.300267e-004,2.200230e-004
-1.400862e-004,2.553532e-004
1.031041e-005,2.806354e-004
9.960840e-005,2.932765e-004
1.396385e-004,2.880904e-004
1.472556e-004,2.613496e-004
1.284560e-004,2.184023e-004
9.069480e-005,1.636242e-004
4.483032e-005,1.012291e-004
2.045080e-006,3.624086e-005
-2.874733e-005,-2.485776e-005
-4.252288e-005,-7.477388e-005
-4.252288e-005,-1.067007e-004
-3.441962e-005,-1.165867e-004
-1.464765e-005,-1.109144e-004
2.586868e-005,-9.794922e-005
9.182927e-005,-8.287714e-005
1.715654e-004,-6.407756e-005
2.454672e-004,-4.155049e-005
3.036486e-004,-1.497178e-005
3.412478e-004,1.646889e-005
3.589129e-004,5.212327e-005
3.559958e-004,8.972242e-005
3.311998e-004,1.268354e-004
2.846870e-004,1.600588e-004
2.271538e-004,1.856651e-004
1.806411e-004,1.974959e-004
1.629759e-004,1.932822e-004
1.803169e-004,1.746447e-004
2.242366e-004,1.506590e-004
2.733424e-004,1.263492e-004
3.057555e-004,1.017153e-004
3.083486e-004,7.578480e-005
2.811216e-004,5.147500e-005
2.363915e-004,3.137890e-005
1.947408e-004,1.436204e-005
1.723757e-004,-3.951337e-006
1.770756e-004,-2.485776e-005
2.000889e-004,-5.078821e-005
2.226160e-004,-8.514606e-005
2.180782e-004,-1.216107e-004
1.715654e-004,-1.483515e-004
9.555677e-005,-1.514308e-004
1.387585e-005,-1.302002e-004
-6.261898e-005,-9.811128e-005
-1.238797e-004,-7.266703e-005
-1.549962e-004,-6.488790e-005
-1.425172e-004,-7.153257e-005
-7.655659e-005,-7.995997e-005
3.996836e-005,-7.623246e-005
1.905270e-004,-5.516398e-005
3.462718e-004,-1.821308e-005
4.721966e-004,2.684107e-005
5.420469e-004,7.043664e-005
5.561465e-004,1.101426e-004
5.491777e-004,1.530900e-004
5.668428e-004,2.039785e-004
6.318311e-004,2.629703e-004
7.308530e-004,3.235827e-004
8.264717e-004,3.799814e-004
8.934047e-004,4.198496e-004
9.277626e-004,4.300596e-004
9.379727e-004,4.068843e-004
9.408899e-004,3.598853e-004
9.397555e-004,2.979764e-004
9.152836e-004,2.302331e-004
8.340887e-004,1.655690e-004
6.627856e-004,1.103047e-004
3.874364e-004,6.379197e-005
3.008238e-005,2.019640e-005
-3.449367e-004,-2.680255e-005
-6.523746e-004,-7.299116e-005
-8.257844e-004,-1.102662e-004
-8.562527e-004,-1.368449e-004
-7.925610e-004,-1.558065e-004
-7.003458e-004,-1.699062e-004
-6.369783e-004,-1.768750e-004
-6.249855e-004,-1.728234e-004
-6.507539e-004,-1.562927e-004
-6.899737e-004,-1.339277e-004
-7.219006e-004,-1.078352e-004
-7.436173e-004,-8.012203e-005
-7.716546e-004,-5.597430e-005
-8.337256e-004,-4.155049e-005
-9.546263e-004,-3.506787e-005
-1.151698e-003,-3.506787e-005
-1.418943e-003,-3.863331e-005
-1.705637e-003,-4.608832e-005
-1.945656e-003,-5.467778e-005
-2.087463e-003,-5.727082e-005
-2.107235e-003,-4.868136e-005
-1.996220e-003,-3.863331e-005
-1.759605e-003,-3.539201e-005
-1.434826e-003,-4.511592e-005
-1.105833e-003,-6.764300e-005
-8.583595e-004,-9.827335e-005
-7.219006e-004,-1.269589e-004
-6.565882e-004,-1.464067e-004
-5.828486e-004,-1.575892e-004
-4.340726e-004,-1.605064e-004
-1.882196e-004,-1.566169e-004
1.334801e-004,-1.451102e-004
4.896997e-004,-1.297140e-004
8.480264e-004,-1.102662e-004
1.182205e-003,-8.125648e-005
1.469224e-003,-4.041603e-005
1.686068e-003,6.096713e-006
1.804538e-003,5.098881e-005
1.797245e-003,8.340186e-005
1.665161e-003,9.879807e-005
1.449452e-003,9.685329e-005
1.217698e-003,8.161915e-005
1.027919e-003,5.536457e-005
9.109078e-004,2.035846e-005
8.533745e-004,-2.096819e-005
8.120479e-004,-6.569822e-005
7.558112e-004,-1.110765e-004
6.768852e-004,-1.519170e-004
5.836976e-004,-1.815749e-004
4.859722e-004,-1.900023e-004
3.830607e-004,-1.705545e-004
2.767458e-004,-1.248521e-004
1.780480e-004,-6.261898e-005
1.002567e-004,5.124321e-006
4.013043e-005,7.562274e-005
-1.205460e-005,1.482280e-004
-6.650855e-005,2.171058e-004
-1.180453e-004,2.770700e-004
-1.583996e-004,3.248792e-004
-1.869231e-004,3.551854e-004
-1.951884e-004,3.700955e-004
-1.689338e-004,3.781987e-004
-1.026491e-004,3.828986e-004
1.072688e-006,3.817642e-004
1.323456e-004,3.691231e-004
2.782044e-004,3.461098e-004
4.213081e-004,3.216379e-004
5.366987e-004,3.018659e-004
6.002283e-004,2.830664e-004
5.955284e-004,2.556773e-004
5.258403e-004,2.153230e-004
4.182289e-004,1.670276e-004
3.161277e-004,1.222975e-004
2.508154e-004,8.664317e-005
2.303951e-004,5.811968e-005
2.425500e-004,3.429608e-005
2.616738e-004,1.241726e-005
2.671840e-004,-7.192643e-006
2.569738e-004,-2.323711e-005
2.482223e-004,-3.620233e-005
2.751252e-004,-4.641245e-005
3.650714e-004,-5.192267e-005
5.211404e-004,-5.208473e-005
7.269635e-004,-5.208473e-005
9.590412e-004,-5.305713e-005
1.189174e-003,-5.419158e-005
1.380736e-003,-5.613637e-005
1.498882e-003,-5.646050e-005
1.520274e-003,-5.467778e-005
1.443455e-003,-5.662256e-005
1.286252e-003,-6.569822e-005
1.077349e-003,-7.785312e-005
8.434885e-004,-8.887356e-005
5.977973e-004,-9.811128e-005
3.457856e-004,-1.109144e-004
9.685329e-005,-1.339277e-004
-1.334415e-004,-1.673132e-004
-3.287302e-004,-2.023193e-004
-4.847991e-004,-2.310048e-004
-6.126686e-004,-2.488320e-004
-7.246557e-004,-2.436459e-004
-8.223810e-004,-2.029675e-004
-9.030895e-004,-1.255003e-004
-9.734259e-004,-1.788895e-005
-1.049435e-003,1.025256e-004
-1.138408e-003,2.141886e-004
-1.223817e-003,2.984626e-004
-1.272274e-003,3.467580e-004
-1.255582e-003,3.602095e-004
-1.161746e-003,3.503235e-004
-1.008594e-003,3.273102e-004
-8.319428e-004,3.042969e-004
-6.642053e-004,2.914938e-004
-5.246671e-004,2.893869e-004
-4.199730e-004,2.898731e-004
-3.441264e-004,2.814457e-004
-2.917793e-004,2.577842e-004
-2.525595e-004,2.198609e-004
-2.044261e-004,1.735102e-004
-1.245279e-004,1.260251e-004
-2.534396e-005,8.405013e-005
4.353380e-005,5.147500e-005
3.429608e-005,2.651694e-005
-6.602235e-005,9.338019e-006
-2.306807e-004,-3.858999e-007
-4.194868e-004,-7.030578e-006
-6.014861e-004,-1.594417e-005
-7.629031e-004,-2.955766e-005
-8.901243e-004,-4.835723e-005
-9.684018e-004,-6.974985e-005
-9.829877e-004,-8.871149e-005
-9.249683e-004,-9.568031e-005
-7.974230e-004,-8.660465e-005
-6.212580e-004,-6.618442e-005
-4.303451e-004,-4.349527e-005
-2.655248e-004,-2.696461e-005
-1.572651e-004,-1.967167e-005
-1.044318e-004,-2.194059e-005
-7.444974e-005,-3.085418e-005
-2.015787e-005,-4.090223e-005
9.020861e-005,-4.544005e-005
2.632944e-004,-4.414354e-005
4.819206e-004,-3.555407e-005
7.071915e-004,-2.356124e-005
8.940530e-004,-1.092015e-005
9.974508e-004,1.234753e-006
9.945336e-004,9.338019e-006
8.950254e-004,1.193106e-005
7.360392e-004,7.879431e-006
5.621430e-004,-1.520357e-006
4.012120e-004,-1.254080e-005
2.496809e-004,-2.145439e-005
9.215340e-005,-2.631635e-005
-7.493595e-005,-3.231276e-005
-2.245222e-004,-3.992984e-005
-3.141443e-004,-4.009190e-005
-3.044204e-004,-2.307504e-005
-1.739578e-004,8.365628e-006
6.832980e-005,4.304760e-005
3.824124e-004,6.719534e-005
7.165913e-004,7.384001e-005
1.018357e-003,6.573675e-005
1.240549e-003,5.163707e-005
1.352536e-003,4.126489e-005
1.341516e-003,3.769945e-005
1.218832e-003,3.397195e-005
1.013333e-003,2.684107e-005
7.616455e-004,1.079661e-005
4.971547e-004,-1.043395e-005
2.449810e-004,-2.793700e-005
2.457216e-005,-3.328516e-005
-1.512687e-004,-2.453363e-005
-2.765452e-004,-8.813297e-006
-3.556330e-004,7.069104e-006
-4.083042e-004,2.019640e-005
-4.640547e-004,2.781346e-005
-5.455735e-004,2.959618e-005
-6.638812e-004,2.505835e-005
-8.115227e-004,1.436204e-005
-9.637020e-004,9.106226e-007
-1.078606e-003,-6.382316e-006
-1.123012e-003,-2.978945e-006
-1.095461e-003,6.907039e-006
-1.043600e-003,1.598270e-005
-1.048786e-003,1.841368e-005
-1.173739e-003,1.257933e-005
-1.403061e-003,1.883015e-006
-1.659772e-003,-6.868512e-006
-1.841934e-003,-8.489165e-006
-1.881478e-003,-1.844488e-006
-1.768194e-003,1.290346e-005
-1.543896e-003,2.943412e-005
-1.273085e-003,4.434413e-005
-1.006811e-003,5.309565e-005
-7.559343e-004,5.309565e-005
-5.053813e-004,4.726130e-005
-2.532078e-004,3.996836e-005
-1.691656e-005,3.154097e-005
1.780480e-004,2.084466e-005
3.182345e-004,1.079661e-005
4.091532e-004,5.864920e-007
4.806241e-004,-1.448558e-005
5.589016e-004,-3.360929e-005
6.532237e-004,-5.354332e-005
7.506250e-004,-7.153257e-005
8.324681e-004,-8.563225e-005
8.851393e-004,-8.968388e-005
9.021562e-004,-7.963584e-005
8.865979e-004,-5.743289e-005
8.494850e-004,-2.809907e-005
8.117237e-004,4.151929e-006
7.945448e-004,4.191315e-005
8.055652e-004,8.453633e-005
8.327922e-004,1.284560e-004
8.614778e-004,1.598967e-004
8.804395e-004,1.712413e-004
8.995632e-004,1.645966e-004
9.293832e-004,1.474177e-004
9.702237e-004,1.300767e-004
1.013657e-003,1.210010e-004
1.048664e-003,1.210010e-004
1.071677e-003,1.226217e-004
1.084480e-003,1.198666e-004
1.089828e-003,1.117633e-004
1.087235e-003,1.010670e-004
1.071191e-003,9.199134e-005
1.032133e-003,7.935023e-005
9.587171e-004,5.682316e-005
8.383024e-004,2.586868e-005
6.671614e-004,-3.303075e-006
4.582590e-004,-1.367526e-005
2.401191e-004,6.907039e-006
5.941620e-005,5.909207e-005
-5.419158e-005,1.313732e-004
-1.073490e-004,2.018716e-004
-1.386276e-004,2.495188e-004
-1.776853e-004,2.623220e-004
-2.344082e-004,2.386605e-004
-2.990722e-004,1.914994e-004
-3.433161e-004,1.378558e-004
-3.373197e-004,8.875003e-005
-2.635799e-004,5.001641e-005
-1.287416e-004,2.408596e-005
3.121684e-005,1.452411e-005
1.717275e-004,2.165498e-005
2.610255e-004,4.272347e-005
3.023521e-004,6.751947e-005
3.315239e-004,8.486046e-005
3.922984e-004,9.150514e-005
5.003960e-004,9.620503e-005
6.300483e-004,1.070634e-004
7.324737e-004,1.260251e-004
7.725038e-004,1.453108e-004
7.368495e-004,1.558451e-004
6.306966e-004,1.480659e-004
4.678209e-004,1.169494e-004
2.806354e-004,6.654707e-005
1.056048e-004,8.365628e-006
-2.712668e-005,-4.527799e-005
-1.078352e-004,-8.806324e-005
-1.512687e-004,-1.183694e-004
-1.862748e-004,-1.404103e-004
-2.428356e-004,-1.601823e-004
-3.394265e-004,-1.770371e-004
-4.682684e-004,-1.838438e-004
-5.946793e-004,-1.729855e-004
-6.815463e-004,-1.404103e-004
-7.125008e-004,-8.222889e-005
-6.954839e-004,-3.789271e-006
-6.530228e-004,8.340186e-005
-6.087790e-004,1.629759e-004
-5.728005e-004,2.211574e-004
-5.313118e-004,2.521119e-004
-4.595169e-004,2.579462e-004
-3.381300e-004,2.483844e-004
-1.720131e-004,2.305572e-004
1.533444e-005,2.078680e-004
1.882581e-004,1.825858e-004
3.164518e-004,1.577899e-004
3.846813e-004,1.305629e-004
3.926225e-004,9.361198e-005
3.495132e-004,4.628891e-005
2.738286e-004,-1.010982e-005
1.876099e-004,-7.444974e-005
1.159770e-004,-1.408965e-004
7.789165e-005,-2.019951e-004
7.659513e-005,-2.489941e-004
9.426025e-005,-2.807589e-004
1.059289e-004,-2.968033e-004
9.717742e-005,-3.000446e-004
6.881599e-005,-2.906448e-004
3.235129e-005,-2.710350e-004
1.072688e-006,-2.420253e-004
-1.691656e-005,-2.071812e-004
-2.323711e-005,-1.726613e-004
-1.886135e-005,-1.415448e-004
-8.651231e-006,-1.186936e-004
-1.034161e-006,-1.079973e-004
-1.270286e-005,-1.079973e-004
-6.245691e-005,-1.076731e-004
-1.627753e-004,-9.892161e-005
-3.073376e-004,-7.655659e-005
-4.648650e-004,-3.960571e-005
-5.945172e-004,1.938607e-005
-6.713362e-004,1.044704e-004
-6.937012e-004,2.055991e-004
-6.867324e-004,3.039728e-004
-6.857600e-004,3.814400e-004
-7.126628e-004,4.331389e-004
-7.559343e-004,4.603659e-004
-7.831612e-004,4.629589e-004
-7.713305e-004,4.430249e-004
-7.202799e-004,4.013741e-004
-6.491333e-004,3.388168e-004
-5.726385e-004,2.613496e-004
-4.971160e-004,1.820997e-004
-4.198109e-004,1.163011e-004
-3.387782e-004,6.622294e-005
-2.551526e-004,2.862379e-005
-1.749302e-004,-2.238345e-007
-1.044318e-004,-2.015787e-005
-4.479180e-005,-2.923352e-005
1.234753e-006,-3.198863e-005
2.829966e-005,-3.296103e-005
3.575467e-005,-3.263690e-005
3.137890e-005,-3.150244e-005
2.651694e-005,-3.036798e-005
3.024445e-005,-2.566809e-005
4.855782e-005,-1.189254e-005
8.048469e-005,5.286386e-006
1.341283e-004,1.727922e-005
2.354192e-004,1.792748e-005
3.924605e-004,4.313994e-006
5.820770e-004,-2.015787e-005
7.590525e-004,-4.430560e-005
8.793050e-004,-6.310517e-005
9.123664e-004,-7.882551e-005
8.412196e-004,-9.632856e-005
6.699165e-004,-1.157764e-004
4.324906e-004,-1.319829e-004
1.973338e-004,-1.373311e-004
3.656499e-005,-1.255003e-004
-1.383732e-005,-9.713889e-005
3.154097e-005,-5.743289e-005
1.182459e-004,-1.254080e-005
1.830720e-004,2.797553e-005
1.859892e-004,5.682316e-005
1.116012e-004,7.043664e-005
-4.106429e-005,6.638501e-005
-2.481837e-004,4.661304e-005
-4.603272e-004,1.549650e-005
-6.133168e-004,-2.015787e-005
-6.564262e-004,-5.192267e-005
-5.805796e-004,-6.764300e-005
-4.207833e-004,-5.694669e-005
-2.394322e-004,-1.724069e-005
-8.709084e-005,4.256141e-005
2.084466e-005,1.041462e-004
1.018773e-004,1.453108e-004
1.842065e-004,1.526038e-004
2.835526e-004,1.265113e-004
3.950535e-004,8.226741e-005
4.943996e-004,3.607880e-005
5.597120e-004,-2.006553e-006
5.851563e-004,-3.053005e-005
5.707324e-004,-4.381940e-005
5.156302e-004,-4.106429e-005
4.219564e-004,-2.501983e-005
3.000832e-004,-5.896120e-006
1.723757e-004,6.907039e-006
5.893001e-005,9.175954e-006
-3.101624e-005,6.744974e-006
-9.422171e-005,6.258778e-006
-1.334415e-004,1.403791e-005
-1.486757e-004,3.624086e-005
-1.381414e-004,7.076077e-005
-1.031353e-004,1.046324e-004
-4.835723e-005,1.299146e-004
2.116879e-005,1.451487e-004
9.960840e-005,1.550348e-004
1.824238e-004,1.678379e-004
2.566497e-004,1.827479e-004
3.135346e-004,1.914994e-004
3.569682e-004,1.906891e-004
3.981328e-004,1.832341e-004
4.490213e-004,1.764274e-004
5.130371e-004,1.720516e-004
5.893700e-004,1.675138e-004
6.742922e-004,1.537382e-004
7.697488e-004,1.265113e-004
8.796291e-004,8.761556e-005
1.011388e-003,4.272347e-005
1.150927e-003,4.244267e-007
1.252056e-003,-3.198863e-005
1.259025e-003,-5.062615e-005
1.130993e-003,-5.257093e-005
8.405714e-004,-4.414354e-005
3.942432e-004,-3.717472e-005
-1.383035e-004,-3.879538e-005
-6.411921e-004,-5.078821e-005
-1.021559e-003,-6.910160e-005
-1.246182e-003,-8.482193e-005
-1.340342e-003,-8.757703e-005
-1.361248e-003,-7.347736e-005
-1.367731e-003,-4.722277e-005
-1.406788e-003,-2.031993e-005
-1.493331e-003,5.864920e-007
-1.609694e-003,1.468617e-005
-1.725895e-003,2.392390e-005
-1.820379e-003,2.716520e-005
-1.874995e-003,2.457216e-005
-1.870133e-003,1.663096e-005
-1.785535e-003,4.476060e-006
-1.613260e-003,-9.461557e-006
-1.364652e-003,-2.339917e-005
-1.061913e-003,-3.377135e-005
-7.293556e-004,-3.668853e-005
-4.057112e-004,-3.263690e-005
-1.426792e-004,-2.485776e-005
5.448451e-006,-1.886135e-005
1.403791e-005,-1.513384e-005
-8.773910e-005,-8.651231e-006
-2.203085e-004,6.744974e-006
-2.958309e-004,3.251336e-005
-2.630937e-004,5.552663e-005
-1.165867e-004,6.606088e-005
1.138701e-004,6.038860e-005
3.731747e-004,4.483032e-005
6.071971e-004,3.267542e-005
7.857932e-004,3.218923e-005
9.102596e-004,4.402000e-005
9.951819e-004,6.670914e-005
1.048988e-003,9.134307e-005
1.075404e-003,1.122495e-004
1.071029e-003,1.248906e-004
1.037967e-003,1.263492e-004
9.903199e-004,1.174356e-004
9.428347e-004,1.039842e-004
9.062078e-004,9.409818e-005
8.865979e-004,9.296372e-005
8.750913e-004,1.009049e-004
8.566158e-004,1.132219e-004
8.285785e-004,1.237561e-004
7.972998e-004,1.252147e-004
7.627800e-004,1.111150e-004
7.199947e-004,8.388807e-005
6.726715e-004,5.439218e-005
6.413930e-004,3.105477e-005
6.517651e-004,1.533444e-005
7.146465e-004,6.744974e-006
8.222580e-004,1.072688e-006
9.523966e-004,-3.465141e-006
1.076377e-003,-3.141010e-006
1.172968e-003,1.883015e-006
1.234228e-003,7.555300e-006
1.263562e-003,1.322759e-005
1.262104e-003,1.954813e-005
1.229367e-003,2.635488e-005
1.159192e-003,3.316162e-005
1.037967e-003,3.964423e-005
8.630984e-004,4.936815e-005
6.580856e-004,6.476436e-005
4.603659e-004,8.210535e-005
2.889007e-004,9.426025e-005
1.406109e-004,9.409818e-005
3.503668e-006,8.259154e-005
-1.208004e-004,6.411610e-005
-2.133397e-004,3.867184e-005
-2.483458e-004,9.175954e-006
-2.125294e-004,-2.372330e-005
-1.143178e-004,-5.710876e-005
1.808955e-005,-8.838737e-005
1.410971e-004,-1.138316e-004
2.172678e-004,-1.282554e-004
2.237504e-004,-1.316588e-004
1.551968e-004,-1.248521e-004
2.116879e-005,-1.109144e-004
-1.567789e-004,-9.292519e-005
-3.378058e-004,-7.218083e-005
-4.966299e-004,-4.673658e-005
-6.479988e-004,-1.918548e-005
-8.265947e-004,6.907039e-006
-1.047166e-003,3.105477e-005
-1.282646e-003,5.212327e-005
-1.473235e-003,6.768153e-005
-1.559454e-003,7.546067e-005
-1.520072e-003,7.918817e-005
-1.385072e-003,8.291567e-005
-1.213769e-003,8.988448e-005
-1.059483e-003,1.033359e-004
-9.484679e-004,1.235941e-004
-8.724592e-004,1.417454e-004
-7.857542e-004,1.492004e-004
-6.338991e-004,1.461212e-004
-3.956631e-004,1.334801e-004
-9.519411e-005,1.156529e-004
2.182402e-004,9.652916e-005
4.992615e-004,7.951231e-005
7.080018e-004,6.719534e-005
8.207993e-004,5.666109e-005
8.486747e-004,4.466826e-005
8.267958e-004,3.008238e-005
7.765555e-004,1.095867e-005
6.981159e-004,-9.785687e-006
5.721910e-004,-2.777494e-005
3.966742e-004,-4.041603e-005
1.983062e-004,-4.576419e-005
2.376183e-005,-4.479180e-005
-8.287714e-005,-4.462973e-005
-1.036215e-004,-4.722277e-005
-5.516398e-005,-5.451571e-005
1.922400e-005,-5.791909e-005
5.568870e-005,-5.127441e-005
-1.351319e-005,-3.020592e-005
-2.250084e-004,2.531276e-006
-5.499493e-004,3.948217e-005
-9.152445e-004,6.946425e-005
-1.243265e-003,8.323980e-005
-1.474856e-003,8.583285e-005
-1.580523e-003,8.923622e-005
-1.559940e-003,1.013911e-004
-1.436609e-003,1.211631e-004
-1.240996e-003,1.378558e-004
-1.018642e-003,1.406109e-004
-8.168708e-004,1.255388e-004
-6.565882e-004,9.977046e-005
-5.274222e-004,6.995045e-005
-3.980942e-004,4.596478e-005
-2.444563e-004,3.024445e-005
-7.120844e-005,2.262737e-005
8.453633e-005,2.505835e-005
1.880961e-004,3.607880e-005
2.383363e-004,5.050261e-005
2.564876e-004,5.860587e-005
2.595669e-004,6.055066e-005
2.561635e-004,6.071273e-005
2.488706e-004,6.233338e-005
2.490327e-004,6.589881e-005
2.645909e-004,6.946425e-005
2.952213e-004,7.497447e-005
3.349273e-004,8.388807e-005
3.632887e-004,9.539470e-005
3.477304e-004,1.135460e-004
2.692908e-004,1.380179e-004
1.432040e-004,1.683241e-004
1.031041e-005,1.973338e-004
-9.033214e-005,2.169437e-004
-1.324691e-004,2.263435e-004
-1.016767e-004,2.234263e-004
3.989864e-006,2.102990e-004
1.657311e-004,1.880961e-004
3.467580e-004,1.608691e-004
5.047718e-004,1.310491e-004
6.055764e-004,1.017153e-004
6.300483e-004,7.805372e-005
5.798081e-004,6.670914e-005
4.765724e-004,6.784360e-005
3.509718e-004,7.724339e-005
2.286124e-004,8.518459e-005
1.297525e-004,8.242948e-005
7.432621e-005,6.152305e-005
7.011251e-005,2.829966e-005
1.065772e-004,-3.303075e-006
1.699447e-004,-2.664048e-005
2.501671e-004,-3.539201e-005
3.467580e-004,-3.587821e-005
4.602038e-004,-4.349527e-005
5.833735e-004,-6.812920e-005
7.000606e-004,-1.086455e-004
7.849829e-004,-1.545100e-004
8.084824e-004,-1.942160e-004
7.577559e-004,-2.217671e-004
6.511168e-004,-2.370012e-004
5.243817e-004,-2.451045e-004
4.122324e-004,-2.502906e-004
3.388168e-004,-2.517492e-004
3.067279e-004,-2.444563e-004
3.008935e-004,-2.277635e-004
3.008935e-004,-2.045882e-004
2.947351e-004,-1.835197e-004
2.796630e-004,-1.645580e-004
2.652392e-004,-1.460826e-004
2.602152e-004,-1.256624e-004
2.642668e-004,-9.940780e-005
2.730183e-004,-6.504996e-005
2.820940e-004,-2.194059e-005
2.877662e-004,2.554455e-005
2.892249e-004,6.978838e-005
2.856594e-004,1.044704e-004
2.704253e-004,1.216493e-004
2.320158e-004,1.179218e-004
1.639483e-004,9.377405e-005
7.157111e-005,5.844381e-005
-2.469570e-005,1.792748e-005
-9.211487e-005,-2.258885e-005
-1.041077e-004,-5.581224e-005
-6.310517e-005,-7.526008e-005
5.286386e-006,-7.736692e-005
7.043664e-005,-6.051213e-005
1.109530e-004,-3.247483e-005
1.214872e-004,-1.358292e-006
1.111150e-004,2.295151e-005
9.409818e-005,3.607880e-005
7.789165e-005,4.045456e-005
6.136099e-005,4.320967e-005
3.640293e-005,5.098881e-005
4.476060e-006,6.832980e-005
-3.004385e-005,9.182927e-005
-6.213279e-005,1.150046e-004
-8.676671e-005,1.359110e-004
-1.026491e-004,1.535762e-004
-1.170729e-004,1.704310e-004
-1.365208e-004,1.884202e-004
-1.630995e-004,2.057612e-004
-1.901644e-004,2.196988e-004
-2.099363e-004,2.281262e-004
-2.185258e-004,2.297469e-004
-2.149604e-004,2.250470e-004
-2.088019e-004,2.141886e-004
-2.126914e-004,1.950649e-004
-2.284118e-004,1.628139e-004
-2.499665e-004,1.214872e-004
-2.520733e-004,8.064676e-005
-2.049123e-004,4.531652e-005
-9.892161e-005,1.614476e-005
4.661304e-005,-5.409925e-006
1.914994e-004,-2.161646e-005
2.903593e-004,-3.830918e-005
3.143450e-004,-5.354332e-005
2.657254e-004,-6.035006e-005
1.749688e-004,-5.662256e-005
6.152305e-005,-4.641245e-005
-8.174268e-005,-3.377135e-005
-2.729797e-004,-2.031993e-005
-4.980884e-004,-1.108221e-005
-7.069905e-004,-1.205460e-005
-8.316187e-004,-2.145439e-005
-8.317808e-004,-3.263690e-005
-7.215764e-004,-3.425755e-005
-5.580526e-004,-2.064406e-005
-4.099249e-004,2.855406e-006
-3.275957e-004,2.829966e-005
-3.204648e-004,4.369587e-005
-3.587123e-004,4.158902e-005
-3.985803e-004,2.068259e-005
-4.073319e-004,-1.043395e-005
-3.663293e-004,-3.895744e-005
-2.867553e-004,-5.143647e-005
-2.078295e-004,-4.317114e-005
-1.806025e-004,-2.356124e-005
-2.245222e-004,-5.896120e-006
-3.209511e-004,-2.492749e-006
-4.251590e-004,-1.513384e-005
-4.941989e-004,-3.766092e-005
-5.032745e-004,-5.856734e-005
-4.475240e-004,-6.958779e-005
-3.363473e-004,-6.893953e-005
-1.874093e-004,-5.856734e-005
-2.161646e-005,-3.944364e-005
1.363972e-004,-1.432352e-005
2.639427e-004,9.338019e-006
3.559958e-004,3.267542e-005
4.204978e-004,5.730935e-005
4.631210e-004,9.020861e-005
4.749518e-004,1.412592e-004
4.435111e-004,2.135403e-004
3.751195e-004,2.968419e-004
3.010556e-004,3.673404e-004
2.543808e-004,4.010499e-004
2.597290e-004,3.913260e-004
3.253654e-004,3.428685e-004
4.472386e-004,2.670219e-004
6.080074e-004,1.842065e-004
7.785003e-004,1.128978e-004
9.126905e-004,6.508849e-005
9.705479e-004,4.790957e-005
9.439691e-004,5.990240e-005
8.598571e-004,9.328785e-005
7.567835e-004,1.359110e-004
6.629477e-004,1.798307e-004
5.830494e-004,2.177540e-004
4.979650e-004,2.433604e-004
3.820883e-004,2.582704e-004
2.146748e-004,2.644288e-004
-2.113026e-005,2.568118e-004
-3.282440e-004,2.355812e-004
-6.744154e-004,2.062474e-004
-1.001463e-003,1.767515e-004
-1.233379e-003,1.485521e-004
-1.312791e-003,1.175977e-004
-1.229327e-003,7.886404e-005
-1.015563e-003,2.700314e-005
-7.220627e-004,-3.198863e-005
-4.023078e-004,-8.611845e-005
-1.102662e-004,-1.258244e-004
1.036600e-004,-1.468929e-004
2.044647e-004,-1.569410e-004
1.853410e-004,-1.695821e-004
6.865393e-005,-1.917850e-004
-9.081834e-005,-2.232257e-004
-2.214430e-004,-2.582318e-004
-2.626076e-004,-2.917793e-004
-1.963229e-004,-3.246786e-004
-4.479180e-005,-3.540124e-004
1.535762e-004,-3.728119e-004
3.691231e-004,-3.718396e-004
5.728393e-004,-3.470436e-004
7.357150e-004,-3.002067e-004
8.373301e-004,-2.327876e-004
8.650432e-004,-1.475412e-004
8.233925e-004,-4.884343e-005
7.256669e-004,5.455424e-005
5.945560e-004,1.514693e-004
4.538833e-004,2.303951e-004
3.200173e-004,2.884145e-004
2.065715e-004,3.234207e-004
1.250527e-004,3.333066e-004
8.323980e-005,3.206655e-004
8.421220e-005,2.918179e-004
1.171115e-004,2.555152e-004
1.631380e-004,2.250470e-004
2.034923e-004,2.038164e-004
2.247228e-004,1.876099e-004
2.286124e-004,1.709171e-004
2.169437e-004,1.461212e-004
1.867996e-004,1.132219e-004
1.344524e-004,7.967437e-005
5.795762e-005,4.904402e-005
-5.354332e-005,2.230324e-005
-2.186879e-004,-2.492749e-006
-4.353692e-004,-2.420950e-005
-6.719845e-004,-4.041603e-005
-8.722972e-004,-5.143647e-005
-9.782878e-004,-5.808115e-005
-9.599745e-004,-6.488790e-005
-8.317808e-004,-7.266703e-005
-6.484850e-004,-8.125648e-005
-4.791268e-004,-8.822530e-005
-3.802670e-004,-9.405964e-005
-3.634122e-004,-1.005423e-004
-4.063595e-004,-1.086455e-004
-4.684305e-004,-1.193418e-004
-5.035987e-004,-1.274451e-004
-4.739407e-004,-1.285796e-004
-3.622777e-004,-1.161005e-004
-1.862748e-004,-9.243900e-005
1.047248e-005,-6.099833e-005
1.587622e-004,-2.664048e-005
1.979821e-004,6.096713e-006
1.148425e-004,3.462021e-005
-4.787104e-005,5.763348e-005
-2.188499e-004,7.270556e-005
-3.384541e-004,7.951231e-005
-3.757291e-004,7.756751e-005
-3.201407e-004,6.914012e-005
-1.810887e-004,5.779555e-005
1.419998e-005,4.969228e-005
2.320158e-004,4.466826e-005
4.448076e-004,4.142695e-005
6.339379e-004,3.591673e-005
7.874139e-004,2.829966e-005
8.974564e-004,1.841368e-005
9.528828e-004,4.800190e-006
9.517483e-004,-1.221667e-005
9.186869e-004,-2.907146e-005
8.880566e-004,-4.074016e-005
8.890289e-004,-4.414354e-005
9.345693e-004,-3.911951e-005
1.015116e-003,-2.890940e-005
1.098580e-003,-1.643037e-005
1.152547e-003,-2.238345e-007
1.154006e-003,2.359977e-005
1.100524e-003,5.811968e-005
1.015764e-003,1.010670e-004
9.303557e-004,1.480659e-004
8.447851e-004,1.877719e-004
7.410632e-004,2.109473e-004
6.112488e-004,2.148369e-004
4.524247e-004,1.994406e-004
2.806354e-004,1.733481e-004
1.239182e-004,1.469315e-004
-3.303075e-006,1.261871e-004
-1.003802e-004,1.078737e-004
-1.750923e-004,8.777764e-005
-2.374874e-004,6.492643e-005
-3.042583e-004,4.207521e-005
-3.865875e-004,2.230324e-005
-4.768579e-004,1.079661e-005
-5.530285e-004,3.179537e-006
-5.818761e-004,-8.975361e-006
-5.465459e-004,-2.291298e-005
-4.721580e-004,-3.458168e-005
-4.138144e-004,-3.944364e-005
-4.209453e-004,-4.219875e-005
-5.188328e-004,-5.030201e-005
-6.915944e-004,-6.812920e-005
-8.854244e-004,-9.162867e-005
-1.035497e-003,-1.130213e-004
-1.104537e-003,-1.227452e-004
-1.088168e-003,-1.203142e-004
-1.006325e-003,-1.070249e-004
-8.804004e-004,-8.757703e-005
-7.173627e-004,-6.310517e-005
-5.254775e-004,-2.988179e-005
-3.162512e-004,1.160693e-005
-1.020008e-004,5.974033e-005
9.928427e-005,1.120874e-004
2.675081e-004,1.600588e-004
3.887330e-004,1.921477e-004
4.589073e-004,2.023578e-004
4.746277e-004,1.992786e-004
4.367043e-004,1.929580e-004
3.595612e-004,1.895547e-004
2.723700e-004,1.880961e-004
2.091646e-004,1.885823e-004
1.871237e-004,1.914994e-004
2.036543e-004,1.942546e-004
2.466016e-004,1.978200e-004
2.997591e-004,2.039785e-004
3.508097e-004,2.141886e-004
3.853296e-004,2.256952e-004
3.863020e-004,2.250470e-004
3.371962e-004,1.997648e-004
2.425500e-004,1.485521e-004
1.200286e-004,8.064676e-005
-1.578211e-005,1.501031e-005
-1.587237e-004,-2.890940e-005
-3.050687e-004,-4.479180e-005
-4.309934e-004,-3.976777e-005
-5.112157e-004,-2.339917e-005
-5.246671e-004,-5.896120e-006
-4.682684e-004,1.031041e-005
-3.613053e-004,2.295151e-005
-2.214430e-004,3.186510e-005
-5.565017e-005,3.348575e-005
1.172735e-004,2.359977e-005
2.501671e-004,9.106226e-007
2.916558e-004,-3.231276e-005
2.245608e-004,-6.650855e-005
7.432621e-005,-9.049421e-005
-1.084835e-004,-1.005423e-004
-2.749245e-004,-9.989400e-005
-3.974459e-004,-9.211487e-005
-4.635685e-004,-7.963584e-005
-4.716718e-004,-6.245691e-005
-4.292107e-004,-3.992984e-005
-3.421816e-004,-1.432352e-005
-2.136638e-004,7.717366e-006
-4.381940e-005,1.614476e-005
1.639483e-004,1.095867e-005
3.957018e-004,-7.030578e-006
6.222692e-004,-2.728874e-005
8.037825e-004,-3.960571e-005
9.063699e-004,-3.798505e-005
9.194972e-004,-2.194059e-005
8.587227e-004,2.369210e-006
7.574318e-004,3.089270e-005
6.514410e-004,6.298164e-005
5.645739e-004,1.004187e-004
5.023408e-004,1.360731e-004
4.618245e-004,1.610312e-004
4.392974e-004,1.686482e-004
4.302217e-004,1.577899e-004
4.219564e-004,1.308870e-004
3.961880e-004,9.701536e-005
3.362238e-004,6.816773e-005
2.372019e-004,4.628891e-005
1.192183e-004,2.943412e-005
2.165498e-005,1.436204e-005
-1.416145e-005,-5.479652e-007
3.494434e-005,-1.059601e-005
1.568175e-004,-1.302699e-005
3.089968e-004,-9.461557e-006
4.305458e-004,-7.354708e-006
4.683071e-004,-1.659243e-005
3.846813e-004,-3.668853e-005
1.667035e-004,-6.099833e-005
-1.613168e-004,-8.060822e-005
-5.295291e-004,-9.146661e-005
-8.627353e-004,-9.065627e-005
-1.106806e-003,-7.817725e-005
-1.239699e-003,-6.229485e-005
-1.277460e-003,-5.143647e-005
-1.257851e-003,-4.819516e-005
-1.212796e-003,-4.625038e-005
-1.153480e-003,-3.830918e-005
-1.069531e-003,-2.275091e-005
-9.452265e-004,-2.654814e-006
-7.750580e-004,1.452411e-005
-5.776625e-004,2.165498e-005
-3.899909e-004,1.938607e-005
-2.558008e-004,1.225519e-005
-1.976194e-004,4.313994e-006
-2.039399e-004,-2.330684e-006
-2.387839e-004,-7.516774e-006
