-4.880404e-004,-7.678839e-006
-6.980770e-004,-1.079973e-004
-8.492839e-004,-2.139880e-004
-9.659709e-004,-3.096065e-004
-1.081361e-003,-3.801049e-004
-1.220900e-003,-4.168937e-004
-1.372107e-003,-4.220798e-004
-1.485228e-003,-4.045767e-004
-1.510510e-003,-3.765395e-004
-1.430450e-003,-3.553089e-004
-1.280053e-003,-3.601709e-004
-1.117502e-003,-4.018217e-004
-9.773155e-004,-4.672960e-004
-8.633835e-004,-5.201293e-004
-7.703581e-004,-5.253154e-004
-6.909461e-004,-4.664857e-004
-6.202856e-004,-3.431540e-004
-5.522182e-004,-1.639098e-004
-4.896610e-004,5.747142e-005
-4.428242e-004,2.986246e-004
-4.045767e-004,5.298919e-004
-3.462333e-004,7.242084e-004
-2.334358e-004,8.567779e-004
-4.527799e-005,9.151215e-004
2.172678e-004,9.021562e-004
5.311884e-004,8.300371e-004
8.647191e-004,7.211291e-004
1.185933e-003,5.994180e-004
1.462093e-003,4.901859e-004
1.656410e-003,4.153117e-004
1.726098e-003,3.830607e-004
1.632262e-003,3.796573e-004
1.347512e-003,3.765781e-004
8.673122e-004,3.446512e-004
2.099749e-004,2.751252e-004
-5.745832e-004,1.801549e-004
-1.408409e-003,8.242948e-005
-2.202043e-003,-3.858999e-007
-2.874454e-003,-5.597430e-005
-3.388364e-003,-8.449779e-005
-3.744585e-003,-9.389758e-005
-3.964995e-003,-9.211487e-005
-4.069690e-003,-7.833932e-005
-4.044246e-003,-4.333321e-005
-3.840528e-003,1.711715e-005
-3.432446e-003,9.409818e-005
-2.841878e-003,1.696206e-004
-2.135921e-003,2.154851e-004
-1.413109e-003,2.148369e-004
-7.748959e-004,1.692965e-004
-2.781658e-004,9.912220e-005
8.194328e-005,2.894792e-005
3.440029e-004,-2.307504e-005
5.514466e-004,-5.305713e-005
7.421976e-004,-6.829127e-005
9.553137e-004,-7.850138e-005
1.209919e-003,-8.368747e-005
1.491751e-003,-7.769105e-005
1.757701e-003,-6.116039e-005
1.964011e-003,-3.766092e-005
2.087505e-003,-1.480971e-005
2.132883e-003,6.258778e-006
2.118946e-003,2.554455e-005
2.050392e-003,4.320967e-005
1.889946e-003,5.698522e-005
1.568894e-003,6.751947e-005
1.082373e-003,7.724339e-005
5.614947e-004,8.340186e-005
2.081922e-004,8.194328e-005
1.629759e-004,7.448828e-005
4.235770e-004,6.298164e-005
8.679605e-004,4.499239e-005
1.336330e-003,1.711715e-005
1.704867e-003,-1.545797e-005
1.906801e-003,-4.738484e-005
1.929166e-003,-7.898758e-005
1.793841e-003,-1.149661e-004
1.535833e-003,-1.582375e-004
1.183664e-003,-2.050744e-004
7.498147e-004,-2.494803e-004
2.491947e-004,-2.950206e-004
-2.673074e-004,-3.376438e-004
-7.230350e-004,-3.626019e-004
-1.066775e-003,-3.478539e-004
-1.292532e-003,-2.812450e-004
-1.408247e-003,-1.677994e-004
-1.410516e-003,-2.971972e-005
-1.300474e-003,1.031738e-004
-1.111506e-003,2.062474e-004
-9.061688e-004,2.673460e-004
-7.303280e-004,2.887386e-004
-5.721523e-004,2.840387e-004
-3.802670e-004,2.671840e-004
-1.144799e-004,2.472499e-004
2.266676e-004,2.198609e-004
5.961767e-004,1.741585e-004
9.198214e-004,1.127357e-004
1.130831e-003,5.228533e-005
1.202626e-003,1.095867e-005
1.157247e-003,3.989864e-006
1.052715e-003,3.672705e-005
9.554758e-004,1.086841e-004
9.102596e-004,2.133783e-004
9.230627e-004,3.334687e-004
9.835131e-004,4.360561e-004
1.085290e-003,4.916445e-004
1.218346e-003,4.898618e-004
1.347350e-003,4.383250e-004
1.428545e-003,3.540510e-004
1.431462e-003,2.605393e-004
1.354643e-003,1.741585e-004
1.230501e-003,1.026876e-004
1.124996e-003,4.904402e-005
1.104090e-003,1.209313e-005
1.198574e-003,-1.189254e-005
1.381222e-003,-3.231276e-005
1.591421e-003,-5.856734e-005
1.789628e-003,-9.762508e-005
1.976976e-003,-1.541859e-004
2.172265e-003,-2.267911e-004
2.363989e-003,-3.076617e-004
2.486835e-003,-3.836703e-004
2.465280e-003,-4.358554e-004
2.269019e-003,-4.504412e-004
1.938890e-003,-4.185144e-004
1.565653e-003,-3.382920e-004
1.221749e-003,-2.233878e-004
9.073423e-004,-9.324932e-005
5.720289e-004,2.149292e-005
1.634621e-004,8.729143e-005
-3.475298e-004,8.939829e-005
-9.722914e-004,3.688912e-005
-1.676789e-003,-4.009190e-005
-2.359085e-003,-1.041077e-004
-2.883367e-003,-1.336036e-004
-3.157745e-003,-1.242038e-004
-3.185620e-003,-8.530812e-005
-3.072822e-003,-2.777494e-005
-2.992437e-003,3.802358e-005
-3.107990e-003,1.004187e-004
-3.471342e-003,1.532520e-004
-3.985740e-003,1.910132e-004
-4.449412e-003,2.064095e-004
-4.658802e-003,1.939304e-004
-4.512294e-003,1.568175e-004
-4.012481e-003,1.009049e-004
-3.248501e-003,3.818564e-005
-2.363785e-003,-2.404744e-005
-1.508079e-003,-7.979790e-005
-7.795958e-004,-1.208004e-004
-2.207947e-004,-1.386276e-004
1.683241e-004,-1.285796e-004
4.226046e-004,-8.595638e-005
5.809425e-004,-2.356124e-005
6.588960e-004,3.348575e-005
6.621373e-004,6.751947e-005
5.989318e-004,7.432621e-005
4.856481e-004,5.990240e-005
3.561578e-004,3.429608e-005
2.530843e-004,8.851824e-006
2.175920e-004,-7.678839e-006
2.671840e-004,-1.367526e-005
3.908399e-004,-1.237873e-005
5.512845e-004,-1.464765e-005
6.990882e-004,-3.036798e-005
7.992446e-004,-6.213279e-005
8.379783e-004,-1.054042e-004
8.254993e-004,-1.478653e-004
7.870898e-004,-1.737958e-004
7.464113e-004,-1.778474e-004
7.229118e-004,-1.656925e-004
7.302047e-004,-1.520790e-004
7.765555e-004,-1.588858e-004
8.569400e-004,-2.052364e-004
9.587171e-004,-2.870794e-004
1.075404e-003,-3.864254e-004
1.209432e-003,-4.836646e-004
1.349295e-003,-5.603214e-004
1.461282e-003,-6.000275e-004
1.507147e-003,-5.919242e-004
1.464848e-003,-5.275843e-004
1.344757e-003,-3.971218e-004
1.181719e-003,-1.953505e-004
1.009606e-003,7.659513e-005
8.643949e-004,4.089912e-004
7.929241e-004,7.712073e-004
8.303613e-004,1.114624e-003
9.877268e-004,1.376522e-003
1.254325e-003,1.513468e-003
1.592556e-003,1.514602e-003
1.928680e-003,1.405694e-003
2.169186e-003,1.233742e-003
2.239360e-003,1.047367e-003
2.112625e-003,8.699052e-004
1.808589e-003,7.109190e-004
1.340219e-003,5.741358e-004
6.822334e-004,4.582590e-004
-1.511066e-004,3.561578e-004
-1.030797e-003,2.597290e-004
-1.771435e-003,1.658931e-004
-2.245315e-003,7.400208e-005
-2.452435e-003,-1.756482e-005
-2.490682e-003,-1.020008e-004
-2.472369e-003,-1.650442e-004
-2.473179e-003,-1.972952e-004
-2.495058e-003,-2.029675e-004
-2.481930e-003,-1.972952e-004
-2.398305e-003,-1.972952e-004
-2.302848e-003,-2.139880e-004
-2.321648e-003,-2.454286e-004
-2.554050e-003,-2.831898e-004
-2.960834e-003,-3.217614e-004
-3.363082e-003,-3.613053e-004
-3.553509e-003,-4.002010e-004
-3.412998e-003,-4.292107e-004
-2.951921e-003,-4.352071e-004
-2.275945e-003,-4.065215e-004
-1.522017e-003,-3.399127e-004
-8.160605e-004,-2.454286e-004
-2.553146e-004,-1.389517e-004
1.111150e-004,-3.733679e-005
2.924662e-004,4.110282e-005
3.441650e-004,8.340186e-005
3.430306e-004,8.550872e-005
3.553475e-004,5.520250e-005
4.149876e-004,5.286386e-006
5.289195e-004,-4.511592e-005
6.992503e-004,-8.384953e-005
9.425106e-004,-1.075111e-004
1.281228e-003,-1.208004e-004
1.696278e-003,-1.336036e-004
2.115056e-003,-1.553203e-004
2.447453e-003,-1.919471e-004
2.637881e-003,-2.447804e-004
2.680829e-003,-3.105789e-004
2.603523e-003,-3.849668e-004
2.437243e-003,-4.583824e-004
2.210513e-003,-5.199672e-004
1.952180e-003,-5.608077e-004
1.693036e-003,-5.728005e-004
1.459986e-003,-5.562698e-004
1.263562e-003,-5.095950e-004
1.101659e-003,-4.248349e-004
9.750857e-004,-2.948585e-004
8.878945e-004,-1.305243e-004
8.254993e-004,4.369587e-005
7.569456e-004,1.932822e-004
6.627856e-004,2.885766e-004
5.530672e-004,3.065658e-004
4.470765e-004,2.410914e-004
3.496752e-004,1.083599e-004
2.594048e-004,-5.257093e-005
1.858272e-004,-1.856265e-004
1.415833e-004,-2.412149e-004
1.398006e-004,-1.922712e-004
1.942546e-004,-4.090223e-005
3.221241e-004,1.762653e-004
5.456123e-004,4.063981e-004
8.593709e-004,5.997421e-004
1.203922e-003,7.329599e-004
1.483485e-003,8.011895e-004
1.616055e-003,8.089686e-004
1.581373e-003,7.710453e-004
1.425628e-003,7.105949e-004
1.242008e-003,6.417171e-004
1.119972e-003,5.621430e-004
1.096311e-003,4.665244e-004
1.134558e-003,3.579406e-004
1.146065e-003,2.521119e-004
1.037805e-003,1.712413e-004
7.541904e-004,1.268354e-004
3.161277e-004,1.159770e-004
-1.802784e-004,1.234320e-004
-6.329267e-004,1.308870e-004
-1.003732e-003,1.242423e-004
-1.338235e-003,9.620503e-005
-1.705799e-003,5.471631e-005
-2.141269e-003,1.014835e-005
-2.624224e-003,-2.988179e-005
-3.099563e-003,-6.310517e-005
-3.545406e-003,-9.276313e-005
-3.966454e-003,-1.233935e-004
-4.338234e-003,-1.519170e-004
-4.599972e-003,-1.741199e-004
-4.669336e-003,-1.775233e-004
-4.485067e-003,-1.498101e-004
-4.042625e-003,-9.389758e-005
-3.396630e-003,-2.550602e-005
-2.641727e-003,3.218923e-005
-1.882126e-003,5.730935e-005
-1.199669e-003,4.337174e-005
-6.296854e-004,3.827798e-006
-1.648822e-004,-3.992984e-005
2.149989e-004,-6.310517e-005
5.285954e-004,-5.078821e-005
7.827140e-004,1.883015e-006
9.671445e-004,8.518459e-005
1.080266e-003,1.842065e-004
1.143148e-003,2.838767e-004
1.191281e-003,3.642611e-004
1.245249e-003,4.078567e-004
1.304889e-003,4.020223e-004
1.360640e-003,3.402754e-004
1.407639e-003,2.286124e-004
1.449776e-003,8.437427e-005
1.487699e-003,-6.829127e-005
1.508768e-003,-2.000504e-004
1.494830e-003,-2.929138e-004
1.424169e-003,-3.403989e-004
1.280093e-003,-3.470436e-004
1.068435e-003,-3.136581e-004
8.360335e-004,-2.415391e-004
6.597064e-004,-1.387897e-004
6.088177e-004,-1.497178e-005
7.047605e-004,1.161391e-004
9.112319e-004,2.389846e-004
1.154816e-003,3.399513e-004
1.346054e-003,4.044533e-004
1.415742e-003,4.211461e-004
1.333088e-003,3.885709e-004
1.101173e-003,3.187208e-004
7.280979e-004,2.342847e-004
2.615117e-004,1.522796e-004
-1.729855e-004,7.821578e-005
-4.313175e-004,7.555300e-006
-4.378001e-004,-6.780506e-005
-2.122052e-004,-1.536997e-004
1.519555e-004,-2.489941e-004
5.256782e-004,-3.472056e-004
7.976240e-004,-4.450931e-004
9.037769e-004,-5.356875e-004
8.535366e-004,-6.102376e-004
7.110811e-004,-6.616123e-004
5.472329e-004,-6.890013e-004
3.846813e-004,-6.943495e-004
2.065715e-004,-6.823567e-004
-8.975361e-006,-6.570744e-004
-2.549905e-004,-6.232028e-004
-4.972781e-004,-5.831727e-004
-6.928909e-004,-5.316359e-004
-7.992057e-004,-4.562756e-004
-7.849439e-004,-3.450988e-004
-6.633950e-004,-1.955125e-004
-4.935506e-004,-5.734055e-006
-3.457470e-004,2.109473e-004
-2.569353e-004,4.224426e-004
-2.028055e-004,5.786736e-004
-1.225831e-004,6.336138e-004
3.478227e-005,5.788357e-004
2.673460e-004,4.428628e-004
5.106062e-004,2.830664e-004
6.754267e-004,1.577899e-004
7.049225e-004,1.064151e-004
6.055764e-004,1.363972e-004
4.401077e-004,2.185644e-004
2.914938e-004,3.088348e-004
2.130541e-004,3.751195e-004
2.313675e-004,4.098015e-004
3.488649e-004,4.193634e-004
5.444778e-004,4.149876e-004
7.867657e-004,4.033188e-004
1.052391e-003,3.950535e-004
1.330982e-003,3.982948e-004
1.582832e-003,4.055878e-004
1.740035e-003,3.995913e-004
1.745708e-003,3.647473e-004
1.596445e-003,2.947351e-004
1.339409e-003,1.963614e-004
1.051257e-003,8.972242e-005
7.927620e-004,2.531276e-006
5.806184e-004,-5.532604e-005
4.042912e-004,-8.547019e-005
2.626462e-004,-9.924574e-005
1.882581e-004,-1.094559e-004
2.394708e-004,-1.242038e-004
4.318423e-004,-1.541859e-004
6.786680e-004,-2.065330e-004
8.209614e-004,-2.763831e-004
7.036260e-004,-3.460712e-004
2.419018e-004,-3.995527e-004
-5.368220e-004,-4.334243e-004
-1.488631e-003,-4.517377e-004
-2.436714e-003,-4.603272e-004
-3.237643e-003,-4.593548e-004
-3.794502e-003,-4.390966e-004
-4.051539e-003,-3.929080e-004
-4.015398e-003,-3.316474e-004
-3.752689e-003,-2.718453e-004
-3.369564e-003,-2.225774e-004
-2.980120e-003,-1.796301e-004
-2.673654e-003,-1.319829e-004
-2.490682e-003,-7.185670e-005
-2.394739e-003,2.623614e-007
-2.298959e-003,7.886404e-005
-2.117121e-003,1.563313e-004
-1.808224e-003,2.232642e-004
-1.406951e-003,2.778803e-004
-9.881739e-004,3.243930e-004
-6.146134e-004,3.657197e-004
-3.060411e-004,4.076946e-004
-4.398147e-005,4.572866e-004
2.010613e-004,5.183853e-004
4.358940e-004,5.828873e-004
6.480376e-004,6.332896e-004
8.402472e-004,6.532237e-004
1.040236e-003,6.284277e-004
1.270207e-003,5.584154e-004
1.506499e-003,4.608521e-004
1.672940e-003,3.715541e-004
1.690605e-003,3.284447e-004
1.506985e-003,3.433547e-004
1.153844e-003,3.919743e-004
7.546767e-004,4.255218e-004
4.741414e-004,4.047775e-004
4.308700e-004,3.240689e-004
6.358827e-004,2.052750e-004
1.016899e-003,7.772959e-005
1.460148e-003,-4.398147e-005
1.848295e-003,-1.605064e-004
2.100470e-003,-2.728177e-004
2.196899e-003,-3.799428e-004
2.160596e-003,-4.723200e-004
2.033051e-003,-5.366600e-004
1.850726e-003,-5.540009e-004
1.632748e-003,-5.113778e-004
1.378629e-003,-4.089525e-004
1.086425e-003,-2.637420e-004
7.650488e-004,-1.052422e-004
4.329768e-004,3.591673e-005
1.060910e-004,1.423936e-004
-2.110708e-004,2.180782e-004
-5.217499e-004,2.743148e-004
-8.342118e-004,3.211517e-004
-1.189459e-003,3.581026e-004
-1.660907e-003,3.747953e-004
-2.253742e-003,3.652335e-004
-2.852737e-003,3.331445e-004
-3.290801e-003,2.924662e-004
-3.442332e-003,2.595669e-004
-3.252067e-003,2.372019e-004
-2.757604e-003,2.120818e-004
-2.106911e-003,1.712413e-004
-1.492845e-003,1.038221e-004
-1.047328e-003,6.907039e-006
-7.951541e-004,-1.101041e-004
-6.655018e-004,-2.274394e-004
-5.428185e-004,-3.212752e-004
-3.241924e-004,-3.744326e-004
3.478227e-005,-3.796187e-004
5.047718e-004,-3.478539e-004
1.006202e-003,-2.964792e-004
1.455934e-003,-2.382978e-004
1.806645e-003,-1.856265e-004
2.032240e-003,-1.546721e-004
2.102739e-003,-1.543479e-004
1.987024e-003,-1.793060e-004
1.694171e-003,-2.157707e-004
1.308617e-003,-2.514251e-004
9.715203e-004,-2.739521e-004
8.031343e-004,-2.783279e-004
8.350611e-004,-2.626076e-004
1.007175e-003,-2.261429e-004
1.218832e-003,-1.648822e-004
1.389163e-003,-6.974985e-005
1.485592e-003,6.330577e-005
1.523678e-003,2.224539e-004
1.540533e-003,3.861399e-004
1.550581e-003,5.230852e-004
1.533402e-003,6.049282e-004
1.459824e-003,6.172452e-004
1.321582e-003,5.645739e-004
1.134558e-003,4.710622e-004
9.206317e-004,3.647473e-004
6.939021e-004,2.631323e-004
4.611762e-004,1.728619e-004
2.295848e-004,9.798775e-005
-1.520357e-006,3.932010e-005
-2.376495e-004,-8.813297e-006
-4.810716e-004,-5.856734e-005
-7.078008e-004,-1.107524e-004
-8.731075e-004,-1.590478e-004
-9.377715e-004,-1.972952e-004
-8.896381e-004,-2.248463e-004
-7.454000e-004,-2.465631e-004
-5.254775e-004,-2.674695e-004
-2.671454e-004,-2.862691e-004
-5.176060e-005,-2.972895e-004
3.786152e-005,-2.935620e-004
-3.490581e-005,-2.703867e-004
-2.447804e-004,-2.298704e-004
-5.279084e-004,-1.728234e-004
-8.016367e-004,-1.020008e-004
-9.755327e-004,-2.469570e-005
-9.867153e-004,4.774750e-005
-8.248120e-004,1.091703e-004
-5.296912e-004,1.569795e-004
-1.605064e-004,1.900409e-004
2.342847e-004,2.107852e-004
6.081695e-004,2.252090e-004
9.055596e-004,2.375260e-004
1.066167e-003,2.467637e-004
1.069084e-003,2.482223e-004
9.684410e-004,2.357433e-004
8.666639e-004,2.039785e-004
8.397610e-004,1.550348e-004
9.013459e-004,9.620503e-005
1.013657e-003,4.175108e-005
1.121755e-003,-2.238345e-007
1.185447e-003,-3.377135e-005
1.193388e-003,-6.845333e-005
1.152709e-003,-1.049180e-004
1.059198e-003,-1.370070e-004
8.874083e-004,-1.618029e-004
6.070351e-004,-1.822232e-004
2.091646e-004,-2.044261e-004
-2.783279e-004,-2.365150e-004
-7.953162e-004,-2.783279e-004
-1.263523e-003,-3.261371e-004
-1.624442e-003,-3.661673e-004
-1.887636e-003,-3.857772e-004
-2.098646e-003,-3.770256e-004
-2.294097e-003,-3.384541e-004
-2.502189e-003,-2.721694e-004
-2.732322e-003,-1.794681e-004
-2.950300e-003,-6.991192e-005
-3.098428e-003,4.385793e-005
-3.118525e-003,1.453108e-004
-2.965210e-003,2.263435e-004
-2.628924e-003,2.890628e-004
-2.144672e-003,3.402754e-004
-1.574040e-003,3.848434e-004
-9.653226e-004,4.284390e-004
-3.423437e-004,4.653899e-004
2.837146e-004,4.791655e-004
8.872462e-004,4.551798e-004
1.419956e-003,3.934329e-004
1.839058e-003,3.060797e-004
2.138231e-003,2.104611e-004
2.342434e-003,1.200286e-004
2.472411e-003,3.640293e-005
2.521031e-003,-3.766092e-005
2.458636e-003,-9.794922e-005
2.251677e-003,-1.379793e-004
1.861747e-003,-1.415448e-004
1.276366e-003,-9.405964e-005
5.499880e-004,1.225519e-005
-1.833576e-004,1.738343e-004
-7.661444e-004,3.696093e-004
-1.106319e-003,5.598741e-004
-1.212634e-003,6.930918e-004
-1.185407e-003,7.298806e-004
-1.155425e-003,6.634339e-004
-1.207772e-003,5.198439e-004
-1.347473e-003,3.433547e-004
-1.511483e-003,1.775618e-004
-1.619094e-003,5.017848e-005
-1.611477e-003,-2.420950e-005
-1.474046e-003,-5.127441e-005
-1.230137e-003,-4.754691e-005
-9.218892e-004,-3.911951e-005
-5.860899e-004,-5.095028e-005
-2.428356e-004,-9.195280e-005
9.863601e-005,-1.601823e-004
4.282769e-004,-2.449424e-004
7.284220e-004,-3.287302e-004
9.862683e-004,-3.937184e-004
1.192902e-003,-4.284004e-004
1.347836e-003,-4.190006e-004
1.453179e-003,-3.517435e-004
1.509254e-003,-2.256567e-004
1.514926e-003,-5.678463e-005
1.476355e-003,1.179218e-004
1.419632e-003,2.564876e-004
1.377332e-003,3.318480e-004
1.369553e-003,3.363859e-004
1.387218e-003,2.812837e-004
1.394836e-003,1.892305e-004
1.346054e-003,8.777764e-005
1.226936e-003,-2.330684e-006
1.072163e-003,-7.250496e-005
9.444553e-004,-1.225831e-004
9.089630e-004,-1.598582e-004
9.987473e-004,-1.948643e-004
1.187067e-003,-2.332737e-004
1.385760e-003,-2.724935e-004
1.476517e-003,-3.058790e-004
1.345406e-003,-3.240303e-004
9.407278e-004,-3.224097e-004
3.355755e-004,-3.008549e-004
-2.919414e-004,-2.671454e-004
-7.543136e-004,-2.308428e-004
-9.611089e-004,-2.019951e-004
-9.372853e-004,-1.890299e-004
-7.818647e-004,-2.010227e-004
-6.097514e-004,-2.397564e-004
-5.018159e-004,-2.922655e-004
-4.930644e-004,-3.335922e-004
-5.663179e-004,-3.403989e-004
-6.721465e-004,-2.942103e-004
-7.557722e-004,-1.836818e-004
-7.804061e-004,-1.772689e-005
-7.394036e-004,1.770756e-004
-6.463781e-004,3.652335e-004
-5.248292e-004,5.072028e-004
-4.061974e-004,5.747841e-004
-3.165753e-004,5.585775e-004
-2.762210e-004,4.731690e-004
-2.972895e-004,3.391410e-004
-3.784843e-004,1.783722e-004
-4.935506e-004,1.630683e-005
-5.984068e-004,-1.198280e-004
-6.567503e-004,-2.123673e-004
-6.538332e-004,-2.533698e-004
-5.971103e-004,-2.434839e-004
-4.977643e-004,-1.893540e-004
-3.747567e-004,-1.026491e-004
-2.454286e-004,4.244267e-007
-1.349001e-004,1.104668e-004
-7.201877e-005,2.248849e-004
-7.817725e-005,3.538889e-004
-1.596961e-004,5.172509e-004
-3.024756e-004,7.350668e-004
-4.666477e-004,9.951819e-004
-5.984068e-004,1.246383e-003
-6.601537e-004,1.421900e-003
-6.249855e-004,1.481054e-003
-4.813957e-004,1.422873e-003
-2.517492e-004,1.279445e-003
2.531276e-006,1.101983e-003
2.067336e-004,9.332728e-004
3.062417e-004,7.874139e-004
2.940868e-004,6.511168e-004
2.026820e-004,5.047718e-004
7.465034e-005,3.446512e-004
-5.694669e-005,1.890685e-004
-1.712027e-004,5.795762e-005
-2.515871e-004,-3.992984e-005
-2.877277e-004,-1.055663e-004
-2.838381e-004,-1.519170e-004
-2.332737e-004,-1.870851e-004
-1.297140e-004,-2.143121e-004
5.934647e-006,-2.379736e-004
1.153287e-004,-2.559629e-004
1.376937e-004,-2.643903e-004
4.612685e-005,-2.749245e-004
-1.305243e-004,-3.105789e-004
-3.154408e-004,-3.826979e-004
-4.395829e-004,-4.762096e-004
-4.779923e-004,-5.645352e-004
-4.493068e-004,-6.249855e-004
-3.788084e-004,-6.526987e-004
-2.783279e-004,-6.620985e-004
-1.470550e-004,-6.757120e-004
1.630683e-005,-7.040733e-004
2.015475e-004,-7.408622e-004
3.757677e-004,-7.729511e-004
4.913204e-004,-7.896438e-004
5.086614e-004,-7.831612e-004
4.230909e-004,-7.578791e-004
2.798251e-004,-7.261143e-004
1.446626e-004,-7.065043e-004
8.453633e-005,-7.160662e-004
1.360731e-004,-7.536653e-004
2.880904e-004,-7.995298e-004
4.903480e-004,-8.217327e-004
6.857989e-004,-7.932092e-004
8.332784e-004,-6.987252e-004
9.263040e-004,-5.501113e-004
9.878889e-004,-3.739464e-004
1.048501e-003,-1.895161e-004
1.118838e-003,-2.816880e-006
1.191119e-003,1.851789e-004
1.255459e-003,3.720402e-004
1.304079e-003,5.478812e-004
1.327254e-003,6.900126e-004
1.314451e-003,7.770417e-004
1.261456e-003,8.007033e-004
1.173292e-003,7.635903e-004
1.063087e-003,6.718612e-004
9.501277e-004,5.276230e-004
8.507815e-004,3.503235e-004
7.788244e-004,1.709171e-004
7.399287e-004,1.679302e-005
7.287462e-004,-9.827335e-005
7.175637e-004,-1.776853e-004
6.791542e-004,-2.301945e-004
6.050903e-004,-2.622834e-004
5.034753e-004,-2.742762e-004
3.816021e-004,-2.635799e-004
2.260194e-004,-2.316531e-004
1.533444e-005,-1.840059e-004
-2.559629e-004,-1.293899e-004
-5.851174e-004,-7.574627e-005
-9.586780e-004,-2.437157e-005
-1.342449e-003,2.165498e-005
-1.667876e-003,5.617490e-005
-1.861058e-003,7.011251e-005
-1.885530e-003,6.525056e-005
-1.773056e-003,4.726130e-005
-1.618608e-003,2.522042e-005
-1.539844e-003,1.436204e-005
-1.610991e-003,3.380988e-005
-1.813735e-003,9.393611e-005
-2.070284e-003,1.902029e-004
-2.301228e-003,3.117519e-004
-2.445790e-003,4.491834e-004
-2.462807e-003,5.789977e-004
-2.348389e-003,6.702406e-004
-2.147913e-003,6.976296e-004
-1.952625e-003,6.592201e-004
-1.872726e-003,5.687876e-004
-1.977583e-003,4.498316e-004
-2.233160e-003,3.282826e-004
-2.490844e-003,2.200230e-004
-2.562963e-003,1.279698e-004
-2.331048e-003,5.050261e-005
-1.786508e-003,-7.840905e-006
-1.026583e-003,-4.317114e-005
-2.041020e-004,-5.062615e-005
5.256782e-004,-3.587821e-005
1.062277e-003,-1.092015e-005
1.387867e-003,8.527692e-006
1.537129e-003,1.436204e-005
1.570677e-003,1.387585e-005
1.539398e-003,1.371378e-005
1.488996e-003,1.338965e-005
1.475544e-003,1.290346e-005
1.537940e-003,1.484824e-005
1.664189e-003,1.954813e-005
1.799190e-003,2.748933e-005
1.873902e-003,3.575467e-005
1.847809e-003,3.721326e-005
1.726260e-003,3.186510e-005
1.559818e-003,2.392390e-005
1.407477e-003,1.582063e-005
1.296624e-003,7.879431e-006
1.225801e-003,-1.520357e-006
1.171671e-003,-1.189254e-005
1.100524e-003,-1.594417e-005
9.886991e-004,-1.010982e-005
8.314957e-004,1.396819e-006
6.601926e-004,9.500084e-006
5.268127e-004,1.176900e-005
4.747897e-004,1.322759e-005
5.221128e-004,1.419998e-005
6.634339e-004,1.582063e-005
8.736327e-004,2.035846e-005
1.113652e-003,3.202716e-005
1.344109e-003,5.374392e-005
1.535184e-003,8.194328e-005
1.669375e-003,1.080358e-004
1.741980e-003,1.222975e-004
1.754297e-003,1.237561e-004
1.704543e-003,1.195424e-004
1.600335e-003,1.172735e-004
1.461282e-003,1.208390e-004
1.319961e-003,1.252147e-004
1.208298e-003,1.231079e-004
1.154330e-003,1.159770e-004
1.154492e-003,1.085220e-004
1.145741e-003,1.051186e-004
1.040074e-003,1.116012e-004
7.984343e-004,1.239182e-004
4.645796e-004,1.321835e-004
1.195424e-004,1.312111e-004
-1.815749e-004,1.201907e-004
-4.306693e-004,9.912220e-005
-6.458919e-004,7.254349e-005
-8.366428e-004,4.515445e-005
-9.904427e-004,1.679302e-005
-1.070665e-003,-1.302699e-005
-1.045059e-003,-4.187462e-005
-9.142721e-004,-6.715681e-005
-7.227109e-004,-8.935975e-005
-5.424943e-004,-1.049180e-004
-4.290486e-004,-1.101041e-004
-3.878840e-004,-1.084835e-004
-3.705430e-004,-1.063766e-004
-3.107410e-004,-1.133454e-004
-1.715269e-004,-1.389517e-004
1.760335e-005,-1.815749e-004
1.749688e-004,-2.370012e-004
2.102990e-004,-2.937241e-004
6.881599e-005,-3.416954e-004
-2.371633e-004,-3.703810e-004
-6.460540e-004,-3.681121e-004
-1.067100e-003,-3.284061e-004
-1.428505e-003,-2.480217e-004
-1.692348e-003,-1.264727e-004
-1.838693e-003,3.121684e-005
-1.859113e-003,2.119197e-004
-1.768680e-003,3.974845e-004
-1.617635e-003,5.577672e-004
-1.457677e-003,6.608408e-004
-1.309225e-003,6.887161e-004
-1.150725e-003,6.503065e-004
-9.533298e-004,5.695979e-004
-7.105560e-004,4.697657e-004
-4.394208e-004,3.642611e-004
-1.804405e-004,2.657254e-004
2.100672e-005,1.850168e-004
1.488763e-004,1.269974e-004
2.331502e-004,8.923622e-005
3.230965e-004,7.076077e-005
4.584211e-004,6.719534e-005
6.446342e-004,7.189524e-005
8.438127e-004,7.853991e-005
9.987473e-004,8.664317e-005
1.084318e-003,9.344992e-005
1.107169e-003,9.361198e-005
1.075728e-003,8.372600e-005
1.002799e-003,6.622294e-005
8.968081e-004,4.564065e-005
7.588904e-004,2.748933e-005
5.770529e-004,2.116879e-005
3.427064e-004,3.024445e-005
5.406805e-005,4.936815e-005
-2.736280e-004,6.946425e-005
-6.259579e-004,8.275361e-005
-9.914151e-004,8.939829e-005
-1.339369e-003,9.296372e-005
-1.603860e-003,9.328785e-005
-1.693320e-003,8.453633e-005
-1.554268e-003,6.103685e-005
-1.246830e-003,2.408596e-005
-9.465230e-004,-2.145439e-005
-8.614387e-004,-7.056018e-005
-1.093516e-003,-1.151281e-004
-1.552647e-003,-1.509446e-004
-2.023933e-003,-1.767129e-004
-2.299769e-003,-1.922712e-004
-2.251797e-003,-1.985918e-004
-1.856358e-003,-1.927574e-004
-1.198535e-003,-1.754164e-004
-4.266176e-004,-1.506204e-004
2.874421e-004,-1.224211e-004
8.148029e-004,-9.859748e-005
1.125645e-003,-8.984595e-005
1.271342e-003,-9.892161e-005
1.333251e-003,-1.253383e-004
1.367446e-003,-1.577513e-004
1.388029e-003,-1.838438e-004
1.377657e-003,-1.987538e-004
1.322392e-003,-2.091260e-004
1.228070e-003,-2.241981e-004
1.110735e-003,-2.472113e-004
9.849716e-004,-2.747625e-004
8.630984e-004,-2.993964e-004
7.457631e-004,-3.190063e-004
6.212968e-004,-3.340783e-004
4.731690e-004,-3.467194e-004
3.164518e-004,-3.608191e-004
1.976579e-004,-3.698948e-004
1.586002e-004,-3.629260e-004
2.104611e-004,-3.285681e-004
3.295791e-004,-2.574215e-004
4.751138e-004,-1.519170e-004
6.081695e-004,-2.631635e-005
7.024916e-004,1.025256e-004
7.491664e-004,2.216436e-004
7.559732e-004,3.175863e-004
7.279359e-004,3.853296e-004
6.606787e-004,4.286011e-004
5.449640e-004,4.533971e-004
3.880847e-004,4.598797e-004
2.263435e-004,4.488592e-004
1.091703e-004,4.281149e-004
6.849186e-005,4.062360e-004
1.073875e-004,3.914881e-004
1.979821e-004,3.850055e-004
2.983005e-004,3.793332e-004
3.756057e-004,3.653956e-004
4.219564e-004,3.446512e-004
4.542074e-004,3.203414e-004
5.072028e-004,3.002453e-004
5.979594e-004,2.864697e-004
7.193464e-004,2.735045e-004
8.511056e-004,2.547049e-004
9.726548e-004,2.269918e-004
1.051743e-003,1.817755e-004
1.045260e-003,1.187321e-004
9.334349e-004,4.936815e-005
7.235601e-004,-1.075808e-005
4.470765e-004,-5.208473e-005
1.389903e-004,-7.007398e-005
-1.600202e-004,-7.137050e-005
-3.998769e-004,-6.569822e-005
-5.340669e-004,-6.974985e-005
-5.394151e-004,-9.568031e-005
-4.326140e-004,-1.449481e-004
-2.611490e-004,-2.149604e-004
-8.530812e-005,-2.969654e-004
4.369587e-005,-3.737843e-004
1.007429e-004,-4.222419e-004
8.469840e-005,-4.228901e-004
7.393235e-006,-3.768636e-004
-1.169109e-004,-3.032860e-004
-2.737901e-004,-2.370012e-004
-4.455793e-004,-2.104225e-004
-6.120203e-004,-2.441321e-004
-7.465344e-004,-3.344025e-004
-8.322670e-004,-4.596789e-004
-8.726213e-004,-5.809038e-004
-8.744040e-004,-6.536711e-004
-8.393979e-004,-6.366542e-004
-7.666306e-004,-4.956574e-004
-6.643674e-004,-2.193361e-004
-5.577284e-004,1.684862e-004
-4.766958e-004,5.987698e-004
-4.426621e-004,9.809200e-004
-4.588686e-004,1.234066e-003
-5.045710e-004,1.316234e-003
-5.538389e-004,1.241197e-003
-5.896553e-004,1.069246e-003
-6.027826e-004,8.661777e-004
-5.744212e-004,6.710509e-004
-4.813957e-004,4.984512e-004
-2.953447e-004,3.574544e-004
-5.896120e-006,2.754493e-004
3.572923e-004,2.765838e-004
7.378219e-004,3.556717e-004
1.072325e-003,4.627969e-004
1.316558e-003,5.366987e-004
1.447021e-003,5.363746e-004
1.458527e-003,4.579349e-004
1.362098e-003,3.183966e-004
1.180261e-003,1.511452e-004
9.444553e-004,-7.516774e-006
6.846644e-004,-1.331174e-004
4.281149e-004,-2.194982e-004
1.902029e-004,-2.699005e-004
-9.137427e-006,-2.998826e-004
-1.498101e-004,-3.292164e-004
-2.233878e-004,-3.721637e-004
-2.395943e-004,-4.327761e-004
-2.366771e-004,-4.958195e-004
-2.950206e-004,-5.437908e-004
-5.366600e-004,-5.713420e-004
-1.050083e-003,-5.920862e-004
-1.789749e-003,-6.309819e-004
-2.569608e-003,-7.142835e-004
-3.185134e-003,-8.465288e-004
-3.537789e-003,-1.016697e-003
-3.669873e-003,-1.203721e-003
-3.680731e-003,-1.361086e-003
-3.617039e-003,-1.432233e-003
-3.452705e-003,-1.368217e-003
-3.149641e-003,-1.141001e-003
-2.723084e-003,-7.445897e-004
-2.240939e-003,-1.924333e-004
-1.776946e-003,4.598797e-004
-1.357845e-003,1.125158e-003
-9.596503e-004,1.729501e-003
-5.523803e-004,2.218940e-003
-1.339277e-004,2.553283e-003
2.798251e-004,2.690715e-003
6.666752e-004,2.599634e-003
1.005068e-003,2.288953e-003
1.275879e-003,1.819610e-003
1.467927e-003,1.289817e-003
1.574729e-003,7.947068e-004
1.605845e-003,4.051016e-004
1.578132e-003,1.492004e-004
1.522219e-003,1.857574e-005
1.472789e-003,-2.307504e-005
1.457879e-003,-2.291298e-005
1.485430e-003,-1.659243e-005
1.530647e-003,-2.356124e-005
1.549446e-003,-5.791909e-005
1.513468e-003,-1.272830e-004
1.428221e-003,-2.288980e-004
1.345568e-003,-3.459091e-004
1.331144e-003,-4.609755e-004
1.412987e-003,-5.577284e-004
1.538588e-003,-6.244993e-004
1.614759e-003,-6.582089e-004
1.593690e-003,-6.680949e-004
1.504878e-003,-6.617744e-004
1.428707e-003,-6.468644e-004
1.447021e-003,-6.311440e-004
1.608276e-003,-6.214201e-004
1.901939e-003,-6.170443e-004
2.249895e-003,-6.152616e-004
2.545990e-003,-6.129927e-004
2.694442e-003,-6.138030e-004
2.653764e-003,-6.217442e-004
2.445508e-003,-6.439472e-004
2.123321e-003,-6.839773e-004
1.747329e-003,-7.363243e-004
1.347026e-003,-7.787854e-004
9.220903e-004,-7.854301e-004
4.713863e-004,-7.416725e-004
1.598270e-005,-6.475126e-004
-4.027940e-004,-5.193189e-004
-7.557722e-004,-3.768636e-004
-1.045383e-003,-2.384598e-004
-1.304039e-003,-1.143178e-004
-1.575823e-003,-7.516774e-006
-1.889419e-003,6.962632e-005
-2.247422e-003,1.077117e-004
-2.633300e-003,1.065772e-004
-3.012047e-003,7.659513e-005
-3.350765e-003,3.526847e-005
-3.618012e-003,-7.840905e-006
-3.765168e-003,-5.208473e-005
-3.747178e-003,-8.628051e-005
-3.548648e-003,-8.952182e-005
-3.182541e-003,-4.770897e-005
-2.674789e-003,3.786152e-005
-2.050350e-003,1.428798e-004
-1.337911e-003,2.297469e-004
-5.834968e-004,2.723700e-004
1.438522e-004,2.744769e-004
7.541904e-004,2.666978e-004
1.189336e-003,2.887386e-004
1.446696e-003,3.644232e-004
1.578780e-003,4.723587e-004
1.671158e-003,5.584154e-004
1.814262e-003,5.828873e-004
2.049257e-003,5.360504e-004
2.315531e-003,4.352457e-004
2.482297e-003,3.130485e-004
2.441457e-003,2.060853e-004
2.170644e-003,1.341283e-004
1.755108e-003,9.474644e-005
1.344919e-003,7.546067e-005
1.084642e-003,6.217131e-005
1.058873e-003,4.450619e-005
1.241197e-003,1.695509e-005
1.508281e-003,-2.048200e-005
1.713781e-003,-5.678463e-005
1.770666e-003,-7.947377e-005
1.673589e-003,-8.174268e-005
1.482027e-003,-6.423963e-005
1.271504e-003,-3.604027e-005
1.100200e-003,-6.868512e-006
9.945336e-004,1.565857e-005
9.483449e-004,2.100672e-005
9.293832e-004,3.989864e-006
9.045872e-004,-3.020592e-005
8.556435e-004,-6.764300e-005
7.799589e-004,-9.065627e-005
6.836920e-004,-8.417366e-005
5.742979e-004,-3.895744e-005
4.605280e-004,3.915804e-005
3.530786e-004,1.292664e-004
2.545429e-004,2.052750e-004
1.670276e-004,2.535705e-004
1.007429e-004,2.720459e-004
6.022653e-005,2.637806e-004
2.862379e-005,2.325020e-004
-3.215070e-005,1.848548e-004
-1.611547e-004,1.305629e-004
-3.536882e-004,8.275361e-005
-5.514079e-004,5.260946e-005
-6.847876e-004,4.077869e-005
-7.150938e-004,4.142695e-005
-6.505919e-004,5.228533e-005
-5.436288e-004,7.481241e-005
-4.716718e-004,1.099806e-004
-4.904713e-004,1.503348e-004
-6.069963e-004,1.866375e-004
-7.846198e-004,2.111093e-004
-9.756948e-004,2.184023e-004
-1.156073e-003,2.064095e-004
-1.317490e-003,1.765894e-004
-1.459460e-003,1.373696e-004
-1.580036e-003,9.766362e-005
-1.689592e-003,6.897806e-005
-1.788290e-003,5.552663e-005
-1.862516e-003,5.666109e-005
-1.890716e-003,6.654707e-005
-1.847444e-003,7.643306e-005
-1.708878e-003,7.902610e-005
-1.469346e-003,7.140904e-005
-1.157370e-003,5.828174e-005
-8.189777e-004,4.936815e-005
-5.021400e-004,5.098881e-005
-2.446183e-004,6.152305e-005
-8.530812e-005,7.432621e-005
-4.884343e-005,8.226741e-005
-1.230693e-004,8.453633e-005
-2.629317e-004,8.405013e-005
-4.097628e-004,8.097089e-005
-5.115398e-004,7.740545e-005
-5.358497e-004,7.140904e-005
-4.783164e-004,6.816773e-005
-3.603329e-004,6.816773e-005
-2.220912e-004,6.995045e-005
-1.000561e-004,7.513654e-005
-1.399939e-005,8.502253e-005
3.980630e-005,9.733949e-005
8.161915e-005,1.072255e-004
1.248906e-004,1.085220e-004
1.715654e-004,9.977046e-005
1.987924e-004,8.518459e-005
1.616794e-004,7.319175e-005
4.207521e-005,6.606088e-005
-1.279313e-004,6.038860e-005
-2.888622e-004,5.358185e-005
-3.877220e-004,4.790957e-005
-4.079801e-004,4.077869e-005
-3.715154e-004,3.218923e-005
-3.144684e-004,2.894792e-005
-2.488320e-004,3.737532e-005
-1.579134e-004,5.941620e-005
-2.453363e-005,8.615698e-005
1.388282e-004,1.072255e-004
2.905214e-004,1.184080e-004
3.867882e-004,1.240803e-004
4.023465e-004,1.315353e-004
3.350894e-004,1.451487e-004
2.143507e-004,1.581140e-004
9.344992e-005,1.595726e-004
2.473422e-005,1.419075e-004
4.304760e-005,1.081979e-004
1.521176e-004,7.367795e-005
3.310377e-004,4.888196e-005
5.443157e-004,4.256141e-005
7.467354e-004,5.179913e-005
9.036148e-004,6.606088e-005
1.009768e-003,7.659513e-005
1.086749e-003,7.497447e-005
1.170699e-003,5.698522e-005
1.282038e-003,3.073064e-005
1.402615e-003,6.258778e-006
1.493533e-003,-1.092015e-005
1.518006e-003,-1.691656e-005
1.458689e-003,-8.165034e-006
1.334223e-003,8.365628e-006
1.196305e-003,2.197911e-005
1.093231e-003,2.797553e-005
1.039588e-003,2.651694e-005
1.000692e-003,1.938607e-005
9.194972e-004,8.203561e-006
7.509491e-004,-5.896120e-006
4.840274e-004,-1.788895e-005
1.470936e-004,-2.372330e-005
-2.177155e-004,-2.680255e-005
-5.818761e-004,-3.182657e-005
-9.648364e-004,-4.252288e-005
-1.426236e-003,-5.808115e-005
-2.016641e-003,-7.282909e-005
-2.707040e-003,-8.222889e-005
-3.388688e-003,-8.368747e-005
-3.949113e-003,-7.801519e-005
-4.334993e-003,-7.282909e-005
-4.533038e-003,-6.974985e-005
-4.522180e-003,-6.472583e-005
-4.276973e-003,-5.662256e-005
-3.795474e-003,-4.560212e-005
-3.110421e-003,-3.587821e-005
-2.269625e-003,-2.809907e-005
-1.338883e-003,-2.096819e-005
-3.943666e-004,-1.432352e-005
4.832171e-004,-8.002969e-006
1.223046e-003,-5.479652e-007
1.791734e-003,8.689757e-006
2.175668e-003,2.133085e-005
2.381330e-003,3.235129e-005
2.420226e-003,3.672705e-005
2.322986e-003,3.332369e-005
2.143255e-003,2.262737e-005
1.938242e-003,7.717366e-006
1.746032e-003,-9.137427e-006
1.578942e-003,-2.874733e-005
1.437945e-003,-5.095028e-005
1.321906e-003,-7.056018e-005
1.233256e-003,-8.028410e-005
1.171671e-003,-7.671866e-005
1.118838e-003,-6.456376e-005
1.044288e-003,-4.868136e-005
9.201455e-004,-3.490581e-005
7.243704e-004,-2.550602e-005
4.386491e-004,-2.194059e-005
7.416414e-005,-2.745081e-005
-3.254889e-004,-4.706071e-005
-6.961322e-004,-8.077029e-005
-9.703466e-004,-1.263107e-004
-1.096109e-003,-1.734716e-004
-1.028852e-003,-2.079916e-004
-7.309762e-004,-2.162569e-004
-1.998883e-004,-1.945401e-004
4.900239e-004,-1.517549e-004
1.181557e-003,-1.023250e-004
1.717670e-003,-6.521203e-005
2.003554e-003,-5.321919e-005
2.037102e-003,-5.953974e-005
1.890919e-003,-6.634648e-005
1.669861e-003,-6.472583e-005
1.456907e-003,-5.856734e-005
1.281066e-003,-5.840528e-005
1.139258e-003,-7.769105e-005
1.025164e-003,-1.232314e-004
9.379727e-004,-1.938919e-004
8.724983e-004,-2.773555e-004
7.997308e-004,-3.532020e-004
6.859609e-004,-4.040906e-004
5.399400e-004,-4.147868e-004
4.213081e-004,-3.784843e-004
4.067222e-004,-2.914552e-004
5.221128e-004,-1.592099e-004
7.078398e-004,6.420843e-006
8.431644e-004,1.927960e-004
7.971378e-004,3.875985e-004
5.031511e-004,5.828873e-004
4.800190e-006,7.741245e-004
-5.520561e-004,9.647135e-004
-9.805567e-004,1.146227e-003
-1.135005e-003,1.297110e-003
-9.763431e-004,1.392080e-003
-5.813900e-004,1.406504e-003
-8.384953e-005,1.326120e-003
3.871123e-004,1.154979e-003
7.640765e-004,9.164180e-004
1.040236e-003,6.464170e-004
1.236011e-003,3.793332e-004
1.378629e-003,1.436902e-004
1.501637e-003,-4.057810e-005
1.645875e-003,-1.655304e-004
1.835816e-003,-2.407287e-004
2.060116e-003,-2.901587e-004
2.264319e-003,-3.489884e-004
2.377117e-003,-4.504412e-004
2.368041e-003,-6.102376e-004
2.262050e-003,-8.136295e-004
2.100632e-003,-1.017346e-003
1.887840e-003,-1.174387e-003
1.592556e-003,-1.243913e-003
1.170375e-003,-1.199993e-003
6.000663e-004,-1.047004e-003
-8.384953e-005,-8.205983e-004
-7.983954e-004,-5.668041e-004
-1.476639e-003,-3.297026e-004
-2.141431e-003,-1.306864e-004
-2.892281e-003,1.695509e-005
-3.775216e-003,1.044704e-004
-4.715687e-003,1.263492e-004
-4.968349e-003,8.972242e-005
-4.968187e-003,2.149292e-005
-4.968349e-003,-4.300908e-005
-4.968187e-003,-7.509801e-005
-4.968349e-003,-6.261898e-005
-4.968187e-003,-5.409925e-006
-4.693322e-003,8.696730e-005
-3.612826e-003,2.046267e-004
-2.580466e-003,3.393030e-004
-1.702558e-003,4.790034e-004
-1.010215e-003,6.091419e-004
-4.809095e-004,7.117293e-004
-8.287714e-005,7.731521e-004
2.065715e-004,7.909793e-004
4.049395e-004,7.815795e-004
5.394538e-004,7.671557e-004
6.501445e-004,7.634282e-004
7.713694e-004,7.734763e-004
9.175524e-004,7.943827e-004
1.087073e-003,8.151271e-004
1.257890e-003,8.276061e-004
1.394349e-003,8.306854e-004
1.468575e-003,8.219338e-004
1.467117e-003,7.870898e-004
1.400022e-003,7.070294e-004
1.290627e-003,5.704083e-004
1.164054e-003,3.872744e-004
1.045908e-003,1.856651e-004
9.613102e-004,1.234753e-006
9.188490e-004,-1.352242e-004
9.094492e-004,-2.057227e-004
9.131767e-004,-2.136638e-004
9.131767e-004,-1.891920e-004
9.113940e-004,-1.776853e-004
9.152836e-004,-2.126914e-004
9.287350e-004,-2.992343e-004
9.525587e-004,-4.191626e-004
9.828649e-004,-5.449253e-004
1.019816e-003,-6.496194e-004
1.066329e-003,-7.079630e-004
1.132127e-003,-7.053699e-004
1.217212e-003,-6.423265e-004
1.299055e-003,-5.262878e-004
1.350916e-003,-3.776739e-004
1.353833e-003,-2.266291e-004
1.306672e-003,-1.110765e-004
1.218670e-003,-6.083626e-005
1.100524e-003,-8.336334e-005
9.590412e-004,-1.614788e-004
8.073479e-004,-2.669833e-004
6.639201e-004,-3.687603e-004
5.501501e-004,-4.331002e-004
4.820826e-004,-4.428242e-004
4.585831e-004,-4.026320e-004
4.678209e-004,-3.334301e-004
4.880791e-004,-2.598524e-004
4.989374e-004,-2.034537e-004
4.846757e-004,-1.806025e-004
4.388112e-004,-1.934057e-004
3.611819e-004,-2.297083e-004
2.529222e-004,-2.655248e-004
1.227837e-004,-2.784900e-004
-1.837515e-005,-2.551526e-004
-1.580754e-004,-1.959987e-004
-2.857829e-004,-1.161005e-004
-3.890185e-004,-3.458168e-005
-4.585445e-004,3.202716e-005
-4.917678e-004,7.837785e-005
-4.959816e-004,1.036600e-004
-4.791268e-004,1.106288e-004
-4.473620e-004,1.031738e-004
-4.032802e-004,8.875003e-005
-3.434781e-004,7.351588e-005
-2.614731e-004,6.249544e-005
-1.572651e-004,5.260946e-005
-3.555407e-005,4.207521e-005
9.263960e-005,3.056858e-005
2.075439e-004,2.424803e-005
2.923041e-004,2.894792e-005
3.391410e-004,4.628891e-005
3.525924e-004,7.092283e-005
3.451374e-004,8.858796e-005
3.308756e-004,8.956035e-005
3.209897e-004,7.935023e-005
3.230965e-004,7.238143e-005
3.402754e-004,7.432621e-005
3.629646e-004,8.259154e-005
3.807918e-004,8.988448e-005
3.903536e-004,9.004655e-005
3.814400e-004,7.853991e-005
3.342790e-004,5.374392e-005
2.205091e-004,1.322759e-005
2.035846e-005,-3.895744e-005
-2.530457e-004,-9.470791e-005
-5.481666e-004,-1.418689e-004
-7.919127e-004,-1.726613e-004
-9.249683e-004,-1.888679e-004
-9.235098e-004,-1.981056e-004
-8.366428e-004,-2.081536e-004
-7.868887e-004,-2.170672e-004
-8.966069e-004,-2.110708e-004
-1.169363e-003,-1.759026e-004
-1.500138e-003,-1.101041e-004
-1.763494e-003,-2.194059e-005
-1.907408e-003,7.691926e-005
-1.974990e-003,1.658931e-004
-2.035602e-003,2.273159e-004
-2.126197e-003,2.519498e-004
-2.234619e-003,2.393087e-004
-2.324565e-003,1.949028e-004
-2.376102e-003,1.315353e-004
-2.374319e-003,6.606088e-005
-2.287290e-003,1.825161e-005
-2.070284e-003,8.365628e-006
-1.692348e-003,4.223728e-005
-1.167094e-003,1.125736e-004
-5.596732e-004,2.054371e-004
4.418206e-005,3.046211e-004
5.563085e-004,3.950535e-004
9.232247e-004,4.650658e-004
1.135369e-003,5.050959e-004
1.219805e-003,5.068786e-004
1.228394e-003,4.674967e-004
1.208298e-003,3.968363e-004
1.201167e-003,3.109416e-004
1.226612e-003,2.279641e-004
1.286900e-003,1.621656e-004
1.364043e-003,1.174356e-004
1.431624e-003,9.020861e-005
1.459338e-003,7.400208e-005
1.418335e-003,6.136099e-005
1.302134e-003,4.823369e-005
1.145579e-003,3.672705e-005
1.014630e-003,3.348575e-005
9.639032e-004,4.272347e-005
9.833510e-004,5.925414e-005
9.990714e-004,7.756751e-005
9.279246e-004,9.328785e-005
7.313393e-004,1.065772e-004
4.274666e-004,1.190562e-004
6.589881e-005,1.329939e-004
-2.966413e-004,1.462832e-004
-6.058618e-004,1.535762e-004
-8.223810e-004,1.500107e-004
-9.272373e-004,1.310491e-004
-9.282097e-004,9.944633e-005
-8.543079e-004,6.249544e-005
-7.329210e-004,2.554455e-005
-5.849554e-004,-1.682422e-006
-4.376381e-004,-9.623623e-006
-3.232200e-004,-1.196226e-006
-2.605007e-004,1.403791e-005
-2.494803e-004,2.262737e-005
-2.757348e-004,8.365628e-006
-2.977757e-004,-3.604027e-005
-2.337599e-004,-1.065387e-004
-3.465141e-006,-1.943781e-004
3.846813e-004,-2.865932e-004
8.342508e-004,-3.653569e-004
1.209432e-003,-4.120317e-004
1.405370e-003,-4.099249e-004
1.376846e-003,-3.564433e-004
1.141851e-003,-2.660109e-004
7.611593e-004,-1.660166e-004
3.250413e-004,-8.303921e-005
-9.357345e-005,-4.025397e-005
-4.587065e-004,-5.143647e-005
-7.445897e-004,-1.157764e-004
-9.011448e-004,-2.193361e-004
-8.556044e-004,-3.410472e-004
-5.637249e-004,-4.504412e-004
-7.347736e-005,-5.206154e-004
4.838654e-004,-5.366600e-004
9.541793e-004,-4.992229e-004
1.192091e-003,-4.092766e-004
1.112355e-003,-2.663351e-004
7.545147e-004,-7.299116e-005
2.812837e-004,1.647587e-004
-1.154523e-004,4.355699e-004
-3.117133e-004,7.198326e-004
-2.903207e-004,9.833510e-004
-1.208004e-004,1.189661e-003
9.474644e-005,1.305375e-003
2.743148e-004,1.312020e-003
3.812780e-004,1.213646e-003
4.183909e-004,1.041046e-003
4.085050e-004,8.313336e-004
3.888950e-004,6.185417e-004
3.843572e-004,4.266563e-004
3.997534e-004,2.713976e-004
4.349216e-004,1.542244e-004
5.046097e-004,7.027457e-005
6.170831e-004,1.241726e-005
7.595387e-004,-2.664048e-005
8.872462e-004,-5.338126e-005
9.493173e-004,-7.072224e-005
9.256557e-004,-7.671866e-005
8.164236e-004,-7.477388e-005
6.428515e-004,-6.877746e-005
4.491834e-004,-5.791909e-005
2.927903e-004,-4.560212e-005
2.114335e-004,-3.522994e-005
1.953890e-004,-2.858526e-005
1.887443e-004,-2.080613e-005
1.504969e-004,-1.140634e-005
9.085687e-005,-2.168618e-006
5.115087e-005,3.989864e-006
4.564065e-005,7.393235e-006
4.677511e-005,9.013888e-006
2.554455e-005,7.717366e-006
-1.092015e-005,9.106226e-007
-2.777494e-005,-9.947754e-006
1.225519e-005,-2.177852e-005
1.295905e-004,-3.134038e-005
3.177483e-004,-3.685059e-005
5.360504e-004,-3.652646e-005
7.329599e-004,-3.393342e-005
8.741189e-004,-3.506787e-005
9.567723e-004,-4.106429e-005
1.014306e-003,-5.127441e-005
1.085452e-003,-6.504996e-005
1.186095e-003,-8.077029e-005
1.303106e-003,-9.649063e-005
1.422549e-003,-1.104282e-004
1.548798e-003,-1.227452e-004
1.686392e-003,-1.352242e-004
1.809238e-003,-1.562927e-004
1.847647e-003,-1.869231e-004
1.697574e-003,-2.196603e-004
1.276041e-003,-2.442942e-004
5.741358e-004,-2.583938e-004
-3.162512e-004,-2.606628e-004
-1.217982e-003,-2.498044e-004
-1.967535e-003,-2.303566e-004
-2.467993e-003,-2.068571e-004
-2.719681e-003,-1.854645e-004
-2.777862e-003,-1.673132e-004
-2.712388e-003,-1.483515e-004
-2.592783e-003,-1.269589e-004
-2.470748e-003,-1.070249e-004
-2.375940e-003,-9.130454e-005
-2.305603e-003,-7.461181e-005
-2.231377e-003,-4.868136e-005
-2.116635e-003,-1.675450e-005
-1.933825e-003,1.274139e-005
-1.695913e-003,3.024445e-005
-1.460594e-003,2.910999e-005
-1.282971e-003,1.095867e-005
-1.172118e-003,-1.967167e-005
-1.103888e-003,-5.581224e-005
-1.046841e-003,-9.065627e-005
-9.800706e-004,-1.272830e-004
-8.953104e-004,-1.684476e-004
-7.862404e-004,-2.135018e-004
-6.455678e-004,-2.627696e-004
-4.694028e-004,-3.141443e-004
-2.570973e-004,-3.613053e-004
-1.448558e-005,-3.980942e-004
2.331502e-004,-4.225660e-004
4.558280e-004,-4.382863e-004
6.337758e-004,-4.457413e-004
7.580800e-004,-4.501171e-004
8.297130e-004,-4.517377e-004
8.564538e-004,-4.356933e-004
8.509436e-004,-3.882081e-004
8.199890e-004,-3.037722e-004
7.626179e-004,-1.797922e-004
6.674855e-004,-2.177852e-005
5.274609e-004,1.589243e-004
3.443271e-004,3.506476e-004
1.347766e-004,5.493397e-004
-6.456376e-005,7.480319e-004
-2.105846e-004,9.355418e-004
-2.737901e-004,1.093880e-003
-2.585559e-004,1.201815e-003
-1.985918e-004,1.233742e-003
-1.363587e-004,1.168430e-003
-1.044318e-004,1.002961e-003
-1.023250e-004,7.635903e-004
-8.984595e-005,4.916445e-004
-3.198863e-005,2.243987e-004
8.097089e-005,-9.461557e-006
2.342847e-004,-1.841679e-004
4.028327e-004,-2.851347e-004
5.563085e-004,-3.151167e-004
6.741302e-004,-3.019894e-004
7.483561e-004,-2.880518e-004
7.830382e-004,-3.066893e-004
7.890345e-004,-3.718396e-004
7.738004e-004,-4.666477e-004
7.326358e-004,-5.543251e-004
6.603546e-004,-5.995412e-004
5.775391e-004,-5.747453e-004
5.308643e-004,-4.659995e-004
5.563085e-004,-2.833519e-004
6.384758e-004,-5.095028e-005
7.148086e-004,1.950649e-004
7.358771e-004,4.175806e-004
6.984400e-004,5.989318e-004
6.339379e-004,7.396046e-004
5.684635e-004,8.509436e-004
5.068786e-004,9.420243e-004
4.383250e-004,1.008309e-003
3.628025e-004,1.036346e-003
2.846870e-004,1.014468e-003
2.060853e-004,9.465622e-004
1.396385e-004,8.468920e-004
1.039842e-004,7.271255e-004
1.180839e-004,6.010386e-004
1.906891e-004,4.884032e-004
2.937627e-004,4.007258e-004
3.710678e-004,3.425443e-004
3.626405e-004,3.085106e-004
2.303951e-004,2.806354e-004
-7.030578e-006,2.401191e-004
-2.757348e-004,1.671896e-004
-4.891748e-004,5.358185e-005
-5.954896e-004,-9.519411e-005
-5.885208e-004,-2.570973e-004
-5.008435e-004,-4.057112e-004
-3.796187e-004,-5.319600e-004
-2.695764e-004,-6.431369e-004
-1.930815e-004,-7.505861e-004
-1.402483e-004,-8.530114e-004
-8.449779e-005,-9.369612e-004
-1.464765e-005,-9.901186e-004
5.666109e-005,-1.008108e-003
1.044704e-004,-9.880118e-004
1.007429e-004,-9.304786e-004
3.040651e-005,-8.308084e-004
-8.903562e-005,-6.830049e-004
-2.164190e-004,-4.835025e-004
-3.053928e-004,-2.274394e-004
-3.186821e-004,9.328785e-005
-2.499665e-004,4.498316e-004
-1.261486e-004,7.645627e-004
1.517237e-005,9.522345e-004
1.373696e-004,9.711962e-004
2.196988e-004,8.243648e-004
2.744769e-004,5.533914e-004
3.354135e-004,2.226160e-004
4.503178e-004,-1.036215e-004
6.499824e-004,-3.731361e-004
9.276005e-004,-5.548113e-004
1.231635e-003,-6.306578e-004
1.483810e-003,-5.938690e-004
1.616379e-003,-4.439586e-004
1.624158e-003,-1.938919e-004
1.561115e-003,1.325077e-004
1.486403e-003,5.044476e-004
1.437945e-003,8.812498e-004
1.433407e-003,1.203436e-003
1.478786e-003,1.404235e-003
1.540046e-003,1.444914e-003
1.534050e-003,1.329037e-003
1.358047e-003,1.095500e-003
9.344073e-004,8.028101e-004
2.316917e-004,5.117406e-004
-6.938633e-004,2.658874e-004
-1.691537e-003,8.583285e-005
-2.601859e-003,-3.069211e-005
-3.297607e-003,-1.000561e-004
-3.705528e-003,-1.417068e-004
-3.826753e-003,-1.749302e-004
-3.727244e-003,-2.130156e-004
-3.516558e-003,-2.598524e-004
-3.314138e-003,-3.136581e-004
-3.178165e-003,-3.747567e-004
-3.078980e-003,-4.475240e-004
-2.943331e-003,-5.381185e-004
-2.722436e-003,-6.445954e-004
-2.413215e-003,-7.562584e-004
-2.039168e-003,-8.643559e-004
-1.634976e-003,-9.645123e-004
-1.239861e-003,-1.056565e-003
-9.068170e-004,-1.132088e-003
-7.032630e-004,-1.175197e-003
-6.996976e-004,-1.173901e-003
-9.257787e-004,-1.130629e-003
-1.295288e-003,-1.061265e-003
-1.632870e-003,-9.862290e-004
-1.766412e-003,-9.265890e-004
-1.608722e-003,-8.816969e-004
-1.193510e-003,-8.233534e-004
-6.415162e-004,-7.068285e-004
-1.062145e-004,-4.993849e-004
2.861456e-004,-2.008607e-004
4.892135e-004,1.577899e-004
5.593878e-004,5.345918e-004
6.091419e-004,8.914599e-004
7.321496e-004,1.187391e-003
9.611481e-004,1.374415e-003
1.279121e-003,1.424007e-003
1.637448e-003,1.339409e-003
1.978921e-003,1.153034e-003
2.249733e-003,9.122043e-004
2.402885e-003,6.658648e-004
2.414878e-003,4.490213e-004
2.299649e-003,2.760976e-004
2.087181e-003,1.524417e-004
1.802917e-003,6.914012e-005
1.479596e-003,1.517237e-005
1.170699e-003,-1.675450e-005
9.483449e-004,-3.393342e-005
8.726603e-004,-3.992984e-005
9.520724e-004,-4.333321e-005
1.140879e-003,-5.321919e-005
1.370039e-003,-6.942573e-005
1.576511e-003,-8.676671e-005
1.729987e-003,-1.016767e-004
1.825444e-003,-1.193418e-004
1.870174e-003,-1.428413e-004
1.865961e-003,-1.697441e-004
1.811831e-003,-1.930815e-004
1.713457e-003,-2.023193e-004
1.585425e-003,-1.831956e-004
1.448641e-003,-1.334415e-004
1.327902e-003,-5.937767e-005
1.239090e-003,2.441009e-005
1.192416e-003,9.474644e-005
1.182368e-003,1.368834e-004
1.187554e-003,1.446626e-004
1.178640e-003,1.208390e-004
1.135369e-003,6.995045e-005
1.059684e-003,-2.330684e-006
9.671445e-004,-8.530812e-005
8.724983e-004,-1.665028e-004
7.812554e-004,-2.350565e-004
6.870954e-004,-2.872415e-004
5.918010e-004,-3.130099e-004
5.166026e-004,-3.045825e-004
4.799758e-004,-2.609869e-004
4.678209e-004,-1.891920e-004
4.469145e-004,-9.665269e-005
3.921364e-004,1.306552e-005
3.089968e-004,1.412592e-004
2.111093e-004,2.848491e-004
1.017153e-004,4.320044e-004
-1.788895e-005,5.548500e-004
-1.370070e-004,6.209727e-004
-2.363530e-004,6.180555e-004
-2.997205e-004,5.571189e-004
-3.243544e-004,4.618245e-004
-3.217614e-004,3.564820e-004
-3.130099e-004,2.576221e-004
-3.164132e-004,1.739964e-004
-3.395886e-004,1.143563e-004
-3.687603e-004,8.421220e-005
-3.742705e-004,8.437427e-005
-3.316474e-004,1.025256e-004
-2.323013e-004,1.163011e-004
-8.628051e-005,1.128978e-004
8.745350e-005,8.956035e-005
2.780423e-004,5.293359e-005
4.743035e-004,1.160693e-005
6.592201e-004,-2.388537e-005
8.172339e-004,-4.625038e-005
9.399175e-004,-5.046408e-005
1.017223e-003,-3.895744e-005
1.046881e-003,-1.756482e-005
1.033753e-003,6.096713e-006
9.815684e-004,2.586868e-005
8.893531e-004,3.786152e-005
7.590525e-004,4.320967e-005
6.110867e-004,4.466826e-005
4.553419e-004,4.628891e-005
2.801492e-004,5.260946e-005
5.763348e-005,6.087479e-005
-2.429977e-004,7.286762e-005
-6.452437e-004,8.664317e-005
-1.149267e-003,1.007429e-004
-1.751339e-003,1.135460e-004
-2.450166e-003,1.177597e-004
-3.243963e-003,1.114392e-004
-4.096755e-003,9.993253e-005
-4.925402e-003,8.858796e-005
-4.968349e-003,8.242948e-005
-4.968187e-003,8.032263e-005
-4.968187e-003,7.497447e-005
-4.968349e-003,6.362990e-005
-4.968187e-003,4.936815e-005
-4.968187e-003,3.737532e-005
-4.499004e-003,3.008238e-005
-3.809898e-003,2.457216e-005
-3.077198e-003,1.549650e-005
-2.368323e-003,4.244267e-007
-1.741129e-003,-2.096819e-005
-1.209069e-003,-4.835723e-005
-7.560964e-004,-7.428768e-005
-3.528779e-004,-8.725291e-005
3.688912e-005,-8.239095e-005
4.396215e-004,-6.164659e-005
8.634226e-004,-3.328516e-005
1.299379e-003,-9.299492e-006
1.723667e-003,7.231170e-006
2.108087e-003,1.938607e-005
2.417147e-003,3.170303e-005
2.634802e-003,4.369587e-005
2.763807e-003,5.325772e-005
2.809833e-003,6.022653e-005
2.772558e-003,6.346784e-005
2.651495e-003,6.411610e-005
2.469657e-003,6.541262e-005
2.278743e-003,6.930219e-005
2.139528e-003,7.951231e-005
2.097877e-003,9.701536e-005
2.170807e-003,1.195424e-004
2.333845e-003,1.391524e-004
2.522976e-003,1.467694e-004
2.654736e-003,1.423936e-004
2.663001e-003,1.346145e-004
2.526055e-003,1.295905e-004
2.232554e-003,1.295905e-004
1.775852e-003,1.334801e-004
1.207812e-003,1.373696e-004
6.496583e-004,1.378558e-004
2.402811e-004,1.313732e-004
5.941620e-005,1.163011e-004
8.080882e-005,9.263960e-005
1.639483e-004,6.444023e-005
1.391524e-004,3.559260e-005
-8.449779e-005,9.013888e-006
-4.869059e-004,-1.464765e-005
-9.807188e-004,-3.296103e-005
-1.472749e-003,-4.025397e-005
-1.892174e-003,-3.798505e-005
-2.199450e-003,-3.004385e-005
-2.376588e-003,-2.096819e-005
-2.426828e-003,-1.999580e-005
-2.383395e-003,-3.215070e-005
-2.316948e-003,-5.338126e-005
-2.316624e-003,-7.607040e-005
-2.423749e-003,-9.292519e-005
-2.601049e-003,-1.031353e-004
-2.734753e-003,-1.079973e-004
-2.699260e-003,-1.120489e-004
-2.418725e-003,-1.144799e-004
-1.908543e-003,-1.133454e-004
-1.253637e-003,-1.047560e-004
-5.535147e-004,-8.498399e-005
1.130598e-004,-5.678463e-005
6.929297e-004,-2.501983e-005
1.157085e-003,1.720949e-006
1.491589e-003,1.695509e-005
1.682502e-003,2.052053e-005
1.726098e-003,1.776542e-005
1.641013e-003,1.501031e-005
1.468737e-003,1.160693e-005
1.279445e-003,9.175954e-006
1.154492e-003,8.203561e-006
1.148496e-003,7.717366e-006
1.251569e-003,5.610517e-006
1.401966e-003,5.448451e-006
1.542477e-003,1.306552e-005
1.645713e-003,2.684107e-005
1.721722e-003,3.932010e-005
1.780228e-003,4.693717e-005
1.804700e-003,5.244739e-005
1.770828e-003,5.893001e-005
1.665161e-003,6.573675e-005
1.506337e-003,6.832980e-005
1.316558e-003,6.492643e-005
1.104576e-003,6.055066e-005
8.707155e-004,5.974033e-005
6.172452e-004,6.492643e-005
3.551854e-004,7.302969e-005
1.111150e-004,8.307774e-005
-7.590833e-005,9.879807e-005
-1.624512e-004,1.257009e-004
-1.308485e-004,1.634621e-004
3.341602e-006,2.064095e-004
1.947408e-004,2.407673e-004
3.908399e-004,2.485465e-004
5.443157e-004,2.224539e-004
6.300483e-004,1.658931e-004
6.451205e-004,9.069480e-005
6.024972e-004,1.873781e-005
5.225990e-004,-2.923352e-005
4.375147e-004,-4.511592e-005
3.838710e-004,-3.004385e-005
3.780367e-004,6.744974e-006
4.029947e-004,5.098881e-005
4.211461e-004,8.518459e-005
3.984569e-004,9.636710e-005
3.208276e-004,8.064676e-005
2.031682e-004,4.580272e-005
9.312579e-005,7.717366e-006
4.531652e-005,-1.886135e-005
8.648111e-005,-2.372330e-005
2.038164e-004,-1.173047e-005
3.501614e-004,9.500084e-006
4.556660e-004,3.154097e-005
4.558280e-004,5.066468e-005
3.196932e-004,6.687120e-005
5.520250e-005,8.388807e-005
-3.136581e-004,1.031738e-004
-7.360002e-004,1.161391e-004
-1.118961e-003,1.167873e-004
-1.353145e-003,1.047945e-004
-1.367569e-003,8.210535e-005
-1.155263e-003,5.179913e-005
-7.841336e-004,1.533444e-005
-3.621157e-004,-2.307504e-005
5.772582e-006,-5.192267e-005
2.491947e-004,-6.164659e-005
3.543751e-004,-5.321919e-005
3.553475e-004,-3.539201e-005
2.979764e-004,-2.518189e-005
2.162954e-004,-4.171255e-005
1.412592e-004,-1.007043e-004
1.000946e-004,-2.062088e-004
1.128978e-004,-3.463953e-004
1.733481e-004,-4.976022e-004
2.524360e-004,-6.340612e-004
3.226103e-004,-7.267625e-004
3.743092e-004,-7.513964e-004
4.091532e-004,-7.078008e-004
4.334631e-004,-6.120203e-004
4.663623e-004,-4.815578e-004
5.222749e-004,-3.318094e-004
6.122212e-004,-1.749302e-004
7.431700e-004,-1.788895e-005
9.032907e-004,1.357490e-004
1.059684e-003,2.786906e-004
1.163244e-003,4.057499e-004
1.164540e-003,5.135234e-004
1.043477e-003,5.940698e-004
8.096169e-004,6.355586e-004
5.034753e-004,6.308586e-004
1.616794e-004,5.906665e-004
-2.002124e-004,5.373469e-004
-5.736108e-004,4.953720e-004
-9.416611e-004,4.715484e-004
-1.261416e-003,4.509661e-004
-1.472263e-003,4.039671e-004
-1.536765e-003,3.038107e-004
-1.468211e-003,1.425557e-004
-1.340504e-003,-6.634648e-005
-1.291074e-003,-2.932379e-004
-1.479880e-003,-4.980884e-004
-1.970128e-003,-6.441093e-004
-2.667171e-003,-7.115284e-004
-3.384313e-003,-6.922426e-004
-3.950247e-003,-5.807417e-004
-4.265790e-003,-3.697327e-004
-4.301283e-003,-7.509801e-005
-4.083142e-003,2.613496e-004
-3.699207e-003,5.827252e-004
-3.254660e-003,8.363576e-004
-2.821134e-003,9.765443e-004
-2.423263e-003,9.874026e-004
-2.064450e-003,8.895152e-004
-1.766574e-003,7.345806e-004
-1.566909e-003,5.767288e-004
-1.470318e-003,4.525867e-004
-1.434664e-003,3.754436e-004
-1.387341e-003,3.405996e-004
-1.280702e-003,3.290929e-004
-1.126902e-003,3.107795e-004
-9.648364e-004,2.493568e-004
-7.990436e-004,1.253768e-004
-5.778245e-004,-5.338126e-005
-2.558008e-004,-2.592042e-004
1.545486e-004,-4.446069e-004
5.892079e-004,-5.672903e-004
9.742754e-004,-6.089411e-004
1.254163e-003,-5.791211e-004
1.435514e-003,-5.018159e-004
1.578456e-003,-3.888564e-004
1.750246e-003,-2.400805e-004
1.981676e-003,-5.921561e-005
2.262860e-003,1.336421e-004
2.553769e-003,2.971661e-004
2.799461e-003,3.866261e-004
2.967362e-003,3.822504e-004
3.069626e-003,2.981384e-004
3.144501e-003,1.722137e-004
3.215162e-003,5.212327e-005
3.275774e-003,-2.194059e-005
3.303650e-003,-2.550602e-005
3.295385e-003,5.585077e-005
3.285985e-003,2.125679e-004
3.321801e-003,4.068843e-004
3.386304e-003,5.871010e-004
3.410128e-003,7.052467e-004
3.332984e-003,7.293944e-004
3.125052e-003,6.550064e-004
2.775962e-003,5.033132e-004
2.294949e-003,3.085106e-004
1.716536e-003,1.038221e-004
1.092097e-003,-7.574627e-005
4.802999e-004,-2.094501e-004
-7.607040e-005,-2.946965e-004
-5.518941e-004,-3.379679e-004
-9.432817e-004,-3.450988e-004
-1.265143e-003,-3.191683e-004
-1.541627e-003,-2.661730e-004
-1.770139e-003,-1.947022e-004
-1.908057e-003,-1.128592e-004
-1.905140e-003,-2.955766e-005
-1.748746e-003,3.802358e-005
-1.467077e-003,6.687120e-005
-1.117664e-003,4.353380e-005
-7.661444e-004,-2.939559e-005
-4.538446e-004,-1.319829e-004
-1.890299e-004,-2.397564e-004
4.223728e-005,-3.303509e-004
2.446569e-004,-3.976079e-004
4.042912e-004,-4.496309e-004
5.039615e-004,-4.979264e-004
5.462606e-004,-5.452494e-004
5.577672e-004,-5.901415e-004
5.807804e-004,-6.259579e-004
6.387999e-004,-6.402197e-004
7.208050e-004,-6.219063e-004
7.908173e-004,-5.736108e-004
8.029722e-004,-5.084606e-004
7.306910e-004,-4.392587e-004
5.854804e-004,-3.754050e-004
4.127187e-004,-3.246786e-004
2.595669e-004,-2.940482e-004
1.558451e-004,-2.804347e-004
1.069013e-004,-2.775176e-004
9.733949e-005,-2.814071e-004
1.020394e-004,-2.885380e-004
9.831188e-005,-2.911311e-004
6.589881e-005,-2.736280e-004
-1.578211e-005,-2.219292e-004
-1.630995e-004,-1.290658e-004
-3.925839e-004,-9.785687e-006
-7.129869e-004,1.065772e-004
-1.099351e-003,1.877719e-004
-1.475342e-003,2.231022e-004
-1.740157e-003,2.159713e-004
-1.810979e-003,1.777239e-004
-1.663662e-003,1.190562e-004
-1.337749e-003,5.341978e-005
-9.226995e-004,-2.330684e-006
-5.129984e-004,-3.717472e-005
-1.799543e-004,-4.625038e-005
5.585077e-005,-2.518189e-005
2.091646e-004,2.554455e-005
3.151553e-004,9.912220e-005
4.172565e-004,1.871237e-004
5.415606e-004,2.790147e-004
6.859609e-004,3.647473e-004
8.297130e-004,4.355699e-004
9.384589e-004,4.819206e-004
9.663342e-004,4.990995e-004
8.835187e-004,4.890515e-004
7.112431e-004,4.521005e-004
5.052580e-004,3.908399e-004
3.227724e-004,3.162897e-004
1.880961e-004,2.472499e-004
9.263960e-005,1.971717e-004
2.149292e-005,1.692965e-004
-4.268495e-005,1.602208e-004
-1.180453e-004,1.573037e-004
-2.177155e-004,1.472556e-004
-3.574157e-004,1.284560e-004
-5.446011e-004,1.054428e-004
-7.556102e-004,8.129502e-005
-9.312889e-004,5.876794e-005
-1.007298e-003,4.126489e-005
-9.531677e-004,3.299956e-005
-7.881852e-004,3.899597e-005
-5.847933e-004,6.119892e-005
-4.363416e-004,9.669123e-005
-4.102490e-004,1.365593e-004
-5.151053e-004,1.720516e-004
-7.074767e-004,1.963614e-004
-9.350164e-004,2.107852e-004
-1.158180e-003,2.153230e-004
-1.320570e-003,2.117576e-004
-1.326566e-003,1.992786e-004
-1.117826e-003,1.754550e-004
-7.426449e-004,1.430419e-004
-3.418575e-004,1.145184e-004
-7.218083e-005,9.847395e-005
-2.615428e-005,9.361198e-005
-1.964849e-004,9.782569e-005
-4.937127e-004,1.104668e-004
-8.074710e-004,1.269974e-004
-1.069855e-003,1.381799e-004
-1.259957e-003,1.368834e-004
-1.366434e-003,1.255388e-004
-1.370162e-003,1.106288e-004
-1.262388e-003,9.798775e-005
-1.070503e-003,8.729143e-005
-8.445840e-004,7.286762e-005
-6.089411e-004,5.390598e-005
-3.327818e-004,3.494434e-005
1.419998e-005,2.003433e-005
4.051016e-004,7.069104e-006
7.642385e-004,-4.761663e-006
1.024678e-003,-1.383732e-005
1.162271e-003,-2.064406e-005
1.195819e-003,-2.793700e-005
1.170861e-003,-3.766092e-005
1.134072e-003,-4.706071e-005
1.124996e-003,-5.143647e-005
1.171833e-003,-5.176060e-005
1.283010e-003,-4.900549e-005
1.437297e-003,-4.576419e-005
1.596445e-003,-3.441962e-005
1.722857e-003,-1.059601e-005
1.793517e-003,2.019640e-005
1.801620e-003,4.742337e-005
1.752839e-003,6.217131e-005
1.651872e-003,6.071273e-005
1.488510e-003,4.612685e-005
1.244439e-003,2.522042e-005
8.992390e-004,5.772582e-006
4.200116e-004,-3.951337e-006
-2.326255e-004,-7.100305e-007
-1.048624e-003,1.079661e-005
-1.937228e-003,2.197911e-005
-2.749663e-003,2.943412e-005
-3.347361e-003,3.526847e-005
-3.640215e-003,3.834771e-005
-3.598888e-003,3.559260e-005
-3.272487e-003,2.489629e-005
-2.768625e-003,9.662150e-006
-2.197992e-003,-2.978945e-006
-1.625415e-003,-3.951337e-006
-1.068234e-003,9.175954e-006
-5.407116e-004,3.786152e-005
-8.482193e-005,7.497447e-005
2.462775e-004,1.111150e-004
4.284390e-004,1.394765e-004
4.929410e-004,1.587622e-004
5.107682e-004,1.678379e-004
5.755944e-004,1.671896e-004
7.780141e-004,1.574657e-004
1.160975e-003,1.404489e-004
1.707622e-003,1.235941e-004
2.349241e-003,1.163011e-004
2.989241e-003,1.193804e-004
3.524223e-003,1.257009e-004
3.875098e-003,1.266733e-004
4.008479e-003,1.156529e-004
3.934576e-003,9.539470e-005
3.688883e-003,7.351588e-005
3.316291e-003,5.374392e-005
2.858129e-003,3.915804e-005
2.355076e-003,3.299956e-005
1.854616e-003,3.591673e-005
1.397915e-003,4.450619e-005
9.882130e-004,5.147500e-005
5.856425e-004,4.871989e-005
1.263492e-004,2.813760e-005
-4.371519e-004,-1.189254e-005
-1.091409e-003,-6.261898e-005
-1.766736e-003,-1.081593e-004
-2.376588e-003,-1.324691e-004
-2.868295e-003,-1.280934e-004
-3.234888e-003,-9.422171e-005
-3.486900e-003,-4.625038e-005
-3.640053e-003,2.369210e-006
-3.693372e-003,4.855782e-005
-3.643132e-003,9.604297e-005
-3.486252e-003,1.410971e-004
-3.237157e-003,1.736723e-004
-2.920804e-003,1.838824e-004
-2.553402e-003,1.671896e-004
-2.150345e-003,1.321835e-004
-1.724599e-003,9.701536e-005
-1.277298e-003,7.416414e-005
-7.841336e-004,5.957827e-005
-2.212809e-004,4.126489e-005
3.884088e-004,1.760335e-005
9.606619e-004,-6.544382e-006
1.418983e-003,-2.583015e-005
1.730636e-003,-4.122636e-005
1.886867e-003,-5.678463e-005
1.887353e-003,-7.509801e-005
1.754945e-003,-9.357345e-005
1.547339e-003,-1.073490e-004
1.343947e-003,-1.162626e-004
1.214132e-003,-1.183694e-004
1.190795e-003,-1.146419e-004
1.264535e-003,-1.042698e-004
1.389812e-003,-8.676671e-005
1.515412e-003,-6.586029e-005
1.600173e-003,-5.565017e-005
1.613300e-003,-6.958779e-005
1.552039e-003,-1.126972e-004
1.441348e-003,-1.789819e-004
1.315099e-003,-2.566112e-004
1.195495e-003,-3.391023e-004
1.100524e-003,-4.241866e-004
1.045422e-003,-4.969540e-004
1.022895e-003,-5.377944e-004
1.007499e-003,-5.309877e-004
9.690893e-004,-4.666477e-004
8.880566e-004,-3.481780e-004
7.718556e-004,-1.966470e-004
6.444722e-004,-4.414354e-005
5.302160e-004,7.967437e-005
4.490213e-004,1.581140e-004
4.114221e-004,1.880961e-004
4.068843e-004,1.769136e-004
4.091532e-004,1.386661e-004
3.937570e-004,9.620503e-005
3.470822e-004,7.011251e-005
2.671840e-004,7.351588e-005
1.668655e-004,1.114392e-004
6.411610e-005,1.816135e-004
-2.210265e-005,2.751252e-004
-7.639453e-005,3.728506e-004
-9.389758e-005,4.517764e-004
-7.898758e-005,4.830550e-004
-4.187462e-005,4.506420e-004
1.883015e-006,3.483787e-004
4.288554e-005,1.934442e-004
7.578480e-005,2.343770e-005
1.081979e-004,-1.248521e-004
1.513072e-004,-2.251705e-004
2.034923e-004,-2.747625e-004
2.436845e-004,-2.932379e-004
2.282883e-004,-3.029618e-004
1.150046e-004,-3.185201e-004
-1.135075e-004,-3.436402e-004
-4.204591e-004,-3.671397e-004
-7.368106e-004,-3.716775e-004
-1.000491e-003,-3.358611e-004
-1.180545e-003,-2.462390e-004
-1.258823e-003,-1.136696e-004
-1.233379e-003,3.251336e-005
-1.122040e-003,1.701068e-004
-9.604607e-004,3.007315e-004
-7.914265e-004,4.363802e-004
-6.523746e-004,5.864528e-004
-5.822003e-004,7.480319e-004
-6.069963e-004,8.997252e-004
-7.121766e-004,1.011064e-003
-8.497701e-004,1.058873e-003
-9.637020e-004,1.040884e-003
-1.012970e-003,9.788133e-004
-9.862290e-004,9.042631e-004
-8.982276e-004,8.397610e-004
-7.760304e-004,7.942206e-004
-6.463781e-004,7.635903e-004
-5.340669e-004,7.410632e-004
-4.553032e-004,7.178878e-004
-4.073319e-004,6.940642e-004
-3.710292e-004,6.707268e-004
-3.230579e-004,6.420412e-004
-2.371633e-004,5.992559e-004
-9.584237e-005,5.397779e-004
8.891209e-005,4.670106e-004
2.864697e-004,3.918122e-004
4.754380e-004,3.255275e-004
6.434998e-004,2.688046e-004
7.763934e-004,2.081922e-004
8.433264e-004,1.284560e-004
8.073479e-004,2.392390e-005
6.652166e-004,-1.002181e-004
4.723587e-004,-2.339220e-004
3.196932e-004,-3.591985e-004
2.764217e-004,-4.578962e-004
3.482167e-004,-5.209396e-004
4.866205e-004,-5.570801e-004
6.272933e-004,-5.825244e-004
7.248566e-004,-6.170443e-004
7.729901e-004,-6.729568e-004
7.942206e-004,-7.444276e-004
8.021619e-004,-8.144398e-004
7.726659e-004,-8.692179e-004
6.217830e-004,-9.006585e-004
2.504912e-004,-9.087618e-004
-3.549847e-004,-8.990379e-004
-1.062724e-003,-8.781315e-004
-1.662203e-003,-8.447461e-004
-1.996706e-003,-7.893197e-004
-2.035602e-003,-7.008321e-004
-1.859599e-003,-5.867381e-004
-1.596891e-003,-4.734545e-004
-1.352010e-003,-3.937184e-004
-1.176656e-003,-3.587123e-004
-1.080065e-003,-3.549847e-004
-1.045059e-003,-3.574157e-004
-1.035335e-003,-3.485022e-004
-9.901186e-004,-3.230579e-004
-8.711627e-004,-2.887001e-004
-6.938633e-004,-2.595283e-004
-5.238568e-004,-2.454286e-004
-4.405552e-004,-2.491561e-004
-4.724821e-004,-2.669833e-004
-6.005137e-004,-2.810830e-004
-7.795958e-004,-2.577456e-004
-9.612710e-004,-1.741199e-004
-1.104212e-003,-2.858526e-005
-1.171470e-003,1.624898e-004
-1.124795e-003,3.691231e-004
-9.311268e-004,5.517707e-004
-5.839830e-004,6.744543e-004
-1.246900e-004,7.246946e-004
3.760919e-004,7.169154e-004
8.410575e-004,6.767232e-004
1.224991e-003,6.206486e-004
1.517357e-003,5.546879e-004
1.728205e-003,4.783551e-004
1.895781e-003,3.843572e-004
2.060440e-003,2.678322e-004
2.234985e-003,1.354248e-004
2.390568e-003,2.531276e-006
2.448912e-003,-1.162626e-004
2.320556e-003,-2.147983e-004
1.977462e-003,-2.929138e-004
1.475382e-003,-3.489884e-004
9.141491e-004,-3.825359e-004
3.723644e-004,-3.950149e-004
-1.274451e-004,-3.877220e-004
-5.914380e-004,-3.668155e-004
-1.002922e-003,-3.344025e-004
-1.315870e-003,-2.887001e-004
-1.483607e-003,-2.233878e-004
-1.491549e-003,-1.402483e-004
-1.358493e-003,-5.646050e-005
-1.131277e-003,1.095867e-005
-8.789418e-004,6.119892e-005
-6.667983e-004,1.085220e-004
-5.152673e-004,1.718895e-004
-3.883702e-004,2.532463e-004
-2.245222e-004,3.389789e-004
1.176900e-005,4.036430e-004
3.013797e-004,4.286011e-004
5.914768e-004,4.112601e-004
8.324681e-004,3.692851e-004
1.018519e-003,3.263378e-004
1.174751e-003,2.957075e-004
1.319151e-003,2.793389e-004
1.419632e-003,2.712356e-004
1.413311e-003,2.662116e-004
1.252380e-003,2.655633e-004
9.603378e-004,2.615117e-004
6.397723e-004,2.506533e-004
4.256839e-004,2.329882e-004
3.885709e-004,2.093266e-004
4.884032e-004,1.773998e-004
5.994180e-004,1.388282e-004
6.101142e-004,1.033359e-004
4.777069e-004,7.805372e-005
2.344468e-004,6.217131e-005
-4.657451e-005,5.390598e-005
-2.854588e-004,5.082674e-005
-4.227281e-004,4.661304e-005
-4.444448e-004,3.850977e-005
-3.765395e-004,3.170303e-005
-2.724935e-004,2.910999e-005
-1.959987e-004,3.218923e-005
-1.880575e-004,3.786152e-005
-2.502906e-004,4.207521e-005
-3.559572e-004,4.207521e-005
-4.812336e-004,3.786152e-005
-6.032688e-004,3.494434e-005
-6.852738e-004,3.818564e-005
-6.800877e-004,5.082674e-005
-5.646973e-004,7.157111e-005
-3.590364e-004,8.988448e-005
-1.229073e-004,9.782569e-005
8.405013e-005,9.166720e-005
2.307192e-004,7.319175e-005
3.172621e-004,4.823369e-005
3.561578e-004,2.003433e-005
3.676645e-004,-6.706447e-006
3.775505e-004,-2.874733e-005
4.046154e-004,-3.944364e-005
4.572866e-004,-3.604027e-005
5.206542e-004,-1.675450e-005
5.689497e-004,1.112074e-005
5.754323e-004,3.267542e-005
5.144957e-004,3.299956e-005
3.981328e-004,1.079661e-005
2.731804e-004,-2.210265e-005
2.041405e-004,-4.916756e-005
2.213195e-004,-6.310517e-005
2.966798e-004,-6.197072e-005
3.649094e-004,-5.111234e-005
3.673404e-004,-3.360929e-005
2.788527e-004,-1.351319e-005
1.261871e-004,1.883015e-006
-3.166451e-005,7.879431e-006
-1.277692e-004,7.717366e-006
-9.811128e-005,5.124321e-006
9.490851e-005,2.369210e-006
4.198496e-004,4.151929e-006
7.930862e-004,9.986280e-006
1.124510e-003,1.614476e-005
1.360316e-003,1.663096e-005
1.478623e-003,3.341602e-006
1.477003e-003,-2.258885e-005
1.347026e-003,-5.338126e-005
1.089504e-003,-7.898758e-005
7.097846e-004,-9.389758e-005
1.971717e-004,-1.044318e-004
-4.172178e-004,-1.138316e-004
-1.005839e-003,-1.227452e-004
-1.394634e-003,-1.258244e-004
-1.482797e-003,-1.148040e-004
-1.304039e-003,-8.222889e-005
-9.847704e-004,-2.437157e-005
-6.706879e-004,5.649903e-005
-4.553032e-004,1.511452e-004
-3.728119e-004,2.451431e-004
-4.251590e-004,3.221241e-004
-5.958137e-004,3.662059e-004
-8.423151e-004,3.757677e-004
-1.070341e-003,3.543751e-004
-1.172928e-003,3.107795e-004
-1.095137e-003,2.556773e-004
-8.471771e-004,1.989545e-004
-4.979264e-004,1.480659e-004
-1.417068e-004,1.077117e-004
1.412592e-004,7.513654e-005
3.002453e-004,4.790957e-005
3.261757e-004,2.489629e-005
2.532463e-004,9.106226e-007
1.381799e-004,-2.291298e-005
3.478227e-005,-4.284701e-005
-1.934754e-005,-5.467778e-005
-1.918548e-005,-6.132245e-005
1.501031e-005,-7.088431e-005
5.876794e-005,-9.146661e-005
9.328785e-005,-1.255003e-004
1.205148e-004,-1.622891e-004
1.610312e-004,-1.911368e-004
2.363915e-004,-2.037778e-004
3.412478e-004,-1.887058e-004
4.475627e-004,-1.379793e-004
5.224369e-004,-4.592625e-005
5.444778e-004,8.680524e-005
5.114165e-004,2.474120e-004
4.485351e-004,4.057499e-004
3.929467e-004,5.240575e-004
3.655576e-004,5.730013e-004
3.681507e-004,5.495019e-004
3.880847e-004,4.715484e-004
4.166082e-004,3.642611e-004
4.720346e-004,2.475740e-004
5.754323e-004,1.383420e-004
7.297186e-004,5.374392e-005
9.079906e-004,9.662150e-006
1.060656e-003,1.825161e-005
1.148820e-003,7.902610e-005
1.178640e-003,1.788584e-004
1.198250e-003,2.926282e-004
1.257242e-003,3.924605e-004
1.359667e-003,4.582590e-004
1.446210e-003,4.791655e-004
1.411852e-003,4.577728e-004
1.169889e-003,4.028327e-004
7.272876e-004,3.221241e-004
1.963614e-004,2.265056e-004
-2.836761e-004,1.286181e-004
-6.361680e-004,3.850977e-005
-8.664628e-004,-3.441962e-005
-1.021073e-003,-8.595638e-005
-1.139705e-003,-1.144799e-004
-1.228841e-003,-1.238797e-004
-1.256230e-003,-1.195039e-004
-1.185407e-003,-1.143178e-004
-1.013294e-003,-1.190177e-004
-7.833233e-004,-1.352242e-004
-5.562698e-004,-1.593720e-004
-3.849668e-004,-1.822232e-004
-2.921034e-004,-1.966470e-004
-2.682798e-004,-2.015089e-004
-2.794623e-004,-1.968091e-004
-2.807589e-004,-1.838438e-004
-2.441321e-004,-1.673132e-004
-1.809267e-004,-1.566169e-004
-1.349001e-004,-1.524032e-004
-1.468929e-004,-1.459205e-004
-2.374874e-004,-1.269589e-004
-3.956631e-004,-9.632856e-005
-5.859278e-004,-6.634648e-005
-7.716546e-004,-4.965375e-005
-9.491161e-004,-4.770897e-005
-1.144243e-003,-5.224680e-005
-1.390096e-003,-5.872941e-005
-1.692023e-003,-6.829127e-005
-2.019882e-003,-8.093235e-005
-2.331696e-003,-1.020008e-004
-2.604290e-003,-1.353863e-004
-2.843337e-003,-1.833576e-004
-3.067474e-003,-2.420253e-004
-3.288045e-003,-3.031239e-004
-3.474421e-003,-3.540124e-004
-3.554644e-003,-3.877220e-004
-3.458377e-003,-4.074939e-004
-3.156772e-003,-4.196488e-004
-2.664741e-003,-4.293727e-004
-2.033333e-003,-4.416897e-004
-1.329969e-003,-4.624341e-004
-6.308199e-004,-4.997090e-004
-1.837515e-005,-5.554595e-004
4.446455e-004,-6.246614e-004
7.441424e-004,-6.972667e-004
9.037769e-004,-7.505861e-004
9.616343e-004,-7.460483e-004
9.713582e-004,-6.523746e-004
9.932371e-004,-4.612996e-004
1.059846e-003,-1.927574e-004
1.165351e-003,1.137081e-004
1.275879e-003,4.162841e-004
1.356588e-003,6.765611e-004
1.384301e-003,8.588848e-004
1.367771e-003,9.399175e-004
1.337140e-003,9.186869e-004
1.323040e-003,8.216097e-004
1.332440e-003,6.817472e-004
1.366312e-003,5.206542e-004
1.426276e-003,3.561578e-004
1.495478e-003,2.070577e-004
1.556091e-003,9.085687e-005
1.599038e-003,1.971020e-005
1.634693e-003,-2.168618e-006
1.698547e-003,2.019640e-005
1.821879e-003,7.465034e-005
2.001772e-003,1.503348e-004
2.188796e-003,2.389846e-004
2.316504e-003,3.315239e-004
2.331090e-003,4.183909e-004
2.222019e-003,4.864584e-004
2.032240e-003,5.260024e-004
1.839544e-003,5.358884e-004
1.709891e-003,5.182232e-004
1.666620e-003,4.786793e-004
1.694657e-003,4.266563e-004
1.752677e-003,3.700955e-004
1.789303e-003,3.122381e-004
1.770828e-003,2.514636e-004
1.691902e-003,1.880961e-004
1.574890e-003,1.286181e-004
1.456745e-003,8.323980e-005
1.363719e-003,5.487837e-005
1.291438e-003,4.077869e-005
1.203760e-003,3.624086e-005
1.048664e-003,3.089270e-005
7.927620e-004,9.175954e-006
4.478869e-004,-3.393342e-005
7.400208e-005,-9.195280e-005
-2.464010e-004,-1.566169e-004
-4.481723e-004,-2.125294e-004
-5.364979e-004,-2.457528e-004
-5.933827e-004,-2.528836e-004
-7.056940e-004,-2.316531e-004
-8.906105e-004,-1.838438e-004
-1.079093e-003,-1.165867e-004
-1.178763e-003,-3.506787e-005
-1.125767e-003,5.552663e-005
-9.226995e-004,1.573037e-004
-6.327647e-004,2.704253e-004
-3.485022e-004,3.733367e-004
-1.546721e-004,4.298976e-004
-9.486997e-005,3.974845e-004
-1.619650e-004,2.649151e-004
-3.138202e-004,6.427816e-005
-5.172121e-004,-1.449481e-004
-7.855922e-004,-3.121995e-004
-1.152670e-003,-4.151110e-004
-1.596081e-003,-4.535204e-004
-2.034792e-003,-4.365036e-004
-2.381450e-003,-3.792946e-004
-2.580304e-003,-3.073376e-004
-2.622279e-003,-2.429977e-004
-2.528768e-003,-1.976194e-004
-2.318082e-003,-1.655304e-004
-2.001244e-003,-1.352242e-004
-1.602563e-003,-9.551824e-005
-1.180869e-003,-4.155049e-005
-7.954782e-004,2.457216e-005
-4.833405e-004,9.960840e-005
-2.570973e-004,1.803169e-004
-1.123730e-004,2.710735e-004
-2.599222e-005,3.806297e-004
3.964423e-005,5.016925e-004
1.130598e-004,6.065489e-004
1.816135e-004,6.606787e-004
2.023578e-004,6.363689e-004
1.500107e-004,5.345918e-004
2.829966e-005,3.820883e-004
-1.345760e-004,2.198609e-004
-2.788141e-004,8.097089e-005
-3.311612e-004,-2.064406e-005
-2.511009e-004,-9.681476e-005
-6.861539e-005,-1.652063e-004
1.177597e-004,-2.358668e-004
2.033302e-004,-3.081479e-004
1.490383e-004,-3.732981e-004
-7.516774e-006,-4.235384e-004
-1.861127e-004,-4.523860e-004
-3.157650e-004,-4.535204e-004
-3.655190e-004,-4.233763e-004
-3.389403e-004,-3.763774e-004
-2.600145e-004,-3.381300e-004
-1.433275e-004,-3.233821e-004
4.313994e-006,-3.301888e-004
1.662173e-004,-3.360231e-004
3.193690e-004,-3.204648e-004
4.452938e-004,-2.758969e-004
5.337815e-004,-2.130156e-004
5.898561e-004,-1.423551e-004
6.300483e-004,-6.278104e-005
6.721854e-004,2.992031e-005
7.164293e-004,1.325077e-004
7.409011e-004,2.274780e-004
7.214532e-004,2.973281e-004
6.559788e-004,3.365479e-004
5.764047e-004,3.566440e-004
5.263265e-004,3.663680e-004
5.354022e-004,3.759298e-004
6.120591e-004,3.837089e-004
7.402528e-004,3.760919e-004
8.932427e-004,3.438409e-004
1.041533e-003,2.864697e-004
1.161461e-003,2.114335e-004
1.243142e-003,1.310491e-004
1.292734e-003,5.811968e-005
1.310724e-003,4.313994e-006
1.268262e-003,-3.053005e-005
1.140717e-003,-5.419158e-005
9.358659e-004,-6.796713e-005
7.018433e-004,-6.391550e-005
5.002340e-004,-3.782299e-005
3.765781e-004,5.448451e-006
3.355755e-004,5.309565e-005
3.451374e-004,9.328785e-005
3.628025e-004,1.158149e-004
3.553475e-004,1.177597e-004
3.025142e-004,9.993253e-005
1.974959e-004,6.411610e-005
5.098881e-005,8.203561e-006
-1.156143e-004,-6.197072e-005
-2.801106e-004,-1.344139e-004
-4.186764e-004,-1.924333e-004
-5.227224e-004,-2.261429e-004
-5.988930e-004,-2.337599e-004
-6.565882e-004,-2.135018e-004
-6.998597e-004,-1.587237e-004
-7.149318e-004,-6.391550e-005
-6.794395e-004,6.638501e-005
-5.822003e-004,2.192126e-004
-4.322899e-004,3.804677e-004
-2.624455e-004,5.318367e-004
-1.157764e-004,6.465790e-004
-9.785687e-006,7.039502e-004
7.529860e-005,6.958469e-004
1.743205e-004,6.256726e-004
3.030004e-004,5.065545e-004
4.410801e-004,3.540510e-004
5.582533e-004,1.913374e-004
6.431757e-004,3.705119e-005
7.133500e-004,-9.146661e-005
8.113996e-004,-1.848162e-004
9.674686e-004,-2.425115e-004
1.174913e-003,-2.655248e-004
1.385598e-003,-2.606628e-004
1.538750e-003,-2.387839e-004
1.590287e-003,-2.136638e-004
1.517519e-003,-1.972952e-004
1.307320e-003,-2.024813e-004
9.601757e-004,-2.321393e-004
5.097958e-004,-2.788141e-004
3.121684e-005,-3.275957e-004
-4.032802e-004,-3.614674e-004
-7.539894e-004,-3.687603e-004
-1.015401e-003,-3.459091e-004
-1.178763e-003,-2.971275e-004
-1.214255e-003,-2.326255e-004
-1.105347e-003,-1.609926e-004
-8.909347e-004,-9.341139e-005
-6.405438e-004,-3.798505e-005
-4.342347e-004,4.962256e-006
-3.778360e-004,3.899597e-005
-5.527044e-004,7.400208e-005
-9.426334e-004,1.101426e-004
-1.452491e-003,1.425557e-004
-1.955056e-003,1.629759e-004
-2.337854e-003,1.684862e-004
-2.522447e-003,1.577899e-004
-2.473503e-003,1.299146e-004
-2.221978e-003,8.891209e-005
-1.869809e-003,4.077869e-005
-1.545516e-003,-1.140634e-005
-1.345852e-003,-5.727082e-005
-1.295450e-003,-8.757703e-005
-1.342935e-003,-9.438377e-005
-1.397227e-003,-7.493595e-005
-1.384748e-003,-3.458168e-005
-1.266440e-003,1.533444e-005
-1.042466e-003,6.168512e-005
-7.585273e-004,9.409818e-005
-5.073261e-004,1.049566e-004
-3.865875e-004,1.000946e-004
-4.397449e-004,9.377405e-005
-6.240131e-004,9.717742e-005
-8.377773e-004,1.088461e-004
-9.915772e-004,1.172735e-004
-1.047814e-003,1.075496e-004
-1.003894e-003,8.161915e-005
-8.635456e-004,5.179913e-005
-6.290372e-004,2.878586e-005
-3.329439e-004,1.744128e-005
-4.446767e-005,1.954813e-005
1.553589e-004,3.040651e-005
2.036543e-004,4.094075e-005
9.118101e-005,4.499239e-005
-1.227452e-004,4.402000e-005
-3.410472e-004,4.029249e-005
-4.643788e-004,3.510640e-005
-4.194868e-004,2.473422e-005
-1.848162e-004,1.144487e-005
2.124059e-004,3.341602e-006
7.127018e-004,4.313994e-006
1.237308e-003,1.095867e-005
1.695792e-003,1.355172e-005
1.999341e-003,7.717366e-006
2.069515e-003,-1.034161e-006
1.889622e-003,-5.409925e-006
1.541991e-003,-3.141010e-006
1.183340e-003,1.883015e-006
9.533690e-004,2.693341e-006
9.073423e-004,2.369210e-006
1.012361e-003,7.069104e-006
1.190957e-003,1.582063e-005
1.366636e-003,2.505835e-005
1.492561e-003,3.332369e-005
1.543288e-003,4.434413e-005
1.510388e-003,6.006446e-005
1.404235e-003,7.529860e-005
1.256107e-003,8.388807e-005
1.105873e-003,8.826383e-005
9.757340e-004,9.523264e-005
8.658536e-004,1.091703e-004
7.684522e-004,1.248906e-004
6.888781e-004,1.346145e-004
6.465790e-004,1.363972e-004
6.624614e-004,1.341283e-004
7.365253e-004,1.339663e-004
8.397610e-004,1.406109e-004
9.397555e-004,1.488763e-004
1.022733e-003,1.506590e-004
1.094366e-003,1.417454e-004
1.163568e-003,1.232699e-004
1.222398e-003,9.798775e-005
1.249949e-003,7.011251e-005
1.237632e-003,4.483032e-005
1.195171e-003,2.522042e-005
1.141851e-003,1.711715e-005
1.090152e-003,2.408596e-005
1.038939e-003,4.661304e-005
9.745996e-004,7.935023e-005
8.734707e-004,1.094944e-004
7.211291e-004,1.304008e-004
5.203301e-004,1.414213e-004
2.929523e-004,1.480659e-004
8.226741e-005,1.543865e-004
-7.023605e-005,1.592484e-004
-1.347380e-004,1.602208e-004
-1.054042e-004,1.521176e-004
-1.448558e-005,1.289422e-004
7.643306e-005,9.182927e-005
1.187321e-004,4.985435e-005
1.041462e-004,6.744974e-006
6.946425e-005,-2.971972e-005
7.384001e-005,-4.900549e-005
1.600588e-004,-4.592625e-005
3.214759e-004,-2.258885e-005
5.119027e-004,1.565857e-005
6.686199e-004,5.520250e-005
7.384701e-004,8.145709e-005
6.947124e-004,8.631904e-005
5.478812e-004,7.270556e-005
3.409237e-004,5.212327e-005
1.321835e-004,3.591673e-005
3.341602e-006,2.846173e-005
3.672705e-005,2.489629e-005
2.470879e-004,2.165498e-005
5.621430e-004,2.019640e-005
8.643949e-004,2.586868e-005
1.041046e-003,3.948217e-005
1.026785e-003,6.362990e-005
8.246890e-004,9.831188e-005
5.021787e-004,1.438522e-004
1.365593e-004,1.937684e-004
-2.394322e-004,2.389846e-004
-6.465402e-004,2.696149e-004
-1.125281e-003,2.769079e-004
-1.682137e-003,2.587565e-004
-2.271894e-003,2.166196e-004
-2.827941e-003,1.558451e-004
-3.303604e-003,8.437427e-005
-3.683649e-003,1.614476e-005
-3.963699e-003,-3.895744e-005
-4.131437e-003,-8.271508e-005
-4.178923e-003,-1.290658e-004
-4.123983e-003,-1.869231e-004
-4.012481e-003,-2.579077e-004
-3.895307e-003,-3.391023e-004
-3.781212e-003,-4.237005e-004
-3.633246e-003,-5.024642e-004
-3.418995e-003,-5.732867e-004
-3.140566e-003,-6.377887e-004
-2.825996e-003,-6.958080e-004
-2.513371e-003,-7.416725e-004
-2.243532e-003,-7.638755e-004
-2.069960e-003,-7.468586e-004
-2.031713e-003,-6.773326e-004
-2.105290e-003,-5.514079e-004
-2.185999e-003,-3.783222e-004
-2.124576e-003,-1.765509e-004
-1.804497e-003,3.575467e-005
-1.227544e-003,2.467637e-004
-5.079744e-004,4.465903e-004
2.026820e-004,6.204865e-004
7.963275e-004,7.483561e-004
1.244763e-003,8.131823e-004
1.563870e-003,8.097789e-004
1.767911e-003,7.423597e-004
1.864826e-003,6.156245e-004
1.872767e-003,4.433490e-004
1.830630e-003,2.524360e-004
1.784928e-003,8.097089e-005
1.770828e-003,-3.928157e-005
1.795462e-003,-9.616650e-005
1.838409e-003,-9.827335e-005
1.870012e-003,-6.926366e-005
1.871309e-003,-2.809907e-005
1.845864e-003,1.322759e-005
1.811669e-003,4.110282e-005
1.782497e-003,4.158902e-005
1.776824e-003,9.106226e-007
1.812479e-003,-8.125648e-005
1.902750e-003,-1.906506e-004
2.039533e-003,-3.081479e-004
2.197872e-003,-4.141386e-004
2.354265e-003,-4.854473e-004
2.491049e-003,-5.082985e-004
2.599147e-003,-4.815578e-004
2.676291e-003,-4.188385e-004
2.715673e-003,-3.436402e-004
2.696063e-003,-2.807589e-004
2.594123e-003,-2.379736e-004
2.407909e-003,-2.045882e-004
2.155734e-003,-1.606685e-004
1.875360e-003,-8.012203e-005
1.607466e-003,5.763348e-005
1.383491e-003,2.519498e-004
1.221749e-003,4.812723e-004
1.115434e-003,7.139983e-004
1.042667e-003,9.253316e-004
9.852959e-004,1.102631e-003
9.295453e-004,1.245411e-003
8.692570e-004,1.355616e-003
7.982723e-004,1.424980e-003
7.135121e-004,1.445886e-003
6.143280e-004,1.412825e-003
4.994237e-004,1.323365e-003
3.743092e-004,1.176857e-003
2.513016e-004,9.796235e-004
1.436902e-004,7.444666e-004
6.946425e-005,4.929410e-004
5.406805e-005,2.482223e-004
1.125736e-004,2.684107e-005
2.409294e-004,-1.619650e-004
4.145014e-004,-3.136581e-004
5.999042e-004,-4.235384e-004
7.605110e-004,-4.904713e-004
8.556435e-004,-5.180224e-004
8.519160e-004,-5.112157e-004
7.452769e-004,-4.747510e-004
5.671670e-004,-4.084663e-004
3.691231e-004,-3.068514e-004
1.850168e-004,-1.643960e-004
9.500084e-006,1.582063e-005
-1.806025e-004,2.219677e-004
-3.966356e-004,4.274666e-004
-6.228787e-004,5.935836e-004
-8.223810e-004,6.716992e-004
-9.549505e-004,6.242140e-004
-1.002922e-003,4.449697e-004
-9.962771e-004,1.775618e-004
-1.001787e-003,-1.028112e-004
-1.105185e-003,-3.308370e-004
-1.380858e-003,-4.768579e-004
-1.821352e-003,-5.415219e-004
-2.305441e-003,-5.473563e-004
-2.671061e-003,-5.181845e-004
-2.824862e-003,-4.689167e-004
-2.788721e-003,-4.076560e-004
-2.663444e-003,-3.486642e-004
-2.544974e-003,-3.162512e-004
-2.479986e-003,-3.248406e-004
-2.456648e-003,-3.685983e-004
-2.426666e-003,-4.272659e-004
-2.340934e-003,-4.815578e-004
-2.170927e-003,-5.207775e-004
-1.897522e-003,-5.433046e-004
-1.508241e-003,-5.621042e-004
-1.029662e-003,-5.932207e-004
-5.484907e-004,-6.445954e-004
-1.763888e-004,-7.094215e-004
1.072688e-006,-7.697098e-004
-2.210265e-005,-8.048780e-004
-1.729855e-004,-8.008264e-004
-3.405610e-004,-7.475069e-004
-4.412035e-004,-6.403818e-004
-4.460654e-004,-4.768579e-004
-3.812393e-004,-2.577456e-004
-2.995584e-004,-3.465141e-006
-2.444563e-004,2.436845e-004
-2.335979e-004,4.384870e-004
-2.535319e-004,5.477191e-004
-2.666592e-004,5.626291e-004
-2.378116e-004,5.046097e-004
-1.601823e-004,4.093153e-004
-4.576419e-005,3.080244e-004
9.766362e-005,2.180782e-004
2.590807e-004,1.407730e-004
4.237391e-004,7.562274e-005
5.772150e-004,2.441009e-005
7.070294e-004,-6.868512e-006
7.985964e-004,-1.529591e-005
8.363576e-004,-7.354708e-006
8.195028e-004,1.160693e-005
7.600248e-004,3.915804e-005
6.835299e-004,7.319175e-005
6.183797e-004,1.177597e-004
5.885596e-004,1.748067e-004
5.982835e-004,2.446569e-004
6.268070e-004,3.201793e-004
6.725095e-004,3.875985e-004
7.624558e-004,4.242253e-004
8.959977e-004,4.089912e-004
1.023868e-003,3.352514e-004
1.084480e-003,2.151610e-004
1.044288e-003,7.124698e-005
9.065320e-004,-6.910160e-005
6.862851e-004,-1.840059e-004
4.190392e-004,-2.663351e-004
1.676758e-004,-3.146305e-004
6.096713e-006,-3.355369e-004
-5.409925e-006,-3.379679e-004
1.503348e-004,-3.316474e-004
4.363802e-004,-3.335922e-004
7.739624e-004,-3.600088e-004
1.079942e-003,-4.128421e-004
1.312020e-003,-4.826922e-004
1.482189e-003,-5.598352e-004
1.610221e-003,-6.338991e-004
1.684771e-003,-6.964563e-004
1.636638e-003,-7.431311e-004
1.370039e-003,-7.617687e-004
8.292268e-004,-7.327590e-004
3.932010e-005,-6.369783e-004
-8.735937e-004,-4.611375e-004
-1.733188e-003,-2.016710e-004
-2.395225e-003,1.308870e-004
-2.803793e-003,5.015305e-004
-2.993248e-003,8.634226e-004
-2.999406e-003,1.172482e-003
-2.813841e-003,1.382681e-003
-2.415484e-003,1.465658e-003
-1.836910e-003,1.424494e-003
-1.172604e-003,1.289169e-003
-5.274222e-004,1.101335e-003
2.716520e-005,8.990770e-004
4.498316e-004,7.097846e-004
7.075156e-004,5.478812e-004
7.752589e-004,4.143393e-004
6.754267e-004,3.073762e-004
5.007202e-004,2.255332e-004
3.827366e-004,1.684862e-004
4.200116e-004,1.245665e-004
6.258346e-004,8.275361e-005
9.240351e-004,3.510640e-005
1.200195e-003,-1.497178e-005
1.359181e-003,-6.521203e-005
1.355454e-003,-1.154523e-004
1.204246e-003,-1.627753e-004
9.549896e-004,-2.011848e-004
6.653786e-004,-2.230636e-004
3.905157e-004,-2.224154e-004
1.816135e-004,-1.989159e-004
5.925414e-005,-1.583996e-004
1.290346e-005,-1.044318e-004
1.906194e-005,-4.122636e-005
4.969228e-005,3.105477e-005
9.134307e-005,1.128978e-004
1.534141e-004,2.049509e-004
2.561635e-004,2.955454e-004
4.055878e-004,3.665300e-004
5.728393e-004,4.026706e-004
7.037881e-004,3.994293e-004
7.712073e-004,3.568061e-004
7.922758e-004,2.830664e-004
8.047549e-004,1.923098e-004
8.438127e-004,9.847395e-005
9.246834e-004,9.338019e-006
1.028243e-003,-7.444974e-005
1.115434e-003,-1.540238e-004
1.155627e-003,-2.290600e-004
1.142500e-003,-2.982619e-004
1.086911e-003,-3.520676e-004
9.883750e-004,-3.778360e-004
8.224201e-004,-3.660052e-004
5.629533e-004,-3.190063e-004
1.981441e-004,-2.420253e-004
-2.485079e-004,-1.410586e-004
-7.262763e-004,-3.198863e-005
-1.184111e-003,6.233338e-005
-1.588464e-003,1.291043e-004
-1.927829e-003,1.670276e-004
-2.199775e-003,1.864754e-004
-2.407542e-003,2.021958e-004
-2.577711e-003,2.229401e-004
-2.749663e-003,2.456293e-004
-2.919022e-003,2.602152e-004
-3.020637e-003,2.572980e-004
-2.955162e-003,2.276400e-004
-2.649668e-003,1.735102e-004
-2.111773e-003,1.075496e-004
-1.427209e-003,4.774750e-005
-7.157421e-004,9.986280e-006
-7.542214e-005,-4.437533e-006
4.465903e-004,-5.247859e-006
8.272820e-004,-5.409925e-006
1.058225e-003,-1.464765e-005
1.148496e-003,-3.604027e-005
1.131155e-003,-6.310517e-005
1.046719e-003,-8.709084e-005
9.358659e-004,-1.021629e-004
8.203132e-004,-1.052422e-004
7.058950e-004,-9.762508e-005
5.880735e-004,-8.530812e-005
4.728449e-004,-7.428768e-005
3.816021e-004,-6.731887e-005
3.333066e-004,-6.391550e-005
3.362238e-004,-5.710876e-005
3.812780e-004,-4.479180e-005
4.569625e-004,-3.198863e-005
5.642498e-004,-1.869928e-005
7.029778e-004,-6.868512e-006
8.593709e-004,-8.720958e-007
1.016250e-003,-2.654814e-006
1.173454e-003,-1.302699e-005
1.341678e-003,-2.761287e-005
1.517681e-003,-3.701266e-005
1.688336e-003,-3.992984e-005
1.847647e-003,-4.268495e-005
1.994965e-003,-5.095028e-005
2.101928e-003,-6.586029e-005
2.107763e-003,-8.174268e-005
1.961580e-003,-9.260106e-005
1.668078e-003,-9.649063e-005
1.299703e-003,-9.486997e-005
9.554758e-004,-8.709084e-005
7.049225e-004,-7.428768e-005
5.621430e-004,-5.483985e-005
5.010443e-004,-3.069211e-005
4.848377e-004,-8.327101e-006
4.802999e-004,4.962256e-006
4.728449e-004,9.013888e-006
4.783551e-004,1.160693e-005
5.251920e-004,1.760335e-005
6.245381e-004,2.570661e-005
7.481941e-004,3.137890e-005
8.306854e-004,3.688912e-005
7.985964e-004,4.304760e-005
6.305345e-004,5.034054e-005
3.686369e-004,5.763348e-005
7.675719e-005,6.168512e-005
-2.052364e-004,6.022653e-005
-4.715097e-004,5.471631e-005
-7.316245e-004,5.001641e-005
-1.005677e-003,5.098881e-005
-1.302094e-003,5.568870e-005
-1.570312e-003,6.119892e-005
-1.731081e-003,6.508849e-005
-1.728326e-003,6.589881e-005
-1.558482e-003,6.476436e-005
-1.266440e-003,6.622294e-005
-9.233477e-004,7.432621e-005
-5.919242e-004,9.085687e-005
-3.019894e-004,1.125736e-004
-6.018800e-005,1.328318e-004
1.373696e-004,1.433660e-004
2.848491e-004,1.425557e-004
3.668542e-004,1.328318e-004
3.778746e-004,1.175977e-004
3.305515e-004,9.847395e-005
2.453051e-004,8.323980e-005
1.540623e-004,7.319175e-005
9.344992e-005,6.670914e-005
7.124698e-005,6.055066e-005
3.656499e-005,4.953022e-005
-9.260106e-005,3.089270e-005
-3.948528e-004,7.069104e-006
-8.974173e-004,-1.529591e-005
-1.553782e-003,-3.247483e-005
-2.228460e-003,-4.171255e-005
-2.736536e-003,-4.122636e-005
-2.953380e-003,-3.263690e-005
-2.860516e-003,-1.756482e-005
-2.527795e-003,-2.006553e-006
-2.071419e-003,7.069104e-006
-1.616501e-003,5.448451e-006
-1.263847e-003,-4.437533e-006
-1.052352e-003,-1.740276e-005
-9.554367e-004,-2.971972e-005
-9.207547e-004,-3.928157e-005
-9.081136e-004,-4.057810e-005
-8.983896e-004,-2.923352e-005
-8.810487e-004,-5.734055e-006
-8.452322e-004,2.068259e-005
-7.849439e-004,4.288554e-005
-7.029389e-004,5.666109e-005
-5.959758e-004,6.200925e-005
-4.732924e-004,5.876794e-005
-3.950149e-004,4.580272e-005
-4.389346e-004,2.181705e-005
-5.993792e-004,-8.327101e-006
-7.716546e-004,-3.685059e-005
-8.265947e-004,-6.116039e-005
-7.005080e-004,-8.368747e-005
-4.212695e-004,-1.015147e-004
-6.683268e-005,-1.102662e-004
2.871180e-004,-1.102662e-004
5.929354e-004,-1.063766e-004
8.363576e-004,-1.126972e-004
1.023543e-003,-1.442999e-004
1.169889e-003,-2.088019e-004
1.296138e-003,-2.987481e-004
1.427087e-003,-3.872357e-004
1.578294e-003,-4.386105e-004
1.740035e-003,-4.162455e-004
1.878278e-003,-3.091203e-004
1.948614e-003,-1.331174e-004
1.918470e-003,8.583285e-005
1.785738e-003,3.221241e-004
1.580239e-003,5.490156e-004
1.353509e-003,7.360392e-004
1.155303e-003,8.613158e-004
1.012847e-003,9.164180e-004
9.188490e-004,9.029665e-004
8.457575e-004,8.277682e-004
7.673178e-004,7.101087e-004
6.825575e-004,5.789977e-004
6.020110e-004,4.649037e-004
5.269747e-004,3.905157e-004
4.383250e-004,3.621542e-004
3.119140e-004,3.662059e-004
1.432040e-004,3.788470e-004
-4.155049e-005,3.809539e-004
-1.994021e-004,3.668542e-004
-2.848105e-004,3.441650e-004
-2.622834e-004,3.201793e-004
-1.271210e-004,2.924662e-004
7.772959e-005,2.558394e-004
2.760976e-004,2.018716e-004
3.994293e-004,1.297525e-004
4.213081e-004,4.888196e-005
3.436788e-004,-2.923352e-005
1.840444e-004,-9.843541e-005
-3.409548e-005,-1.502963e-004
-2.802727e-004,-1.759026e-004
-5.183466e-004,-1.648822e-004
-7.065043e-004,-1.157764e-004
-8.060124e-004,-4.187462e-005
-7.898059e-004,3.640293e-005
-6.460540e-004,1.017153e-004
-3.870737e-004,1.316973e-004
-5.516398e-005,1.041462e-004
2.910076e-004,1.290346e-005
6.008766e-004,-1.256624e-004
8.412196e-004,-2.831898e-004
9.943715e-004,-4.249970e-004
1.062601e-003,-5.162397e-004
1.055956e-003,-5.277464e-004
9.886991e-004,-4.553032e-004
8.849773e-004,-3.237062e-004
7.621317e-004,-1.810887e-004
6.200003e-004,-7.526008e-005
4.600418e-004,-3.668853e-005
3.052693e-004,-6.877746e-005
1.895547e-004,-1.514308e-004
1.359110e-004,-2.472113e-004
1.257009e-004,-3.222476e-004
1.077117e-004,-3.557951e-004
5.001641e-005,-3.397506e-004
-3.685059e-005,-2.801106e-004
-1.230693e-004,-1.812508e-004
-1.883817e-004,-5.030201e-005
-2.267911e-004,9.069480e-005
-2.449424e-004,2.075439e-004
-2.632558e-004,2.683184e-004
-3.089582e-004,2.461155e-004
-4.013354e-004,1.414213e-004
-5.384427e-004,-1.335112e-005
-6.787912e-004,-1.754164e-004
-7.308142e-004,-3.063652e-004
-5.784728e-004,-3.708672e-004
-1.583996e-004,-3.457470e-004
4.906721e-004,-2.253325e-004
1.239415e-003,-9.299492e-006
1.923332e-003,2.906834e-004
2.407747e-003,6.410688e-004
2.630750e-003,9.843234e-004
2.605630e-003,1.240549e-003
2.386354e-003,1.328551e-003
2.019923e-003,1.198574e-003
1.541829e-003,8.648811e-004
9.833510e-004,4.098015e-004
3.600474e-004,-5.402952e-005
-3.232200e-004,-4.316416e-004
-1.045383e-003,-6.739292e-004
-1.750043e-003,-7.737615e-004
-2.380964e-003,-7.562584e-004
-2.922911e-003,-6.606399e-004
-3.397116e-003,-5.236947e-004
-3.849280e-003,-3.770256e-004
-4.282159e-003,-2.465631e-004
-4.625578e-003,-1.439758e-004
-4.773870e-003,-6.634648e-005
-4.661071e-003,-5.571990e-006
-4.296583e-003,4.045456e-005
-3.734375e-003,6.395403e-005
-3.031495e-003,5.455424e-005
-2.248718e-003,8.851824e-006
-1.452977e-003,-6.877746e-005
-6.941874e-004,-1.669890e-004
1.047248e-005,-2.708729e-004
6.418792e-004,-3.643846e-004
1.166809e-003,-4.366657e-004
1.551391e-003,-4.786406e-004
1.798703e-003,-4.869059e-004
1.944563e-003,-4.612996e-004
2.034185e-003,-4.061974e-004
2.063195e-003,-3.274337e-004
1.960769e-003,-2.373254e-004
1.678937e-003,-1.491618e-004
1.271342e-003,-7.607040e-005
8.694190e-004,-2.907146e-005
6.037937e-004,-1.205460e-005
5.486915e-004,-2.048200e-005
6.976296e-004,-4.835723e-005
9.820545e-004,-9.081834e-005
1.293869e-003,-1.423551e-004
1.530160e-003,-1.971332e-004
1.631452e-003,-2.444563e-004
1.593366e-003,-2.690902e-004
1.451558e-003,-2.541802e-004
1.254811e-003,-1.904885e-004
1.041046e-003,-7.963584e-005
8.274441e-004,7.205730e-005
6.247002e-004,2.603772e-004
4.569625e-004,4.699277e-004
3.491890e-004,6.551685e-004
3.070520e-004,7.606731e-004
3.198552e-004,7.494906e-004
3.760919e-004,6.285898e-004
4.736553e-004,4.448076e-004
6.071971e-004,2.548670e-004
7.595387e-004,1.000946e-004
9.047493e-004,-2.654814e-006
9.976128e-004,-5.565017e-005
9.919406e-004,-7.218083e-005
8.804395e-004,-6.407756e-005
6.992503e-004,-3.490581e-005
5.068786e-004,2.003433e-005
3.628025e-004,1.015532e-004
3.033245e-004,2.072198e-004
3.287688e-004,3.232586e-004
4.146634e-004,4.230909e-004
5.188715e-004,4.814344e-004
6.005524e-004,4.871067e-004
6.318311e-004,4.475627e-004
6.117350e-004,3.794953e-004
5.593878e-004,2.979764e-004
4.999098e-004,2.169437e-004
4.608521e-004,1.449867e-004
4.652278e-004,8.712937e-005
5.290816e-004,4.466826e-005
6.590580e-004,1.598270e-005
8.455954e-004,-4.923729e-006
1.070218e-003,-2.404744e-005
1.291924e-003,-4.300908e-005
1.451234e-003,-6.148453e-005
1.484944e-003,-7.769105e-005
1.343299e-003,-9.211487e-005
1.025164e-003,-1.081593e-004
5.820770e-004,-1.261486e-004
1.022014e-004,-1.455964e-004
-3.185201e-004,-1.613168e-004
-6.186650e-004,-1.695821e-004
-7.792716e-004,-1.708786e-004
-8.191397e-004,-1.674752e-004
-7.870508e-004,-1.582375e-004
-7.528550e-004,-1.446240e-004
-7.878611e-004,-1.276072e-004
-9.465230e-004,-1.092938e-004
-1.242454e-003,-9.324932e-005
-1.638704e-003,-8.255302e-005
-2.055860e-003,-7.720485e-005
-2.403491e-003,-7.250496e-005
-2.626817e-003,-6.991192e-005
-2.733618e-003,-7.088431e-005
-2.764573e-003,-7.493595e-005
-2.758901e-003,-8.028410e-005
-2.751932e-003,-8.838737e-005
-2.747556e-003,-9.892161e-005
-2.702826e-003,-1.107524e-004
-2.570905e-003,-1.198280e-004
-2.347254e-003,-1.199901e-004
-2.061857e-003,-1.063766e-004
-1.743074e-003,-7.671866e-005
-1.414730e-003,-2.890940e-005
-1.098540e-003,3.316162e-005
-8.045539e-004,1.056048e-004
-5.209396e-004,1.825858e-004
-2.245222e-004,2.508154e-004
1.038221e-004,2.984626e-004
4.512902e-004,3.159656e-004
7.880622e-004,3.047831e-004
1.071677e-003,2.726942e-004
1.255945e-003,2.284503e-004
1.310886e-003,1.814514e-004
1.245735e-003,1.441764e-004
1.103117e-003,1.258630e-004
9.293832e-004,1.263492e-004
7.572697e-004,1.396385e-004
5.686256e-004,1.509831e-004
3.167760e-004,1.527658e-004
3.179537e-006,1.428798e-004
-2.940482e-004,1.245665e-004
-4.684305e-004,1.052807e-004
-4.689167e-004,8.972242e-005
-3.175477e-004,7.821578e-005
-7.396355e-005,7.270556e-005
2.049509e-004,6.995045e-005
4.618245e-004,7.108490e-005
6.234036e-004,7.772959e-005
6.167590e-004,9.199134e-005
4.553419e-004,1.130598e-004
2.372019e-004,1.354248e-004
6.865393e-005,1.535762e-004
4.151929e-006,1.694586e-004
3.364782e-005,1.845306e-004
1.039842e-004,1.940925e-004
1.490383e-004,1.947408e-004
1.278078e-004,1.858272e-004
3.559260e-005,1.730240e-004
-1.141557e-004,1.628139e-004
-3.068514e-004,1.595726e-004
-5.300153e-004,1.615174e-004
-7.432931e-004,1.655690e-004
-9.073032e-004,1.650828e-004
-1.039224e-003,1.584381e-004
-1.171956e-003,1.425557e-004
-1.295612e-003,1.216493e-004
-1.339531e-003,1.004187e-004
-1.222358e-003,7.805372e-005
-9.158927e-004,5.504044e-005
-4.577342e-004,3.607880e-005
8.340186e-005,2.246531e-005
6.376654e-004,1.857574e-005
1.148334e-003,1.922400e-005
1.573432e-003,1.971020e-005
1.881033e-003,1.760335e-005
2.057685e-003,9.662150e-006
2.106466e-003,-3.789271e-006
2.064815e-003,-1.756482e-005
2.010361e-003,-2.793700e-005
2.014089e-003,-3.571614e-005
2.073729e-003,-3.960571e-005
2.126887e-003,-3.749886e-005
2.118946e-003,-2.761287e-005
2.044071e-003,-1.562004e-005
1.937270e-003,-9.137427e-006
1.845216e-003,-1.335112e-005
1.800000e-003,-2.404744e-005
1.808427e-003,-3.231276e-005
1.844730e-003,-2.939559e-005
1.856723e-003,-1.254080e-005
1.796759e-003,7.069104e-006
1.652034e-003,1.646889e-005
1.455448e-003,1.306552e-005
1.265021e-003,9.106226e-007
1.108628e-003,-1.189254e-005
9.434829e-004,-1.999580e-005
6.964952e-004,-2.356124e-005
3.350894e-004,-2.210265e-005
-1.096179e-004,-1.967167e-005
-5.591870e-004,-1.853721e-005
-9.188099e-004,-1.562004e-005
-1.121878e-003,-6.544382e-006
-1.158829e-003,8.689757e-006
-1.070989e-003,2.716520e-005
-9.262649e-004,4.612685e-005
-7.927230e-004,6.103685e-005
-7.172007e-004,6.703327e-005
-7.081250e-004,5.909207e-005
-7.419966e-004,3.867184e-005
-7.765166e-004,1.355172e-005
-7.755441e-004,-6.220251e-006
-7.230350e-004,-1.707863e-005
-6.099135e-004,-2.210265e-005
-4.369898e-004,-2.550602e-005
-2.216050e-004,-3.134038e-005
-8.720958e-007,-3.668853e-005
1.835582e-004,-3.782299e-005
3.026763e-004,-3.312309e-005
3.571302e-004,-3.215070e-005
3.738230e-004,-3.782299e-005
3.841952e-004,-5.013995e-005
3.987810e-004,-6.521203e-005
4.002396e-004,-7.526008e-005
3.556717e-004,-7.931171e-005
2.409294e-004,-8.077029e-005
5.601283e-005,-8.465986e-005
-1.752544e-004,-9.065627e-005
-4.130041e-004,-9.924574e-005
-6.230407e-004,-1.164247e-004
-8.042298e-004,-1.483515e-004
-9.849325e-004,-1.947022e-004
-1.196914e-003,-2.517492e-004
-1.437743e-003,-3.120375e-004
-1.663014e-003,-3.685983e-004
-1.809197e-003,-4.104111e-004
-1.831238e-003,-4.269418e-004
-1.717792e-003,-4.177041e-004
-1.486038e-003,-3.895047e-004
-1.180545e-003,-3.485022e-004
-8.646800e-004,-2.934000e-004
-6.066721e-004,-2.203085e-004
-4.535204e-004,-1.405724e-004
-4.044147e-004,-6.569822e-005
-4.155972e-004,1.720949e-006
-4.188385e-004,6.314371e-005
-3.630880e-004,1.206769e-004
-2.350565e-004,1.756170e-004
-6.699474e-005,2.312054e-004
9.588090e-005,2.892249e-004
2.162954e-004,3.545372e-004
2.780423e-004,4.271425e-004
2.901973e-004,4.955340e-004
2.814457e-004,5.363746e-004
2.759355e-004,5.334574e-004
2.900352e-004,4.916445e-004
3.247172e-004,4.258459e-004
3.653956e-004,3.498373e-004
3.880847e-004,2.673460e-004
3.775505e-004,1.814514e-004
3.294171e-004,1.043083e-004
2.516257e-004,6.006446e-005
1.620035e-004,6.978838e-005
7.724339e-005,1.432040e-004
9.106226e-007,2.681563e-004
-7.072224e-005,4.140152e-004
-1.274451e-004,5.399400e-004
-1.472171e-004,6.136798e-004
-1.123730e-004,6.234036e-004
-2.210265e-005,5.794839e-004
9.896014e-005,5.008822e-004
2.146748e-004,4.102877e-004
2.936006e-004,3.230965e-004
3.264999e-004,2.459534e-004
3.243930e-004,1.843686e-004
3.094830e-004,1.441764e-004
2.937627e-004,1.226217e-004
2.602152e-004,1.056048e-004
1.791825e-004,8.469840e-005
3.186510e-005,6.103685e-005
-1.875713e-004,3.105477e-005
-4.577342e-004,-1.383732e-005
-7.379450e-004,-7.477388e-005
-9.713190e-004,-1.449481e-004
-1.101133e-003,-2.115570e-004
-1.092544e-003,-2.574215e-004
-9.575435e-004,-2.674695e-004
-7.502619e-004,-2.418632e-004
-5.350393e-004,-1.903264e-004
-3.564433e-004,-1.280934e-004
-2.269532e-004,-7.088431e-005
-1.305243e-004,-3.377135e-005
-4.544005e-005,-2.826113e-005
4.256141e-005,-6.602235e-005
1.365593e-004,-1.494860e-004
2.243987e-004,-2.674695e-004
2.869559e-004,-4.006872e-004
3.111037e-004,-5.269360e-004
2.905214e-004,-6.240131e-004
2.115955e-004,-6.723086e-004
6.379197e-005,-6.556159e-004
-1.507825e-004,-5.587008e-004
-4.074939e-004,-3.736223e-004
-6.565882e-004,-1.065387e-004
-8.350221e-004,2.156472e-004
-8.970931e-004,5.462606e-004
-8.330774e-004,8.421920e-004
-6.640432e-004,1.074270e-003
-4.280762e-004,1.226125e-003
-1.569410e-004,1.293707e-003
1.214872e-004,1.279283e-003
3.764160e-004,1.190147e-003
5.853183e-004,1.040236e-003
7.420356e-004,8.507815e-004
8.509436e-004,6.407447e-004
9.199834e-004,4.264942e-004
9.561240e-004,2.172678e-004
9.710341e-004,1.906194e-005
9.771925e-004,-1.643960e-004
9.963163e-004,-3.250027e-004
1.055956e-003,-4.528722e-004
1.177668e-003,-5.363358e-004
1.350268e-003,-5.619422e-004
1.524974e-003,-5.211016e-004
1.638582e-003,-4.211074e-004
1.631127e-003,-2.890242e-004
1.463065e-003,-1.499722e-004
1.154979e-003,-3.004385e-005
7.681281e-004,4.661304e-005
3.449753e-004,6.217131e-005
-1.037836e-004,9.338019e-006
-5.698833e-004,-1.086455e-004
-1.002111e-003,-2.739521e-004
-1.312953e-003,-4.648650e-004
-1.418943e-003,-6.530228e-004
-1.277947e-003,-8.047159e-004
-9.225374e-004,-8.954725e-004
-4.561135e-004,-9.189720e-004
-5.734055e-006,-8.859106e-004
3.248792e-004,-8.107123e-004
4.838654e-004,-7.026148e-004
4.837033e-004,-5.632387e-004
3.871123e-004,-3.935563e-004
2.754493e-004,-2.006986e-004
2.080301e-004,-1.682422e-006
1.952270e-004,1.658931e-004
1.996027e-004,2.581083e-004
1.667035e-004,2.519498e-004
7.643306e-005,1.602208e-004
-3.215070e-005,2.295151e-005
-8.222889e-005,-1.157764e-004
-2.226472e-005,-2.199844e-004
1.592484e-004,-2.733039e-004
4.483731e-004,-2.812450e-004
8.240407e-004,-2.664971e-004
1.250921e-003,-2.472113e-004
1.652682e-003,-2.371633e-004
1.920577e-003,-2.361909e-004
1.963038e-003,-2.298704e-004
1.742466e-003,-2.028055e-004
1.289979e-003,-1.512687e-004
7.011950e-004,-8.547019e-005
1.020394e-004,-2.015787e-005
-4.134903e-004,3.397195e-005
-7.996919e-004,7.011251e-005
-1.036469e-003,8.486046e-005
-1.118799e-003,8.097089e-005
-1.052514e-003,6.573675e-005
-8.564147e-004,4.677511e-005
-5.643732e-004,2.910999e-005
-2.246843e-004,1.517237e-005
1.112771e-004,5.772582e-006
3.901916e-004,5.448451e-006
5.532294e-004,1.614476e-005
5.564707e-004,2.554455e-005
3.992672e-004,1.630683e-005
1.441764e-004,-2.048200e-005
-1.123730e-004,-7.850138e-005
-2.857829e-004,-1.404103e-004
-3.509331e-004,-1.943781e-004
-3.776739e-004,-2.441321e-004
-4.470378e-004,-2.985860e-004
-5.530285e-004,-3.616295e-004
-5.962999e-004,-4.319658e-004
-4.694028e-004,-4.972781e-004
-1.491618e-004,-5.374703e-004
2.804733e-004,-5.400633e-004
7.007089e-004,-5.040848e-004
1.027757e-003,-4.356933e-004
1.235201e-003,-3.394265e-004
1.340057e-003,-2.065330e-004
1.380250e-003,-2.777494e-005
1.387705e-003,1.981441e-004
1.367771e-003,4.665244e-004
1.308941e-003,7.587283e-004
1.204571e-003,1.047205e-003
1.052877e-003,1.294031e-003
8.434885e-004,1.468737e-003
5.699221e-004,1.561763e-003
2.441707e-004,1.579266e-003
-1.109144e-004,1.530322e-003
-4.773441e-004,1.423683e-003
-8.385876e-004,1.274745e-003
-1.176332e-003,1.097769e-003
-1.464322e-003,9.147974e-004
-1.685055e-003,7.504629e-004
-1.856520e-003,6.227554e-004
-2.028147e-003,5.310263e-004
-2.247260e-003,4.621486e-004
-2.524392e-003,3.948915e-004
-2.847713e-003,3.169380e-004
-3.196478e-003,2.289365e-004
-3.540706e-003,1.435281e-004
-3.851873e-003,7.351588e-005
-4.104858e-003,1.987226e-005
-4.280052e-003,-2.631635e-005
-4.349255e-003,-7.558420e-005
-4.274704e-003,-1.306864e-004
-4.014588e-003,-1.896782e-004
-3.545244e-003,-2.480217e-004
-2.873157e-003,-3.021515e-004
-2.037547e-003,-3.507711e-004
-1.099189e-003,-3.912874e-004
-1.263107e-004,-4.168937e-004
7.908173e-004,-4.227281e-004
1.560467e-003,-4.053871e-004
2.125914e-003,-3.734602e-004
2.481811e-003,-3.345645e-004
2.658139e-003,-2.864312e-004
2.695739e-003,-2.313289e-004
2.629454e-003,-1.747682e-004
2.489753e-003,-1.186936e-004
2.318611e-003,-6.099833e-005
2.168214e-003,-1.196226e-006
2.086532e-003,6.038860e-005
2.092853e-003,1.208390e-004
2.169672e-003,1.788584e-004
2.278418e-003,2.261814e-004
2.391216e-003,2.504912e-004
2.499477e-003,2.375260e-004
2.600768e-003,1.777239e-004
2.692335e-003,7.513654e-005
2.746952e-003,-5.176060e-005
2.715349e-003,-1.789819e-004
2.545827e-003,-2.874036e-004
2.224450e-003,-3.637363e-004
1.811345e-003,-4.078180e-004
1.413149e-003,-4.248349e-004
1.115434e-003,-4.160834e-004
9.306798e-004,-3.786463e-004
8.049170e-004,-3.120375e-004
6.551685e-004,-2.199844e-004
4.321665e-004,-1.099420e-004
1.634621e-004,9.662150e-006
-8.417366e-005,1.344524e-004
-2.640661e-004,2.595669e-004
-3.637363e-004,3.741471e-004
-3.916115e-004,4.660382e-004
-3.695707e-004,5.222749e-004
-3.217614e-004,5.331332e-004
-2.718453e-004,4.982892e-004
-2.365150e-004,4.263321e-004
-2.194982e-004,3.331445e-004
-2.128535e-004,2.417397e-004
-2.172293e-004,1.696206e-004
-2.559629e-004,1.203528e-004
-3.694086e-004,8.615698e-005
-5.760418e-004,5.730935e-005
-8.509045e-004,2.975825e-005
-1.116854e-003,1.558884e-006
-1.257364e-003,-2.242678e-005
-1.206638e-003,-4.122636e-005
-1.015077e-003,-5.354332e-005
-8.240017e-004,-6.229485e-005
-7.436173e-004,-7.104637e-005
-7.948300e-004,-7.931171e-005
-9.380956e-004,-8.725291e-005
-1.099837e-003,-9.762508e-005
-1.193024e-003,-1.089697e-004
-1.144567e-003,-1.206384e-004
-9.350164e-004,-1.274451e-004
-6.191512e-004,-1.238797e-004
-3.181959e-004,-1.112386e-004
-1.720131e-004,-9.794922e-005
-2.535319e-004,-8.854943e-005
-5.063537e-004,-8.449779e-005
-7.727891e-004,-8.773910e-005
-8.932035e-004,-9.130454e-005
-7.878611e-004,-9.130454e-005
-4.882024e-004,-9.049421e-005
-1.007043e-004,-9.438377e-005
2.603772e-004,-1.068628e-004
5.183853e-004,-1.246900e-004
6.412309e-004,-1.438137e-004
6.329655e-004,-1.614788e-004
5.337815e-004,-1.783336e-004
4.122324e-004,-1.947022e-004
3.388168e-004,-2.128535e-004
3.556717e-004,-2.347323e-004
4.480489e-004,-2.564491e-004
5.624671e-004,-2.676316e-004
6.491721e-004,-2.570973e-004
6.780197e-004,-2.253325e-004
6.491721e-004,-1.822232e-004
5.974732e-004,-1.321450e-004
5.702462e-004,-7.201877e-005
5.986076e-004,9.106226e-007
6.786680e-004,8.680524e-005
7.810934e-004,1.775618e-004
8.718500e-004,2.576221e-004
9.287350e-004,3.182345e-004
9.402416e-004,3.553475e-004
9.036148e-004,3.636129e-004
8.358714e-004,3.418961e-004
7.666695e-004,3.034866e-004
7.120535e-004,2.637806e-004
6.603546e-004,2.333123e-004
5.914768e-004,2.114335e-004
4.956961e-004,1.936063e-004
3.924605e-004,1.759412e-004
3.154794e-004,1.560071e-004
2.738286e-004,1.360731e-004
2.299089e-004,1.198666e-004
1.315353e-004,1.106288e-004
-3.944364e-005,1.099806e-004
-2.556388e-004,1.151667e-004
-4.677822e-004,1.210010e-004
-6.368163e-004,1.226217e-004
-7.559343e-004,1.094944e-004
-8.379393e-004,7.675719e-005
-9.024413e-004,3.008238e-005
-9.555987e-004,-2.129233e-005
-9.927116e-004,-7.120844e-005
-9.938461e-004,-1.128592e-004
-9.427955e-004,-1.381414e-004
-8.481494e-004,-1.462447e-004
-7.502619e-004,-1.507825e-004
-6.946736e-004,-1.634236e-004
-6.992114e-004,-1.908126e-004
-7.441035e-004,-2.287359e-004
-8.026091e-004,-2.658489e-004
-8.701903e-004,-2.963171e-004
-9.520333e-004,-3.267854e-004
-1.051865e-003,-3.640604e-004
-1.174063e-003,-4.100870e-004
-1.320246e-003,-4.583824e-004
-1.464808e-003,-4.950092e-004
-1.542437e-003,-5.010056e-004
-1.484904e-003,-4.564376e-004
-1.258337e-003,-3.519055e-004
-8.682455e-004,-2.010227e-004
-3.613053e-004,-3.020592e-005
1.887443e-004,1.391524e-004
6.934159e-004,2.900352e-004
1.072649e-003,4.026706e-004
1.279769e-003,4.506420e-004
1.285765e-003,4.204978e-004
1.069894e-003,3.209897e-004
6.854748e-004,1.866375e-004
2.898731e-004,7.076077e-005
6.800567e-005,1.711715e-005
1.404489e-004,4.077869e-005
5.046097e-004,1.346145e-004
1.035698e-003,2.767458e-004
1.554308e-003,4.350837e-004
1.912636e-003,5.867769e-004
2.059791e-003,7.219394e-004
2.037751e-003,8.418679e-004
1.917173e-003,9.475346e-004
1.737604e-003,1.022409e-003
1.487537e-003,1.045260e-003
1.115597e-003,1.011875e-003
5.890458e-004,9.335970e-004
-6.488790e-005,8.300371e-004
-7.782993e-004,7.185361e-004
-1.486849e-003,6.071971e-004
-2.131869e-003,4.890515e-004
-2.642700e-003,3.626405e-004
-2.929880e-003,2.373639e-004
-2.940738e-003,1.261871e-004
-2.701853e-003,3.462021e-005
-2.303334e-003,-5.030201e-005
-1.843717e-003,-1.399241e-004
-1.389285e-003,-2.353806e-004
-9.696984e-004,-3.203028e-004
-6.092652e-004,-3.791325e-004
-3.337542e-004,-3.998769e-004
-1.705545e-004,-3.857772e-004
-1.297140e-004,-3.535262e-004
-1.836818e-004,-3.177098e-004
-2.707108e-004,-2.775176e-004
-3.224097e-004,-2.288980e-004
-2.989102e-004,-1.713648e-004
-1.900023e-004,-1.062145e-004
-8.720958e-007,-3.766092e-005
2.482223e-004,3.721326e-005
5.072028e-004,1.211631e-004
7.049225e-004,2.039785e-004
7.862794e-004,2.597290e-004
7.522457e-004,2.610255e-004
6.725095e-004,1.978200e-004
6.392861e-004,8.259154e-005
7.049225e-004,-5.548810e-005
8.598571e-004,-1.843300e-004
1.046232e-003,-2.802727e-004
1.199547e-003,-3.305129e-004
1.292572e-003,-3.426678e-004
1.348809e-003,-3.436402e-004
1.411204e-003,-3.569296e-004
1.500665e-003,-3.982562e-004
1.602604e-003,-4.723200e-004
1.677154e-003,-5.747453e-004
1.692550e-003,-6.911082e-004
1.639068e-003,-7.974230e-004
1.535022e-003,-8.604664e-004
1.414608e-003,-8.512287e-004
1.301648e-003,-7.507481e-004
1.202302e-003,-5.564319e-004
1.115272e-003,-2.791382e-004
1.057415e-003,5.066468e-005
1.060980e-003,3.819262e-004
1.142013e-003,6.613270e-004
1.284631e-003,8.332784e-004
1.448641e-003,8.619640e-004
1.595311e-003,7.519216e-004
1.680395e-003,5.456123e-004
1.637124e-003,2.952213e-004
1.407477e-003,4.515445e-005
9.917784e-004,-1.754164e-004
4.712243e-004,-3.525538e-004
-2.647842e-005,-4.875541e-004
-4.128421e-004,-5.857657e-004
-6.779809e-004,-6.467023e-004
-8.687317e-004,-6.608019e-004
-1.034038e-003,-6.222304e-004
-1.182328e-003,-5.361738e-004
-1.293505e-003,-4.146248e-004
-1.355900e-003,-2.736280e-004
-1.370000e-003,-1.302002e-004
-1.334831e-003,8.689757e-006
-1.250395e-003,1.376937e-004
-1.111506e-003,2.550291e-004
-9.077894e-004,3.587509e-004
-6.462161e-004,4.452938e-004
-3.630880e-004,5.106062e-004
-1.199901e-004,5.527431e-004
4.013043e-005,5.796460e-004
1.180839e-004,5.973111e-004
1.404489e-004,6.000663e-004
1.229458e-004,5.762426e-004
7.610893e-005,5.159543e-004
7.231170e-006,4.180668e-004
-8.433573e-005,2.974902e-004
-2.066950e-004,1.751308e-004
-3.673017e-004,6.962632e-005
-5.729626e-004,-7.678839e-006
-8.176811e-004,-5.192267e-005
-1.076013e-003,-6.310517e-005
-1.332725e-003,-4.949169e-005
-1.591705e-003,-2.971972e-005
-1.845013e-003,-3.150244e-005
-2.048405e-003,-7.736692e-005
-2.146293e-003,-1.736337e-004
-2.108207e-003,-3.087962e-004
-1.944197e-003,-4.507653e-004
-1.686999e-003,-5.533526e-004
-1.377617e-003,-5.734488e-004
-1.070503e-003,-4.935506e-004
-8.261085e-004,-3.215993e-004
-6.761981e-004,-8.822530e-005
-6.040791e-004,1.717275e-004
-5.403875e-004,4.208219e-004
-3.783222e-004,6.200003e-004
-3.377135e-005,7.306910e-004
5.000719e-004,7.323117e-004
1.149630e-003,6.399344e-004
1.804700e-003,4.901859e-004
2.358803e-003,3.230965e-004
2.717618e-003,1.746447e-004
2.811454e-003,6.751947e-005
2.614381e-003,4.638125e-006
2.137583e-003,-2.858526e-005
1.394349e-003,-5.338126e-005
4.234150e-004,-8.303921e-005
-6.228787e-004,-1.195039e-004
-1.508403e-003,-1.605064e-004
-2.067691e-003,-2.015089e-004
-2.271894e-003,-2.382978e-004
-2.207716e-003,-2.663351e-004
-1.983255e-003,-2.804347e-004
-1.669983e-003,-2.749245e-004
-1.299339e-003,-2.459148e-004
-8.804004e-004,-1.904885e-004
-4.352071e-004,-1.078352e-004
-1.432352e-005,2.531276e-006
3.300653e-004,1.360731e-004
5.867769e-004,2.712356e-004
7.908173e-004,3.754436e-004
9.820545e-004,4.226046e-004
1.158382e-003,4.026706e-004
1.275069e-003,3.243930e-004
1.289493e-003,2.104611e-004
1.195819e-003,8.372600e-005
1.030674e-003,-3.377135e-005
8.504573e-004,-1.253383e-004
7.089743e-004,-1.880575e-004
6.319931e-004,-2.263049e-004
6.172452e-004,-2.467252e-004
6.392861e-004,-2.486699e-004
6.733198e-004,-2.332737e-004
7.020054e-004,-2.026434e-004
7.212912e-004,-1.608306e-004
7.327978e-004,-1.135075e-004
7.371736e-004,-6.845333e-005
7.261531e-004,-3.766092e-005
6.830437e-004,-2.988179e-005
5.961767e-004,-4.252288e-005
4.629589e-004,-6.051213e-005
2.979764e-004,-7.218083e-005
1.161391e-004,-7.655659e-005
-6.829127e-005,-7.461181e-005
-2.264670e-004,-6.067420e-005
-3.125237e-004,-2.761287e-005
-2.955068e-004,2.424803e-005
-1.759026e-004,9.312579e-005
1.517237e-005,1.770756e-004
2.271538e-004,2.769079e-004
4.025085e-004,3.837089e-004
4.997478e-004,4.824068e-004
5.104441e-004,5.545259e-004
4.514523e-004,5.887217e-004
3.495132e-004,5.747841e-004
2.316917e-004,5.146578e-004
1.172735e-004,4.229288e-004
1.484824e-005,3.196932e-004
-7.363942e-005,2.205091e-004
-1.439758e-004,1.346145e-004
-1.823852e-004,6.849186e-005
-1.702303e-004,2.829966e-005
-1.011905e-004,1.646889e-005
2.207145e-006,3.089270e-005
1.190562e-004,6.330577e-005
2.566497e-004,1.007429e-004
4.292493e-004,1.320215e-004
6.381517e-004,1.483901e-004
8.634226e-004,1.427178e-004
1.074270e-003,1.188942e-004
1.244925e-003,8.729143e-005
1.358857e-003,5.763348e-005
1.403425e-003,3.478227e-005
1.374091e-003,1.501031e-005
1.279769e-003,-8.165034e-006
1.145254e-003,-4.155049e-005
9.932371e-004,-8.093235e-005
8.423541e-004,-1.169109e-004
7.128638e-004,-1.408965e-004
6.089798e-004,-1.496480e-004
5.008822e-004,-1.473791e-004
3.198552e-004,-1.438137e-004
-1.707863e-005,-1.501342e-004
-5.570801e-004,-1.788198e-004
-1.279891e-003,-2.345703e-004
-2.104642e-003,-3.100927e-004
-2.927773e-003,-3.909633e-004
-3.659501e-003,-4.570859e-004
-4.253960e-003,-4.878783e-004
-4.713256e-003,-4.630823e-004
-4.968187e-003,-3.754050e-004
-4.968349e-003,-2.355427e-004
-4.968187e-003,-6.472583e-005
-4.922485e-003,1.093323e-004
-4.295449e-003,2.608634e-004
-3.394361e-003,3.728506e-004
-2.347254e-003,4.417284e-004
-1.305660e-003,4.717104e-004
-3.890185e-004,4.639313e-004
3.375203e-004,4.219564e-004
8.621261e-004,3.569682e-004
1.216077e-003,2.859835e-004
1.453827e-003,2.252090e-004
1.632100e-003,1.843686e-004
1.798541e-003,1.605450e-004
1.971141e-003,1.467694e-004
2.136611e-003,1.372075e-004
2.269180e-003,1.300767e-004
2.353941e-003,1.210010e-004
2.395430e-003,1.060910e-004
2.421361e-003,8.340186e-005
2.461391e-003,5.487837e-005
2.517304e-003,2.278944e-005
2.545665e-003,-8.165034e-006
2.482946e-003,-3.522994e-005
2.297380e-003,-5.629843e-005
2.001286e-003,-7.607040e-005
1.648144e-003,-9.276313e-005
1.299865e-003,-1.071869e-004
9.904819e-004,-1.225831e-004
6.932539e-004,-1.407345e-004
3.469201e-004,-1.671511e-004
-1.011905e-004,-2.013469e-004
-6.342232e-004,-2.394322e-004
-1.158666e-003,-2.768693e-004
-1.564802e-003,-3.070135e-004
-1.792342e-003,-3.215993e-004
-1.841286e-003,-3.207890e-004
-1.770787e-003,-3.052307e-004
-1.661717e-003,-2.697384e-004
-1.560426e-003,-2.047502e-004
-1.460756e-003,-1.079973e-004
-1.338397e-003,1.825161e-005
-1.183462e-003,1.641104e-004
-1.012160e-003,3.124002e-004
-8.274050e-004,4.367043e-004
-6.165581e-004,5.093096e-004
-3.809152e-004,5.154681e-004
-1.606685e-004,4.579349e-004
-2.145439e-005,3.555096e-004
-1.853721e-005,2.323399e-004
-1.280934e-004,1.137081e-004
-2.613110e-004,2.278944e-005
-3.243544e-004,-2.761287e-005
-2.517492e-004,-3.863331e-005
-2.177852e-005,-2.404744e-005
3.281205e-004,1.396819e-006
7.318255e-004,3.105477e-005
1.126779e-003,6.557468e-005
1.485592e-003,1.009049e-004
1.813938e-003,1.383420e-004
2.126076e-003,1.775618e-004
2.392351e-003,2.120818e-004
2.536590e-003,2.367157e-004
2.500611e-003,2.456293e-004
2.303052e-003,2.355812e-004
2.037588e-003,2.090025e-004
1.801296e-003,1.686482e-004
1.635017e-003,1.203528e-004
1.533888e-003,7.124698e-005
1.475706e-003,2.700314e-005
1.433245e-003,-1.010982e-005
1.374577e-003,-4.608832e-005
1.266317e-003,-8.190475e-005
1.094690e-003,-1.204763e-004
8.791430e-004,-1.666649e-004
6.587339e-004,-2.203085e-004
4.645796e-004,-2.686040e-004
3.047831e-004,-3.029618e-004
1.681620e-004,-3.175477e-004
4.029249e-005,-3.053928e-004
-8.563225e-005,-2.653627e-004
-2.042640e-004,-2.073433e-004
-3.068514e-004,-1.394379e-004
-3.859392e-004,-7.104637e-005
-4.269418e-004,-1.594417e-005
-4.191626e-004,1.322759e-005
-3.814014e-004,1.679302e-005
-3.515814e-004,6.907039e-006
-3.497987e-004,-4.437533e-006
-3.579019e-004,-9.785687e-006
-3.391023e-004,-8.720958e-007
-2.771934e-004,2.684107e-005
-1.856265e-004,7.043664e-005
-8.968388e-005,1.177597e-004
3.341602e-006,1.550348e-004
9.328785e-005,1.746447e-004
1.568175e-004,1.751308e-004
1.508210e-004,1.645966e-004
2.214118e-005,1.568175e-004
-2.491561e-004,1.637863e-004
-6.298475e-004,1.937684e-004
-1.063210e-003,2.453051e-004
-1.480690e-003,3.185587e-004
-1.803038e-003,4.046154e-004
-1.964455e-003,4.858101e-004
-1.935770e-003,5.456123e-004
-1.739995e-003,5.679773e-004
-1.450708e-003,5.409124e-004
-1.161746e-003,4.660382e-004
-9.385818e-004,3.613439e-004
-8.017988e-004,2.572980e-004
