6.269691e-004,1.291043e-004
6.660269e-004,3.478227e-005
7.259911e-004,-5.419158e-005
7.691005e-004,-1.376552e-004
7.577559e-004,-2.117190e-004
6.676475e-004,-2.739521e-004
4.982892e-004,-3.303509e-004
2.790147e-004,-3.908012e-004
4.304760e-005,-4.632444e-004
-1.961608e-004,-5.505976e-004
-4.293727e-004,-6.441093e-004
-6.220684e-004,-7.301659e-004
-7.201179e-004,-7.813785e-004
-6.864083e-004,-7.727891e-004
-5.283947e-004,-6.862462e-004
-3.015032e-004,-5.282326e-004
-7.137050e-005,-3.185201e-004
1.218114e-004,-8.676671e-005
2.597290e-004,1.360731e-004
3.300653e-004,3.175863e-004
3.323342e-004,4.457800e-004
2.889007e-004,5.290816e-004
2.273159e-004,5.699221e-004
1.647587e-004,5.640878e-004
1.018773e-004,5.138475e-004
2.684107e-005,4.302217e-004
-6.845333e-005,3.318480e-004
-1.788198e-004,2.441707e-004
-2.862691e-004,1.936063e-004
-3.768636e-004,1.963614e-004
-4.454172e-004,2.495188e-004
-4.838267e-004,3.297412e-004
-4.847991e-004,3.991052e-004
-4.459034e-004,4.279528e-004
-3.745946e-004,4.068843e-004
-2.906448e-004,3.496752e-004
-2.165810e-004,2.762596e-004
-1.626133e-004,2.049509e-004
-1.295519e-004,1.396385e-004
-1.104282e-004,6.751947e-005
-9.843541e-005,-2.858526e-005
-9.130454e-005,-1.571030e-004
-9.065627e-005,-3.144684e-004
-9.924574e-005,-4.851232e-004
-1.191798e-004,-6.549676e-004
-1.564548e-004,-8.139536e-004
-2.117190e-004,-9.568952e-004
-2.653627e-004,-1.072772e-003
-2.899966e-004,-1.137274e-003
-2.671454e-004,-1.128847e-003
-1.938919e-004,-1.043276e-003
-8.190475e-005,-8.932035e-004
4.450619e-005,-7.050458e-004
1.641104e-004,-5.027883e-004
2.624841e-004,-3.026377e-004
3.358997e-004,-1.123730e-004
3.884088e-004,6.379197e-005
4.268184e-004,2.198609e-004
4.542074e-004,3.512959e-004
4.815964e-004,4.532350e-004
5.339436e-004,5.166026e-004
6.292380e-004,5.352401e-004
7.656971e-004,5.083373e-004
9.314901e-004,4.504799e-004
1.119810e-003,3.830607e-004
1.317530e-003,3.264999e-004
1.481217e-003,2.929523e-004
1.560305e-003,2.817698e-004
1.541019e-003,2.863077e-004
1.445562e-003,2.950592e-004
1.304403e-003,3.031625e-004
1.145417e-003,3.128864e-004
9.815684e-004,3.286067e-004
8.008654e-004,3.504856e-004
5.770529e-004,3.710678e-004
2.861456e-004,3.858158e-004
-6.910160e-005,3.918122e-004
-4.595169e-004,3.866261e-004
-8.481494e-004,3.662059e-004
-1.194321e-003,3.344411e-004
-1.481176e-003,2.971661e-004
-1.702234e-003,2.569738e-004
-1.853603e-003,2.112714e-004
-1.929287e-003,1.582760e-004
-1.922805e-003,1.052807e-004
-1.832696e-003,6.233338e-005
-1.671117e-003,3.607880e-005
-1.462701e-003,2.748933e-005
-1.234189e-003,2.992031e-005
-1.001949e-003,3.640293e-005
-7.729511e-004,3.996836e-005
-5.465459e-004,3.624086e-005
-3.264613e-004,2.230324e-005
-1.266348e-004,5.286386e-006
1.711715e-005,-7.030578e-006
5.455424e-005,-1.059601e-005
-3.296103e-005,-9.947754e-006
-1.953505e-004,-1.999580e-005
-3.540124e-004,-5.354332e-005
-4.491447e-004,-1.039456e-004
-4.658374e-004,-1.511066e-004
-4.517377e-004,-1.742820e-004
-4.718338e-004,-1.681235e-004
-5.433046e-004,-1.368449e-004
-6.353577e-004,-8.984595e-005
-6.911082e-004,-4.074016e-005
-6.682570e-004,1.002961e-007
-5.614560e-004,2.846173e-005
-4.040906e-004,4.531652e-005
-2.502906e-004,5.682316e-005
-1.554824e-004,7.319175e-005
-1.642339e-004,1.054428e-004
-2.990722e-004,1.569795e-004
-5.535147e-004,2.263435e-004
-8.943380e-004,3.106175e-004
-1.251692e-003,3.992672e-004
-1.540654e-003,4.721966e-004
-1.695103e-003,5.109303e-004
-1.694455e-003,5.073649e-004
-1.573230e-003,4.637692e-004
-1.403385e-003,3.927846e-004
-1.259147e-003,3.078624e-004
-1.175521e-003,2.224539e-004
-1.111343e-003,1.423936e-004
-9.901186e-004,6.735740e-005
-7.489654e-004,4.244267e-007
-3.575778e-004,-5.030201e-005
1.603829e-004,-7.282909e-005
7.297186e-004,-6.910160e-005
1.249949e-003,-4.592625e-005
1.635179e-003,-9.137427e-006
1.833547e-003,3.575467e-005
1.841813e-003,8.793970e-005
1.695468e-003,1.425557e-004
1.465334e-003,1.882581e-004
1.234391e-003,2.115955e-004
1.084804e-003,2.057612e-004
1.089342e-003,1.790204e-004
1.284469e-003,1.435281e-004
1.636313e-003,1.130598e-004
2.038723e-003,9.896014e-005
2.383275e-003,1.060910e-004
2.598985e-003,1.326697e-004
2.667539e-003,1.720516e-004
2.602713e-003,2.096508e-004
2.428330e-003,2.286124e-004
2.177451e-003,2.213195e-004
1.891567e-003,1.882581e-004
1.601145e-003,1.341283e-004
1.310399e-003,6.638501e-005
1.009281e-003,-6.868512e-006
6.785059e-004,-8.595638e-005
3.169380e-004,-1.645580e-004
-5.516398e-005,-2.318151e-004
-4.191626e-004,-2.734659e-004
-7.612825e-004,-2.810830e-004
-1.038900e-003,-2.613110e-004
-1.204855e-003,-2.376495e-004
-1.233216e-003,-2.366771e-004
-1.114747e-003,-2.650385e-004
-8.471771e-004,-3.102547e-004
-4.356933e-004,-3.476918e-004
9.588090e-005,-3.604950e-004
6.927677e-004,-3.478539e-004
1.287872e-003,-3.170615e-004
1.807617e-003,-2.770314e-004
2.176803e-003,-2.316531e-004
2.326876e-003,-1.891920e-004
2.225261e-003,-1.648822e-004
1.908422e-003,-1.724992e-004
1.483161e-003,-1.906506e-004
1.084480e-003,-1.669890e-004
8.186925e-004,-6.472583e-005
7.063812e-004,1.059289e-004
6.929297e-004,3.036486e-004
6.971434e-004,4.841895e-004
6.773715e-004,6.143280e-004
6.284277e-004,6.716992e-004
5.446399e-004,6.470652e-004
4.198496e-004,5.422089e-004
2.532463e-004,3.749574e-004
4.531652e-005,1.858272e-004
-2.032917e-004,1.306552e-005
-5.013297e-004,-1.230693e-004
-8.763488e-004,-2.250084e-004
-1.320246e-003,-3.031239e-004
-1.757822e-003,-3.630880e-004
-2.072715e-003,-4.063595e-004
-2.179030e-003,-4.382863e-004
-2.075308e-003,-4.669719e-004
-1.820866e-003,-5.014918e-004
-1.505486e-003,-5.457356e-004
-1.220089e-003,-5.990550e-004
-1.041493e-003,-6.583710e-004
-1.019452e-003,-7.186593e-004
-1.143918e-003,-7.752200e-004
-1.346662e-003,-8.275671e-004
-1.535144e-003,-8.758626e-004
-1.638866e-003,-9.077894e-004
-1.649886e-003,-9.040619e-004
-1.624766e-003,-8.578733e-004
-1.622335e-003,-7.829992e-004
-1.651669e-003,-6.917564e-004
-1.650535e-003,-5.859278e-004
-1.539520e-003,-4.512515e-004
-1.292695e-003,-2.773555e-004
-9.562470e-004,-7.590833e-005
-6.058618e-004,1.237561e-004
-3.128478e-004,2.911697e-004
-1.128592e-004,3.963500e-004
1.014835e-005,4.305458e-004
9.280166e-005,4.031568e-004
1.607070e-004,3.378445e-004
2.354192e-004,2.615117e-004
3.470822e-004,2.008992e-004
5.187094e-004,1.885823e-004
7.496526e-004,2.605393e-004
1.012037e-003,4.336251e-004
1.268424e-003,6.859609e-004
1.489968e-003,9.570965e-004
1.662406e-003,1.175237e-003
1.778121e-003,1.288683e-003
1.836627e-003,1.287386e-003
1.847323e-003,1.200357e-003
1.805996e-003,1.072811e-003
1.684285e-003,9.476966e-004
1.462579e-003,8.454333e-004
1.170050e-003,7.684522e-004
8.762258e-004,7.055708e-004
6.360448e-004,6.420412e-004
4.696036e-004,5.676532e-004
3.606957e-004,4.848377e-004
2.704253e-004,4.060740e-004
1.608691e-004,3.326584e-004
1.598270e-005,2.488706e-004
-1.780095e-004,1.351007e-004
-4.454172e-004,-2.420950e-005
-8.039056e-004,-2.263049e-004
-1.220575e-003,-4.465517e-004
-1.627359e-003,-6.528607e-004
-1.984876e-003,-8.152502e-004
-2.305441e-003,-9.141100e-004
-2.616283e-003,-9.426334e-004
-2.928584e-003,-9.045481e-004
-3.207823e-003,-8.050401e-004
-3.372482e-003,-6.535090e-004
-3.341852e-003,-4.622720e-004
-3.080115e-003,-2.389460e-004
-2.601859e-003,1.176900e-005
-1.956676e-003,2.895490e-004
-1.209231e-003,5.843459e-004
-4.249970e-004,8.757396e-004
3.303894e-004,1.130020e-003
9.933992e-004,1.307806e-003
1.536805e-003,1.370039e-003
1.963200e-003,1.298244e-003
2.298515e-003,1.105548e-003
2.576782e-003,8.316578e-004
2.809509e-003,5.266506e-004
2.971900e-003,2.331502e-004
3.032350e-003,-1.562004e-005
2.963472e-003,-2.036158e-004
2.761700e-003,-3.305129e-004
2.466577e-003,-4.086284e-004
2.145524e-003,-4.478482e-004
1.864988e-003,-4.565997e-004
1.657220e-003,-4.425000e-004
1.513954e-003,-4.141386e-004
1.403587e-003,-3.802670e-004
1.277500e-003,-3.491504e-004
1.106035e-003,-3.217614e-004
8.945392e-004,-2.929138e-004
6.770473e-004,-2.637420e-004
4.927790e-004,-2.397564e-004
3.743092e-004,-2.263049e-004
3.384927e-004,-2.254946e-004
3.827366e-004,-2.350565e-004
4.640934e-004,-2.459148e-004
5.062303e-004,-2.442942e-004
4.425387e-004,-2.194982e-004
2.631323e-004,-1.739578e-004
2.878586e-005,-1.243659e-004
-1.702303e-004,-8.336334e-005
-2.600145e-004,-6.213279e-005
-2.128535e-004,-6.067420e-005
-5.435365e-005,-6.586029e-005
1.504969e-004,-6.780506e-005
3.281205e-004,-6.926366e-005
4.198496e-004,-7.461181e-005
3.916502e-004,-8.935975e-005
2.514636e-004,-1.096179e-004
4.320967e-005,-1.272830e-004
-1.814128e-004,-1.319829e-004
-4.006872e-004,-1.161005e-004
-6.167202e-004,-8.174268e-005
-8.390738e-004,-3.782299e-005
-1.070665e-003,1.063454e-005
-1.312791e-003,6.427816e-005
-1.586195e-003,1.273216e-004
-1.932042e-003,2.010613e-004
-2.373995e-003,2.845250e-004
-2.860192e-003,3.702575e-004
-3.267625e-003,4.451317e-004
-3.453839e-003,4.955340e-004
-3.333910e-003,5.153061e-004
-2.933770e-003,5.031511e-004
-2.384205e-003,4.603659e-004
-1.852792e-003,3.867882e-004
-1.468211e-003,2.830664e-004
-1.250395e-003,1.603829e-004
-1.127712e-003,3.753739e-005
-1.001949e-003,-6.731887e-005
-7.990436e-004,-1.470550e-004
-5.029504e-004,-2.053985e-004
-1.467309e-004,-2.473734e-004
2.078680e-004,-2.747625e-004
4.906721e-004,-2.852967e-004
6.486858e-004,-2.797865e-004
6.828816e-004,-2.624455e-004
6.491721e-004,-2.447804e-004
6.306966e-004,-2.353806e-004
6.830437e-004,-2.363530e-004
7.908173e-004,-2.381357e-004
8.893531e-004,-2.271153e-004
9.063699e-004,-1.885437e-004
7.812554e-004,-1.055663e-004
5.031511e-004,2.765140e-005
1.453108e-004,1.992786e-004
-1.504584e-004,3.877606e-004
-2.645523e-004,5.695979e-004
-1.629374e-004,7.144844e-004
1.049566e-004,7.853070e-004
4.427008e-004,7.618075e-004
7.467354e-004,6.527375e-004
9.506139e-004,4.877549e-004
1.042343e-003,3.034866e-004
1.051905e-003,1.302387e-004
1.015602e-003,-1.643037e-005
9.588792e-004,-1.336036e-004
8.904876e-004,-2.193361e-004
8.101031e-004,-2.747625e-004
7.212912e-004,-3.071755e-004
6.375034e-004,-3.272716e-004
5.760806e-004,-3.382920e-004
5.379952e-004,-3.322956e-004
5.130371e-004,-3.087962e-004
4.950479e-004,-2.716832e-004
4.943996e-004,-2.248463e-004
5.266506e-004,-1.621271e-004
5.968249e-004,-7.347736e-005
6.940642e-004,4.013043e-005
7.968137e-004,1.650828e-004
8.864359e-004,2.809595e-004
9.561240e-004,3.814400e-004
1.000692e-003,4.658761e-004
1.013981e-003,5.300540e-004
9.903199e-004,5.798081e-004
9.290591e-004,6.298863e-004
8.258234e-004,6.835299e-004
6.840162e-004,7.331220e-004
5.300540e-004,7.699108e-004
4.098015e-004,7.810934e-004
3.516200e-004,7.496526e-004
3.530786e-004,6.708889e-004
3.888950e-004,5.457744e-004
4.320044e-004,3.807918e-004
4.647416e-004,1.853410e-004
4.837033e-004,-2.777494e-005
5.016925e-004,-2.366771e-004
5.316746e-004,-4.217557e-004
5.772150e-004,-5.713420e-004
6.410688e-004,-6.802498e-004
7.209671e-004,-7.471828e-004
8.086445e-004,-7.755441e-004
8.849773e-004,-7.808923e-004
9.305177e-004,-7.888335e-004
9.348935e-004,-8.184914e-004
8.976184e-004,-8.714868e-004
8.206373e-004,-9.309648e-004
7.020054e-004,-9.782878e-004
5.378331e-004,-1.005353e-003
3.235827e-004,-1.018642e-003
5.520250e-005,-1.031283e-003
-2.794623e-004,-1.046517e-003
-7.006700e-004,-1.058510e-003
-1.226410e-003,-1.066613e-003
-1.820866e-003,-1.076662e-003
-2.380315e-003,-1.084279e-003
-2.801686e-003,-1.069368e-003
-3.039761e-003,-9.993564e-004
-3.118849e-003,-8.478253e-004
-3.105397e-003,-6.154237e-004
-3.066663e-003,-3.342404e-004
-3.014316e-003,-5.354332e-005
-2.896657e-003,1.809652e-004
-2.646103e-003,3.391410e-004
-2.231864e-003,4.198496e-004
-1.683758e-003,4.431869e-004
-1.074068e-003,4.315182e-004
-4.825302e-004,4.041292e-004
3.575467e-005,3.791711e-004
4.649037e-004,3.747953e-004
8.173960e-004,3.971604e-004
1.110410e-003,4.388112e-004
1.358857e-003,4.846757e-004
1.575539e-003,5.204921e-004
1.766614e-003,5.410744e-004
1.924304e-003,5.564707e-004
2.025920e-003,5.717048e-004
2.043423e-003,5.843459e-004
1.961093e-003,5.869390e-004
1.795462e-003,5.726772e-004
1.594176e-003,5.462606e-004
1.404397e-003,5.187094e-004
1.256918e-003,5.083373e-004
1.166485e-003,5.248679e-004
1.127913e-003,5.644119e-004
1.104576e-003,6.182176e-004
1.026298e-003,6.723474e-004
8.248510e-004,7.204809e-004
4.734932e-004,7.584042e-004
1.679302e-005,7.857932e-004
-4.337485e-004,8.013516e-004
-7.640375e-004,8.068617e-004
-9.168651e-004,7.934103e-004
-9.246442e-004,7.499768e-004
-8.919070e-004,6.785059e-004
-9.290200e-004,5.974732e-004
-1.069855e-003,5.284333e-004
-1.264495e-003,4.801379e-004
-1.455894e-003,4.525867e-004
-1.622335e-003,4.333010e-004
-1.766087e-003,4.075326e-004
-1.886178e-003,3.606957e-004
-1.959918e-003,2.820940e-004
-1.944359e-003,1.655690e-004
-1.811628e-003,1.257933e-005
-1.562209e-003,-1.660166e-004
-1.240671e-003,-3.506090e-004
-9.439299e-004,-5.154294e-004
-7.948300e-004,-6.405438e-004
-8.389117e-004,-7.084491e-004
-1.003084e-003,-7.074767e-004
-1.163853e-003,-6.283889e-004
-1.211824e-003,-4.747510e-004
-1.077148e-003,-2.606628e-004
-7.415105e-004,-8.002969e-006
-2.360288e-004,2.527601e-004
3.806297e-004,4.871067e-004
1.036022e-003,6.718612e-004
1.658030e-003,7.953551e-004
2.188958e-003,8.564538e-004
2.599796e-003,8.648811e-004
2.886329e-003,8.301992e-004
3.047423e-003,7.624558e-004
3.075622e-003,6.713750e-004
2.969793e-003,5.668428e-004
2.744521e-003,4.626348e-004
2.439998e-003,3.752816e-004
2.090260e-003,3.172621e-004
1.702923e-003,2.837146e-004
1.267452e-003,2.657254e-004
7.982723e-004,2.530843e-004
3.522683e-004,2.355812e-004
3.827798e-006,2.026820e-004
-2.068571e-004,1.433660e-004
-2.862691e-004,4.888196e-005
-2.765452e-004,-8.060822e-005
-2.395943e-004,-2.293842e-004
-2.397564e-004,-3.781601e-004
-3.125237e-004,-5.070020e-004
-4.471999e-004,-6.005137e-004
-6.126686e-004,-6.515642e-004
-7.966127e-004,-6.727948e-004
-1.024801e-003,-6.844635e-004
-1.321704e-003,-7.006700e-004
-1.640973e-003,-7.154179e-004
-1.882612e-003,-7.157421e-004
-1.962349e-003,-6.946736e-004
-1.862840e-003,-6.504298e-004
-1.638542e-003,-5.854416e-004
-1.375672e-003,-5.058675e-004
-1.131440e-003,-4.141386e-004
-9.071411e-004,-3.183580e-004
-6.731189e-004,-2.360288e-004
-4.068456e-004,-1.896782e-004
-1.169109e-004,-1.883817e-004
1.717275e-004,-1.994021e-004
4.363802e-004,-1.715269e-004
6.660269e-004,-7.526008e-005
8.562917e-004,8.323980e-005
1.001340e-003,2.701011e-004
1.093069e-003,4.436731e-004
1.122079e-003,5.752702e-004
1.085128e-003,6.451205e-004
9.992335e-004,6.404205e-004
8.945392e-004,5.614947e-004
8.092927e-004,4.271425e-004
7.640765e-004,2.611876e-004
7.642385e-004,8.323980e-005
8.123720e-004,-9.584237e-005
9.109078e-004,-2.716832e-004
1.055308e-003,-4.363416e-004
1.229853e-003,-5.828486e-004
1.408449e-003,-7.087733e-004
1.565004e-003,-8.181673e-004
1.688823e-003,-9.179995e-004
1.777311e-003,-1.013618e-003
1.824472e-003,-1.110047e-003
1.804052e-003,-1.199021e-003
1.676830e-003,-1.267250e-003
1.412663e-003,-1.293829e-003
1.017385e-003,-1.260606e-003
5.378331e-004,-1.154453e-003
3.510640e-005,-9.750465e-004
-4.305072e-004,-7.398898e-004
-8.246499e-004,-4.778303e-004
-1.130143e-003,-2.139880e-004
-1.356710e-003,4.045456e-005
-1.540168e-003,2.846870e-004
-1.721195e-003,5.213025e-004
-1.914701e-003,7.370115e-004
-2.091677e-003,8.997252e-004
-2.202692e-003,9.723306e-004
-2.208040e-003,9.394313e-004
-2.079846e-003,8.214476e-004
-1.820379e-003,6.613270e-004
-1.462539e-003,5.062303e-004
-1.058672e-003,3.856537e-004
-6.770085e-004,3.060797e-004
-3.728119e-004,2.603772e-004
-1.663408e-004,2.375260e-004
-4.576419e-005,2.242366e-004
1.776542e-005,2.099749e-004
5.763348e-005,1.885823e-004
9.523264e-005,1.616794e-004
1.334801e-004,1.503348e-004
1.624898e-004,1.718895e-004
1.744826e-004,2.255332e-004
1.837203e-004,2.887386e-004
2.004130e-004,3.326584e-004
2.203471e-004,3.355755e-004
2.206712e-004,2.901973e-004
1.633001e-004,2.070577e-004
2.684107e-005,1.085220e-004
-1.545100e-004,1.371378e-005
-2.891863e-004,-6.796713e-005
-2.909690e-004,-1.334415e-004
-1.481895e-004,-1.853024e-004
9.037068e-005,-2.230636e-004
3.527545e-004,-2.431597e-004
5.608465e-004,-2.434839e-004
6.545202e-004,-2.313289e-004
6.127074e-004,-2.078295e-004
4.389732e-004,-1.724992e-004
1.579519e-004,-1.161005e-004
-1.953505e-004,-3.004385e-005
-5.903036e-004,8.664317e-005
-9.938461e-004,2.286124e-004
-1.361572e-003,3.769022e-004
-1.641783e-003,5.070407e-004
-1.787480e-003,6.047661e-004
-1.770949e-003,6.658648e-004
-1.601915e-003,6.917953e-004
-1.329159e-003,6.866092e-004
-1.023504e-003,6.590580e-004
-7.594997e-004,6.237278e-004
-5.766901e-004,5.982835e-004
-4.403932e-004,5.974732e-004
-2.574215e-004,6.243761e-004
4.531652e-005,6.695923e-004
4.637692e-004,7.156189e-004
9.261419e-004,7.456010e-004
1.338761e-003,7.400908e-004
1.618162e-003,6.820713e-004
1.723667e-003,5.653843e-004
1.676020e-003,4.000776e-004
1.541181e-003,2.172678e-004
1.393215e-003,5.325772e-005
1.293058e-003,-6.586029e-005
1.267290e-003,-1.285796e-004
1.298244e-003,-1.353863e-004
1.327902e-003,-1.011905e-004
1.272962e-003,-5.321919e-005
1.068111e-003,-1.821308e-005
7.527319e-004,-8.002969e-006
4.590693e-004,-1.691656e-005
3.219621e-004,-3.636440e-005
3.850055e-004,-6.261898e-005
5.864528e-004,-9.762508e-005
8.207993e-004,-1.412206e-004
1.000206e-003,-1.898402e-004
1.078159e-003,-2.332737e-004
1.041533e-003,-2.640661e-004
8.972943e-004,-2.844864e-004
6.843403e-004,-3.042583e-004
4.631210e-004,-3.262992e-004
2.936006e-004,-3.425058e-004
2.221298e-004,-3.452609e-004
2.577842e-004,-3.356990e-004
3.712299e-004,-3.185201e-004
5.217887e-004,-3.011791e-004
6.637580e-004,-2.912931e-004
7.465734e-004,-2.883759e-004
7.272876e-004,-2.844864e-004
6.007145e-004,-2.666592e-004
4.250356e-004,-2.303566e-004
2.884145e-004,-1.848162e-004
2.602152e-004,-1.383035e-004
3.470822e-004,-9.794922e-005
4.799758e-004,-6.683268e-005
5.495019e-004,-4.851930e-005
4.777069e-004,-4.171255e-005
2.548670e-004,-4.462973e-005
-6.342930e-005,-6.018800e-005
-3.849668e-004,-8.611845e-005
-6.144513e-004,-1.143178e-004
-7.005080e-004,-1.313347e-004
-6.507539e-004,-1.264727e-004
-5.110536e-004,-9.989400e-005
-3.403989e-004,-5.970180e-005
-1.956746e-004,-1.869928e-005
-1.180453e-004,1.209313e-005
-1.199901e-004,3.121684e-005
-1.896782e-004,3.899597e-005
-3.110651e-004,4.774750e-005
-4.668098e-004,6.800567e-005
-6.413541e-004,1.004187e-004
-8.402083e-004,1.355869e-004
-1.087034e-003,1.564933e-004
-1.380858e-003,1.425557e-004
-1.682624e-003,8.923622e-005
-1.933987e-003,1.079661e-005
-2.091191e-003,-6.618442e-005
-2.151479e-003,-1.245279e-004
-2.159582e-003,-1.558065e-004
-2.167523e-003,-1.579134e-004
-2.198316e-003,-1.284175e-004
-2.238670e-003,-7.072224e-005
-2.246287e-003,6.582909e-006
-2.184216e-003,8.518459e-005
-2.057319e-003,1.513072e-004
-1.880344e-003,1.984682e-004
-1.659772e-003,2.261814e-004
-1.400144e-003,2.386605e-004
-1.121229e-003,2.444948e-004
-8.371290e-004,2.514636e-004
-5.287188e-004,2.594048e-004
-1.536997e-004,2.607013e-004
3.127243e-004,2.466016e-004
8.485126e-004,2.195368e-004
1.381546e-003,1.864754e-004
1.828037e-003,1.506590e-004
2.118784e-003,1.128978e-004
2.221695e-003,7.254349e-005
2.145200e-003,2.732727e-005
1.927546e-003,-1.902341e-005
1.620107e-003,-6.342930e-005
1.278310e-003,-1.032974e-004
9.549896e-004,-1.397621e-004
6.893643e-004,-1.836818e-004
4.973168e-004,-2.399184e-004
3.741471e-004,-3.037722e-004
2.991108e-004,-3.656811e-004
2.504912e-004,-4.225660e-004
2.130541e-004,-4.690787e-004
1.827479e-004,-4.987367e-004
1.644345e-004,-5.149432e-004
1.600588e-004,-5.249913e-004
1.704310e-004,-5.191569e-004
1.991165e-004,-4.719959e-004
2.548670e-004,-3.622777e-004
3.393030e-004,-1.914609e-004
4.482110e-004,1.403791e-005
5.768909e-004,2.067336e-004
7.161051e-004,3.441650e-004
8.462437e-004,4.123945e-004
9.480208e-004,4.208219e-004
1.010740e-003,3.937570e-004
1.022085e-003,3.551854e-004
9.780029e-004,3.140208e-004
8.898393e-004,2.673460e-004
7.776900e-004,2.151610e-004
6.618132e-004,1.680000e-004
5.477191e-004,1.501728e-004
4.271425e-004,1.752929e-004
2.926282e-004,2.297469e-004
1.448246e-004,3.062417e-004
-1.140634e-005,4.145014e-004
-1.767129e-004,5.640878e-004
-3.553089e-004,7.431700e-004
-5.476804e-004,9.297074e-004
-7.395656e-004,1.091935e-003
-9.167030e-004,1.200195e-003
-1.075203e-003,1.226936e-003
-1.202586e-003,1.152709e-003
-1.276002e-003,9.692513e-004
-1.263685e-003,6.924436e-004
-1.135653e-003,3.657197e-004
-8.825072e-004,4.434413e-005
-5.125122e-004,-2.253325e-004
-2.842320e-005,-4.177041e-004
5.498260e-004,-5.245051e-004
1.166161e-003,-5.507596e-004
1.736956e-003,-5.131605e-004
2.173400e-003,-4.292107e-004
2.410988e-003,-3.190063e-004
2.445671e-003,-2.092881e-004
2.340814e-003,-1.255003e-004
2.181827e-003,-7.752898e-005
2.027216e-003,-6.278104e-005
1.899508e-003,-8.676671e-005
1.783469e-003,-1.606685e-004
1.623996e-003,-2.864312e-004
1.344919e-003,-4.457413e-004
8.896772e-004,-6.120203e-004
2.804733e-004,-7.598238e-004
-3.734602e-004,-8.645180e-004
-9.356646e-004,-9.013068e-004
-1.316194e-003,-8.528493e-004
-1.492845e-003,-7.126628e-004
-1.505648e-003,-4.938747e-004
-1.422347e-003,-2.303566e-004
-1.307605e-003,3.089270e-005
-1.209231e-003,2.498430e-004
-1.186704e-003,4.075326e-004
-1.280215e-003,5.037994e-004
-1.453787e-003,5.413986e-004
-1.616177e-003,5.235714e-004
-1.682300e-003,4.611762e-004
-1.616177e-003,3.717161e-004
-1.434826e-003,2.786906e-004
-1.182490e-003,2.068957e-004
-9.040619e-004,1.686482e-004
-6.418403e-004,1.603829e-004
-4.413656e-004,1.739964e-004
-3.431540e-004,1.978200e-004
-3.689224e-004,2.175920e-004
-4.914437e-004,2.205091e-004
-6.397335e-004,1.979821e-004
-7.426449e-004,1.503348e-004
-7.693857e-004,9.053274e-005
-7.233592e-004,4.239934e-005
-6.236890e-004,2.797553e-005
-4.988987e-004,5.374392e-005
-3.801049e-004,1.111150e-004
-2.940482e-004,1.830720e-004
-2.588801e-004,2.477361e-004
-2.711970e-004,2.863077e-004
-3.002067e-004,2.893869e-004
-3.049066e-004,2.607013e-004
-2.556388e-004,2.137024e-004
-1.423551e-004,1.597346e-004
2.408596e-005,1.033359e-004
2.239125e-004,4.126489e-005
4.318423e-004,-2.599222e-005
6.096281e-004,-9.649063e-005
7.118914e-004,-1.595340e-004
7.031398e-004,-2.084778e-004
5.924492e-004,-2.394322e-004
4.556660e-004,-2.449424e-004
3.804677e-004,-2.238740e-004
4.125566e-004,-1.754164e-004
5.366987e-004,-9.665269e-005
6.953607e-004,6.258778e-006
8.258234e-004,1.086841e-004
8.927564e-004,1.762653e-004
8.867600e-004,1.819376e-004
8.055652e-004,1.260251e-004
6.541961e-004,3.186510e-005
4.410801e-004,-6.553616e-005
1.867996e-004,-1.358725e-004
-6.812920e-005,-1.658546e-004
-2.783279e-004,-1.595340e-004
-4.084663e-004,-1.300381e-004
-4.342347e-004,-9.276313e-005
-3.485022e-004,-6.764300e-005
-1.695821e-004,-6.423963e-005
5.730935e-005,-8.060822e-005
2.811216e-004,-1.076731e-004
4.812723e-004,-1.345760e-004
6.768852e-004,-1.522411e-004
8.929185e-004,-1.561307e-004
1.136341e-003,-1.467309e-004
1.387705e-003,-1.201522e-004
1.603090e-003,-7.542214e-005
1.725450e-003,-1.999580e-005
1.704381e-003,2.667901e-005
1.520761e-003,4.645098e-005
1.199547e-003,2.992031e-005
7.872518e-004,-1.513384e-005
3.331445e-004,-7.234290e-005
-1.248521e-004,-1.295519e-004
-5.556216e-004,-1.784957e-004
-9.175134e-004,-2.177155e-004
-1.161908e-003,-2.509389e-004
-1.251044e-003,-2.736280e-004
-1.194483e-003,-2.885380e-004
-1.053324e-003,-2.987481e-004
-8.883416e-004,-3.055549e-004
-7.073147e-004,-3.052307e-004
-4.708614e-004,-2.966413e-004
-1.502963e-004,-2.789761e-004
2.328261e-004,-2.498044e-004
6.107626e-004,-2.088019e-004
9.177146e-004,-1.532135e-004
1.118028e-003,-8.190475e-005
1.200843e-003,-1.034161e-006
1.158058e-003,7.675719e-005
9.741134e-004,1.441764e-004
6.353965e-004,2.073818e-004
1.571416e-004,2.754493e-004
-4.104111e-004,3.503235e-004
-9.912531e-004,4.258459e-004
-1.502569e-003,4.877549e-004
-1.870619e-003,5.222749e-004
-2.056347e-003,5.196818e-004
-2.074498e-003,4.749518e-004
-2.020692e-003,3.900295e-004
-2.012913e-003,2.702632e-004
-2.070770e-003,1.260251e-004
-2.123117e-003,-1.918548e-005
-2.084060e-003,-1.387897e-004
-1.894119e-003,-2.165810e-004
-1.560426e-003,-2.464010e-004
-1.151698e-003,-2.297083e-004
-7.543136e-004,-1.870851e-004
-4.186764e-004,-1.421931e-004
-1.470550e-004,-1.031353e-004
9.636710e-005,-6.440169e-005
3.538889e-004,-1.432352e-005
6.397723e-004,5.212327e-005
9.345693e-004,1.282940e-004
1.194360e-003,2.090025e-004
1.374253e-003,2.879283e-004
1.451883e-003,3.472442e-004
1.456583e-003,3.665300e-004
1.473437e-003,3.512959e-004
1.581697e-003,3.407616e-004
1.805348e-003,3.709058e-004
2.093339e-003,4.480489e-004
2.350538e-003,5.533914e-004
2.491859e-003,6.572753e-004
2.464146e-003,7.340944e-004
2.219264e-003,7.679660e-004
1.736632e-003,7.511112e-004
1.068273e-003,6.820713e-004
3.475684e-004,5.705704e-004
-2.626076e-004,4.310320e-004
-6.368163e-004,2.840387e-004
-7.363243e-004,1.529279e-004
-6.055377e-004,5.876794e-005
-3.429920e-004,1.095867e-005
-6.504996e-005,1.234753e-006
1.406109e-004,1.241726e-005
2.342847e-004,2.522042e-005
2.240746e-004,2.019640e-005
1.422316e-004,-1.659243e-005
2.084466e-005,-9.033214e-005
-1.149661e-004,-1.874093e-004
-2.473734e-004,-2.950206e-004
-3.707051e-004,-4.066836e-004
-4.800992e-004,-5.134846e-004
-5.536768e-004,-6.042412e-004
-5.721523e-004,-6.716603e-004
-5.436288e-004,-7.099077e-004
-4.987367e-004,-7.183352e-004
-4.749131e-004,-7.078008e-004
-5.097571e-004,-6.847876e-004
-6.154237e-004,-6.471885e-004
-7.674409e-004,-5.825244e-004
-9.050343e-004,-4.788027e-004
-9.656468e-004,-3.342404e-004
-9.141100e-004,-1.608306e-004
-7.593377e-004,1.484824e-005
-5.384427e-004,1.644345e-004
-2.869173e-004,2.675081e-004
-2.728874e-005,3.205035e-004
2.193747e-004,3.326584e-004
4.357320e-004,3.169380e-004
6.118970e-004,2.863077e-004
7.456010e-004,2.551911e-004
8.421920e-004,2.359053e-004
9.096113e-004,2.326641e-004
9.556379e-004,2.365536e-004
9.893475e-004,2.294227e-004
1.025326e-003,1.991165e-004
1.070056e-003,1.441764e-004
1.105386e-003,7.189524e-005
1.079942e-003,-8.813297e-006
9.295453e-004,-8.514606e-005
6.250243e-004,-1.418689e-004
2.094887e-004,-1.741199e-004
-2.170672e-004,-1.859507e-004
-5.446011e-004,-1.780095e-004
-7.024527e-004,-1.489998e-004
-6.815463e-004,-9.373551e-005
-5.327704e-004,-1.464765e-005
-3.342404e-004,7.173317e-005
-1.556445e-004,1.420695e-004
-2.372330e-005,1.746447e-004
7.821578e-005,1.602208e-004
1.817755e-004,1.098185e-004
2.957075e-004,4.434413e-005
3.994293e-004,-1.788895e-005
4.535591e-004,-6.375343e-005
4.279528e-004,-9.017008e-005
3.182345e-004,-9.730095e-005
1.532520e-004,-8.725291e-005
-2.064406e-005,-6.359137e-005
-1.643960e-004,-3.036798e-005
-2.545043e-004,8.041497e-006
-2.877277e-004,4.645098e-005
-2.763831e-004,7.886404e-005
-2.441321e-004,1.062531e-004
-2.135018e-004,1.331559e-004
-1.948643e-004,1.730240e-004
-1.781715e-004,2.376881e-004
-1.454343e-004,3.321721e-004
-8.368747e-005,4.521005e-004
-2.330684e-006,5.854804e-004
6.508849e-005,7.117293e-004
7.675719e-005,8.073479e-004
3.179537e-006,8.549952e-004
-1.603444e-004,8.562917e-004
-3.911253e-004,8.203132e-004
-6.496194e-004,7.597007e-004
-8.870451e-004,6.809368e-004
-1.053000e-003,5.871010e-004
-1.120419e-003,4.845136e-004
-1.095623e-003,3.807918e-004
-1.000977e-003,2.858215e-004
-8.526872e-004,2.033302e-004
-6.535090e-004,1.302387e-004
-4.178661e-004,6.022653e-005
-1.799543e-004,-7.192643e-006
2.149292e-005,-6.521203e-005
1.615174e-004,-1.105903e-004
2.393087e-004,-1.425172e-004
2.760976e-004,-1.640719e-004
3.034866e-004,-1.833576e-004
3.561578e-004,-2.135018e-004
4.718725e-004,-2.629317e-004
6.814231e-004,-3.290543e-004
9.763822e-004,-4.065215e-004
1.276528e-003,-4.838267e-004
1.460148e-003,-5.541630e-004
1.446372e-003,-6.144513e-004
1.245087e-003,-6.616123e-004
9.405658e-004,-6.927288e-004
6.289139e-004,-7.052078e-004
3.631267e-004,-7.024527e-004
1.573037e-004,-6.851117e-004
1.396819e-006,-6.479988e-004
-1.235555e-004,-5.860899e-004
-2.319772e-004,-4.961436e-004
-3.314853e-004,-3.762153e-004
-4.303451e-004,-2.284118e-004
-5.267740e-004,-6.748093e-005
-6.113721e-004,8.664317e-005
-6.898117e-004,2.167816e-004
-7.889956e-004,3.162897e-004
-9.311268e-004,3.812780e-004
-1.099026e-003,4.085050e-004
-1.235810e-003,4.057499e-004
-1.280378e-003,3.968363e-004
-1.197076e-003,3.914881e-004
-9.915772e-004,3.775505e-004
-7.066664e-004,3.331445e-004
-4.057112e-004,2.453051e-004
-1.420310e-004,1.192183e-004
5.957827e-005,-2.453363e-005
2.148369e-004,-1.598582e-004
3.440029e-004,-2.692523e-004
4.431869e-004,-3.486642e-004
4.940755e-004,-4.002010e-004
4.812723e-004,-4.272659e-004
3.918122e-004,-4.379622e-004
2.140265e-004,-4.433104e-004
-3.182657e-005,-4.476861e-004
-2.998826e-004,-4.403932e-004
-5.561078e-004,-4.005251e-004
-7.727891e-004,-3.193304e-004
-9.285338e-004,-2.063709e-004
-1.012646e-003,-7.833932e-005
-1.023018e-003,4.515445e-005
-9.570573e-004,1.488763e-004
-8.343739e-004,2.253711e-004
-6.901358e-004,2.694529e-004
-5.677765e-004,2.757734e-004
-5.023021e-004,2.461155e-004
-5.023021e-004,1.871237e-004
-5.525423e-004,1.161391e-004
-6.227166e-004,6.362990e-005
-6.757120e-004,5.795762e-005
-6.791154e-004,1.022014e-004
-6.128306e-004,1.728619e-004
-4.554653e-004,2.341226e-004
-1.854645e-004,2.673460e-004
1.984682e-004,2.801492e-004
6.618132e-004,2.911697e-004
1.146875e-003,3.107795e-004
1.583480e-003,3.302274e-004
1.917173e-003,3.286067e-004
2.126563e-003,2.923041e-004
2.221533e-003,2.302331e-004
2.214564e-003,1.673517e-004
2.100470e-003,1.329939e-004
1.863692e-003,1.430419e-004
1.512009e-003,1.898788e-004
1.105224e-003,2.551911e-004
7.334461e-004,3.268240e-004
4.486972e-004,3.942432e-004
2.344468e-004,4.438352e-004
4.029249e-005,4.579349e-004
-1.630995e-004,4.192013e-004
-3.669776e-004,3.311998e-004
-5.366600e-004,2.180782e-004
-6.215821e-004,1.187321e-004
-5.885208e-004,5.974033e-005
-4.431483e-004,3.932010e-005
-2.423494e-004,4.758544e-005
-8.514606e-005,7.400208e-005
-6.877746e-005,1.057669e-004
-2.313289e-004,1.278078e-004
-5.243430e-004,1.265113e-004
-8.372911e-004,8.956035e-005
-1.051541e-003,1.873781e-005
-1.090761e-003,-6.764300e-005
-9.484679e-004,-1.452723e-004
-6.693914e-004,-1.900023e-004
-3.180339e-004,-1.849783e-004
4.677511e-005,-1.285796e-004
3.790091e-004,-3.506787e-005
6.558168e-004,7.351588e-005
8.789808e-004,1.715654e-004
1.069570e-003,2.263435e-004
1.240063e-003,1.983062e-004
1.385112e-003,6.411610e-005
1.480568e-003,-1.629374e-004
1.496775e-003,-4.455793e-004
1.423845e-003,-7.405381e-004
1.283172e-003,-1.005677e-003
1.110248e-003,-1.206152e-003
9.382968e-004,-1.314735e-003
7.849829e-004,-1.328997e-003
6.572753e-004,-1.269357e-003
5.501501e-004,-1.163853e-003
4.519385e-004,-1.023666e-003
3.535648e-004,-8.442599e-004
2.495188e-004,-6.108859e-004
1.354248e-004,-3.183580e-004
1.209313e-005,1.290346e-005
-1.135075e-004,3.446512e-004
-2.301945e-004,6.345861e-004
-3.293785e-004,8.488367e-004
-4.086284e-004,9.741134e-004
-4.711856e-004,1.025812e-003
-5.246671e-004,1.027271e-003
-5.721523e-004,1.004095e-003
-6.001896e-004,9.744375e-004
-5.922483e-004,9.464001e-004
-5.348772e-004,9.214421e-004
-4.337485e-004,8.990770e-004
-3.104168e-004,8.781705e-004
-1.904885e-004,8.528883e-004
-8.141856e-005,8.191787e-004
2.003433e-005,7.725038e-004
1.171115e-004,7.114052e-004
2.112714e-004,6.345861e-004
2.948972e-004,5.456123e-004
3.556717e-004,4.501558e-004
3.921364e-004,3.550234e-004
4.141773e-004,2.668598e-004
4.242253e-004,1.961993e-004
4.196875e-004,1.475797e-004
3.992672e-004,1.159770e-004
3.639370e-004,9.344992e-005
3.125622e-004,7.351588e-005
2.514636e-004,4.742337e-005
1.824238e-004,1.160693e-005
1.075496e-004,-3.814712e-005
3.640293e-005,-1.024870e-004
-6.382316e-006,-1.718510e-004
4.638125e-006,-2.327876e-004
6.152305e-005,-2.733039e-004
1.266733e-004,-2.899966e-004
1.594105e-004,-2.922655e-004
1.440143e-004,-2.924276e-004
9.928427e-005,-2.942103e-004
6.476436e-005,-2.956689e-004
7.124698e-005,-2.914552e-004
9.733949e-005,-2.810830e-004
6.200925e-005,-2.661730e-004
-1.042698e-004,-2.514251e-004
-3.841565e-004,-2.408908e-004
-6.749016e-004,-2.395943e-004
-8.581975e-004,-2.485079e-004
-8.747281e-004,-2.621213e-004
-7.411863e-004,-2.762210e-004
-5.128363e-004,-2.840002e-004
-2.655248e-004,-2.784900e-004
-8.012203e-005,-2.562870e-004
-8.975361e-006,-2.241981e-004
-6.132245e-005,-1.984297e-004
-2.092881e-004,-1.945401e-004
-3.964735e-004,-2.175534e-004
-5.614560e-004,-2.608248e-004
-6.680949e-004,-3.118754e-004
-7.107180e-004,-3.533641e-004
-6.868945e-004,-3.713534e-004
-6.055377e-004,-3.583881e-004
-4.948471e-004,-3.159270e-004
-4.000389e-004,-2.504527e-004
-3.559572e-004,-1.677994e-004
-3.661673e-004,-7.898758e-005
-4.053871e-004,1.234753e-006
-4.154351e-004,6.055066e-005
-3.329439e-004,9.182927e-005
-1.327932e-004,9.458438e-005
1.517934e-004,7.497447e-005
4.610142e-004,4.369587e-005
7.407391e-004,9.662150e-006
9.661721e-004,-2.031993e-005
1.135693e-003,-3.134038e-005
1.260645e-003,-1.335112e-005
1.344271e-003,3.089270e-005
1.365826e-003,8.016056e-005
1.301162e-003,1.130598e-004
1.165188e-003,1.203528e-004
1.002151e-003,1.088461e-004
8.449472e-004,9.150514e-005
6.939021e-004,8.080882e-005
5.250300e-004,8.518459e-005
3.028383e-004,1.083599e-004
-1.844488e-006,1.495245e-004
-3.789704e-004,2.007372e-004
-7.726270e-004,2.561635e-004
-1.117178e-003,3.117519e-004
-1.366272e-003,3.598853e-004
-1.506945e-003,3.947294e-004
-1.551513e-003,4.128807e-004
-1.527365e-003,4.138531e-004
-1.459622e-003,3.989431e-004
-1.371458e-003,3.700955e-004
-1.283457e-003,3.313618e-004
-1.202424e-003,2.906834e-004
-1.132412e-003,2.534084e-004
-1.088492e-003,2.243987e-004
-1.102592e-003,2.030061e-004
-1.206962e-003,1.885823e-004
-1.400792e-003,1.783722e-004
-1.637894e-003,1.668655e-004
-1.846634e-003,1.409351e-004
-1.961862e-003,9.085687e-005
-1.937228e-003,1.549650e-005
-1.747288e-003,-7.752898e-005
-1.397065e-003,-1.729855e-004
-9.265890e-004,-2.507768e-004
-4.029561e-004,-2.921034e-004
1.086841e-004,-2.951827e-004
5.516087e-004,-2.713591e-004
8.901634e-004,-2.371633e-004
1.113166e-003,-2.019951e-004
1.226125e-003,-1.686097e-004
1.245411e-003,-1.361966e-004
1.200681e-003,-1.013526e-004
1.129210e-003,-6.083626e-005
1.060656e-003,-1.092015e-005
1.016574e-003,4.337174e-005
1.010092e-003,9.069480e-005
1.048501e-003,1.242423e-004
1.129534e-003,1.453108e-004
1.234228e-003,1.628139e-004
1.331306e-003,1.885823e-004
1.397429e-003,2.269918e-004
1.418659e-003,2.796630e-004
1.389163e-003,3.370341e-004
1.314289e-003,3.796573e-004
1.203112e-003,3.833848e-004
1.071353e-003,3.388168e-004
9.478587e-004,2.535705e-004
8.663398e-004,1.490383e-004
8.410575e-004,6.379197e-005
8.630984e-004,3.575467e-005
9.159318e-004,7.400208e-005
9.849716e-004,1.587622e-004
1.059360e-003,2.628082e-004
1.127103e-003,3.629646e-004
1.172157e-003,4.423766e-004
1.175237e-003,4.856481e-004
1.113003e-003,4.812723e-004
9.771925e-004,4.305458e-004
7.807692e-004,3.454615e-004
5.420469e-004,2.378501e-004
2.752873e-004,1.130598e-004
-1.302699e-005,-1.934754e-005
-3.235441e-004,-1.475412e-004
-6.606399e-004,-2.601766e-004
-1.013780e-003,-3.446126e-004
-1.349904e-003,-3.997148e-004
-1.623956e-003,-4.387725e-004
-1.798500e-003,-4.828543e-004
-1.847606e-003,-5.510838e-004
-1.752960e-003,-6.501056e-004
-1.513752e-003,-7.718166e-004
-1.162718e-003,-8.988758e-004
-7.612825e-004,-1.015077e-003
-3.752429e-004,-1.108264e-003
-3.441962e-005,-1.165635e-003
2.796630e-004,-1.184759e-003
5.965008e-004,-1.167742e-003
9.345693e-004,-1.124147e-003
1.298082e-003,-1.068396e-003
1.652196e-003,-1.002436e-003
1.927384e-003,-9.090859e-004
2.051202e-003,-7.593377e-004
1.975841e-003,-5.296912e-004
1.712160e-003,-2.272773e-004
1.321258e-003,1.130598e-004
8.694190e-004,4.407560e-004
3.910019e-004,7.099466e-004
-1.246900e-004,8.880566e-004
-6.972667e-004,9.711962e-004
-1.294153e-003,9.765443e-004
-1.835938e-003,9.326246e-004
-2.249043e-003,8.673122e-004
-2.500406e-003,8.036204e-004
-2.593270e-003,7.577559e-004
-2.555508e-003,7.290703e-004
-2.428773e-003,7.102708e-004
-2.249367e-003,6.942262e-004
-2.029282e-003,6.767232e-004
-1.769167e-003,6.554926e-004
-1.484580e-003,6.316690e-004
-1.204369e-003,6.083316e-004
-9.538160e-004,5.824011e-004
-7.379450e-004,5.477191e-004
-5.569181e-004,5.083373e-004
-4.190006e-004,4.686312e-004
-3.185201e-004,4.273045e-004
-2.259808e-004,3.791711e-004
-1.050801e-004,3.258516e-004
7.562274e-005,2.735045e-004
3.329825e-004,2.295848e-004
6.558168e-004,1.979821e-004
9.796235e-004,1.746447e-004
1.231798e-003,1.558451e-004
1.377332e-003,1.351007e-004
1.441997e-003,1.112771e-004
1.483161e-003,8.680524e-005
1.552039e-003,6.930219e-005
1.669051e-003,5.990240e-005
1.811020e-003,5.795762e-005
1.927870e-003,6.055066e-005
1.973410e-003,6.703327e-005
1.923656e-003,7.643306e-005
1.789952e-003,8.923622e-005
1.597742e-003,1.030118e-004
1.376522e-003,1.051186e-004
1.150927e-003,8.923622e-005
9.489931e-004,5.779555e-005
7.950310e-004,1.971020e-005
6.926056e-004,-1.643037e-005
6.049282e-004,-4.770897e-005
4.728449e-004,-7.590833e-005
2.556773e-004,-1.018388e-004
-4.268495e-005,-1.219349e-004
-3.828600e-004,-1.336036e-004
-7.202799e-004,-1.352242e-004
-1.027556e-003,-1.323070e-004
-1.298691e-003,-1.324691e-004
-1.538872e-003,-1.318209e-004
-1.741291e-003,-1.242038e-004
-1.876130e-003,-1.088076e-004
-1.889419e-003,-9.098041e-005
-1.749881e-003,-7.574627e-005
-1.473884e-003,-6.586029e-005
-1.114099e-003,-6.261898e-005
-7.424828e-004,-7.817725e-005
-4.259694e-004,-1.259865e-004
-1.998883e-004,-2.071812e-004
-6.148453e-005,-3.063652e-004
1.792748e-005,-4.027940e-004
7.837785e-005,-4.702132e-004
1.449867e-004,-4.925782e-004
2.091646e-004,-4.708614e-004
2.511395e-004,-4.194868e-004
2.712356e-004,-3.517435e-004
3.000832e-004,-2.739521e-004
3.798194e-004,-1.864369e-004
5.242196e-004,-9.470791e-005
7.099466e-004,-7.516774e-006
8.890289e-004,5.747142e-005
1.013657e-003,8.486046e-005
1.059684e-003,7.351588e-005
1.039750e-003,4.013043e-005
1.006202e-003,1.711715e-005
1.029054e-003,2.829966e-005
1.160489e-003,8.518459e-005
1.411528e-003,1.842065e-004
1.740684e-003,3.101313e-004
2.063195e-003,4.495075e-004
2.289763e-003,5.809425e-004
2.359451e-003,6.780197e-004
2.247302e-003,7.151327e-004
1.958014e-003,6.815851e-004
1.524812e-003,5.853183e-004
9.976128e-004,4.483731e-004
4.318423e-004,3.051073e-004
-1.159385e-004,1.846927e-004
-6.009999e-004,9.960840e-005
-9.909290e-004,3.996836e-005
-1.266278e-003,-7.840905e-006
-1.432557e-003,-5.953974e-005
-1.519424e-003,-1.233935e-004
-1.575661e-003,-1.989159e-004
-1.653938e-003,-2.770314e-004
-1.775811e-003,-3.455850e-004
-1.908867e-003,-3.933942e-004
-1.999462e-003,-4.121938e-004
-2.015182e-003,-4.018217e-004
-1.957163e-003,-3.698948e-004
-1.868189e-003,-3.251648e-004
-1.806766e-003,-2.770314e-004
-1.798987e-003,-2.240360e-004
-1.834641e-003,-1.558065e-004
-1.889743e-003,-6.602235e-005
-1.927180e-003,3.834771e-005
-1.902060e-003,1.380179e-004
-1.773056e-003,2.174299e-004
-1.517317e-003,2.713976e-004
-1.137112e-003,2.986246e-004
-6.679328e-004,2.968419e-004
-1.749302e-004,2.702632e-004
2.636185e-004,2.266676e-004
6.000663e-004,1.739964e-004
8.295509e-004,1.211631e-004
9.778409e-004,7.432621e-005
1.069570e-003,4.013043e-005
1.112031e-003,2.003433e-005
1.102955e-003,1.063454e-005
1.039588e-003,-6.058186e-006
9.334349e-004,-4.041603e-005
8.198270e-004,-9.292519e-005
7.235601e-004,-1.571030e-004
6.392861e-004,-2.271153e-004
5.446399e-004,-2.974516e-004
4.394594e-004,-3.601709e-004
3.495132e-004,-4.053871e-004
3.030004e-004,-4.272659e-004
3.086727e-004,-4.249970e-004
3.472442e-004,-3.948528e-004
3.952156e-004,-3.316474e-004
4.491834e-004,-2.335979e-004
5.094717e-004,-1.079973e-004
5.723531e-004,3.154097e-005
6.222692e-004,1.681620e-004
6.428515e-004,2.864697e-004
6.284277e-004,3.833848e-004
5.882355e-004,4.674967e-004
5.376711e-004,5.465847e-004
4.929410e-004,6.227554e-004
4.587452e-004,6.874196e-004
4.362181e-004,7.258290e-004
4.153117e-004,7.182119e-004
3.799814e-004,6.566271e-004
3.281205e-004,5.532294e-004
2.696149e-004,4.381629e-004
2.188885e-004,3.529165e-004
1.914994e-004,3.289309e-004
1.974959e-004,3.679886e-004
2.290986e-004,4.427008e-004
2.566497e-004,5.366987e-004
2.527601e-004,6.446342e-004
2.013854e-004,7.522457e-004
8.745350e-005,8.468920e-004
-7.493595e-005,9.220903e-004
-2.267911e-004,9.671445e-004
-3.157650e-004,9.705479e-004
-3.402368e-004,9.232247e-004
-3.442885e-004,8.259855e-004
-3.692465e-004,6.888781e-004
-4.190006e-004,5.264885e-004
-4.612996e-004,3.590750e-004
-4.548170e-004,2.078680e-004
-3.898288e-004,8.534666e-005
-2.771934e-004,-1.545797e-005
-1.345760e-004,-1.209625e-004
7.069104e-006,-2.493182e-004
9.280166e-005,-4.068456e-004
6.638501e-005,-5.834968e-004
-8.919769e-005,-7.572308e-004
-3.395886e-004,-9.061688e-004
-6.244993e-004,-1.018966e-003
-8.818590e-004,-1.098054e-003
-1.068234e-003,-1.153805e-003
-1.155101e-003,-1.197886e-003
-1.123498e-003,-1.241644e-003
-9.850946e-004,-1.297718e-003
-7.685754e-004,-1.379399e-003
-4.752372e-004,-1.501110e-003
-9.081834e-005,-1.662852e-003
3.749574e-004,-1.841610e-003
8.694190e-004,-1.997355e-003
1.318827e-003,-2.083411e-003
1.667430e-003,-2.068501e-003
1.906963e-003,-1.952463e-003
2.068867e-003,-1.769329e-003
2.174534e-003,-1.558158e-003
2.221695e-003,-1.344231e-003
2.192361e-003,-1.129495e-003
2.073891e-003,-9.131376e-004
1.856561e-003,-7.055320e-004
1.545557e-003,-5.149432e-004
1.162920e-003,-3.405610e-004
7.491664e-004,-1.690959e-004
3.459477e-004,2.700314e-005
-1.756482e-005,2.715597e-004
-3.225717e-004,5.712186e-004
-5.651835e-004,9.125284e-004
-7.591756e-004,1.255135e-003
-9.171892e-004,1.547339e-003
-1.027394e-003,1.739225e-003
-1.090599e-003,1.812317e-003
-1.149915e-003,1.774880e-003
-1.259633e-003,1.650899e-003
-1.435636e-003,1.462417e-003
-1.661879e-003,1.236335e-003
-1.894767e-003,1.000854e-003
-2.076929e-003,7.869277e-004
-2.163958e-003,6.170831e-004
-2.131707e-003,5.023408e-004
-1.991358e-003,4.407560e-004
-1.783266e-003,4.198496e-004
-1.538223e-003,4.222805e-004
-1.268223e-003,4.336251e-004
-9.675915e-004,4.459420e-004
-6.355197e-004,4.558280e-004
-2.817312e-004,4.592314e-004
7.578480e-005,4.600418e-004
4.106118e-004,4.650658e-004
6.934159e-004,4.747897e-004
8.979425e-004,4.895377e-004
1.012037e-003,5.047718e-004
1.038939e-003,5.130371e-004
1.000854e-003,5.104441e-004
9.347314e-004,4.979650e-004
8.703914e-004,4.790034e-004
8.207993e-004,4.564763e-004
7.840105e-004,4.307079e-004
7.460872e-004,4.004017e-004
7.015192e-004,3.663680e-004
6.506307e-004,3.323342e-004
5.989318e-004,3.023521e-004
5.532294e-004,2.754493e-004
5.225990e-004,2.574600e-004
5.060683e-004,2.535705e-004
4.890515e-004,2.636185e-004
4.553419e-004,2.770700e-004
3.979707e-004,2.788527e-004
3.192069e-004,2.574600e-004
2.252090e-004,2.080301e-004
1.218114e-004,1.323456e-004
2.311357e-005,4.158902e-005
-5.451571e-005,-5.321919e-005
-1.055663e-004,-1.446240e-004
-1.462447e-004,-2.298704e-004
-1.843300e-004,-3.027998e-004
-2.131776e-004,-3.601709e-004
-2.128535e-004,-4.016596e-004
-1.661787e-004,-4.256452e-004
-7.331529e-005,-4.313175e-004
3.980630e-005,-4.160834e-004
1.432040e-004,-3.815635e-004
2.135403e-004,-3.321336e-004
2.349330e-004,-2.734659e-004
2.004130e-004,-2.078295e-004
1.163011e-004,-1.319829e-004
7.485573e-007,-4.333321e-005
-1.138316e-004,5.260946e-005
-1.891920e-004,1.347766e-004
-2.019951e-004,1.744826e-004
-1.507825e-004,1.561692e-004
-5.030201e-005,8.923622e-005
7.546067e-005,1.072688e-006
1.816135e-004,-8.158062e-005
2.234263e-004,-1.365208e-004
1.966855e-004,-1.530514e-004
1.346145e-004,-1.318209e-004
8.826383e-005,-8.773910e-005
1.025256e-004,-4.090223e-005
1.897167e-004,5.448451e-006
3.250413e-004,5.828174e-005
4.736553e-004,1.214872e-004
6.044420e-004,1.893926e-004
6.849886e-004,2.491947e-004
6.903367e-004,2.887386e-004
6.143280e-004,3.055935e-004
4.657140e-004,3.028383e-004
2.584324e-004,2.848491e-004
1.857574e-005,2.538946e-004
-2.102605e-004,2.162954e-004
-3.883702e-004,1.790204e-004
-4.817198e-004,1.485521e-004
-4.694028e-004,1.263492e-004
-3.462333e-004,1.073875e-004
-1.340898e-004,8.631904e-005
1.214872e-004,6.346784e-005
3.741471e-004,4.547859e-005
5.866148e-004,3.688912e-005
7.212912e-004,3.705119e-005
7.494906e-004,3.818564e-005
6.679717e-004,3.834771e-005
5.174129e-004,3.688912e-005
3.759298e-004,3.121684e-005
3.235827e-004,2.019640e-005
4.020223e-004,5.124321e-006
5.942319e-004,-6.868512e-006
8.491608e-004,-1.480971e-005
1.107007e-003,-2.064406e-005
1.312344e-003,-2.874733e-005
1.420928e-003,-4.074016e-005
1.419794e-003,-6.116039e-005
1.314451e-003,-8.773910e-005
1.110086e-003,-1.173971e-004
8.130202e-004,-1.485136e-004
4.407560e-004,-1.773612e-004
1.711715e-005,-1.987538e-004
-4.188385e-004,-2.123673e-004
-8.252982e-004,-2.182017e-004
-1.171632e-003,-2.207947e-004
-1.448439e-003,-2.256567e-004
-1.669983e-003,-2.352185e-004
-1.854251e-003,-2.483458e-004
-1.991845e-003,-2.645523e-004
-2.055050e-003,-2.823795e-004
-2.027823e-003,-2.929138e-004
-1.918591e-003,-2.895104e-004
-1.749233e-003,-2.700626e-004
-1.515372e-003,-2.402425e-004
-1.202910e-003,-2.060468e-004
-8.184914e-004,-1.742820e-004
-4.031182e-004,-1.467309e-004
-1.626830e-005,-1.266348e-004
2.782044e-004,-1.175591e-004
4.235770e-004,-1.172350e-004
3.944053e-004,-1.276072e-004
2.085163e-004,-1.507825e-004
-7.315322e-005,-1.921091e-004
-3.758912e-004,-2.504527e-004
-6.350335e-004,-3.128478e-004
-8.171949e-004,-3.655190e-004
-9.231857e-004,-3.995527e-004
-9.795843e-004,-4.126800e-004
-1.021235e-003,-4.039285e-004
-1.073744e-003,-3.796187e-004
-1.145053e-003,-3.475298e-004
-1.221062e-003,-3.079858e-004
-1.283133e-003,-2.692523e-004
-1.313277e-003,-2.387839e-004
-1.293505e-003,-2.144742e-004
-1.212634e-003,-1.859507e-004
-1.062076e-003,-1.276072e-004
-8.218948e-004,-2.826113e-005
-4.776682e-004,1.075496e-004
-4.592625e-005,2.645909e-004
4.303838e-004,4.297355e-004
9.003735e-004,5.874252e-004
1.335195e-003,7.224256e-004
1.726908e-003,8.229063e-004
2.074539e-003,8.700673e-004
2.364476e-003,8.549952e-004
2.557820e-003,7.835244e-004
2.600768e-003,6.687820e-004
2.447940e-003,5.266506e-004
2.120080e-003,3.811159e-004
1.709567e-003,2.579462e-004
1.345730e-003,1.731861e-004
1.120296e-003,1.294284e-004
1.032457e-003,1.192183e-004
1.016250e-003,1.310491e-004
9.966404e-004,1.506590e-004
9.241971e-004,1.670276e-004
7.862794e-004,1.715654e-004
5.940698e-004,1.594105e-004
3.632887e-004,1.229458e-004
1.033359e-004,6.265751e-005
-1.851403e-004,-2.048200e-005
-4.938747e-004,-1.214487e-004
-8.009885e-004,-2.227395e-004
-1.083144e-003,-3.002067e-004
-1.313115e-003,-3.335922e-004
-1.450546e-003,-3.143064e-004
-1.460108e-003,-2.519113e-004
-1.352335e-003,-1.705545e-004
-1.195131e-003,-9.503204e-005
-1.062238e-003,-3.733679e-005
-9.688881e-004,8.203561e-006
-8.726213e-004,4.953022e-005
-7.089353e-004,9.150514e-005
-4.399070e-004,1.310491e-004
-8.595638e-005,1.545486e-004
2.791768e-004,1.428798e-004
5.733254e-004,8.761556e-005
7.465734e-004,-4.599598e-006
7.898449e-004,-1.144799e-004
7.352288e-004,-2.219292e-004
6.457687e-004,-3.130099e-004
5.903423e-004,-3.779980e-004
6.052523e-004,-4.164075e-004
6.772094e-004,-4.379622e-004
7.627800e-004,-4.564376e-004
8.263096e-004,-4.805854e-004
8.451092e-004,-5.112157e-004
8.224201e-004,-5.342290e-004
7.877380e-004,-5.285567e-004
7.697488e-004,-4.561135e-004
7.567835e-004,-2.703867e-004
7.127018e-004,4.628891e-005
6.046041e-004,4.670106e-004
4.256839e-004,9.248454e-004
1.978200e-004,1.348485e-003
-3.976777e-005,1.690605e-003
-2.514251e-004,1.924791e-003
-4.185144e-004,2.030458e-003
-5.371462e-004,1.994479e-003
-6.141271e-004,1.812641e-003
-6.692293e-004,1.513954e-003
-7.264384e-004,1.156437e-003
-8.073090e-004,8.133444e-004
-9.261028e-004,5.454502e-004
-1.096757e-003,3.901916e-004
-1.305660e-003,3.545372e-004
-1.508566e-003,4.062360e-004
-1.662041e-003,4.867825e-004
-1.723464e-003,5.225990e-004
-1.660745e-003,4.657140e-004
-1.465132e-003,3.101313e-004
-1.163853e-003,8.064676e-005
-7.938575e-004,-1.831956e-004
-3.810773e-004,-4.471999e-004
5.714729e-005,-6.969425e-004
4.956961e-004,-9.293441e-004
8.940530e-004,-1.142298e-003
1.206677e-003,-1.324297e-003
1.393377e-003,-1.461405e-003
1.441673e-003,-1.552485e-003
1.375064e-003,-1.608074e-003
1.237956e-003,-1.642270e-003
1.077349e-003,-1.652642e-003
9.261419e-004,-1.614232e-003
8.023239e-004,-1.494304e-003
7.131879e-004,-1.277136e-003
6.763990e-004,-9.799085e-004
7.105949e-004,-6.517263e-004
8.096169e-004,-3.483401e-004
9.376486e-004,-1.047560e-004
1.052391e-003,6.849186e-005
1.111059e-003,1.822617e-004
1.088207e-003,2.584324e-004
9.880509e-004,3.111037e-004
8.426782e-004,3.449753e-004
6.963331e-004,3.715541e-004
5.828873e-004,4.075326e-004
5.076890e-004,4.618245e-004
4.415663e-004,5.260024e-004
3.201793e-004,5.811046e-004
7.902610e-005,6.060626e-004
-2.929138e-004,5.911527e-004
-7.303280e-004,5.388056e-004
-1.131277e-003,4.665244e-004
-1.415540e-003,3.945674e-004
-1.550216e-003,3.313618e-004
-1.542761e-003,2.728562e-004
-1.426723e-003,2.172678e-004
-1.254447e-003,1.662173e-004
-1.072934e-003,1.156529e-004
-9.212409e-004,6.444023e-005
-8.306463e-004,1.744128e-005
-8.256223e-004,-1.383732e-005
-8.949863e-004,-2.210265e-005
-9.854187e-004,-1.221667e-005
-1.031283e-003,4.476060e-006
-9.872015e-004,1.727922e-005
-8.494459e-004,2.262737e-005
-6.505919e-004,2.424803e-005
-4.421759e-004,2.586868e-005
-2.632558e-004,2.554455e-005
-1.164247e-004,1.598270e-005
1.663096e-005,-3.303075e-006
1.448246e-004,-2.501983e-005
2.568118e-004,-3.911951e-005
3.386548e-004,-3.749886e-005
3.879227e-004,-1.173047e-005
4.146634e-004,3.510640e-005
4.401077e-004,9.328785e-005
4.796517e-004,1.543865e-004
5.435054e-004,2.154851e-004
6.425274e-004,2.720459e-004
7.694246e-004,3.154794e-004
8.806015e-004,3.435167e-004
9.238730e-004,3.581026e-004
8.912979e-004,3.668542e-004
8.216097e-004,3.707437e-004
7.720176e-004,3.623164e-004
7.731521e-004,3.261757e-004
8.284165e-004,2.540566e-004
9.308418e-004,1.516314e-004
1.066491e-003,4.191315e-005
1.206353e-003,-5.127441e-005
1.316072e-003,-1.115627e-004
1.380088e-003,-1.324691e-004
1.397753e-003,-1.091317e-004
1.366474e-003,-4.722277e-005
1.276690e-003,4.823369e-005
1.107007e-003,1.780480e-004
8.360335e-004,3.371962e-004
4.678209e-004,5.078511e-004
4.953022e-005,6.673234e-004
-3.494745e-004,7.880622e-004
-6.763602e-004,8.452713e-004
-9.157307e-004,8.256614e-004
-1.076986e-003,7.316634e-004
-1.189621e-003,5.807804e-004
-1.274705e-003,4.031568e-004
-1.318949e-003,2.310434e-004
-1.284753e-003,8.615698e-005
-1.138246e-003,-2.615428e-005
-8.820211e-004,-1.101041e-004
-5.496251e-004,-1.736337e-004
-1.849783e-004,-2.193361e-004
1.615174e-004,-2.525595e-004
4.407560e-004,-2.765452e-004
6.136798e-004,-2.958309e-004
6.640821e-004,-3.157650e-004
5.851563e-004,-3.382920e-004
3.900295e-004,-3.575778e-004
1.258630e-004,-3.647087e-004
-1.350622e-004,-3.596847e-004
-3.392644e-004,-3.468815e-004
-4.672960e-004,-3.319715e-004
-5.092709e-004,-3.175477e-004
-4.674581e-004,-3.070135e-004
-3.698948e-004,-3.011791e-004
-2.783279e-004,-2.956689e-004
-2.653627e-004,-2.885380e-004
-3.669776e-004,-2.812450e-004
-5.480045e-004,-2.742762e-004
-7.295177e-004,-2.674695e-004
-8.442599e-004,-2.650385e-004
-8.700282e-004,-2.793003e-004
-8.163846e-004,-3.271095e-004
-6.915944e-004,-4.235384e-004
-4.820439e-004,-5.552974e-004
-1.817370e-004,-6.818704e-004
1.773998e-004,-7.515585e-004
5.191956e-004,-7.266005e-004
7.490044e-004,-6.087790e-004
7.841726e-004,-4.316416e-004
5.817529e-004,-2.353806e-004
1.782101e-004,-5.176060e-005
-3.193304e-004,1.033359e-004
-7.821888e-004,2.325020e-004
-1.119771e-003,3.401134e-004
-1.268385e-003,4.203357e-004
-1.202748e-003,4.619866e-004
-9.449024e-004,4.597176e-004
-5.676145e-004,4.188771e-004
-1.666649e-004,3.572923e-004
1.780480e-004,2.970040e-004
4.311941e-004,2.553532e-004
5.966629e-004,2.331502e-004
7.033019e-004,2.172678e-004
7.804451e-004,1.949028e-004
8.361956e-004,1.573037e-004
8.637467e-004,1.025256e-004
8.502953e-004,3.543053e-005
7.935723e-004,-3.555407e-005
7.070294e-004,-1.041077e-004
6.162728e-004,-1.741199e-004
5.460985e-004,-2.499665e-004
5.067165e-004,-3.309991e-004
4.887274e-004,-4.183523e-004
4.671726e-004,-5.068399e-004
4.185530e-004,-5.899794e-004
3.331445e-004,-6.606399e-004
2.124059e-004,-7.202799e-004
6.751947e-005,-7.714925e-004
-8.433573e-005,-8.037435e-004
-2.301945e-004,-7.954782e-004
-3.671397e-004,-7.288694e-004
-4.951712e-004,-5.930586e-004
-6.006758e-004,-4.014975e-004
-6.663122e-004,-1.831956e-004
-6.760361e-004,4.045456e-005
-6.178546e-004,2.597290e-004
-5.010056e-004,4.713863e-004
-3.486642e-004,6.642442e-004
-1.799543e-004,8.225821e-004
-7.678839e-006,9.287350e-004
1.680000e-004,9.770305e-004
3.582647e-004,9.736271e-004
5.738116e-004,9.297074e-004
8.167477e-004,8.590468e-004
1.069246e-003,7.757451e-004
1.303755e-003,6.875816e-004
1.484620e-003,6.023351e-004
1.578780e-003,5.237334e-004
1.571649e-003,4.590693e-004
1.471817e-003,4.107739e-004
1.303593e-003,3.709058e-004
1.077349e-003,3.324963e-004
7.866035e-004,2.919800e-004
4.133669e-004,2.443327e-004
-3.701266e-005,1.879340e-004
-5.045710e-004,1.291043e-004
-8.922312e-004,9.847395e-005
-1.120743e-003,1.292664e-004
-1.164987e-003,2.192126e-004
-1.059158e-003,3.384927e-004
-8.667869e-004,4.530729e-004
-6.395714e-004,5.425331e-004
-4.052250e-004,5.973111e-004
-1.671511e-004,6.209727e-004
5.520250e-005,6.159487e-004
2.281262e-004,5.791598e-004
3.240689e-004,5.091476e-004
3.358997e-004,4.115842e-004
2.824181e-004,3.020280e-004
1.961993e-004,2.007372e-004
1.038221e-004,1.213252e-004
1.695509e-005,7.076077e-005
-5.467778e-005,4.726130e-005
-1.050801e-004,3.786152e-005
-1.365208e-004,2.570661e-005
-1.595340e-004,-2.816880e-006
-1.895161e-004,-5.305713e-005
-2.345703e-004,-1.232314e-004
-2.971275e-004,-2.120432e-004
-3.737843e-004,-3.185201e-004
-4.541687e-004,-4.340726e-004
-5.180224e-004,-5.480045e-004
-5.504355e-004,-6.445954e-004
-5.437908e-004,-7.134731e-004
-5.039228e-004,-7.510723e-004
-4.366657e-004,-7.616066e-004
-3.493125e-004,-7.549619e-004
-2.595283e-004,-7.345417e-004
-1.958366e-004,-6.917564e-004
-1.809267e-004,-6.039171e-004
-2.204706e-004,-4.480102e-004
-2.932379e-004,-2.314910e-004
-3.643846e-004,9.986280e-006
-4.052250e-004,2.286124e-004
-4.027940e-004,3.884088e-004
-3.562813e-004,4.739794e-004
-2.525595e-004,4.884032e-004
-7.444974e-005,4.478869e-004
1.579519e-004,3.720402e-004
3.853296e-004,2.825802e-004
5.527431e-004,1.984682e-004
6.457687e-004,1.282940e-004
6.786680e-004,6.849186e-005
6.759128e-004,1.679302e-005
6.575995e-004,-2.404744e-005
6.259967e-004,-5.240886e-005
5.684635e-004,-7.315322e-005
4.658761e-004,-9.811128e-005
2.999211e-004,-1.415448e-004
6.670914e-005,-2.047502e-004
-2.310048e-004,-2.810830e-004
-5.950034e-004,-3.614674e-004
-1.025773e-003,-4.381243e-004
-1.492197e-003,-4.985746e-004
-1.925722e-003,-5.326083e-004
-2.246936e-003,-5.358497e-004
-2.374157e-003,-5.113778e-004
-2.250015e-003,-4.553032e-004
-1.878561e-003,-3.603329e-004
-1.340666e-003,-2.276015e-004
-7.598238e-004,-7.299116e-005
-2.314910e-004,7.319175e-005
2.161334e-004,1.842065e-004
5.896941e-004,2.631323e-004
9.063699e-004,3.384927e-004
1.188688e-003,4.287631e-004
1.444103e-003,5.332953e-004
1.658679e-003,6.357207e-004
1.812803e-003,7.201567e-004
1.895943e-003,7.773659e-004
1.906477e-003,8.057273e-004
1.839544e-003,8.071859e-004
1.688823e-003,7.835244e-004
1.457393e-003,7.323117e-004
1.155789e-003,6.498203e-004
8.101031e-004,5.448019e-004
4.542074e-004,4.320044e-004
1.234320e-004,3.252033e-004
-1.527273e-004,2.303951e-004
-3.741085e-004,1.453108e-004
-5.684248e-004,6.638501e-005
-7.526929e-004,-4.923729e-006
-8.948242e-004,-6.618442e-005
-9.486299e-004,-1.170729e-004
-8.957966e-004,-1.601823e-004
-7.739235e-004,-1.994021e-004
-6.428128e-004,-2.355427e-004
-5.533526e-004,-2.666592e-004
-5.100812e-004,-2.898345e-004
-4.830163e-004,-3.063652e-004
-4.360174e-004,-3.193304e-004
-3.455850e-004,-3.293785e-004
-2.092881e-004,-3.298646e-004
-5.159854e-005,-3.044204e-004
8.923622e-005,-2.438080e-004
1.882581e-004,-1.556445e-004
2.503292e-004,-6.310517e-005
3.077003e-004,1.744128e-005
3.892192e-004,8.729143e-005
4.982892e-004,1.594105e-004
6.195141e-004,2.412535e-004
7.460872e-004,3.337928e-004
8.784947e-004,4.290873e-004
1.017061e-003,5.141716e-004
1.157247e-003,5.798081e-004
1.293869e-003,6.172452e-004
1.410070e-003,6.185417e-004
1.481054e-003,5.794839e-004
1.471817e-003,5.034753e-004
1.350429e-003,4.026706e-004
1.113166e-003,2.948972e-004
7.979481e-004,1.926339e-004
4.707380e-004,1.128978e-004
1.973338e-004,7.011251e-005
1.144487e-005,6.816773e-005
-9.584237e-005,1.012291e-004
-1.509446e-004,1.568175e-004
-1.749302e-004,2.148369e-004
-1.854645e-004,2.571359e-004
-2.180396e-004,2.735045e-004
-3.258130e-004,2.641047e-004
-5.471942e-004,2.386605e-004
-8.533355e-004,2.057612e-004
-1.146836e-003,1.665414e-004
-1.318625e-003,1.112771e-004
-1.311494e-003,2.797553e-005
-1.156560e-003,-8.384953e-005
-9.403646e-004,-2.094501e-004
-7.577170e-004,-3.246786e-004
-6.742533e-004,-4.133283e-004
-6.996976e-004,-4.799371e-004
-7.813785e-004,-5.355255e-004
-8.355083e-004,-5.856036e-004
-7.941817e-004,-6.311440e-004
-6.400576e-004,-6.687432e-004
-3.935563e-004,-6.945115e-004
-9.373551e-005,-7.081250e-004
2.101370e-004,-7.035872e-004
4.649037e-004,-6.682570e-004
6.315069e-004,-5.924104e-004
7.148086e-004,-4.766958e-004
7.713694e-004,-3.322956e-004
8.613158e-004,-1.810887e-004
9.998818e-004,-4.187462e-005
1.137475e-003,6.768153e-005
1.197440e-003,1.383420e-004
1.129696e-003,1.678379e-004
9.361900e-004,1.589243e-004
6.648924e-004,1.198666e-004
3.756057e-004,6.119892e-005
1.099806e-004,-9.947754e-006
-1.071869e-004,-8.757703e-005
-2.580697e-004,-1.681235e-004
-3.238682e-004,-2.488320e-004
-2.878897e-004,-3.256510e-004
-1.449481e-004,-3.963114e-004
7.221937e-005,-4.601651e-004
2.984626e-004,-5.183466e-004
4.741414e-004,-5.736108e-004
5.825632e-004,-6.209339e-004
6.480376e-004,-6.441093e-004
6.987641e-004,-6.280647e-004
7.439803e-004,-5.726385e-004
7.660213e-004,-4.890127e-004
7.277738e-004,-3.870737e-004
5.971491e-004,-2.605007e-004
3.901916e-004,-9.179074e-005
1.652449e-004,1.260251e-004
-8.002969e-006,3.671783e-004
-8.644258e-005,5.841838e-004
-7.785312e-005,7.441424e-004
-3.539201e-005,8.391127e-004
-2.372330e-005,8.741189e-004
-8.676671e-005,8.596951e-004
-2.345703e-004,8.115617e-004
-4.421759e-004,7.405770e-004
-6.609640e-004,6.443101e-004
-8.452322e-004,5.101199e-004
-9.692122e-004,3.279585e-004
-1.025125e-003,1.182459e-004
-1.020587e-003,-7.380149e-005
-9.789361e-004,-2.123673e-004
-9.115170e-004,-2.849726e-004
-8.099020e-004,-3.032860e-004
-6.729568e-004,-3.000446e-004
-5.151053e-004,-3.021515e-004
-3.606571e-004,-3.170615e-004
-2.379736e-004,-3.326198e-004
-1.750923e-004,-3.348887e-004
-1.898402e-004,-3.109030e-004
-2.815692e-004,-2.540181e-004
-4.392587e-004,-1.648822e-004
-6.272544e-004,-3.847125e-005
-7.875370e-004,1.313732e-004
-8.624112e-004,3.449753e-004
-7.992057e-004,5.856425e-004
-5.713420e-004,8.169098e-004
-2.052364e-004,9.985853e-004
2.213195e-004,1.101011e-003
6.177314e-004,1.107331e-003
9.447794e-004,1.011875e-003
1.207164e-003,8.219338e-004
1.412501e-003,5.537155e-004
1.546043e-003,2.281262e-004
1.573270e-003,-1.329553e-004
1.481054e-003,-4.886886e-004
1.299217e-003,-7.911024e-004
1.081563e-003,-1.007135e-003
8.794671e-004,-1.141650e-003
7.169154e-004,-1.220575e-003
5.853183e-004,-1.266440e-003
4.533971e-004,-1.275678e-003
2.910076e-004,-1.219927e-003
9.555677e-005,-1.079255e-003
-1.229073e-004,-8.680834e-004
-3.611433e-004,-6.254717e-004
-6.330888e-004,-3.964735e-004
-9.590021e-004,-2.112329e-004
-1.343583e-003,-7.526008e-005
-1.776135e-003,2.327564e-005
-2.216792e-003,9.993253e-005
-2.592621e-003,1.731861e-004
-2.821620e-003,2.534084e-004
-2.852737e-003,3.525924e-004
-2.691806e-003,4.777069e-004
-2.394739e-003,6.237278e-004
-2.034792e-003,7.702350e-004
-1.665121e-003,8.851393e-004
-1.311332e-003,9.480208e-004
-9.779637e-004,9.608240e-004
-6.583710e-004,9.408899e-004
-3.525538e-004,9.047493e-004
-8.174268e-005,8.587227e-004
1.116012e-004,8.097789e-004
1.923098e-004,7.640765e-004
1.715654e-004,7.245325e-004
1.175977e-004,6.914712e-004
1.096565e-004,6.635959e-004
1.911753e-004,6.381517e-004
3.550234e-004,6.052523e-004
5.601982e-004,5.556603e-004
7.606731e-004,4.908342e-004
9.274384e-004,4.250356e-004
1.057739e-003,3.713920e-004
1.167944e-003,3.334687e-004
1.273935e-003,3.047831e-004
1.379601e-003,2.775562e-004
1.470520e-003,2.428742e-004
1.525622e-003,1.992786e-004
1.538426e-003,1.509831e-004
1.515899e-003,1.051186e-004
1.461607e-003,6.476436e-005
1.374253e-003,3.364782e-005
1.261456e-003,2.068259e-005
1.141851e-003,2.846173e-005
1.050284e-003,4.693717e-005
1.013495e-003,6.687120e-005
1.038453e-003,8.534666e-005
1.107007e-003,1.015532e-004
1.182692e-003,1.085220e-004
1.230339e-003,9.912220e-005
1.234553e-003,7.189524e-005
1.193874e-003,3.316162e-005
1.110735e-003,-3.465141e-006
9.687651e-004,-2.453363e-005
7.300427e-004,-2.566809e-005
3.858158e-004,-9.785687e-006
5.124321e-006,1.209313e-005
-3.065272e-004,3.137890e-005
-4.681063e-004,4.499239e-005
-4.540066e-004,5.552663e-005
-2.937241e-004,6.395403e-005
-4.187462e-005,7.124698e-005
2.419018e-004,7.140904e-005
5.041235e-004,6.038860e-005
7.251807e-004,4.158902e-005
9.188490e-004,1.452411e-005
1.088856e-003,-2.518189e-005
1.217050e-003,-8.093235e-005
1.264049e-003,-1.532135e-004
1.196305e-003,-2.361909e-004
1.020950e-003,-3.241924e-004
7.932482e-004,-4.050630e-004
5.773771e-004,-4.658374e-004
3.859779e-004,-5.084606e-004
1.856651e-004,-5.473563e-004
-4.949169e-005,-5.870622e-004
-3.118754e-004,-6.112100e-004
-5.844692e-004,-5.948414e-004
-8.562527e-004,-5.215878e-004
-1.118799e-003,-3.982562e-004
-1.362383e-003,-2.502906e-004
-1.579874e-003,-1.152902e-004
-1.766412e-003,-2.372330e-005
-1.912757e-003,9.662150e-006
-2.018099e-003,-6.058186e-006
-2.093297e-003,-4.398147e-005
-2.127169e-003,-7.947377e-005
-2.090056e-003,-1.041077e-004
-1.964455e-003,-1.242038e-004
-1.769491e-003,-1.428413e-004
-1.526231e-003,-1.567789e-004
-1.245209e-003,-1.640719e-004
-9.355026e-004,-1.634236e-004
-6.009999e-004,-1.562927e-004
-2.292221e-004,-1.399241e-004
1.983062e-004,-1.180453e-004
6.720233e-004,-9.389758e-005
1.136665e-003,-7.120844e-005
1.500016e-003,-4.803310e-005
1.667754e-003,-2.356124e-005
1.588666e-003,-1.358292e-006
1.274097e-003,1.452411e-005
8.024860e-004,2.100672e-005
2.966798e-004,2.133085e-005
-1.175591e-004,1.922400e-005
-3.655190e-004,1.598270e-005
-4.446069e-004,9.986280e-006
-4.078180e-004,1.072688e-006
-3.274337e-004,-1.075808e-005
-2.553146e-004,-2.388537e-005
-1.994021e-004,-3.555407e-005
-1.295519e-004,-4.106429e-005
-6.382316e-006,-4.252288e-005
1.778859e-004,-4.009190e-005
3.890571e-004,-3.101624e-005
5.775391e-004,-1.756482e-005
7.036260e-004,-2.330684e-006
7.517594e-004,8.365628e-006
7.191843e-004,1.436204e-005
6.133557e-004,1.808955e-005
4.571246e-004,1.808955e-005
2.840387e-004,1.598270e-005
1.182459e-004,1.889987e-005
-3.506787e-005,3.429608e-005
-1.844921e-004,6.055066e-005
-3.253268e-004,9.507057e-005
-4.361795e-004,1.326697e-004
-5.010056e-004,1.692965e-004
-5.251534e-004,2.044647e-004
-5.264499e-004,2.396328e-004
-5.107295e-004,2.743148e-004
-4.708614e-004,3.025142e-004
-3.805911e-004,3.179104e-004
-2.079916e-004,3.089968e-004
5.763348e-005,2.704253e-004
4.005638e-004,2.085163e-004
7.793106e-004,1.349386e-004
1.124348e-003,6.281957e-005
1.346054e-003,3.341602e-006
1.386246e-003,-4.025397e-005
1.249301e-003,-6.845333e-005
9.912923e-004,-8.968388e-005
6.752646e-004,-1.164247e-004
3.401134e-004,-1.506204e-004
-2.654814e-006,-1.833576e-004
-3.434781e-004,-2.053985e-004
-6.585330e-004,-2.147983e-004
-9.186478e-004,-2.159328e-004
-1.104051e-003,-2.135018e-004
-1.208907e-003,-2.066950e-004
-1.243427e-003,-2.006986e-004
-1.225924e-003,-1.982676e-004
-1.172928e-003,-1.953505e-004
-1.067748e-003,-1.818990e-004
-8.794280e-004,-1.549962e-004
-5.997033e-004,-1.138316e-004
-2.609869e-004,-6.018800e-005
7.124698e-005,4.476060e-006
3.243930e-004,8.032263e-005
4.530729e-004,1.605450e-004
4.508040e-004,2.406053e-004
3.496752e-004,3.206655e-004
1.974959e-004,4.073705e-004
3.834771e-005,5.057441e-004
-9.892161e-005,6.057385e-004
-2.088019e-004,6.935780e-004
-2.930758e-004,7.514353e-004
-3.322956e-004,7.692626e-004
-3.102547e-004,7.417114e-004
-2.290600e-004,6.738060e-004
-1.002181e-004,5.811046e-004
5.244739e-005,4.837033e-004
2.036543e-004,3.968363e-004
3.326584e-004,3.279585e-004
4.279528e-004,2.725321e-004
4.905100e-004,2.188885e-004
5.224369e-004,1.594105e-004
5.227610e-004,9.296372e-005
4.960202e-004,2.554455e-005
4.548556e-004,-3.879538e-005
4.119083e-004,-9.762508e-005
3.720402e-004,-1.452723e-004
3.297412e-004,-1.757406e-004
2.793389e-004,-1.890299e-004
2.252090e-004,-1.943781e-004
1.780480e-004,-1.972952e-004
1.493625e-004,-1.982676e-004
1.380179e-004,-1.921091e-004
1.304008e-004,-1.697441e-004
1.148425e-004,-1.287416e-004
9.831188e-005,-7.509801e-005
8.615698e-005,-2.858526e-005
6.492643e-005,-4.599598e-006
3.964423e-005,-3.789271e-006
3.640293e-005,-1.594417e-005
6.914012e-005,-3.182657e-005
1.273216e-004,-4.414354e-005
1.833962e-004,-5.143647e-005
2.192126e-004,-4.252288e-005
2.500050e-004,-1.682422e-006
3.370341e-004,7.918817e-005
5.566327e-004,1.963614e-004
9.261419e-004,3.386548e-004
1.381060e-003,4.888894e-004
1.802269e-003,6.172452e-004
2.079077e-003,6.977917e-004
2.149576e-003,7.178878e-004
2.003068e-003,6.804507e-004
1.673102e-003,6.041179e-004
1.220777e-003,5.086614e-004
7.050846e-004,4.021844e-004
1.667035e-004,2.790147e-004
-3.567675e-004,1.378558e-004
-8.381014e-004,-9.947754e-006
-1.273247e-003,-1.413827e-004
-1.670307e-003,-2.352185e-004
-2.039654e-003,-2.888622e-004
-2.395712e-003,-3.087962e-004
-2.752742e-003,-3.096065e-004
-3.117228e-003,-3.084720e-004
-3.472639e-003,-3.228959e-004
-3.763385e-003,-3.648708e-004
-3.908921e-003,-4.426621e-004
-3.833884e-003,-5.533526e-004
-3.511858e-003,-6.823567e-004
-2.982389e-003,-8.129812e-004
-2.344337e-003,-9.293441e-004
-1.705313e-003,-1.024801e-003
-1.135005e-003,-1.099675e-003
-6.561021e-004,-1.157046e-003
-2.459148e-004,-1.195131e-003
1.375317e-004,-1.200317e-003
5.213025e-004,-1.151860e-003
8.955116e-004,-1.030311e-003
1.226612e-003,-8.257844e-004
1.479110e-003,-5.481666e-004
1.629507e-003,-2.339220e-004
1.669861e-003,5.876794e-005
1.604386e-003,2.809595e-004
1.457879e-003,4.127187e-004
1.279121e-003,4.668485e-004
1.130993e-003,4.790034e-004
1.064546e-003,4.827309e-004
1.109276e-003,4.966685e-004
1.269397e-003,5.161164e-004
1.525461e-003,5.319988e-004
1.836951e-003,5.439916e-004
2.146983e-003,5.579292e-004
2.379710e-003,5.752702e-004
2.476463e-003,5.977973e-004
2.418119e-003,6.279415e-004
2.232230e-003,6.541961e-004
1.971790e-003,6.537099e-004
1.679585e-003,6.148142e-004
1.360802e-003,5.337815e-004
1.000044e-003,4.209840e-004
5.836976e-004,2.953833e-004
1.213252e-004,1.785342e-004
-3.504469e-004,8.502253e-005
-7.894817e-004,2.100672e-005
-1.168553e-003,-1.934754e-005
-1.478097e-003,-4.787104e-005
-1.720709e-003,-7.315322e-005
-1.899305e-003,-9.892161e-005
-2.013561e-003,-1.195039e-004
-2.043057e-003,-1.232314e-004
-1.950032e-003,-1.070249e-004
-1.701099e-003,-7.039811e-005
-1.285239e-003,-8.327101e-006
-7.256281e-004,8.502253e-005
-7.947377e-005,2.028440e-004
5.752702e-004,3.260137e-004
1.162271e-003,4.392974e-004
1.647172e-003,5.318367e-004
2.026244e-003,5.976353e-004
2.300946e-003,6.358827e-004
2.458312e-003,6.457687e-004
2.489104e-003,6.248623e-004
2.405154e-003,5.762426e-004
2.232068e-003,5.099579e-004
2.009389e-003,4.250356e-004
1.774880e-003,3.151553e-004
1.550419e-003,1.793446e-004
1.343947e-003,1.792748e-005
1.152709e-003,-1.532135e-004
9.600137e-004,-3.036101e-004
7.543525e-004,-4.071698e-004
5.495019e-004,-4.562756e-004
3.571302e-004,-4.570859e-004
1.681620e-004,-4.275900e-004
-3.441962e-005,-3.883702e-004
-2.512630e-004,-3.622777e-004
-4.653512e-004,-3.685983e-004
-6.413541e-004,-4.092766e-004
-7.452379e-004,-4.745890e-004
-7.585273e-004,-5.478425e-004
-6.896496e-004,-6.116962e-004
-5.658317e-004,-6.517263e-004
-4.155972e-004,-6.580469e-004
-2.728177e-004,-6.272544e-004
-1.716889e-004,-5.522182e-004
-1.394379e-004,-4.335864e-004
-1.801163e-004,-2.797865e-004
-2.690902e-004,-1.065387e-004
-3.679500e-004,5.633696e-005
-4.538446e-004,1.748067e-004
-5.282326e-004,2.308813e-004
-6.099135e-004,2.334744e-004
-6.998597e-004,2.073818e-004
-7.697098e-004,1.783722e-004
-8.024470e-004,1.676758e-004
-8.092538e-004,1.864754e-004
-8.223810e-004,2.299089e-004
-8.828314e-004,2.820940e-004
-1.015725e-003,3.282826e-004
-1.194807e-003,3.610198e-004
-1.353955e-003,3.806297e-004
-1.429964e-003,3.898674e-004
-1.409382e-003,3.890571e-004
-1.336128e-003,3.788470e-004
-1.274219e-003,3.610198e-004
-1.265630e-003,3.472442e-004
-1.307280e-003,3.485408e-004
-1.370486e-003,3.639370e-004
-1.437419e-003,3.773884e-004
-1.511483e-003,3.593991e-004
-1.575985e-003,2.869559e-004
-1.575661e-003,1.611932e-004
-1.458001e-003,1.396819e-006
-1.207772e-003,-1.637477e-004
-8.651663e-004,-3.175477e-004
-5.006815e-004,-4.470378e-004
-1.809267e-004,-5.382806e-004
4.547859e-005,-5.818761e-004
1.639483e-004,-5.716661e-004
1.979821e-004,-5.019780e-004
1.903650e-004,-3.728119e-004
1.889064e-004,-1.843300e-004
2.185644e-004,5.487837e-005
2.864697e-004,3.196932e-004
3.950535e-004,5.809425e-004
5.384814e-004,8.190167e-004
6.989262e-004,1.023381e-003
8.472161e-004,1.186419e-003
9.536931e-004,1.303755e-003
1.002475e-003,1.372308e-003
9.985853e-004,1.390784e-003
9.583930e-004,1.360154e-003
8.977805e-004,1.281066e-003
8.212855e-004,1.149954e-003
7.274497e-004,9.613102e-004
6.144901e-004,7.172396e-004
4.764104e-004,4.394594e-004
3.167760e-004,1.655690e-004
1.492004e-004,-6.391550e-005
-7.840905e-006,-2.225774e-004
-1.350622e-004,-3.131719e-004
-2.207947e-004,-3.588744e-004
-2.567732e-004,-3.799428e-004
-2.405667e-004,-3.890185e-004
-1.702303e-004,-4.000389e-004
-4.608832e-005,-4.198109e-004
1.065772e-004,-4.347209e-004
2.514636e-004,-4.121938e-004
3.689610e-004,-3.334301e-004
4.606900e-004,-2.075054e-004
5.350781e-004,-6.067420e-005
6.007145e-004,7.270556e-005
6.639201e-004,1.684862e-004
7.327978e-004,2.080301e-004
8.170719e-004,1.778859e-004
9.147974e-004,8.242948e-005
1.002475e-003,-5.467778e-005
1.053687e-003,-2.063709e-004
1.046881e-003,-3.507711e-004
9.763822e-004,-4.734545e-004
8.600192e-004,-5.646973e-004
7.329599e-004,-6.181788e-004
6.282656e-004,-6.327647e-004
5.598741e-004,-6.199615e-004
5.159543e-004,-5.943552e-004
4.629589e-004,-5.716661e-004
3.610198e-004,-5.574043e-004
1.939304e-004,-5.528664e-004
-2.777494e-005,-5.551354e-004
-2.919414e-004,-5.638869e-004
-5.911139e-004,-5.781486e-004
-9.207547e-004,-5.948414e-004
-1.277947e-003,-6.121824e-004
-1.637894e-003,-6.335750e-004
-1.951004e-003,-6.671225e-004
-2.165255e-003,-7.193075e-004
-2.256497e-003,-7.925610e-004
-2.243208e-003,-8.731075e-004
-2.151317e-003,-9.288579e-004
-1.984876e-003,-9.273993e-004
-1.716819e-003,-8.513907e-004
-1.338883e-003,-7.107180e-004
-8.836417e-004,-5.379565e-004
-4.096008e-004,-3.681121e-004
1.193106e-005,-2.332737e-004
3.256896e-004,-1.504584e-004
5.106062e-004,-1.170729e-004
5.903423e-004,-1.266348e-004
6.125453e-004,-1.708786e-004
6.308586e-004,-2.397564e-004
6.836920e-004,-3.204648e-004
7.914655e-004,-4.006872e-004
9.536931e-004,-4.640547e-004
1.162758e-003,-4.891748e-004
1.412501e-003,-4.627582e-004
1.694333e-003,-3.969597e-004
2.000961e-003,-3.118754e-004
2.329145e-003,-2.229016e-004
2.671105e-003,-1.379793e-004
3.023437e-003,-5.402952e-005
3.363129e-003,4.612685e-005
3.634428e-003,1.778859e-004
3.768458e-003,3.401134e-004
3.717893e-003,5.166026e-004
3.479979e-003,6.802886e-004
3.090857e-003,8.049170e-004
2.616002e-003,8.729845e-004
2.113111e-003,8.799533e-004
1.617514e-003,8.402472e-004
1.152547e-003,7.810934e-004
7.357150e-004,7.319875e-004
3.791711e-004,7.086501e-004
8.550872e-005,7.110811e-004
-1.553203e-004,7.277738e-004
-3.692465e-004,7.446286e-004
-5.847933e-004,7.535422e-004
-8.099020e-004,7.522457e-004
-1.039062e-003,7.423597e-004
-1.258823e-003,7.323117e-004
-1.465618e-003,7.295565e-004
-1.709365e-003,7.323117e-004
-2.058777e-003,7.303669e-004
-2.509968e-003,7.167534e-004
-2.970397e-003,6.896884e-004
-3.304090e-003,6.525755e-004
-3.432608e-003,6.071971e-004
-3.391930e-003,5.524190e-004
-3.292097e-003,4.838654e-004
-3.240074e-003,4.026706e-004
-3.262925e-003,3.120761e-004
-3.299066e-003,2.171058e-004
-3.256442e-003,1.297525e-004
-3.079629e-003,6.411610e-005
-2.764897e-003,3.218923e-005
-2.341744e-003,3.494434e-005
-1.869485e-003,6.346784e-005
-1.420726e-003,1.073875e-004
-1.055269e-003,1.506590e-004
-8.001781e-004,1.756170e-004
-6.494574e-004,1.775618e-004
-5.619422e-004,1.691344e-004
-4.732924e-004,1.623277e-004
-3.386162e-004,1.620035e-004
-1.498101e-004,1.709171e-004
7.675719e-005,1.902029e-004
3.200173e-004,2.146748e-004
5.584154e-004,2.378501e-004
7.741245e-004,2.521119e-004
9.689272e-004,2.569738e-004
1.165837e-003,2.555152e-004
1.388839e-003,2.493568e-004
1.636313e-003,2.359053e-004
1.877467e-003,2.158092e-004
2.070326e-003,1.913374e-004
2.178262e-003,1.616794e-004
2.192361e-003,1.208390e-004
2.126563e-003,7.092283e-005
2.004851e-003,1.987226e-005
1.849754e-003,-1.983374e-005
1.678126e-003,-3.458168e-005
1.505040e-003,-1.821308e-005
1.346054e-003,2.197911e-005
1.208298e-003,6.444023e-005
1.083670e-003,8.988448e-005
9.444553e-004,9.377405e-005
7.656971e-004,8.064676e-005
5.373469e-004,6.200925e-005
2.715597e-004,5.228533e-005
1.322759e-005,5.682316e-005
-1.776853e-004,7.124698e-005
-2.609869e-004,8.712937e-005
-2.530457e-004,9.328785e-005
-2.065330e-004,8.518459e-005
-1.632615e-004,6.492643e-005
-1.266348e-004,3.932010e-005
-7.931171e-005,1.841368e-005
-1.059601e-005,7.231170e-006
7.076077e-005,-1.034161e-006
1.483901e-004,-1.999580e-005
2.023578e-004,-6.326724e-005
2.099749e-004,-1.289037e-004
1.667035e-004,-1.990780e-004
9.896014e-005,-2.543422e-004
4.466826e-005,-2.849726e-004
2.408596e-005,-2.908069e-004
2.457216e-005,-2.818933e-004
2.369210e-006,-2.710350e-004
-8.968388e-005,-2.666592e-004
-2.749245e-004,-2.647144e-004
-5.395771e-004,-2.536940e-004
-8.439357e-004,-2.339220e-004
-1.141001e-003,-2.112329e-004
-1.383289e-003,-1.895161e-004
-1.536927e-003,-1.739578e-004
-1.602077e-003,-1.673132e-004
-1.608074e-003,-1.692580e-004
-1.594136e-003,-1.815749e-004
-1.560264e-003,-2.034537e-004
-1.458487e-003,-2.238740e-004
-1.237754e-003,-2.295462e-004
-8.763488e-004,-2.173913e-004
-4.023078e-004,-1.966470e-004
1.130598e-004,-1.780095e-004
5.965008e-004,-1.681235e-004
1.009444e-003,-1.690959e-004
1.340868e-003,-1.856265e-004
1.580563e-003,-2.238740e-004
1.704543e-003,-2.818933e-004
1.691578e-003,-3.305129e-004
1.544746e-003,-3.245165e-004
1.303106e-003,-2.368392e-004
1.027757e-003,-8.206682e-005
7.823899e-004,1.010670e-004
6.071971e-004,2.754493e-004
5.080131e-004,4.200116e-004
4.639313e-004,5.234093e-004
4.399456e-004,5.723531e-004
4.046154e-004,5.592257e-004
3.414099e-004,4.825688e-004
2.611876e-004,3.535648e-004
1.994406e-004,1.968476e-004
2.039785e-004,4.256141e-005
3.062417e-004,-8.919769e-005
5.000719e-004,-1.882196e-004
7.409011e-004,-2.489941e-004
9.574206e-004,-2.731418e-004
1.078321e-003,-2.833519e-004
1.057577e-003,-3.096065e-004
8.997252e-004,-3.736223e-004
6.577615e-004,-4.763717e-004
4.051016e-004,-6.044033e-004
2.046267e-004,-7.416725e-004
8.761556e-005,-8.805625e-004
5.147500e-005,-1.015887e-003
6.281957e-005,-1.139705e-003
7.513654e-005,-1.239051e-003
4.013043e-005,-1.295125e-003
-7.995997e-005,-1.284915e-003
-2.632558e-004,-1.192700e-003
-4.389346e-004,-1.031769e-003
-5.382806e-004,-8.290257e-004
-5.275843e-004,-6.021343e-004
-4.173799e-004,-3.517435e-004
-2.543422e-004,-7.396355e-005
-9.875954e-005,2.143507e-004
8.851824e-006,4.754380e-004
6.573675e-005,6.689440e-004
9.409818e-005,7.686143e-004
1.133840e-004,7.765555e-004
1.355869e-004,7.174016e-004
1.702689e-004,6.328034e-004
2.269918e-004,5.605223e-004
2.948972e-004,5.198439e-004
3.482167e-004,5.086614e-004
3.527545e-004,5.209784e-004
2.803112e-004,5.503122e-004
1.355869e-004,5.909906e-004
-4.155049e-005,6.332896e-004
-2.024813e-004,6.666752e-004
-3.190063e-004,6.752646e-004
-4.044147e-004,6.423653e-004
-5.188328e-004,5.574430e-004
-7.170386e-004,4.190392e-004
-9.786120e-004,2.409294e-004
-1.218955e-003,4.904402e-005
-1.358169e-003,-1.157764e-004
-1.365948e-003,-2.107467e-004
-1.272922e-003,-2.164190e-004
-1.138732e-003,-1.460826e-004
-1.017184e-003,-3.960571e-005
-9.251304e-004,6.654707e-005
-8.416668e-004,1.566554e-004
-7.379450e-004,2.365536e-004
-6.052136e-004,3.222862e-004
-4.655133e-004,4.229288e-004
-3.564433e-004,5.384814e-004
-3.010170e-004,6.663510e-004
-2.914552e-004,7.929241e-004
-2.917793e-004,8.961599e-004
-2.718453e-004,9.588792e-004
-2.229016e-004,9.702237e-004
-1.574272e-004,9.284109e-004
-9.341139e-005,8.366818e-004
-3.928157e-005,7.075156e-004
4.800190e-006,5.636016e-004
4.272347e-005,4.298976e-004
7.983643e-005,3.286067e-004
1.313732e-004,2.689667e-004
1.996027e-004,2.373639e-004
2.775562e-004,2.104611e-004
3.598853e-004,1.670276e-004
4.569625e-004,9.150514e-005
5.751082e-004,-1.691656e-005
6.984400e-004,-1.408965e-004
7.856312e-004,-2.593662e-004
7.890345e-004,-3.598467e-004
6.809368e-004,-4.395829e-004
4.715484e-004,-5.117019e-004
2.153230e-004,-6.014861e-004
-7.192643e-006,-7.196317e-004
-1.306864e-004,-8.309705e-004
-1.371690e-004,-8.632215e-004
-5.386745e-005,-7.562584e-004
6.379197e-005,-4.995470e-004
1.701068e-004,-1.374931e-004
2.555152e-004,2.485465e-004
3.407616e-004,5.773771e-004
4.344354e-004,7.960033e-004
5.260024e-004,8.904876e-004
5.992559e-004,8.771982e-004
6.503065e-004,7.887104e-004
7.026537e-004,6.598684e-004
7.849829e-004,5.185474e-004
8.911358e-004,3.822504e-004
9.786512e-004,2.663736e-004
1.003771e-003,1.846927e-004
9.392693e-004,1.396385e-004
7.760693e-004,1.226217e-004
5.365366e-004,1.218114e-004
2.657254e-004,1.205148e-004
8.689757e-006,1.047945e-004
-1.977814e-004,6.816773e-005
-3.450988e-004,4.800190e-006
-4.758855e-004,-8.984595e-005
-6.596675e-004,-2.186879e-004
-9.374474e-004,-3.750809e-004
-1.282808e-003,-5.411978e-004
-1.622822e-003,-6.938633e-004
-1.877426e-003,-8.123330e-004
-2.008213e-003,-8.907726e-004
-2.042085e-003,-9.359888e-004
-2.047271e-003,-9.614330e-004
-2.100104e-003,-9.743983e-004
-2.249204e-003,-9.666191e-004
-2.448869e-003,-9.176754e-004
-2.552267e-003,-8.092538e-004
-2.371402e-003,-6.441093e-004
-1.788939e-003,-4.450931e-004
-8.475012e-004,-2.413770e-004
2.600531e-004,-5.759496e-005
1.262752e-003,8.777764e-005
1.976003e-003,1.874478e-004
2.345352e-003,2.425500e-004
2.419578e-003,2.558394e-004
2.309535e-003,2.341226e-004
2.126725e-003,1.903650e-004
1.946345e-003,1.438522e-004
1.791248e-003,1.101426e-004
1.649117e-003,9.490851e-005
1.491103e-003,9.182927e-005
1.292896e-003,9.458438e-005
1.062115e-003,9.798775e-005
8.397610e-004,9.604297e-005
6.713750e-004,8.161915e-005
5.751082e-004,5.666109e-005
5.386435e-004,2.424803e-005
5.331332e-004,-8.489165e-006
5.331332e-004,-3.279896e-005
5.166026e-004,-4.268495e-005
4.658761e-004,-4.041603e-005
3.718782e-004,-2.890940e-005
2.393087e-004,-1.335112e-005
8.712937e-005,4.800190e-006
-5.905355e-005,2.651694e-005
-1.833576e-004,4.823369e-005
-2.849726e-004,6.638501e-005
-3.677879e-004,7.708132e-005
-4.373140e-004,8.097089e-005
-4.925782e-004,8.194328e-005
-5.223982e-004,8.696730e-005
-5.095950e-004,1.039842e-004
-4.488206e-004,1.355869e-004
-3.648708e-004,1.736723e-004
-2.930758e-004,2.057612e-004
-2.575835e-004,2.213195e-004
-2.750866e-004,2.159713e-004
-3.421816e-004,1.952270e-004
-4.123559e-004,1.725378e-004
-4.206212e-004,1.576278e-004
-3.361852e-004,1.513072e-004
-2.028055e-004,1.504969e-004
-1.099420e-004,1.446626e-004
-1.026491e-004,1.281319e-004
-1.407345e-004,1.038221e-004
-1.417068e-004,7.708132e-005
-4.689864e-005,5.147500e-005
1.404489e-004,3.089270e-005
3.650714e-004,1.549650e-005
5.389676e-004,2.623614e-007
5.929354e-004,-1.205460e-005
5.157922e-004,-1.740276e-005
3.506476e-004,-1.108221e-005
1.705930e-004,1.209313e-005
4.337174e-005,5.115087e-005
2.369210e-006,9.912220e-005
4.564065e-005,1.430419e-004
1.503348e-004,1.683241e-004
2.773941e-004,1.684862e-004
3.905157e-004,1.500107e-004
4.665244e-004,1.208390e-004
4.918065e-004,8.583285e-005
4.653899e-004,4.515445e-005
4.055878e-004,5.772582e-006
3.427064e-004,-2.469570e-005
2.955454e-004,-4.317114e-005
2.780423e-004,-4.900549e-005
2.919800e-004,-4.608832e-005
3.282826e-004,-3.863331e-005
3.744712e-004,-2.826113e-005
4.268184e-004,-1.448558e-005
4.841895e-004,3.827798e-006
5.389676e-004,2.748933e-005
5.809425e-004,5.487837e-005
6.037937e-004,7.983643e-005
6.127074e-004,9.863601e-005
6.162728e-004,1.106288e-004
6.151383e-004,1.179218e-004
6.024972e-004,1.247285e-004
5.687876e-004,1.376937e-004
5.120648e-004,1.509831e-004
4.370285e-004,1.551968e-004
3.566440e-004,1.467694e-004
2.778803e-004,1.300767e-004
1.994406e-004,1.137081e-004
1.177597e-004,1.041462e-004
2.894792e-005,1.015532e-004
-6.423963e-005,1.051186e-004
-1.525652e-004,1.132219e-004
-2.206326e-004,1.242423e-004
-2.642282e-004,1.404489e-004
-2.898345e-004,1.607070e-004
-3.021515e-004,1.832341e-004
-3.044204e-004,2.052750e-004
-2.980999e-004,2.273159e-004
-2.775176e-004,2.485465e-004
-2.412149e-004,2.723700e-004
-1.979435e-004,2.942489e-004
-1.622891e-004,3.052693e-004
-1.447861e-004,3.017039e-004
-1.554824e-004,2.856594e-004
-1.990780e-004,2.652392e-004
-2.686040e-004,2.457913e-004
-3.579019e-004,2.227780e-004
-4.564376e-004,1.914994e-004
-5.510838e-004,1.514693e-004
-6.282268e-004,1.107909e-004
-6.736051e-004,7.578480e-005
-6.763602e-004,4.466826e-005
-6.304957e-004,1.355172e-005
-5.379565e-004,-1.740276e-005
-4.133283e-004,-4.219875e-005
-2.938861e-004,-5.710876e-005
-2.267911e-004,-6.359137e-005
-2.460769e-004,-6.391550e-005
-3.520676e-004,-6.342930e-005
-4.945230e-004,-6.488790e-005
-5.904656e-004,-6.731887e-005
-5.846313e-004,-6.861539e-005
-4.755614e-004,-7.218083e-005
-2.987481e-004,-8.174268e-005
-9.794922e-005,-9.940780e-005
9.182927e-005,-1.173971e-004
2.466016e-004,-1.238797e-004
3.444891e-004,-1.172350e-004
3.707437e-004,-1.039456e-004
3.279585e-004,-8.968388e-005
2.286124e-004,-7.688072e-005
7.254349e-005,-6.278104e-005
-1.608306e-004,-4.025397e-005
-4.890127e-004,-1.221667e-005
-9.014689e-004,1.160693e-005
-1.348769e-003,2.505835e-005
-1.761063e-003,2.829966e-005
-2.076443e-003,2.084466e-005
-2.250501e-003,2.693341e-006
-2.264763e-003,-2.031993e-005
-2.144186e-003,-4.155049e-005
-1.962835e-003,-6.132245e-005
-1.793314e-003,-8.303921e-005
-1.636435e-003,-1.094559e-004
-1.436284e-003,-1.394379e-004
-1.127226e-003,-1.643960e-004
-6.847876e-004,-1.789819e-004
-1.371690e-004,-1.888679e-004
4.501558e-004,-2.062088e-004
9.938853e-004,-2.421873e-004
1.428059e-003,-2.938861e-004
1.721236e-003,-3.525538e-004
1.867581e-003,-4.089525e-004
1.877791e-003,-4.512515e-004
1.775366e-003,-4.703752e-004
1.600335e-003,-4.624341e-004
1.400832e-003,-4.369898e-004
1.215429e-003,-4.147868e-004
1.044288e-003,-4.057112e-004
8.658536e-004,-3.998769e-004
6.718612e-004,-3.744326e-004
4.652278e-004,-3.138202e-004
2.607013e-004,-2.130156e-004
6.719534e-005,-8.482193e-005
-9.243900e-005,4.515445e-005
-1.887058e-004,1.521176e-004
-2.096122e-004,2.299089e-004
-1.661787e-004,2.825802e-004
-8.384953e-005,3.151553e-004
1.436204e-005,3.389789e-004
1.177597e-004,3.640990e-004
2.342847e-004,3.887330e-004
3.623164e-004,4.018603e-004
4.780310e-004,3.968363e-004
5.501501e-004,3.707437e-004
5.692738e-004,3.281205e-004
5.559844e-004,2.851732e-004
5.462606e-004,2.592428e-004
5.739737e-004,2.538946e-004
6.561409e-004,2.563256e-004
7.738004e-004,2.516257e-004
8.548331e-004,2.342847e-004
8.139926e-004,2.057612e-004
6.334517e-004,1.754550e-004
3.874364e-004,1.584381e-004
1.978200e-004,1.688103e-004
1.490383e-004,2.115955e-004
2.516257e-004,2.764217e-004
4.634451e-004,3.433547e-004
7.221015e-004,3.944053e-004
9.715203e-004,4.183909e-004
1.167944e-003,4.156358e-004
1.277500e-003,3.890571e-004
1.280903e-003,3.396272e-004
1.180423e-003,2.709115e-004
1.001178e-003,1.970097e-004
7.828761e-004,1.342904e-004
5.631153e-004,1.054428e-004
3.665300e-004,1.179218e-004
2.018716e-004,1.581140e-004
7.319175e-005,1.981441e-004
-2.031993e-005,2.130541e-004
-8.336334e-005,1.926339e-004
-1.250141e-004,1.402868e-004
-1.491618e-004,6.865393e-005
-1.571030e-004,-6.706447e-006
-1.515928e-004,-6.618442e-005
-1.457585e-004,-9.762508e-005
-1.626133e-004,-1.008664e-004
-2.169051e-004,-9.017008e-005
-2.985860e-004,-8.449779e-005
-3.830221e-004,-9.730095e-005
-4.423380e-004,-1.227452e-004
-4.655133e-004,-1.470550e-004
-4.604893e-004,-1.583996e-004
-4.475240e-004,-1.501342e-004
-4.509274e-004,-1.297140e-004
-4.796130e-004,-1.101041e-004
-5.162397e-004,-1.031353e-004
-5.399013e-004,-1.057284e-004
-5.377944e-004,-1.102662e-004
-5.094330e-004,-1.175591e-004
-4.648650e-004,-1.358725e-004
-4.183523e-004,-1.742820e-004
-3.812393e-004,-2.323013e-004
-3.532020e-004,-2.980999e-004
-3.303509e-004,-3.455850e-004
-3.125237e-004,-3.489884e-004
-2.937241e-004,-3.003688e-004
-2.674695e-004,-2.112329e-004
-2.276015e-004,-1.003802e-004
-1.741199e-004,1.047248e-005
-1.084835e-004,9.766362e-005
-3.636440e-005,1.517934e-004
4.029249e-005,1.984682e-004
1.257009e-004,2.780423e-004
2.140265e-004,4.088291e-004
2.796630e-004,5.726772e-004
2.895490e-004,7.289082e-004
2.430362e-004,8.383024e-004
1.827479e-004,8.794671e-004
1.602208e-004,8.387886e-004
1.971717e-004,7.246946e-004
2.777182e-004,5.535535e-004
3.639370e-004,3.527545e-004
4.169323e-004,1.517934e-004
4.172565e-004,-1.950961e-005
3.653956e-004,-1.289037e-004
2.694529e-004,-1.621271e-004
1.483901e-004,-1.300381e-004
2.635488e-005,-5.953974e-005
-6.731887e-005,1.257933e-005
-1.135075e-004,5.406805e-005
-1.156143e-004,3.802358e-005
-8.498399e-005,-4.754691e-005
-3.004385e-005,-1.932436e-004
4.353380e-005,-3.796187e-004
1.224596e-004,-5.823624e-004
1.788584e-004,-7.807303e-004
1.756170e-004,-9.682398e-004
8.145709e-005,-1.142622e-003
-9.827335e-005,-1.297718e-003
-3.298646e-004,-1.431584e-003
-5.578905e-004,-1.546489e-003
-7.295177e-004,-1.635139e-003
-8.204362e-004,-1.678248e-003
-8.329153e-004,-1.641783e-003
-7.804061e-004,-1.498517e-003
-6.890013e-004,-1.247316e-003
-5.935449e-004,-9.238339e-004
-5.149432e-004,-5.784728e-004
-4.621099e-004,-2.611490e-004
-4.266176e-004,-3.303075e-006
-3.870737e-004,1.911753e-004
-3.136581e-004,3.391410e-004
-1.835197e-004,4.645796e-004
9.824214e-006,5.856425e-004
2.457913e-004,7.139983e-004
4.921307e-004,8.619640e-004
7.112431e-004,1.042667e-003
8.574261e-004,1.254811e-003
8.840049e-004,1.480406e-003
7.736383e-004,1.694657e-003
5.567948e-004,1.871471e-003
2.953833e-004,1.988320e-003
3.656499e-005,2.017330e-003
-2.066950e-004,1.933704e-003
-4.267797e-004,1.745060e-003
-6.110479e-004,1.494182e-003
-7.528550e-004,1.236497e-003
-8.457184e-004,1.014468e-003
-8.915829e-004,8.436506e-004
-9.077894e-004,7.178878e-004
-9.214029e-004,6.174073e-004
-9.559228e-004,5.206542e-004
-1.001139e-003,4.107739e-004
-1.004218e-003,2.807975e-004
-8.928794e-004,1.351007e-004
-6.254717e-004,-1.367526e-005
-2.253325e-004,-1.452723e-004
2.315296e-004,-2.468872e-004
6.336138e-004,-3.126857e-004
8.940530e-004,-3.365093e-004
9.924268e-004,-3.185201e-004
9.729789e-004,-2.673074e-004
8.977805e-004,-2.068571e-004
8.094548e-004,-1.705545e-004
7.321496e-004,-1.788198e-004
6.853127e-004,-2.332737e-004
6.655407e-004,-3.235441e-004
6.161107e-004,-4.329382e-004
4.569625e-004,-5.441150e-004
1.522796e-004,-6.428128e-004
-2.582318e-004,-7.194696e-004
-6.911082e-004,-7.680892e-004
-1.071637e-003,-7.844577e-004
-1.369838e-003,-7.766786e-004
-1.594136e-003,-7.494516e-004
-1.734647e-003,-7.048837e-004
-1.755391e-003,-6.457299e-004
-1.626549e-003,-5.778245e-004
-1.362869e-003,-5.035987e-004
-1.006001e-003,-4.181902e-004
-6.060239e-004,-3.141443e-004
-1.976194e-004,-1.900023e-004
2.044647e-004,-5.856734e-005
5.794839e-004,5.957827e-005
8.893531e-004,1.438522e-004
1.099228e-003,1.864754e-004
1.197440e-003,1.884202e-004
1.190795e-003,1.615174e-004
1.087235e-003,1.216493e-004
9.109078e-004,7.951231e-005
7.089743e-004,4.142695e-005
5.349160e-004,1.484824e-005
4.185530e-004,-1.196226e-006
3.545372e-004,-1.205460e-005
3.180725e-004,-2.275091e-005
2.913317e-004,-3.166451e-005
2.600531e-004,-4.171255e-005
2.135403e-004,-5.078821e-005
1.475797e-004,-5.370539e-005
6.849186e-005,-4.965375e-005
-2.238345e-007,-4.009190e-005
-2.826113e-005,-3.296103e-005
-6.176923e-008,-3.944364e-005
7.335382e-005,-6.731887e-005
1.717275e-004,-1.135075e-004
2.795009e-004,-1.655304e-004
3.827366e-004,-2.070192e-004
4.730070e-004,-2.259808e-004
5.460985e-004,-2.212809e-004
5.999042e-004,-1.997262e-004
6.247002e-004,-1.694200e-004
6.118970e-004,-1.368449e-004
5.757564e-004,-1.065387e-004
5.446399e-004,-7.947377e-005
5.472329e-004,-5.710876e-005
5.908285e-004,-3.928157e-005
6.673234e-004,-2.242678e-005
7.509491e-004,-5.734055e-006
8.135064e-004,7.393235e-006
8.271199e-004,1.338965e-005
7.747728e-004,1.825161e-005
6.551685e-004,3.056858e-005
4.971547e-004,4.855782e-005
3.504856e-004,6.800567e-005
2.689667e-004,8.518459e-005
2.898731e-004,9.652916e-005
4.135290e-004,1.018773e-004
5.990939e-004,1.038221e-004
7.903310e-004,1.031738e-004
9.481828e-004,1.025256e-004
1.060494e-003,1.018773e-004
1.128400e-003,1.013911e-004
1.149792e-003,1.020394e-004
1.124186e-003,1.073875e-004
1.057253e-003,1.148425e-004
9.564482e-004,1.219734e-004
8.233925e-004,1.287802e-004
6.551685e-004,1.355869e-004
4.394594e-004,1.409351e-004
1.654069e-004,1.414213e-004
-1.637477e-004,1.362352e-004
-5.377944e-004,1.289422e-004
-9.371233e-004,1.271595e-004
-1.316194e-003,1.351007e-004
-1.627846e-003,1.524417e-004
-1.845499e-003,1.772377e-004
-1.957000e-003,2.083542e-004
-1.944197e-003,2.420638e-004
-1.798825e-003,2.738286e-004
-1.537251e-003,2.955454e-004
-1.190756e-003,2.986246e-004
-8.005023e-004,2.829043e-004
-4.039285e-004,2.555152e-004
-3.522994e-005,2.222919e-004
2.817698e-004,1.880961e-004
5.439916e-004,1.553589e-004
7.588904e-004,1.231079e-004
9.258178e-004,9.118101e-005
1.026461e-003,6.233338e-005
1.042181e-003,4.207521e-005
9.729789e-004,3.235129e-005
8.345749e-004,2.846173e-005
6.590580e-004,2.538249e-005
4.905100e-004,1.679302e-005
3.747953e-004,6.420843e-006
3.376824e-004,-1.034161e-006
3.616681e-004,-4.437533e-006
3.979707e-004,-3.303075e-006
4.033188e-004,1.072688e-006
3.561578e-004,1.112074e-005
2.598910e-004,3.380988e-005
1.342904e-004,7.513654e-005
8.689757e-006,1.295905e-004
-8.709084e-005,1.827479e-004
-1.438137e-004,2.216436e-004
-1.791439e-004,2.407673e-004
-2.126914e-004,2.435224e-004
-2.541802e-004,2.381743e-004
-3.006929e-004,2.357433e-004
-3.374817e-004,2.397949e-004
-3.476918e-004,2.433604e-004
-3.293785e-004,2.367157e-004
-2.943724e-004,2.175920e-004
-2.606628e-004,1.866375e-004
-2.410529e-004,1.469315e-004
-2.269532e-004,1.054428e-004
-2.076674e-004,7.043664e-005
-1.930815e-004,4.369587e-005
-2.071812e-004,2.765140e-005
-2.801106e-004,2.862379e-005
-4.337485e-004,4.839576e-005
-6.732810e-004,8.437427e-005
-9.705087e-004,1.295905e-004
-1.261092e-003,1.752929e-004
-1.469346e-003,2.190506e-004
-1.549406e-003,2.613496e-004
-1.490576e-003,3.008935e-004
-1.315222e-003,3.261757e-004
-1.063048e-003,3.206655e-004
-7.938575e-004,2.739907e-004
-5.749073e-004,1.879340e-004
-4.535204e-004,7.756751e-005
-4.535204e-004,-3.733679e-005
-5.773383e-004,-1.392759e-004
-8.118468e-004,-2.146362e-004
-1.111181e-003,-2.566112e-004
-1.368055e-003,-2.739521e-004
-1.449574e-003,-2.775176e-004
-1.277784e-003,-2.767072e-004
-8.747281e-004,-2.771934e-004
-3.523917e-004,-2.752486e-004
1.514693e-004,-2.606628e-004
5.373469e-004,-2.337599e-004
7.746107e-004,-2.041020e-004
8.916220e-004,-1.804405e-004
9.433209e-004,-1.653684e-004
9.820545e-004,-1.509446e-004
1.035536e-003,-1.282554e-004
1.101335e-003,-9.081834e-005
1.149954e-003,-4.203669e-005
1.150279e-003,9.338019e-006
1.078646e-003,5.115087e-005
9.276005e-004,7.448828e-005
7.062191e-004,6.914012e-005
4.452938e-004,3.235129e-005
1.966855e-004,-3.344722e-005
1.630683e-005,-1.198280e-004
-4.965375e-005,-2.091260e-004
1.727922e-005,-2.840002e-004
1.887443e-004,-3.318094e-004
4.107739e-004,-3.428299e-004
6.368551e-004,-3.175477e-004
8.480264e-004,-2.642282e-004
1.028081e-003,-1.968091e-004
1.126293e-003,-1.289037e-004
1.072811e-003,-7.039811e-005
8.405714e-004,-2.372330e-005
4.791655e-004,9.824214e-006
8.323980e-005,2.846173e-005
-2.771934e-004,3.397195e-005
-5.872243e-004,3.640293e-005
-8.559285e-004,4.807163e-005
-1.094327e-003,7.400208e-005
-1.300960e-003,1.101426e-004
-1.469022e-003,1.519555e-004
-1.590246e-003,1.953890e-004
-1.656369e-003,2.373639e-004
-1.663500e-003,2.725321e-004
-1.606939e-003,2.921420e-004
-1.484094e-003,2.903593e-004
-1.309225e-003,2.705873e-004
-1.103240e-003,2.425500e-004
-8.820211e-004,2.090025e-004
-6.444334e-004,1.660552e-004
-3.857772e-004,1.093323e-004
-1.003802e-004,3.672705e-005
2.112714e-004,-3.701266e-005
5.444778e-004,-6.278104e-005
8.943771e-004,1.095867e-005
1.252704e-003,1.900409e-004
1.597904e-003,4.349216e-004
1.906801e-003,6.943883e-004
2.169348e-003,9.212799e-004
2.371444e-003,1.082049e-003
2.484404e-003,1.151575e-003
2.477111e-003,1.109924e-003
2.334817e-003,9.546655e-004
2.074864e-003,7.042743e-004
1.744897e-003,4.039671e-004
1.406180e-003,1.073875e-004
1.114462e-003,-1.396000e-004
8.908117e-004,-3.083100e-004
7.144844e-004,-3.982562e-004
5.410744e-004,-4.324520e-004
3.214759e-004,-4.387725e-004
3.364782e-005,-4.452551e-004
-3.089582e-004,-4.718338e-004
-6.727948e-004,-5.232086e-004
-1.004380e-003,-5.948414e-004
-1.240996e-003,-6.768464e-004
-1.335804e-003,-7.578791e-004
-1.275354e-003,-8.364808e-004
-1.087520e-003,-9.183237e-004
-8.264327e-004,-1.000653e-003
-5.533526e-004,-1.073744e-003
-3.211131e-004,-1.122850e-003
-1.653684e-004,-1.141812e-003
-9.649063e-005,-1.141164e-003
-1.049180e-004,-1.133384e-003
-1.630995e-004,-1.113450e-003
-2.355427e-004,-1.047814e-003
-2.917793e-004,-8.951483e-004
-3.162512e-004,-6.313060e-004
-3.044204e-004,-2.731418e-004
-2.575835e-004,1.216493e-004
-1.968091e-004,4.757621e-004
-1.541859e-004,7.332840e-004
-1.632615e-004,8.682846e-004
-2.337599e-004,8.848152e-004
-3.416954e-004,8.102651e-004
-4.314796e-004,6.861230e-004
-4.431483e-004,5.535535e-004
-3.493125e-004,4.298976e-004
-1.618029e-004,3.200173e-004
7.173317e-005,2.187264e-004
2.752873e-004,1.206769e-004
3.752816e-004,2.246531e-005
3.358997e-004,-6.537409e-005
1.688103e-004,-1.227452e-004
-6.391550e-005,-1.269589e-004
-2.883759e-004,-7.072224e-005
-4.454172e-004,2.651694e-005
-5.110536e-004,1.338042e-004
-4.888507e-004,2.192126e-004
-3.990665e-004,2.504912e-004
-2.652006e-004,2.119197e-004
-1.073490e-004,1.119254e-004
6.022653e-005,-1.173047e-005
2.221298e-004,-1.044318e-004
3.652335e-004,-1.143178e-004
4.780310e-004,-1.707863e-005
5.535535e-004,1.739964e-004
5.929354e-004,4.146634e-004
6.115729e-004,6.616511e-004
6.180555e-004,8.903255e-004
6.089798e-004,1.092907e-003
5.815907e-004,1.264535e-003
5.284333e-004,1.390946e-003
4.286011e-004,1.460310e-003
2.670219e-004,1.473924e-003
6.298164e-005,1.438431e-003
-1.413827e-004,1.363233e-003
-2.995584e-004,1.256269e-003
-3.744326e-004,1.123700e-003
-3.541744e-004,9.647135e-004
-2.527216e-004,7.856312e-004
-9.794922e-005,5.966629e-004
8.340186e-005,4.057499e-004
2.705873e-004,2.218057e-004
4.423766e-004,5.309565e-005
5.751082e-004,-9.519411e-005
6.454446e-004,-2.261429e-004
6.420412e-004,-3.447747e-004
5.749461e-004,-4.444448e-004
4.765724e-004,-5.125122e-004
3.851675e-004,-5.504355e-004
3.284447e-004,-5.681007e-004
3.135346e-004,-5.815520e-004
3.316860e-004,-5.980827e-004
3.692851e-004,-6.069963e-004
4.041292e-004,-5.922483e-004
4.141773e-004,-5.471942e-004
3.966742e-004,-4.851232e-004
3.647473e-004,-4.295348e-004
3.313618e-004,-3.997148e-004
3.017039e-004,-3.985803e-004
2.718839e-004,-4.134903e-004
2.346088e-004,-4.172178e-004
1.914994e-004,-3.801049e-004
1.521176e-004,-2.878897e-004
1.237561e-004,-1.530514e-004
1.025256e-004,-7.030578e-006
8.291567e-005,1.231079e-004
6.087479e-005,2.213195e-004
3.899597e-005,2.840387e-004
2.392390e-005,3.201793e-004
1.744128e-005,3.457856e-004
1.727922e-005,3.726885e-004
1.873781e-005,3.939191e-004
1.160693e-005,3.872744e-004
-1.318906e-005,3.383307e-004
-5.710876e-005,2.438465e-004
-1.067007e-004,1.119254e-004
-1.459205e-004,-3.555407e-005
-1.658546e-004,-1.699062e-004
-1.739578e-004,-2.757348e-004
-1.825473e-004,-3.428299e-004
-2.016710e-004,-3.642225e-004
-2.373254e-004,-3.384541e-004
-2.831898e-004,-2.677937e-004
-3.230579e-004,-1.721751e-004
-3.400748e-004,-8.935975e-005
-3.232200e-004,-4.495386e-005
-2.676316e-004,-3.668853e-005
-1.812508e-004,-4.576419e-005
-8.352540e-005,-5.419158e-005
9.106226e-007,-6.326724e-005
4.272347e-005,-8.352540e-005
2.457216e-005,-1.279313e-004
-4.851930e-005,-1.987538e-004
-1.386276e-004,-2.843243e-004
-1.784957e-004,-3.664914e-004
-1.212866e-004,-4.298589e-004
2.262737e-005,-4.697270e-004
1.955511e-004,-4.937127e-004
3.383307e-004,-5.107295e-004
4.204978e-004,-5.212637e-004
4.313562e-004,-5.159156e-004
3.722023e-004,-4.831784e-004
2.576221e-004,-4.134903e-004
1.112771e-004,-3.070135e-004
-4.187462e-005,-1.705545e-004
-1.896782e-004,-1.691656e-005
-3.298646e-004,1.367214e-004
-4.671339e-004,2.748010e-004
-6.035930e-004,3.897054e-004
-7.408622e-004,4.825688e-004
-8.898002e-004,5.444778e-004
-1.069855e-003,5.582533e-004
-1.306308e-003,5.044476e-004
-1.603860e-003,3.827366e-004
-1.900764e-003,2.177540e-004
-2.085842e-003,4.693717e-005
-2.057805e-003,-9.616650e-005
-1.773704e-003,-1.930815e-004
-1.278109e-003,-2.423494e-004
-6.802498e-004,-2.515871e-004
-1.115627e-004,-2.340841e-004
3.036486e-004,-2.063709e-004
5.010443e-004,-1.812508e-004
5.044476e-004,-1.679614e-004
4.080188e-004,-1.682856e-004
3.341170e-004,-1.765509e-004
3.665300e-004,-1.864369e-004
5.185474e-004,-1.966470e-004
7.433321e-004,-2.052364e-004
9.823786e-004,-2.094501e-004
1.193712e-003,-2.079916e-004
1.353509e-003,-2.015089e-004
1.436000e-003,-1.901644e-004
1.409421e-003,-1.744440e-004
1.260645e-003,-1.575892e-004
1.000368e-003,-1.454343e-004
6.530616e-004,-1.370070e-004
2.503292e-004,-1.256624e-004
-1.491618e-004,-1.055663e-004
-4.650271e-004,-7.704279e-005
-6.332508e-004,-4.300908e-005
-6.285509e-004,-1.302699e-005
-4.797750e-004,1.112074e-005
-2.543422e-004,3.883391e-005
-3.360929e-005,7.302969e-005
1.222975e-004,1.140322e-004
1.819376e-004,1.558451e-004
1.398006e-004,1.906891e-004
1.128280e-005,2.114335e-004
-1.744440e-004,2.166196e-004
-3.818876e-004,2.174299e-004
-5.757177e-004,2.320158e-004
-7.241695e-004,2.773941e-004
-8.047159e-004,3.490270e-004
-8.005023e-004,4.290873e-004
-7.103939e-004,4.963444e-004
-5.583767e-004,5.362125e-004
-3.883702e-004,5.475571e-004
-2.504527e-004,5.389676e-004
-1.880575e-004,5.248679e-004
-2.156086e-004,5.099579e-004
-3.099306e-004,4.835412e-004
-4.324520e-004,4.407560e-004
-5.489769e-004,3.913260e-004
-6.439472e-004,3.517821e-004
-7.081250e-004,3.378445e-004
-7.316245e-004,3.603715e-004
-7.087733e-004,4.093153e-004
-6.392473e-004,4.555039e-004
-5.361738e-004,4.767345e-004
-4.219177e-004,4.686312e-004
-3.109030e-004,4.409180e-004
-2.062088e-004,4.031568e-004
-9.859748e-005,3.574544e-004
2.700314e-005,3.054314e-004
1.864754e-004,2.446569e-004
3.853296e-004,1.710792e-004
6.076833e-004,6.897806e-005
8.267958e-004,-6.472583e-005
1.024354e-003,-2.180396e-004
1.194198e-003,-3.716775e-004
1.340706e-003,-5.039228e-004
1.462093e-003,-6.069963e-004
1.543936e-003,-6.818704e-004
1.567922e-003,-7.261143e-004
1.531133e-003,-7.332451e-004
1.457555e-003,-6.937012e-004
1.383167e-003,-6.081308e-004
1.343947e-003,-4.941989e-004
1.353995e-003,-3.760532e-004
1.392405e-003,-2.778417e-004
1.404884e-003,-2.144742e-004
1.347026e-003,-1.883817e-004
1.203598e-003,-1.887058e-004
9.896716e-004,-1.945401e-004
7.425218e-004,-1.864369e-004
5.039615e-004,-1.598582e-004
3.034866e-004,-1.217728e-004
1.461212e-004,-7.607040e-005
2.230324e-005,-2.307504e-005
-8.676671e-005,3.948217e-005
-1.883817e-004,1.145184e-004
-2.729797e-004,2.057612e-004
-3.295405e-004,3.044590e-004
-3.553089e-004,3.901916e-004
-3.587123e-004,4.452938e-004
-3.577399e-004,4.662002e-004
-3.744326e-004,4.593935e-004
-4.180282e-004,4.399456e-004
-4.763717e-004,4.209840e-004
-5.204534e-004,4.094774e-004
-5.042469e-004,4.041292e-004
-3.930701e-004,4.021844e-004
-1.823852e-004,3.981328e-004
1.004187e-004,3.914881e-004
4.123945e-004,3.807918e-004
6.987641e-004,3.670162e-004
9.225765e-004,3.540510e-004
1.068922e-003,3.401134e-004
1.135855e-003,3.216379e-004
1.121107e-003,2.927903e-004
1.036184e-003,2.547049e-004
9.060458e-004,2.130541e-004
7.598628e-004,1.756170e-004
6.271311e-004,1.475797e-004
5.289195e-004,1.334801e-004
4.679830e-004,1.307249e-004
4.462662e-004,1.308870e-004
4.542074e-004,1.271595e-004
4.548556e-004,1.145184e-004
4.049395e-004,9.280166e-005
2.880904e-004,6.654707e-005
1.172735e-004,3.964423e-005
-8.352540e-005,1.322759e-005
-2.890242e-004,-9.461557e-006
-4.736166e-004,-2.534396e-005
-6.197994e-004,-4.009190e-005
-7.173627e-004,-6.504996e-005
-7.475069e-004,-1.039456e-004
-6.949977e-004,-1.549962e-004
-5.731246e-004,-2.052364e-004
-4.194868e-004,-2.426735e-004
-2.690902e-004,-2.582318e-004
-1.370070e-004,-2.499665e-004
-2.890940e-005,-2.284118e-004
5.633696e-005,-2.066950e-004
1.287802e-004,-1.893540e-004
2.012234e-004,-1.721751e-004
2.649151e-004,-1.483515e-004
2.961937e-004,-1.204763e-004
2.767458e-004,-1.013526e-004
2.106232e-004,-1.052422e-004
1.175977e-004,-1.196660e-004
2.635488e-005,-1.151281e-004
-4.965375e-005,-6.715681e-005
-1.274451e-004,2.035846e-005
-2.663351e-004,1.257009e-004
-5.481666e-004,2.235884e-004
-9.935220e-004,2.948972e-004
-1.527689e-003,3.284447e-004
-2.019234e-003,3.250413e-004
-2.371402e-003,2.923041e-004
-2.575604e-003,2.384984e-004
-2.711091e-003,1.683241e-004
-2.889039e-003,8.615698e-005
-3.191130e-003,3.017472e-006
-3.615743e-003,-5.953974e-005
-4.072121e-003,-8.854943e-005
-4.416512e-003,-7.931171e-005
-4.505487e-003,-3.976777e-005
-4.229649e-003,6.907039e-006
-3.561289e-003,3.316162e-005
-2.576739e-003,2.197911e-005
-1.434826e-003,-2.275091e-005
-3.118754e-004,-8.644258e-005
6.652166e-004,-1.527273e-004
1.431624e-003,-2.122052e-004
1.977138e-003,-2.652006e-004
2.309211e-003,-3.183580e-004
2.469494e-003,-3.757291e-004
2.530593e-003,-4.314796e-004
2.560413e-003,-4.739407e-004
2.585047e-003,-4.977643e-004
2.585372e-003,-5.044090e-004
2.520383e-003,-4.854473e-004
2.355238e-003,-4.319658e-004
2.082156e-003,-3.340783e-004
1.730312e-003,-1.887058e-004
1.349295e-003,-1.221667e-005
9.804339e-004,1.665414e-004
6.516030e-004,3.159656e-004
3.743092e-004,4.166082e-004
1.517934e-004,4.613383e-004
-3.231276e-005,4.602038e-004
-2.034537e-004,4.315182e-004
-3.606571e-004,3.900295e-004
-4.867438e-004,3.488649e-004
-5.750695e-004,3.166139e-004
-6.269303e-004,2.937627e-004
-6.313060e-004,2.686426e-004
-5.676145e-004,2.341226e-004
-4.196488e-004,1.942546e-004
-1.985918e-004,1.530900e-004
6.395403e-005,1.081979e-004
3.310377e-004,5.390598e-005
5.679773e-004,-1.383732e-005
7.410632e-004,-8.871149e-005
8.293889e-004,-1.549962e-004
8.301992e-004,-2.034537e-004
7.703970e-004,-2.344082e-004
6.961710e-004,-2.501285e-004
6.399344e-004,-2.485079e-004
6.057385e-004,-2.217671e-004
5.845079e-004,-1.679614e-004
5.707324e-004,-9.114247e-005
5.673291e-004,-4.599598e-006
5.799701e-004,7.011251e-005
6.141660e-004,1.132219e-004
6.731577e-004,1.205148e-004
7.423597e-004,9.896014e-005
8.019998e-004,5.909207e-005
8.383024e-004,6.582909e-006
8.452713e-004,-5.192267e-005
8.233925e-004,-1.057284e-004
7.853070e-004,-1.349001e-004
7.447907e-004,-1.214487e-004
7.060570e-004,-6.148453e-005
6.588960e-004,2.910999e-005
5.909906e-004,1.245665e-004
4.992615e-004,2.065715e-004
4.004017e-004,2.668598e-004
3.235827e-004,3.088348e-004
2.817698e-004,3.367100e-004
2.733424e-004,3.449753e-004
2.840387e-004,3.263378e-004
2.994350e-004,2.749631e-004
3.124002e-004,1.864754e-004
3.125622e-004,6.541262e-005
2.944109e-004,-7.153257e-005
2.551911e-004,-2.005366e-004
1.957131e-004,-2.925896e-004
1.197045e-004,-3.201407e-004
3.348575e-005,-2.739521e-004
-6.310517e-005,-1.750923e-004
-1.757406e-004,-5.127441e-005
-2.987481e-004,8.307774e-005
-4.003631e-004,2.209953e-004
-4.462275e-004,3.634508e-004
-4.198109e-004,5.109303e-004
-3.324577e-004,6.571133e-004
-2.165810e-004,7.854691e-004
-1.115627e-004,8.673122e-004
-5.095028e-005,8.726603e-004
-4.398147e-005,7.917897e-004
-7.671866e-005,6.389620e-004
-1.159385e-004,4.425387e-004
-1.263107e-004,2.363915e-004
-8.887356e-005,4.547859e-005
-6.706447e-006,-1.131834e-004
9.555677e-005,-2.327876e-004
1.903650e-004,-3.178718e-004
2.616738e-004,-3.773498e-004
3.055935e-004,-4.092766e-004
3.274723e-004,-4.117076e-004
3.386548e-004,-3.820497e-004
3.527545e-004,-3.214373e-004
3.798194e-004,-2.441321e-004
4.177427e-004,-1.720131e-004
4.469145e-004,-1.261486e-004
4.409180e-004,-1.164247e-004
3.807918e-004,-1.400862e-004
2.671840e-004,-1.912988e-004
1.253768e-004,-2.669833e-004
-1.464765e-005,-3.637363e-004
-1.376552e-004,-4.713476e-004
-2.405667e-004,-5.638869e-004
-3.345645e-004,-6.112100e-004
-4.316416e-004,-5.951655e-004
-5.296912e-004,-5.227224e-004
-6.150996e-004,-4.241866e-004
-6.760361e-004,-3.337542e-004
-7.168766e-004,-2.741142e-004
-7.536653e-004,-2.533698e-004
-8.003402e-004,-2.632558e-004
-8.551182e-004,-2.784900e-004
-8.935277e-004,-2.658489e-004
-8.872072e-004,-2.041020e-004
-8.233534e-004,-9.681476e-005
-7.086112e-004,2.667901e-005
-5.565939e-004,1.341283e-004
-3.854531e-004,1.976579e-004
-2.156086e-004,2.153230e-004
-6.553616e-005,2.062474e-004
4.969228e-005,1.973338e-004
1.127357e-004,2.017096e-004
1.107909e-004,2.117576e-004
4.742337e-005,2.034923e-004
-5.257093e-005,1.597346e-004
-1.574272e-004,8.956035e-005
-2.376495e-004,1.954813e-005
-2.786520e-004,-2.388537e-005
-2.924276e-004,-3.749886e-005
-3.073376e-004,-2.955766e-005
-3.496366e-004,-1.286493e-005
-4.227281e-004,1.720949e-006
-4.959816e-004,1.290346e-005
-5.471942e-004,2.197911e-005
-5.778245e-004,3.170303e-005
-6.034308e-004,4.693717e-005
-6.402197e-004,7.594687e-005
-6.873807e-004,1.278078e-004
-7.298418e-004,1.965235e-004
-7.410243e-004,2.692908e-004
-7.031010e-004,3.397892e-004
-6.183409e-004,4.192013e-004
-5.031124e-004,5.159543e-004
-3.690844e-004,6.167590e-004
-2.225774e-004,6.901746e-004
-7.947377e-005,7.152948e-004
3.154097e-005,7.020054e-004
9.393611e-005,6.853127e-004
1.222975e-004,6.974676e-004
1.495245e-004,7.481941e-004
2.004130e-004,8.195028e-004
2.845250e-004,8.817360e-004
3.840331e-004,9.034527e-004
4.723587e-004,8.524021e-004
5.444778e-004,6.958469e-004
6.084936e-004,4.428628e-004
6.807748e-004,1.691344e-004
7.874139e-004,-3.636440e-005
9.577447e-004,-1.329553e-004
1.207002e-003,-1.384655e-004
1.518492e-003,-9.973194e-005
1.832899e-003,-5.678463e-005
2.064329e-003,-3.474375e-005
2.144714e-003,-4.106429e-005
2.051526e-003,-7.704279e-005
1.814099e-003,-1.389517e-004
1.482999e-003,-2.217671e-004
1.106035e-003,-3.198166e-004
7.174016e-004,-4.288865e-004
3.470822e-004,-5.348772e-004
4.239934e-005,-6.204477e-004
-1.468929e-004,-6.726327e-004
-1.912988e-004,-6.878669e-004
-1.041077e-004,-6.669604e-004
5.779555e-005,-6.105618e-004
2.201850e-004,-5.246671e-004
3.206655e-004,-4.235384e-004
3.221241e-004,-3.151167e-004
2.185644e-004,-2.062088e-004
2.603075e-005,-1.045939e-004
-2.303566e-004,-2.161646e-005
-5.162397e-004,3.867184e-005
-7.808923e-004,8.891209e-005
-9.513850e-004,1.415833e-004
-9.598124e-004,1.851789e-004
-7.982333e-004,1.842065e-004
-5.306635e-004,1.128978e-004
-2.535319e-004,-2.096819e-005
-4.787104e-005,-1.767129e-004
5.131293e-005,-2.992343e-004
5.487837e-005,-3.452609e-004
1.549650e-005,-3.053928e-004
9.013888e-006,-1.947022e-004
8.129502e-005,-4.738484e-005
2.112714e-004,9.977046e-005
3.375203e-004,2.162954e-004
4.076946e-004,2.869559e-004
3.929467e-004,3.148312e-004
2.769079e-004,3.167760e-004
5.552663e-005,3.132105e-004
-2.603386e-004,3.169380e-004
-6.526987e-004,3.315239e-004
-1.121392e-003,3.496752e-004
-1.677600e-003,3.579406e-004
-2.291666e-003,3.454615e-004
-2.861002e-003,3.114278e-004
-3.248015e-003,2.639427e-004
-3.347686e-003,2.156472e-004
-3.166820e-003,1.725378e-004
-2.815786e-003,1.376937e-004
-2.435094e-003,1.143563e-004
-2.138028e-003,9.474644e-005
-1.950356e-003,6.411610e-005
-1.816328e-003,1.257933e-005
-1.661231e-003,-6.342930e-005
-1.447143e-003,-1.583996e-004
-1.204855e-003,-2.507768e-004
-9.653226e-004,-3.128478e-004
-7.262763e-004,-3.311612e-004
-4.706994e-004,-3.092824e-004
-1.831956e-004,-2.603386e-004
1.385041e-004,-1.994021e-004
4.721966e-004,-1.389517e-004
7.780141e-004,-8.449779e-005
1.013981e-003,-3.458168e-005
1.151575e-003,1.144487e-005
1.195009e-003,5.698522e-005
1.174102e-003,1.039842e-004
1.130993e-003,1.506590e-004
1.107331e-003,1.955511e-004
1.143796e-003,2.342847e-004
1.270531e-003,2.632944e-004
1.493533e-003,2.757734e-004
1.788007e-003,2.621599e-004
2.096256e-003,2.175920e-004
2.345514e-003,1.479039e-004
2.484567e-003,6.362990e-005
2.494128e-003,-3.069211e-005
2.380682e-003,-1.277692e-004
2.161407e-003,-2.230636e-004
1.875523e-003,-3.186821e-004
1.582994e-003,-4.146248e-004
1.338923e-003,-5.042469e-004
1.171833e-003,-5.839830e-004
1.072973e-003,-6.486471e-004
9.951819e-004,-6.912702e-004
8.885428e-004,-6.971046e-004
7.305289e-004,-6.554538e-004
5.255162e-004,-5.744212e-004
2.947351e-004,-4.775061e-004
7.270556e-005,-3.749188e-004
-1.016767e-004,-2.664971e-004
-2.021572e-004,-1.519170e-004
-2.418632e-004,-3.911951e-005
-2.664971e-004,5.406805e-005
-3.300267e-004,1.069013e-004
-4.685925e-004,1.091703e-004
-6.773326e-004,7.286762e-005
-8.995241e-004,2.846173e-005
-1.046679e-003,7.393235e-006
-1.039710e-003,3.024445e-005
-8.317808e-004,9.798775e-005
-4.126800e-004,1.968476e-004
1.738343e-004,3.057555e-004
8.105892e-004,4.072085e-004
1.364043e-003,4.895377e-004
1.743925e-003,5.449640e-004
1.920577e-003,5.699221e-004
1.929652e-003,5.673291e-004
1.847647e-003,5.407503e-004
1.748301e-003,4.992615e-004
1.669375e-003,4.517764e-004
1.614759e-003,4.033188e-004
1.577646e-003,3.584267e-004
1.557225e-003,3.182345e-004
1.549770e-003,2.840387e-004
1.546367e-003,2.529222e-004
1.522705e-003,2.276400e-004
1.449938e-003,2.055991e-004
1.319961e-003,1.817755e-004
1.160813e-003,1.495245e-004
1.010578e-003,1.124116e-004
8.802774e-004,7.935023e-005
7.632662e-004,5.649903e-005
6.446342e-004,4.369587e-005
5.172509e-004,3.640293e-005
3.820883e-004,3.397195e-005
2.415776e-004,3.380988e-005
1.015532e-004,3.413401e-005
-1.999580e-005,3.397195e-005
-1.000561e-004,2.846173e-005
-1.499722e-004,1.938607e-005
-2.366771e-004,1.274139e-005
-4.656753e-004,1.468617e-005
-9.013068e-004,2.586868e-005
-1.518452e-003,4.191315e-005
-2.223922e-003,5.487837e-005
-2.927611e-003,6.217131e-005
-3.565989e-003,7.027457e-005
-4.090434e-003,8.421220e-005
-4.474694e-003,9.733949e-005
-4.733839e-003,9.928427e-005
-4.924754e-003,8.891209e-005
-4.968025e-003,7.351588e-005
-4.968025e-003,5.633696e-005
-4.968349e-003,3.899597e-005
-4.968025e-003,2.748933e-005
-4.968349e-003,2.554455e-005
-4.968025e-003,3.494434e-005
-4.280052e-003,5.277152e-005
-3.357572e-003,7.043664e-005
-2.388095e-003,7.837785e-005
-1.484256e-003,7.351588e-005
-7.178489e-004,6.298164e-005
-1.154523e-004,5.568870e-005
3.342790e-004,5.277152e-005
6.760749e-004,5.471631e-005
9.721686e-004,5.828174e-005
1.263400e-003,5.893001e-005
1.563708e-003,5.763348e-005
1.859802e-003,5.244739e-005
2.132883e-003,4.239934e-005
2.380520e-003,2.473422e-005
2.618757e-003,1.002961e-007
2.851646e-003,-2.647842e-005
3.058443e-003,-5.127441e-005
3.196686e-003,-7.120844e-005
3.225696e-003,-8.806324e-005
3.134452e-003,-1.007043e-004
2.941269e-003,-1.065387e-004
2.691687e-003,-1.026491e-004
2.437243e-003,-8.692878e-005
2.213430e-003,-6.148453e-005
2.035481e-003,-3.036798e-005
1.893998e-003,2.207145e-006
1.767587e-003,3.769945e-005
1.638906e-003,7.497447e-005
1.500502e-003,1.154908e-004
1.355130e-003,1.615174e-004
1.216563e-003,2.122438e-004
1.097121e-003,2.624841e-004
1.004744e-003,2.974902e-004
9.439691e-004,2.947351e-004
9.081527e-004,2.420638e-004
8.825463e-004,1.493625e-004
8.512677e-004,4.564065e-005
8.073479e-004,-4.657451e-005
7.543525e-004,-1.135075e-004
6.913091e-004,-1.496480e-004
6.106005e-004,-1.561307e-004
4.966685e-004,-1.370070e-004
3.448132e-004,-9.811128e-005
1.704310e-004,-5.095028e-005
6.258778e-006,-7.840905e-006
-1.154523e-004,2.052053e-005
-1.789819e-004,2.943412e-005
-1.896782e-004,2.100672e-005
-1.679614e-004,5.448451e-006
-1.387897e-004,-2.006553e-006
-1.206384e-004,2.045080e-006
-1.117248e-004,1.711715e-005
-1.057284e-004,4.726130e-005
-1.054042e-004,9.458438e-005
-1.269589e-004,1.558451e-004
-1.820611e-004,2.242366e-004
-2.627696e-004,2.832284e-004
-3.369955e-004,3.143450e-004
-3.799428e-004,3.080244e-004
-3.802670e-004,2.650771e-004
-3.480160e-004,2.043026e-004
-2.984240e-004,1.564933e-004
-2.468872e-004,1.375317e-004
-2.055606e-004,1.451487e-004
-1.768750e-004,1.701068e-004
-1.533756e-004,2.005751e-004
-1.387897e-004,2.286124e-004
-1.410586e-004,2.527601e-004
-1.702303e-004,2.705873e-004
-2.323013e-004,2.785285e-004
-3.298646e-004,2.725321e-004
-4.621099e-004,2.435224e-004
-6.217442e-004,1.855030e-004
-7.901300e-004,9.571883e-005
-9.272373e-004,-1.643037e-005
-9.805567e-004,-1.336036e-004
-9.288579e-004,-2.370012e-004
-7.920748e-004,-3.144684e-004
-6.168823e-004,-3.684362e-004
-4.373140e-004,-4.058733e-004
-2.762210e-004,-4.316416e-004
-1.489998e-004,-4.600031e-004
-6.099833e-005,-4.940368e-004
-6.868512e-006,-5.138087e-004
2.441009e-005,-4.980884e-004
4.304760e-005,-4.473620e-004
5.455424e-005,-3.771877e-004
5.520250e-005,-2.974516e-004
5.066468e-005,-2.081536e-004
3.932010e-005,-1.123730e-004
9.986280e-006,-3.150244e-005
-3.814712e-005,3.017472e-006
-8.757703e-005,-2.793700e-005
-9.859748e-005,-1.068628e-004
-2.145439e-005,-1.864369e-004
1.636242e-004,-2.139880e-004
4.391353e-004,-1.595340e-004
7.490044e-004,-2.712668e-005
1.019978e-003,1.483901e-004
1.174751e-003,3.214759e-004
1.154168e-003,4.508040e-004
9.394313e-004,5.093096e-004
5.608465e-004,4.866205e-004
8.502253e-005,3.812780e-004
-3.911253e-004,2.041405e-004
-7.739235e-004,-1.950961e-005
-1.016373e-003,-2.684419e-004
-1.131926e-003,-5.287188e-004
-1.171146e-003,-7.799199e-004
-1.191404e-003,-9.912531e-004
-1.242778e-003,-1.143594e-003
-1.360762e-003,-1.234351e-003
-1.549568e-003,-1.276326e-003
-1.787642e-003,-1.295125e-003
-2.033009e-003,-1.312953e-003
-2.221167e-003,-1.327701e-003
-2.292638e-003,-1.302743e-003
-2.218250e-003,-1.195293e-003
-1.993465e-003,-9.834738e-004
-1.639190e-003,-6.808981e-004
-1.197076e-003,-3.288923e-004
-7.243315e-004,2.068259e-005
-2.765452e-004,3.334687e-004
1.159770e-004,6.007145e-004
4.545315e-004,8.284165e-004
7.622938e-004,1.022571e-003
1.059036e-003,1.185285e-003
1.345568e-003,1.313965e-003
1.602604e-003,1.407315e-003
1.793679e-003,1.461607e-003
1.896429e-003,1.473275e-003
1.911987e-003,1.446859e-003
1.868878e-003,1.388515e-003
1.805996e-003,1.306672e-003
1.747329e-003,1.211539e-003
1.690119e-003,1.119000e-003
1.610707e-003,1.042667e-003
1.484296e-003,9.877268e-004
1.298893e-003,9.488311e-004
1.060332e-003,9.182007e-004
7.898449e-004,8.862738e-004
5.164405e-004,8.473782e-004
2.786906e-004,7.951930e-004
1.166253e-004,7.298806e-004
5.179913e-005,6.556546e-004
6.784360e-005,5.807804e-004
1.090082e-004,5.047718e-004
1.213252e-004,4.264942e-004
7.675719e-005,3.405996e-004
-2.420950e-005,2.425500e-004
-1.556445e-004,1.320215e-004
-2.822175e-004,1.565857e-005
-3.807532e-004,-9.405964e-005
-4.465517e-004,-1.844921e-004
-4.812336e-004,-2.502906e-004
-4.886886e-004,-2.956689e-004
-4.805854e-004,-3.322956e-004
-4.724821e-004,-3.750809e-004
-4.702132e-004,-4.237005e-004
-4.684305e-004,-4.685925e-004
-4.578962e-004,-5.027883e-004
-4.316416e-004,-5.243430e-004
-3.856151e-004,-5.399013e-004
-3.131719e-004,-5.643732e-004
-2.076674e-004,-6.112100e-004
-6.942573e-005,-6.857600e-004
9.004655e-005,-7.627410e-004
2.522740e-004,-7.901300e-004
3.969983e-004,-7.345417e-004
5.076890e-004,-5.966241e-004
5.799701e-004,-4.091146e-004
6.208106e-004,-2.156086e-004
6.413930e-004,-5.629843e-005
6.441480e-004,3.786152e-005
6.337758e-004,5.763348e-005
6.308586e-004,1.841368e-005
6.632718e-004,-4.884343e-005
7.504629e-004,-1.105903e-004
8.925944e-004,-1.358725e-004
1.065842e-003,-1.076731e-004
1.223370e-003,-1.497178e-005
1.308779e-003,1.436902e-004
1.279931e-003,3.582647e-004
1.127265e-003,6.080074e-004
8.689329e-004,8.647191e-004
5.431813e-004,1.088694e-003
1.918236e-004,1.234715e-003
-1.577513e-004,1.255459e-003
-4.933885e-004,1.128562e-003
-8.045539e-004,8.642329e-004
-1.081523e-003,5.081752e-004
-1.326566e-003,1.273216e-004
-1.541303e-003,-2.164190e-004
-1.716819e-003,-4.839887e-004
-1.873537e-003,-6.557779e-004
-2.062019e-003,-7.337313e-004
-2.309331e-003,-7.465344e-004
-2.587435e-003,-7.343796e-004
-2.814165e-003,-7.220627e-004
-2.889202e-003,-7.055320e-004
-2.750149e-003,-6.582089e-004
-2.412405e-003,-5.587008e-004
-1.975962e-003,-4.133283e-004
-1.571609e-003,-2.592042e-004
