1.090152e-003,-1.031353e-004
1.059036e-003,-1.157764e-004
9.269523e-004,-1.292278e-004
7.201568e-004,-1.405724e-004
4.665244e-004,-1.501342e-004
1.882582e-004,-1.592099e-004
-1.007043e-004,-1.665028e-004
-3.933943e-004,-1.715269e-004
-6.873807e-004,-1.744440e-004
-9.739121e-004,-1.752544e-004
-1.216362e-003,-1.773612e-004
-1.361086e-003,-1.820611e-004
-1.361734e-003,-1.857886e-004
-1.209231e-003,-1.869231e-004
-9.499265e-004,-1.862748e-004
-6.633950e-004,-1.825473e-004
-4.233763e-004,-1.742820e-004
-2.558008e-004,-1.609926e-004
-1.300382e-004,-1.459206e-004
-3.789272e-006,-1.323071e-004
1.344524e-004,-1.211246e-004
2.650771e-004,-1.107524e-004
3.634508e-004,-1.026491e-004
4.149876e-004,-1.002181e-004
4.206599e-004,-1.036215e-004
3.837090e-004,-1.071869e-004
3.030004e-004,-1.055663e-004
1.723757e-004,-9.260107e-005
8.041497e-006,-6.472583e-005
-1.502963e-004,-2.550602e-005
-2.491561e-004,1.630683e-005
-2.512630e-004,5.309566e-005
-1.532135e-004,8.323981e-005
1.241726e-005,1.070634e-004
1.949028e-004,1.265113e-004
3.548613e-004,1.430419e-004
4.751139e-004,1.540623e-004
5.623050e-004,1.532520e-004
6.326414e-004,1.445005e-004
6.940642e-004,1.331559e-004
7.451148e-004,1.336421e-004
7.728280e-004,1.892305e-004
7.661834e-004,3.438409e-004
7.208050e-004,5.943940e-004
6.454446e-004,8.854635e-004
5.580913e-004,1.143148e-003
4.725208e-004,1.313803e-003
3.937570e-004,1.377171e-003
3.274723e-004,1.346540e-003
2.723701e-004,1.246221e-003
2.243987e-004,1.099390e-003
1.827479e-004,9.170663e-004
1.443384e-004,7.003848e-004
1.153287e-004,4.475628e-004
1.075496e-004,1.602208e-004
1.179218e-004,-1.600202e-004
1.312112e-004,-5.001953e-004
1.410971e-004,-8.387497e-004
1.663793e-004,-1.146350e-003
2.394708e-004,-1.392851e-003
3.827366e-004,-1.558158e-003
6.094660e-004,-1.634004e-003
9.230627e-004,-1.625415e-003
1.284307e-003,-1.542437e-003
1.613786e-003,-1.403223e-003
1.832899e-003,-1.228841e-003
1.902912e-003,-1.040845e-003
1.832737e-003,-8.552803e-004
1.657706e-003,-6.804119e-004
1.407315e-003,-5.209396e-004
1.089180e-003,-3.741085e-004
6.942263e-004,-2.345703e-004
2.088404e-004,-1.013526e-004
-3.548227e-004,2.084466e-005
-9.680777e-004,1.263492e-004
-1.612612e-003,2.112714e-004
-2.277728e-003,2.757735e-004
-2.946573e-003,3.239069e-004
-3.573606e-003,3.574544e-004
-4.063208e-003,3.772264e-004
-4.297718e-003,3.801436e-004
-4.211174e-003,3.637749e-004
-3.822864e-003,3.305515e-004
-3.224354e-003,2.901973e-004
-2.525688e-003,2.530843e-004
-1.814545e-003,2.243987e-004
-1.141974e-003,2.047888e-004
-5.424943e-004,1.936063e-004
-5.548811e-005,1.884202e-004
2.918179e-004,1.830721e-004
5.005581e-004,1.759412e-004
6.005525e-004,1.663793e-004
6.240520e-004,1.532520e-004
5.984457e-004,1.365593e-004
5.438296e-004,1.203528e-004
4.793275e-004,1.091703e-004
4.154738e-004,1.041462e-004
3.490270e-004,1.023635e-004
2.738286e-004,9.977047e-005
1.889064e-004,9.863601e-005
1.049566e-004,9.588091e-005
4.823370e-005,9.426025e-005
4.596478e-005,9.733949e-005
1.028497e-004,1.101427e-004
1.992786e-004,1.299146e-004
3.083486e-004,1.474177e-004
4.002396e-004,1.563313e-004
4.509661e-004,1.576278e-004
4.459421e-004,1.586002e-004
3.982949e-004,1.639484e-004
3.519442e-004,1.730240e-004
3.550234e-004,1.822617e-004
4.311941e-004,1.908512e-004
5.608465e-004,2.026820e-004
7.013571e-004,2.209954e-004
8.113996e-004,2.406053e-004
8.676364e-004,2.587566e-004
8.665019e-004,2.688046e-004
8.220959e-004,2.652392e-004
7.501388e-004,2.457913e-004
6.644063e-004,2.198609e-004
5.736496e-004,2.000889e-004
4.843516e-004,1.966855e-004
3.958639e-004,2.094887e-004
3.057555e-004,2.294227e-004
2.054371e-004,2.456293e-004
7.400208e-005,2.509774e-004
-1.037836e-004,2.474120e-004
-3.308371e-004,2.415777e-004
-5.922483e-004,2.367157e-004
-8.408565e-004,2.312055e-004
-1.009080e-003,2.250470e-004
-1.045707e-003,2.188885e-004
-9.359888e-004,2.141886e-004
-7.019666e-004,2.158093e-004
-3.895047e-004,2.234263e-004
-4.592625e-005,2.339606e-004
2.976523e-004,2.428742e-004
6.308587e-004,2.451431e-004
9.523966e-004,2.378501e-004
1.242494e-003,2.242366e-004
1.464686e-003,2.086784e-004
1.584615e-003,1.940925e-004
1.591907e-003,1.798307e-004
1.496451e-003,1.660552e-004
1.322230e-003,1.568175e-004
1.091125e-003,1.506590e-004
8.195029e-004,1.391524e-004
5.166026e-004,1.172735e-004
1.895547e-004,8.469840e-005
-1.561307e-004,4.612685e-005
-5.115399e-004,3.827799e-006
-8.656525e-004,-4.219875e-005
-1.194159e-003,-9.211487e-005
-1.459946e-003,-1.431655e-004
-1.636435e-003,-1.898403e-004
-1.708068e-003,-2.269532e-004
-1.665607e-003,-2.523975e-004
-1.511321e-003,-2.663351e-004
-1.254771e-003,-2.736280e-004
-9.196203e-004,-2.788141e-004
-5.473563e-004,-2.880518e-004
-1.702304e-004,-3.065273e-004
2.286124e-004,-3.331060e-004
6.618132e-004,-3.596847e-004
1.091287e-003,-3.812394e-004
1.448641e-003,-3.948528e-004
1.676992e-003,-4.002010e-004
1.755270e-003,-4.010113e-004
1.694981e-003,-4.047388e-004
1.532105e-003,-4.105732e-004
1.323689e-003,-4.139766e-004
1.126779e-003,-4.105732e-004
9.520725e-004,-4.013355e-004
7.520836e-004,-3.914495e-004
4.640934e-004,-3.869116e-004
5.082674e-005,-3.901529e-004
-4.830164e-004,-3.946908e-004
-1.099351e-003,-3.911253e-004
-1.739509e-003,-3.760533e-004
-2.312896e-003,-3.446126e-004
-2.681109e-003,-3.003688e-004
-2.712712e-003,-2.478596e-004
-2.364433e-003,-1.969711e-004
-1.725571e-003,-1.504584e-004
-9.833119e-004,-1.070249e-004
-3.311612e-004,-6.440170e-005
1.051186e-004,-2.323711e-005
3.015418e-004,9.013889e-006
3.234207e-004,3.073064e-005
2.701012e-004,4.823370e-005
2.276400e-004,6.427817e-005
2.409294e-004,8.097089e-005
3.122381e-004,9.474644e-005
4.208219e-004,1.036600e-004
5.347540e-004,1.086841e-004
6.337758e-004,1.174356e-004
7.073536e-004,1.360731e-004
7.525698e-004,1.657311e-004
7.676419e-004,2.010613e-004
7.468975e-004,2.367157e-004
6.869333e-004,2.723701e-004
5.940699e-004,3.055935e-004
4.828930e-004,3.339549e-004
3.722023e-004,3.538890e-004
2.854973e-004,3.676645e-004
2.410915e-004,3.798194e-004
2.399570e-004,3.934329e-004
2.657254e-004,4.081808e-004
3.005694e-004,4.177427e-004
3.318480e-004,4.182289e-004
3.493511e-004,4.104497e-004
3.480546e-004,3.991052e-004
3.302274e-004,3.897054e-004
3.073762e-004,3.848434e-004
2.908455e-004,3.833848e-004
2.877662e-004,3.791712e-004
2.961937e-004,3.670162e-004
3.013798e-004,3.465960e-004
2.952213e-004,3.216380e-004
2.798251e-004,2.999212e-004
2.634565e-004,2.851732e-004
2.514636e-004,2.772320e-004
2.506533e-004,2.725321e-004
2.610255e-004,2.629703e-004
2.717218e-004,2.443328e-004
2.752873e-004,2.164575e-004
2.689667e-004,1.801549e-004
2.514636e-004,1.354248e-004
2.245608e-004,9.215340e-005
1.949028e-004,5.844381e-005
1.668655e-004,3.737532e-005
1.402868e-004,2.635488e-005
1.200286e-004,1.808955e-005
1.111150e-004,4.476060e-006
1.150046e-004,-1.707863e-005
1.266733e-004,-3.960571e-005
1.342904e-004,-5.759496e-005
1.258630e-004,-7.088431e-005
9.669123e-005,-7.882551e-005
5.115087e-005,-8.174268e-005
-1.682422e-006,-8.417367e-005
-4.949169e-005,-9.389759e-005
-8.141856e-005,-1.123730e-004
-1.018388e-004,-1.353863e-004
-1.292278e-004,-1.561307e-004
-1.789819e-004,-1.718510e-004
-2.525595e-004,-1.836818e-004
-3.345645e-004,-1.937298e-004
-4.074939e-004,-2.029675e-004
-4.629203e-004,-2.113949e-004
-5.029504e-004,-2.154466e-004
-5.394151e-004,-2.141500e-004
-5.779866e-004,-2.100984e-004
-6.084549e-004,-2.052365e-004
-5.927345e-004,-2.013469e-004
-4.655133e-004,-1.964849e-004
-1.807646e-004,-1.922712e-004
2.436845e-004,-1.895161e-004
7.287462e-004,-1.869231e-004
1.195657e-003,-1.817370e-004
1.613786e-003,-1.712027e-004
1.984107e-003,-1.566169e-004
2.300784e-003,-1.417068e-004
2.526380e-003,-1.290658e-004
2.596554e-003,-1.177212e-004
2.462850e-003,-1.076731e-004
2.125428e-003,-9.551824e-005
1.629507e-003,-8.060823e-005
1.036833e-003,-6.002594e-005
3.979707e-004,-3.506788e-005
-2.605007e-004,-9.137427e-006
-9.345302e-004,1.630683e-005
-1.634490e-003,4.094075e-005
-2.348875e-003,6.379197e-005
-3.022906e-003,8.648112e-005
-3.564044e-003,1.117633e-004
-3.890769e-003,1.386662e-004
-3.979419e-003,1.634622e-004
-3.876021e-003,1.824238e-004
-3.661770e-003,1.953890e-004
-3.398574e-003,2.010613e-004
-3.083681e-003,2.031682e-004
-2.674789e-003,2.064095e-004
-2.146779e-003,2.130541e-004
-1.523638e-003,2.234263e-004
-8.688938e-004,2.354192e-004
-2.601766e-004,2.433604e-004
2.347709e-004,2.431983e-004
5.807805e-004,2.329882e-004
7.909794e-004,2.162954e-004
9.076665e-004,1.960373e-004
9.768684e-004,1.735102e-004
1.030836e-003,1.498487e-004
1.082049e-003,1.302388e-004
1.122241e-003,1.175977e-004
1.131479e-003,1.122495e-004
1.094690e-003,1.098185e-004
1.010416e-003,1.054428e-004
8.857877e-004,9.588091e-005
7.347427e-004,8.323981e-005
5.851563e-004,7.205730e-005
4.790034e-004,6.233338e-005
4.512903e-004,5.098881e-005
5.149820e-004,3.688912e-005
6.444722e-004,2.214118e-005
7.896828e-004,8.689758e-006
9.049114e-004,-1.520357e-006
9.679549e-004,-1.205460e-005
9.749237e-004,-2.453363e-005
9.332729e-004,-3.911951e-005
8.601813e-004,-4.932962e-005
7.682902e-004,-5.500191e-005
6.655407e-004,-5.597430e-005
5.684635e-004,-5.467778e-005
4.922928e-004,-5.176061e-005
4.384871e-004,-4.965376e-005
3.987811e-004,-4.787104e-005
3.579406e-004,-4.398147e-005
3.104554e-004,-3.441962e-005
2.595669e-004,-2.534396e-005
2.124059e-004,-2.307504e-005
1.709172e-004,-3.263690e-005
1.370455e-004,-5.694670e-005
1.104668e-004,-9.357346e-005
8.842590e-005,-1.316588e-004
7.043665e-005,-1.569410e-004
5.374392e-005,-1.639098e-004
3.429608e-005,-1.588858e-004
1.160693e-005,-1.541859e-004
-1.027188e-005,-1.517549e-004
-2.696461e-005,-1.473791e-004
-3.620233e-005,-1.360346e-004
-3.944364e-005,-1.201522e-004
-3.879538e-005,-1.057284e-004
-4.187462e-005,-9.681477e-005
-5.710876e-005,-9.341139e-005
-8.449780e-005,-9.065628e-005
-1.149661e-004,-8.482193e-005
-1.374932e-004,-7.412562e-005
-1.473791e-004,-6.132246e-005
-1.439758e-004,-4.851930e-005
-1.303623e-004,-4.155049e-005
-1.114006e-004,-4.009191e-005
-9.519411e-005,-4.365734e-005
-8.271508e-005,-4.576419e-005
-7.363943e-005,-3.960571e-005
-7.509801e-005,-2.971972e-005
-8.919769e-005,-2.048200e-005
-1.052422e-004,-1.335113e-005
-9.535618e-005,-4.113403e-006
-3.782299e-005,9.013889e-006
6.962632e-005,2.927205e-005
2.203471e-004,5.358185e-005
3.968363e-004,7.529860e-005
5.914768e-004,9.134307e-005
8.370060e-004,1.018773e-004
1.145093e-003,1.117633e-004
1.463227e-003,1.221355e-004
1.695630e-003,1.302388e-004
1.768721e-003,1.360731e-004
1.673102e-003,1.423936e-004
1.454962e-003,1.522796e-004
1.172482e-003,1.712413e-004
8.695811e-004,2.021958e-004
5.605224e-004,2.381743e-004
2.128921e-004,2.668598e-004
-2.486699e-004,2.837146e-004
-8.857486e-004,2.921420e-004
-1.696399e-003,2.942489e-004
-2.608666e-003,2.889007e-004
-3.501486e-003,2.782044e-004
-4.207933e-003,2.683184e-004
-4.518453e-003,2.615117e-004
-4.272111e-003,2.574601e-004
-3.476042e-003,2.545429e-004
-2.314355e-003,2.521119e-004
-1.045707e-003,2.503292e-004
1.146805e-004,2.438466e-004
1.022247e-003,2.320158e-004
1.643120e-003,2.195368e-004
2.003717e-003,2.078681e-004
2.138718e-003,1.979821e-004
2.089936e-003,1.905271e-004
1.903884e-003,1.846927e-004
1.640689e-003,1.795066e-004
1.352212e-003,1.723757e-004
1.072001e-003,1.600588e-004
8.052412e-004,1.419075e-004
5.337815e-004,1.169494e-004
2.378501e-004,8.988449e-005
-9.616651e-005,6.395404e-005
-4.805854e-004,4.175109e-005
-9.030896e-004,2.359977e-005
-1.322352e-003,7.879432e-006
-1.692510e-003,-4.113403e-006
-1.986658e-003,-1.205460e-005
-2.192482e-003,-1.967167e-005
-2.295069e-003,-2.826114e-005
-2.266870e-003,-3.685060e-005
-2.089732e-003,-4.787104e-005
-1.771760e-003,-6.586029e-005
-1.351362e-003,-9.000802e-005
-8.685697e-004,-1.175591e-004
-3.700569e-004,-1.454344e-004
8.826383e-005,-1.702304e-004
4.571246e-004,-1.877334e-004
7.144845e-004,-1.974573e-004
8.757396e-004,-2.008607e-004
9.686031e-004,-2.018331e-004
1.020626e-003,-2.005366e-004
1.049150e-003,-1.982676e-004
1.062925e-003,-1.958367e-004
1.064708e-003,-1.956746e-004
1.057739e-003,-1.992400e-004
1.043153e-003,-2.076674e-004
1.025488e-003,-2.173914e-004
1.008147e-003,-2.263049e-004
9.930751e-004,-2.287359e-004
9.765443e-004,-2.235498e-004
9.494794e-004,-2.128535e-004
9.060458e-004,-1.966470e-004
8.468920e-004,-1.754164e-004
7.817416e-004,-1.527273e-004
7.248566e-004,-1.324691e-004
6.854748e-004,-1.196660e-004
6.669993e-004,-1.097800e-004
6.640821e-004,-9.422172e-005
6.603546e-004,-6.974985e-005
6.404206e-004,-4.300908e-005
5.982835e-004,-2.064406e-005
5.316747e-004,-2.978945e-006
4.435111e-004,1.209313e-005
3.409237e-004,2.667901e-005
2.355812e-004,3.996837e-005
1.446626e-004,4.985435e-005
9.944634e-005,5.714729e-005
1.419075e-004,5.925414e-005
2.901973e-004,6.233338e-005
5.193577e-004,7.238143e-005
7.681281e-004,8.988449e-005
9.687652e-004,1.109530e-004
1.084156e-003,1.328318e-004
1.133100e-003,1.545486e-004
1.168106e-003,1.736723e-004
1.249463e-003,1.905271e-004
1.413635e-003,2.021958e-004
1.637610e-003,2.077060e-004
1.839706e-003,2.086784e-004
1.928032e-003,2.101370e-004
1.841165e-003,2.158093e-004
1.557874e-003,2.222919e-004
1.099228e-003,2.237505e-004
5.190336e-004,2.159713e-004
-1.152902e-004,2.054371e-004
-7.244936e-004,1.974959e-004
-1.249585e-003,1.942546e-004
-1.641135e-003,1.952270e-004
-1.862192e-003,2.008992e-004
-1.914539e-003,2.098128e-004
-1.848255e-003,2.175920e-004
-1.746478e-003,2.221298e-004
-1.689917e-003,2.224539e-004
-1.724761e-003,2.193747e-004
-1.830265e-003,2.180782e-004
-1.936580e-003,2.185644e-004
-1.972559e-003,2.132162e-004
-1.897036e-003,1.976579e-004
-1.704341e-003,1.704310e-004
-1.433853e-003,1.378558e-004
-1.148294e-003,1.093323e-004
-9.024413e-004,9.069481e-005
-7.227109e-004,8.113296e-005
-6.011620e-004,7.205730e-005
-5.048952e-004,5.860588e-005
-4.024699e-004,4.320967e-005
-2.742763e-004,2.667901e-005
-1.162626e-004,7.393236e-006
5.536457e-005,-1.448558e-005
2.273159e-004,-3.555408e-005
3.882468e-004,-5.613637e-005
5.191956e-004,-7.623246e-005
6.037938e-004,-9.584238e-005
6.381517e-004,-1.118868e-004
6.287518e-004,-1.227452e-004
5.942319e-004,-1.331174e-004
5.553362e-004,-1.455964e-004
5.245438e-004,-1.613168e-004
4.952099e-004,-1.765509e-004
4.521006e-004,-1.823853e-004
3.895433e-004,-1.791439e-004
3.175863e-004,-1.710407e-004
2.516257e-004,-1.660166e-004
2.094887e-004,-1.677994e-004
1.927960e-004,-1.757406e-004
1.949028e-004,-1.851404e-004
2.060853e-004,-1.916230e-004
2.182402e-004,-1.922712e-004
2.268297e-004,-1.893541e-004
2.226160e-004,-1.854645e-004
2.055991e-004,-1.814128e-004
1.832341e-004,-1.754164e-004
1.597346e-004,-1.647201e-004
1.427178e-004,-1.489998e-004
1.376938e-004,-1.308485e-004
1.461212e-004,-1.128592e-004
1.621656e-004,-9.973194e-005
1.749688e-004,-9.486997e-005
1.752929e-004,-9.389759e-005
1.616794e-004,-8.822530e-005
1.360731e-004,-6.926366e-005
1.072255e-004,-3.863332e-005
8.356394e-005,-1.034161e-006
7.124698e-005,3.494434e-005
7.254349e-005,6.768154e-005
8.891209e-005,9.507057e-005
1.187321e-004,1.184080e-004
1.561692e-004,1.342904e-004
1.923098e-004,1.415833e-004
2.149989e-004,1.402868e-004
2.300710e-004,1.339663e-004
3.010556e-004,1.308870e-004
4.937514e-004,1.375317e-004
7.966516e-004,1.547106e-004
1.115110e-003,1.762653e-004
1.335358e-003,1.992786e-004
1.390784e-003,2.196988e-004
1.275231e-003,2.350950e-004
1.024840e-003,2.415777e-004
6.924436e-004,2.380122e-004
3.115899e-004,2.295848e-004
-1.148040e-004,2.200230e-004
-5.815520e-004,2.149989e-004
-1.055755e-003,2.192126e-004
-1.488632e-003,2.289366e-004
-1.862192e-003,2.378501e-004
-2.182758e-003,2.401191e-004
-2.443197e-003,2.346088e-004
-2.581601e-003,2.213195e-004
-2.498948e-003,2.067336e-004
-2.150669e-003,1.966855e-004
-1.586033e-003,1.923098e-004
-9.329096e-004,1.905271e-004
-3.356990e-004,1.848548e-004
9.053275e-005,1.715654e-004
3.042970e-004,1.556830e-004
3.331446e-004,1.401247e-004
2.397949e-004,1.248906e-004
9.960841e-005,1.111150e-004
-2.988179e-005,9.636710e-005
-1.277692e-004,7.853991e-005
-1.935677e-004,5.714729e-005
-2.391081e-004,3.332369e-005
-2.671454e-004,1.241726e-005
-2.728177e-004,-4.113403e-006
-2.559629e-004,-1.432352e-005
-2.139880e-004,-1.837515e-005
-1.410586e-004,-1.869928e-005
-3.312309e-005,-1.659243e-005
1.088461e-004,-1.529591e-005
2.670219e-004,-1.983374e-005
4.161220e-004,-3.312309e-005
5.332953e-004,-5.532604e-005
6.080075e-004,-8.449780e-005
6.410689e-004,-1.164247e-004
6.392861e-004,-1.468929e-004
6.120591e-004,-1.695821e-004
5.692738e-004,-1.812508e-004
5.204921e-004,-1.874093e-004
4.770586e-004,-1.919471e-004
4.509661e-004,-1.964849e-004
4.467524e-004,-1.985918e-004
4.574487e-004,-1.953505e-004
4.662003e-004,-1.867610e-004
4.585832e-004,-1.767130e-004
4.362182e-004,-1.687718e-004
4.114222e-004,-1.660166e-004
3.908399e-004,-1.689338e-004
3.772264e-004,-1.741199e-004
3.694472e-004,-1.750923e-004
3.647473e-004,-1.660166e-004
3.543751e-004,-1.465688e-004
3.344411e-004,-1.209625e-004
3.030004e-004,-9.324933e-005
2.626462e-004,-6.877746e-005
2.148369e-004,-4.689865e-005
1.581140e-004,-3.036798e-005
9.296373e-005,-1.302700e-005
2.489629e-005,9.662150e-006
-3.587821e-005,3.640293e-005
-8.093236e-005,6.508849e-005
-1.094559e-004,9.182927e-005
-1.193418e-004,1.135460e-004
-1.088076e-004,1.316974e-004
-8.174268e-005,1.456350e-004
-4.949169e-005,1.513072e-004
-2.680255e-005,1.487142e-004
-1.237873e-005,1.372076e-004
1.922400e-005,1.159770e-004
1.116012e-004,8.777764e-005
2.916559e-004,5.747142e-005
5.404262e-004,3.267542e-005
7.951931e-004,2.165498e-005
9.805959e-004,2.700314e-005
1.055794e-003,4.369587e-005
1.020464e-003,6.362991e-005
9.034528e-004,7.999851e-005
7.550009e-004,9.247754e-005
6.225934e-004,1.023635e-004
5.170888e-004,1.120874e-004
4.245494e-004,1.239182e-004
3.237448e-004,1.359110e-004
2.075439e-004,1.457970e-004
8.486046e-005,1.524417e-004
-3.571614e-005,1.574657e-004
-1.648822e-004,1.639484e-004
-3.186821e-004,1.744826e-004
-5.037607e-004,1.867996e-004
-7.027769e-004,1.953890e-004
-8.494460e-004,1.944166e-004
-8.539838e-004,1.845306e-004
-6.789533e-004,1.694586e-004
-3.478539e-004,1.545486e-004
7.708133e-005,1.419075e-004
5.070407e-004,1.333180e-004
8.535367e-004,1.297526e-004
1.069246e-003,1.326697e-004
1.145255e-003,1.367214e-004
1.088856e-003,1.393144e-004
9.269523e-004,1.383420e-004
7.007089e-004,1.352628e-004
4.511282e-004,1.291043e-004
2.161334e-004,1.216493e-004
1.241726e-005,1.107909e-004
-1.767130e-004,9.831188e-005
-3.911253e-004,8.469840e-005
-6.583710e-004,6.978839e-005
-9.803947e-004,5.520250e-005
-1.326404e-003,4.272347e-005
-1.640811e-003,3.251336e-005
-1.864299e-003,2.149292e-005
-1.960242e-003,6.258778e-006
-1.924101e-003,-1.562004e-005
-1.776460e-003,-4.268495e-005
-1.556375e-003,-6.926366e-005
-1.321380e-003,-9.146661e-005
-1.122688e-003,-1.060525e-004
-9.667812e-004,-1.144799e-004
-8.155743e-004,-1.225832e-004
-6.235270e-004,-1.337657e-004
-3.664914e-004,-1.462447e-004
-6.521203e-005,-1.566169e-004
2.269918e-004,-1.694200e-004
4.521006e-004,-1.822232e-004
5.802943e-004,-1.882196e-004
6.127074e-004,-1.840059e-004
5.760806e-004,-1.760647e-004
4.994237e-004,-1.710407e-004
4.042913e-004,-1.707166e-004
3.067279e-004,-1.737958e-004
2.090025e-004,-1.762268e-004
1.101427e-004,-1.771992e-004
8.689758e-006,-1.728234e-004
-9.551824e-005,-1.577513e-004
-2.032917e-004,-1.360346e-004
-3.076617e-004,-1.120489e-004
-3.937184e-004,-9.195280e-005
-4.371519e-004,-7.752899e-005
-4.170558e-004,-6.683268e-005
-3.311612e-004,-5.289507e-005
-1.942160e-004,-3.134038e-005
-2.599222e-005,-7.030578e-006
1.475797e-004,1.322759e-005
2.965178e-004,2.716521e-005
4.031568e-004,3.559260e-005
4.694416e-004,4.758544e-005
5.037994e-004,6.638502e-005
5.175750e-004,8.826383e-005
5.208163e-004,1.060910e-004
5.235714e-004,1.180839e-004
5.271368e-004,1.250527e-004
5.268127e-004,1.341283e-004
5.157923e-004,1.535762e-004
4.932652e-004,1.825859e-004
4.655520e-004,2.146748e-004
4.397836e-004,2.394708e-004
4.247115e-004,2.524360e-004
4.227667e-004,2.540567e-004
4.284390e-004,2.464396e-004
4.334631e-004,2.367157e-004
4.294114e-004,2.302331e-004
4.203358e-004,2.281262e-004
4.156358e-004,2.276400e-004
4.179048e-004,2.268297e-004
4.273046e-004,2.248849e-004
4.478869e-004,2.243987e-004
4.775448e-004,2.295848e-004
5.026649e-004,2.409294e-004
5.106062e-004,2.524360e-004
4.960203e-004,2.584324e-004
4.637693e-004,2.556773e-004
4.183910e-004,2.470879e-004
3.671783e-004,2.323399e-004
3.158036e-004,2.141886e-004
2.688046e-004,1.963614e-004
2.274780e-004,1.825859e-004
1.885823e-004,1.714034e-004
1.469315e-004,1.590864e-004
9.863601e-005,1.433661e-004
4.709924e-005,1.227837e-004
-2.168618e-006,9.782569e-005
-4.284701e-005,6.995045e-005
-7.526008e-005,4.191315e-005
-9.827335e-005,1.711715e-005
-1.107524e-004,-5.409925e-006
-1.081593e-004,-2.696461e-005
-8.741498e-005,-4.527799e-005
-5.597430e-005,-5.775702e-005
-1.967167e-005,-6.342931e-005
1.727922e-005,-6.569822e-005
5.374392e-005,-7.072225e-005
9.361199e-005,-8.368748e-005
1.323456e-004,-1.089697e-004
1.634622e-004,-1.439758e-004
1.851789e-004,-1.806025e-004
1.916615e-004,-2.109087e-004
1.778860e-004,-2.316531e-004
1.406109e-004,-2.391081e-004
8.712937e-005,-2.316531e-004
3.656499e-005,-2.128535e-004
1.387585e-005,-1.883817e-004
3.575467e-005,-1.624512e-004
9.928428e-005,-1.370070e-004
1.820997e-004,-1.177212e-004
2.472499e-004,-1.068628e-004
2.657254e-004,-1.052422e-004
2.303951e-004,-1.088076e-004
1.451488e-004,-1.152902e-004
1.468618e-005,-1.242038e-004
-1.582375e-004,-1.334415e-004
-3.575778e-004,-1.410586e-004
-5.562698e-004,-1.439758e-004
-7.220627e-004,-1.417068e-004
-8.290258e-004,-1.386276e-004
-8.664628e-004,-1.342519e-004
-8.392359e-004,-1.274451e-004
-7.723029e-004,-1.136696e-004
-6.993735e-004,-9.632857e-005
-6.431369e-004,-7.720486e-005
-6.006758e-004,-5.921561e-005
-5.523803e-004,-4.560212e-005
-4.822060e-004,-3.636440e-005
-3.906392e-004,-2.874733e-005
-2.898345e-004,-2.113026e-005
-1.951884e-004,-1.237873e-005
-1.180453e-004,2.531276e-006
-6.245691e-005,2.197911e-005
-3.604027e-005,4.402000e-005
-4.446767e-005,6.362991e-005
-7.639453e-005,7.821578e-005
-1.151281e-004,8.810177e-005
-1.447861e-004,9.620504e-005
-1.486757e-004,1.031738e-004
-1.186936e-004,1.119254e-004
-5.791909e-005,1.244044e-004
2.019640e-005,1.425557e-004
9.409818e-005,1.600588e-004
1.423936e-004,1.714034e-004
1.521176e-004,1.746447e-004
1.229458e-004,1.746447e-004
5.617490e-005,1.765894e-004
-3.377136e-005,1.786963e-004
-1.183694e-004,1.791825e-004
-1.593720e-004,1.772377e-004
-1.308485e-004,1.765894e-004
-3.701266e-005,1.796687e-004
9.053275e-005,1.856651e-004
2.169437e-004,1.942546e-004
3.154794e-004,2.052750e-004
3.713920e-004,2.184023e-004
3.788470e-004,2.278021e-004
3.410858e-004,2.273159e-004
2.743149e-004,2.174299e-004
2.030061e-004,2.026820e-004
1.436902e-004,1.893926e-004
1.018773e-004,1.790204e-004
7.059871e-005,1.710792e-004
3.640293e-005,1.610312e-004
1.533444e-005,1.457970e-004
6.411610e-005,1.245665e-004
2.355812e-004,1.005808e-004
5.585775e-004,7.805372e-005
1.030836e-003,5.925414e-005
1.644417e-003,4.466826e-005
2.382951e-003,3.316162e-005
3.172862e-003,2.505836e-005
3.876070e-003,2.052053e-005
4.350928e-003,1.841368e-005
4.505054e-003,1.371378e-005
4.306197e-003,4.800190e-006
3.770078e-003,-6.058186e-006
2.944187e-003,-1.983374e-005
1.880223e-003,-4.106429e-005
6.235657e-004,-6.715681e-005
-7.544757e-004,-9.373552e-005
-2.096701e-003,-1.164247e-004
-3.280104e-003,-1.327933e-004
-4.222357e-003,-1.420310e-004
-4.947281e-003,-1.460826e-004
-4.967863e-003,-1.438137e-004
-4.968025e-003,-1.386276e-004
-4.967863e-003,-1.332795e-004
-4.968025e-003,-1.305243e-004
-4.967702e-003,-1.292278e-004
-4.967702e-003,-1.266348e-004
-4.967863e-003,-1.206384e-004
-4.719253e-003,-1.122110e-004
-3.216575e-003,-1.026491e-004
-1.768681e-003,-9.373552e-005
-5.731247e-004,-8.984595e-005
2.713977e-004,-9.292520e-005
7.755831e-004,-9.924574e-005
1.034240e-003,-1.058904e-004
1.149144e-003,-1.092938e-004
1.210405e-003,-1.073490e-004
1.274745e-003,-1.005423e-004
1.355454e-003,-8.935975e-005
1.440862e-003,-7.412562e-005
1.517519e-003,-5.613637e-005
1.578456e-003,-3.928157e-005
1.628534e-003,-2.550602e-005
1.673264e-003,-1.254080e-005
1.709405e-003,4.151929e-006
1.730798e-003,2.343770e-005
1.727719e-003,4.077869e-005
1.698385e-003,5.552663e-005
1.647496e-003,6.832980e-005
1.581049e-003,7.772959e-005
1.506985e-003,8.680524e-005
1.431949e-003,9.750156e-005
1.360478e-003,1.083599e-004
1.285117e-003,1.206769e-004
1.197278e-003,1.368834e-004
1.103604e-003,1.594105e-004
1.026947e-003,1.876099e-004
9.854579e-004,2.143507e-004
9.844856e-004,2.326641e-004
1.014792e-003,2.407673e-004
1.059522e-003,2.397949e-004
1.102469e-003,2.357433e-004
1.132775e-003,2.339606e-004
1.147523e-003,2.336365e-004
1.150441e-003,2.354192e-004
1.147199e-003,2.355812e-004
1.137313e-003,2.342847e-004
1.120134e-003,2.333123e-004
1.095500e-003,2.350950e-004
1.066653e-003,2.543808e-004
1.039426e-003,3.085106e-004
1.012685e-003,4.021844e-004
9.609861e-004,5.182233e-004
8.536987e-004,6.274553e-004
6.789921e-004,7.020054e-004
4.589073e-004,7.321496e-004
2.456293e-004,7.209671e-004
8.810177e-005,6.798024e-004
1.209313e-005,6.221072e-004
1.711715e-005,5.545259e-004
7.691926e-005,4.780310e-004
1.636242e-004,3.875985e-004
2.461155e-004,2.795009e-004
2.971661e-004,1.521176e-004
3.033245e-004,2.207145e-006
2.735045e-004,-1.739578e-004
2.367157e-004,-3.723258e-004
2.214815e-004,-5.804176e-004
2.248849e-004,-7.740856e-004
2.124059e-004,-9.355026e-004
1.490383e-004,-1.054621e-003
2.765140e-005,-1.122364e-003
-1.162626e-004,-1.136302e-003
-2.259808e-004,-1.103564e-003
-2.590421e-004,-1.038252e-003
-2.173914e-004,-9.580297e-004
-1.455964e-004,-8.752144e-004
-1.010285e-004,-7.932093e-004
-1.011905e-004,-7.082871e-004
-1.219349e-004,-6.194753e-004
-1.326312e-004,-5.298533e-004
-1.146419e-004,-4.381243e-004
-5.808115e-005,-3.489884e-004
3.089271e-005,-2.652006e-004
1.292664e-004,-1.893541e-004
2.028440e-004,-1.253383e-004
2.292607e-004,-7.866345e-005
2.051129e-004,-4.819517e-005
1.446626e-004,-2.809907e-005
6.573675e-005,-1.416145e-005
-2.728874e-005,-1.682422e-006
-1.452723e-004,1.225520e-005
-2.940482e-004,2.878586e-005
-4.557894e-004,4.693717e-005
-6.065101e-004,6.735741e-005
-7.309763e-004,9.231547e-005
-8.265948e-004,1.221355e-004
-8.961208e-004,1.509831e-004
-9.403646e-004,1.749688e-004
-9.564091e-004,1.947408e-004
-9.367992e-004,2.137024e-004
-8.773212e-004,2.326641e-004
-7.852681e-004,2.493568e-004
-6.774947e-004,2.636185e-004
-5.750695e-004,2.795009e-004
-4.898231e-004,2.960316e-004
-4.274280e-004,3.112658e-004
-3.937184e-004,3.230965e-004
-3.857772e-004,3.290929e-004
-3.933943e-004,3.329825e-004
-4.047388e-004,3.365480e-004
-4.091146e-004,3.428685e-004
-3.984183e-004,3.546993e-004
-3.731361e-004,3.739850e-004
-3.403989e-004,4.021844e-004
-3.084721e-004,4.360561e-004
-2.786520e-004,4.653899e-004
-2.506147e-004,4.824068e-004
-2.248464e-004,4.830550e-004
-2.050744e-004,4.657141e-004
-1.940539e-004,4.404318e-004
-1.914609e-004,4.177427e-004
-1.951884e-004,4.020224e-004
-2.000504e-004,3.932708e-004
-1.998883e-004,3.866261e-004
-1.898403e-004,3.756057e-004
-1.750923e-004,3.561579e-004
-1.663408e-004,3.276344e-004
-1.710407e-004,3.005694e-004
-1.890299e-004,2.804733e-004
-2.165810e-004,2.671840e-004
-2.417012e-004,2.597290e-004
-2.522354e-004,2.547049e-004
-2.507768e-004,2.469258e-004
-2.405667e-004,2.307193e-004
-2.250084e-004,2.060853e-004
-2.071812e-004,1.788584e-004
-1.867610e-004,1.558451e-004
-1.613168e-004,1.402868e-004
-1.287416e-004,1.291043e-004
-9.697683e-005,1.158149e-004
-7.736692e-005,9.361199e-005
-7.752899e-005,6.217132e-005
-9.049421e-005,2.748934e-005
-1.045939e-004,-5.085794e-006
-1.148040e-004,-3.409549e-005
-1.169109e-004,-6.083626e-005
-1.133454e-004,-8.514606e-005
-1.088076e-004,-1.011905e-004
-1.096179e-004,-1.071869e-004
-1.177212e-004,-1.011905e-004
-1.276072e-004,-8.871149e-005
-1.342519e-004,-7.801519e-005
-1.357104e-004,-7.898758e-005
-1.243659e-004,-9.681477e-005
-8.141856e-005,-1.292278e-004
6.420843e-006,-1.707166e-004
1.336421e-004,-2.130156e-004
2.775562e-004,-2.493182e-004
4.242253e-004,-2.729798e-004
5.906665e-004,-2.854588e-004
7.964896e-004,-2.890242e-004
1.028729e-003,-2.861070e-004
1.236660e-003,-2.736280e-004
1.353023e-003,-2.535319e-004
1.336978e-003,-2.331117e-004
1.188202e-003,-2.188499e-004
9.326246e-004,-2.126914e-004
6.141660e-004,-2.139880e-004
2.835526e-004,-2.182017e-004
-2.210265e-005,-2.224154e-004
-2.789762e-004,-2.238740e-004
-4.695649e-004,-2.233878e-004
-5.869002e-004,-2.201465e-004
-6.235270e-004,-2.092881e-004
-5.611319e-004,-1.896782e-004
-3.548227e-004,-1.663408e-004
5.934648e-006,-1.430034e-004
4.230909e-004,-1.225832e-004
7.302048e-004,-1.052422e-004
8.340888e-004,-8.692878e-005
7.660213e-004,-6.731888e-005
6.242140e-004,-4.949169e-005
4.864584e-004,-3.279896e-005
3.731747e-004,-1.805102e-005
2.474120e-004,-8.327101e-006
3.267542e-005,-3.465141e-006
-3.369955e-004,4.244267e-007
-8.688938e-004,4.151929e-006
-1.512617e-003,8.041497e-006
-2.206257e-003,1.419998e-005
-2.879316e-003,2.295151e-005
-3.427746e-003,3.526847e-005
-3.710390e-003,5.196120e-005
-3.614447e-003,7.659513e-005
-3.125655e-003,1.088461e-004
-2.358923e-003,1.412592e-004
-1.500787e-003,1.683241e-004
-7.207661e-004,1.893926e-004
-1.118868e-004,2.043026e-004
3.138588e-004,2.137024e-004
5.976353e-004,2.184023e-004
7.990826e-004,2.190506e-004
9.650377e-004,2.195368e-004
1.112679e-003,2.211574e-004
1.233580e-003,2.195368e-004
1.319637e-003,2.101370e-004
1.364529e-003,1.950649e-004
1.370202e-003,1.799928e-004
1.351564e-003,1.671896e-004
1.321582e-003,1.587623e-004
1.290952e-003,1.548727e-004
1.262752e-003,1.537382e-004
1.234229e-003,1.511452e-004
1.201978e-003,1.433661e-004
1.163568e-003,1.304008e-004
1.118838e-003,1.159770e-004
1.068273e-003,1.086841e-004
1.012361e-003,1.062531e-004
9.528828e-004,9.944634e-005
8.940530e-004,8.567078e-005
8.457575e-004,6.541262e-005
8.122100e-004,4.239934e-005
7.917897e-004,2.197911e-005
7.772038e-004,6.096713e-006
7.695867e-004,-3.627206e-006
7.648868e-004,-1.124428e-005
7.613214e-004,-2.031993e-005
7.532181e-004,-2.988179e-005
7.310151e-004,-3.830919e-005
6.914712e-004,-4.381940e-005
6.365310e-004,-4.414354e-005
5.686256e-004,-3.879538e-005
4.887274e-004,-3.182657e-005
4.038051e-004,-3.198864e-005
3.281205e-004,-4.576419e-005
2.748010e-004,-7.250496e-005
2.514636e-004,-1.047560e-004
2.538946e-004,-1.324691e-004
2.678322e-004,-1.486757e-004
2.807975e-004,-1.515928e-004
2.859836e-004,-1.457585e-004
2.782044e-004,-1.361966e-004
2.613496e-004,-1.232314e-004
2.372019e-004,-1.063766e-004
2.111094e-004,-8.628052e-005
1.898788e-004,-6.488790e-005
1.783722e-004,-5.111234e-005
1.741585e-004,-5.078821e-005
1.739964e-004,-6.197072e-005
1.759412e-004,-7.671866e-005
1.773998e-004,-8.854943e-005
1.688103e-004,-9.243900e-005
1.462832e-004,-8.822530e-005
1.150046e-004,-7.428769e-005
7.643307e-005,-4.981582e-005
3.445814e-005,-2.177852e-005
-1.270286e-005,1.558884e-006
-6.261898e-005,1.614476e-005
-1.078352e-004,2.392390e-005
-1.452723e-004,2.473423e-005
-1.817370e-004,1.889987e-005
-2.201465e-004,6.258778e-006
-2.601766e-004,-9.461558e-006
-2.985861e-004,-2.226472e-005
-3.361852e-004,-2.210265e-005
-3.708672e-004,1.744129e-005
-4.014975e-004,1.326697e-004
-4.243487e-004,3.248792e-004
-4.339106e-004,5.623050e-004
-4.256453e-004,7.964896e-004
-4.060354e-004,9.875648e-004
-3.815635e-004,1.114300e-003
-3.554710e-004,1.170537e-003
-3.290543e-004,1.162596e-003
-2.997205e-004,1.101497e-003
-2.686040e-004,9.997197e-004
-2.475355e-004,8.656915e-004
-2.465631e-004,6.973055e-004
-2.673075e-004,4.884033e-004
-3.010170e-004,2.333123e-004
-3.378059e-004,-6.553616e-005
-3.732982e-004,-3.940425e-004
-3.982562e-004,-7.223868e-004
-4.003631e-004,-1.017508e-003
-3.651949e-004,-1.258337e-003
-2.898345e-004,-1.433367e-003
-1.987538e-004,-1.537575e-003
-1.287416e-004,-1.569988e-003
-1.081593e-004,-1.529472e-003
-1.417068e-004,-1.423643e-003
-2.049123e-004,-1.273247e-003
-2.590421e-004,-1.104537e-003
-2.755728e-004,-9.377715e-004
-2.499665e-004,-7.820268e-004
-2.010227e-004,-6.366542e-004
-1.494860e-004,-4.951713e-004
-1.131834e-004,-3.548227e-004
-9.535618e-005,-2.130156e-004
-8.287715e-005,-7.039812e-005
-5.727083e-005,7.076078e-005
-9.299493e-006,2.005751e-004
5.455425e-005,3.083486e-004
1.119254e-004,3.911640e-004
1.291043e-004,4.490213e-004
8.486046e-005,4.838654e-004
-1.675450e-005,4.986133e-004
-1.470550e-004,4.981271e-004
-2.614731e-004,4.882411e-004
-3.274337e-004,4.781931e-004
-3.384541e-004,4.710622e-004
-3.053928e-004,4.644175e-004
-2.366771e-004,4.517764e-004
-1.444620e-004,4.334631e-004
-5.143648e-005,4.104497e-004
2.181705e-005,3.851676e-004
7.076078e-005,3.574544e-004
1.046324e-004,3.250413e-004
1.307250e-004,2.892249e-004
1.500107e-004,2.563256e-004
1.573037e-004,2.337985e-004
1.462832e-004,2.211574e-004
1.138702e-004,2.119197e-004
6.541262e-005,2.020337e-004
2.246531e-005,1.989545e-004
-4.275467e-006,2.059233e-004
-1.853722e-005,2.195368e-004
-2.615429e-005,2.318537e-004
-3.474375e-005,2.347709e-004
-4.706071e-005,2.235884e-004
-6.164659e-005,2.023578e-004
-7.315322e-005,1.798307e-004
-8.174268e-005,1.607070e-004
-9.373552e-005,1.483901e-004
-1.076731e-004,1.428799e-004
-1.219349e-004,1.412592e-004
-1.298761e-004,1.394765e-004
-1.169109e-004,1.360731e-004
-7.185670e-005,1.323456e-004
1.234753e-006,1.320215e-004
9.944634e-005,1.360731e-004
2.589186e-004,1.407730e-004
5.225990e-004,1.373696e-004
8.742810e-004,1.281319e-004
1.250111e-003,1.180839e-004
1.593690e-003,1.124116e-004
1.856885e-003,1.137081e-004
1.996586e-003,1.210010e-004
1.973734e-003,1.307250e-004
1.759321e-003,1.341283e-004
1.363881e-003,1.292664e-004
8.336026e-004,1.213252e-004
2.333123e-004,1.187321e-004
-3.601709e-004,1.260251e-004
-8.904485e-004,1.457970e-004
-1.335318e-003,1.723757e-004
-1.685703e-003,1.996027e-004
-1.943387e-003,2.216436e-004
-2.118418e-003,2.347709e-004
-2.212416e-003,2.407673e-004
-2.209499e-003,2.397949e-004
-2.104966e-003,2.339606e-004
-1.921346e-003,2.239125e-004
-1.713578e-003,2.102990e-004
-1.531417e-003,1.952270e-004
-1.378913e-003,1.808031e-004
-1.207934e-003,1.670276e-004
-9.599745e-004,1.571416e-004
-6.154237e-004,1.522796e-004
-2.217671e-004,1.537382e-004
1.297526e-004,1.584381e-004
3.446512e-004,1.605450e-004
3.749574e-004,1.545486e-004
2.466017e-004,1.385041e-004
3.624086e-005,1.140322e-004
-1.870851e-004,8.664318e-005
-4.010113e-004,6.249545e-005
-6.123445e-004,4.434413e-005
-8.139537e-004,3.089271e-005
-9.739121e-004,2.214118e-005
-1.048624e-003,1.468618e-005
-1.023666e-003,3.341602e-006
-9.337199e-004,-1.335113e-005
-8.379394e-004,-3.474375e-005
-7.915886e-004,-5.791909e-005
-8.094159e-004,-8.012204e-005
-8.410186e-004,-9.989401e-005
-7.855922e-004,-1.164247e-004
-5.562698e-004,-1.300382e-004
-1.430034e-004,-1.436516e-004
3.793332e-004,-1.590478e-004
8.880566e-004,-1.731475e-004
1.280741e-003,-1.838438e-004
1.506661e-003,-1.898403e-004
1.588990e-003,-1.948643e-004
1.642634e-003,-2.016710e-004
1.795624e-003,-2.138259e-004
2.085884e-003,-2.324634e-004
2.442915e-003,-2.538560e-004
2.747276e-003,-2.731418e-004
2.906587e-003,-2.862691e-004
2.887625e-003,-2.950206e-004
2.705139e-003,-3.008550e-004
2.413906e-003,-3.052308e-004
2.073081e-003,-3.057169e-004
1.711836e-003,-3.019894e-004
1.315748e-003,-2.950206e-004
8.616399e-004,-2.888622e-004
3.396272e-004,-2.836761e-004
-2.478596e-004,-2.794623e-004
-8.805625e-004,-2.750866e-004
-1.498355e-003,-2.694143e-004
-1.973369e-003,-2.613110e-004
-2.150021e-003,-2.511010e-004
-1.945818e-003,-2.387840e-004
-1.408409e-003,-2.263049e-004
-6.949978e-004,-2.147983e-004
1.079661e-005,-2.026434e-004
5.603603e-004,-1.877334e-004
8.874084e-004,-1.697442e-004
1.010740e-003,-1.464067e-004
9.951819e-004,-1.199901e-004
9.130147e-004,-9.519411e-005
8.169098e-004,-7.331530e-005
7.323117e-004,-5.305713e-005
6.647304e-004,-3.279896e-005
6.107626e-004,-1.562004e-005
5.639257e-004,-2.330684e-006
5.146578e-004,9.013889e-006
4.559901e-004,2.278944e-005
3.853296e-004,3.883391e-005
3.099692e-004,5.568870e-005
2.394708e-004,7.059871e-005
1.880961e-004,8.583286e-005
1.655690e-004,1.044704e-004
1.667035e-004,1.273216e-004
1.670276e-004,1.522796e-004
1.485521e-004,1.783722e-004
1.177597e-004,1.999268e-004
8.956036e-005,2.137024e-004
8.275361e-005,2.193747e-004
1.081979e-004,2.177540e-004
1.566554e-004,2.122438e-004
2.162954e-004,2.072198e-004
2.764217e-004,2.078681e-004
3.171001e-004,2.148369e-004
3.174242e-004,2.252090e-004
2.704253e-004,2.349330e-004
1.921477e-004,2.431983e-004
1.036600e-004,2.521119e-004
2.603075e-005,2.603772e-004
-3.053005e-005,2.650771e-004
-6.537409e-005,2.652392e-004
-8.077030e-005,2.590807e-004
-8.060823e-005,2.509774e-004
-7.169464e-005,2.407673e-004
-6.537409e-005,2.255332e-004
-7.493595e-005,2.086784e-004
-1.109144e-004,1.939304e-004
-1.690959e-004,1.835583e-004
-2.279256e-004,1.752929e-004
-2.566112e-004,1.631380e-004
-2.415391e-004,1.445005e-004
-1.916230e-004,1.203528e-004
-1.261486e-004,9.571884e-005
-6.391550e-005,7.367795e-005
-2.161646e-005,5.666109e-005
-1.043395e-005,3.996837e-005
-2.890940e-005,1.889987e-005
-6.829127e-005,-3.951337e-006
-1.191798e-004,-2.420950e-005
-1.713648e-004,-3.879538e-005
-2.097743e-004,-4.868137e-005
-2.219292e-004,-5.597430e-005
-2.052365e-004,-6.229485e-005
-1.723372e-004,-6.958779e-005
-1.558065e-004,-8.271508e-005
-1.806025e-004,-9.956988e-005
-2.677937e-004,-1.208004e-004
-4.220798e-004,-1.426792e-004
-6.217443e-004,-1.590478e-004
-8.217328e-004,-1.666649e-004
-9.705087e-004,-1.697442e-004
-1.032256e-003,-1.703924e-004
-1.002111e-003,-1.708786e-004
-9.021172e-004,-1.702304e-004
-7.572309e-004,-1.669890e-004
-5.794452e-004,-1.588858e-004
-3.544986e-004,-1.501342e-004
-5.710876e-005,-1.454344e-004
3.049452e-004,-1.480274e-004
6.759129e-004,-1.535376e-004
9.792994e-004,-1.540238e-004
1.156923e-003,-1.439758e-004
1.197602e-003,-1.214487e-004
1.123376e-003,-8.660465e-005
9.690893e-004,-5.224680e-005
7.668316e-004,-2.631635e-005
5.321609e-004,-1.140634e-005
2.718839e-004,-2.654814e-006
1.883015e-006,9.175954e-006
-2.566112e-004,2.748934e-005
-4.844750e-004,5.163707e-005
-6.784671e-004,8.032264e-005
-8.596561e-004,1.150046e-004
-1.052028e-003,1.493625e-004
-1.263685e-003,1.754550e-004
-1.481663e-003,1.871237e-004
-1.668362e-003,1.866375e-004
-1.769005e-003,1.809652e-004
-1.737078e-003,1.739964e-004
-1.557996e-003,1.689724e-004
-1.263685e-003,1.660552e-004
-9.136238e-004,1.683241e-004
-5.778245e-004,1.791825e-004
-3.107410e-004,2.017096e-004
-1.358725e-004,2.321778e-004
-4.252288e-005,2.624841e-004
-1.196227e-006,2.833905e-004
1.906194e-005,2.916559e-004
3.251336e-005,2.869559e-004
4.353380e-005,2.733424e-004
5.568870e-005,2.563256e-004
7.740546e-005,2.383363e-004
1.205148e-004,2.218057e-004
1.855030e-004,2.080301e-004
2.746390e-004,1.963614e-004
3.926226e-004,1.897167e-004
5.302161e-004,1.895547e-004
6.660269e-004,1.949028e-004
7.794728e-004,1.996027e-004
8.558056e-004,1.994406e-004
8.810877e-004,1.927960e-004
8.496471e-004,1.832341e-004
7.718556e-004,1.699448e-004
6.647304e-004,1.550348e-004
5.470709e-004,1.402868e-004
4.300596e-004,1.310491e-004
3.174242e-004,1.265113e-004
2.143507e-004,1.237561e-004
1.425557e-004,1.151667e-004
1.409351e-004,1.004187e-004
2.290986e-004,7.999851e-005
3.736609e-004,5.763349e-005
5.110924e-004,3.235129e-005
5.874252e-004,2.207145e-006
5.963388e-004,-2.971972e-005
5.537156e-004,-5.613637e-005
4.679830e-004,-7.282909e-005
3.258516e-004,-7.736692e-005
1.336421e-004,-7.396356e-005
-6.472583e-005,-7.072225e-005
-2.092881e-004,-7.396356e-005
-2.690902e-004,-8.158062e-005
-2.674695e-004,-9.162867e-005
-2.687660e-004,-1.052422e-004
-3.509331e-004,-1.237176e-004
-5.632387e-004,-1.462447e-004
-9.040619e-004,-1.679614e-004
-1.317004e-003,-1.827094e-004
-1.718440e-003,-1.888679e-004
-2.021827e-003,-1.862748e-004
-2.156989e-003,-1.814128e-004
-2.098970e-003,-1.775233e-004
-1.863813e-003,-1.746061e-004
-1.492683e-003,-1.705545e-004
-1.034038e-003,-1.658546e-004
-5.342290e-004,-1.605064e-004
-5.095028e-005,-1.546721e-004
3.581026e-004,-1.473791e-004
6.556547e-004,-1.420310e-004
8.340888e-004,-1.404103e-004
9.128526e-004,-1.418689e-004
9.288971e-004,-1.462447e-004
9.258178e-004,-1.494860e-004
9.267902e-004,-1.496481e-004
9.318143e-004,-1.441378e-004
9.293833e-004,-1.324691e-004
9.084769e-004,-1.154523e-004
8.639088e-004,-9.924574e-005
7.968137e-004,-8.952183e-005
7.186982e-004,-8.514606e-005
6.426895e-004,-7.720486e-005
5.835356e-004,-5.597430e-005
5.443158e-004,-2.291298e-005
5.225990e-004,1.387585e-005
5.102821e-004,4.564065e-005
5.002340e-004,6.897806e-005
4.862963e-004,8.097089e-005
4.725208e-004,8.486046e-005
4.626348e-004,8.583286e-005
4.624728e-004,8.437427e-005
4.728449e-004,8.372601e-005
4.875929e-004,8.793970e-005
4.953720e-004,1.020394e-004
4.885653e-004,1.274836e-004
4.652279e-004,1.594105e-004
4.311941e-004,1.929580e-004
3.924605e-004,2.235884e-004
3.534027e-004,2.472499e-004
3.200173e-004,2.621599e-004
2.927903e-004,2.717218e-004
2.728562e-004,2.778803e-004
2.624841e-004,2.842008e-004
2.602152e-004,2.840388e-004
2.647530e-004,2.739907e-004
2.697770e-004,2.560015e-004
2.681563e-004,2.336365e-004
2.555152e-004,2.119197e-004
2.333123e-004,1.942546e-004
2.125679e-004,1.824238e-004
2.049509e-004,1.759412e-004
2.111094e-004,1.738343e-004
2.245608e-004,1.748067e-004
2.341226e-004,1.778860e-004
2.367157e-004,1.822617e-004
2.342847e-004,1.879340e-004
2.222919e-004,1.931201e-004
1.902029e-004,1.939304e-004
1.325077e-004,1.856651e-004
5.649903e-005,1.671896e-004
-2.129233e-005,1.399627e-004
-8.109443e-005,1.101427e-004
-1.128592e-004,8.469840e-005
-1.156143e-004,6.703327e-005
-1.008664e-004,5.423012e-005
-8.417367e-005,4.029250e-005
-7.331530e-005,2.489629e-005
-6.002594e-005,5.610517e-006
-3.409549e-005,-1.675450e-005
-1.358292e-006,-3.749886e-005
1.630683e-005,-5.516398e-005
-2.816880e-006,-6.845333e-005
-5.808115e-005,-7.801519e-005
-1.253383e-004,-8.903562e-005
-1.742820e-004,-1.081593e-004
-1.921092e-004,-1.355484e-004
-1.838438e-004,-1.647201e-004
-1.598582e-004,-1.901644e-004
-1.334415e-004,-2.102605e-004
-1.157764e-004,-2.258187e-004
-1.135075e-004,-2.386219e-004
-1.224211e-004,-2.481838e-004
-1.386276e-004,-2.527216e-004
-1.611547e-004,-2.546664e-004
-1.883817e-004,-2.575835e-004
-2.128535e-004,-2.590421e-004
-2.233878e-004,-2.559629e-004
-2.099363e-004,-2.483458e-004
-1.692580e-004,-2.361909e-004
-1.081593e-004,-2.206326e-004
-4.268495e-005,-2.047502e-004
1.193106e-005,-1.891920e-004
4.693717e-005,-1.752544e-004
6.395404e-005,-1.653684e-004
7.675720e-005,-1.569410e-004
9.669123e-005,-1.451102e-004
1.263492e-004,-1.280934e-004
1.650828e-004,-1.105903e-004
2.005751e-004,-9.341139e-005
2.115956e-004,-7.558420e-005
1.806411e-004,-5.646050e-005
1.119254e-004,-3.458168e-005
1.517237e-005,-8.975362e-006
-8.854943e-005,1.792748e-005
-1.723372e-004,4.369587e-005
-2.212809e-004,6.395404e-005
-2.353806e-004,7.756752e-005
-2.284118e-004,8.583286e-005
-2.182017e-004,8.988449e-005
-2.170672e-004,9.523264e-005
-2.261429e-004,1.078737e-004
-2.395943e-004,1.244044e-004
-2.572594e-004,1.394765e-004
-2.765452e-004,1.532520e-004
-2.942103e-004,1.718896e-004
-3.053928e-004,1.973338e-004
-3.050687e-004,2.243987e-004
-2.912931e-004,2.470879e-004
-2.689281e-004,2.647530e-004
-2.465631e-004,2.773941e-004
-2.271153e-004,2.866318e-004
-2.070192e-004,2.932765e-004
-1.848162e-004,2.955454e-004
-1.616409e-004,2.914938e-004
-1.402483e-004,2.827423e-004
-1.250141e-004,2.720459e-004
-1.148040e-004,2.621599e-004
-1.045939e-004,2.556773e-004
-9.341139e-005,2.550291e-004
-8.465986e-005,2.548670e-004
-8.012204e-005,2.483844e-004
-8.530812e-005,2.365536e-004
-1.045939e-004,2.229401e-004
-1.324691e-004,2.114335e-004
-1.558065e-004,2.021958e-004
-1.626133e-004,1.937684e-004
-1.472171e-004,1.869616e-004
-1.157764e-004,1.842065e-004
-7.428769e-005,1.853410e-004
-2.761287e-005,1.825859e-004
2.035846e-005,1.717275e-004
6.022653e-005,1.529279e-004
6.881599e-005,1.291043e-004
3.218923e-005,1.043083e-004
-4.414354e-005,8.307774e-005
-1.399241e-004,7.076078e-005
-2.259808e-004,6.427817e-005
-2.763831e-004,5.811968e-005
-2.736280e-004,4.661304e-005
-2.135018e-004,2.457216e-005
-1.126972e-004,-4.923729e-006
1.396819e-006,-3.782299e-005
1.153287e-004,-6.715681e-005
2.590807e-004,-8.903562e-005
4.817585e-004,-1.024871e-004
7.960034e-004,-1.128592e-004
1.155789e-003,-1.237176e-004
1.471169e-003,-1.349001e-004
1.656734e-003,-1.452723e-004
1.678450e-003,-1.517549e-004
1.565329e-003,-1.545100e-004
1.376846e-003,-1.527273e-004
1.160975e-003,-1.486757e-004
9.342453e-004,-1.436516e-004
6.908230e-004,-1.397621e-004
4.282770e-004,-1.387897e-004
1.555210e-004,-1.387897e-004
-1.109144e-004,-1.421931e-004
-3.609812e-004,-1.496481e-004
-6.066722e-004,-1.582375e-004
-8.727834e-004,-1.663408e-004
-1.169849e-003,-1.723372e-004
-1.488794e-003,-1.794681e-004
-1.803687e-003,-1.864369e-004
-2.067205e-003,-1.924333e-004
-2.230405e-003,-1.943781e-004
-2.254715e-003,-1.901644e-004
-2.133814e-003,-1.809267e-004
-1.898657e-003,-1.700683e-004
-1.600943e-003,-1.588858e-004
-1.291722e-003,-1.472171e-004
-1.000977e-003,-1.366828e-004
-7.295177e-004,-1.276072e-004
-4.476861e-004,-1.204763e-004
-1.227452e-004,-1.130213e-004
2.514636e-004,-1.039456e-004
6.363689e-004,-9.519411e-005
9.734652e-004,-8.206682e-005
1.221101e-003,-6.018800e-005
1.362747e-003,-3.263690e-005
1.404560e-003,-7.840905e-006
1.374091e-003,7.393236e-006
1.304727e-003,1.727922e-005
1.224829e-003,2.878586e-005
1.156437e-003,4.985435e-005
1.101497e-003,8.080883e-005
1.040884e-003,1.148425e-004
9.454277e-004,1.446626e-004
7.904932e-004,1.642725e-004
5.579292e-004,1.712413e-004
2.393087e-004,1.704310e-004
-1.618029e-004,1.704310e-004
-6.133168e-004,1.780480e-004
-1.042790e-003,1.936063e-004
-1.362707e-003,2.138645e-004
-1.515697e-003,2.333123e-004
-1.495925e-003,2.501671e-004
-1.333049e-003,2.621599e-004
-1.071475e-003,2.684805e-004
-7.492896e-004,2.728562e-004
-3.985804e-004,2.788527e-004
-4.592625e-005,2.876042e-004
2.918179e-004,2.961937e-004
6.378276e-004,3.012177e-004
1.031323e-003,2.992729e-004
1.459986e-003,2.908455e-004
1.855751e-003,2.775562e-004
2.144066e-003,2.652392e-004
2.281174e-003,2.555152e-004
2.269667e-003,2.501671e-004
2.131101e-003,2.454672e-004
1.896429e-003,2.336365e-004
1.598714e-003,2.120818e-004
1.268262e-003,1.819376e-004
9.214421e-004,1.490383e-004
5.506363e-004,1.218114e-004
1.388282e-004,1.018773e-004
-3.353749e-004,8.469840e-005
-8.700282e-004,6.800567e-005
-1.415054e-003,5.244739e-005
-1.859599e-003,4.304761e-005
-2.063639e-003,3.737532e-005
-1.937391e-003,2.846173e-005
-1.509052e-003,9.175954e-006
-9.154066e-004,-1.821308e-005
-3.342404e-004,-4.835724e-005
9.004655e-005,-7.995997e-005
2.867939e-004,-1.075111e-004
2.751252e-004,-1.305243e-004
1.263492e-004,-1.491618e-004
-6.829127e-005,-1.637477e-004
-2.316531e-004,-1.734716e-004
-3.253268e-004,-1.812508e-004
-3.532020e-004,-1.875713e-004
-3.418575e-004,-1.922712e-004
-3.168994e-004,-1.922712e-004
-2.859450e-004,-1.911368e-004
-2.274394e-004,-1.930815e-004
-1.148040e-004,-2.015090e-004
6.168512e-005,-2.138259e-004
2.816078e-004,-2.251705e-004
5.025029e-004,-2.321393e-004
6.853127e-004,-2.311669e-004
8.113996e-004,-2.180396e-004
8.770361e-004,-1.969711e-004
8.874084e-004,-1.773612e-004
8.528884e-004,-1.616409e-004
7.801210e-004,-1.493239e-004
6.702406e-004,-1.366828e-004
5.240576e-004,-1.214487e-004
3.571303e-004,-1.029732e-004
1.889064e-004,-8.125649e-005
1.938607e-005,-5.273300e-005
-1.601823e-004,-2.420950e-005
-3.512573e-004,-1.844488e-006
-5.454115e-004,1.241726e-005
-7.256281e-004,2.457216e-005
-8.680834e-004,3.996837e-005
-9.414990e-004,5.844381e-005
-9.298304e-004,7.918817e-005
-8.434496e-004,1.031738e-004
-7.047217e-004,1.253768e-004
-5.300153e-004,1.412592e-004
-3.211132e-004,1.511452e-004
-8.595638e-005,1.618415e-004
1.532520e-004,1.782101e-004
3.597233e-004,2.015475e-004
5.052580e-004,2.289366e-004
5.762426e-004,2.551911e-004
5.695980e-004,2.760976e-004
5.015305e-004,2.890628e-004
3.981328e-004,2.934386e-004
2.953834e-004,2.914938e-004
2.211574e-004,2.840388e-004
1.877720e-004,2.718839e-004
1.811273e-004,2.571359e-004
1.762653e-004,2.438466e-004
1.553589e-004,2.346088e-004
1.127357e-004,2.305572e-004
4.645098e-005,2.263435e-004
-4.414354e-005,2.221298e-004
-1.536997e-004,2.167816e-004
-2.767073e-004,2.088404e-004
-4.016596e-004,1.991165e-004
-5.057055e-004,1.876099e-004
-5.575664e-004,1.775618e-004
-5.343911e-004,1.692965e-004
-4.324520e-004,1.581140e-004
-2.694143e-004,1.456350e-004
-7.526008e-005,1.321835e-004
1.198666e-004,1.141943e-004
2.979764e-004,9.182927e-005
4.564763e-004,6.962632e-005
5.942319e-004,4.774750e-005
7.021675e-004,2.975825e-005
7.694247e-004,1.808955e-005
7.906552e-004,9.662150e-006
7.716935e-004,-1.358292e-006
7.280980e-004,-1.432352e-005
6.768853e-004,-2.923353e-005
6.259967e-004,-4.365734e-005
5.733255e-004,-5.824322e-005
5.123889e-004,-7.623246e-005
4.357320e-004,-9.503204e-005
3.397893e-004,-1.110765e-004
2.232643e-004,-1.256624e-004
9.490851e-005,-1.428413e-004
-1.983374e-005,-1.635857e-004
-8.741498e-005,-1.818991e-004
-8.725291e-005,-1.925954e-004
-3.198864e-005,-1.968091e-004
4.304761e-005,-1.981056e-004
1.036600e-004,-1.985918e-004
1.271595e-004,-1.964849e-004
1.069013e-004,-1.906506e-004
5.050261e-005,-1.825473e-004
-2.194059e-005,-1.767130e-004
-8.903562e-005,-1.773612e-004
-1.392759e-004,-1.848162e-004
-1.712027e-004,-1.943781e-004
-1.945401e-004,-2.003745e-004
-2.237119e-004,-1.979435e-004
-2.695764e-004,-1.856265e-004
-3.284061e-004,-1.690959e-004
-3.796187e-004,-1.541859e-004
-3.856151e-004,-1.444620e-004
-3.121996e-004,-1.381414e-004
-1.716889e-004,-1.321450e-004
-2.015787e-005,-1.217728e-004
6.930219e-005,-1.037836e-004
4.596478e-005,-7.850138e-005
-8.547019e-005,-5.289507e-005
-2.692523e-004,-3.182657e-005
-4.321279e-004,-1.351319e-005
-5.238568e-004,3.341602e-006
-5.326084e-004,1.808955e-005
-4.826922e-004,3.348575e-005
-4.194868e-004,5.115087e-005
-3.898288e-004,7.011252e-005
-4.238625e-004,8.858796e-005
-5.366600e-004,1.043083e-004
-7.313004e-004,1.174356e-004
-9.933600e-004,1.318594e-004
-1.282971e-003,1.493625e-004
-1.546489e-003,1.704310e-004
-1.722816e-003,1.918236e-004
-1.756526e-003,2.119197e-004
-1.626711e-003,2.248849e-004
-1.358979e-003,2.281262e-004
-1.000491e-003,2.229401e-004
-6.125065e-004,2.125679e-004
-2.540181e-004,2.031682e-004
3.218923e-005,1.978200e-004
2.299089e-004,1.957132e-004
3.517821e-004,1.932822e-004
4.305459e-004,1.919856e-004
4.992616e-004,1.927960e-004
5.892079e-004,1.971717e-004
7.266394e-004,2.043026e-004
9.125285e-004,2.119197e-004
1.118514e-003,2.177540e-004
1.309103e-003,2.196988e-004
1.462903e-003,2.182402e-004
1.567111e-003,2.149989e-004
1.604873e-003,2.091646e-004
1.557874e-003,2.017096e-004
1.416715e-003,1.989545e-004
1.188526e-003,2.008992e-004
8.971323e-004,2.039785e-004
5.811046e-004,1.991165e-004
2.890628e-004,1.791825e-004
4.726130e-005,1.451488e-004
-1.433275e-004,1.091703e-004
-3.096065e-004,8.097089e-005
-4.890127e-004,6.200925e-005
-7.108802e-004,4.774750e-005
-9.740742e-004,3.364782e-005
-1.234027e-003,1.565857e-005
-1.407437e-003,-9.947754e-006
-1.425588e-003,-4.057810e-005
-1.270816e-003,-6.488790e-005
-9.839601e-004,-7.817725e-005
-6.361681e-004,-8.741498e-005
-2.989102e-004,-1.008664e-004
-2.080613e-005,-1.240417e-004
1.767515e-004,-1.543479e-004
2.968419e-004,-1.828714e-004
3.558337e-004,-1.992400e-004
3.756057e-004,-1.997262e-004
3.760919e-004,-1.898403e-004
3.743092e-004,-1.797922e-004
3.835469e-004,-1.759026e-004
4.063981e-004,-1.807646e-004
4.386491e-004,-1.877334e-004
4.739794e-004,-1.924333e-004
5.104441e-004,-1.906506e-004
5.538776e-004,-1.843300e-004
6.020110e-004,-1.778474e-004
6.456067e-004,-1.720131e-004
6.755888e-004,-1.661787e-004
6.866092e-004,-1.598582e-004
6.810990e-004,-1.541859e-004
6.645683e-004,-1.467309e-004
6.452826e-004,-1.344139e-004
6.279415e-004,-1.141558e-004
6.047662e-004,-9.017008e-005
5.658705e-004,-7.088431e-005
5.119027e-004,-6.051213e-005
4.464283e-004,-5.419158e-005
3.734989e-004,-4.625038e-005
2.983005e-004,-3.263690e-005
2.250470e-004,-1.480971e-005
1.650828e-004,6.096713e-006
1.265113e-004,3.073064e-005
1.044704e-004,5.390598e-005
9.182927e-005,7.448828e-005
8.405014e-005,9.296373e-005
7.999851e-005,1.069013e-004
7.886404e-005,1.132219e-004
7.870197e-005,1.140322e-004
7.400208e-005,1.101427e-004
5.795762e-005,1.065772e-004
3.786152e-005,1.077117e-004
3.688912e-005,1.169494e-004
7.384002e-005,1.334801e-004
1.467694e-004,1.529279e-004
2.261814e-004,1.735102e-004
2.744769e-004,1.937684e-004
2.665357e-004,2.117576e-004
2.021958e-004,2.250470e-004
9.328786e-005,2.321778e-004
-4.041603e-005,2.357433e-004
-1.767130e-004,2.409294e-004
-3.002067e-004,2.467637e-004
-4.040906e-004,2.500050e-004
-4.875542e-004,2.477361e-004
-5.517320e-004,2.394708e-004
-6.016482e-004,2.295848e-004
-6.400577e-004,2.234263e-004
-6.614503e-004,2.221298e-004
-6.483230e-004,2.266676e-004
-5.869002e-004,2.362295e-004
-4.702132e-004,2.488706e-004
-2.959930e-004,2.608634e-004
-6.748094e-005,2.691288e-004
2.034923e-004,2.696149e-004
4.950479e-004,2.592428e-004
7.725039e-004,2.410915e-004
9.948577e-004,2.179161e-004
1.133910e-003,1.916615e-004
1.181395e-003,1.597346e-004
1.143148e-003,1.250527e-004
1.029216e-003,8.923623e-005
8.545090e-004,5.601284e-005
6.324793e-004,2.910999e-005
3.692851e-004,7.717366e-006
6.930219e-005,-9.461558e-006
-2.579077e-004,-2.356124e-005
-5.969483e-004,-4.138842e-005
-9.257787e-004,-6.845333e-005
-1.230462e-003,-1.005423e-004
-1.499652e-003,-1.327933e-004
-1.722330e-003,-1.630995e-004
-1.881964e-003,-1.898403e-004
-1.943711e-003,-2.120432e-004
-1.873861e-003,-2.321393e-004
-1.653938e-003,-2.528836e-004
-1.300798e-003,-2.702246e-004
-8.763488e-004,-2.801106e-004
-4.598410e-004,-2.817312e-004
-1.183694e-004,-2.783279e-004
1.161391e-004,-2.726556e-004
2.501671e-004,-2.635799e-004
3.107795e-004,-2.512630e-004
3.234207e-004,-2.382978e-004
3.114278e-004,-2.245222e-004
2.900352e-004,-2.058847e-004
2.671840e-004,-1.840059e-004
2.482223e-004,-1.567789e-004
2.375260e-004,-1.235555e-004
2.329882e-004,-9.130454e-005
2.222919e-004,-6.893953e-005
1.974959e-004,-5.986387e-005
1.522796e-004,-6.035007e-005
8.405014e-005,-6.537409e-005
7.555301e-006,-7.655660e-005
-5.937768e-005,-9.146661e-005
-9.713889e-005,-1.049180e-004
-8.757704e-005,-1.133454e-004
-2.696461e-005,-1.122110e-004
7.011252e-005,-9.924574e-005
1.775618e-004,-7.542214e-005
2.710735e-004,-4.333321e-005
3.341170e-004,-6.544382e-006
3.603715e-004,3.218923e-005
3.574544e-004,6.962632e-005
3.384927e-004,1.000946e-004
3.162898e-004,1.235941e-004
3.015418e-004,1.412592e-004
3.047831e-004,1.517934e-004
3.266619e-004,1.543865e-004
3.537269e-004,1.526038e-004
3.728506e-004,1.516314e-004
3.770643e-004,1.568175e-004
3.650715e-004,1.694586e-004
3.393030e-004,1.903650e-004
3.083486e-004,2.174299e-004
2.765838e-004,2.467637e-004
2.495189e-004,2.738286e-004
2.325020e-004,2.918179e-004
2.328261e-004,2.989488e-004
2.504913e-004,2.960316e-004
2.764217e-004,2.871180e-004
2.955454e-004,2.764217e-004
2.926282e-004,2.660495e-004
2.613496e-004,2.600531e-004
2.080301e-004,2.579462e-004
1.480659e-004,2.572980e-004
9.458438e-005,2.532463e-004
5.341979e-005,2.451431e-004
2.554455e-005,2.372019e-004
5.124321e-006,2.342847e-004
-8.975362e-006,2.339606e-004
-2.080613e-005,2.329882e-004
-3.036798e-005,2.282883e-004
-3.847125e-005,2.193747e-004
-4.284701e-005,2.039785e-004
-3.328516e-005,1.845306e-004
3.989864e-006,1.608691e-004
7.481241e-005,1.346145e-004
1.715654e-004,1.117633e-004
2.741528e-004,9.263960e-005
3.503235e-004,7.351589e-005
3.780367e-004,4.839576e-005
3.639370e-004,1.727922e-005
3.350894e-004,-1.156841e-005
3.203414e-004,-3.004385e-005
3.347652e-004,-3.539201e-005
3.734989e-004,-3.441962e-005
4.183910e-004,-3.555408e-005
4.566384e-004,-4.268495e-005
4.837033e-004,-5.419158e-005
4.909963e-004,-6.618442e-005
4.670106e-004,-8.141856e-005
4.096394e-004,-9.843541e-005
3.247172e-004,-1.170729e-004
2.036544e-004,-1.323071e-004
3.397195e-005,-1.407345e-004
-1.827094e-004,-1.444620e-004
-4.258073e-004,-1.472171e-004
-6.697156e-004,-1.527273e-004
-9.008207e-004,-1.609926e-004
-1.105347e-003,-1.705545e-004
-1.269357e-003,-1.783336e-004
-1.382155e-003,-1.825473e-004
-1.437419e-003,-1.797922e-004
-1.426074e-003,-1.724993e-004
-1.344231e-003,-1.677994e-004
-1.190431e-003,-1.640719e-004
-9.739121e-004,-1.592099e-004
-7.201179e-004,-1.535376e-004
-4.656754e-004,-1.499722e-004
-2.468872e-004,-1.499722e-004
-8.271508e-005,-1.525652e-004
1.987227e-005,-1.577513e-004
6.995045e-005,-1.626133e-004
8.631905e-005,-1.684476e-004
9.442231e-005,-1.728234e-004
1.150046e-004,-1.713648e-004
1.530900e-004,-1.588858e-004
2.017096e-004,-1.349001e-004
2.485465e-004,-1.002181e-004
2.863077e-004,-6.537409e-005
3.172622e-004,-3.506788e-005
3.521062e-004,-1.124428e-005
4.102877e-004,4.476060e-006
5.070407e-004,1.338965e-005
6.378276e-004,1.646890e-005
7.799590e-004,1.744129e-005
9.018321e-004,1.808955e-005
9.765443e-004,1.873781e-005
9.959922e-004,2.100672e-005
9.658480e-004,2.732727e-005
9.013460e-004,3.899597e-005
8.178822e-004,5.536457e-005
7.248566e-004,8.048470e-005
6.290760e-004,1.159770e-004
5.289196e-004,1.501728e-004
4.154738e-004,1.761032e-004
2.733424e-004,1.926339e-004
9.231547e-005,2.036544e-004
-1.302002e-004,2.143507e-004
-3.818876e-004,2.269918e-004
-6.410300e-004,2.391467e-004
-8.909347e-004,2.482223e-004
-1.102268e-003,2.535705e-004
-1.231272e-003,2.538946e-004
-1.242616e-003,2.482223e-004
-1.132088e-003,2.402811e-004
-9.275614e-004,2.329882e-004
-6.813843e-004,2.307193e-004
-4.509274e-004,2.341226e-004
-2.695764e-004,2.388225e-004
-1.455964e-004,2.402811e-004
-7.039812e-005,2.365536e-004
-2.761287e-005,2.273159e-004
1.072688e-006,2.148369e-004
2.748934e-005,2.000889e-004
5.795762e-005,1.837203e-004
9.701536e-005,1.681620e-004
1.485521e-004,1.564933e-004
2.141886e-004,1.459591e-004
2.905214e-004,1.336421e-004
3.704196e-004,1.156529e-004
4.422146e-004,9.377406e-005
4.974789e-004,7.157111e-005
5.334574e-004,5.309566e-005
5.452881e-004,3.915804e-005
5.277851e-004,3.040651e-005
4.854860e-004,2.327564e-005
4.258460e-004,1.501031e-005
3.543751e-004,6.744974e-006
2.830664e-004,-6.382317e-006
2.608634e-004,-2.388537e-005
3.414099e-004,-4.284701e-005
5.315126e-004,-6.083626e-005
7.820658e-004,-7.914964e-005
1.015926e-003,-1.007043e-004
1.171509e-003,-1.261486e-004
1.219805e-003,-1.485136e-004
1.154654e-003,-1.634236e-004
9.919406e-004,-1.736337e-004
7.569456e-004,-1.849783e-004
4.760863e-004,-1.995642e-004
1.657311e-004,-2.102605e-004
-1.627754e-004,-2.113949e-004
-4.799371e-004,-2.044261e-004
-7.413484e-004,-1.947022e-004
-9.053585e-004,-1.810887e-004
-9.590021e-004,-1.661787e-004
-9.196203e-004,-1.564548e-004
-8.381014e-004,-1.538618e-004
-7.750580e-004,-1.553203e-004
-7.466965e-004,-1.533756e-004
-6.971046e-004,-1.439758e-004
-5.497872e-004,-1.285796e-004
-2.400805e-004,-1.125351e-004
2.676702e-004,-9.924574e-005
9.172284e-004,-8.871149e-005
1.570677e-003,-8.012204e-005
2.061412e-003,-7.282909e-005
2.270315e-003,-6.650855e-005
2.155897e-003,-5.743289e-005
1.747329e-003,-4.122636e-005
1.107979e-003,-1.448558e-005
3.229345e-004,1.825161e-005
-5.223983e-004,5.439218e-005
-1.350066e-003,8.988449e-005
-2.091677e-003,1.150046e-004
-2.668630e-003,1.250527e-004
-3.027119e-003,1.213252e-004
-3.176544e-003,1.117633e-004
-3.176868e-003,1.091703e-004
-3.082384e-003,1.234320e-004
-2.884664e-003,1.535762e-004
-2.518720e-003,1.927960e-004
-1.945494e-003,2.336365e-004
-1.206800e-003,2.689667e-004
-4.243487e-004,2.906835e-004
2.598910e-004,2.986247e-004
7.457631e-004,2.945730e-004
1.011550e-003,2.827423e-004
1.099228e-003,2.704253e-004
1.081887e-003,2.652392e-004
1.026947e-003,2.655633e-004
9.630929e-004,2.705873e-004
8.893532e-004,2.744769e-004
7.982723e-004,2.746390e-004
6.754267e-004,2.701012e-004
5.172509e-004,2.600531e-004
3.350894e-004,2.448189e-004
1.485521e-004,2.271538e-004
-1.124428e-005,2.109473e-004
-1.068628e-004,1.973338e-004
-1.131834e-004,1.842065e-004
-3.215070e-005,1.641104e-004
1.039842e-004,1.367214e-004
2.500050e-004,1.065772e-004
3.671783e-004,8.016057e-005
4.378388e-004,6.119892e-005
4.550177e-004,4.855783e-005
4.216323e-004,3.980630e-005
3.508097e-004,2.959619e-005
2.634565e-004,1.419998e-005
1.877720e-004,-5.247859e-006
1.498487e-004,-2.485776e-005
1.688103e-004,-4.187462e-005
2.414156e-004,-5.727083e-005
3.438409e-004,-6.796714e-005
4.414042e-004,-7.282909e-005
5.141716e-004,-7.526008e-005
5.572810e-004,-8.158062e-005
5.765668e-004,-9.422172e-005
5.799701e-004,-1.162626e-004
5.671670e-004,-1.428413e-004
5.396159e-004,-1.707166e-004
5.008822e-004,-1.906506e-004
4.593935e-004,-2.003745e-004
4.235771e-004,-2.015090e-004
4.080188e-004,-1.974573e-004
4.229288e-004,-1.927574e-004
4.663623e-004,-1.924333e-004
5.238955e-004,-1.971332e-004
5.794840e-004,-2.024813e-004
6.200004e-004,-2.073433e-004
6.355586e-004,-2.104225e-004
6.185417e-004,-2.092881e-004
5.665187e-004,-2.041020e-004
4.945617e-004,-1.979435e-004
4.352458e-004,-1.953505e-004
4.128807e-004,-1.968091e-004
4.229288e-004,-1.985918e-004
4.446456e-004,-1.925954e-004
4.696036e-004,-1.778474e-004
5.284334e-004,-1.559686e-004
6.530617e-004,-1.297140e-004
8.324682e-004,-1.052422e-004
1.015602e-003,-8.952183e-005
1.138610e-003,-8.222889e-005
1.153682e-003,-7.380149e-005
1.041857e-003,-5.613637e-005
8.073480e-004,-3.053005e-005
4.618245e-004,-3.303076e-006
2.214118e-005,2.181705e-005
-4.914437e-004,4.353380e-005
-1.047166e-003,6.087479e-005
-1.595595e-003,7.708133e-005
-2.077577e-003,9.539470e-005
-2.439632e-003,1.143563e-004
-2.640107e-003,1.338042e-004
-2.663282e-003,1.522796e-004
-2.536061e-003,1.675138e-004
-2.315975e-003,1.811273e-004
-2.060885e-003,1.945787e-004
-1.799311e-003,2.096508e-004
-1.510835e-003,2.284504e-004
-1.161908e-003,2.517878e-004
-7.462104e-004,2.786906e-004
-2.972895e-004,3.018659e-004
1.240803e-004,3.172622e-004
4.621486e-004,3.214759e-004
6.856368e-004,3.153174e-004
7.953551e-004,2.991108e-004
8.170719e-004,2.820940e-004
7.830382e-004,2.701012e-004
7.274497e-004,2.657254e-004
6.616511e-004,2.615117e-004
5.882355e-004,2.513016e-004
5.170888e-004,2.362295e-004
4.569625e-004,2.216436e-004
4.114222e-004,2.111094e-004
3.752816e-004,2.051129e-004
3.440029e-004,2.002510e-004
3.132105e-004,1.960373e-004
2.812837e-004,1.914995e-004
2.475741e-004,1.825859e-004
2.138645e-004,1.722137e-004
1.853410e-004,1.598967e-004
1.692965e-004,1.451488e-004
1.662173e-004,1.274836e-004
1.683241e-004,1.083599e-004
1.699448e-004,8.842590e-005
1.678379e-004,7.027458e-005
1.660552e-004,5.260946e-005
1.636242e-004,3.380988e-005
1.561692e-004,1.419998e-005
1.396385e-004,-5.734056e-006
1.151667e-004,-2.501983e-005
8.259155e-005,-4.527799e-005
3.769945e-005,-6.423963e-005
-2.096820e-005,-7.995997e-005
-8.871149e-005,-8.757704e-005
-1.541859e-004,-8.790117e-005
-2.000504e-004,-9.130454e-005
-2.123673e-004,-1.068628e-004
-1.841680e-004,-1.363587e-004
-1.220970e-004,-1.724993e-004
-4.462973e-005,-2.028055e-004
3.316162e-005,-2.165810e-004
9.814982e-005,-2.138259e-004
1.412592e-004,-2.002124e-004
1.668655e-004,-1.841680e-004
1.949028e-004,-1.718510e-004
2.514636e-004,-1.669890e-004
3.532407e-004,-1.712027e-004
4.911583e-004,-1.810887e-004
6.392861e-004,-1.904885e-004
7.635903e-004,-1.938919e-004
8.395990e-004,-1.900023e-004
8.606675e-004,-1.833576e-004
8.301992e-004,-1.742820e-004
7.554871e-004,-1.637477e-004
6.415551e-004,-1.546721e-004
4.922928e-004,-1.506204e-004
3.098072e-004,-1.507825e-004
1.046324e-004,-1.491618e-004
-9.535618e-005,-1.413827e-004
-2.668213e-004,-1.253383e-004
-3.995528e-004,-1.023250e-004
-5.026262e-004,-7.736692e-005
-5.984068e-004,-5.581224e-005
-7.031010e-004,-3.766092e-005
-8.189777e-004,-2.080613e-005
-9.277235e-004,-3.465141e-006
-9.940083e-004,1.565857e-005
-9.771534e-004,3.769945e-005
-8.510666e-004,6.038860e-005
-6.139652e-004,7.870197e-005
-2.943724e-004,9.134307e-005
6.525056e-005,9.782569e-005
4.295735e-004,1.004187e-004
7.694247e-004,1.009049e-004
1.061143e-003,1.026876e-004
1.323041e-003,1.081979e-004
1.612166e-003,1.169494e-004
1.955583e-003,1.286181e-004
2.293329e-003,1.451488e-004
2.509039e-003,1.633001e-004
2.500449e-003,1.801549e-004
2.234013e-003,1.939304e-004
1.737443e-003,2.070577e-004
1.069570e-003,2.247229e-004
3.117519e-004,2.461155e-004
-4.531963e-004,2.654013e-004
-1.172118e-003,2.769079e-004
-1.835938e-003,2.780424e-004
-2.452435e-003,2.705873e-004
-3.026796e-003,2.589186e-004
-3.581709e-003,2.542187e-004
-4.133707e-003,2.605393e-004
-4.626065e-003,2.720459e-004
-4.902875e-003,2.827423e-004
-4.792183e-003,2.901973e-004
-4.212795e-003,2.955454e-004
-3.237481e-003,2.968419e-004
-2.060074e-003,2.937627e-004
-9.050344e-004,2.867939e-004
3.915804e-005,2.725321e-004
6.663511e-004,2.474120e-004
9.885372e-004,2.141886e-004
1.090314e-003,1.812893e-004
1.077997e-003,1.474177e-004
1.030350e-003,1.091703e-004
9.925888e-004,6.849186e-005
9.765443e-004,2.992031e-005
9.737893e-004,1.396819e-006
9.742755e-004,-1.675450e-005
9.684411e-004,-2.712668e-005
9.512621e-004,-3.441962e-005
9.207938e-004,-4.025397e-005
8.820602e-004,-4.527799e-005
8.536987e-004,-5.257093e-005
8.502954e-004,-6.310517e-005
8.705535e-004,-8.239095e-005
8.987529e-004,-1.112386e-004
9.089631e-004,-1.468929e-004
8.909738e-004,-1.846542e-004
8.446231e-004,-2.177155e-004
7.772038e-004,-2.412149e-004
7.007089e-004,-2.540181e-004
6.271312e-004,-2.564491e-004
5.704083e-004,-2.551526e-004
5.410745e-004,-2.532078e-004
5.355643e-004,-2.485079e-004
5.396159e-004,-2.360289e-004
5.388056e-004,-2.183637e-004
5.216266e-004,-2.013469e-004
4.859722e-004,-1.891920e-004
4.428628e-004,-1.831956e-004
4.104497e-004,-1.801163e-004
4.031568e-004,-1.760647e-004
4.179048e-004,-1.699062e-004
4.477248e-004,-1.634236e-004
4.824068e-004,-1.564548e-004
5.104441e-004,-1.502963e-004
5.234093e-004,-1.434896e-004
5.169268e-004,-1.379794e-004
4.916445e-004,-1.344139e-004
4.488593e-004,-1.316588e-004
3.921364e-004,-1.287416e-004
3.294171e-004,-1.224211e-004
2.684805e-004,-1.083214e-004
2.156472e-004,-8.547019e-005
1.744826e-004,-5.872941e-005
1.451488e-004,-3.182657e-005
1.292664e-004,-6.220252e-006
1.253768e-004,1.744129e-005
1.231079e-004,3.818565e-005
1.098185e-004,5.439218e-005
8.194328e-005,6.832980e-005
4.790957e-005,8.372601e-005
1.841368e-005,9.993253e-005
-1.196227e-006,1.148425e-004
-1.432352e-005,1.289422e-004
-2.015787e-005,1.451488e-004
-1.529591e-005,1.675138e-004
3.827799e-006,1.953890e-004
4.013043e-005,2.229401e-004
9.344993e-005,2.495189e-004
1.569795e-004,2.725321e-004
2.201850e-004,2.898731e-004
2.754493e-004,2.966799e-004
3.185587e-004,2.914938e-004
3.441650e-004,2.809595e-004
3.490270e-004,2.697770e-004
3.305515e-004,2.581083e-004
2.782044e-004,2.485465e-004
1.893926e-004,2.420638e-004
7.286763e-005,2.415777e-004
-5.937768e-005,2.440086e-004
-1.943781e-004,2.461155e-004
-3.141443e-004,2.459534e-004
-4.060354e-004,2.472499e-004
-4.687546e-004,2.509774e-004
-5.141329e-004,2.574601e-004
-5.669662e-004,2.644289e-004
-6.452437e-004,2.688046e-004
-7.500999e-004,2.696149e-004
-8.593319e-004,2.636185e-004
-9.379336e-004,2.511395e-004
-9.568953e-004,2.328261e-004
-9.050344e-004,2.111094e-004
-7.946679e-004,1.842065e-004
-6.531850e-004,1.526038e-004
-4.979264e-004,1.201907e-004
-3.313232e-004,8.923623e-005
-1.511067e-004,5.957827e-005
4.158902e-005,3.137890e-005
2.352571e-004,8.203562e-006
4.093153e-004,-1.043395e-005
5.499881e-004,-2.890940e-005
6.718613e-004,-5.176061e-005
8.063756e-004,-7.979791e-005
9.899958e-004,-1.097800e-004
1.230825e-003,-1.405724e-004
1.488510e-003,-1.715269e-004
1.692550e-003,-2.019951e-004
1.777797e-003,-2.310048e-004
1.708757e-003,-2.549905e-004
1.496451e-003,-2.681178e-004
1.191281e-003,-2.690902e-004
8.498091e-004,-2.595283e-004
5.200059e-004,-2.501286e-004
2.107852e-004,-2.472114e-004
-1.016767e-004,-2.501286e-004
-4.478482e-004,-2.535319e-004
-8.295119e-004,-2.486699e-004
-1.221872e-003,-2.342462e-004
-1.595919e-003,-2.152845e-004
-1.940308e-003,-1.974573e-004
-2.261684e-003,-1.827094e-004
-2.542219e-003,-1.694200e-004
-2.736212e-003,-1.577513e-004
-2.788883e-003,-1.488377e-004
-2.649669e-003,-1.428413e-004
-2.307873e-003,-1.373311e-004
-1.810980e-003,-1.323071e-004
-1.248127e-003,-1.285796e-004
-7.170386e-004,-1.230693e-004
-2.887001e-004,-1.133454e-004
7.231170e-006,-9.568031e-005
1.804790e-004,-6.796714e-005
2.628082e-004,-2.939559e-005
2.919800e-004,1.176900e-005
2.991108e-004,4.645098e-005
3.060797e-004,7.124698e-005
3.232586e-004,8.502253e-005
3.506476e-004,8.826383e-005
3.793332e-004,9.037068e-005
3.991052e-004,9.798775e-005
4.072085e-004,1.107909e-004
4.076947e-004,1.244044e-004
4.051016e-004,1.389903e-004
4.080188e-004,1.563313e-004
4.179048e-004,1.791825e-004
4.318424e-004,2.051129e-004
4.414042e-004,2.326641e-004
4.412422e-004,2.569738e-004
4.352458e-004,2.717218e-004
4.294114e-004,2.783665e-004
4.214702e-004,2.788527e-004
4.096394e-004,2.748010e-004
3.960259e-004,2.673460e-004
3.846814e-004,2.597290e-004
3.790091e-004,2.491947e-004
3.799815e-004,2.428742e-004
3.838710e-004,2.449810e-004
3.830607e-004,2.495189e-004
3.736609e-004,2.503292e-004
3.564820e-004,2.441707e-004
3.341170e-004,2.326641e-004
3.101313e-004,2.188885e-004
2.874421e-004,2.038164e-004
2.699391e-004,1.871237e-004
2.584324e-004,1.683241e-004
2.594049e-004,1.537382e-004
2.725321e-004,1.445005e-004
2.874421e-004,1.389903e-004
2.973281e-004,1.329939e-004
3.025142e-004,1.213252e-004
3.015418e-004,1.013911e-004
2.936006e-004,7.902610e-005
2.832284e-004,5.925414e-005
2.705873e-004,4.402000e-005
2.587566e-004,2.992031e-005
2.529222e-004,1.322759e-005
2.493568e-004,-3.951337e-006
2.363916e-004,-1.805102e-005
2.028440e-004,-3.004385e-005
1.404489e-004,-3.976777e-005
5.406805e-005,-4.657452e-005
-4.219875e-005,-5.046408e-005
-1.336036e-004,-5.257093e-005
-2.050744e-004,-5.759496e-005
-2.442942e-004,-7.007399e-005
-2.468872e-004,-9.081835e-005
-2.186879e-004,-1.178833e-004
-1.736337e-004,-1.431655e-004
-1.250141e-004,-1.614788e-004
-8.222889e-005,-1.710407e-004
-4.706071e-005,-1.726613e-004
-1.659243e-005,-1.723372e-004
1.160693e-005,-1.720131e-004
4.288554e-005,-1.752544e-004
7.999851e-005,-1.840059e-004
1.179218e-004,-1.938919e-004
1.563313e-004,-1.977815e-004
1.974959e-004,-1.950263e-004
2.480603e-004,-1.865989e-004
3.070520e-004,-1.752544e-004
3.621543e-004,-1.647201e-004
4.070464e-004,-1.598582e-004
4.478869e-004,-1.558065e-004
4.905101e-004,-1.477033e-004
5.294057e-004,-1.358725e-004
5.501501e-004,-1.211246e-004
5.373470e-004,-1.060525e-004
4.801379e-004,-9.017008e-005
3.752816e-004,-7.299116e-005
2.237505e-004,-5.597430e-005
3.543054e-005,-3.847125e-005
-1.608306e-004,-2.177852e-005
-3.227338e-004,-5.247859e-006
-4.196489e-004,1.355172e-005
-4.480103e-004,3.656499e-005
-4.271038e-004,6.249545e-005
-3.843186e-004,8.583286e-005
-3.472056e-004,1.028497e-004
-3.280820e-004,1.132219e-004
-3.262992e-004,1.200286e-004
-3.280820e-004,1.245665e-004
-3.181960e-004,1.299146e-004
-2.938862e-004,1.391524e-004
-2.632558e-004,1.537382e-004
-2.382978e-004,1.730240e-004
-2.245222e-004,1.937684e-004
-2.183637e-004,2.109473e-004
-2.105846e-004,2.239125e-004
-1.911368e-004,2.328261e-004
-1.629374e-004,2.370398e-004
-1.347380e-004,2.346088e-004
-1.117248e-004,2.268297e-004
-9.017008e-005,2.158093e-004
-5.678463e-005,2.043026e-004
2.623614e-007,1.973338e-004
8.956036e-005,1.978200e-004
2.030061e-004,2.017096e-004
3.177483e-004,2.033302e-004
4.033189e-004,2.044647e-004
4.417284e-004,2.047888e-004
4.358940e-004,2.030061e-004
3.969983e-004,1.961994e-004
3.401134e-004,1.830721e-004
2.710735e-004,1.678379e-004
1.863134e-004,1.550348e-004
9.020862e-005,1.470936e-004
-7.840905e-006,1.420695e-004
-1.002181e-004,1.380179e-004
-1.773612e-004,1.321835e-004
-2.298704e-004,1.237561e-004
-2.634179e-004,1.103047e-004
-2.887001e-004,9.312580e-005
-3.211132e-004,7.319176e-005
-3.720016e-004,5.228533e-005
-4.433104e-004,3.251336e-005
-5.280706e-004,1.565857e-005
-6.167202e-004,-1.034161e-006
-6.896496e-004,-1.675450e-005
-7.163903e-004,-2.809907e-005
-6.808981e-004,-3.279896e-005
-5.857658e-004,-3.085418e-005
-4.499550e-004,-2.453363e-005
-3.003688e-004,-1.934754e-005
-1.656925e-004,-1.902341e-005
-5.856735e-005,-3.134038e-005
2.992031e-005,-5.824322e-005
1.130598e-004,-9.697683e-005
1.963614e-004,-1.365208e-004
2.738286e-004,-1.686097e-004
3.326584e-004,-1.853024e-004
3.590750e-004,-1.867610e-004
3.480546e-004,-1.768750e-004
3.047831e-004,-1.681235e-004
2.391467e-004,-1.655305e-004
1.660552e-004,-1.708786e-004
1.002567e-004,-1.802784e-004
5.536457e-005,-1.900023e-004
4.142696e-005,-1.969711e-004
5.698522e-005,-1.974573e-004
9.361199e-005,-1.964849e-004
1.376938e-004,-1.950263e-004
1.790204e-004,-1.966470e-004
2.067336e-004,-2.011848e-004
2.198609e-004,-2.052365e-004
2.188885e-004,-2.078295e-004
2.077060e-004,-2.081536e-004
1.790204e-004,-2.065330e-004
1.250527e-004,-1.992400e-004
4.418206e-005,-1.856265e-004
-5.678463e-005,-1.697442e-004
-1.629374e-004,-1.512687e-004
-2.441321e-004,-1.284175e-004
-2.703867e-004,-9.730096e-005
-2.342462e-004,-5.953974e-005
-1.558065e-004,-2.031993e-005
-6.342931e-005,1.663096e-005
1.987227e-005,4.709924e-005
8.340187e-005,6.606088e-005
1.323456e-004,7.610894e-005
1.752929e-004,8.178122e-005
2.321778e-004,8.810177e-005
3.263378e-004,9.555677e-005
4.619866e-004,1.059290e-004
6.141660e-004,1.218114e-004
7.391184e-004,1.436902e-004
8.076721e-004,1.678379e-004
8.203132e-004,1.939304e-004
7.927621e-004,2.201850e-004
7.358771e-004,2.422259e-004
6.622995e-004,2.558394e-004
5.866149e-004,2.629703e-004
5.153061e-004,2.691288e-004
4.373526e-004,2.803113e-004
3.300653e-004,2.947351e-004
1.846927e-004,3.051073e-004
2.538249e-005,3.072141e-004
-1.279313e-004,2.994350e-004
-2.736280e-004,2.850112e-004
-4.332623e-004,2.731804e-004
-6.204477e-004,2.686426e-004
-8.173570e-004,2.684805e-004
-9.718052e-004,2.673460e-004
-1.020587e-003,2.600531e-004
-9.312889e-004,2.470879e-004
-7.287074e-004,2.313675e-004
-4.841508e-004,2.171058e-004
-2.697385e-004,2.067336e-004
-1.193418e-004,1.965235e-004
-2.826114e-005,1.846927e-004
3.299956e-005,1.735102e-004
8.939829e-005,1.621656e-004
1.539003e-004,1.504969e-004
2.227781e-004,1.360731e-004
2.864697e-004,1.175977e-004
3.352514e-004,9.750156e-005
3.705817e-004,7.886404e-005
3.982949e-004,6.314371e-005
4.251977e-004,5.001642e-005
4.524247e-004,3.332369e-005
4.759242e-004,1.338965e-005
4.843516e-004,-9.623623e-006
4.697657e-004,-3.328516e-005
4.365423e-004,-5.986387e-005
4.123946e-004,-8.757704e-005
4.324906e-004,-1.190177e-004
5.191956e-004,-1.535376e-004
6.540340e-004,-1.895161e-004
7.951931e-004,-2.196603e-004
8.951875e-004,-2.382978e-004
9.222524e-004,-2.392702e-004
8.744431e-004,-2.267911e-004
7.663454e-004,-2.110708e-004
6.177314e-004,-1.987538e-004
4.533971e-004,-1.912988e-004
2.926282e-004,-1.909747e-004
1.368834e-004,-1.972953e-004
-2.761287e-005,-2.042641e-004
-2.131776e-004,-2.071812e-004
-4.240246e-004,-2.026434e-004
-6.530228e-004,-1.932436e-004
-8.859106e-004,-1.835197e-004
-1.108264e-003,-1.771992e-004
-1.315546e-003,-1.746061e-004
-1.516345e-003,-1.754164e-004
-1.697696e-003,-1.749302e-004
-1.820055e-003,-1.728234e-004
-1.842096e-003,-1.689338e-004
-1.748260e-003,-1.601823e-004
-1.551837e-003,-1.444620e-004
-1.289453e-003,-1.186936e-004
-1.005839e-003,-8.725291e-005
-7.447518e-004,-5.629844e-005
-5.298533e-004,-3.004385e-005
-3.642225e-004,-1.027188e-005
-2.436459e-004,7.555301e-006
-1.514308e-004,2.635488e-005
-6.667062e-005,4.612685e-005
3.494434e-005,6.670914e-005
1.952270e-004,8.712937e-005
4.431870e-004,1.031738e-004
7.595387e-004,1.145184e-004
1.081887e-003,1.216493e-004
1.329361e-003,1.281319e-004
1.444752e-003,1.367214e-004
1.413149e-003,1.500107e-004
1.257080e-003,1.673517e-004
1.028892e-003,1.890685e-004
7.932483e-004,2.158093e-004
5.992560e-004,2.461155e-004
4.683071e-004,2.741528e-004
3.903536e-004,2.948972e-004
3.367100e-004,3.065659e-004
2.762596e-004,3.109416e-004
1.827479e-004,3.115899e-004
3.089271e-005,3.060797e-004
-1.917850e-004,2.945730e-004
-4.659995e-004,2.773941e-004
-7.398899e-004,2.605393e-004
-9.429576e-004,2.491947e-004
-9.964393e-004,2.419018e-004
-8.463667e-004,2.370398e-004
-5.032745e-004,2.342847e-004
-5.208474e-005,2.292607e-004
3.749574e-004,2.218057e-004
6.606788e-004,2.122438e-004
7.446287e-004,2.012234e-004
6.292380e-004,1.918236e-004
3.595612e-004,1.843686e-004
7.879432e-006,1.769136e-004
-3.368335e-004,1.712413e-004
-5.933828e-004,1.655690e-004
-7.047217e-004,1.571416e-004
-6.518884e-004,1.443384e-004
-4.617858e-004,1.287802e-004
-1.966470e-004,1.151667e-004
6.476436e-005,1.036600e-004
2.618358e-004,9.280167e-005
3.598854e-004,7.902610e-005
3.568061e-004,6.184718e-005
2.877662e-004,4.742337e-005
1.987924e-004,3.607880e-005
1.292664e-004,2.522042e-005
1.043083e-004,9.500085e-006
1.328318e-004,-1.480971e-005
1.952270e-004,-4.544006e-005
2.527602e-004,-7.542214e-005
2.644289e-004,-1.044318e-004
2.007372e-004,-1.344139e-004
6.444023e-005,-1.618029e-004
-9.454585e-005,-1.827094e-004
-1.992400e-004,-1.950263e-004
-1.948643e-004,-1.992400e-004
-7.526008e-005,-2.002124e-004
1.163011e-004,-2.019951e-004
3.140208e-004,-2.068571e-004
4.606900e-004,-2.133397e-004
5.336195e-004,-2.180396e-004
5.407503e-004,-2.183637e-004
5.020167e-004,-2.151224e-004
4.452938e-004,-2.138259e-004
3.914881e-004,-2.154466e-004
3.423823e-004,-2.207947e-004
2.911697e-004,-2.256567e-004
2.347709e-004,-2.250084e-004
1.835583e-004,-2.177155e-004
1.487142e-004,-2.029675e-004
1.380179e-004,-1.820611e-004
1.521176e-004,-1.571031e-004
1.808031e-004,-1.350622e-004
2.120818e-004,-1.161005e-004
2.409294e-004,-9.713889e-005
2.632944e-004,-7.623246e-005
2.720459e-004,-5.370539e-005
2.626462e-004,-3.441962e-005
2.419018e-004,-2.145439e-005
2.261814e-004,-1.043395e-005
2.360674e-004,2.531276e-006
2.869559e-004,1.889987e-005
3.723644e-004,3.494434e-005
4.615004e-004,4.839576e-005
5.196818e-004,5.714729e-005
5.277851e-004,6.379197e-005
4.884033e-004,7.189524e-005
4.136911e-004,8.469840e-005
3.125623e-004,1.010670e-004
1.880961e-004,1.214872e-004
4.434413e-005,1.422316e-004
-1.183694e-004,1.629760e-004
-2.935620e-004,1.825859e-004
-4.535205e-004,2.015475e-004
-5.611319e-004,2.159713e-004
-5.979206e-004,2.273159e-004
-5.750695e-004,2.367157e-004
-5.256396e-004,2.444948e-004
-4.826922e-004,2.534084e-004
-4.533584e-004,2.568118e-004
-4.193247e-004,2.513016e-004
-3.634122e-004,2.386605e-004
-2.810830e-004,2.253711e-004
-1.794681e-004,2.177540e-004
-7.931171e-005,2.177540e-004
-4.437533e-006,2.201850e-004
1.679302e-005,2.193747e-004
-2.745081e-005,2.124059e-004
-1.332795e-004,2.007372e-004
-2.874036e-004,1.906891e-004
-4.788027e-004,1.822617e-004
-6.875428e-004,1.712413e-004
-8.650042e-004,1.573037e-004
-9.410129e-004,1.430419e-004
-8.580354e-004,1.297526e-004
-6.094273e-004,1.164632e-004
-2.494803e-004,1.030118e-004
1.224596e-004,8.599492e-005
4.101256e-004,6.719535e-005
5.564707e-004,4.580272e-005
5.647360e-004,2.489629e-005
4.882411e-004,6.907040e-006
3.924605e-004,-9.947754e-006
3.256896e-004,-2.469570e-005
2.986247e-004,-3.766092e-005
2.872801e-004,-4.916756e-005
2.478982e-004,-6.116039e-005
1.492004e-004,-7.396356e-005
-1.140634e-005,-8.968389e-005
-2.229016e-004,-1.092938e-004
-4.698891e-004,-1.313347e-004
-7.376209e-004,-1.524032e-004
-9.925497e-004,-1.710407e-004
-1.181356e-003,-1.827094e-004
-1.249261e-003,-1.854645e-004
-1.168228e-003,-1.814128e-004
-9.518713e-004,-1.760647e-004
-6.473506e-004,-1.726613e-004
-3.214373e-004,-1.734716e-004
-3.895745e-005,-1.765509e-004
1.605450e-004,-1.793060e-004
2.762596e-004,-1.775233e-004
3.279585e-004,-1.682856e-004
3.402755e-004,-1.538618e-004
3.352514e-004,-1.412206e-004
3.313618e-004,-1.324691e-004
3.381686e-004,-1.293899e-004
3.574544e-004,-1.302002e-004
3.877606e-004,-1.337657e-004
4.203358e-004,-1.352242e-004
4.409181e-004,-1.336036e-004
4.384871e-004,-1.285796e-004
4.107739e-004,-1.217728e-004
3.637749e-004,-1.102662e-004
3.136967e-004,-9.276313e-005
2.712356e-004,-6.764301e-005
2.415777e-004,-3.717473e-005
2.229401e-004,-8.651231e-006
2.135403e-004,8.689758e-006
2.106232e-004,1.193106e-005
2.107852e-004,7.393236e-006
2.151610e-004,3.017472e-006
2.273159e-004,7.485573e-007
2.449810e-004,5.286387e-006
2.632944e-004,1.760335e-005
2.757735e-004,3.591673e-005
2.751252e-004,5.439218e-005
2.598910e-004,7.124698e-005
2.419018e-004,8.777764e-005
2.256952e-004,1.090082e-004
2.114335e-004,1.372076e-004
2.018716e-004,1.678379e-004
1.923098e-004,1.970097e-004
1.782101e-004,2.226160e-004
1.649207e-004,2.419018e-004
1.508211e-004,2.529222e-004
1.273216e-004,2.548670e-004
9.879808e-005,2.506533e-004
6.995045e-005,2.414156e-004
4.045456e-005,2.290986e-004
6.744974e-006,2.179161e-004
-3.036798e-005,2.099749e-004
-6.780507e-005,2.102990e-004
-9.746302e-005,2.192126e-004
-1.122110e-004,2.299089e-004
-1.135075e-004,2.406053e-004
-1.032974e-004,2.534084e-004
-8.741498e-005,2.658874e-004
-6.715681e-005,2.692908e-004
-5.111234e-005,2.634565e-004
-4.187462e-005,2.501671e-004
-3.004385e-005,2.326641e-004
-1.358292e-006,2.117576e-004
5.212327e-005,1.890685e-004
1.231079e-004,1.673517e-004
2.000889e-004,1.445005e-004
2.655633e-004,1.180839e-004
3.033245e-004,8.972242e-005
3.111037e-004,6.573675e-005
3.081865e-004,4.645098e-005
3.119140e-004,3.040651e-005
3.250413e-004,1.776542e-005
3.491891e-004,7.393236e-006
3.866261e-004,-1.844488e-006
4.376768e-004,-7.678839e-006
4.854860e-004,-1.010982e-005
5.050959e-004,-8.489166e-006
4.799758e-004,-7.354709e-006
4.101256e-004,-1.513384e-005
3.127243e-004,-3.296103e-005
2.083542e-004,-5.532604e-005
1.101427e-004,-7.914964e-005
2.181705e-005,-1.021629e-004
-4.689865e-005,-1.227452e-004
-8.935975e-005,-1.386276e-004
-9.422172e-005,-1.494860e-004
-6.018800e-005,-1.517549e-004
7.717366e-006,-1.483515e-004
9.263960e-005,-1.425172e-004
1.686482e-004,-1.365208e-004
2.036544e-004,-1.310105e-004
1.741585e-004,-1.243659e-004
7.027458e-005,-1.154523e-004
-9.260107e-005,-1.036215e-004
-2.799486e-004,-9.276313e-005
-4.531963e-004,-8.854943e-005
-5.744212e-004,-9.681477e-005
-6.155858e-004,-1.139937e-004
-5.758798e-004,-1.302002e-004
-4.839888e-004,-1.394379e-004
-3.857772e-004,-1.404103e-004
-3.217614e-004,-1.366828e-004
-3.120375e-004,-1.326312e-004
-3.559572e-004,-1.311726e-004
-4.400691e-004,-1.287416e-004
-5.497872e-004,-1.208004e-004
-6.698776e-004,-1.037836e-004
-7.847819e-004,-7.671866e-005
-8.714869e-004,-4.819517e-005
-9.026034e-004,-2.469570e-005
-8.523631e-004,-8.813297e-006
-7.199558e-004,-3.858999e-007
-5.348772e-004,3.827799e-006
-3.339163e-004,6.096713e-006
-1.499722e-004,1.355172e-005
-6.544382e-006,2.408596e-005
8.729144e-005,3.867184e-005
1.404489e-004,5.844381e-005
1.678379e-004,8.437427e-005
1.851789e-004,1.145184e-004
2.028440e-004,1.435281e-004
2.226160e-004,1.668655e-004
2.483844e-004,1.864754e-004
2.832284e-004,2.051129e-004
3.252034e-004,2.247229e-004
3.663680e-004,2.422259e-004
3.903536e-004,2.548670e-004
3.840331e-004,2.611876e-004
3.464339e-004,2.637806e-004
2.812837e-004,2.652392e-004
1.905271e-004,2.645909e-004
7.594687e-005,2.639427e-004
-2.566809e-005,2.608634e-004
-4.689865e-005,2.547049e-004
5.698522e-005,2.453052e-004
2.722080e-004,2.354192e-004
5.272989e-004,2.271538e-004
7.331221e-004,2.187264e-004
8.321440e-004,2.125679e-004
8.144788e-004,2.086784e-004
7.042743e-004,2.041406e-004
5.433434e-004,1.984683e-004
3.746333e-004,1.919856e-004
2.282883e-004,1.845306e-004
1.119254e-004,1.735102e-004
1.922400e-005,1.558451e-004
-6.180866e-005,1.310491e-004
-1.426792e-004,1.028497e-004
-2.449425e-004,7.805372e-005
-3.966356e-004,5.957827e-005
-6.150996e-004,4.369587e-005
-8.860728e-004,2.846173e-005
-1.165635e-003,1.031041e-005
-1.376482e-003,-9.947754e-006
-1.437581e-003,-3.182657e-005
-1.308091e-003,-5.451572e-005
-1.016049e-003,-7.752899e-005
-6.374646e-004,-9.551824e-005
-2.580697e-004,-1.070249e-004
5.941620e-005,-1.133454e-004
2.882525e-004,-1.177212e-004
4.331389e-004,-1.272830e-004
5.093097e-004,-1.451102e-004
5.365367e-004,-1.668270e-004
5.294057e-004,-1.849783e-004
4.955341e-004,-1.961608e-004
4.420525e-004,-1.979435e-004
3.806297e-004,-1.919471e-004
3.258516e-004,-1.835197e-004
2.861456e-004,-1.757406e-004
2.691288e-004,-1.718510e-004
2.733424e-004,-1.713648e-004
2.864697e-004,-1.687718e-004
3.007315e-004,-1.624512e-004
3.115899e-004,-1.541859e-004
3.192070e-004,-1.470550e-004
3.245551e-004,-1.418689e-004
3.252034e-004,-1.376552e-004
3.192070e-004,-1.339277e-004
3.065659e-004,-1.300382e-004
2.900352e-004,-1.232314e-004
2.697770e-004,-1.125351e-004
2.467637e-004,-1.029732e-004
2.260194e-004,-9.438378e-005
2.052750e-004,-8.401160e-005
1.780480e-004,-7.072225e-005
1.352628e-004,-5.013995e-005
7.059871e-005,-1.837515e-005
-9.299493e-006,2.116879e-005
-8.012204e-005,5.974033e-005
-1.173971e-004,8.810177e-005
-1.130213e-004,1.004187e-004
-7.720486e-005,9.977047e-005
-2.809907e-005,9.490851e-005
2.035846e-005,9.328786e-005
6.427817e-005,9.912221e-005
1.096565e-004,1.112771e-004
1.722137e-004,1.268354e-004
2.668598e-004,1.427178e-004
3.952156e-004,1.564933e-004
5.509604e-004,1.701068e-004
7.276118e-004,1.838824e-004
9.147974e-004,1.947408e-004
1.089990e-003,2.012234e-004
1.229042e-003,1.997648e-004
1.319799e-003,1.914995e-004
1.361450e-003,1.791825e-004
1.356912e-003,1.634622e-004
1.303268e-003,1.428799e-004
1.202302e-003,1.213252e-004
1.057739e-003,1.049566e-004
8.608295e-004,9.555677e-005
5.960147e-004,9.004655e-005
2.535705e-004,8.761557e-005
-1.676373e-004,8.567078e-005
-6.497815e-004,8.615699e-005
-1.175359e-003,8.875003e-005
-1.732378e-003,9.085688e-005
-2.282104e-003,9.134307e-005
-2.734915e-003,9.085688e-005
-2.972828e-003,8.875003e-005
-2.915943e-003,8.291568e-005
-2.567502e-003,7.675720e-005
-2.027499e-003,7.270556e-005
-1.445036e-003,7.124698e-005
-9.380957e-004,7.254349e-005
-5.528665e-004,7.335383e-005
-2.669833e-004,7.221937e-005
-3.409549e-005,7.011252e-005
1.845306e-004,6.654708e-005
4.052637e-004,6.492643e-005
6.227554e-004,6.784360e-005
8.182063e-004,7.335383e-005
9.715204e-004,7.367795e-005
1.065680e-003,6.573675e-005
1.095662e-003,5.034055e-005
1.067301e-003,3.397195e-005
1.000206e-003,1.906194e-005
9.170663e-004,4.962256e-006
8.272820e-004,-1.189254e-005
7.263153e-004,-3.425755e-005
6.099523e-004,-6.294311e-005
4.867825e-004,-9.098041e-005
3.713920e-004,-1.099421e-004
2.736666e-004,-1.185315e-004
1.906891e-004,-1.203142e-004
1.094944e-004,-1.188556e-004
4.313994e-006,-1.086455e-004
-1.515928e-004,-9.276313e-005
-3.596847e-004,-8.028410e-005
-5.901415e-004,-7.655660e-005
-7.967748e-004,-8.368748e-005
-9.377715e-004,-9.632857e-005
-9.837981e-004,-1.054042e-004
-9.264270e-004,-1.102662e-004
-7.745718e-004,-1.141558e-004
-5.512458e-004,-1.178833e-004
-2.968033e-004,-1.182074e-004
-5.905355e-005,-1.138316e-004
1.120874e-004,-1.054042e-004
1.931201e-004,-9.568031e-005
1.950649e-004,-8.530812e-005
1.477418e-004,-7.493595e-005
8.745350e-005,-6.553616e-005
4.693717e-005,-5.840528e-005
3.932010e-005,-5.143648e-005
6.395404e-005,-4.284701e-005
1.099806e-004,-3.069211e-005
1.595726e-004,-1.416145e-005
1.973338e-004,6.582909e-006
2.162954e-004,2.781346e-005
2.209954e-004,4.807163e-005
2.222919e-004,6.168512e-005
2.313675e-004,6.865393e-005
2.547049e-004,6.914012e-005
2.853353e-004,6.914012e-005
3.088348e-004,7.448828e-005
3.089969e-004,8.810177e-005
2.799871e-004,1.090082e-004
2.284504e-004,1.341283e-004
1.785342e-004,1.631380e-004
1.545486e-004,1.932822e-004
1.634622e-004,2.177540e-004
1.923098e-004,2.333123e-004
2.253711e-004,2.410915e-004
2.478982e-004,2.451431e-004
2.524360e-004,2.427121e-004
2.410915e-004,2.350950e-004
2.195368e-004,2.235884e-004
1.942546e-004,2.146748e-004
1.709172e-004,2.120818e-004
1.475797e-004,2.175920e-004
1.210010e-004,2.276400e-004
9.474644e-005,2.354192e-004
6.719535e-005,2.375260e-004
3.397195e-005,2.346088e-004
-2.492749e-006,2.295848e-004
-3.604027e-005,2.247229e-004
-5.111234e-005,2.205092e-004
-2.518189e-005,2.127300e-004
5.649903e-005,2.008992e-004
1.835583e-004,1.889064e-004
3.269861e-004,1.773998e-004
4.517764e-004,1.620036e-004
5.255162e-004,1.427178e-004
5.307022e-004,1.222976e-004
4.707381e-004,1.028497e-004
3.640991e-004,8.858796e-005
2.337985e-004,7.918817e-005
1.073875e-004,6.978839e-005
6.096713e-006,5.309566e-005
-5.743289e-005,2.910999e-005
-8.871149e-005,4.244267e-007
-9.956988e-005,-2.583016e-005
-9.794922e-005,-4.835724e-005
-8.433573e-005,-6.310517e-005
-6.926366e-005,-7.137051e-005
-6.472583e-005,-7.963584e-005
-7.914964e-005,-9.324933e-005
-1.240417e-004,-1.152902e-004
-2.075054e-004,-1.391138e-004
-3.340784e-004,-1.595340e-004
-5.061917e-004,-1.770371e-004
-7.175248e-004,-1.914609e-004
-9.395542e-004,-2.026434e-004
-1.123336e-003,-2.102605e-004
-1.214903e-003,-2.130156e-004
-1.182166e-003,-2.122053e-004
-1.025773e-003,-2.078295e-004
-7.813785e-004,-2.008607e-004
-5.031124e-004,-1.945401e-004
-2.472114e-004,-1.898403e-004
-5.111234e-005,-1.875713e-004
7.448828e-005,-1.893541e-004
1.389903e-004,-1.924333e-004
1.579519e-004,-1.953505e-004
1.600588e-004,-1.927574e-004
1.728619e-004,-1.815749e-004
2.098128e-004,-1.653684e-004
2.654013e-004,-1.512687e-004
3.226103e-004,-1.436516e-004
3.647473e-004,-1.399241e-004
3.791712e-004,-1.374932e-004
3.598854e-004,-1.302002e-004
3.059176e-004,-1.162626e-004
2.287745e-004,-9.438378e-005
1.480659e-004,-6.569822e-005
8.405014e-005,-3.263690e-005
5.309566e-005,-8.720959e-007
5.941620e-005,2.424803e-005
9.393612e-005,4.094075e-005
1.448246e-004,4.936815e-005
1.911753e-004,5.617490e-005
2.177540e-004,6.687121e-005
2.248849e-004,8.194328e-005
2.148369e-004,9.588091e-005
1.919856e-004,1.096565e-004
1.684862e-004,1.232699e-004
1.553589e-004,1.347766e-004
1.530900e-004,1.454729e-004
1.509831e-004,1.595726e-004
1.432040e-004,1.773998e-004
1.354248e-004,1.957132e-004
1.399627e-004,2.091646e-004
1.631380e-004,2.184023e-004
2.000889e-004,2.242366e-004
2.359054e-004,2.307193e-004
2.511395e-004,2.391467e-004
2.368777e-004,2.462775e-004
2.015475e-004,2.480603e-004
1.568175e-004,2.428742e-004
1.130598e-004,2.339606e-004
7.627100e-005,2.258573e-004
4.385793e-005,2.213195e-004
1.209313e-005,2.203471e-004
-1.934754e-005,2.216436e-004
-5.143648e-005,2.273159e-004
-8.158062e-005,2.360674e-004
-1.060525e-004,2.419018e-004
-1.264727e-004,2.376881e-004
-1.405724e-004,2.208333e-004
-1.459206e-004,1.960373e-004
-1.383035e-004,1.691344e-004
-1.152902e-004,1.443384e-004
-8.028410e-005,1.253768e-004
-4.268495e-005,1.101427e-004
-1.383732e-005,9.993253e-005
2.531276e-006,9.312580e-005
6.744974e-006,8.777764e-005
1.072688e-006,8.194328e-005
-9.461558e-006,6.995045e-005
-1.772689e-005,4.936815e-005
-1.756482e-005,2.181705e-005
-6.706447e-006,-7.030578e-006
1.452411e-005,-3.182657e-005
3.445814e-005,-5.078821e-005
4.434413e-005,-6.391550e-005
3.753739e-005,-7.428769e-005
1.987227e-005,-8.482193e-005
1.338965e-005,-9.859748e-005
3.737532e-005,-1.159385e-004
9.750156e-005,-1.360346e-004
2.096508e-004,-1.558065e-004
3.957018e-004,-1.733096e-004
6.423654e-004,-1.890299e-004
8.919462e-004,-2.024813e-004
1.066491e-003,-2.086398e-004
1.105386e-003,-2.068571e-004
9.985853e-004,-1.997262e-004
7.833623e-004,-1.882196e-004
5.166026e-004,-1.739578e-004
2.513016e-004,-1.614788e-004
2.230325e-005,-1.525652e-004
-1.595340e-004,-1.493239e-004
-2.989102e-004,-1.512687e-004
-4.136524e-004,-1.585616e-004
-5.141329e-004,-1.666649e-004
-6.099135e-004,-1.697442e-004
-7.087733e-004,-1.627754e-004
-8.278913e-004,-1.449482e-004
-9.739121e-004,-1.227452e-004
-1.131278e-003,-1.029732e-004
-1.270330e-003,-9.017008e-005
-1.353793e-003,-8.255302e-005
-1.341962e-003,-7.639453e-005
-1.210365e-003,-6.618442e-005
-9.687260e-004,-5.030202e-005
-6.536711e-004,-2.712668e-005
-3.204649e-004,4.244267e-007
-2.566809e-005,3.121684e-005
1.971717e-004,6.346784e-005
3.344411e-004,9.037068e-005
3.893813e-004,1.057669e-004
3.854917e-004,1.114392e-004
3.577785e-004,1.148425e-004
3.397893e-004,1.206769e-004
3.431926e-004,1.279698e-004
3.605336e-004,1.338042e-004
3.814401e-004,1.419075e-004
4.023465e-004,1.566554e-004
4.174185e-004,1.769136e-004
4.162841e-004,1.986303e-004
3.968363e-004,2.192126e-004
3.660439e-004,2.359054e-004
3.321722e-004,2.466017e-004
3.049452e-004,2.495189e-004
2.874421e-004,2.508154e-004
2.760976e-004,2.566497e-004
2.666978e-004,2.649151e-004
2.540567e-004,2.710735e-004
2.320158e-004,2.707494e-004
2.052750e-004,2.629703e-004
1.783722e-004,2.490327e-004
1.555210e-004,2.300710e-004
1.388282e-004,2.099749e-004
1.281319e-004,1.921477e-004
1.222976e-004,1.788584e-004
1.188942e-004,1.691344e-004
1.187321e-004,1.623277e-004
1.226217e-004,1.589243e-004
1.286181e-004,1.573037e-004
1.291043e-004,1.487142e-004
1.214872e-004,1.342904e-004
1.062531e-004,1.190562e-004
8.583286e-005,1.028497e-004
6.816773e-005,8.680524e-005
6.379197e-005,7.367795e-005
7.659513e-005,6.444023e-005
9.993253e-005,5.601284e-005
1.235941e-004,4.402000e-005
1.420695e-004,2.489629e-005
1.488763e-004,3.503668e-006
1.409351e-004,-1.821308e-005
1.240803e-004,-4.106429e-005
1.062531e-004,-6.067420e-005
9.231547e-005,-7.234290e-005
8.664318e-005,-7.347736e-005
8.956036e-005,-6.715681e-005
9.328786e-005,-6.342931e-005
8.340187e-005,-6.683268e-005
4.693717e-005,-7.963584e-005
-1.626830e-005,-1.031353e-004
-9.114248e-005,-1.344139e-004
-1.512687e-004,-1.674752e-004
-1.637477e-004,-1.937298e-004
-1.097800e-004,-2.075054e-004
1.558884e-006,-2.084778e-004
1.454729e-004,-2.008607e-004
2.892249e-004,-1.908126e-004
4.057499e-004,-1.807646e-004
4.871067e-004,-1.729855e-004
5.454503e-004,-1.686097e-004
5.950422e-004,-1.647201e-004
6.344241e-004,-1.583996e-004
6.486859e-004,-1.496481e-004
6.182176e-004,-1.407345e-004
5.388056e-004,-1.344139e-004
4.055878e-004,-1.297140e-004
2.281262e-004,-1.259865e-004
2.133085e-005,-1.225832e-004
-1.990780e-004,-1.196660e-004
-4.266177e-004,-1.173971e-004
-6.599916e-004,-1.097800e-004
-8.975794e-004,-9.551824e-005
-1.120257e-003,-7.477388e-005
-1.285888e-003,-5.046408e-005
-1.347797e-003,-2.761287e-005
-1.284591e-003,-6.382317e-006
-1.106319e-003,1.549650e-005
-8.632215e-004,3.624086e-005
-6.246614e-004,5.358185e-005
-4.365036e-004,6.832980e-005
-3.121996e-004,8.129502e-005
-2.300324e-004,9.685330e-005
-1.627754e-004,1.130598e-004
-9.632857e-005,1.282940e-004
-3.053005e-005,1.391524e-004
2.570662e-005,1.459591e-004
5.163707e-005,1.550348e-004
4.158902e-005,1.675138e-004
9.500085e-006,1.846927e-004
-2.226472e-005,2.060853e-004
-3.685060e-005,2.286124e-004
-1.740276e-005,2.529222e-004
5.341979e-005,2.762596e-004
1.756171e-004,2.923041e-004
3.279585e-004,2.976523e-004
4.820827e-004,2.906835e-004
6.123833e-004,2.786906e-004
7.135121e-004,2.657254e-004
7.888725e-004,2.513016e-004
8.378163e-004,2.362295e-004
8.528884e-004,2.266676e-004
8.211235e-004,2.247229e-004
7.392805e-004,2.260194e-004
6.187038e-004,2.227781e-004
4.730070e-004,2.091646e-004
3.107795e-004,1.877720e-004
1.357490e-004,1.665414e-004
-4.625038e-005,1.522796e-004
-2.245222e-004,1.461212e-004
-3.841565e-004,1.433661e-004
-5.104054e-004,1.383420e-004
-5.937069e-004,1.265113e-004
-6.400577e-004,1.056048e-004
-6.603158e-004,7.691926e-005
-6.624226e-004,4.434413e-005
-6.496195e-004,1.403791e-005
-6.253097e-004,-1.043395e-005
-5.925725e-004,-2.988179e-005
-5.502735e-004,-4.576419e-005
-4.883645e-004,-5.565017e-005
-3.961493e-004,-6.278104e-005
-2.728177e-004,-7.412562e-005
-1.308485e-004,-9.308726e-005
4.800190e-006,-1.118868e-004
1.146805e-004,-1.211246e-004
1.856651e-004,-1.191798e-004
2.256952e-004,-1.141558e-004
2.477361e-004,-1.159385e-004
2.615117e-004,-1.302002e-004
2.691288e-004,-1.579134e-004
2.739907e-004,-1.903264e-004
2.804733e-004,-2.188499e-004
2.926282e-004,-2.360289e-004
3.051073e-004,-2.370013e-004
3.012177e-004,-2.250084e-004
2.639427e-004,-2.083157e-004
1.890685e-004,-1.912988e-004
9.896015e-005,-1.746061e-004
2.927205e-005,-1.587237e-004
7.393236e-006,-1.460826e-004
4.045456e-005,-1.386276e-004
1.116012e-004,-1.371690e-004
1.885823e-004,-1.371690e-004
2.521119e-004,-1.339277e-004
2.905214e-004,-1.253383e-004
3.034866e-004,-1.154523e-004
2.937627e-004,-1.084835e-004
2.628082e-004,-1.044318e-004
2.138645e-004,-1.000561e-004
1.558451e-004,-9.681477e-005
1.030118e-004,-9.454585e-005
8.891209e-005,-9.405965e-005
1.404489e-004,-9.195280e-005
2.615117e-004,-8.352541e-005
4.290873e-004,-6.553616e-005
6.013628e-004,-3.814712e-005
7.399287e-004,-6.868513e-006
8.251752e-004,2.295151e-005
8.551573e-004,4.807163e-005
8.378163e-004,6.589881e-005
7.812555e-004,7.870197e-005
6.977918e-004,8.907416e-005
5.971491e-004,1.009049e-004
4.824068e-004,1.138702e-004
3.465960e-004,1.269974e-004
1.903650e-004,1.401247e-004
9.013889e-006,1.558451e-004
-2.070192e-004,1.756171e-004
-4.637306e-004,2.065715e-004
-7.575550e-004,2.449810e-004
-1.051055e-003,2.809595e-004
-1.268061e-003,3.067279e-004
-1.333535e-003,3.175863e-004
-1.202910e-003,3.192070e-004
-8.977414e-004,3.148312e-004
-5.021401e-004,3.089969e-004
-1.208004e-004,3.021901e-004
1.647587e-004,2.940868e-004
3.183966e-004,2.853353e-004
3.501615e-004,2.795009e-004
2.911697e-004,2.773941e-004
1.709172e-004,2.760976e-004
2.343770e-005,2.764217e-004
-1.126972e-004,2.752873e-004
-2.136638e-004,2.701012e-004
-2.757348e-004,2.644289e-004
-3.113892e-004,2.610255e-004
-3.384541e-004,2.569738e-004
-3.643846e-004,2.451431e-004
-3.789705e-004,2.263435e-004
-3.488263e-004,2.062474e-004
-2.467252e-004,1.882582e-004
-9.308726e-005,1.730240e-004
6.379197e-005,1.594105e-004
1.884202e-004,1.472556e-004
2.757735e-004,1.342904e-004
3.393030e-004,1.148425e-004
4.106118e-004,8.518459e-005
5.392918e-004,4.871989e-005
7.626179e-004,1.144487e-005
1.073622e-003,-1.934754e-005
1.405208e-003,-4.398147e-005
1.654303e-003,-6.423963e-005
1.728691e-003,-8.044617e-005
1.586235e-003,-8.887356e-005
1.246546e-003,-9.049421e-005
7.739625e-004,-9.195280e-005
2.503292e-004,-9.762509e-005
-2.494803e-004,-1.081593e-004
-6.823567e-004,-1.237176e-004
-1.034687e-003,-1.457585e-004
-1.289453e-003,-1.733096e-004
-1.424292e-003,-2.010227e-004
-1.434502e-003,-2.254946e-004
-1.345690e-003,-2.423494e-004
-1.218144e-003,-2.488320e-004
-1.121716e-003,-2.439701e-004
-1.102754e-003,-2.313290e-004
-1.171794e-003,-2.156086e-004
-1.286860e-003,-2.018331e-004
-1.350066e-003,-1.869231e-004
-1.269357e-003,-1.721751e-004
-1.013780e-003,-1.650443e-004
-6.295234e-004,-1.661787e-004
-2.100984e-004,-1.729855e-004
1.480659e-004,-1.843300e-004
3.841952e-004,-1.955125e-004
4.973168e-004,-1.989159e-004
5.200059e-004,-1.904885e-004
4.963444e-004,-1.742820e-004
4.619866e-004,-1.590478e-004
4.401077e-004,-1.485136e-004
4.344354e-004,-1.438137e-004
4.339493e-004,-1.350622e-004
4.281149e-004,-1.144799e-004
4.120704e-004,-8.401160e-005
3.888950e-004,-5.176061e-005
3.640991e-004,-2.469570e-005
3.381686e-004,-5.571990e-006
3.062417e-004,5.772582e-006
2.713977e-004,1.355172e-005
2.363916e-004,2.392390e-005
2.030061e-004,4.175109e-005
1.748067e-004,6.152305e-005
1.560072e-004,7.691926e-005
1.556830e-004,8.761557e-005
1.757791e-004,1.007429e-004
2.059233e-004,1.190562e-004
2.357433e-004,1.407730e-004
2.574601e-004,1.636242e-004
2.650771e-004,1.842065e-004
2.538946e-004,1.996027e-004
2.276400e-004,2.083542e-004
1.895547e-004,2.120818e-004
1.488763e-004,2.096508e-004
1.130598e-004,2.052750e-004
9.134307e-005,2.030061e-004
8.793970e-005,2.012234e-004
9.944634e-005,1.983062e-004
1.154908e-004,1.949028e-004
1.263492e-004,1.898788e-004
1.304008e-004,1.877720e-004
1.269974e-004,1.916615e-004
1.211631e-004,2.007372e-004
1.187321e-004,2.101370e-004
1.240803e-004,2.167816e-004
1.360731e-004,2.196988e-004
1.467694e-004,2.161334e-004
1.474177e-004,2.077060e-004
1.307250e-004,1.939304e-004
1.174356e-004,1.751309e-004
1.412592e-004,1.577899e-004
2.159713e-004,1.441764e-004
3.250413e-004,1.331559e-004
4.310321e-004,1.222976e-004
4.989374e-004,1.086841e-004
5.156302e-004,9.263960e-005
4.995857e-004,7.497447e-005
4.806241e-004,5.763349e-005
4.736553e-004,4.175109e-005
4.781931e-004,2.651694e-005
4.837033e-004,1.387585e-005
4.780310e-004,7.485573e-007
4.566384e-004,-1.318906e-005
4.068843e-004,-2.631635e-005
3.159656e-004,-3.798505e-005
1.945787e-004,-5.095028e-005
8.097089e-005,-6.812920e-005
-5.409925e-006,-8.919769e-005
-8.498399e-005,-1.122110e-004
-1.938919e-004,-1.323071e-004
-3.350507e-004,-1.433275e-004
-4.723200e-004,-1.462447e-004
-5.708557e-004,-1.475412e-004
-6.212580e-004,-1.530514e-004
-6.385990e-004,-1.606685e-004
-6.452437e-004,-1.665028e-004
-6.572366e-004,-1.677994e-004
-6.812222e-004,-1.632615e-004
-7.065044e-004,-1.527273e-004
-7.128249e-004,-1.387897e-004
-6.943495e-004,-1.246900e-004
-6.685811e-004,-1.125351e-004
-6.616123e-004,-1.063766e-004
-6.890013e-004,-1.094559e-004
-7.458862e-004,-1.191798e-004
-7.995299e-004,-1.264727e-004
-8.058504e-004,-1.284175e-004
-7.351899e-004,-1.276072e-004
-5.891691e-004,-1.227452e-004
-3.846427e-004,-1.131834e-004
-1.431655e-004,-9.713889e-005
1.090082e-004,-7.882551e-005
3.435168e-004,-5.921561e-005
5.274609e-004,-3.344723e-005
6.347483e-004,-2.330684e-006
6.608408e-004,2.894792e-005
6.256726e-004,5.487838e-005
5.577672e-004,7.076078e-005
4.882411e-004,7.821578e-005
4.388112e-004,8.242948e-005
4.159600e-004,9.004655e-005
4.141773e-004,1.046324e-004
4.128807e-004,1.258630e-004
3.828986e-004,1.464453e-004
3.005694e-004,1.631380e-004
1.542244e-004,1.748067e-004
-5.629844e-005,1.812893e-004
-3.190063e-004,1.833962e-004
-6.001896e-004,1.843686e-004
-8.531735e-004,1.867996e-004
-1.028366e-003,1.947408e-004
-1.091085e-003,2.054371e-004
-1.030149e-003,2.119197e-004
-8.419910e-004,2.119197e-004
-5.274223e-004,2.086784e-004
-1.191798e-004,2.054371e-004
3.117519e-004,2.015475e-004
6.819093e-004,1.968476e-004
9.371624e-004,1.895547e-004
1.067625e-003,1.759412e-004
1.098742e-003,1.581140e-004
1.072811e-003,1.407730e-004
1.028405e-003,1.305629e-004
9.810822e-004,1.279698e-004
9.248455e-004,1.338042e-004
8.477023e-004,1.441764e-004
7.379840e-004,1.542244e-004
5.890459e-004,1.553589e-004
3.916502e-004,1.436902e-004
1.461212e-004,1.229458e-004
-1.442999e-004,1.017153e-004
-4.726442e-004,8.680524e-005
-8.181673e-004,7.999851e-005
-1.131764e-003,7.740546e-005
-1.329159e-003,7.367795e-005
-1.328835e-003,6.055066e-005
-1.099675e-003,4.142696e-005
-6.980770e-004,2.165498e-005
-2.486699e-004,7.069105e-006
1.187321e-004,-1.196227e-006
3.446512e-004,-7.030578e-006
4.608521e-004,-1.351319e-005
5.358884e-004,-2.064406e-005
6.127074e-004,-2.258885e-005
6.862851e-004,-2.048200e-005
7.315014e-004,-1.967167e-005
7.336082e-004,-2.404744e-005
6.943883e-004,-3.328516e-005
6.214589e-004,-4.349527e-005
5.213025e-004,-5.305713e-005
3.997535e-004,-6.586029e-005
2.671840e-004,-8.563225e-005
1.316974e-004,-1.105903e-004
9.106227e-007,-1.302002e-004
-1.086455e-004,-1.410586e-004
-1.865989e-004,-1.477033e-004
-2.413770e-004,-1.524032e-004
-2.956689e-004,-1.540238e-004
-3.724878e-004,-1.546721e-004
-4.851232e-004,-1.556445e-004
-6.266062e-004,-1.553203e-004
-7.460483e-004,-1.520790e-004
-7.721409e-004,-1.459206e-004
-6.585331e-004,-1.384655e-004
-4.096008e-004,-1.306864e-004
-8.190475e-005,-1.242038e-004
2.360674e-004,-1.156143e-004
4.637693e-004,-1.024871e-004
5.697600e-004,-9.017008e-005
5.747841e-004,-8.044617e-005
5.256782e-004,-7.120844e-005
4.642555e-004,-6.116039e-005
4.117463e-004,-5.013995e-005
3.783608e-004,-3.798505e-005
3.548613e-004,-2.550602e-005
3.310377e-004,-9.623623e-006
3.047831e-004,1.128280e-005
2.770700e-004,3.721326e-005
2.571359e-004,6.573675e-005
2.530843e-004,9.344993e-005
2.631324e-004,1.169494e-004
2.777182e-004,1.338042e-004
2.848491e-004,1.423936e-004
2.785285e-004,1.415833e-004
2.597290e-004,1.362352e-004
2.350950e-004,1.312112e-004
2.111094e-004,1.318594e-004
1.866375e-004,1.430419e-004
1.642725e-004,1.639484e-004
1.529279e-004,1.872858e-004
1.529279e-004,2.072198e-004
1.607070e-004,2.218057e-004
1.705930e-004,2.297469e-004
1.785342e-004,2.326641e-004
1.773998e-004,2.303951e-004
1.566554e-004,2.248849e-004
9.944634e-005,2.174299e-004
-6.706447e-006,2.072198e-004
-1.583996e-004,1.961994e-004
-3.303509e-004,1.869616e-004
-4.940368e-004,1.829100e-004
-6.204477e-004,1.827479e-004
-6.911082e-004,1.867996e-004
-7.052079e-004,1.927960e-004
-6.739292e-004,1.963614e-004
-6.172064e-004,1.987924e-004
-5.525423e-004,1.983062e-004
-4.852853e-004,1.924718e-004
-4.144627e-004,1.796687e-004
-3.421817e-004,1.607070e-004
-2.757348e-004,1.355869e-004
-2.178775e-004,1.067393e-004
-1.626133e-004,7.999851e-005
-1.045939e-004,5.536457e-005
-4.446767e-005,3.364782e-005
1.257933e-005,1.501031e-005
6.687121e-005,-7.100305e-007
1.125736e-004,-1.416145e-005
1.396385e-004,-2.696461e-005
1.388282e-004,-3.539201e-005
1.158149e-004,-3.895745e-005
8.080883e-005,-4.171256e-005
4.888196e-005,-4.997789e-005
2.927205e-005,-6.261898e-005
2.603075e-005,-7.817725e-005
3.364782e-005,-9.746302e-005
4.515445e-005,-1.220970e-004
5.017848e-005,-1.541859e-004
4.547859e-005,-1.917850e-004
3.607880e-005,-2.297083e-004
2.846173e-005,-2.585559e-004
2.878586e-005,-2.754107e-004
3.640293e-005,-2.817312e-004
4.515445e-005,-2.793003e-004
4.661304e-005,-2.681178e-004
3.559260e-005,-2.499665e-004
1.598270e-005,-2.245222e-004
-3.303076e-006,-1.964849e-004
-1.254080e-005,-1.723372e-004
-4.599598e-006,-1.541859e-004
2.214118e-005,-1.441378e-004
5.941620e-005,-1.438137e-004
9.344993e-005,-1.473791e-004
1.127357e-004,-1.473791e-004
1.106288e-004,-1.405724e-004
9.296373e-005,-1.310105e-004
7.384002e-005,-1.255003e-004
6.525056e-005,-1.235555e-004
6.460230e-005,-1.201522e-004
6.751948e-005,-1.101041e-004
6.914012e-005,-8.935975e-005
6.816773e-005,-5.937768e-005
6.589881e-005,-2.664048e-005
6.038860e-005,3.017472e-006
5.293359e-005,2.943412e-005
4.709924e-005,5.260946e-005
4.320967e-005,7.400208e-005
3.948217e-005,9.409818e-005
3.510641e-005,1.112771e-004
2.829966e-005,1.279698e-004
1.857574e-005,1.467694e-004
8.527692e-006,1.642725e-004
2.693341e-006,1.759412e-004
4.244267e-007,1.808031e-004
2.531276e-006,1.806411e-004
4.151929e-006,1.816135e-004
8.851824e-006,1.866375e-004
1.614476e-005,1.950649e-004
2.246531e-005,2.090025e-004
2.797553e-005,2.255332e-004
3.737532e-005,2.373639e-004
5.585077e-005,2.423880e-004
7.675720e-005,2.407673e-004
9.085688e-005,2.368777e-004
9.377406e-005,2.397949e-004
8.486046e-005,2.508154e-004
7.870197e-005,2.624841e-004
1.059290e-004,2.681563e-004
1.817755e-004,2.668598e-004
2.939248e-004,2.582704e-004
4.149876e-004,2.472499e-004
5.153061e-004,2.373639e-004
5.712186e-004,2.310434e-004
5.798081e-004,2.286124e-004
5.504743e-004,2.294227e-004
4.961824e-004,2.315296e-004
4.323286e-004,2.336365e-004
3.702575e-004,2.337985e-004
3.243930e-004,2.302331e-004
2.989488e-004,2.192126e-004
2.739907e-004,2.004130e-004
2.171058e-004,1.808031e-004
1.038221e-004,1.665414e-004
-7.704279e-005,1.551968e-004
-3.107410e-004,1.396385e-004
-5.731247e-004,1.161391e-004
-8.359946e-004,8.858796e-005
-1.051703e-003,6.314371e-005
-1.157046e-003,4.369587e-005
-1.117664e-003,2.927205e-005
-9.520333e-004,1.517237e-005
-7.141214e-004,-1.682422e-006
-4.742648e-004,-2.145439e-005
-2.852967e-004,-4.106429e-005
-1.660166e-004,-5.467778e-005
-1.109144e-004,-6.569822e-005
-9.956988e-005,-7.866345e-005
-1.044318e-004,-9.535618e-005
-1.068628e-004,-1.183694e-004
-1.015147e-004,-1.446240e-004
-9.098041e-005,-1.736337e-004
-7.704279e-005,-2.016710e-004
-5.273300e-005,-2.243602e-004
-1.724069e-005,-2.376495e-004
2.424803e-005,-2.420253e-004
6.103686e-005,-2.400805e-004
8.469840e-005,-2.371633e-004
8.761557e-005,-2.332737e-004
6.444023e-005,-2.276015e-004
1.598270e-005,-2.240360e-004
-4.689865e-005,-2.250084e-004
-1.063766e-004,-2.271153e-004
-1.402483e-004,-2.272773e-004
-1.340898e-004,-2.248464e-004
-8.417367e-005,-2.183637e-004
3.017472e-006,-2.089640e-004
1.085220e-004,-1.964849e-004
2.081922e-004,-1.797922e-004
2.827423e-004,-1.577513e-004
3.284447e-004,-1.321450e-004
3.595612e-004,-1.102662e-004
3.863020e-004,-9.503204e-005
4.080188e-004,-8.498399e-005
4.232529e-004,-7.574627e-005
4.273046e-004,-6.586029e-005
4.172565e-004,-5.451572e-005
3.942432e-004,-3.863332e-005
3.647473e-004,-1.740276e-005
3.282826e-004,5.448452e-006
2.788527e-004,2.457216e-005
2.171058e-004,3.543054e-005
1.496866e-004,3.915804e-005
8.016057e-005,3.883391e-005
2.116879e-005,3.915804e-005
-1.724069e-005,4.353380e-005
-2.809907e-005,5.147500e-005
-1.578211e-005,6.444023e-005
9.338019e-006,8.518459e-005
3.543054e-005,1.117633e-004
5.455425e-005,1.401247e-004
6.152305e-005,1.662173e-004
5.358185e-005,1.863134e-004
3.786152e-005,1.994406e-004
2.667901e-005,2.080301e-004
4.628891e-005,2.164575e-004
1.227837e-004,2.240746e-004
2.603772e-004,2.278021e-004
4.305459e-004,2.274780e-004
5.858046e-004,2.247229e-004
6.895264e-004,2.214815e-004
7.271256e-004,2.196988e-004
7.075156e-004,2.167816e-004
6.511169e-004,2.127300e-004
5.760806e-004,2.093267e-004
4.890515e-004,2.094887e-004
3.861400e-004,2.115956e-004
2.611876e-004,2.119197e-004
1.211631e-004,2.090025e-004
-2.006553e-006,2.013854e-004
-5.208474e-005,1.902029e-004
-5.085794e-006,1.748067e-004
9.523264e-005,1.568175e-004
1.637863e-004,1.393144e-004
1.266733e-004,1.248906e-004
-4.252288e-005,1.109530e-004
-3.134961e-004,9.555677e-005
-6.165582e-004,7.724339e-005
-8.543079e-004,5.666109e-005
-9.437680e-004,3.705119e-005
-8.583596e-004,1.873781e-005
-6.335750e-004,3.665733e-006
-3.522297e-004,-6.220252e-006
-1.058904e-004,-1.270286e-005
4.580272e-005,-1.610624e-005
8.421220e-005,-1.934754e-005
2.214118e-005,-2.453363e-005
-1.146419e-004,-3.296103e-005
-2.927517e-004,-4.673658e-005
-4.843129e-004,-6.440170e-005
-6.515643e-004,-8.093236e-005
-7.389174e-004,-9.730096e-005
-6.928909e-004,-1.130213e-004
-4.988988e-004,-1.248521e-004
-1.844921e-004,-1.297140e-004
1.897167e-004,-1.290658e-004
5.383193e-004,-1.277692e-004
7.856312e-004,-1.279313e-004
8.909738e-004,-1.293899e-004
8.549952e-004,-1.279313e-004
7.167534e-004,-1.216107e-004
5.303781e-004,-1.135075e-004
3.498373e-004,-1.105903e-004
2.062474e-004,-1.128592e-004
1.086841e-004,-1.162626e-004
4.888196e-005,-1.167488e-004
1.403791e-005,-1.139937e-004
-8.165035e-006,-1.088076e-004
-2.971972e-005,-1.026491e-004
-6.310517e-005,-9.551824e-005
-1.102662e-004,-8.887356e-005
-1.713648e-004,-8.417367e-005
-2.428356e-004,-8.158062e-005
-3.097686e-004,-7.817725e-005
-3.519055e-004,-6.845333e-005
-3.564434e-004,-4.641245e-005
-3.258130e-004,-1.399939e-005
-2.726556e-004,2.068259e-005
-2.117191e-004,5.293359e-005
-1.572651e-004,7.789165e-005
-1.182074e-004,9.263960e-005
-9.568031e-005,9.847395e-005
-8.158062e-005,9.879808e-005
-6.261898e-005,9.766362e-005
-2.858527e-005,9.685330e-005
1.857574e-005,9.652917e-005
6.638502e-005,9.912221e-005
9.912221e-005,1.067393e-004
1.099806e-004,1.175977e-004
1.057669e-004,1.321835e-004
9.442231e-005,1.517934e-004
7.935024e-005,1.743205e-004
6.055066e-005,1.966855e-004
3.802358e-005,2.158093e-004
1.306552e-005,2.260194e-004
-1.270286e-005,2.281262e-004
-3.409549e-005,2.278021e-004
-4.025397e-005,2.292607e-004
-2.501983e-005,2.295848e-004
5.934648e-006,2.265056e-004
3.980630e-005,2.195368e-004
6.103686e-005,2.112714e-004
6.217132e-005,2.033302e-004
4.758544e-005,1.974959e-004
2.748934e-005,1.955511e-004
8.851824e-006,1.970097e-004
-1.367526e-005,1.978200e-004
-5.013995e-005,1.953890e-004
-1.015147e-004,1.879340e-004
-1.613168e-004,1.767515e-004
-2.175534e-004,1.644345e-004
-2.558008e-004,1.548727e-004
-2.695764e-004,1.446626e-004
-2.617972e-004,1.328318e-004
-2.397564e-004,1.190562e-004
-2.076674e-004,1.007429e-004
-1.720131e-004,8.210535e-005
-1.418689e-004,6.606088e-005
-1.235555e-004,5.325772e-005
-1.138316e-004,4.094075e-005
-1.031353e-004,2.700314e-005
-8.012204e-005,1.209313e-005
-3.328516e-005,-3.303076e-006
4.094075e-005,-1.724069e-005
1.359110e-004,-3.247483e-005
2.474120e-004,-5.159854e-005
3.832228e-004,-7.039812e-005
5.486915e-004,-8.692878e-005
7.261531e-004,-1.016767e-004
8.786568e-004,-1.146419e-004
9.797857e-004,-1.280934e-004
1.017871e-003,-1.410586e-004
9.990715e-004,-1.527273e-004
9.404037e-004,-1.624512e-004
8.543470e-004,-1.671511e-004
7.360392e-004,-1.655305e-004
5.738117e-004,-1.618029e-004
3.623164e-004,-1.622891e-004
1.146805e-004,-1.676373e-004
-1.300382e-004,-1.734716e-004
-3.227338e-004,-1.757406e-004
-4.433104e-004,-1.729855e-004
-5.125122e-004,-1.690959e-004
-5.770142e-004,-1.658546e-004
-6.692294e-004,-1.635857e-004
-7.844578e-004,-1.658546e-004
-8.731075e-004,-1.710407e-004
-8.703524e-004,-1.731475e-004
-7.278970e-004,-1.697442e-004
-4.450931e-004,-1.648822e-004
-7.590833e-005,-1.580754e-004
2.932765e-004,-1.499722e-004
5.798081e-004,-1.384655e-004
7.339324e-004,-1.253383e-004
7.467355e-004,-1.131834e-004
6.402585e-004,-9.892161e-005
4.498317e-004,-7.817725e-005
2.060853e-004,-4.722278e-005
-7.104638e-005,-1.189254e-005
-3.593606e-004,1.922400e-005
-6.165582e-004,4.693717e-005
-7.781372e-004,7.400208e-005
-7.990437e-004,9.944634e-005
-6.825188e-004,1.200286e-004
-4.841508e-004,1.336421e-004
-2.836761e-004,1.417454e-004
-1.462447e-004,1.490383e-004
-9.568031e-005,1.590864e-004
-1.266348e-004,1.735102e-004
-2.128535e-004,1.926339e-004
-3.241924e-004,2.115956e-004
-4.410415e-004,2.278021e-004
-5.538389e-004,2.367157e-004
-6.512401e-004,2.373639e-004
-7.079630e-004,2.308813e-004
-6.996976e-004,2.232643e-004
-6.202856e-004,2.172679e-004
-4.935506e-004,2.101370e-004
-3.681121e-004,1.999268e-004
-2.862691e-004,1.851789e-004
-2.580697e-004,1.680000e-004
-2.629317e-004,1.561692e-004
-2.626076e-004,1.566554e-004
-2.198223e-004,1.681620e-004
-1.183694e-004,1.808031e-004
3.656499e-005,1.842065e-004
2.269918e-004,1.757791e-004
4.234150e-004,1.633001e-004
5.918010e-004,1.504969e-004
7.041123e-004,1.412592e-004
7.548388e-004,1.347766e-004
7.554871e-004,1.286181e-004
7.287462e-004,1.188942e-004
6.973055e-004,1.072255e-004
6.747784e-004,9.458438e-005
6.621373e-004,8.307774e-005
6.511169e-004,7.157111e-005
6.323173e-004,5.698522e-005
6.037938e-004,4.110282e-005
5.715428e-004,3.283749e-005
5.379952e-004,3.040651e-005
5.012064e-004,2.862379e-005
4.683071e-004,2.019640e-005
4.417284e-004,5.124321e-006
4.216323e-004,-1.497178e-005
4.067223e-004,-3.830919e-005
3.934329e-004,-5.921561e-005
3.783608e-004,-7.380149e-005
3.595612e-004,-8.498399e-005
3.384927e-004,-9.535618e-005
3.200173e-004,-1.060525e-004
3.057555e-004,-1.188556e-004
2.924662e-004,-1.326312e-004
2.743149e-004,-1.436516e-004
2.532463e-004,-1.470550e-004
2.333123e-004,-1.446240e-004
2.188885e-004,-1.410586e-004
2.051129e-004,-1.407345e-004
1.887444e-004,-1.439758e-004
1.762653e-004,-1.488377e-004
1.756171e-004,-1.512687e-004
1.882582e-004,-1.496481e-004
2.124059e-004,-1.470550e-004
2.419018e-004,-1.452723e-004
2.598910e-004,-1.434896e-004
2.547049e-004,-1.394379e-004
2.336365e-004,-1.319829e-004
2.289366e-004,-1.183694e-004
2.726942e-004,-1.021629e-004
3.606957e-004,-8.725291e-005
4.610142e-004,-7.769106e-005
5.332953e-004,-7.234290e-005
5.485295e-004,-6.861539e-005
4.992616e-004,-6.699475e-005
3.918123e-004,-6.116039e-005
2.384984e-004,-4.803310e-005
6.168512e-005,-2.712668e-005
-1.101041e-004,-5.409925e-006
-2.532078e-004,1.533444e-005
-3.556330e-004,3.380988e-005
-4.212695e-004,5.034055e-005
-4.600031e-004,6.622294e-005
-4.912817e-004,8.032264e-005
-5.447632e-004,9.361199e-005
-6.473506e-004,1.046324e-004
-8.107124e-004,1.125736e-004
-1.023180e-003,1.179218e-004
-1.246992e-003,1.226217e-004
-1.416512e-003,1.312112e-004
-1.471290e-003,1.464453e-004
-1.390420e-003,1.696206e-004
-1.195293e-003,1.984683e-004
-9.295062e-004,2.271538e-004
-6.327647e-004,2.480603e-004
-3.314853e-004,2.564877e-004
-5.224680e-005,2.555152e-004
1.767515e-004,2.527602e-004
3.357376e-004,2.506533e-004
4.166082e-004,2.496809e-004
4.310321e-004,2.487085e-004
3.999155e-004,2.483844e-004
3.418961e-004,2.490327e-004
2.725321e-004,2.500050e-004
2.007372e-004,2.530843e-004
1.325077e-004,2.589186e-004
7.756752e-005,2.663737e-004
4.839576e-005,2.710735e-004
4.742337e-005,2.701012e-004
6.330578e-005,2.621599e-004
7.870197e-005,2.525981e-004
7.675720e-005,2.466017e-004
4.466826e-005,2.446569e-004
-1.480971e-005,2.433604e-004
-8.433573e-005,2.368777e-004
-1.449482e-004,2.190506e-004
-1.841680e-004,1.866375e-004
-1.917850e-004,1.401247e-004
-1.619650e-004,8.615699e-005
-9.422172e-005,3.429608e-005
2.623614e-007,-5.085794e-006
9.944634e-005,-2.858527e-005
1.824238e-004,-4.187462e-005
2.360674e-004,-5.013995e-005
2.558394e-004,-5.759496e-005
2.420638e-004,-7.088431e-005
2.028440e-004,-8.741498e-005
1.479039e-004,-1.039456e-004
8.988449e-005,-1.186936e-004
4.191315e-005,-1.337657e-004
1.112074e-005,-1.520790e-004
-1.358292e-006,-1.768750e-004
3.017472e-006,-1.987538e-004
1.987227e-005,-2.113949e-004
4.256141e-005,-2.100984e-004
6.606088e-005,-1.971332e-004
8.259155e-005,-1.820611e-004
8.956036e-005,-1.724993e-004
9.004655e-005,-1.716889e-004
8.956036e-005,-1.767130e-004
9.166720e-005,-1.828714e-004
9.669123e-005,-1.831956e-004
1.104668e-004,-1.765509e-004
1.370455e-004,-1.665028e-004
1.710792e-004,-1.567789e-004
1.976579e-004,-1.509446e-004
