3.927847e-004,1.692965e-004
3.487029e-004,1.809652e-004
3.138588e-004,1.924718e-004
2.799871e-004,2.007372e-004
2.388225e-004,2.052750e-004
1.947408e-004,2.049509e-004
1.579519e-004,1.991165e-004
1.305629e-004,1.879340e-004
1.067393e-004,1.736723e-004
8.064677e-005,1.629760e-004
5.277153e-005,1.545486e-004
2.343770e-005,1.449867e-004
-6.176923e-008,1.368834e-004
-1.432352e-005,1.318594e-004
-2.372331e-005,1.282940e-004
-3.231277e-005,1.257009e-004
-3.685060e-005,1.193804e-004
-2.923353e-005,1.085220e-004
-2.330684e-006,9.085688e-005
4.547859e-005,6.606088e-005
1.051186e-004,3.883391e-005
1.670276e-004,1.257933e-005
2.229401e-004,-1.221667e-005
2.705873e-004,-3.522994e-005
3.109416e-004,-5.694670e-005
3.767402e-004,-7.898758e-005
5.334574e-004,-1.011905e-004
8.109135e-004,-1.230693e-004
1.157734e-003,-1.413827e-004
1.469224e-003,-1.535376e-004
1.655113e-003,-1.596961e-004
1.677154e-003,-1.629374e-004
1.536481e-003,-1.697442e-004
1.279769e-003,-1.799543e-004
9.831890e-004,-1.893541e-004
7.060571e-004,-1.934057e-004
4.464283e-004,-1.938919e-004
1.566554e-004,-1.968091e-004
-1.904885e-004,-2.117191e-004
-5.753936e-004,-2.395943e-004
-9.624055e-004,-2.757348e-004
-1.311008e-003,-3.086341e-004
-1.569988e-003,-3.259751e-004
-1.690241e-003,-3.049066e-004
-1.637894e-003,-2.243602e-004
-1.423481e-003,-8.530812e-005
-1.111830e-003,8.664318e-005
-8.068228e-004,2.618358e-004
-6.100755e-004,4.232529e-004
-5.656697e-004,5.652222e-004
-6.548056e-004,6.798024e-004
-8.086055e-004,7.519216e-004
-9.426335e-004,7.671557e-004
-1.000005e-003,7.195085e-004
-9.765052e-004,6.102764e-004
-9.301545e-004,4.464283e-004
-9.395542e-004,2.363916e-004
-1.037604e-003,-1.108221e-005
-1.198211e-003,-2.861070e-004
-1.373565e-003,-5.794452e-004
-1.526555e-003,-8.812108e-004
-1.638056e-003,-1.171146e-003
-1.678410e-003,-1.425912e-003
-1.604508e-003,-1.621849e-003
-1.395444e-003,-1.739995e-003
-1.081199e-003,-1.771598e-003
-7.283832e-004,-1.719575e-003
-4.021458e-004,-1.598674e-003
-1.389517e-004,-1.427209e-003
6.184718e-005,-1.225438e-003
2.192126e-004,-1.007784e-003
3.527545e-004,-7.870508e-004
4.775448e-004,-5.708557e-004
6.007145e-004,-3.695707e-004
7.162672e-004,-1.883817e-004
8.070238e-004,-2.420950e-005
8.587227e-004,1.278078e-004
8.673123e-004,2.676702e-004
8.434886e-004,3.926226e-004
8.052412e-004,5.021787e-004
7.720177e-004,5.930975e-004
7.580801e-004,6.632718e-004
7.723419e-004,7.172396e-004
8.175581e-004,7.532181e-004
8.815739e-004,7.718556e-004
9.379727e-004,7.783383e-004
9.554758e-004,7.796348e-004
9.154457e-004,7.773659e-004
8.237166e-004,7.726660e-004
7.042743e-004,7.689385e-004
5.869390e-004,7.650489e-004
4.874308e-004,7.561353e-004
4.140152e-004,7.407391e-004
3.668542e-004,7.237222e-004
3.323342e-004,7.063812e-004
2.978143e-004,6.877437e-004
2.590807e-004,6.644063e-004
2.200230e-004,6.353966e-004
1.861513e-004,6.031455e-004
1.676758e-004,5.731634e-004
1.751309e-004,5.482053e-004
2.140265e-004,5.284334e-004
2.775562e-004,5.091476e-004
3.509718e-004,4.859722e-004
4.192013e-004,4.569625e-004
4.733311e-004,4.200116e-004
5.133613e-004,3.769022e-004
5.448020e-004,3.308757e-004
5.752703e-004,2.879283e-004
6.161107e-004,2.508154e-004
6.713751e-004,2.198609e-004
7.321496e-004,1.931201e-004
7.810934e-004,1.662173e-004
8.007033e-004,1.349386e-004
7.791486e-004,9.879808e-005
7.057329e-004,5.585077e-005
5.695980e-004,1.128280e-005
3.752816e-004,-2.971972e-005
1.561692e-004,-6.391550e-005
-4.122636e-005,-9.033215e-005
-1.807646e-004,-1.102662e-004
-2.488320e-004,-1.227452e-004
-2.632558e-004,-1.293899e-004
-2.572594e-004,-1.352242e-004
-2.558008e-004,-1.430034e-004
-2.655248e-004,-1.509446e-004
-2.823795e-004,-1.562927e-004
-2.985861e-004,-1.598582e-004
-3.081479e-004,-1.640719e-004
-3.121996e-004,-1.684476e-004
-3.151167e-004,-1.710407e-004
-3.198166e-004,-1.731475e-004
-3.316474e-004,-1.765509e-004
-3.528779e-004,-1.853024e-004
-3.796187e-004,-2.003745e-004
-4.003631e-004,-2.146363e-004
-4.061974e-004,-2.241981e-004
-3.747568e-004,-2.279256e-004
-2.713591e-004,-2.258187e-004
-7.558420e-005,-2.206326e-004
1.921477e-004,-2.151224e-004
4.730070e-004,-2.096122e-004
7.010330e-004,-1.997262e-004
8.400852e-004,-1.836818e-004
8.984288e-004,-1.627754e-004
9.063699e-004,-1.381414e-004
8.942151e-004,-1.112386e-004
8.814119e-004,-8.368748e-005
8.611537e-004,-5.532604e-005
8.068618e-004,-3.053005e-005
6.849886e-004,-1.270286e-005
4.712243e-004,4.244267e-007
1.650828e-004,9.662150e-006
-2.088019e-004,1.565857e-005
-6.277406e-004,1.987227e-005
-1.077472e-003,2.505836e-005
-1.532065e-003,3.575467e-005
-1.939822e-003,5.098881e-005
-2.223436e-003,6.930219e-005
-2.296042e-003,8.032264e-005
-2.106101e-003,8.388807e-005
-1.682138e-003,8.453633e-005
-1.136140e-003,8.113296e-005
-6.082929e-004,7.529860e-005
-2.083157e-004,7.011252e-005
1.906194e-005,7.286763e-005
8.615699e-005,8.631905e-005
3.607880e-005,1.086841e-004
-8.595638e-005,1.365593e-004
-2.415391e-004,1.675138e-004
-4.083043e-004,1.974959e-004
-5.734488e-004,2.219677e-004
-7.209282e-004,2.349330e-004
-8.301602e-004,2.393087e-004
-8.865589e-004,2.391467e-004
-8.896381e-004,2.381743e-004
-8.450702e-004,2.372019e-004
-7.530171e-004,2.367157e-004
-6.150996e-004,2.372019e-004
-4.358554e-004,2.401191e-004
-2.238740e-004,2.474120e-004
-3.858999e-007,2.589186e-004
2.156472e-004,2.701012e-004
4.094774e-004,2.736666e-004
5.754323e-004,2.629703e-004
7.088122e-004,2.359054e-004
8.010275e-004,1.958752e-004
8.468920e-004,1.496866e-004
8.477023e-004,1.077117e-004
8.133444e-004,7.481241e-005
7.613214e-004,4.726130e-005
7.070294e-004,2.149292e-005
6.577615e-004,-5.896120e-006
6.198382e-004,-3.685060e-005
5.955285e-004,-7.120844e-005
5.807805e-004,-1.079973e-004
5.640878e-004,-1.493239e-004
5.417228e-004,-1.942160e-004
5.148199e-004,-2.387840e-004
4.935893e-004,-2.729798e-004
4.822447e-004,-2.932379e-004
4.765725e-004,-3.011791e-004
4.702519e-004,-3.015032e-004
4.626348e-004,-2.969654e-004
4.521006e-004,-2.893484e-004
4.428628e-004,-2.801106e-004
4.391353e-004,-2.700626e-004
4.376768e-004,-2.553146e-004
4.358940e-004,-2.371633e-004
4.274666e-004,-2.209568e-004
4.028327e-004,-2.084778e-004
3.514580e-004,-2.006986e-004
2.666978e-004,-1.982676e-004
1.485521e-004,-1.956746e-004
1.306552e-005,-1.898403e-004
-1.101041e-004,-1.778474e-004
-1.968091e-004,-1.611547e-004
-2.292221e-004,-1.460826e-004
-1.929195e-004,-1.355484e-004
-8.239095e-005,-1.311726e-004
8.129502e-005,-1.305243e-004
2.514636e-004,-1.245279e-004
3.875985e-004,-1.123730e-004
4.731691e-004,-9.535618e-005
5.106062e-004,-7.817725e-005
5.083373e-004,-6.261898e-005
4.756001e-004,-4.706071e-005
4.148255e-004,-3.085418e-005
3.243930e-004,-1.092015e-005
2.015475e-004,1.241726e-005
5.358185e-005,4.094075e-005
-1.096179e-004,7.643307e-005
-2.721694e-004,1.166253e-004
-4.066836e-004,1.539003e-004
-4.901472e-004,1.837203e-004
-5.193190e-004,2.086784e-004
-5.092709e-004,2.295848e-004
-4.880404e-004,2.449810e-004
-4.873921e-004,2.517878e-004
-5.345531e-004,2.483844e-004
-6.322784e-004,2.342847e-004
-7.616066e-004,2.115956e-004
-8.863969e-004,1.855030e-004
-9.656468e-004,1.608691e-004
-9.696984e-004,1.347766e-004
-8.844521e-004,1.080358e-004
-7.225489e-004,8.453633e-005
-5.202913e-004,6.557468e-005
-3.196545e-004,5.147500e-005
-1.483515e-004,4.304761e-005
-1.740276e-005,3.672706e-005
6.978839e-005,3.186510e-005
1.193804e-004,2.975825e-005
1.428799e-004,3.316162e-005
1.519555e-004,4.223728e-005
1.550348e-004,5.455425e-005
1.555210e-004,6.978839e-005
1.582761e-004,9.296373e-005
1.624898e-004,1.222976e-004
1.701068e-004,1.480659e-004
1.829100e-004,1.647587e-004
1.989545e-004,1.699448e-004
2.167816e-004,1.650828e-004
2.349330e-004,1.532520e-004
2.537325e-004,1.375317e-004
2.730183e-004,1.234320e-004
2.893870e-004,1.153287e-004
2.950592e-004,1.109530e-004
2.837146e-004,1.064152e-004
2.576221e-004,9.701536e-005
2.303951e-004,7.951231e-005
2.122438e-004,5.536457e-005
2.057612e-004,3.267542e-005
2.062474e-004,2.068259e-005
2.028440e-004,2.181705e-005
1.940925e-004,2.992031e-005
1.855030e-004,3.721326e-005
1.845306e-004,3.964424e-005
1.905271e-004,3.413401e-005
1.949028e-004,1.711715e-005
1.937684e-004,-7.516774e-006
1.903650e-004,-3.522994e-005
1.796687e-004,-5.905355e-005
1.602208e-004,-7.347736e-005
1.346145e-004,-7.850138e-005
1.080358e-004,-7.769106e-005
8.712937e-005,-7.444975e-005
7.302970e-005,-6.974985e-005
6.136099e-005,-6.537409e-005
5.487838e-005,-6.278104e-005
5.714729e-005,-6.245691e-005
6.784360e-005,-6.456377e-005
8.097089e-005,-6.877746e-005
9.344993e-005,-6.893953e-005
1.025256e-004,-6.261898e-005
1.093323e-004,-5.402952e-005
1.090082e-004,-4.657452e-005
1.004187e-004,-3.830919e-005
8.712937e-005,-3.117831e-005
7.416415e-005,-2.583016e-005
5.730935e-005,-2.242678e-005
3.218923e-005,-1.788895e-005
-1.682422e-006,-8.813297e-006
-4.122636e-005,5.286387e-006
-7.428769e-005,2.441009e-005
-9.697683e-005,4.758544e-005
-1.084835e-004,6.897806e-005
-1.058904e-004,8.567078e-005
-8.611845e-005,9.652917e-005
-5.176061e-005,1.010670e-004
-1.513384e-005,1.031738e-004
1.079661e-005,1.072255e-004
1.776542e-005,1.138702e-004
-3.858999e-007,1.231079e-004
-4.106429e-005,1.378558e-004
-9.454585e-005,1.506590e-004
-1.447861e-004,1.598967e-004
-1.768750e-004,1.725378e-004
-1.788198e-004,1.929580e-004
-1.504584e-004,2.174299e-004
-1.050801e-004,2.380122e-004
-6.634648e-005,2.534084e-004
-4.851930e-005,2.670219e-004
-4.916756e-005,2.796630e-004
-5.710876e-005,2.864697e-004
-5.759496e-005,2.837146e-004
-3.263690e-005,2.744769e-004
4.661304e-005,2.608634e-004
2.055991e-004,2.459534e-004
4.323286e-004,2.284504e-004
6.789921e-004,2.078681e-004
8.853014e-004,1.882582e-004
1.009120e-003,1.756171e-004
1.036671e-003,1.701068e-004
9.776788e-004,1.691344e-004
8.532125e-004,1.655690e-004
6.908230e-004,1.573037e-004
5.127130e-004,1.459591e-004
3.213138e-004,1.323456e-004
1.107909e-004,1.180839e-004
-1.193418e-004,1.010670e-004
-3.551469e-004,8.421220e-005
-5.726385e-004,6.816773e-005
-7.538275e-004,5.374392e-005
-9.037378e-004,4.158902e-005
-1.047328e-003,3.267542e-005
-1.197724e-003,2.813760e-005
-1.344555e-003,2.424803e-005
-1.459622e-003,2.084466e-005
-1.494466e-003,1.257933e-005
-1.404520e-003,-2.238346e-007
-1.183463e-003,-1.351319e-005
-8.687317e-004,-2.696461e-005
-5.219121e-004,-4.057810e-005
-2.026434e-004,-5.694670e-005
5.358185e-005,-7.720486e-005
2.334744e-004,-1.007043e-004
3.487029e-004,-1.261486e-004
4.187151e-004,-1.554824e-004
4.610142e-004,-1.864369e-004
4.775448e-004,-2.135018e-004
4.545315e-004,-2.361909e-004
3.749574e-004,-2.564491e-004
2.362295e-004,-2.749245e-004
6.719535e-005,-2.893484e-004
-8.676672e-005,-2.963172e-004
-1.814128e-004,-2.916173e-004
-1.964849e-004,-2.739521e-004
-1.358725e-004,-2.494803e-004
-2.858527e-005,-2.241981e-004
8.956036e-005,-2.034537e-004
1.971717e-004,-1.919471e-004
2.788527e-004,-1.888679e-004
3.328204e-004,-1.929195e-004
3.696093e-004,-2.003745e-004
4.093153e-004,-2.079916e-004
4.650658e-004,-2.110708e-004
5.272989e-004,-2.078295e-004
5.704083e-004,-1.961608e-004
5.757565e-004,-1.759026e-004
5.451261e-004,-1.522411e-004
4.932652e-004,-1.308485e-004
4.342734e-004,-1.149661e-004
3.757678e-004,-1.052422e-004
3.166139e-004,-9.827335e-005
2.572980e-004,-9.114248e-005
1.999268e-004,-8.465986e-005
1.441764e-004,-7.995997e-005
8.858796e-005,-7.282909e-005
3.510641e-005,-5.889148e-005
-1.286493e-005,-3.490581e-005
-4.381940e-005,-3.627206e-006
-5.370539e-005,3.089271e-005
-5.208474e-005,6.654708e-005
-5.095028e-005,1.000946e-004
-5.338126e-005,1.279698e-004
-5.532604e-005,1.466074e-004
-4.932962e-005,1.595726e-004
-3.231277e-005,1.761032e-004
-2.492749e-006,1.979821e-004
3.656499e-005,2.243987e-004
7.594687e-005,2.495189e-004
1.051186e-004,2.709115e-004
1.192183e-004,2.845250e-004
1.208390e-004,2.885766e-004
1.101427e-004,2.880904e-004
9.004655e-005,2.850112e-004
6.881599e-005,2.788527e-004
5.341979e-005,2.676702e-004
5.017848e-005,2.530843e-004
5.568870e-005,2.417397e-004
6.541262e-005,2.383363e-004
8.307774e-005,2.410915e-004
1.210010e-004,2.454672e-004
1.976579e-004,2.485465e-004
3.383307e-004,2.480603e-004
5.493398e-004,2.464396e-004
8.112376e-004,2.415777e-004
1.077187e-003,2.362295e-004
1.286576e-003,2.318537e-004
1.397591e-003,2.300710e-004
1.396456e-003,2.289366e-004
1.293059e-003,2.232643e-004
1.113490e-003,2.072198e-004
8.823843e-004,1.811273e-004
6.123833e-004,1.513072e-004
3.114278e-004,1.265113e-004
-1.675450e-005,1.065772e-004
-3.702189e-004,9.037068e-005
-7.492896e-004,7.740546e-005
-1.150401e-003,6.362991e-005
-1.568368e-003,4.288554e-005
-1.991196e-003,1.436204e-005
-2.400412e-003,-1.643037e-005
-2.769597e-003,-4.106429e-005
-3.057750e-003,-5.775702e-005
-3.202313e-003,-6.958779e-005
-3.130518e-003,-8.174268e-005
-2.798283e-003,-9.584238e-005
-2.233970e-003,-1.112386e-004
-1.527203e-003,-1.306864e-004
-7.948300e-004,-1.525652e-004
-1.417068e-004,-1.681235e-004
3.561579e-004,-1.721751e-004
6.780197e-004,-1.647201e-004
8.465679e-004,-1.478653e-004
9.099355e-004,-1.321450e-004
9.147974e-004,-1.251762e-004
8.917841e-004,-1.295519e-004
8.618020e-004,-1.400862e-004
8.413817e-004,-1.535376e-004
8.408955e-004,-1.650443e-004
8.592089e-004,-1.713648e-004
8.945392e-004,-1.763888e-004
9.462381e-004,-1.814128e-004
1.001340e-003,-1.853024e-004
1.045746e-003,-1.817370e-004
1.079456e-003,-1.699062e-004
1.106521e-003,-1.514308e-004
1.122565e-003,-1.311726e-004
1.118190e-003,-1.126972e-004
1.089666e-003,-9.649064e-005
1.046719e-003,-8.093236e-005
1.002637e-003,-6.618442e-005
9.645515e-004,-5.095028e-005
9.314902e-004,-3.522994e-005
8.963220e-004,-1.853722e-005
8.520781e-004,4.244267e-007
7.977861e-004,2.327564e-005
7.360392e-004,4.904402e-005
6.639201e-004,7.092284e-005
5.799701e-004,8.534666e-005
4.848378e-004,9.344993e-005
3.747954e-004,9.733949e-005
2.454672e-004,1.004187e-004
9.831188e-005,1.059290e-004
-6.812920e-005,1.156529e-004
-2.549905e-004,1.289422e-004
-4.497930e-004,1.477418e-004
-6.238511e-004,1.872858e-004
-7.431312e-004,2.679943e-004
-7.917507e-004,3.927847e-004
-7.794338e-004,5.439916e-004
-7.416725e-004,6.981159e-004
-7.129870e-004,8.425161e-004
-7.094215e-004,9.715204e-004
-7.215765e-004,1.078321e-003
-7.236833e-004,1.150116e-003
-7.000218e-004,1.170861e-003
-6.526987e-004,1.130020e-003
-6.048895e-004,1.026947e-003
-5.950035e-004,8.687708e-004
-6.659881e-004,6.674855e-004
-8.390738e-004,4.289252e-004
-1.088168e-003,1.566554e-004
-1.337587e-003,-1.465688e-004
-1.457029e-003,-4.689167e-004
-1.295612e-003,-7.899680e-004
-7.841337e-004,-1.079741e-003
1.679302e-005,-1.314249e-003
9.439692e-004,-1.476963e-003
1.805996e-003,-1.556213e-003
2.459446e-003,-1.550703e-003
2.828958e-003,-1.476801e-003
2.909018e-003,-1.358007e-003
2.755865e-003,-1.215065e-003
2.465281e-003,-1.059158e-003
2.128021e-003,-8.938519e-004
1.786548e-003,-7.209282e-004
1.432111e-003,-5.462218e-004
1.019168e-003,-3.805911e-004
5.007202e-004,-2.319772e-004
-1.712027e-004,-1.008664e-004
-1.012160e-003,1.582063e-005
-1.979041e-003,1.185701e-004
-2.942683e-003,2.067336e-004
-3.712010e-003,2.757735e-004
-4.136462e-003,3.252034e-004
-4.165147e-003,3.563199e-004
-3.866297e-003,3.730126e-004
-3.405381e-003,3.791712e-004
-2.963752e-003,3.747954e-004
-2.651938e-003,3.666921e-004
-2.464428e-003,3.571303e-004
-2.314355e-003,3.483787e-004
-2.090380e-003,3.420582e-004
-1.714389e-003,3.333067e-004
-1.194159e-003,3.183966e-004
-6.163961e-004,2.974902e-004
-8.141856e-005,2.736666e-004
3.420582e-004,2.545429e-004
6.444722e-004,2.436845e-004
8.592089e-004,2.396328e-004
1.025812e-003,2.373639e-004
1.168268e-003,2.333123e-004
1.297110e-003,2.248849e-004
1.411690e-003,2.112714e-004
1.501151e-003,1.960373e-004
1.553660e-003,1.837203e-004
1.566787e-003,1.759412e-004
1.544260e-003,1.754550e-004
1.495640e-003,1.769136e-004
1.432111e-003,1.749688e-004
1.365340e-003,1.696206e-004
1.303107e-003,1.618415e-004
1.252056e-003,1.542244e-004
1.212512e-003,1.508211e-004
1.176533e-003,1.537382e-004
1.135855e-003,1.561692e-004
1.088208e-003,1.539003e-004
1.037481e-003,1.479039e-004
9.872407e-004,1.404489e-004
9.395934e-004,1.375317e-004
8.945392e-004,1.376938e-004
8.585607e-004,1.380179e-004
8.417058e-004,1.389903e-004
8.399231e-004,1.419075e-004
8.383025e-004,1.475797e-004
8.253373e-004,1.573037e-004
7.926000e-004,1.697827e-004
7.318255e-004,1.791825e-004
6.511169e-004,1.824238e-004
5.671670e-004,1.824238e-004
4.955341e-004,1.850168e-004
4.410801e-004,1.900409e-004
4.036430e-004,1.944166e-004
3.840331e-004,1.934442e-004
3.772264e-004,1.863134e-004
3.738230e-004,1.739964e-004
3.681507e-004,1.594105e-004
3.602095e-004,1.482280e-004
3.525924e-004,1.419075e-004
3.446512e-004,1.404489e-004
3.297412e-004,1.469315e-004
3.034866e-004,1.592484e-004
2.644289e-004,1.699448e-004
2.143507e-004,1.730240e-004
1.566554e-004,1.652449e-004
9.928428e-005,1.487142e-004
5.066468e-005,1.260251e-004
1.468618e-005,1.000946e-004
-9.785688e-006,7.546067e-005
-2.793700e-005,5.374392e-005
-5.030202e-005,3.429608e-005
-7.850138e-005,1.889987e-005
-1.044318e-004,5.286387e-006
-1.237176e-004,-8.813297e-006
-1.368449e-004,-2.534396e-005
-1.468929e-004,-4.090223e-005
-1.525652e-004,-5.548811e-005
-1.540238e-004,-6.780507e-005
-1.527273e-004,-8.093236e-005
-1.519170e-004,-1.000561e-004
-1.553203e-004,-1.264727e-004
-1.653684e-004,-1.535376e-004
-1.776853e-004,-1.733096e-004
-1.924333e-004,-1.865989e-004
-2.112329e-004,-1.948643e-004
-2.306807e-004,-2.021572e-004
-2.485079e-004,-2.086398e-004
-2.695764e-004,-2.170672e-004
-3.008550e-004,-2.274394e-004
-3.365093e-004,-2.386219e-004
-3.685983e-004,-2.470493e-004
-3.945287e-004,-2.493182e-004
-4.100870e-004,-2.454286e-004
-4.159214e-004,-2.357047e-004
-4.194868e-004,-2.243602e-004
-4.279142e-004,-2.164190e-004
-4.397449e-004,-2.123673e-004
-4.518998e-004,-2.128535e-004
-4.600031e-004,-2.149604e-004
-4.621100e-004,-2.162569e-004
-4.528722e-004,-2.128535e-004
-4.399070e-004,-2.045882e-004
-4.292107e-004,-1.961608e-004
-4.222419e-004,-1.904885e-004
-4.136524e-004,-1.851404e-004
-4.003631e-004,-1.788198e-004
-3.841565e-004,-1.726613e-004
-3.627639e-004,-1.690959e-004
-3.337542e-004,-1.666649e-004
-3.002067e-004,-1.613168e-004
-2.655248e-004,-1.514308e-004
-2.357047e-004,-1.344139e-004
-2.170672e-004,-1.139937e-004
-2.088019e-004,-9.130454e-005
-2.062088e-004,-6.553616e-005
-2.044261e-004,-3.685060e-005
-2.010227e-004,-6.706447e-006
-1.950263e-004,1.971020e-005
-1.862748e-004,4.256141e-005
-1.768750e-004,6.346784e-005
-1.697442e-004,8.388807e-005
-1.655305e-004,1.002567e-004
-1.637477e-004,1.093323e-004
-1.611547e-004,1.130598e-004
-1.498101e-004,1.179218e-004
-1.331174e-004,1.295905e-004
-1.152902e-004,1.526038e-004
-9.843541e-005,1.808031e-004
-8.498399e-005,2.051129e-004
-8.028410e-005,2.188885e-004
-8.628052e-005,2.205092e-004
-9.389759e-005,2.132162e-004
-9.616651e-005,2.046267e-004
-9.373552e-005,1.989545e-004
-9.179074e-005,1.961994e-004
-9.211487e-005,1.940925e-004
-9.503204e-005,1.914995e-004
-1.024871e-004,1.921477e-004
-1.208004e-004,1.968476e-004
-1.467309e-004,2.030061e-004
-1.705545e-004,2.075439e-004
-1.809267e-004,2.085163e-004
-1.783336e-004,2.080301e-004
-1.666649e-004,2.086784e-004
-1.486757e-004,2.111094e-004
-1.173971e-004,2.124059e-004
-7.363943e-005,2.143507e-004
-2.356124e-005,2.167816e-004
3.299956e-005,2.172679e-004
1.052807e-004,2.149989e-004
2.107852e-004,2.099749e-004
3.577785e-004,2.030061e-004
5.341057e-004,1.906891e-004
7.159431e-004,1.707551e-004
8.825464e-004,1.415833e-004
1.012523e-003,1.085220e-004
1.090638e-003,8.421220e-005
1.113166e-003,7.238143e-005
1.087721e-003,6.784360e-005
1.031323e-003,6.362991e-005
9.556379e-004,5.504044e-005
8.600192e-004,3.818565e-005
7.352289e-004,1.484824e-005
5.764047e-004,-9.785688e-006
3.799815e-004,-3.020592e-005
1.482280e-004,-4.430560e-005
-1.118868e-004,-5.548811e-005
-3.911253e-004,-6.748094e-005
-6.763602e-004,-7.963584e-005
-9.572194e-004,-8.919769e-005
-1.217982e-003,-9.438378e-005
-1.425426e-003,-9.276313e-005
-1.544544e-003,-8.401160e-005
-1.554754e-003,-7.331530e-005
-1.461405e-003,-6.796714e-005
-1.297719e-003,-7.169464e-005
-1.110371e-003,-8.028410e-005
-9.301545e-004,-8.919769e-005
-7.624169e-004,-9.454585e-005
-6.008379e-004,-9.746302e-005
-4.334244e-004,-9.973194e-005
-2.566112e-004,-1.026491e-004
-8.401160e-005,-1.050801e-004
6.508849e-005,-1.063766e-004
1.780480e-004,-1.036215e-004
2.534084e-004,-9.859748e-005
2.994350e-004,-9.308726e-005
3.264999e-004,-8.887356e-005
3.371962e-004,-8.660465e-005
3.329825e-004,-8.611845e-005
3.167760e-004,-8.174268e-005
2.880904e-004,-6.926366e-005
2.495189e-004,-4.754691e-005
2.127300e-004,-2.323711e-005
2.000889e-004,-4.275467e-006
2.383363e-004,6.907040e-006
3.417340e-004,1.598270e-005
4.903480e-004,2.716521e-005
6.460929e-004,3.850978e-005
7.729901e-004,4.790957e-005
8.548332e-004,5.455425e-005
8.904876e-004,5.876794e-005
8.885428e-004,6.622294e-005
8.572642e-004,7.610894e-005
8.054032e-004,8.858796e-005
7.457631e-004,1.062531e-004
6.901747e-004,1.342904e-004
6.457687e-004,1.701068e-004
6.097901e-004,2.049509e-004
5.791598e-004,2.315296e-004
5.522569e-004,2.462775e-004
5.336195e-004,2.503292e-004
5.235714e-004,2.493568e-004
5.031512e-004,2.493568e-004
4.571246e-004,2.522740e-004
3.819262e-004,2.561635e-004
2.783665e-004,2.597290e-004
1.590864e-004,2.594049e-004
5.844381e-005,2.527602e-004
3.818565e-005,2.402811e-004
1.490383e-004,2.255332e-004
3.903536e-004,2.138645e-004
6.977918e-004,2.028440e-004
9.771927e-004,1.923098e-004
1.151251e-003,1.806411e-004
1.187716e-003,1.694586e-004
1.099876e-003,1.613553e-004
9.248455e-004,1.548727e-004
6.984400e-004,1.422316e-004
4.446456e-004,1.216493e-004
1.704310e-004,9.344993e-005
-1.340898e-004,6.217132e-005
-4.715097e-004,3.348575e-005
-8.084435e-004,1.338965e-005
-1.101458e-003,2.693341e-006
-1.322028e-003,7.485573e-007
-1.471290e-003,9.106227e-007
-1.575174e-003,-4.437533e-006
-1.653938e-003,-2.048200e-005
-1.711471e-003,-4.090223e-005
-1.726219e-003,-6.180866e-005
-1.654100e-003,-8.012204e-005
-1.455570e-003,-9.827335e-005
-1.129981e-003,-1.178833e-004
-7.264384e-004,-1.378173e-004
-3.194925e-004,-1.561307e-004
2.522042e-005,-1.724993e-004
2.688046e-004,-1.883817e-004
4.049396e-004,-2.015090e-004
4.475628e-004,-2.107467e-004
4.264942e-004,-2.135018e-004
3.772264e-004,-2.122053e-004
3.310377e-004,-2.063709e-004
3.060797e-004,-1.992400e-004
3.013798e-004,-1.924333e-004
3.117519e-004,-1.859507e-004
3.279585e-004,-1.775233e-004
3.475684e-004,-1.639098e-004
3.676645e-004,-1.488377e-004
3.828986e-004,-1.374932e-004
3.866261e-004,-1.360346e-004
3.743092e-004,-1.442999e-004
3.414099e-004,-1.545100e-004
2.825802e-004,-1.593720e-004
2.013854e-004,-1.528894e-004
1.119254e-004,-1.353863e-004
3.121684e-005,-1.154523e-004
-2.631635e-005,-1.008664e-004
-5.013995e-005,-9.535618e-005
-3.944364e-005,-9.794922e-005
9.106227e-007,-1.005423e-004
5.406805e-005,-9.924574e-005
9.879808e-005,-9.114248e-005
1.245665e-004,-7.493595e-005
1.287802e-004,-5.402952e-005
1.132219e-004,-3.296103e-005
8.469840e-005,-1.562004e-005
5.325772e-005,-8.720959e-007
3.121684e-005,1.549650e-005
2.359977e-005,3.413401e-005
3.380988e-005,5.504044e-005
5.325772e-005,7.853991e-005
7.351589e-005,1.002567e-004
8.729144e-005,1.211631e-004
9.085688e-005,1.334801e-004
8.518459e-005,1.389903e-004
7.351589e-005,1.438522e-004
5.925414e-005,1.543865e-004
4.547859e-005,1.718896e-004
3.316162e-005,1.929580e-004
2.068259e-005,2.135403e-004
6.582909e-006,2.321778e-004
-5.571990e-006,2.469258e-004
-9.461558e-006,2.576221e-004
-3.789272e-006,2.624841e-004
8.851824e-006,2.624841e-004
2.538249e-005,2.623220e-004
4.029250e-005,2.641047e-004
5.017848e-005,2.676702e-004
5.260946e-005,2.701012e-004
4.628891e-005,2.718839e-004
3.316162e-005,2.752873e-004
1.971020e-005,2.798251e-004
5.448452e-006,2.793389e-004
-8.975362e-006,2.701012e-004
-2.048200e-005,2.525981e-004
-2.842320e-005,2.297469e-004
-3.425755e-005,2.085163e-004
-3.863332e-005,1.936063e-004
-3.247483e-005,1.879340e-004
2.207145e-006,1.840444e-004
7.011252e-005,1.717275e-004
1.545486e-004,1.490383e-004
2.342847e-004,1.240803e-004
2.995970e-004,1.038221e-004
3.512959e-004,9.134307e-005
3.898674e-004,8.129502e-005
4.135290e-004,6.735741e-005
4.204978e-004,4.904402e-005
4.080188e-004,2.862379e-005
3.700955e-004,1.047248e-005
2.971661e-004,-2.168618e-006
1.822617e-004,-1.562004e-005
2.878586e-005,-3.458168e-005
-1.451102e-004,-5.921561e-005
-3.181960e-004,-8.644259e-005
-4.896610e-004,-1.110765e-004
-6.643674e-004,-1.300382e-004
-8.489598e-004,-1.467309e-004
-1.031607e-003,-1.637477e-004
-1.162394e-003,-1.801163e-004
-1.166608e-003,-1.955125e-004
-9.925497e-004,-2.079916e-004
-6.596675e-004,-2.188499e-004
-2.491561e-004,-2.267911e-004
1.475797e-004,-2.267911e-004
4.853240e-004,-2.154466e-004
7.726660e-004,-1.964849e-004
1.030836e-003,-1.765509e-004
1.258700e-003,-1.621271e-004
1.430004e-003,-1.572651e-004
1.516871e-003,-1.609926e-004
1.502447e-003,-1.668270e-004
1.377495e-003,-1.712027e-004
1.136989e-003,-1.697442e-004
7.844968e-004,-1.613168e-004
3.371962e-004,-1.472171e-004
-1.694200e-004,-1.350622e-004
-6.828429e-004,-1.225832e-004
-1.163366e-003,-1.063766e-004
-1.597864e-003,-8.547019e-005
-1.958297e-003,-6.018800e-005
-2.198154e-003,-3.101625e-005
-2.271408e-003,-6.176923e-008
-2.161203e-003,2.943412e-005
-1.891364e-003,5.666109e-005
-1.526555e-003,8.064677e-005
-1.141974e-003,1.041462e-004
-8.027712e-004,1.269974e-004
-5.428185e-004,1.457970e-004
-3.583881e-004,1.605450e-004
-2.259808e-004,1.735102e-004
-1.091317e-004,1.869616e-004
1.371378e-005,2.010613e-004
1.517934e-004,2.127300e-004
3.007315e-004,2.198609e-004
4.503179e-004,2.274780e-004
5.859666e-004,2.359054e-004
6.896885e-004,2.407673e-004
7.501388e-004,2.359054e-004
7.681281e-004,2.182402e-004
7.494906e-004,1.916615e-004
7.031399e-004,1.629760e-004
6.443101e-004,1.354248e-004
5.851563e-004,1.117633e-004
5.355643e-004,9.717743e-005
4.984512e-004,9.004655e-005
4.692795e-004,8.858796e-005
4.465904e-004,9.231547e-005
4.290873e-004,9.912221e-005
4.175806e-004,1.085220e-004
4.086671e-004,1.197045e-004
3.986190e-004,1.299146e-004
3.850055e-004,1.372076e-004
3.652335e-004,1.391524e-004
3.407616e-004,1.352628e-004
3.120761e-004,1.305629e-004
2.816078e-004,1.239182e-004
2.563256e-004,1.172735e-004
2.384984e-004,1.112771e-004
2.320158e-004,1.038221e-004
2.360674e-004,9.377406e-005
2.404432e-004,7.740546e-005
2.393087e-004,5.714729e-005
2.337985e-004,3.624086e-005
2.240746e-004,1.906194e-005
2.120818e-004,6.096713e-006
1.952270e-004,-3.627206e-006
1.697827e-004,-8.651231e-006
1.383420e-004,-7.678839e-006
1.054428e-004,-1.520357e-006
7.659513e-005,6.907040e-006
6.022653e-005,1.403791e-005
5.730935e-005,1.565857e-005
7.011252e-005,6.420843e-006
9.604298e-005,-1.594417e-005
1.257009e-004,-4.851930e-005
1.490383e-004,-8.336335e-005
1.592484e-004,-1.105903e-004
1.504969e-004,-1.251762e-004
1.258630e-004,-1.267968e-004
9.588091e-005,-1.225832e-004
7.384002e-005,-1.206384e-004
6.622294e-005,-1.253383e-004
7.011252e-005,-1.358725e-004
7.432621e-005,-1.454344e-004
7.011252e-005,-1.441378e-004
6.103686e-005,-1.350622e-004
5.811968e-005,-1.336036e-004
6.444023e-005,-1.491618e-004
7.367795e-005,-1.775233e-004
8.080883e-005,-2.081536e-004
8.113296e-005,-2.353806e-004
6.946425e-005,-2.530457e-004
4.175109e-005,-2.570974e-004
4.244267e-007,-2.459149e-004
-4.868137e-005,-2.212809e-004
-9.713889e-005,-1.890299e-004
-1.374932e-004,-1.587237e-004
-1.605064e-004,-1.340898e-004
-1.632615e-004,-1.101041e-004
-1.524032e-004,-8.141856e-005
-1.386276e-004,-4.673658e-005
-1.258245e-004,-8.489166e-006
-1.156143e-004,3.170304e-005
-1.054042e-004,7.157111e-005
-9.632857e-005,1.101427e-004
-9.081835e-005,1.461212e-004
-9.276313e-005,1.786963e-004
-1.026491e-004,2.062474e-004
-1.201522e-004,2.290986e-004
-1.467309e-004,2.474120e-004
-1.859507e-004,2.632944e-004
-2.400805e-004,2.759355e-004
-3.006929e-004,2.869559e-004
-3.570916e-004,2.984626e-004
-3.985804e-004,3.149933e-004
-4.134903e-004,3.354135e-004
-3.929081e-004,3.516200e-004
-3.305129e-004,3.548613e-004
-2.180396e-004,3.423823e-004
-6.440170e-005,3.190449e-004
9.960841e-005,2.942489e-004
2.378501e-004,2.733424e-004
3.323342e-004,2.566497e-004
3.885709e-004,2.431983e-004
4.362182e-004,2.325020e-004
5.002340e-004,2.232643e-004
5.793219e-004,2.130541e-004
6.490100e-004,2.010613e-004
6.825576e-004,1.884202e-004
6.704027e-004,1.799928e-004
6.256726e-004,1.767515e-004
5.631154e-004,1.790204e-004
4.901859e-004,1.819376e-004
4.000776e-004,1.808031e-004
2.738286e-004,1.722137e-004
1.039842e-004,1.610312e-004
-8.952183e-005,1.470936e-004
-2.796244e-004,1.291043e-004
-4.452552e-004,1.088461e-004
-5.859278e-004,9.069481e-005
-7.013183e-004,7.853991e-005
-7.888335e-004,6.946425e-005
-8.460426e-004,6.087479e-005
-8.740799e-004,4.839576e-005
-8.703524e-004,3.073064e-005
-8.325911e-004,9.500085e-006
-7.653341e-004,-1.124428e-005
-6.750637e-004,-3.425755e-005
-5.661559e-004,-6.245691e-005
-4.431483e-004,-9.065628e-005
-3.079858e-004,-1.146419e-004
-1.671511e-004,-1.337657e-004
-2.566809e-005,-1.524032e-004
1.124116e-004,-1.721751e-004
2.363916e-004,-1.927574e-004
3.307136e-004,-2.118811e-004
3.840331e-004,-2.264670e-004
3.952156e-004,-2.345703e-004
3.725265e-004,-2.397564e-004
3.260137e-004,-2.423494e-004
2.530843e-004,-2.434839e-004
1.415833e-004,-2.433218e-004
-6.706447e-006,-2.428356e-004
-1.635857e-004,-2.423494e-004
-2.741142e-004,-2.399184e-004
-2.765452e-004,-2.342462e-004
-1.274451e-004,-2.264670e-004
1.602208e-004,-2.185258e-004
5.117406e-004,-2.125294e-004
8.240407e-004,-2.118811e-004
1.018033e-003,-2.170672e-004
1.064546e-003,-2.233878e-004
9.841614e-004,-2.271153e-004
8.220959e-004,-2.240360e-004
6.266450e-004,-2.135018e-004
4.342734e-004,-1.964849e-004
2.642668e-004,-1.776853e-004
1.179218e-004,-1.582375e-004
-1.416145e-005,-1.358725e-004
-1.389517e-004,-1.092938e-004
-2.548284e-004,-7.931171e-005
-3.553089e-004,-4.819517e-005
-4.425001e-004,-1.805102e-005
-5.316359e-004,9.175954e-006
-6.382749e-004,3.267542e-005
-7.664686e-004,5.179914e-005
-9.009827e-004,6.751948e-005
-1.007784e-003,7.951231e-005
-1.030959e-003,9.020862e-005
-9.196203e-004,1.005808e-004
-6.695535e-004,1.098185e-004
-3.298647e-004,1.185701e-004
2.603075e-005,1.307250e-004
3.271482e-004,1.527658e-004
5.311884e-004,1.833962e-004
6.357207e-004,2.167816e-004
6.763991e-004,2.428742e-004
7.041123e-004,2.581083e-004
7.574318e-004,2.657254e-004
8.392748e-004,2.681563e-004
9.251696e-004,2.707494e-004
9.814063e-004,2.749631e-004
9.825408e-004,2.748010e-004
9.083148e-004,2.686426e-004
7.499768e-004,2.602152e-004
5.084993e-004,2.506533e-004
1.927960e-004,2.433604e-004
-1.695821e-004,2.386605e-004
-5.165638e-004,2.376881e-004
-7.794338e-004,2.372019e-004
-9.163790e-004,2.334744e-004
-9.319372e-004,2.263435e-004
-8.674352e-004,2.169437e-004
-7.766787e-004,2.094887e-004
-7.006701e-004,2.039785e-004
-6.514022e-004,1.968476e-004
-6.157478e-004,1.877720e-004
-5.737729e-004,1.782101e-004
-5.259637e-004,1.667035e-004
-4.820440e-004,1.537382e-004
-4.548170e-004,1.419075e-004
-4.480103e-004,1.278078e-004
-4.480103e-004,1.094944e-004
-4.319658e-004,8.518459e-005
-3.737844e-004,5.763349e-005
-2.632558e-004,2.927205e-005
-1.083214e-004,2.207145e-006
6.816773e-005,-1.886135e-005
2.370398e-004,-3.004385e-005
3.713920e-004,-3.296103e-005
4.501558e-004,-3.571614e-005
4.762483e-004,-4.495386e-005
4.673347e-004,-6.180866e-005
4.428628e-004,-8.125649e-005
4.179048e-004,-1.007043e-004
3.984569e-004,-1.191798e-004
3.833848e-004,-1.366828e-004
3.783608e-004,-1.483515e-004
3.934329e-004,-1.540238e-004
4.303838e-004,-1.536997e-004
4.767345e-004,-1.514308e-004
5.196818e-004,-1.520790e-004
5.449640e-004,-1.600202e-004
5.412365e-004,-1.695821e-004
5.144958e-004,-1.749302e-004
4.781931e-004,-1.712027e-004
4.482110e-004,-1.605064e-004
4.318424e-004,-1.507825e-004
4.260080e-004,-1.488377e-004
4.268184e-004,-1.536997e-004
4.286011e-004,-1.574272e-004
4.324906e-004,-1.577513e-004
4.352458e-004,-1.548341e-004
4.326527e-004,-1.493239e-004
4.230909e-004,-1.392759e-004
4.083429e-004,-1.222590e-004
3.872744e-004,-9.584238e-005
3.589129e-004,-6.667062e-005
3.263378e-004,-4.025397e-005
2.923041e-004,-1.772689e-005
2.566497e-004,2.531276e-006
2.252090e-004,2.441009e-005
2.028440e-004,4.645098e-005
1.861513e-004,6.427817e-005
1.692965e-004,7.497447e-005
1.470936e-004,7.999851e-005
1.167873e-004,8.210535e-005
8.437427e-005,8.097089e-005
5.601284e-005,8.210535e-005
3.510641e-005,8.777764e-005
2.035846e-005,9.636710e-005
7.231170e-006,1.030118e-004
-9.461558e-006,1.088461e-004
-3.328516e-005,1.192183e-004
-6.099833e-005,1.420695e-004
-8.676672e-005,1.752929e-004
-1.052422e-004,2.072198e-004
-1.172350e-004,2.321778e-004
-1.282554e-004,2.495189e-004
-1.421931e-004,2.611876e-004
-1.611547e-004,2.660495e-004
-1.788198e-004,2.631324e-004
-1.934057e-004,2.558394e-004
-2.110708e-004,2.482223e-004
-2.413770e-004,2.410915e-004
-2.890242e-004,2.329882e-004
-3.507711e-004,2.214815e-004
-4.155972e-004,2.085163e-004
-4.705373e-004,2.004130e-004
-5.078124e-004,1.991165e-004
-5.262878e-004,1.999268e-004
-5.256396e-004,1.986303e-004
-5.023021e-004,1.950649e-004
-4.578962e-004,1.884202e-004
-3.977700e-004,1.780480e-004
-3.259751e-004,1.636242e-004
-2.421874e-004,1.475797e-004
-1.447861e-004,1.329939e-004
-3.863332e-005,1.218114e-004
7.529860e-005,1.130598e-004
1.961994e-004,1.023635e-004
3.192070e-004,8.729144e-005
4.256839e-004,6.670914e-005
4.940755e-004,4.677511e-005
5.144958e-004,3.478228e-005
4.971547e-004,3.121684e-005
4.632831e-004,2.943412e-005
4.324906e-004,2.003433e-005
4.167703e-004,2.693341e-006
4.149876e-004,-1.562004e-005
4.132049e-004,-2.955766e-005
3.906778e-004,-4.090223e-005
3.331446e-004,-5.613637e-005
2.354192e-004,-8.141856e-005
1.009049e-004,-1.151281e-004
-5.581224e-005,-1.514308e-004
-2.246843e-004,-1.825473e-004
-4.073319e-004,-2.037779e-004
-6.022964e-004,-2.159328e-004
-8.013126e-004,-2.217671e-004
-9.774775e-004,-2.272773e-004
-1.080551e-003,-2.344082e-004
-1.064345e-003,-2.378116e-004
-9.223754e-004,-2.342462e-004
-6.893255e-004,-2.229016e-004
-4.202971e-004,-2.053985e-004
-1.627754e-004,-1.921092e-004
4.580272e-005,-1.880575e-004
1.879340e-004,-1.921092e-004
2.647530e-004,-1.968091e-004
2.934386e-004,-1.947022e-004
2.936006e-004,-1.846542e-004
2.807975e-004,-1.721751e-004
2.639427e-004,-1.614788e-004
2.420638e-004,-1.559686e-004
2.146748e-004,-1.525652e-004
1.817755e-004,-1.470550e-004
1.409351e-004,-1.334415e-004
9.150514e-005,-1.112386e-004
4.094075e-005,-8.077030e-005
-3.303076e-006,-4.949169e-005
-3.279896e-005,-2.226472e-005
-4.365734e-005,1.558884e-006
-4.090223e-005,2.424803e-005
-3.474375e-005,4.709924e-005
-2.728874e-005,6.914012e-005
-1.399939e-005,8.972242e-005
1.209313e-005,1.093323e-004
5.212327e-005,1.269974e-004
9.474644e-005,1.388282e-004
1.203528e-004,1.446626e-004
1.172735e-004,1.472556e-004
8.858796e-005,1.590864e-004
5.034055e-005,2.148369e-004
1.436204e-005,3.405996e-004
-1.270286e-005,5.234093e-004
-3.441962e-005,7.263153e-004
-5.808115e-005,9.131767e-004
-9.033215e-005,1.060008e-003
-1.314967e-004,1.152548e-003
-1.718510e-004,1.188364e-003
-2.052365e-004,1.171833e-003
-2.327876e-004,1.108628e-003
-2.574215e-004,1.005392e-003
-2.763831e-004,8.668260e-004
-2.749245e-004,6.921195e-004
-2.436459e-004,4.749518e-004
-1.786577e-004,2.135403e-004
-8.530812e-005,-8.644259e-005
2.230325e-005,-4.063595e-004
1.179218e-004,-7.186593e-004
1.756171e-004,-9.962771e-004
1.801549e-004,-1.218469e-003
1.354248e-004,-1.373079e-003
5.811968e-005,-1.457029e-003
-3.393342e-005,-1.470642e-003
-1.214487e-004,-1.419754e-003
-1.825473e-004,-1.317653e-003
-1.893541e-004,-1.184759e-003
-1.310105e-004,-1.035983e-003
-2.339918e-005,-8.816970e-004
1.000946e-004,-7.282211e-004
2.196988e-004,-5.784728e-004
3.282826e-004,-4.342347e-004
4.281149e-004,-3.000446e-004
5.298919e-004,-1.804405e-004
6.402585e-004,-7.639453e-005
7.554871e-004,1.760335e-005
8.569400e-004,1.018773e-004
9.188490e-004,1.772377e-004
9.177146e-004,2.407673e-004
8.421920e-004,2.923041e-004
7.081639e-004,3.336308e-004
5.439916e-004,3.619922e-004
3.673404e-004,3.752816e-004
1.775618e-004,3.756057e-004
-3.490581e-005,3.699334e-004
-2.793003e-004,3.634508e-004
-5.462218e-004,3.587509e-004
-8.022850e-004,3.556717e-004
-1.007784e-003,3.532407e-004
-1.136464e-003,3.491891e-004
-1.180383e-003,3.423823e-004
-1.156560e-003,3.365480e-004
-1.092382e-003,3.337929e-004
-1.012160e-003,3.297412e-004
-9.285338e-004,3.209897e-004
-8.423151e-004,3.088348e-004
-7.458862e-004,2.950592e-004
-6.210960e-004,2.795009e-004
-4.588687e-004,2.637806e-004
-2.634179e-004,2.477361e-004
-4.625038e-005,2.342847e-004
1.816135e-004,2.245608e-004
3.950536e-004,2.231022e-004
5.661946e-004,2.284504e-004
6.807749e-004,2.355812e-004
7.383081e-004,2.402811e-004
7.483562e-004,2.438466e-004
7.238843e-004,2.464396e-004
6.781818e-004,2.470879e-004
6.208107e-004,2.440086e-004
5.605224e-004,2.347709e-004
5.039615e-004,2.196988e-004
4.568005e-004,1.996027e-004
4.196875e-004,1.770756e-004
3.952156e-004,1.563313e-004
3.794953e-004,1.399627e-004
3.628026e-004,1.252147e-004
3.428685e-004,1.081979e-004
3.273102e-004,8.664318e-005
3.195311e-004,6.379197e-005
3.185587e-004,4.612685e-005
3.171001e-004,3.656499e-005
3.047831e-004,3.721326e-005
2.807975e-004,4.936815e-005
2.482223e-004,6.978839e-005
2.151610e-004,9.182927e-005
1.830721e-004,1.107909e-004
1.508211e-004,1.244044e-004
1.148425e-004,1.360731e-004
8.113296e-005,1.451488e-004
5.844381e-005,1.511452e-004
4.807163e-005,1.532520e-004
4.855783e-005,1.508211e-004
5.325772e-005,1.394765e-004
6.119892e-005,1.214872e-004
7.400208e-005,1.007429e-004
9.069481e-005,8.372601e-005
1.077117e-004,7.302970e-005
1.164632e-004,6.687121e-005
1.127357e-004,6.152305e-005
9.636710e-005,5.244739e-005
7.124698e-005,3.915804e-005
4.531652e-005,2.619281e-005
2.813760e-005,1.549650e-005
2.084466e-005,9.662150e-006
1.776542e-005,7.069105e-006
8.365628e-006,2.855407e-006
-1.805102e-005,-6.544382e-006
-5.889148e-005,-1.934754e-005
-9.762509e-005,-3.587821e-005
-1.161005e-004,-5.467778e-005
-9.616651e-005,-6.861539e-005
-2.566809e-005,-7.331530e-005
8.550872e-005,-7.137051e-005
2.114335e-004,-6.910160e-005
3.243930e-004,-6.893953e-005
4.089912e-004,-7.347736e-005
4.649037e-004,-8.401160e-005
4.905101e-004,-1.002181e-004
4.893756e-004,-1.159385e-004
4.663623e-004,-1.280934e-004
4.268184e-004,-1.387897e-004
3.738230e-004,-1.509446e-004
3.057555e-004,-1.642339e-004
2.135403e-004,-1.759026e-004
9.960841e-005,-1.872472e-004
-1.821308e-005,-1.964849e-004
-1.164247e-004,-2.047502e-004
-1.827094e-004,-2.141500e-004
-2.173914e-004,-2.264670e-004
-2.023193e-004,-2.395943e-004
-1.139937e-004,-2.541802e-004
3.737532e-005,-2.664971e-004
2.068957e-004,-2.736280e-004
3.381686e-004,-2.749245e-004
3.966742e-004,-2.687660e-004
3.825745e-004,-2.553146e-004
3.263378e-004,-2.360289e-004
2.678322e-004,-2.167431e-004
2.303951e-004,-2.013469e-004
2.055991e-004,-1.893541e-004
1.712413e-004,-1.780095e-004
1.090082e-004,-1.676373e-004
6.420843e-006,-1.551583e-004
-1.454344e-004,-1.392759e-004
-3.544986e-004,-1.208004e-004
-6.319543e-004,-1.011905e-004
-9.847705e-004,-8.093236e-005
-1.389286e-003,-5.500191e-005
-1.794611e-003,-2.469570e-005
-2.143214e-003,7.393236e-006
-2.379505e-003,3.834771e-005
-2.448383e-003,6.800567e-005
-2.324403e-003,9.733949e-005
-2.038357e-003,1.292664e-004
-1.656207e-003,1.624898e-004
-1.243265e-003,1.898788e-004
-8.465288e-004,2.083542e-004
-4.911196e-004,2.154851e-004
-1.875713e-004,2.180782e-004
6.119892e-005,2.211574e-004
2.555152e-004,2.268297e-004
3.982949e-004,2.380122e-004
4.969927e-004,2.535705e-004
5.616568e-004,2.701012e-004
6.033076e-004,2.820940e-004
6.297242e-004,2.835526e-004
6.444722e-004,2.756114e-004
6.507927e-004,2.623220e-004
6.472273e-004,2.475741e-004
6.285898e-004,2.325020e-004
5.953664e-004,2.213195e-004
5.634395e-004,2.130541e-004
5.470709e-004,2.060853e-004
5.542018e-004,1.989545e-004
5.819149e-004,1.908512e-004
6.172452e-004,1.799928e-004
6.469032e-004,1.670276e-004
6.635960e-004,1.539003e-004
6.640821e-004,1.449867e-004
6.459308e-004,1.394765e-004
6.091419e-004,1.323456e-004
5.559844e-004,1.221355e-004
4.845136e-004,1.088461e-004
3.978086e-004,9.636710e-005
3.077003e-004,8.875003e-005
2.279642e-004,8.696731e-005
1.739964e-004,8.534666e-005
1.519555e-004,8.178122e-005
1.592484e-004,7.173317e-005
1.835583e-004,5.536457e-005
2.062474e-004,3.543054e-005
2.111094e-004,1.533444e-005
1.940925e-004,-2.978945e-006
1.650828e-004,-1.950961e-005
1.355869e-004,-3.522994e-005
1.163011e-004,-5.013995e-005
1.112771e-004,-6.213279e-005
1.198666e-004,-6.845333e-005
1.396385e-004,-6.812920e-005
1.670276e-004,-6.407757e-005
1.949028e-004,-6.521203e-005
2.117576e-004,-7.623246e-005
2.130541e-004,-9.260107e-005
2.049509e-004,-1.102662e-004
1.918236e-004,-1.250141e-004
1.720516e-004,-1.347380e-004
1.423936e-004,-1.392759e-004
9.717743e-005,-1.420310e-004
4.013043e-005,-1.468929e-004
-2.161646e-005,-1.506204e-004
-7.963584e-005,-1.527273e-004
-1.178833e-004,-1.520790e-004
-1.084835e-004,-1.477033e-004
-3.069211e-005,-1.430034e-004
1.137081e-004,-1.415448e-004
2.911697e-004,-1.460826e-004
4.521006e-004,-1.530514e-004
5.653843e-004,-1.566169e-004
6.302104e-004,-1.540238e-004
6.588960e-004,-1.423551e-004
6.606788e-004,-1.267968e-004
6.358828e-004,-1.118868e-004
5.824011e-004,-9.843541e-005
4.963444e-004,-9.114248e-005
3.744712e-004,-8.935975e-005
2.205092e-004,-8.628052e-005
4.385793e-005,-7.850138e-005
-1.418689e-004,-6.407757e-005
-3.254889e-004,-4.268495e-005
-4.988988e-004,-1.610624e-005
-6.598296e-004,1.403791e-005
-8.061745e-004,4.742337e-005
-9.269132e-004,7.659513e-005
-9.991943e-004,9.928428e-005
-9.991943e-004,1.156529e-004
-9.171893e-004,1.278078e-004
-7.802441e-004,1.365593e-004
-6.509160e-004,1.443384e-004
-5.893312e-004,1.526038e-004
-6.009999e-004,1.639484e-004
-6.306578e-004,1.796687e-004
-6.099135e-004,2.017096e-004
-5.055434e-004,2.305572e-004
-3.342404e-004,2.590807e-004
-1.454344e-004,2.778803e-004
7.879432e-006,2.876042e-004
9.620504e-005,2.897111e-004
1.208390e-004,2.851732e-004
1.054428e-004,2.757735e-004
7.772959e-005,2.692908e-004
5.795762e-005,2.681563e-004
5.747142e-005,2.679943e-004
7.967438e-005,2.662116e-004
1.206769e-004,2.600531e-004
1.657311e-004,2.508154e-004
2.030061e-004,2.383363e-004
2.258573e-004,2.269918e-004
2.321778e-004,2.187264e-004
2.227781e-004,2.148369e-004
2.051129e-004,2.138645e-004
1.855030e-004,2.135403e-004
1.639484e-004,2.119197e-004
1.415833e-004,2.104611e-004
1.216493e-004,2.065715e-004
1.069013e-004,1.957132e-004
1.026876e-004,1.778860e-004
1.106288e-004,1.540623e-004
1.310491e-004,1.257009e-004
1.634622e-004,9.814982e-005
2.043026e-004,7.465034e-005
2.477361e-004,5.277153e-005
2.799871e-004,2.716521e-005
2.879283e-004,-1.196227e-006
2.641047e-004,-2.631635e-005
1.994406e-004,-4.074016e-005
8.550872e-005,-4.544006e-005
-6.926366e-005,-4.689865e-005
-2.293842e-004,-4.819517e-005
-3.449367e-004,-5.127441e-005
-3.812394e-004,-6.148453e-005
-3.371576e-004,-8.320128e-005
-2.321393e-004,-1.141558e-004
-1.089697e-004,-1.491618e-004
-5.571990e-006,-1.810887e-004
5.974033e-005,-2.037779e-004
8.826383e-005,-2.160948e-004
9.328786e-005,-2.191741e-004
8.777764e-005,-2.130156e-004
8.016057e-005,-2.002124e-004
7.610894e-005,-1.851404e-004
7.999851e-005,-1.736337e-004
9.069481e-005,-1.682856e-004
1.057669e-004,-1.692580e-004
1.197045e-004,-1.737958e-004
1.333180e-004,-1.791439e-004
1.483901e-004,-1.809267e-004
1.639484e-004,-1.794681e-004
1.752929e-004,-1.755785e-004
1.799928e-004,-1.702304e-004
1.751309e-004,-1.632615e-004
1.529279e-004,-1.530514e-004
1.034980e-004,-1.376552e-004
3.299956e-005,-1.170729e-004
-2.599222e-005,-9.422172e-005
-4.025397e-005,-7.088431e-005
-6.220252e-006,-4.997789e-005
5.228533e-005,-3.571614e-005
1.081979e-004,-2.599222e-005
1.441764e-004,-1.626830e-005
1.551968e-004,-4.113403e-006
1.436902e-004,1.031041e-005
1.224596e-004,2.570662e-005
1.023635e-004,3.964424e-005
8.291568e-005,5.325772e-005
5.860588e-005,6.508849e-005
2.441009e-005,7.416415e-005
-1.335113e-005,8.453633e-005
-4.349527e-005,9.766362e-005
-6.002594e-005,1.132219e-004
-6.731888e-005,1.286181e-004
-7.477388e-005,1.432040e-004
-8.773911e-005,1.594105e-004
-1.041077e-004,1.778860e-004
-1.167488e-004,1.955511e-004
-1.220970e-004,2.036544e-004
-1.084835e-004,1.965235e-004
-7.056019e-005,1.803169e-004
-1.610624e-005,1.652449e-004
3.705119e-005,1.574657e-004
7.059871e-005,1.587623e-004
8.178122e-005,1.665414e-004
7.983644e-005,1.733481e-004
9.085688e-005,1.728619e-004
1.414213e-004,1.607070e-004
2.256952e-004,1.415833e-004
3.046211e-004,1.221355e-004
3.462718e-004,1.064152e-004
3.448133e-004,9.814982e-005
3.141829e-004,9.960841e-005
2.704253e-004,1.070634e-004
2.226160e-004,1.120874e-004
1.772377e-004,1.120874e-004
1.313732e-004,1.070634e-004
7.643307e-005,1.000946e-004
7.069105e-006,8.988449e-005
-7.526008e-005,7.594687e-005
-1.744440e-004,6.022653e-005
-2.922655e-004,4.402000e-005
-4.301831e-004,2.992031e-005
-5.846313e-004,1.857574e-005
-7.496137e-004,1.014835e-005
-8.983897e-004,6.582909e-006
-9.876877e-004,9.013889e-006
-9.802326e-004,1.257933e-005
-8.677593e-004,1.241726e-005
-6.757120e-004,9.338019e-006
-4.450931e-004,4.151929e-006
-2.167431e-004,-1.520357e-006
-2.015787e-005,-7.030578e-006
1.320215e-004,-1.059602e-005
2.386605e-004,-1.497178e-005
3.112658e-004,-2.031993e-005
3.561579e-004,-3.085418e-005
3.764160e-004,-5.030202e-005
3.781987e-004,-7.461182e-005
3.684748e-004,-9.405965e-005
3.512959e-004,-1.054042e-004
3.303894e-004,-1.089697e-004
3.098072e-004,-1.081593e-004
2.945730e-004,-1.096179e-004
2.895490e-004,-1.128592e-004
2.913317e-004,-1.154523e-004
2.955454e-004,-1.148040e-004
2.986247e-004,-1.096179e-004
3.038107e-004,-1.015147e-004
3.101313e-004,-9.762509e-005
3.161277e-004,-1.021629e-004
3.192070e-004,-1.135075e-004
3.149933e-004,-1.245279e-004
3.038107e-004,-1.305243e-004
2.861456e-004,-1.302002e-004
2.636185e-004,-1.232314e-004
2.367157e-004,-1.123730e-004
2.102990e-004,-1.005423e-004
1.927960e-004,-8.871149e-005
1.889064e-004,-7.477388e-005
1.932822e-004,-5.613637e-005
1.942546e-004,-3.328516e-005
1.780480e-004,-2.816880e-006
1.423936e-004,3.332369e-005
9.490851e-005,6.557468e-005
4.855783e-005,8.826383e-005
1.549650e-005,1.000946e-004
-3.303076e-006,1.057669e-004
-1.691656e-005,1.117633e-004
-3.830919e-005,1.203528e-004
-6.893953e-005,1.312112e-004
-1.015147e-004,1.396385e-004
-1.240417e-004,1.453108e-004
-1.292278e-004,1.519555e-004
-1.173971e-004,1.639484e-004
-9.859748e-005,1.837203e-004
-7.817725e-005,2.051129e-004
-6.051213e-005,2.216436e-004
-4.738484e-005,2.303951e-004
-3.766092e-005,2.336365e-004
-2.809907e-005,2.341226e-004
-1.707863e-005,2.355812e-004
-9.299493e-006,2.380122e-004
-7.192643e-006,2.417397e-004
-1.302700e-005,2.467637e-004
-2.307504e-005,2.514636e-004
-3.522994e-005,2.545429e-004
-4.738484e-005,2.558394e-004
-5.710876e-005,2.545429e-004
-6.261898e-005,2.482223e-004
-6.456377e-005,2.388225e-004
-6.326724e-005,2.279642e-004
-5.678463e-005,2.172679e-004
-4.722278e-005,2.064095e-004
-4.203669e-005,1.936063e-004
-4.495386e-005,1.793446e-004
-5.791909e-005,1.634622e-004
-7.963584e-005,1.482280e-004
-1.057284e-004,1.334801e-004
-1.237176e-004,1.195424e-004
-1.195039e-004,1.090082e-004
-8.530812e-005,1.002567e-004
-3.020592e-005,8.745350e-005
2.538249e-005,6.622294e-005
6.200925e-005,3.753739e-005
7.059871e-005,7.393236e-006
5.876794e-005,-1.869928e-005
4.158902e-005,-3.668853e-005
2.846173e-005,-4.997789e-005
2.084466e-005,-5.629844e-005
2.068259e-005,-5.775702e-005
3.397195e-005,-6.002594e-005
6.168512e-005,-6.780507e-005
9.523264e-005,-8.287715e-005
1.198666e-004,-1.044318e-004
1.237561e-004,-1.308485e-004
1.059290e-004,-1.582375e-004
7.221937e-005,-1.823853e-004
3.364782e-005,-2.000504e-004
-1.682422e-006,-2.081536e-004
-2.826114e-005,-2.076674e-004
-3.555408e-005,-2.008607e-004
-1.918548e-005,-1.908126e-004
1.501031e-005,-1.846542e-004
5.504044e-005,-1.843300e-004
9.231547e-005,-1.890299e-004
1.226217e-004,-1.943781e-004
1.438522e-004,-1.990780e-004
1.547106e-004,-2.029675e-004
1.522796e-004,-2.041020e-004
1.378558e-004,-2.002124e-004
1.185701e-004,-1.903264e-004
1.002567e-004,-1.786577e-004
8.696731e-005,-1.677994e-004
8.405014e-005,-1.583996e-004
9.442231e-005,-1.465688e-004
1.150046e-004,-1.305243e-004
1.355869e-004,-1.125351e-004
1.500107e-004,-9.665270e-005
1.548727e-004,-8.530812e-005
1.462832e-004,-7.347736e-005
1.213252e-004,-5.581224e-005
8.259155e-005,-3.279896e-005
4.013043e-005,-1.140634e-005
7.485573e-007,2.855407e-006
-2.971972e-005,9.986281e-006
-4.171256e-005,1.517237e-005
-3.960571e-005,2.538249e-005
-3.377136e-005,4.223728e-005
-2.793700e-005,6.395404e-005
-2.161646e-005,8.340187e-005
-1.221667e-005,9.733949e-005
-3.141010e-006,1.064152e-004
2.855407e-006,1.167873e-004
-6.176923e-008,1.339663e-004
-1.497178e-005,1.586002e-004
-4.155049e-005,1.843686e-004
-7.266703e-005,2.039785e-004
-9.503204e-005,2.158093e-004
-8.449780e-005,2.237505e-004
-2.647842e-005,2.265056e-004
8.048470e-005,2.229401e-004
2.325020e-004,2.145127e-004
4.148255e-004,2.054371e-004
5.987698e-004,1.973338e-004
7.515975e-004,1.926339e-004
8.384645e-004,1.905271e-004
8.444610e-004,1.926339e-004
7.810934e-004,2.007372e-004
6.742922e-004,2.127300e-004
5.506363e-004,2.250470e-004
4.247115e-004,2.336365e-004
2.869559e-004,2.373639e-004
1.116012e-004,2.354192e-004
-1.196660e-004,2.312055e-004
-3.982562e-004,2.268297e-004
-6.988873e-004,2.213195e-004
-9.957909e-004,2.135403e-004
-1.267574e-003,2.018716e-004
-1.505648e-003,1.853410e-004
-1.699154e-003,1.642725e-004
-1.816814e-003,1.378558e-004
-1.823134e-003,1.083599e-004
-1.708716e-003,7.983644e-005
-1.504676e-003,5.423012e-005
-1.263523e-003,3.202716e-005
-1.025125e-003,1.241726e-005
-8.061745e-004,-1.682422e-006
-5.912760e-004,-9.785688e-006
-3.473677e-004,-1.562004e-005
-5.338126e-005,-2.226472e-005
2.940868e-004,-3.166451e-005
6.877437e-004,-4.398147e-005
1.107331e-003,-5.791909e-005
1.513792e-003,-7.315322e-005
1.861909e-003,-9.276313e-005
2.112625e-003,-1.191798e-004
2.238713e-003,-1.478653e-004
2.230933e-003,-1.700683e-004
2.098363e-003,-1.838438e-004
1.863854e-003,-1.921092e-004
1.550581e-003,-1.977815e-004
1.165999e-003,-2.041020e-004
7.088122e-004,-2.139880e-004
1.824238e-004,-2.256567e-004
-3.961493e-004,-2.310048e-004
-9.855808e-004,-2.237119e-004
-1.532065e-003,-2.044261e-004
-1.988441e-003,-1.784957e-004
-2.330075e-003,-1.553203e-004
-2.548540e-003,-1.434896e-004
-2.637190e-003,-1.420310e-004
-2.602183e-003,-1.444620e-004
-2.456486e-003,-1.447861e-004
-2.199937e-003,-1.363587e-004
-1.822324e-003,-1.237176e-004
-1.332563e-003,-1.130213e-004
-7.771649e-004,-1.042698e-004
-2.220912e-004,-9.486997e-005
2.670219e-004,-8.271508e-005
6.449584e-004,-6.812920e-005
8.987529e-004,-5.370539e-005
1.038453e-003,-3.895745e-005
1.087235e-003,-2.242678e-005
1.077187e-003,-7.100305e-007
1.040884e-003,2.522042e-005
1.002475e-003,5.098881e-005
9.763823e-004,7.319176e-005
9.668204e-004,9.199134e-005
9.660101e-004,1.104668e-004
9.626067e-004,1.269974e-004
9.536931e-004,1.367214e-004
9.360280e-004,1.380179e-004
9.058838e-004,1.394765e-004
8.598572e-004,1.467694e-004
7.977861e-004,1.610312e-004
7.259911e-004,1.809652e-004
6.548444e-004,2.034923e-004
5.930975e-004,2.234263e-004
5.464226e-004,2.407673e-004
5.148199e-004,2.548670e-004
4.929411e-004,2.647530e-004
4.765725e-004,2.715597e-004
4.618245e-004,2.715597e-004
4.452938e-004,2.670219e-004
4.264942e-004,2.605393e-004
4.081808e-004,2.556773e-004
3.900295e-004,2.550291e-004
3.725265e-004,2.584324e-004
3.543751e-004,2.611876e-004
3.321722e-004,2.594049e-004
3.057555e-004,2.500050e-004
2.709115e-004,2.346088e-004
2.261814e-004,2.175920e-004
1.746447e-004,2.049509e-004
1.214872e-004,1.958752e-004
7.351589e-005,1.835583e-004
3.543054e-005,1.684862e-004
8.365628e-006,1.548727e-004
-1.043395e-005,1.457970e-004
-2.566809e-005,1.389903e-004
-3.944364e-005,1.284560e-004
-5.467778e-005,1.101427e-004
-8.077030e-005,8.891209e-005
-1.162626e-004,6.541262e-005
-1.496481e-004,4.304761e-005
-1.689338e-004,2.343770e-005
-1.708786e-004,4.313994e-006
-1.580754e-004,-1.432352e-005
-1.336036e-004,-2.971972e-005
-9.989401e-005,-3.830919e-005
-6.261898e-005,-4.365734e-005
-3.053005e-005,-5.159854e-005
-6.706447e-006,-6.553616e-005
1.128280e-005,-8.368748e-005
2.716521e-005,-9.859748e-005
4.272347e-005,-1.109144e-004
5.974033e-005,-1.250141e-004
7.724339e-005,-1.431655e-004
9.231547e-005,-1.634236e-004
9.685330e-005,-1.820611e-004
8.242948e-005,-1.942160e-004
4.969229e-005,-1.924333e-004
8.527692e-006,-1.804405e-004
-2.728874e-005,-1.655305e-004
-4.398147e-005,-1.532135e-004
-3.506788e-005,-1.473791e-004
-3.627206e-006,-1.475412e-004
3.899597e-005,-1.504584e-004
7.691926e-005,-1.556445e-004
9.490851e-005,-1.577513e-004
8.696731e-005,-1.556445e-004
5.309566e-005,-1.519170e-004
-3.789272e-006,-1.496481e-004
-7.169464e-005,-1.477033e-004
-1.334415e-004,-1.436516e-004
-1.778474e-004,-1.349001e-004
-2.073433e-004,-1.217728e-004
-2.282497e-004,-1.079973e-004
-2.457528e-004,-9.924574e-005
-2.681178e-004,-9.535618e-005
-2.990722e-004,-9.081835e-005
-3.410472e-004,-8.125649e-005
-3.870737e-004,-6.553616e-005
-4.275900e-004,-4.462973e-005
-4.522240e-004,-1.902341e-005
-4.528722e-004,7.555301e-006
-4.308313e-004,3.024445e-005
-3.901529e-004,4.418206e-005
-3.403989e-004,5.098881e-005
-2.925897e-004,5.341979e-005
-2.493182e-004,5.487838e-005
-2.128535e-004,5.844381e-005
-1.865989e-004,6.962632e-005
-1.697442e-004,8.777764e-005
-1.556445e-004,1.130598e-004
-1.245279e-004,1.419075e-004
-6.067420e-005,1.699448e-004
3.218923e-005,1.919856e-004
1.279698e-004,2.080301e-004
1.940925e-004,2.206712e-004
2.179161e-004,2.290986e-004
2.070577e-004,2.312055e-004
1.824238e-004,2.294227e-004
1.662173e-004,2.265056e-004
1.717275e-004,2.226160e-004
1.923098e-004,2.195368e-004
2.081922e-004,2.214815e-004
1.991165e-004,2.240746e-004
1.526038e-004,2.261814e-004
6.362991e-005,2.231022e-004
-5.727083e-005,2.132162e-004
-1.857886e-004,2.008992e-004
-2.904828e-004,1.918236e-004
-3.523917e-004,1.833962e-004
-3.736223e-004,1.754550e-004
-3.685983e-004,1.676758e-004
-3.528779e-004,1.595726e-004
-3.290543e-004,1.503349e-004
-2.990722e-004,1.402868e-004
-2.619593e-004,1.279698e-004
-2.167431e-004,1.177597e-004
-1.676373e-004,1.124116e-004
-1.225832e-004,1.077117e-004
-8.352541e-005,9.636710e-005
-4.641245e-005,7.772959e-005
-1.626830e-005,5.504044e-005
9.106227e-007,3.121684e-005
1.598270e-005,5.610517e-006
4.580272e-005,-2.015787e-005
9.944634e-005,-3.960571e-005
1.657311e-004,-4.997789e-005
2.232643e-004,-5.289507e-005
2.487085e-004,-5.208474e-005
2.299089e-004,-4.949169e-005
1.744826e-004,-4.787104e-005
1.141943e-004,-5.548811e-005
8.793970e-005,-7.396356e-005
1.252147e-004,-9.762509e-005
2.292607e-004,-1.178833e-004
3.830607e-004,-1.313347e-004
5.524190e-004,-1.386276e-004
6.885540e-004,-1.464067e-004
7.553250e-004,-1.567789e-004
7.315014e-004,-1.677994e-004
6.136798e-004,-1.734716e-004
4.120704e-004,-1.742820e-004
1.422316e-004,-1.747682e-004
-1.833576e-004,-1.763888e-004
-5.554595e-004,-1.810887e-004
-9.432817e-004,-1.849783e-004
-1.293181e-003,-1.846542e-004
-1.554592e-003,-1.806025e-004
-1.704179e-003,-1.729855e-004
-1.732864e-003,-1.624512e-004
-1.633842e-003,-1.519170e-004
-1.412785e-003,-1.428413e-004
-1.105185e-003,-1.326312e-004
-7.761925e-004,-1.149661e-004
-4.932265e-004,-8.935975e-005
-2.989102e-004,-5.808115e-005
-1.984297e-004,-2.420950e-005
-1.527273e-004,1.063454e-005
-1.029732e-004,4.790957e-005
-5.896120e-006,8.648112e-005
1.372076e-004,1.188942e-004
2.817699e-004,1.419075e-004
3.728506e-004,1.548727e-004
3.817642e-004,1.613553e-004
3.250413e-004,1.655690e-004
2.613496e-004,1.718896e-004
2.560015e-004,1.775618e-004
3.371962e-004,1.791825e-004
4.896998e-004,1.786963e-004
6.695924e-004,1.812893e-004
8.253373e-004,1.893926e-004
9.256558e-004,1.976579e-004
9.671446e-004,2.030061e-004
9.653618e-004,2.021958e-004
9.389452e-004,1.942546e-004
9.029666e-004,1.798307e-004
8.618020e-004,1.628139e-004
8.149651e-004,1.506590e-004
7.562974e-004,1.514693e-004
6.823955e-004,1.603829e-004
6.018490e-004,1.671896e-004
5.245438e-004,1.628139e-004
4.639314e-004,1.530900e-004
4.300596e-004,1.438522e-004
4.214702e-004,1.389903e-004
4.271425e-004,1.357490e-004
4.339493e-004,1.318594e-004
4.320045e-004,1.260251e-004
4.151496e-004,1.169494e-004
3.853296e-004,1.103047e-004
3.571303e-004,1.081979e-004
3.404375e-004,1.132219e-004
3.360618e-004,1.210010e-004
3.378445e-004,1.244044e-004
3.367100e-004,1.177597e-004
3.279585e-004,1.022015e-004
3.124002e-004,8.032264e-005
2.955454e-004,5.552663e-005
2.845250e-004,3.089271e-005
2.760976e-004,9.662150e-006
2.671840e-004,-6.544382e-006
2.585945e-004,-1.740276e-005
2.446569e-004,-2.356124e-005
2.205092e-004,-3.117831e-005
1.843686e-004,-3.976777e-005
1.412592e-004,-5.176061e-005
9.717743e-005,-6.261898e-005
5.066468e-005,-6.877746e-005
4.638125e-006,-7.120844e-005
-3.652646e-005,-7.412562e-005
-6.261898e-005,-7.995997e-005
-6.618442e-005,-9.292520e-005
-5.095028e-005,-1.130213e-004
-2.518189e-005,-1.329553e-004
-6.220252e-006,-1.457585e-004
-5.247859e-006,-1.507825e-004
-2.453363e-005,-1.501342e-004
-5.970181e-005,-1.441378e-004
-9.908367e-005,-1.368449e-004
-1.276072e-004,-1.332795e-004
-1.371690e-004,-1.334415e-004
-1.292278e-004,-1.366828e-004
-1.165867e-004,-1.423551e-004
-1.073490e-004,-1.477033e-004
-1.003802e-004,-1.541859e-004
-8.952183e-005,-1.618029e-004
-7.574627e-005,-1.684476e-004
-6.667062e-005,-1.705545e-004
-6.116039e-005,-1.695821e-004
-5.548811e-005,-1.634236e-004
-5.240886e-005,-1.515928e-004
-5.986387e-005,-1.342519e-004
-7.688073e-005,-1.105903e-004
-9.746302e-005,-8.595638e-005
-1.238797e-004,-6.375344e-005
-1.562927e-004,-4.333321e-005
-1.932436e-004,-1.869928e-005
-2.313290e-004,1.403791e-005
-2.653627e-004,4.661304e-005
-2.870794e-004,7.529860e-005
-2.912931e-004,9.944634e-005
-2.776796e-004,1.185701e-004
-2.533699e-004,1.320215e-004
-2.264670e-004,1.428799e-004
-2.057227e-004,1.535762e-004
-1.943781e-004,1.641104e-004
-1.943781e-004,1.725378e-004
-1.963229e-004,1.780480e-004
-1.942160e-004,1.832341e-004
-1.838438e-004,1.924718e-004
-1.684476e-004,2.099749e-004
-1.546721e-004,2.346088e-004
-1.439758e-004,2.595669e-004
-1.355484e-004,2.788527e-004
-1.287416e-004,2.872801e-004
-1.253383e-004,2.866318e-004
-1.266348e-004,2.829043e-004
-1.323071e-004,2.790148e-004
-1.365208e-004,2.760976e-004
-1.345760e-004,2.705873e-004
-1.256624e-004,2.585945e-004
-1.135075e-004,2.410915e-004
-9.973194e-005,2.226160e-004
-8.660465e-005,2.101370e-004
-7.720486e-005,2.077060e-004
-7.137051e-005,2.125679e-004
-6.926366e-005,2.218057e-004
-7.250496e-005,2.302331e-004
-8.012204e-005,2.315296e-004
-9.065628e-005,2.260194e-004
-9.892161e-005,2.158093e-004
-1.026491e-004,2.028440e-004
-1.013526e-004,1.885823e-004
-9.681477e-005,1.741585e-004
-9.065628e-005,1.592484e-004
-8.547019e-005,1.401247e-004
-8.773911e-005,1.141943e-004
-1.037836e-004,8.599492e-005
-1.363587e-004,6.184718e-005
-1.838438e-004,4.272347e-005
-2.399184e-004,2.927205e-005
-2.914552e-004,1.987227e-005
-3.256510e-004,1.355172e-005
-3.344025e-004,7.555301e-006
-3.172236e-004,-1.520357e-006
-2.797865e-004,-1.367526e-005
-2.238740e-004,-2.696461e-005
-1.536997e-004,-4.219875e-005
-7.769106e-005,-5.759496e-005
-4.113403e-006,-7.185670e-005
6.249545e-005,-8.611845e-005
1.229458e-004,-1.041077e-004
1.783722e-004,-1.259865e-004
2.295848e-004,-1.507825e-004
2.764217e-004,-1.720131e-004
3.175863e-004,-1.844921e-004
3.542131e-004,-1.909747e-004
3.869503e-004,-2.019951e-004
4.153117e-004,-2.201465e-004
4.371906e-004,-2.413770e-004
4.475628e-004,-2.587180e-004
4.491834e-004,-2.661730e-004
4.477248e-004,-2.658489e-004
4.431870e-004,-2.590421e-004
4.271425e-004,-2.514251e-004
3.931088e-004,-2.449425e-004
3.409237e-004,-2.402425e-004
2.751252e-004,-2.357047e-004
2.068957e-004,-2.288980e-004
1.440143e-004,-2.207947e-004
9.231547e-005,-2.131776e-004
5.649903e-005,-2.081536e-004
3.299956e-005,-2.041020e-004
1.727922e-005,-1.974573e-004
2.369211e-006,-1.880575e-004
-1.659243e-005,-1.755785e-004
-3.587821e-005,-1.587237e-004
-5.224680e-005,-1.370070e-004
-6.213279e-005,-1.105903e-004
-6.051213e-005,-8.255302e-005
-5.159854e-005,-5.597430e-005
-4.592625e-005,-3.636440e-005
-4.754691e-005,-2.501983e-005
-5.646050e-005,-1.983374e-005
-6.699475e-005,-1.335113e-005
-7.088431e-005,1.883015e-006
-6.359137e-005,2.603075e-005
-4.706071e-005,5.260946e-005
-2.793700e-005,7.400208e-005
-9.947754e-006,9.118101e-005
6.096713e-006,1.088461e-004
1.889987e-005,1.294284e-004
2.246531e-005,1.501728e-004
1.857574e-005,1.697827e-004
8.689758e-006,1.898788e-004
-3.951337e-006,2.128921e-004
-1.529591e-005,2.359054e-004
-2.501983e-005,2.571359e-004
-3.004385e-005,2.720459e-004
-2.372331e-005,2.790148e-004
-7.100305e-007,2.803113e-004
3.640293e-005,2.809595e-004
8.242948e-005,2.866318e-004
1.216493e-004,2.945730e-004
1.363972e-004,2.963557e-004
1.231079e-004,2.879283e-004
9.134307e-005,2.720459e-004
5.406805e-005,2.577842e-004
2.813760e-005,2.503292e-004
2.052053e-005,2.466017e-004
2.489629e-005,2.401191e-004
2.878586e-005,2.305572e-004
2.343770e-005,2.184023e-004
5.124321e-006,2.104611e-004
-2.404744e-005,2.081922e-004
-6.197072e-005,2.051129e-004
-1.020008e-004,1.937684e-004
-1.373311e-004,1.717275e-004
-1.605064e-004,1.422316e-004
-1.614788e-004,1.107909e-004
-1.311726e-004,8.113296e-005
-6.829127e-005,5.714729e-005
1.906194e-005,3.932010e-005
1.125736e-004,2.943412e-005
1.846927e-004,2.522042e-005
2.151610e-004,1.987227e-005
2.004130e-004,1.063454e-005
1.414213e-004,-2.978945e-006
5.066468e-005,-1.918548e-005
-4.868137e-005,-3.571614e-005
-1.255003e-004,-5.046408e-005
-1.587237e-004,-6.748094e-005
-1.426792e-004,-9.373552e-005
-8.854943e-005,-1.300382e-004
-1.432352e-005,-1.684476e-004
6.314371e-005,-1.994021e-004
1.218114e-004,-2.182017e-004
1.483901e-004,-2.232257e-004
1.457970e-004,-2.182017e-004
1.231079e-004,-2.057227e-004
9.199134e-005,-1.877334e-004
5.941620e-005,-1.661787e-004
2.116879e-005,-1.446240e-004
-3.020592e-005,-1.323071e-004
-9.438378e-005,-1.323071e-004
-1.614788e-004,-1.405724e-004
-2.180396e-004,-1.506204e-004
-2.358668e-004,-1.559686e-004
-1.885437e-004,-1.551583e-004
-7.947377e-005,-1.491618e-004
5.487838e-005,-1.387897e-004
1.793446e-004,-1.243659e-004
2.807975e-004,-1.076731e-004
3.676645e-004,-9.179074e-005
4.602039e-004,-8.222889e-005
5.832114e-004,-7.947377e-005
7.481941e-004,-7.590833e-005
9.382969e-004,-6.618442e-005
1.114300e-003,-5.127441e-005
1.241684e-003,-3.506788e-005
1.302782e-003,-2.096820e-005
1.298569e-003,-6.544382e-006
1.240711e-003,9.824215e-006
1.145903e-003,3.121684e-005
1.039750e-003,5.763349e-005
9.559621e-004,8.486046e-005
9.047493e-004,1.090082e-004
8.632605e-004,1.257009e-004
7.901691e-004,1.346145e-004
6.426895e-004,1.422316e-004
4.007258e-004,1.555210e-004
7.092284e-005,1.770756e-004
-3.164132e-004,2.062474e-004
-7.277349e-004,2.380122e-004
-1.140029e-003,2.673460e-004
-1.542437e-003,2.898731e-004
-1.920050e-003,3.041349e-004
-2.234457e-003,3.106175e-004
-2.426666e-003,3.081865e-004
-2.450004e-003,2.992729e-004
-2.305765e-003,2.879283e-004
-2.047271e-003,2.749631e-004
-1.766574e-003,2.595669e-004
-1.563182e-003,2.422259e-004
-1.486363e-003,2.271538e-004
-1.512131e-003,2.175920e-004
-1.559454e-003,2.120818e-004
-1.536765e-003,2.117576e-004
-1.388799e-003,2.169437e-004
-1.119447e-003,2.248849e-004
-7.758683e-004,2.316917e-004
-4.170558e-004,2.326641e-004
-8.935975e-005,2.232643e-004
1.798307e-004,2.017096e-004
3.827366e-004,1.751309e-004
5.277851e-004,1.496866e-004
6.298863e-004,1.286181e-004
7.045984e-004,1.107909e-004
7.580801e-004,9.263960e-005
7.903311e-004,7.367795e-005
7.985964e-004,5.147500e-005
7.896828e-004,2.732727e-005
7.757452e-004,2.623614e-007
7.687764e-004,-2.404744e-005
7.700729e-004,-4.009191e-005
7.749349e-004,-4.592625e-005
7.755831e-004,-4.738484e-005
7.669937e-004,-5.192267e-005
7.503009e-004,-6.261898e-005
7.300428e-004,-7.850138e-005
7.099467e-004,-9.843541e-005
6.887161e-004,-1.208004e-004
6.634339e-004,-1.421931e-004
6.336138e-004,-1.598582e-004
6.033076e-004,-1.760647e-004
5.819149e-004,-1.922712e-004
5.749461e-004,-2.066950e-004
5.775391e-004,-2.154466e-004
5.791598e-004,-2.183637e-004
5.751082e-004,-2.165810e-004
5.642498e-004,-2.154466e-004
5.449640e-004,-2.118811e-004
5.164405e-004,-2.018331e-004
4.770586e-004,-1.862748e-004
4.328148e-004,-1.705545e-004
3.947294e-004,-1.626133e-004
3.692851e-004,-1.621271e-004
3.543751e-004,-1.634236e-004
3.444891e-004,-1.608306e-004
3.397893e-004,-1.519170e-004
3.357376e-004,-1.381414e-004
3.308757e-004,-1.256624e-004
3.205035e-004,-1.156143e-004
3.013798e-004,-1.073490e-004
2.752873e-004,-1.005423e-004
2.407673e-004,-9.892161e-005
1.978200e-004,-9.746302e-005
1.542244e-004,-8.903562e-005
1.096565e-004,-7.039812e-005
6.362991e-005,-4.608832e-005
1.517237e-005,-1.950961e-005
-2.874733e-005,4.151929e-006
-5.581224e-005,2.554455e-005
-6.342931e-005,4.709924e-005
-6.035007e-005,7.027458e-005
-5.419158e-005,9.409818e-005
-4.965376e-005,1.159770e-004
-4.770897e-005,1.339663e-004
-4.754691e-005,1.470936e-004
-4.544006e-005,1.582761e-004
-3.733679e-005,1.668655e-004
-2.631635e-005,1.722137e-004
-1.464765e-005,1.772377e-004
-1.844488e-006,1.848548e-004
8.041497e-006,1.961994e-004
5.934648e-006,2.102990e-004
-1.108221e-005,2.237505e-004
-4.074016e-005,2.344468e-004
-7.736692e-005,2.381743e-004
-1.195039e-004,2.346088e-004
-1.592099e-004,2.292607e-004
-1.909747e-004,2.226160e-004
-2.146363e-004,2.132162e-004
-2.326255e-004,2.052750e-004
-2.480217e-004,2.007372e-004
-2.627696e-004,2.044647e-004
-2.797865e-004,2.128921e-004
-2.985861e-004,2.234263e-004
-3.102548e-004,2.331503e-004
-3.055549e-004,2.355812e-004
-2.794623e-004,2.261814e-004
-2.353806e-004,2.086784e-004
-1.843300e-004,1.879340e-004
-1.339277e-004,1.683241e-004
-8.449780e-005,1.540623e-004
-3.279896e-005,1.451488e-004
1.322759e-005,1.386662e-004
4.564065e-005,1.300767e-004
6.006447e-005,1.143563e-004
5.763349e-005,9.312580e-005
4.434413e-005,6.849186e-005
2.035846e-005,4.466826e-005
-1.237873e-005,2.554455e-005
-4.657452e-005,9.662150e-006
-6.812920e-005,-6.706447e-006
-7.088431e-005,-2.485776e-005
-6.148453e-005,-4.560212e-005
-5.678463e-005,-6.715681e-005
-6.699475e-005,-8.692878e-005
-9.276313e-005,-1.021629e-004
-1.201522e-004,-1.126972e-004
-1.310105e-004,-1.211246e-004
-1.222590e-004,-1.298761e-004
-1.008664e-004,-1.365208e-004
-7.850138e-005,-1.417068e-004
-6.472583e-005,-1.465688e-004
-5.970181e-005,-1.561307e-004
-5.791909e-005,-1.734716e-004
-5.581224e-005,-1.938919e-004
-5.046408e-005,-2.086398e-004
-4.284701e-005,-2.133397e-004
-4.219875e-005,-2.084778e-004
-5.419158e-005,-1.959987e-004
-8.628052e-005,-1.818991e-004
-1.327933e-004,-1.708786e-004
-1.684476e-004,-1.648822e-004
-1.626133e-004,-1.648822e-004
-9.924574e-005,-1.684476e-004
4.962256e-006,-1.729855e-004
1.133840e-004,-1.757406e-004
1.923098e-004,-1.757406e-004
2.294227e-004,-1.686097e-004
2.276400e-004,-1.561307e-004
1.934442e-004,-1.426792e-004
1.357490e-004,-1.337657e-004
6.119892e-005,-1.263107e-004
-2.907146e-005,-1.136696e-004
-1.344139e-004,-9.179074e-005
-2.480217e-004,-6.197072e-005
-3.541745e-004,-2.664048e-005
-4.347209e-004,1.095867e-005
-4.796130e-004,4.077869e-005
-4.888507e-004,5.974033e-005
-4.611376e-004,7.076078e-005
-3.950149e-004,7.691926e-005
-2.976137e-004,8.323981e-005
-1.840059e-004,8.875003e-005
-7.477388e-005,9.782569e-005
1.209313e-005,1.077117e-004
7.432621e-005,1.206769e-004
1.151667e-004,1.373696e-004
1.480659e-004,1.566554e-004
1.804790e-004,1.730240e-004
2.145127e-004,1.843686e-004
2.498430e-004,1.952270e-004
2.785285e-004,2.073819e-004
2.919800e-004,2.179161e-004
2.901973e-004,2.248849e-004
2.722080e-004,2.308813e-004
2.346088e-004,2.355812e-004
1.772377e-004,2.372019e-004
9.879808e-005,2.336365e-004
9.106227e-007,2.247229e-004
-1.078352e-004,2.145127e-004
-2.193361e-004,2.094887e-004
-3.250027e-004,2.096508e-004
-4.177041e-004,2.145127e-004
-4.860956e-004,2.242366e-004
-5.167259e-004,2.368777e-004
-4.966299e-004,2.467637e-004
-4.217557e-004,2.491947e-004
-2.951827e-004,2.423880e-004
-1.391138e-004,2.286124e-004
1.501031e-005,2.115956e-004
1.472556e-004,1.939304e-004
2.547049e-004,1.785342e-004
3.342791e-004,1.655690e-004
3.874365e-004,1.501728e-004
4.237391e-004,1.302388e-004
4.508040e-004,1.041462e-004
4.687933e-004,7.319176e-005
4.678209e-004,4.061663e-005
4.367043e-004,9.824215e-006
3.712299e-004,-1.610624e-005
2.725321e-004,-3.069211e-005
1.412592e-004,-3.847125e-005
-2.599222e-005,-4.592625e-005
-2.233878e-004,-5.483985e-005
-4.102490e-004,-6.375344e-005
-5.292050e-004,-6.958779e-005
-5.329325e-004,-7.590833e-005
-4.092767e-004,-8.757704e-005
-1.828714e-004,-1.075111e-004
8.729144e-005,-1.334415e-004
3.472443e-004,-1.582375e-004
5.657084e-004,-1.742820e-004
7.318255e-004,-1.775233e-004
8.488368e-004,-1.715269e-004
9.332729e-004,-1.629374e-004
1.001665e-003,-1.548341e-004
1.054822e-003,-1.498101e-004
1.076863e-003,-1.465688e-004
1.053363e-003,-1.444620e-004
9.749237e-004,-1.402483e-004
8.430023e-004,-1.352242e-004
6.634339e-004,-1.276072e-004
4.414042e-004,-1.217728e-004
1.796687e-004,-1.167488e-004
-1.248521e-004,-1.133454e-004
-4.674581e-004,-1.105903e-004
-8.335636e-004,-1.060525e-004
-1.200479e-003,-9.989401e-005
-1.538710e-003,-9.568031e-005
-1.805469e-003,-9.162867e-005
-1.946142e-003,-8.547019e-005
-1.923291e-003,-7.655660e-005
-1.738861e-003,-6.521203e-005
-1.436771e-003,-5.159854e-005
-1.084927e-003,-3.344723e-005
-7.411864e-004,-1.059602e-005
-4.437966e-004,1.452411e-005
-2.058847e-004,3.656499e-005
-2.064406e-005,5.341979e-005
1.231079e-004,6.346784e-005
2.370398e-004,6.930219e-005
3.277964e-004,7.724339e-005
3.992672e-004,8.793970e-005
4.610142e-004,9.701536e-005
5.209784e-004,1.030118e-004
5.772150e-004,1.064152e-004
6.230795e-004,1.081979e-004
6.572754e-004,1.140322e-004
6.768853e-004,1.307250e-004
6.819093e-004,1.539003e-004
6.734819e-004,1.748067e-004
6.514410e-004,1.895547e-004
6.149763e-004,1.963614e-004
5.713807e-004,1.966855e-004
5.386435e-004,1.960373e-004
5.323229e-004,1.973338e-004
5.542018e-004,1.997648e-004
5.901803e-004,2.038164e-004
6.190279e-004,2.093267e-004
6.170832e-004,2.153231e-004
5.642498e-004,2.185644e-004
4.496696e-004,2.226160e-004
2.842008e-004,2.299089e-004
1.025256e-004,2.386605e-004
-4.203669e-005,2.431983e-004
-1.049180e-004,2.435224e-004
-6.667062e-005,2.409294e-004
4.790957e-005,2.329882e-004
1.889064e-004,2.164575e-004
3.054314e-004,1.957132e-004
3.712299e-004,1.762653e-004
3.845193e-004,1.602208e-004
3.600474e-004,1.438522e-004
3.115899e-004,1.231079e-004
2.506533e-004,1.002567e-004
1.837203e-004,7.384002e-005
1.198666e-004,4.434413e-005
7.254349e-005,1.209313e-005
4.823370e-005,-1.756482e-005
4.547859e-005,-3.976777e-005
5.098881e-005,-5.451572e-005
4.936815e-005,-6.326724e-005
2.992031e-005,-6.667062e-005
-1.529591e-005,-6.829127e-005
-8.368748e-005,-7.250496e-005
-1.663408e-004,-8.125649e-005
-2.452666e-004,-9.486997e-005
-3.068514e-004,-1.143178e-004
-3.446126e-004,-1.383035e-004
-3.556330e-004,-1.608306e-004
-3.399127e-004,-1.780095e-004
-2.977757e-004,-1.885437e-004
-2.256567e-004,-1.930815e-004
-1.261486e-004,-1.942160e-004
-1.351319e-005,-1.958367e-004
9.393612e-005,-1.961608e-004
1.798307e-004,-1.904885e-004
2.318537e-004,-1.796301e-004
2.478982e-004,-1.729855e-004
2.360674e-004,-1.729855e-004
2.104611e-004,-1.809267e-004
1.874478e-004,-1.919471e-004
1.717275e-004,-1.974573e-004
1.577899e-004,-1.943781e-004
1.402868e-004,-1.851404e-004
1.175977e-004,-1.739578e-004
9.053275e-005,-1.619650e-004
6.071273e-005,-1.489998e-004
3.137890e-005,-1.387897e-004
4.800190e-006,-1.276072e-004
-2.129233e-005,-1.133454e-004
-5.046408e-005,-9.470791e-005
-8.352541e-005,-7.169464e-005
-1.198280e-004,-4.430560e-005
-1.543479e-004,-1.562004e-005
-1.812508e-004,1.338965e-005
-1.948643e-004,4.110282e-005
-1.950263e-004,6.541262e-005
-1.870851e-004,8.259155e-005
-1.791439e-004,9.312580e-005
-1.708786e-004,9.879808e-005
-1.608306e-004,1.017153e-004
-1.467309e-004,1.051186e-004
-1.310105e-004,1.083599e-004
-1.190177e-004,1.128978e-004
-1.135075e-004,1.214872e-004
-1.128592e-004,1.351007e-004
-1.203142e-004,1.560072e-004
-1.381414e-004,1.817755e-004
-1.656925e-004,2.081922e-004
-1.974573e-004,2.279642e-004
-2.123673e-004,2.386605e-004
-1.911368e-004,2.415777e-004
-1.340898e-004,2.389846e-004
-6.213279e-005,2.316917e-004
5.864920e-007,2.258573e-004
3.510641e-005,2.237505e-004
3.850978e-005,2.237505e-004
2.165498e-005,2.218057e-004
2.531276e-006,2.171058e-004
-1.497178e-005,2.093267e-004
-3.393342e-005,1.997648e-004
-5.257093e-005,1.910133e-004
-7.509801e-005,1.872858e-004
-9.535618e-005,1.879340e-004
-9.827335e-005,1.890685e-004
-7.704279e-005,1.898788e-004
-4.560212e-005,1.885823e-004
-3.377136e-005,1.825859e-004
-6.294311e-005,1.723757e-004
-1.261486e-004,1.616794e-004
-1.985918e-004,1.519555e-004
-2.502906e-004,1.430419e-004
-2.570974e-004,1.329939e-004
-2.094502e-004,1.229458e-004
-1.146419e-004,1.081979e-004
6.420843e-006,8.550872e-005
1.247285e-004,5.925414e-005
2.195368e-004,3.883391e-005
2.777182e-004,2.959619e-005
2.971661e-004,3.202716e-005
2.871180e-004,3.769945e-005
2.572980e-004,3.948217e-005
2.140265e-004,3.348575e-005
1.626518e-004,2.230325e-005
1.101427e-004,6.096713e-006
6.152305e-005,-1.254080e-005
1.338965e-005,-3.279896e-005
-3.247483e-005,-5.354332e-005
-6.910160e-005,-7.444975e-005
-8.433573e-005,-9.470791e-005
-6.683268e-005,-1.105903e-004
-2.226472e-005,-1.206384e-004
2.667901e-005,-1.266348e-004
5.309566e-005,-1.353863e-004
3.996837e-005,-1.506204e-004
-1.108221e-005,-1.710407e-004
-7.444975e-005,-1.934057e-004
-1.212866e-004,-2.165810e-004
-1.290658e-004,-2.365151e-004
-9.211487e-005,-2.489941e-004
-2.485776e-005,-2.545043e-004
4.709924e-005,-2.527216e-004
1.080358e-004,-2.449425e-004
1.467694e-004,-2.329496e-004
1.573037e-004,-2.167431e-004
1.412592e-004,-1.994021e-004
1.083599e-004,-1.864369e-004
7.513654e-005,-1.817370e-004
5.277153e-005,-1.831956e-004
4.175109e-005,-1.869231e-004
3.186510e-005,-1.853024e-004
1.144487e-005,-1.749302e-004
-1.918548e-005,-1.551583e-004
-5.159854e-005,-1.287416e-004
-7.380149e-005,-1.013526e-004
-7.850138e-005,-7.979791e-005
-6.796714e-005,-6.407757e-005
-4.803310e-005,-4.689865e-005
-2.566809e-005,-2.874733e-005
-3.789272e-006,-7.192643e-006
1.419998e-005,2.084466e-005
2.538249e-005,5.406805e-005
3.154097e-005,8.729144e-005
3.478228e-005,1.133840e-004
3.640293e-005,1.362352e-004
3.802358e-005,1.603829e-004
3.688912e-005,1.892305e-004
3.154097e-005,2.179161e-004
2.359977e-005,2.415777e-004
1.452411e-005,2.582704e-004
9.662150e-006,2.697770e-004
1.079661e-005,2.783665e-004
1.517237e-005,2.851732e-004
1.873781e-005,2.919800e-004
2.068259e-005,3.008936e-004
2.246531e-005,3.089969e-004
2.473423e-005,3.122381e-004
2.878586e-005,3.072141e-004
3.494434e-005,2.945730e-004
4.272347e-005,2.796630e-004
5.228533e-005,2.675081e-004
6.217132e-005,2.584324e-004
7.351589e-005,2.504913e-004
8.356394e-005,2.461155e-004
9.215340e-005,2.459534e-004
9.620504e-005,2.483844e-004
9.296373e-005,2.466017e-004
7.789165e-005,2.388225e-004
5.504044e-005,2.269918e-004
2.829966e-005,2.143507e-004
3.179537e-006,2.034923e-004
-1.562004e-005,1.923098e-004
-2.566809e-005,1.786963e-004
-2.258885e-005,1.595726e-004
-5.085794e-006,1.355869e-004
2.797553e-005,1.132219e-004
7.270556e-005,9.328786e-005
1.197045e-004,7.189524e-005
1.543865e-004,4.871989e-005
1.658931e-004,2.765140e-005
1.553589e-004,8.689758e-006
1.321835e-004,-6.706447e-006
1.056048e-004,-1.853722e-005
8.226741e-005,-2.793700e-005
6.703327e-005,-3.733679e-005
5.876794e-005,-4.868137e-005
5.795762e-005,-6.602235e-005
6.249545e-005,-8.968389e-005
6.800567e-005,-1.180453e-004
7.059871e-005,-1.444620e-004
6.525056e-005,-1.622891e-004
5.536457e-005,-1.731475e-004
4.515445e-005,-1.797922e-004
3.980630e-005,-1.856265e-004
3.915804e-005,-1.906506e-004
3.818565e-005,-1.929195e-004
3.137890e-005,-1.919471e-004
1.938607e-005,-1.870851e-004
9.500085e-006,-1.802784e-004
1.063454e-005,-1.749302e-004
2.068259e-005,-1.721751e-004
3.186510e-005,-1.762268e-004
3.786152e-005,-1.861127e-004
4.045456e-005,-1.998883e-004
3.996837e-005,-2.100984e-004
3.802358e-005,-2.130156e-004
3.543054e-005,-2.070192e-004
2.781346e-005,-1.977815e-004
1.322759e-005,-1.865989e-004
-3.951337e-006,-1.720131e-004
-1.529591e-005,-1.530514e-004
-1.675450e-005,-1.316588e-004
-1.108221e-005,-1.120489e-004
5.448452e-006,-9.470791e-005
3.526847e-005,-7.995997e-005
7.335383e-005,-6.391550e-005
1.150046e-004,-4.122636e-005
1.558451e-004,-1.221667e-005
2.007372e-004,1.857574e-005
2.543808e-004,4.353380e-005
3.102934e-004,6.006447e-005
3.592371e-004,6.946425e-005
3.965121e-004,7.270556e-005
4.172565e-004,7.967438e-005
4.123946e-004,9.490851e-005
3.765781e-004,1.201907e-004
3.141829e-004,1.501728e-004
2.328261e-004,1.791825e-004
1.391524e-004,2.041406e-004
4.045456e-005,2.229401e-004
-5.435365e-005,2.347709e-004
-1.391138e-004,2.393087e-004
-2.120432e-004,2.355812e-004
-2.760590e-004,2.278021e-004
-3.337542e-004,2.190506e-004
-3.836704e-004,2.133783e-004
-4.087905e-004,2.107852e-004
-3.838324e-004,2.094887e-004
-3.070135e-004,2.065715e-004
-2.083157e-004,2.000889e-004
-1.217728e-004,1.908512e-004
-7.201877e-005,1.838824e-004
-7.169464e-005,1.798307e-004
-1.125351e-004,1.801549e-004
-1.635857e-004,1.861513e-004
-1.901644e-004,1.961994e-004
-1.707166e-004,2.004130e-004
-1.045939e-004,1.968476e-004
-1.124428e-005,1.877720e-004
7.643307e-005,1.775618e-004
1.218114e-004,1.665414e-004
9.620504e-005,1.517934e-004
-9.461558e-006,1.326697e-004
-1.872472e-004,1.127357e-004
-4.105732e-004,9.588091e-005
-6.429748e-004,8.356394e-005
-8.507425e-004,7.384002e-005
-1.011835e-003,6.476436e-005
-1.093516e-003,5.163707e-005
-1.061103e-003,3.348575e-005
-9.030896e-004,1.241726e-005
-6.356818e-004,-1.189254e-005
-2.976137e-004,-3.231277e-005
5.795762e-005,-4.754691e-005
3.785229e-004,-5.824322e-005
6.295622e-004,-6.893953e-005
7.891966e-004,-8.239095e-005
8.421920e-004,-9.697683e-005
7.857933e-004,-1.118868e-004
6.545202e-004,-1.261486e-004
5.114165e-004,-1.387897e-004
4.245494e-004,-1.511067e-004
4.268184e-004,-1.605064e-004
5.050959e-004,-1.668270e-004
6.115729e-004,-1.708786e-004
6.880678e-004,-1.713648e-004
6.984400e-004,-1.681235e-004
6.350724e-004,-1.608306e-004
5.169268e-004,-1.502963e-004
3.733368e-004,-1.413827e-004
2.333123e-004,-1.366828e-004
1.128978e-004,-1.365208e-004
2.424803e-005,-1.412206e-004
-2.372331e-005,-1.502963e-004
-3.247483e-005,-1.585616e-004
-7.354709e-006,-1.634236e-004
4.515445e-005,-1.614788e-004
1.081979e-004,-1.506204e-004
1.636242e-004,-1.339277e-004
1.983062e-004,-1.126972e-004
2.080301e-004,-9.130454e-005
1.973338e-004,-7.137051e-005
1.704310e-004,-5.402952e-005
1.352628e-004,-4.122636e-005
1.051186e-004,-3.134038e-005
8.388807e-005,-2.064406e-005
6.946425e-005,-6.544382e-006
6.914012e-005,1.193106e-005
9.879808e-005,3.380988e-005
1.761032e-004,5.860588e-005
3.132105e-004,8.194328e-005
5.046097e-004,1.010670e-004
7.224257e-004,1.104668e-004
9.212800e-004,1.124116e-004
1.061629e-003,1.137081e-004
1.128562e-003,1.218114e-004
1.122403e-003,1.355869e-004
1.049798e-003,1.526038e-004
9.139871e-004,1.715654e-004
7.101087e-004,1.861513e-004
4.394595e-004,1.976579e-004
1.146805e-004,2.049509e-004
-2.384598e-004,2.128921e-004
-5.914380e-004,2.222919e-004
-9.304786e-004,2.326641e-004
-1.255744e-003,2.412535e-004
-1.563992e-003,2.457913e-004
-1.841286e-003,2.444948e-004
-2.061208e-003,2.381743e-004
-2.186647e-003,2.271538e-004
-2.182434e-003,2.140265e-004
-2.032685e-003,2.065715e-004
-1.757498e-003,2.098128e-004
-1.409382e-003,2.221298e-004
-1.049435e-003,2.370398e-004
-7.249799e-004,2.478982e-004
-4.541688e-004,2.472499e-004
-2.334358e-004,2.350950e-004
-5.305713e-005,2.127300e-004
9.377406e-005,1.848548e-004
2.111094e-004,1.607070e-004
3.026763e-004,1.441764e-004
3.722023e-004,1.346145e-004
4.208219e-004,1.229458e-004
4.457800e-004,1.046324e-004
4.464283e-004,8.421220e-005
4.264942e-004,6.525056e-005
3.981328e-004,4.790957e-005
3.769022e-004,3.105477e-005
3.760919e-004,1.419998e-005
4.046154e-004,-2.330684e-006
4.624728e-004,-1.967167e-005
5.383193e-004,-3.279896e-005
6.208107e-004,-3.992984e-005
6.945504e-004,-4.592625e-005
7.431700e-004,-5.678463e-005
7.569456e-004,-7.509801e-005
7.365254e-004,-9.892161e-005
6.835299e-004,-1.274451e-004
6.012007e-004,-1.548341e-004
5.005581e-004,-1.784957e-004
3.994293e-004,-1.948643e-004
3.175863e-004,-2.026434e-004
2.723701e-004,-1.997262e-004
2.762596e-004,-1.900023e-004
3.292550e-004,-1.817370e-004
4.204978e-004,-1.786577e-004
5.499881e-004,-1.831956e-004
7.175637e-004,-1.900023e-004
9.066941e-004,-1.937298e-004
1.084156e-003,-1.883817e-004
1.212026e-003,-1.760647e-004
1.261456e-003,-1.642339e-004
1.230015e-003,-1.614788e-004
1.130182e-003,-1.665028e-004
9.828649e-004,-1.726613e-004
8.091307e-004,-1.708786e-004
6.144901e-004,-1.614788e-004
3.924605e-004,-1.494860e-004
1.344524e-004,-1.389517e-004
-1.545100e-004,-1.292278e-004
-4.580583e-004,-1.177212e-004
-7.614446e-004,-1.029732e-004
-1.057862e-003,-8.547019e-005
-1.350390e-003,-6.537409e-005
-1.632545e-003,-4.219875e-005
-1.874833e-003,-1.578211e-005
-2.040950e-003,1.176900e-005
-2.110801e-003,3.397195e-005
-2.075632e-003,4.839576e-005
-1.928963e-003,5.925414e-005
-1.685541e-003,7.254349e-005
-1.383127e-003,9.344993e-005
-1.066451e-003,1.172735e-004
-7.815406e-004,1.407730e-004
-5.497872e-004,1.621656e-004
-3.690845e-004,1.843686e-004
-2.271153e-004,2.060853e-004
-1.105903e-004,2.269918e-004
-1.043395e-005,2.410915e-004
7.546067e-005,2.508154e-004
1.456350e-004,2.585945e-004
1.979821e-004,2.652392e-004
2.365536e-004,2.688046e-004
2.707494e-004,2.731804e-004
3.052694e-004,2.751252e-004
3.441650e-004,2.718839e-004
3.819262e-004,2.631324e-004
4.114222e-004,2.550291e-004
4.247115e-004,2.508154e-004
4.164462e-004,2.488706e-004
3.872744e-004,2.443328e-004
3.461098e-004,2.355812e-004
3.075383e-004,2.231022e-004
2.874421e-004,2.057612e-004
2.892249e-004,1.866375e-004
3.085106e-004,1.655690e-004
3.358997e-004,1.441764e-004
3.605336e-004,1.276457e-004
3.741471e-004,1.182459e-004
3.744712e-004,1.137081e-004
3.598854e-004,1.119254e-004
3.339549e-004,1.060910e-004
3.089969e-004,9.490851e-005
2.970040e-004,7.708133e-005
3.002453e-004,5.228533e-005
3.102934e-004,2.667901e-005
3.171001e-004,3.989864e-006
3.145071e-004,-1.351319e-005
3.015418e-004,-2.696461e-005
2.773941e-004,-3.879538e-005
2.401191e-004,-5.467778e-005
1.934442e-004,-7.347736e-005
1.378558e-004,-9.130454e-005
7.821578e-005,-1.109144e-004
2.878586e-005,-1.332795e-004
1.436204e-005,-1.574272e-004
5.260946e-005,-1.768750e-004
1.449867e-004,-1.896782e-004
2.752873e-004,-1.961608e-004
4.209840e-004,-1.992400e-004
5.751082e-004,-2.036158e-004
7.519216e-004,-2.112329e-004
9.643894e-004,-2.217671e-004
1.192902e-003,-2.305186e-004
1.392729e-003,-2.334358e-004
1.512009e-003,-2.290601e-004
1.523840e-003,-2.212809e-004
1.431300e-003,-2.128535e-004
1.249139e-003,-2.076674e-004
9.933992e-004,-2.075054e-004
6.725095e-004,-2.092881e-004
2.814457e-004,-2.086398e-004
-1.771992e-004,-2.019951e-004
-6.719845e-004,-1.865989e-004
-1.150077e-003,-1.642339e-004
-1.559292e-003,-1.415448e-004
-1.855385e-003,-1.220970e-004
-2.011616e-003,-1.041077e-004
-2.048729e-003,-8.433573e-005
-2.026689e-003,-6.407757e-005
-2.010482e-003,-4.446767e-005
-2.035278e-003,-2.469570e-005
-2.084384e-003,-4.599598e-006
-2.085519e-003,1.663096e-005
-1.956190e-003,4.256141e-005
-1.663824e-003,7.140904e-005
-1.237917e-003,1.015532e-004
-7.488034e-004,1.286181e-004
-2.791382e-004,1.466074e-004
1.085220e-004,1.563313e-004
3.832228e-004,1.584381e-004
5.478812e-004,1.576278e-004
6.318311e-004,1.595726e-004
6.686199e-004,1.680000e-004
6.887161e-004,1.845306e-004
7.010330e-004,2.059233e-004
6.995744e-004,2.256952e-004
6.815852e-004,2.440086e-004
6.514410e-004,2.600531e-004
6.232416e-004,2.752873e-004
6.057385e-004,2.882525e-004
6.023352e-004,2.965178e-004
6.086557e-004,2.986247e-004
6.144901e-004,2.987867e-004
6.094660e-004,2.973281e-004
5.919630e-004,2.934386e-004
5.608465e-004,2.842008e-004
5.214646e-004,2.731804e-004
4.783552e-004,2.641047e-004
4.360561e-004,2.613496e-004
3.974845e-004,2.628082e-004
3.666921e-004,2.624841e-004
3.444891e-004,2.629703e-004
3.284447e-004,2.624841e-004
3.169380e-004,2.540567e-004
3.086727e-004,2.383363e-004
3.002453e-004,2.172679e-004
2.903593e-004,1.953890e-004
2.798251e-004,1.752929e-004
2.666978e-004,1.603829e-004
2.487085e-004,1.519555e-004
2.234263e-004,1.469315e-004
1.892305e-004,1.402868e-004
1.521176e-004,1.268354e-004
1.182459e-004,1.069013e-004
9.150514e-005,8.502253e-005
7.092284e-005,6.670914e-005
5.374392e-005,5.277153e-005
3.883391e-005,4.223728e-005
2.538249e-005,3.283749e-005
1.646890e-005,2.035846e-005
9.824215e-006,3.503668e-006
6.096713e-006,-1.578211e-005
5.934648e-006,-3.587821e-005
1.160693e-005,-5.516398e-005
2.003433e-005,-7.477388e-005
2.635488e-005,-9.341139e-005
2.716521e-005,-1.107524e-004
2.392390e-005,-1.289037e-004
2.278944e-005,-1.477033e-004
2.684107e-005,-1.611547e-004
3.024445e-005,-1.705545e-004
2.667901e-005,-1.801163e-004
1.695509e-005,-1.908126e-004
7.717366e-006,-2.018331e-004
5.864920e-007,-2.122053e-004
-4.599598e-006,-2.240360e-004
-1.254080e-005,-2.368392e-004
-2.534396e-005,-2.528836e-004
-4.252288e-005,-2.711970e-004
-6.164659e-005,-2.901587e-004
-8.336335e-005,-3.087962e-004
-1.016767e-004,-3.258130e-004
-1.146419e-004,-3.400748e-004
-1.149661e-004,-3.525538e-004
-9.843541e-005,-3.582261e-004
-7.088431e-005,-3.546606e-004
-4.511593e-005,-3.408851e-004
-2.858527e-005,-3.172236e-004
-2.113026e-005,-2.867553e-004
-1.967167e-005,-2.569353e-004
-2.129233e-005,-2.340841e-004
-2.550602e-005,-2.185258e-004
-3.377136e-005,-2.041020e-004
-4.673658e-005,-1.835197e-004
-6.342931e-005,-1.571031e-004
-7.963584e-005,-1.233935e-004
-8.790117e-005,-8.320128e-005
-8.773911e-005,-4.009191e-005
-8.271508e-005,-7.100305e-007
-7.785312e-005,3.543054e-005
-7.833932e-005,6.768154e-005
-8.287715e-005,9.474644e-005
-8.676672e-005,1.203528e-004
-8.887356e-005,1.453108e-004
-9.276313e-005,1.699448e-004
-9.762509e-005,1.960373e-004
-1.008664e-004,2.237505e-004
-9.730096e-005,2.517878e-004
-8.401160e-005,2.778803e-004
-6.456377e-005,2.999212e-004
-4.511593e-005,3.162898e-004
-3.117831e-005,3.295791e-004
-2.177852e-005,3.428685e-004
-1.902341e-005,3.550234e-004
-2.534396e-005,3.618301e-004
-4.203669e-005,3.592371e-004
-6.650855e-005,3.504856e-004
-9.649064e-005,3.425444e-004
-1.250141e-004,3.373583e-004
-1.415448e-004,3.344411e-004
-1.444620e-004,3.347652e-004
-1.379794e-004,3.365480e-004
-1.290658e-004,3.367100e-004
-1.203142e-004,3.308757e-004
-1.097800e-004,3.216380e-004
-9.341139e-005,3.081865e-004
-6.715681e-005,2.895490e-004
-3.328516e-005,2.676702e-004
1.883015e-006,2.420638e-004
3.137890e-005,2.158093e-004
5.066468e-005,1.921477e-004
6.541262e-005,1.722137e-004
8.161915e-005,1.530900e-004
9.863601e-005,1.372076e-004
1.094944e-004,1.286181e-004
1.106288e-004,1.274836e-004
1.039842e-004,1.300767e-004
9.490851e-005,1.307250e-004
8.664318e-005,1.210010e-004
8.891209e-005,1.005808e-004
1.098185e-004,7.675720e-005
1.406109e-004,5.698522e-005
1.681620e-004,4.158902e-005
1.837203e-004,2.829966e-005
1.824238e-004,1.598270e-005
1.641104e-004,-5.479652e-007
1.326697e-004,-2.501983e-005
9.312580e-005,-5.435365e-005
5.341979e-005,-8.206682e-005
1.889987e-005,-1.049180e-004
-1.010982e-005,-1.229073e-004
-3.701266e-005,-1.408965e-004
-5.791909e-005,-1.635857e-004
-6.553616e-005,-1.890299e-004
-5.289507e-005,-2.136638e-004
-2.307504e-005,-2.342462e-004
1.452411e-005,-2.464010e-004
4.693717e-005,-2.499665e-004
6.897806e-005,-2.496423e-004
7.789165e-005,-2.496423e-004
7.675720e-005,-2.540181e-004
6.995045e-005,-2.652006e-004
5.893001e-005,-2.788141e-004
4.612685e-005,-2.895104e-004
3.316162e-005,-2.955068e-004
2.392390e-005,-2.993964e-004
2.052053e-005,-3.024756e-004
2.311357e-005,-3.039342e-004
3.316162e-005,-3.016653e-004
5.050261e-005,-2.946965e-004
8.242948e-005,-2.846485e-004
1.333180e-004,-2.695764e-004
1.887444e-004,-2.475355e-004
2.350950e-004,-2.203085e-004
2.654013e-004,-1.903264e-004
2.869559e-004,-1.588858e-004
3.093210e-004,-1.284175e-004
3.381686e-004,-9.600444e-005
3.785229e-004,-6.116039e-005
4.449697e-004,-2.647842e-005
5.603603e-004,5.448452e-006
7.327979e-004,3.397195e-005
9.394314e-004,6.136099e-005
1.133586e-003,9.166720e-005
1.261131e-003,1.248906e-004
1.276852e-003,1.602208e-004
1.163892e-003,1.944166e-004
9.348936e-004,2.234263e-004
6.272933e-004,2.470879e-004
2.833905e-004,2.671840e-004
-7.331530e-005,2.887387e-004
-4.439586e-004,3.114278e-004
-8.483115e-004,3.300653e-004
-1.300636e-003,3.397893e-004
-1.798987e-003,3.397893e-004
-2.303334e-003,3.315239e-004
-2.725191e-003,3.221241e-004
-2.954838e-003,3.161277e-004
-2.915781e-003,3.169380e-004
-2.615473e-003,3.209897e-004
-2.142890e-003,3.261758e-004
-1.610667e-003,3.316860e-004
-1.094327e-003,3.376824e-004
-6.131548e-004,3.428685e-004
-1.582375e-004,3.428685e-004
2.691288e-004,3.354135e-004
6.522514e-004,3.248792e-004
9.592033e-004,3.120761e-004
1.166323e-003,2.974902e-004
1.268586e-003,2.793389e-004
1.278148e-003,2.566497e-004
1.219481e-003,2.282883e-004
1.112841e-003,1.960373e-004
9.788133e-004,1.598967e-004
8.339267e-004,1.200286e-004
6.916333e-004,7.886404e-005
5.540397e-004,4.272347e-005
4.192013e-004,1.403791e-005
2.838767e-004,-7.678839e-006
1.362352e-004,-2.323711e-005
-3.879538e-005,-3.312309e-005
-2.428356e-004,-3.879538e-005
-4.587066e-004,-4.106429e-005
-6.385990e-004,-4.349527e-005
-7.207661e-004,-4.851930e-005
-6.608020e-004,-6.051213e-005
-4.617858e-004,-8.125649e-005
-1.690959e-004,-1.062146e-004
1.521176e-004,-1.295519e-004
4.391353e-004,-1.515928e-004
6.496583e-004,-1.721751e-004
7.644006e-004,-1.872472e-004
7.888725e-004,-1.956746e-004
7.468975e-004,-1.985918e-004
6.704027e-004,-1.977815e-004
5.835356e-004,-1.922712e-004
4.971547e-004,-1.831956e-004
4.151496e-004,-1.750923e-004
3.399513e-004,-1.721751e-004
2.757735e-004,-1.767130e-004
2.282883e-004,-1.908126e-004
1.999268e-004,-2.113949e-004
1.851789e-004,-2.305186e-004
1.731861e-004,-2.395943e-004
1.532520e-004,-2.334358e-004
1.210010e-004,-2.160948e-004
8.340187e-005,-1.950263e-004
5.423012e-005,-1.754164e-004
4.499239e-005,-1.583996e-004
5.763349e-005,-1.431655e-004
8.680524e-005,-1.306864e-004
1.192183e-004,-1.203142e-004
1.430419e-004,-1.096179e-004
1.597346e-004,-9.389759e-005
1.808031e-004,-7.250496e-005
2.067336e-004,-4.997789e-005
2.242366e-004,-2.761287e-005
2.231022e-004,-6.544382e-006
2.051129e-004,1.128280e-005
1.769136e-004,2.278944e-005
1.448246e-004,2.829966e-005
1.098185e-004,3.105477e-005
7.853991e-005,3.624086e-005
5.487838e-005,5.034055e-005
5.115087e-005,7.610894e-005
8.599492e-005,1.060910e-004
1.709172e-004,1.315353e-004
2.885766e-004,1.470936e-004
4.063981e-004,1.526038e-004
5.008822e-004,1.535762e-004
5.589016e-004,1.574657e-004
5.731634e-004,1.670276e-004
5.415607e-004,1.803169e-004
4.728449e-004,1.939304e-004
3.869503e-004,2.054371e-004
3.054314e-004,2.132162e-004
2.380122e-004,2.167816e-004
1.811273e-004,2.211574e-004
1.153287e-004,2.273159e-004
1.711715e-005,2.336365e-004
-1.271210e-004,2.388225e-004
-3.100927e-004,2.406053e-004
-5.154294e-004,2.397949e-004
-7.225489e-004,2.346088e-004
-9.142721e-004,2.245608e-004
-1.079579e-003,2.101370e-004
-1.206638e-003,1.945787e-004
-1.268547e-003,1.796687e-004
-1.245209e-003,1.678379e-004
-1.133222e-003,1.626518e-004
-9.536540e-004,1.629760e-004
-7.403760e-004,1.602208e-004
-5.342290e-004,1.464453e-004
-3.666535e-004,1.206769e-004
-2.489941e-004,9.037068e-005
-1.771992e-004,6.476436e-005
-1.349001e-004,4.790957e-005
-9.924574e-005,3.915804e-005
-5.321920e-005,3.672706e-005
4.800190e-006,3.380988e-005
7.027458e-005,2.586868e-005
1.310491e-004,1.533444e-005
1.743205e-004,2.531276e-006
1.953890e-004,-1.027188e-005
1.950649e-004,-2.890940e-005
1.819376e-004,-5.483985e-005
1.647587e-004,-8.384954e-005
1.556830e-004,-1.088076e-004
1.636242e-004,-1.255003e-004
1.913374e-004,-1.344139e-004
2.396328e-004,-1.383035e-004
3.028383e-004,-1.392759e-004
3.704196e-004,-1.404103e-004
4.318424e-004,-1.455964e-004
4.843516e-004,-1.549962e-004
5.251921e-004,-1.622891e-004
5.514466e-004,-1.613168e-004
5.567948e-004,-1.538618e-004
5.386435e-004,-1.444620e-004
4.939134e-004,-1.408965e-004
4.268184e-004,-1.413827e-004
3.495132e-004,-1.442999e-004
2.746390e-004,-1.477033e-004
2.112714e-004,-1.496481e-004
1.667035e-004,-1.501342e-004
1.396385e-004,-1.493239e-004
1.231079e-004,-1.455964e-004
1.057669e-004,-1.368449e-004
8.242948e-005,-1.209625e-004
5.179914e-005,-9.778715e-005
1.371378e-005,-7.282909e-005
-3.134038e-005,-4.770897e-005
-7.542214e-005,-2.242678e-005
-1.110765e-004,-2.238346e-007
-1.334415e-004,1.825161e-005
-1.344139e-004,3.478228e-005
-1.178833e-004,4.871989e-005
-9.827335e-005,6.119892e-005
-8.806324e-005,7.302970e-005
-9.503204e-005,8.583286e-005
-1.131834e-004,1.026876e-004
-1.285796e-004,1.226217e-004
-1.319829e-004,1.396385e-004
-1.229073e-004,1.500107e-004
-1.075111e-004,1.566554e-004
-9.179074e-005,1.644345e-004
-8.384954e-005,1.782101e-004
-8.968389e-005,1.966855e-004
-1.018388e-004,2.154851e-004
-1.070249e-004,2.307193e-004
-1.007043e-004,2.435224e-004
-9.000802e-005,2.550291e-004
-8.465986e-005,2.615117e-004
-8.482193e-005,2.616738e-004
-8.822530e-005,2.564877e-004
-9.227693e-005,2.474120e-004
-9.454585e-005,2.373639e-004
-9.535618e-005,2.286124e-004
-9.130454e-005,2.213195e-004
-8.222889e-005,2.172679e-004
-6.958779e-005,2.138645e-004
-5.516398e-005,2.106232e-004
-4.009191e-005,2.034923e-004
-3.101625e-005,1.932822e-004
-3.166451e-005,1.808031e-004
-4.057810e-005,1.683241e-004
-5.370539e-005,1.560072e-004
-6.553616e-005,1.454729e-004
-7.056019e-005,1.376938e-004
-6.634648e-005,1.279698e-004
-5.743289e-005,1.127357e-004
-4.706071e-005,9.247754e-005
-3.749886e-005,6.865393e-005
-3.117831e-005,4.256141e-005
-2.647842e-005,1.776542e-005
-2.372331e-005,-2.168618e-006
-1.659243e-005,-1.869928e-005
-6.176923e-008,-3.701266e-005
2.392390e-005,-5.402952e-005
4.418206e-005,-6.553616e-005
4.969229e-005,-7.072225e-005
4.418206e-005,-7.007399e-005
3.235129e-005,-6.391550e-005
2.343770e-005,-5.759496e-005
2.343770e-005,-5.759496e-005
3.380988e-005,-6.991193e-005
4.807163e-005,-9.357346e-005
6.379197e-005,-1.230693e-004
7.578480e-005,-1.520790e-004
7.902610e-005,-1.786577e-004
7.302970e-005,-2.013469e-004
6.476436e-005,-2.183637e-004
6.119892e-005,-2.258187e-004
6.476436e-005,-2.248464e-004
7.448828e-005,-2.211189e-004
8.421220e-005,-2.190120e-004
8.615699e-005,-2.207947e-004
8.080883e-005,-2.196603e-004
7.189524e-005,-2.149604e-004
6.427817e-005,-2.107467e-004
5.601284e-005,-2.104225e-004
5.034055e-005,-2.102605e-004
4.920609e-005,-2.042641e-004
5.325772e-005,-1.927574e-004
5.957827e-005,-1.757406e-004
6.103686e-005,-1.546721e-004
5.682316e-005,-1.321450e-004
4.742337e-005,-1.117248e-004
3.818565e-005,-9.357346e-005
3.364782e-005,-7.817725e-005
3.510641e-005,-6.618442e-005
4.288554e-005,-5.613637e-005
5.309566e-005,-4.446767e-005
6.362991e-005,-3.053005e-005
7.059871e-005,-1.270286e-005
7.238143e-005,1.209313e-005
6.784360e-005,4.645098e-005
5.844381e-005,8.502253e-005
4.596478e-005,1.158149e-004
3.202716e-005,1.351007e-004
2.052053e-005,1.446626e-004
1.711715e-005,1.488763e-004
2.084466e-005,1.517934e-004
2.894792e-005,1.581140e-004
3.656499e-005,1.707551e-004
4.077869e-005,1.897167e-004
4.450620e-005,2.159713e-004
4.742337e-005,2.475741e-004
5.228533e-005,2.744769e-004
5.763349e-005,2.887387e-004
6.184718e-005,2.882525e-004
6.249545e-005,2.801492e-004
5.779555e-005,2.726942e-004
4.661304e-005,2.704253e-004
2.846173e-005,2.718839e-004
9.175954e-006,2.730183e-004
-2.168618e-006,2.701012e-004
1.396819e-006,2.632944e-004
2.181705e-005,2.537325e-004
5.131294e-005,2.433604e-004
7.886404e-005,2.365536e-004
9.247754e-005,2.328261e-004
9.798775e-005,2.271538e-004
1.083599e-004,2.193747e-004
1.291043e-004,2.122438e-004
1.519555e-004,2.077060e-004
1.611932e-004,2.017096e-004
1.430419e-004,1.914995e-004
9.037068e-005,1.780480e-004
8.527692e-006,1.626518e-004
-8.644259e-005,1.422316e-004
-1.642339e-004,1.135460e-004
-1.974573e-004,7.627100e-005
-1.809267e-004,3.996837e-005
-1.245279e-004,1.501031e-005
-4.754691e-005,3.341602e-006
3.170304e-005,-3.858999e-007
1.101427e-004,-1.844488e-006
1.864754e-004,-5.734056e-006
2.529222e-004,-1.156841e-005
2.974902e-004,-2.048200e-005
3.171001e-004,-3.085418e-005
3.112658e-004,-4.090223e-005
2.851732e-004,-5.046408e-005
2.550291e-004,-6.229485e-005
2.362295e-004,-8.141856e-005
2.375260e-004,-1.054042e-004
2.600531e-004,-1.308485e-004
2.936006e-004,-1.512687e-004
3.208276e-004,-1.639098e-004
3.279585e-004,-1.676373e-004
2.965178e-004,-1.677994e-004
2.102990e-004,-1.712027e-004
7.546067e-005,-1.801163e-004
-8.676672e-005,-1.898403e-004
-2.536940e-004,-1.930815e-004
-4.018217e-004,-1.882196e-004
-5.047331e-004,-1.784957e-004
-5.363359e-004,-1.677994e-004
-4.872300e-004,-1.566169e-004
-3.700569e-004,-1.454344e-004
-2.188499e-004,-1.350622e-004
-7.704279e-005,-1.253383e-004
1.873781e-005,-1.146419e-004
5.714729e-005,-1.062146e-004
4.061663e-005,-1.036215e-004
-2.129233e-005,-1.063766e-004
-1.041077e-004,-1.088076e-004
-1.747682e-004,-1.104282e-004
-2.016710e-004,-1.089697e-004
-1.731475e-004,-9.908367e-005
-1.036215e-004,-7.914964e-005
-1.756482e-005,-5.095028e-005
5.649903e-005,-1.967167e-005
1.004187e-004,7.879432e-006
1.172735e-004,2.748934e-005
1.336421e-004,3.753739e-005
1.696206e-004,4.337174e-005
2.286124e-004,4.969229e-005
2.986247e-004,5.828175e-005
3.598854e-004,7.011252e-005
3.978086e-004,8.291568e-005
4.060740e-004,9.377406e-005
3.828986e-004,1.047945e-004
3.245551e-004,1.200286e-004
2.350950e-004,1.401247e-004
1.592484e-004,1.610312e-004
1.540623e-004,1.809652e-004
2.393087e-004,1.974959e-004
3.790091e-004,2.094887e-004
5.148199e-004,2.169437e-004
5.872631e-004,2.203471e-004
5.695980e-004,2.193747e-004
4.671726e-004,2.148369e-004
3.000832e-004,2.070577e-004
9.296373e-005,1.940925e-004
-1.365208e-004,1.739964e-004
-3.779981e-004,1.508211e-004
-6.220684e-004,1.326697e-004
-8.492839e-004,1.226217e-004
-1.023342e-003,1.188942e-004
-1.113288e-003,1.148425e-004
-1.117502e-003,1.083599e-004
-1.079903e-003,9.960841e-005
-1.076986e-003,8.972242e-005
-1.170497e-003,7.740546e-005
-1.369838e-003,6.281957e-005
-1.625253e-003,4.564065e-005
-1.826052e-003,2.943412e-005
-1.835614e-003,1.646890e-005
-1.564478e-003,8.851824e-006
-1.019128e-003,5.286387e-006
-3.011791e-004,4.638125e-006
4.401077e-004,3.827799e-006
1.059846e-003,1.720949e-006
1.480730e-003,-2.168618e-006
1.693847e-003,-8.651231e-006
1.738415e-003,-1.643037e-005
1.667106e-003,-2.113026e-005
1.519302e-003,-2.048200e-005
1.312020e-003,-1.821308e-005
1.051581e-003,-1.529591e-005
7.507871e-004,-1.237873e-005
4.323286e-004,-8.651231e-006
1.286181e-004,-3.627206e-006
-1.295519e-004,-2.654814e-006
-3.339163e-004,-7.678839e-006
-5.006815e-004,-2.210265e-005
-6.481609e-004,-4.122636e-005
-7.757063e-004,-5.727083e-005
-8.599802e-004,-6.326724e-005
-8.606284e-004,-6.164659e-005
-7.462104e-004,-6.018800e-005
-5.245051e-004,-6.067420e-005
-2.502906e-004,-6.067420e-005
8.527692e-006,-5.516398e-005
2.064095e-004,-4.495386e-005
3.302274e-004,-3.166451e-005
3.960259e-004,-1.967167e-005
4.277907e-004,-1.399939e-005
4.441593e-004,-1.464765e-005
4.512903e-004,-1.805102e-005
4.511282e-004,-2.372331e-005
4.474007e-004,-3.231277e-005
4.436732e-004,-4.317115e-005
4.438352e-004,-5.597430e-005
4.501558e-004,-6.456377e-005
4.616624e-004,-6.326724e-005
4.713863e-004,-5.289507e-005
4.733311e-004,-3.863332e-005
4.702519e-004,-2.761287e-005
4.600418e-004,-2.339918e-005
4.399457e-004,-2.291298e-005
4.075326e-004,-2.453363e-005
3.681507e-004,-2.647842e-005
3.287688e-004,-2.745081e-005
2.916559e-004,-2.501983e-005
2.582704e-004,-1.853722e-005
2.367157e-004,-8.002969e-006
2.263435e-004,6.420843e-006
2.242366e-004,2.246531e-005
2.226160e-004,3.526847e-005
2.184023e-004,4.402000e-005
2.102990e-004,5.244739e-005
1.957132e-004,6.460230e-005
1.736723e-004,8.323981e-005
1.457970e-004,1.112771e-004
1.140322e-004,1.445005e-004
8.469840e-005,1.731861e-004
6.492643e-005,1.923098e-004
5.455425e-005,2.030061e-004
4.742337e-005,2.060853e-004
4.223728e-005,2.025199e-004
3.640293e-005,1.963614e-004
2.862379e-005,1.937684e-004
2.441009e-005,1.965235e-004
2.700314e-005,2.021958e-004
3.607880e-005,2.085163e-004
4.661304e-005,2.158093e-004
5.196120e-005,2.250470e-004
4.790957e-005,2.318537e-004
3.413401e-005,2.331503e-004
8.527692e-006,2.299089e-004
-3.215070e-005,2.250470e-004
-7.995997e-005,2.200230e-004
-1.204763e-004,2.117576e-004
-1.434896e-004,2.018716e-004
-1.496481e-004,1.931201e-004
-1.438137e-004,1.853410e-004
-1.277692e-004,1.759412e-004
-1.028112e-004,1.603829e-004
-7.444975e-005,1.385041e-004
-5.078821e-005,1.153287e-004
-3.182657e-005,9.766362e-005
-8.489166e-006,8.777764e-005
2.538249e-005,8.307774e-005
5.747142e-005,7.562274e-005
7.497447e-005,6.200925e-005
7.319176e-005,4.175109e-005
5.455425e-005,1.646890e-005
2.230325e-005,-9.623623e-006
-1.934754e-005,-2.939559e-005
-6.245691e-005,-3.928157e-005
-9.243900e-005,-4.398147e-005
-9.778715e-005,-5.240886e-005
-7.995997e-005,-7.380149e-005
-4.900550e-005,-1.054042e-004
-2.064406e-005,-1.386276e-004
-1.367526e-005,-1.648822e-004
-3.539201e-005,-1.812508e-004
-8.287715e-005,-1.900023e-004
-1.462447e-004,-1.934057e-004
-2.052365e-004,-1.922712e-004
-2.431597e-004,-1.885437e-004
-2.546664e-004,-1.867610e-004
-2.431597e-004,-1.878955e-004
-2.165810e-004,-1.917850e-004
-1.870851e-004,-1.943781e-004
-1.655305e-004,-1.937298e-004
-1.564548e-004,-1.883817e-004
-1.507825e-004,-1.822232e-004
-1.392759e-004,-1.781716e-004
-1.217728e-004,-1.750923e-004
-1.058904e-004,-1.684476e-004
-9.859748e-005,-1.564548e-004
-1.031353e-004,-1.407345e-004
-1.173971e-004,-1.233935e-004
-1.366828e-004,-1.084835e-004
-1.509446e-004,-9.681477e-005
-1.532135e-004,-8.903562e-005
-1.441378e-004,-8.239095e-005
-1.269589e-004,-7.185670e-005
-1.052422e-004,-5.354332e-005
-8.044617e-005,-2.809907e-005
-4.884343e-005,1.396819e-006
-1.545797e-005,3.170304e-005
1.047248e-005,5.795762e-005
2.489629e-005,7.578480e-005
3.834771e-005,8.486046e-005
7.238143e-005,8.972242e-005
1.428799e-004,8.939829e-005
2.457913e-004,8.194328e-005
3.606957e-004,6.930219e-005
4.639314e-004,6.022653e-005
5.397780e-004,6.168512e-005
5.820770e-004,7.789165e-005
5.883976e-004,1.047945e-004
5.589016e-004,1.373696e-004
4.960203e-004,1.673517e-004
4.047775e-004,1.890685e-004
2.913317e-004,1.994406e-004
1.543865e-004,2.005751e-004
-4.437533e-006,1.976579e-004
-1.746061e-004,1.963614e-004
-3.389403e-004,1.994406e-004
-4.729683e-004,2.046267e-004
-5.614560e-004,2.077060e-004
-6.097514e-004,2.041406e-004
-6.363301e-004,1.939304e-004
-6.546435e-004,1.840444e-004
-6.729569e-004,1.801549e-004
-7.001839e-004,1.837203e-004
-7.408622e-004,1.931201e-004
-7.936955e-004,2.036544e-004
-8.434496e-004,2.122438e-004
-8.564148e-004,2.135403e-004
-7.998540e-004,2.049509e-004
-6.676087e-004,1.876099e-004
-4.831784e-004,1.673517e-004
-2.878898e-004,1.487142e-004
-1.154523e-004,1.331559e-004
1.711715e-005,1.211631e-004
1.057669e-004,1.107909e-004
1.553589e-004,9.912221e-005
1.705930e-004,8.388807e-005
1.705930e-004,6.654708e-005
1.765894e-004,5.050261e-005
1.994406e-004,3.462021e-005
2.386605e-004,2.068259e-005
2.890628e-004,1.047248e-005
3.427064e-004,4.638125e-006
4.055878e-004,1.002961e-007
5.078511e-004,-1.092015e-005
6.692683e-004,-3.344723e-005
8.775223e-004,-6.375344e-005
1.085614e-003,-9.600444e-005
1.238118e-003,-1.255003e-004
1.296462e-003,-1.489998e-004
1.255135e-003,-1.682856e-004
1.133910e-003,-1.833576e-004
9.686031e-004,-1.964849e-004
7.924379e-004,-2.094502e-004
6.193521e-004,-2.173914e-004
4.399457e-004,-2.169052e-004
2.482223e-004,-2.088019e-004
4.969229e-005,-1.981056e-004
-1.381414e-004,-1.885437e-004
-3.040963e-004,-1.817370e-004
-4.525481e-004,-1.757406e-004
-5.993792e-004,-1.686097e-004
-7.552860e-004,-1.605064e-004
-9.173513e-004,-1.519170e-004
-1.073420e-003,-1.426792e-004
-1.193997e-003,-1.326312e-004
-1.232244e-003,-1.238797e-004
-1.145215e-003,-1.165867e-004
-9.317751e-004,-1.114006e-004
-6.330888e-004,-1.068628e-004
-3.074997e-004,-1.007043e-004
-1.335113e-005,-8.935975e-005
2.093267e-004,-7.234290e-005
3.461098e-004,-4.916756e-005
4.091532e-004,-1.950961e-005
4.245494e-004,1.468618e-005
4.135290e-004,4.677511e-005
3.927847e-004,7.043665e-005
3.728506e-004,8.194328e-005
3.516200e-004,8.291568e-005
3.232586e-004,7.918817e-005
2.889007e-004,7.837785e-005
2.577842e-004,8.534666e-005
2.350950e-004,9.733949e-005
2.182402e-004,1.101427e-004
2.075439e-004,1.213252e-004
1.983062e-004,1.316974e-004
1.863134e-004,1.427178e-004
1.684862e-004,1.551968e-004
1.443384e-004,1.668655e-004
1.171115e-004,1.762653e-004
9.361199e-005,1.887444e-004
7.983644e-005,2.054371e-004
7.805372e-005,2.260194e-004
8.275361e-005,2.459534e-004
8.712937e-005,2.623220e-004
8.907416e-005,2.691288e-004
9.166720e-005,2.670219e-004
9.798775e-005,2.587566e-004
1.064152e-004,2.509774e-004
1.140322e-004,2.454672e-004
1.190562e-004,2.414156e-004
1.211631e-004,2.357433e-004
1.216493e-004,2.289366e-004
1.192183e-004,2.234263e-004
1.112771e-004,2.209954e-004
9.896015e-005,2.180782e-004
9.069481e-005,2.096508e-004
8.907416e-005,1.927960e-004
9.004655e-005,1.715654e-004
9.571884e-005,1.485521e-004
1.221355e-004,1.286181e-004
1.958752e-004,1.107909e-004
3.302274e-004,9.377406e-005
5.096338e-004,7.610894e-005
6.955228e-004,5.730935e-005
8.436506e-004,3.559260e-005
9.282488e-004,1.095867e-005
9.462381e-004,-1.756482e-005
9.115561e-004,-4.803310e-005
8.387887e-004,-7.331530e-005
7.404150e-004,-8.676672e-005
6.251864e-004,-8.676672e-005
4.971547e-004,-8.093236e-005
3.535648e-004,-7.817725e-005
1.898788e-004,-8.303922e-005
-2.006553e-006,-9.519411e-005
-2.301945e-004,-1.109144e-004
-4.959816e-004,-1.282554e-004
-7.818647e-004,-1.485136e-004
-1.039549e-003,-1.686097e-004
-1.207124e-003,-1.810887e-004
-1.242292e-003,-1.825473e-004
-1.150401e-003,-1.750923e-004
-9.763431e-004,-1.624512e-004
-7.786234e-004,-1.506204e-004
-5.956517e-004,-1.421931e-004
-4.334244e-004,-1.381414e-004
-2.797865e-004,-1.363587e-004
-1.172350e-004,-1.350622e-004
5.082674e-005,-1.326312e-004
2.054371e-004,-1.313347e-004
3.224483e-004,-1.318209e-004
3.778746e-004,-1.316588e-004
3.558337e-004,-1.310105e-004
2.540567e-004,-1.310105e-004
8.372601e-005,-1.279313e-004
-1.279313e-004,-1.201522e-004
-3.515814e-004,-1.063766e-004
-5.710179e-004,-8.887356e-005
-7.781372e-004,-7.299116e-005
-9.549505e-004,-5.840528e-005
-1.059807e-003,-4.025397e-005
-1.053000e-003,-2.031993e-005
-9.259408e-004,-2.006553e-006
-7.052079e-004,1.630683e-005
-4.434724e-004,3.575467e-005
-1.971332e-004,5.747142e-005
-7.516774e-006,7.870197e-005
1.146805e-004,9.993253e-005
1.833962e-004,1.185701e-004
2.167816e-004,1.304008e-004
2.297469e-004,1.341283e-004
2.281262e-004,1.325077e-004
2.169437e-004,1.308870e-004
2.038164e-004,1.321835e-004
2.012234e-004,1.355869e-004
2.132162e-004,1.398006e-004
2.407673e-004,1.456350e-004
2.783665e-004,1.555210e-004
3.174242e-004,1.686482e-004
3.509718e-004,1.843686e-004
3.744712e-004,2.000889e-004
3.918123e-004,2.125679e-004
4.013741e-004,2.179161e-004
3.966742e-004,2.185644e-004
3.746333e-004,2.171058e-004
3.409237e-004,2.138645e-004
3.077003e-004,2.072198e-004
2.871180e-004,1.994406e-004
2.795009e-004,1.926339e-004
2.730183e-004,1.851789e-004
2.547049e-004,1.793446e-004
2.205092e-004,1.770756e-004
1.714034e-004,1.778860e-004
1.143563e-004,1.728619e-004
6.670914e-005,1.621656e-004
4.126489e-005,1.513072e-004
4.596478e-005,1.477418e-004
7.578480e-005,1.517934e-004
1.179218e-004,1.539003e-004
1.542244e-004,1.466074e-004
1.665414e-004,1.338042e-004
1.508211e-004,1.218114e-004
1.098185e-004,1.114392e-004
5.423012e-005,9.977047e-005
-6.868513e-006,8.486046e-005
-6.618442e-005,6.427817e-005
-1.128592e-004,4.142696e-005
-1.459206e-004,2.116879e-005
-1.642339e-004,7.069105e-006
-1.540238e-004,-2.006553e-006
-9.373552e-005,-1.010982e-005
2.684107e-005,-1.934754e-005
1.986303e-004,-2.518189e-005
3.872744e-004,-2.826114e-005
5.402642e-004,-3.441962e-005
6.259967e-004,-4.414354e-005
6.452826e-004,-5.953974e-005
6.245382e-004,-7.752899e-005
5.932595e-004,-9.778715e-005
5.608465e-004,-1.198280e-004
5.178991e-004,-1.425172e-004
4.488593e-004,-1.632615e-004
3.428685e-004,-1.812508e-004
1.989545e-004,-1.958367e-004
2.311357e-005,-2.029675e-004
-1.712027e-004,-2.013469e-004
-3.718396e-004,-1.919471e-004
-5.728005e-004,-1.778474e-004
-7.829992e-004,-1.648822e-004
-1.008594e-003,-1.536997e-004
-1.234837e-003,-1.446240e-004
-1.415540e-003,-1.387897e-004
-1.497869e-003,-1.350622e-004
-1.441146e-003,-1.347380e-004
-1.238241e-003,-1.344139e-004
-9.296683e-004,-1.280934e-004
-5.805797e-004,-1.169109e-004
-2.527216e-004,-1.018388e-004
1.484824e-005,-8.465986e-005
2.124059e-004,-6.699475e-005
3.430306e-004,-5.127441e-005
4.164462e-004,-3.895745e-005
4.454559e-004,-3.134038e-005
4.446456e-004,-2.210265e-005
4.245494e-004,-6.868513e-006
3.942432e-004,1.274139e-005
3.636129e-004,3.137890e-005
3.373583e-004,4.709924e-005
3.190449e-004,5.779555e-005
3.102934e-004,6.281957e-005
3.130485e-004,6.622294e-005
3.247172e-004,7.124698e-005
3.418961e-004,7.724339e-005
3.610198e-004,8.259155e-005
3.769022e-004,8.615699e-005
3.793332e-004,9.312580e-005
3.662059e-004,1.109530e-004
3.425444e-004,1.422316e-004
3.174242e-004,1.791825e-004
3.010556e-004,2.098128e-004
2.953834e-004,2.297469e-004
2.940868e-004,2.404432e-004
2.874421e-004,2.427121e-004
2.759355e-004,2.394708e-004
2.621599e-004,2.373639e-004
2.451431e-004,2.389846e-004
2.227781e-004,2.428742e-004
2.060853e-004,2.456293e-004
2.276400e-004,2.422259e-004
3.174242e-004,2.342847e-004
4.671726e-004,2.256952e-004
6.297242e-004,2.180782e-004
7.459252e-004,2.125679e-004
7.797969e-004,2.085163e-004
7.268014e-004,2.051129e-004
6.055765e-004,1.978200e-004
4.383250e-004,1.835583e-004
2.475741e-004,1.658931e-004
5.374392e-005,1.488763e-004
-1.248521e-004,1.351007e-004
-2.789762e-004,1.260251e-004
-4.073319e-004,1.161391e-004
-5.126743e-004,1.013911e-004
-6.027826e-004,7.870197e-005
-6.860842e-004,5.179914e-005
-7.800820e-004,2.457216e-005
-9.009827e-004,-3.141010e-006
-1.048462e-003,-2.745081e-005
-1.208096e-003,-4.527799e-005
-1.343097e-003,-5.905355e-005
-1.397227e-003,-7.331530e-005
-1.324946e-003,-8.530812e-005
-1.119285e-003,-9.243900e-005
-8.222190e-004,-9.681477e-005
-4.971161e-004,-1.013526e-004
-2.057227e-004,-1.112386e-004
9.013889e-006,-1.284175e-004
1.363972e-004,-1.493239e-004
1.958752e-004,-1.695821e-004
2.153231e-004,-1.854645e-004
2.185644e-004,-1.958367e-004
2.256952e-004,-2.015090e-004
2.328261e-004,-2.042641e-004
2.325020e-004,-2.042641e-004
2.213195e-004,-2.028055e-004
2.043026e-004,-2.021572e-004
1.903650e-004,-2.021572e-004
1.840444e-004,-2.003745e-004
1.889064e-004,-1.953505e-004
2.017096e-004,-1.877334e-004
2.175920e-004,-1.802784e-004
2.318537e-004,-1.749302e-004
2.406053e-004,-1.723372e-004
2.446569e-004,-1.718510e-004
2.446569e-004,-1.703924e-004
2.372019e-004,-1.655305e-004
2.219677e-004,-1.590478e-004
2.044647e-004,-1.504584e-004
1.869616e-004,-1.370070e-004
1.720516e-004,-1.190177e-004
1.652449e-004,-9.794922e-005
1.665414e-004,-7.736692e-005
1.689724e-004,-6.018800e-005
1.636242e-004,-4.236082e-005
1.475797e-004,-2.194059e-005
1.245665e-004,-2.006553e-006
1.017153e-004,1.533444e-005
8.291568e-005,2.959619e-005
6.849186e-005,4.304761e-005
5.860588e-005,6.087479e-005
5.795762e-005,7.951231e-005
7.643307e-005,9.409818e-005
1.226217e-004,1.041462e-004
1.905271e-004,1.141943e-004
2.637806e-004,1.302388e-004
3.159656e-004,1.547106e-004
3.357376e-004,1.855030e-004
3.239069e-004,2.159713e-004
2.845250e-004,2.386605e-004
2.127300e-004,2.493568e-004
1.067393e-004,2.532463e-004
-1.497178e-005,2.553532e-004
-1.104282e-004,2.592428e-004
-1.413827e-004,2.679943e-004
-9.632857e-005,2.807975e-004
6.096713e-006,2.939248e-004
1.278078e-004,3.012177e-004
2.279642e-004,2.960316e-004
2.806354e-004,2.786906e-004
2.809595e-004,2.585945e-004
2.427121e-004,2.457913e-004
1.855030e-004,2.448189e-004
1.316974e-004,2.516257e-004
9.247754e-005,2.597290e-004
7.011252e-005,2.632944e-004
5.925414e-005,2.597290e-004
5.228533e-005,2.516257e-004
4.693717e-005,2.410915e-004
4.045456e-005,2.303951e-004
2.927205e-005,2.161334e-004
1.484824e-005,1.953890e-004
-5.734056e-006,1.712413e-004
-3.312309e-005,1.475797e-004
-6.958779e-005,1.255389e-004
-1.071869e-004,1.030118e-004
-1.311726e-004,7.805372e-005
-1.318209e-004,4.985435e-005
-1.041077e-004,2.181705e-005
-4.868137e-005,1.002961e-007
3.624086e-005,-1.545797e-005
1.563313e-004,-2.664048e-005
2.995970e-004,-3.425755e-005
4.396215e-004,-4.025397e-005
5.585775e-004,-4.997789e-005
6.537099e-004,-6.359137e-005
7.237222e-004,-8.206682e-005
7.567836e-004,-1.023250e-004
7.376599e-004,-1.222590e-004
6.648925e-004,-1.413827e-004
5.519328e-004,-1.583996e-004
4.216323e-004,-1.736337e-004
2.950592e-004,-1.883817e-004
1.902029e-004,-2.031296e-004
1.172735e-004,-2.177155e-004
6.557468e-005,-2.297083e-004
9.338019e-006,-2.373254e-004
-8.206682e-005,-2.376495e-004
-2.335979e-004,-2.274394e-004
-4.603272e-004,-2.092881e-004
-7.641996e-004,-1.901644e-004
-1.125767e-003,-1.754164e-004
-1.494142e-003,-1.665028e-004
-1.791208e-003,-1.624512e-004
-1.949059e-003,-1.642339e-004
-1.924263e-003,-1.712027e-004
-1.721520e-003,-1.755785e-004
-1.395444e-003,-1.700683e-004
-1.019615e-003,-1.540238e-004
-6.635571e-004,-1.323071e-004
-3.771877e-004,-1.083214e-004
-1.835197e-004,-8.384954e-005
-8.384954e-005,-5.872941e-005
-6.958779e-005,-3.425755e-005
-1.217728e-004,-1.351319e-005
-2.073433e-004,1.072688e-006
-2.938862e-004,1.112074e-005
-3.585502e-004,1.987227e-005
-3.822118e-004,3.688912e-005
-3.486642e-004,6.427817e-005
-2.583939e-004,9.685330e-005
-1.371690e-004,1.213252e-004
-2.275091e-005,1.344524e-004
5.860588e-005,1.401247e-004
1.081979e-004,1.449867e-004
1.469315e-004,1.537382e-004
1.958752e-004,1.655690e-004
2.650771e-004,1.788584e-004
3.483787e-004,1.914995e-004
4.318424e-004,2.028440e-004
5.002340e-004,2.140265e-004
5.435055e-004,2.258573e-004
5.634395e-004,2.384984e-004
5.676532e-004,2.474120e-004
5.686256e-004,2.522740e-004
5.723531e-004,2.555152e-004
5.717048e-004,2.553532e-004
5.569569e-004,2.501671e-004
5.240576e-004,2.414156e-004
4.773828e-004,2.307193e-004
4.255218e-004,2.234263e-004
3.796573e-004,2.219677e-004
3.501615e-004,2.260194e-004
3.371962e-004,2.320158e-004
3.347652e-004,2.368777e-004
3.362238e-004,2.355812e-004
3.425444e-004,2.287745e-004
3.553475e-004,2.175920e-004
3.718782e-004,2.049509e-004
3.877606e-004,1.905271e-004
3.978086e-004,1.765894e-004
3.994293e-004,1.611932e-004
3.955397e-004,1.423936e-004
3.940812e-004,1.213252e-004
3.921364e-004,9.928428e-005
3.877606e-004,7.594687e-005
3.775505e-004,5.374392e-005
3.587509e-004,3.202716e-005
3.329825e-004,1.014835e-005
3.042970e-004,-9.623623e-006
2.739907e-004,-2.583016e-005
2.456293e-004,-3.944364e-005
2.211574e-004,-4.965376e-005
1.999268e-004,-5.727083e-005
1.842065e-004,-6.553616e-005
1.701068e-004,-7.688073e-005
1.558451e-004,-9.130454e-005
1.430419e-004,-1.105903e-004
1.284560e-004,-1.344139e-004
1.094944e-004,-1.603444e-004
9.215340e-005,-1.828714e-004
8.178122e-005,-1.989159e-004
7.286763e-005,-2.081536e-004
5.860588e-005,-2.125294e-004
3.640293e-005,-2.122053e-004
9.986281e-006,-2.053985e-004
-1.189254e-005,-1.961608e-004
-2.696461e-005,-1.861127e-004
-3.458168e-005,-1.773612e-004
-3.587821e-005,-1.686097e-004
-3.166451e-005,-1.609926e-004
-2.048200e-005,-1.571031e-004
-2.816880e-006,-1.577513e-004
1.371378e-005,-1.600202e-004
1.922400e-005,-1.572651e-004
5.772582e-006,-1.426792e-004
-2.777494e-005,-1.180453e-004
-7.185670e-005,-9.324933e-005
-1.143178e-004,-7.704279e-005
-1.446240e-004,-7.185670e-005
-1.580754e-004,-7.056019e-005
-1.601823e-004,-6.893953e-005
-1.595340e-004,-5.840528e-005
-1.603444e-004,-3.717473e-005
-1.681235e-004,-7.516774e-006
-1.804405e-004,1.792748e-005
-1.888679e-004,3.429608e-005
-1.862748e-004,4.029250e-005
-1.749302e-004,3.915804e-005
-1.598582e-004,3.413401e-005
-1.438137e-004,2.732727e-005
-1.305243e-004,2.230325e-005
-1.196660e-004,1.938607e-005
-1.088076e-004,1.582063e-005
-9.681477e-005,9.662150e-006
-8.692878e-005,2.693341e-006
-7.801519e-005,4.244267e-007
-7.056019e-005,1.306552e-005
-6.456377e-005,4.256141e-005
-5.872941e-005,7.951231e-005
-4.997789e-005,1.140322e-004
-3.571614e-005,1.407730e-004
-1.788895e-005,1.598967e-004
-9.623623e-006,1.717275e-004
-1.788895e-005,1.793446e-004
-3.830919e-005,1.843686e-004
-5.791909e-005,1.882582e-004
-6.326724e-005,1.910133e-004
-4.997789e-005,1.908512e-004
-2.015787e-005,1.874478e-004
1.274139e-005,1.851789e-004
3.834771e-005,1.869616e-004
4.904402e-005,1.913374e-004
4.045456e-005,1.944166e-004
1.971020e-005,1.963614e-004
