1.895547e-004,7.351589e-005
3.295791e-004,9.182927e-005
4.543695e-004,1.122495e-004
5.332953e-004,1.341283e-004
5.603603e-004,1.548727e-004
5.483674e-004,1.722137e-004
5.161164e-004,1.796687e-004
4.812723e-004,1.746447e-004
4.537212e-004,1.605450e-004
4.392974e-004,1.472556e-004
4.337872e-004,1.425557e-004
4.279528e-004,1.457970e-004
4.209840e-004,1.545486e-004
4.213082e-004,1.694586e-004
4.399457e-004,1.887444e-004
4.884033e-004,2.114335e-004
5.639257e-004,2.346088e-004
6.477135e-004,2.563256e-004
7.092984e-004,2.731804e-004
7.371737e-004,2.840388e-004
7.541905e-004,2.916559e-004
7.969757e-004,2.992729e-004
8.827084e-004,3.060797e-004
9.974508e-004,3.107795e-004
1.101335e-003,3.153174e-004
1.154330e-003,3.205035e-004
1.144120e-003,3.273102e-004
1.081887e-003,3.365480e-004
9.901578e-004,3.454615e-004
8.893532e-004,3.503235e-004
7.972999e-004,3.475684e-004
7.199947e-004,3.384927e-004
6.535479e-004,3.266619e-004
5.846701e-004,3.120761e-004
4.937514e-004,2.940868e-004
3.556717e-004,2.707494e-004
1.543865e-004,2.449810e-004
-1.083214e-004,2.174299e-004
-3.993907e-004,1.858272e-004
-6.878669e-004,1.514693e-004
-9.486300e-004,1.140322e-004
-1.161098e-003,7.675720e-005
-1.308415e-003,4.077869e-005
-1.368055e-003,4.151929e-006
-1.311332e-003,-3.441962e-005
-1.126416e-003,-6.974985e-005
-8.379394e-004,-9.956988e-005
-5.061917e-004,-1.240417e-004
-2.023193e-004,-1.493239e-004
1.419998e-005,-1.778474e-004
1.119254e-004,-2.075054e-004
9.620504e-005,-2.355427e-004
-8.489166e-006,-2.603387e-004
-1.755785e-004,-2.801106e-004
-3.711913e-004,-2.927517e-004
-5.454115e-004,-3.005308e-004
-6.413542e-004,-3.037722e-004
-6.356818e-004,-2.995585e-004
-5.548113e-004,-2.885380e-004
-4.509274e-004,-2.762210e-004
-3.801049e-004,-2.669833e-004
-3.720016e-004,-2.593663e-004
-4.118697e-004,-2.507768e-004
-4.504412e-004,-2.418632e-004
-4.434724e-004,-2.339220e-004
-3.765395e-004,-2.272773e-004
-2.650386e-004,-2.201465e-004
-1.350622e-004,-2.099363e-004
-1.399939e-005,-1.955125e-004
8.129502e-005,-1.783336e-004
1.396385e-004,-1.630995e-004
1.618415e-004,-1.511067e-004
1.553589e-004,-1.433275e-004
1.341283e-004,-1.318209e-004
1.184080e-004,-1.084835e-004
1.260251e-004,-7.412562e-005
1.636242e-004,-3.652646e-005
2.232643e-004,-1.844488e-006
2.858215e-004,2.927205e-005
3.373583e-004,5.779555e-005
3.718782e-004,8.210535e-005
3.866261e-004,1.015532e-004
3.760919e-004,1.137081e-004
3.378445e-004,1.193804e-004
2.778803e-004,1.201907e-004
2.081922e-004,1.198666e-004
1.412592e-004,1.261871e-004
9.053275e-005,1.472556e-004
6.087479e-005,1.788584e-004
4.547859e-005,2.075439e-004
3.543054e-005,2.261814e-004
2.716521e-005,2.360674e-004
1.614476e-005,2.453052e-004
-1.358292e-006,2.545429e-004
-2.177852e-005,2.621599e-004
-3.960571e-005,2.662116e-004
-5.095028e-005,2.678322e-004
-6.083626e-005,2.660495e-004
-7.039812e-005,2.611876e-004
-7.396356e-005,2.547049e-004
-6.391550e-005,2.491947e-004
-3.344723e-005,2.461155e-004
1.517237e-005,2.449810e-004
7.400208e-005,2.453052e-004
1.365593e-004,2.464396e-004
1.965235e-004,2.472499e-004
2.487085e-004,2.482223e-004
2.848491e-004,2.459534e-004
3.013798e-004,2.363916e-004
3.017039e-004,2.192126e-004
2.924662e-004,1.970097e-004
2.735045e-004,1.765894e-004
2.527602e-004,1.610312e-004
2.368777e-004,1.500107e-004
2.310434e-004,1.398006e-004
2.329882e-004,1.273216e-004
2.367157e-004,1.093323e-004
2.310434e-004,8.615699e-005
2.122438e-004,5.974033e-005
1.840444e-004,3.251336e-005
1.493625e-004,6.744974e-006
1.091703e-004,-1.740276e-005
6.476436e-005,-4.155049e-005
2.197911e-005,-6.553616e-005
-1.724069e-005,-8.757704e-005
-4.689865e-005,-1.067007e-004
-6.294311e-005,-1.237176e-004
-7.056019e-005,-1.363587e-004
-7.801519e-005,-1.434896e-004
-8.611845e-005,-1.509446e-004
-6.910160e-005,-1.624512e-004
7.465034e-005,-1.781716e-004
4.960203e-004,-1.909747e-004
1.221749e-003,-2.005366e-004
2.079077e-003,-2.078295e-004
2.809185e-003,-2.147983e-004
3.214513e-003,-2.224154e-004
3.234610e-003,-2.300324e-004
2.917608e-003,-2.331117e-004
2.371606e-003,-2.282497e-004
1.717670e-003,-2.183637e-004
1.039750e-003,-2.086398e-004
3.663680e-004,-2.019951e-004
-3.089583e-004,-2.013469e-004
-9.789361e-004,-2.039399e-004
-1.632221e-003,-2.068571e-004
-2.268004e-003,-2.078295e-004
-2.902491e-003,-2.037779e-004
-3.539896e-003,-1.932436e-004
-4.128682e-003,-1.770371e-004
-4.556538e-003,-1.590478e-004
-4.688947e-003,-1.433275e-004
-4.416188e-003,-1.216107e-004
-3.724651e-003,-8.887356e-005
-2.729081e-003,-4.884343e-005
-1.625253e-003,-1.108221e-005
-6.167202e-004,1.484824e-005
1.367214e-004,3.089271e-005
5.538776e-004,4.596478e-005
6.563030e-004,6.622294e-005
5.318367e-004,8.956036e-005
2.837146e-004,1.077117e-004
-1.594417e-005,1.177597e-004
-3.251648e-004,1.219734e-004
-5.975965e-004,1.263492e-004
-7.700340e-004,1.349386e-004
-7.966127e-004,1.495245e-004
-6.745775e-004,1.667035e-004
-4.426621e-004,1.832341e-004
-1.608306e-004,2.002510e-004
1.158149e-004,2.174299e-004
3.470822e-004,2.337985e-004
5.172509e-004,2.470879e-004
6.311828e-004,2.566497e-004
7.099467e-004,2.636185e-004
7.832003e-004,2.699391e-004
8.718501e-004,2.743149e-004
9.791374e-004,2.754493e-004
1.093394e-003,2.748010e-004
1.188526e-003,2.731804e-004
1.242656e-003,2.697770e-004
1.248815e-003,2.645909e-004
1.215915e-003,2.576221e-004
1.164054e-003,2.495189e-004
1.104900e-003,2.360674e-004
1.040074e-003,2.164575e-004
9.679549e-004,1.966855e-004
8.895152e-004,1.808031e-004
8.169098e-004,1.694586e-004
7.631041e-004,1.616794e-004
7.295565e-004,1.537382e-004
7.075156e-004,1.441764e-004
6.843403e-004,1.346145e-004
6.503066e-004,1.242423e-004
6.073592e-004,1.083599e-004
5.626292e-004,8.567078e-005
5.232473e-004,5.730935e-005
4.901859e-004,2.910999e-005
4.600418e-004,1.396819e-006
4.279528e-004,-2.388537e-005
3.963501e-004,-4.462973e-005
3.645853e-004,-5.808115e-005
3.273102e-004,-6.342931e-005
2.843629e-004,-6.456377e-005
2.441707e-004,-6.245691e-005
2.130541e-004,-6.099833e-005
1.991165e-004,-6.359137e-005
2.073819e-004,-7.250496e-005
2.273159e-004,-8.644259e-005
2.401191e-004,-1.032974e-004
2.333123e-004,-1.216107e-004
2.096508e-004,-1.396000e-004
1.795066e-004,-1.556445e-004
1.479039e-004,-1.668270e-004
1.185701e-004,-1.736337e-004
9.377406e-005,-1.771992e-004
7.724339e-005,-1.776853e-004
6.573675e-005,-1.770371e-004
5.536457e-005,-1.759026e-004
4.045456e-005,-1.723372e-004
1.565857e-005,-1.681235e-004
-1.821308e-005,-1.622891e-004
-6.229485e-005,-1.564548e-004
-1.117248e-004,-1.543479e-004
-1.639098e-004,-1.564548e-004
-2.099363e-004,-1.598582e-004
-2.428356e-004,-1.626133e-004
-2.566112e-004,-1.643960e-004
-2.493182e-004,-1.601823e-004
-2.212809e-004,-1.481895e-004
-1.838438e-004,-1.305243e-004
-1.545100e-004,-1.104282e-004
-1.478653e-004,-9.454585e-005
-1.668270e-004,-8.401160e-005
-2.021572e-004,-7.590833e-005
-2.417012e-004,-6.569822e-005
-2.760590e-004,-4.770897e-005
-3.040963e-004,-2.404744e-005
-3.287302e-004,7.485573e-007
-3.476919e-004,2.052053e-005
-3.570916e-004,3.834771e-005
-3.603330e-004,6.055066e-005
-3.606571e-004,8.372601e-005
-3.543365e-004,1.038221e-004
-3.387782e-004,1.211631e-004
-3.112272e-004,1.389903e-004
-2.741142e-004,1.571416e-004
-2.355427e-004,1.765894e-004
-2.042641e-004,1.952270e-004
-1.784957e-004,2.145127e-004
-1.515928e-004,2.342847e-004
-1.198280e-004,2.530843e-004
-7.769106e-005,2.715597e-004
-2.599222e-005,2.864697e-004
2.748934e-005,2.934386e-004
7.059871e-005,2.944109e-004
9.166720e-005,2.947351e-004
9.442231e-005,2.971661e-004
9.555677e-005,2.986247e-004
1.138702e-004,2.971661e-004
1.615174e-004,2.919800e-004
2.367157e-004,2.835526e-004
3.242310e-004,2.718839e-004
4.012120e-004,2.594049e-004
4.524247e-004,2.482223e-004
4.718725e-004,2.393087e-004
4.561522e-004,2.360674e-004
4.046154e-004,2.372019e-004
3.258516e-004,2.355812e-004
2.341226e-004,2.292607e-004
1.457970e-004,2.177540e-004
7.789165e-005,1.997648e-004
4.061663e-005,1.756171e-004
3.056858e-005,1.519555e-004
2.878586e-005,1.351007e-004
1.079661e-005,1.213252e-004
-4.333321e-005,1.073875e-004
-1.468929e-004,8.680524e-005
-3.118754e-004,5.730935e-005
-5.358497e-004,2.019640e-005
-7.938576e-004,-1.967167e-005
-1.027070e-003,-5.111234e-005
-1.171146e-003,-7.299116e-005
-1.191566e-003,-8.465986e-005
-1.088654e-003,-9.114248e-005
-8.859106e-004,-9.762509e-005
-6.266062e-004,-1.065387e-004
-3.585502e-004,-1.235555e-004
-1.298761e-004,-1.535376e-004
2.505836e-005,-1.914609e-004
8.469840e-005,-2.276015e-004
5.001642e-005,-2.553146e-004
-5.710876e-005,-2.729798e-004
-1.995642e-004,-2.827037e-004
-3.339163e-004,-2.869174e-004
-4.254832e-004,-2.856209e-004
-4.635685e-004,-2.836761e-004
-4.530343e-004,-2.812451e-004
-4.146248e-004,-2.771934e-004
-3.692465e-004,-2.731418e-004
-3.321336e-004,-2.686040e-004
-3.087962e-004,-2.645523e-004
-2.917793e-004,-2.600145e-004
-2.671454e-004,-2.545043e-004
-2.323013e-004,-2.475355e-004
-1.864369e-004,-2.417012e-004
-1.326312e-004,-2.378116e-004
-7.590833e-005,-2.297083e-004
-1.610624e-005,-2.133397e-004
4.839576e-005,-1.909747e-004
1.190562e-004,-1.686097e-004
1.986303e-004,-1.483515e-004
2.976523e-004,-1.279313e-004
4.384871e-004,-1.054042e-004
6.261588e-004,-7.785312e-005
8.358715e-004,-4.641245e-005
1.022409e-003,-1.237873e-005
1.137475e-003,2.116879e-005
1.154979e-003,5.244739e-005
1.077835e-003,7.983644e-005
9.319764e-004,1.051186e-004
7.546768e-004,1.287802e-004
5.781874e-004,1.488763e-004
4.229288e-004,1.686482e-004
2.963557e-004,1.884202e-004
2.008992e-004,2.077060e-004
1.299146e-004,2.232643e-004
7.124698e-005,2.336365e-004
3.503668e-006,2.402811e-004
-1.021629e-004,2.491947e-004
-2.619593e-004,2.647530e-004
-4.698891e-004,2.858215e-004
-6.922426e-004,3.107795e-004
-8.622491e-004,3.344411e-004
-9.102205e-004,3.516200e-004
-7.980713e-004,3.603715e-004
-5.426564e-004,3.590750e-004
-2.006986e-004,3.498373e-004
1.535762e-004,3.342791e-004
4.475628e-004,3.122381e-004
6.366931e-004,2.861456e-004
7.049226e-004,2.598910e-004
6.665131e-004,2.359054e-004
5.603603e-004,2.145127e-004
4.350837e-004,1.992786e-004
3.211517e-004,1.918236e-004
2.255332e-004,1.897167e-004
1.539003e-004,1.908512e-004
1.025256e-004,1.893926e-004
5.941620e-005,1.806411e-004
2.295151e-005,1.647587e-004
-3.627206e-006,1.457970e-004
-1.967167e-005,1.258630e-004
-2.501983e-005,1.098185e-004
-2.226472e-005,9.847395e-005
-1.594417e-005,8.923623e-005
-2.129233e-005,7.691926e-005
-4.333321e-005,5.941620e-005
-7.299116e-005,4.013043e-005
-9.098041e-005,2.441009e-005
-8.563225e-005,1.209313e-005
-5.402952e-005,2.045080e-006
-3.951337e-006,-9.299493e-006
5.325772e-005,-2.404744e-005
1.069013e-004,-4.349527e-005
1.493625e-004,-6.650855e-005
1.799928e-004,-8.838737e-005
2.017096e-004,-1.084835e-004
2.229401e-004,-1.310105e-004
2.493568e-004,-1.577513e-004
2.845250e-004,-1.823853e-004
3.269861e-004,-1.990780e-004
3.718782e-004,-2.073433e-004
4.115842e-004,-2.100984e-004
4.381629e-004,-2.058847e-004
4.436732e-004,-1.963229e-004
4.187151e-004,-1.859507e-004
3.619922e-004,-1.773612e-004
2.817699e-004,-1.734716e-004
1.999268e-004,-1.734716e-004
1.517934e-004,-1.741199e-004
1.718896e-004,-1.733096e-004
2.807975e-004,-1.723372e-004
4.812723e-004,-1.705545e-004
7.362012e-004,-1.728234e-004
9.870786e-004,-1.802784e-004
1.175399e-003,-1.877334e-004
1.284469e-003,-1.875713e-004
1.371822e-003,-1.781716e-004
1.530647e-003,-1.632615e-004
1.790276e-003,-1.473791e-004
2.087019e-003,-1.344139e-004
2.297056e-003,-1.233935e-004
2.304673e-003,-1.136696e-004
2.060926e-003,-9.940781e-005
1.583156e-003,-7.526008e-005
9.306798e-004,-4.138842e-005
1.757791e-004,-5.409925e-006
-6.103997e-004,2.732727e-005
-1.375672e-003,5.601284e-005
-2.085519e-003,8.097089e-005
-2.702178e-003,1.028497e-004
-3.191940e-003,1.221355e-004
-3.532117e-003,1.368834e-004
-3.717034e-003,1.482280e-004
-3.742641e-003,1.564933e-004
-3.583816e-003,1.608691e-004
-3.222247e-003,1.636242e-004
-2.687430e-003,1.705930e-004
-2.061046e-003,1.843686e-004
-1.450708e-003,2.049509e-004
-9.445783e-004,2.271538e-004
-5.831727e-004,2.485465e-004
-3.569296e-004,2.626462e-004
-2.190120e-004,2.707494e-004
-1.159385e-004,2.760976e-004
-1.740276e-005,2.798251e-004
7.740546e-005,2.809595e-004
1.553589e-004,2.770700e-004
2.096508e-004,2.673460e-004
2.430362e-004,2.508154e-004
2.692908e-004,2.313675e-004
3.023522e-004,2.156472e-004
3.436788e-004,2.070577e-004
3.871123e-004,2.047888e-004
4.251977e-004,2.057612e-004
4.564763e-004,2.086784e-004
4.809482e-004,2.114335e-004
4.978030e-004,2.102990e-004
5.034753e-004,2.068957e-004
4.940755e-004,1.994406e-004
4.689553e-004,1.859892e-004
4.345975e-004,1.668655e-004
4.067223e-004,1.435281e-004
4.086671e-004,1.135460e-004
4.514523e-004,7.659513e-005
5.298919e-004,3.445814e-005
6.263209e-004,-5.571990e-006
7.182120e-004,-3.652646e-005
7.825520e-004,-5.678463e-005
7.982723e-004,-6.650855e-005
7.585663e-004,-6.991193e-005
6.755888e-004,-7.299116e-005
5.653843e-004,-7.704279e-005
4.439973e-004,-8.174268e-005
3.321722e-004,-8.822530e-005
2.454672e-004,-9.827335e-005
1.887444e-004,-1.141558e-004
1.602208e-004,-1.337657e-004
1.503349e-004,-1.561307e-004
1.477418e-004,-1.789819e-004
1.396385e-004,-1.992400e-004
1.128978e-004,-2.109087e-004
6.622294e-005,-2.128535e-004
1.257933e-005,-2.088019e-004
-3.409549e-005,-2.039399e-004
-6.326724e-005,-2.036158e-004
-7.558420e-005,-2.066950e-004
-6.715681e-005,-2.097743e-004
-3.263690e-005,-2.109087e-004
3.105477e-005,-2.078295e-004
1.107909e-004,-1.997262e-004
1.778860e-004,-1.898403e-004
1.937684e-004,-1.828714e-004
1.381800e-004,-1.812508e-004
2.748934e-005,-1.835197e-004
-7.380149e-005,-1.815749e-004
-8.547019e-005,-1.703924e-004
5.147500e-005,-1.524032e-004
3.227724e-004,-1.352242e-004
6.431757e-004,-1.261486e-004
9.063699e-004,-1.229073e-004
1.024840e-003,-1.188556e-004
9.609861e-004,-1.073490e-004
7.277738e-004,-8.644259e-005
3.827366e-004,-5.791909e-005
2.035846e-005,-2.647842e-005
-2.621213e-004,3.503668e-006
-4.141386e-004,3.024445e-005
-4.481723e-004,5.552663e-005
-4.167317e-004,7.983644e-005
-3.805911e-004,1.026876e-004
-3.844807e-004,1.232699e-004
-4.449310e-004,1.402868e-004
-5.650214e-004,1.506590e-004
-7.355141e-004,1.532520e-004
-9.249684e-004,1.504969e-004
-1.093354e-003,1.475797e-004
-1.190756e-003,1.524417e-004
-1.162394e-003,1.654069e-004
-9.781258e-004,1.843686e-004
-6.677708e-004,2.051129e-004
-3.049066e-004,2.242366e-004
3.137890e-005,2.401191e-004
2.861456e-004,2.514636e-004
4.381629e-004,2.608634e-004
4.976409e-004,2.673460e-004
4.906721e-004,2.730183e-004
4.490213e-004,2.770700e-004
3.987811e-004,2.773941e-004
3.529166e-004,2.749631e-004
3.208276e-004,2.692908e-004
3.038107e-004,2.618358e-004
2.945730e-004,2.551911e-004
2.801492e-004,2.470879e-004
2.592428e-004,2.342847e-004
2.331503e-004,2.200230e-004
2.049509e-004,2.085163e-004
1.867996e-004,2.051129e-004
1.897167e-004,2.070577e-004
2.133783e-004,2.075439e-004
2.448189e-004,2.026820e-004
2.679943e-004,1.949028e-004
2.728562e-004,1.842065e-004
2.561635e-004,1.702689e-004
2.284504e-004,1.514693e-004
2.028440e-004,1.302388e-004
1.861513e-004,1.094944e-004
1.790204e-004,8.761557e-005
1.817755e-004,6.022653e-005
2.025199e-004,2.781346e-005
2.423880e-004,-2.816880e-006
2.889007e-004,-2.696461e-005
3.224483e-004,-4.300908e-005
3.253654e-004,-5.159854e-005
2.908455e-004,-5.565017e-005
2.206712e-004,-5.824322e-005
1.261871e-004,-6.326724e-005
2.554455e-005,-7.688073e-005
-6.116039e-005,-9.811128e-005
-1.253383e-004,-1.206384e-004
-1.775233e-004,-1.397621e-004
-2.282497e-004,-1.551583e-004
-2.758969e-004,-1.660166e-004
-3.170615e-004,-1.728234e-004
-3.472056e-004,-1.786577e-004
-3.591985e-004,-1.836818e-004
-3.470436e-004,-1.865989e-004
-3.091203e-004,-1.861127e-004
-2.525595e-004,-1.806025e-004
-1.867610e-004,-1.749302e-004
-1.214487e-004,-1.715269e-004
-5.824322e-005,-1.721751e-004
1.225520e-005,-1.788198e-004
1.012291e-004,-1.882196e-004
2.052750e-004,-1.963229e-004
3.028383e-004,-2.018331e-004
3.684748e-004,-2.019951e-004
3.817642e-004,-1.935677e-004
3.316860e-004,-1.749302e-004
2.167816e-004,-1.480274e-004
5.341979e-005,-1.182074e-004
-1.177212e-004,-9.470791e-005
-2.394322e-004,-8.206682e-005
-2.737901e-004,-7.574627e-005
-2.198223e-004,-6.634648e-005
-1.096179e-004,-5.030202e-005
1.063454e-005,-3.312309e-005
1.056048e-004,-1.675450e-005
1.514693e-004,1.234753e-006
1.464453e-004,2.473423e-005
1.054428e-004,5.277153e-005
4.774750e-005,8.080883e-005
-1.075808e-005,1.022015e-004
-6.067420e-005,1.132219e-004
-1.075111e-004,1.180839e-004
-1.588858e-004,1.214872e-004
-2.173914e-004,1.297526e-004
-2.656868e-004,1.469315e-004
-2.726556e-004,1.697827e-004
-2.214430e-004,1.940925e-004
-1.248521e-004,2.132162e-004
-1.529591e-005,2.248849e-004
7.238143e-005,2.297469e-004
1.120874e-004,2.325020e-004
1.056048e-004,2.339606e-004
7.059871e-005,2.333123e-004
2.586868e-005,2.316917e-004
-1.562004e-005,2.268297e-004
-4.446767e-005,2.175920e-004
-6.245691e-005,2.044647e-004
-7.947377e-005,1.927960e-004
-1.018388e-004,1.874478e-004
-1.243659e-004,1.895547e-004
-1.396000e-004,1.983062e-004
-1.515928e-004,2.090025e-004
-1.655305e-004,2.182402e-004
-1.806025e-004,2.234263e-004
-1.966470e-004,2.226160e-004
-2.053985e-004,2.133783e-004
-2.019951e-004,1.961994e-004
-1.820611e-004,1.739964e-004
-1.467309e-004,1.503349e-004
-9.762509e-005,1.282940e-004
-3.425755e-005,1.072255e-004
4.029250e-005,8.615699e-005
1.201907e-004,6.703327e-005
1.937684e-004,5.115087e-005
2.448189e-004,3.980630e-005
2.571359e-004,2.781346e-005
2.326641e-004,1.257933e-005
1.842065e-004,-5.247859e-006
1.318594e-004,-2.031993e-005
9.263960e-005,-3.101625e-005
7.319176e-005,-3.798505e-005
6.427817e-005,-4.106429e-005
5.601284e-005,-4.090223e-005
4.353380e-005,-4.203669e-005
3.218923e-005,-4.851930e-005
3.137890e-005,-6.407757e-005
4.239934e-005,-9.033215e-005
5.568870e-005,-1.203142e-004
5.909208e-005,-1.489998e-004
4.904402e-005,-1.707166e-004
3.332369e-005,-1.799543e-004
1.501031e-005,-1.768750e-004
2.207145e-006,-1.663408e-004
1.290346e-005,-1.583996e-004
6.687121e-005,-1.587237e-004
1.641104e-004,-1.630995e-004
2.825802e-004,-1.648822e-004
3.871123e-004,-1.603444e-004
4.483731e-004,-1.524032e-004
4.619866e-004,-1.462447e-004
4.392974e-004,-1.439758e-004
3.974845e-004,-1.452723e-004
3.457857e-004,-1.475412e-004
2.837146e-004,-1.519170e-004
2.208333e-004,-1.554824e-004
1.743205e-004,-1.538618e-004
1.490383e-004,-1.454344e-004
1.373696e-004,-1.329553e-004
1.242423e-004,-1.199901e-004
9.701536e-005,-1.068628e-004
5.050261e-005,-9.179074e-005
-2.210265e-005,-7.218083e-005
-1.190177e-004,-4.770897e-005
-2.279256e-004,-2.145439e-005
-3.282440e-004,4.800190e-006
-4.002010e-004,3.008238e-005
-4.386105e-004,5.163707e-005
-4.518998e-004,6.784360e-005
-4.507654e-004,7.853991e-005
-4.510895e-004,8.534666e-005
-4.723200e-004,9.085688e-005
-5.282326e-004,9.977047e-005
-6.201236e-004,1.125736e-004
-7.426449e-004,1.276457e-004
-8.750523e-004,1.459591e-004
-9.674295e-004,1.684862e-004
-9.666192e-004,1.950649e-004
-8.463667e-004,2.188885e-004
-6.225546e-004,2.331503e-004
-3.397507e-004,2.347709e-004
-3.393342e-005,2.255332e-004
2.773941e-004,2.107852e-004
5.807805e-004,1.970097e-004
8.600192e-004,1.877720e-004
1.082049e-003,1.788584e-004
1.220615e-003,1.688103e-004
1.267290e-003,1.592484e-004
1.230339e-003,1.535762e-004
1.132451e-003,1.522796e-004
1.002961e-003,1.566554e-004
8.606675e-004,1.655690e-004
7.020054e-004,1.795066e-004
5.078511e-004,1.919856e-004
2.649151e-004,1.966855e-004
-2.258885e-005,1.876099e-004
-3.245165e-004,1.702689e-004
-6.060239e-004,1.516314e-004
-8.525252e-004,1.386662e-004
-1.059969e-003,1.325077e-004
-1.223817e-003,1.287802e-004
-1.329646e-003,1.232699e-004
-1.359952e-003,1.130598e-004
-1.304039e-003,9.750156e-005
-1.175197e-003,7.902610e-005
-1.002760e-003,5.957827e-005
-8.064987e-004,3.883391e-005
-5.896553e-004,1.987227e-005
-3.475298e-004,7.879432e-006
-8.773911e-005,4.962256e-006
1.757791e-004,1.355172e-005
4.177427e-004,2.700314e-005
6.178935e-004,3.721326e-005
7.582422e-004,3.721326e-005
8.329543e-004,2.376183e-005
8.504574e-004,-1.196227e-006
8.243649e-004,-3.247483e-005
7.713694e-004,-6.197072e-005
7.062191e-004,-8.417367e-005
6.251864e-004,-9.956988e-005
5.042856e-004,-1.101041e-004
3.326584e-004,-1.191798e-004
1.399627e-004,-1.269589e-004
-1.416145e-005,-1.345760e-004
-7.493595e-005,-1.457585e-004
-2.323711e-005,-1.634236e-004
1.159770e-004,-1.864369e-004
2.895490e-004,-2.097743e-004
4.430249e-004,-2.259808e-004
5.410745e-004,-2.316531e-004
5.755944e-004,-2.287359e-004
5.572810e-004,-2.227395e-004
5.080132e-004,-2.167431e-004
4.535592e-004,-2.125294e-004
4.167703e-004,-2.118811e-004
4.107739e-004,-2.138259e-004
4.345975e-004,-2.113949e-004
4.828930e-004,-2.015090e-004
5.405883e-004,-1.820611e-004
5.841838e-004,-1.549962e-004
5.956905e-004,-1.245279e-004
5.658705e-004,-9.535618e-005
4.952099e-004,-6.974985e-005
3.957018e-004,-4.706071e-005
2.874421e-004,-2.453363e-005
1.895547e-004,-1.358292e-006
1.203528e-004,2.295151e-005
8.356394e-005,4.353380e-005
7.092284e-005,6.006447e-005
6.492643e-005,7.610894e-005
5.196120e-005,9.231547e-005
2.910999e-005,1.114392e-004
-6.176923e-008,1.326697e-004
-1.837515e-005,1.534141e-004
9.013889e-006,1.751309e-004
1.064152e-004,1.965235e-004
2.636185e-004,2.166196e-004
4.342734e-004,2.365536e-004
5.665187e-004,2.563256e-004
6.235657e-004,2.731804e-004
6.039558e-004,2.850112e-004
5.266506e-004,2.929524e-004
4.148255e-004,2.979764e-004
2.879283e-004,3.015418e-004
1.527658e-004,3.051073e-004
1.128280e-005,3.060797e-004
-1.266348e-004,3.015418e-004
-2.431597e-004,2.876042e-004
-3.224097e-004,2.642668e-004
-3.655190e-004,2.391467e-004
-3.971218e-004,2.227781e-004
-4.574101e-004,2.172679e-004
-5.749074e-004,2.179161e-004
-7.583653e-004,2.172679e-004
-9.839601e-004,2.137024e-004
-1.186542e-003,2.073819e-004
-1.285402e-003,1.981441e-004
-1.235323e-003,1.861513e-004
-1.047490e-003,1.733481e-004
-7.842957e-004,1.592484e-004
-5.303394e-004,1.435281e-004
-3.497987e-004,1.260251e-004
-2.582318e-004,1.059290e-004
-2.366771e-004,8.550872e-005
-2.528836e-004,6.330578e-005
-2.775176e-004,3.478228e-005
-2.870794e-004,3.665733e-006
-2.690902e-004,-2.453363e-005
-2.206326e-004,-4.787104e-005
-1.572651e-004,-6.553616e-005
-1.152902e-004,-7.639453e-005
-1.240417e-004,-7.752899e-005
-1.861127e-004,-7.169464e-005
-2.770314e-004,-6.893953e-005
-3.671397e-004,-7.688073e-005
-4.335865e-004,-9.908367e-005
-4.577342e-004,-1.302002e-004
-4.282383e-004,-1.603444e-004
-3.403989e-004,-1.841680e-004
-2.110708e-004,-2.003745e-004
-6.586029e-005,-2.083157e-004
7.205730e-005,-2.070192e-004
1.880961e-004,-2.011848e-004
2.773941e-004,-1.995642e-004
3.362238e-004,-2.034537e-004
3.666921e-004,-2.037779e-004
3.859779e-004,-1.955125e-004
4.107739e-004,-1.838438e-004
4.527488e-004,-1.736337e-004
5.122268e-004,-1.656925e-004
5.827253e-004,-1.598582e-004
6.682958e-004,-1.546721e-004
7.747728e-004,-1.477033e-004
8.947013e-004,-1.389517e-004
1.013171e-003,-1.298761e-004
1.109276e-003,-1.227452e-004
1.172320e-003,-1.185315e-004
1.206029e-003,-1.156143e-004
1.211377e-003,-1.091317e-004
1.179775e-003,-1.003802e-004
1.104252e-003,-9.308726e-005
9.950198e-004,-8.530812e-005
8.679605e-004,-7.347736e-005
7.235601e-004,-5.662256e-005
5.473950e-004,-3.749886e-005
3.253654e-004,-1.999580e-005
6.427817e-005,-8.327101e-006
-2.154466e-004,-1.682422e-006
-4.899852e-004,3.827799e-006
-7.369727e-004,1.436204e-005
-9.320992e-004,3.235129e-005
-1.044411e-003,5.390598e-005
-1.051703e-003,7.529860e-005
-9.586780e-004,9.377406e-005
-8.184915e-004,1.091703e-004
-7.126629e-004,1.265113e-004
-7.105560e-004,1.457970e-004
-8.445840e-004,1.633001e-004
-1.109399e-003,1.770756e-004
-1.447953e-003,1.867996e-004
-1.768194e-003,1.931201e-004
-1.991196e-003,1.987924e-004
-2.073202e-003,2.060853e-004
-1.995086e-003,2.156472e-004
-1.766736e-003,2.274780e-004
-1.422833e-003,2.337985e-004
-1.017346e-003,2.312055e-004
-6.099135e-004,2.235884e-004
-2.548284e-004,2.177540e-004
1.808955e-005,2.151610e-004
2.021958e-004,2.148369e-004
3.052694e-004,2.182402e-004
3.452995e-004,2.261814e-004
3.464339e-004,2.323399e-004
3.287688e-004,2.346088e-004
2.978143e-004,2.310434e-004
2.525981e-004,2.237505e-004
1.866375e-004,2.140265e-004
1.031738e-004,2.054371e-004
1.922400e-005,1.984683e-004
-3.895745e-005,1.921477e-004
-4.592625e-005,1.840444e-004
9.175954e-006,1.733481e-004
1.185701e-004,1.574657e-004
2.636185e-004,1.354248e-004
4.167703e-004,1.075496e-004
5.538776e-004,7.983644e-005
6.572754e-004,5.860588e-005
7.203188e-004,4.353380e-005
7.485182e-004,3.121684e-005
7.556491e-004,1.371378e-005
7.548388e-004,-7.030578e-006
7.572698e-004,-2.599222e-005
7.678040e-004,-4.333321e-005
7.819037e-004,-5.889148e-005
7.961654e-004,-7.380149e-005
8.076721e-004,-9.389759e-005
8.144788e-004,-1.170729e-004
8.172340e-004,-1.413827e-004
8.188546e-004,-1.645581e-004
8.238787e-004,-1.814128e-004
8.297130e-004,-1.896782e-004
8.237166e-004,-1.912988e-004
7.963275e-004,-1.853024e-004
7.430080e-004,-1.754164e-004
6.718613e-004,-1.658546e-004
5.977973e-004,-1.621271e-004
5.341057e-004,-1.618029e-004
4.806241e-004,-1.608306e-004
4.302217e-004,-1.545100e-004
3.791712e-004,-1.426792e-004
3.290929e-004,-1.305243e-004
2.829043e-004,-1.238797e-004
2.397949e-004,-1.238797e-004
2.030061e-004,-1.264727e-004
1.783722e-004,-1.282554e-004
1.634622e-004,-1.274451e-004
1.529279e-004,-1.219349e-004
1.388282e-004,-1.120489e-004
1.154908e-004,-9.875954e-005
8.388807e-005,-8.563225e-005
4.742337e-005,-7.120844e-005
1.095867e-005,-5.208474e-005
-2.048200e-005,-2.696461e-005
-4.219875e-005,1.883015e-006
-5.305713e-005,2.975825e-005
-6.164659e-005,5.131294e-005
-6.926366e-005,6.687121e-005
-7.315322e-005,7.886404e-005
-7.347736e-005,9.409818e-005
-6.877746e-005,1.119254e-004
-6.521203e-005,1.282940e-004
-6.440170e-005,1.378558e-004
-6.602235e-005,1.423936e-004
-7.104638e-005,1.459591e-004
-7.979791e-005,1.543865e-004
-9.632857e-005,1.705930e-004
-1.229073e-004,1.908512e-004
-1.540238e-004,2.077060e-004
-1.789819e-004,2.200230e-004
-1.891920e-004,2.300710e-004
-1.898403e-004,2.393087e-004
-1.930815e-004,2.478982e-004
-2.078295e-004,2.529222e-004
-2.365151e-004,2.525981e-004
-2.758969e-004,2.441707e-004
-3.141443e-004,2.316917e-004
-3.353749e-004,2.216436e-004
-3.331060e-004,2.149989e-004
-3.104168e-004,2.060853e-004
-2.815692e-004,1.910133e-004
-2.606628e-004,1.701068e-004
-2.519113e-004,1.461212e-004
-2.517492e-004,1.193804e-004
-2.562870e-004,9.280167e-005
-2.554767e-004,6.395404e-005
-2.459149e-004,3.834771e-005
-2.332737e-004,1.971020e-005
-2.251705e-004,1.031041e-005
-2.193361e-004,7.555301e-006
-2.068571e-004,5.934648e-006
-1.801163e-004,2.623614e-007
-1.425172e-004,-1.351319e-005
-9.956988e-005,-3.231277e-005
-4.819517e-005,-4.884343e-005
1.776542e-005,-6.261898e-005
9.912221e-005,-6.958779e-005
1.856651e-004,-7.201877e-005
2.602152e-004,-7.363943e-005
3.115899e-004,-7.509801e-005
3.430306e-004,-7.607040e-005
3.642611e-004,-7.639453e-005
3.837090e-004,-7.817725e-005
4.063981e-004,-8.239095e-005
4.230909e-004,-8.790117e-005
4.114222e-004,-9.308726e-005
3.459477e-004,-9.438378e-005
2.112714e-004,-9.470791e-005
4.313994e-006,-9.730096e-005
-2.536940e-004,-1.047560e-004
-5.084606e-004,-1.126972e-004
-6.935392e-004,-1.182074e-004
-7.637134e-004,-1.211246e-004
-7.172007e-004,-1.206384e-004
-5.927345e-004,-1.156143e-004
-4.439586e-004,-1.063766e-004
-3.160891e-004,-9.470791e-005
-2.251705e-004,-8.352541e-005
-1.666649e-004,-7.671866e-005
-1.232314e-004,-7.509801e-005
-7.866345e-005,-7.444975e-005
-2.048200e-005,-7.315322e-005
5.698522e-005,-7.412562e-005
1.498487e-004,-8.093236e-005
2.431983e-004,-9.276313e-005
3.109416e-004,-1.002181e-004
3.344411e-004,-9.665270e-005
3.185587e-004,-8.271508e-005
2.812837e-004,-6.342931e-005
2.422259e-004,-4.414354e-005
2.119197e-004,-2.388537e-005
1.889064e-004,-3.789272e-006
1.680000e-004,1.241726e-005
1.451488e-004,2.505836e-005
1.201907e-004,3.591673e-005
9.182927e-005,4.369587e-005
6.184718e-005,5.001642e-005
2.959619e-005,5.876794e-005
-6.868513e-006,6.881599e-005
-5.483985e-005,8.064677e-005
-1.133454e-004,9.199134e-005
-1.783336e-004,1.009049e-004
-2.441321e-004,1.057669e-004
-3.036101e-004,1.098185e-004
-3.497987e-004,1.182459e-004
-3.826980e-004,1.328318e-004
-4.078181e-004,1.548727e-004
-4.264556e-004,1.851789e-004
-4.382863e-004,2.226160e-004
-4.363416e-004,2.597290e-004
-4.181903e-004,2.867939e-004
-3.904771e-004,2.978143e-004
-3.655190e-004,2.960316e-004
-3.455850e-004,2.832284e-004
-3.036101e-004,2.642668e-004
-1.937298e-004,2.444948e-004
-6.176923e-008,2.316917e-004
2.509774e-004,2.268297e-004
4.956961e-004,2.265056e-004
6.653786e-004,2.300710e-004
7.190223e-004,2.359054e-004
6.629477e-004,2.423880e-004
5.376711e-004,2.431983e-004
3.961880e-004,2.380122e-004
2.780424e-004,2.336365e-004
1.898788e-004,2.334744e-004
1.210010e-004,2.350950e-004
5.860588e-005,2.299089e-004
-2.330684e-006,2.137024e-004
-6.504996e-005,1.874478e-004
-1.378173e-004,1.543865e-004
-2.310048e-004,1.185701e-004
-3.459091e-004,8.178122e-005
-4.783165e-004,4.142696e-005
-6.193133e-004,-5.247859e-006
-7.413484e-004,-5.759496e-005
-7.959644e-004,-1.078352e-004
-7.411864e-004,-1.493239e-004
-5.718282e-004,-1.789819e-004
-3.230579e-004,-1.934057e-004
-4.592625e-005,-1.985918e-004
2.028440e-004,-2.000504e-004
3.786850e-004,-1.987538e-004
4.700898e-004,-1.930815e-004
4.911583e-004,-1.872472e-004
4.697657e-004,-1.843300e-004
4.297355e-004,-1.908126e-004
3.914881e-004,-2.060468e-004
3.658818e-004,-2.248464e-004
3.516200e-004,-2.425115e-004
3.430306e-004,-2.540181e-004
3.415720e-004,-2.553146e-004
3.516200e-004,-2.436459e-004
3.726885e-004,-2.198223e-004
4.010500e-004,-1.891920e-004
4.284390e-004,-1.546721e-004
4.451317e-004,-1.188556e-004
4.464283e-004,-8.644259e-005
4.328148e-004,-5.856735e-005
4.099636e-004,-3.344723e-005
3.827366e-004,-1.562004e-005
3.509718e-004,-9.299493e-006
3.161277e-004,-1.092015e-005
2.806354e-004,-1.237873e-005
2.412535e-004,-1.092015e-005
1.981441e-004,-5.085794e-006
1.540623e-004,-1.682422e-006
1.127357e-004,-5.571990e-006
7.465034e-005,-1.837515e-005
4.158902e-005,-3.701266e-005
1.711715e-005,-5.565017e-005
6.258778e-006,-6.537409e-005
8.203562e-006,-6.132246e-005
1.744129e-005,-4.689865e-005
2.667901e-005,-2.696461e-005
3.089271e-005,-6.220252e-006
2.765140e-005,1.598270e-005
1.792748e-005,3.543054e-005
7.879432e-006,4.936815e-005
2.531276e-006,5.974033e-005
2.531276e-006,6.978839e-005
5.864920e-007,7.951231e-005
-8.165035e-006,9.053275e-005
-2.145439e-005,1.034980e-004
-3.393342e-005,1.169494e-004
-4.381940e-005,1.295905e-004
-4.527799e-005,1.410971e-004
-3.134038e-005,1.586002e-004
5.610517e-006,1.845306e-004
6.962632e-005,2.122438e-004
1.511452e-004,2.337985e-004
2.260194e-004,2.448189e-004
2.675081e-004,2.466017e-004
2.594049e-004,2.440086e-004
2.091646e-004,2.412535e-004
1.393144e-004,2.401191e-004
7.108491e-005,2.393087e-004
1.079661e-005,2.347709e-004
-4.122636e-005,2.279642e-004
-7.785312e-005,2.240746e-004
-8.547019e-005,2.256952e-004
-5.921561e-005,2.302331e-004
-7.840905e-006,2.350950e-004
4.807163e-005,2.378501e-004
9.604298e-005,2.350950e-004
1.419075e-004,2.213195e-004
1.971717e-004,1.968476e-004
2.694529e-004,1.681620e-004
3.613439e-004,1.378558e-004
4.572867e-004,1.130598e-004
5.285954e-004,9.344993e-005
5.592257e-004,7.708133e-005
5.576051e-004,6.281957e-005
5.459364e-004,4.904402e-005
5.439916e-004,3.251336e-005
5.451261e-004,1.387585e-005
5.211404e-004,-5.571990e-006
4.415663e-004,-2.437157e-005
2.871180e-004,-4.252288e-005
5.358185e-005,-5.775702e-005
-2.486699e-004,-6.893953e-005
-5.971103e-004,-7.639453e-005
-9.740742e-004,-8.158062e-005
-1.361248e-003,-8.433573e-005
-1.730109e-003,-8.320128e-005
-2.038195e-003,-8.433573e-005
-2.221167e-003,-9.292520e-005
-2.218250e-003,-1.092938e-004
-2.020854e-003,-1.306864e-004
-1.673872e-003,-1.522411e-004
-1.257526e-003,-1.720131e-004
-8.463667e-004,-1.874093e-004
-4.924161e-004,-1.966470e-004
-2.173914e-004,-1.972953e-004
-1.886135e-005,-1.893541e-004
1.137081e-004,-1.770371e-004
1.924718e-004,-1.661787e-004
2.253711e-004,-1.593720e-004
2.256952e-004,-1.554824e-004
2.122438e-004,-1.546721e-004
2.023578e-004,-1.548341e-004
2.057612e-004,-1.561307e-004
2.232643e-004,-1.609926e-004
2.483844e-004,-1.695821e-004
2.754493e-004,-1.773612e-004
2.976523e-004,-1.802784e-004
3.162898e-004,-1.733096e-004
3.433547e-004,-1.579134e-004
3.833848e-004,-1.431655e-004
4.297355e-004,-1.339277e-004
4.668485e-004,-1.295519e-004
4.811103e-004,-1.191798e-004
4.687933e-004,-9.503204e-005
4.472386e-004,-5.953974e-005
4.516144e-004,-2.161646e-005
5.068787e-004,1.079661e-005
6.127074e-004,3.478228e-005
7.342565e-004,5.179914e-005
8.337647e-004,6.849186e-005
8.830326e-004,8.875003e-005
8.775223e-004,1.096565e-004
8.316578e-004,1.263492e-004
7.660213e-004,1.389903e-004
6.921195e-004,1.472556e-004
6.130316e-004,1.561692e-004
5.185474e-004,1.689724e-004
4.018603e-004,1.861513e-004
2.663737e-004,2.038164e-004
1.268354e-004,2.169437e-004
-1.318906e-005,2.278021e-004
-1.611547e-004,2.367157e-004
-3.259751e-004,2.441707e-004
-4.988988e-004,2.525981e-004
-6.398956e-004,2.629703e-004
-6.984011e-004,2.718839e-004
-6.342233e-004,2.735045e-004
-4.399070e-004,2.676702e-004
-1.532135e-004,2.556773e-004
1.504969e-004,2.414156e-004
3.935950e-004,2.315296e-004
5.297299e-004,2.312055e-004
5.538776e-004,2.381743e-004
5.033132e-004,2.446569e-004
4.242253e-004,2.454672e-004
3.487029e-004,2.375260e-004
2.947351e-004,2.209954e-004
2.670219e-004,2.025199e-004
2.548670e-004,1.911753e-004
2.407673e-004,1.838824e-004
2.151610e-004,1.775618e-004
1.741585e-004,1.680000e-004
1.159770e-004,1.535762e-004
4.774750e-005,1.321835e-004
-2.242678e-005,1.078737e-004
-9.519411e-005,8.145709e-005
-1.697442e-004,5.536457e-005
-2.365151e-004,3.235129e-005
-2.814071e-004,1.193106e-005
-2.934000e-004,-9.137427e-006
-2.707109e-004,-3.328516e-005
-2.224154e-004,-5.516398e-005
-1.441378e-004,-7.218083e-005
-1.189254e-005,-8.158062e-005
1.970097e-004,-8.547019e-005
4.660382e-004,-9.162867e-005
7.436562e-004,-1.047560e-004
9.632549e-004,-1.248521e-004
1.065518e-003,-1.468929e-004
1.027109e-003,-1.692580e-004
8.590469e-004,-1.887058e-004
5.905044e-004,-2.003745e-004
2.642668e-004,-2.049123e-004
-5.565017e-005,-2.042641e-004
-3.034480e-004,-2.019951e-004
-4.481723e-004,-2.015090e-004
-5.060296e-004,-2.024813e-004
-5.262878e-004,-2.005366e-004
-5.698834e-004,-1.927574e-004
-6.792775e-004,-1.791439e-004
-8.585216e-004,-1.621271e-004
-1.064507e-003,-1.477033e-004
-1.236296e-003,-1.389517e-004
-1.315060e-003,-1.339277e-004
-1.248775e-003,-1.292278e-004
-1.022856e-003,-1.238797e-004
-6.826808e-004,-1.190177e-004
-3.175477e-004,-1.164247e-004
-2.647842e-005,-1.159385e-004
1.106288e-004,-1.135075e-004
6.557468e-005,-1.036215e-004
-1.232314e-004,-8.644259e-005
-3.770257e-004,-6.634648e-005
-6.180168e-004,-4.657452e-005
-7.966127e-004,-2.826114e-005
-8.927174e-004,-1.140634e-005
-8.985517e-004,6.096713e-006
-8.158985e-004,2.441009e-005
-6.622606e-004,4.337174e-005
-4.668098e-004,5.795762e-005
-2.663351e-004,6.914012e-005
-8.644259e-005,7.740546e-005
6.476436e-005,8.469840e-005
1.814514e-004,9.199134e-005
2.623220e-004,9.879808e-005
3.094830e-004,1.039842e-004
3.315239e-004,1.112771e-004
3.396272e-004,1.263492e-004
3.420582e-004,1.517934e-004
3.487029e-004,1.825859e-004
3.687990e-004,2.133783e-004
4.067223e-004,2.384984e-004
4.621486e-004,2.551911e-004
5.292437e-004,2.654013e-004
6.000663e-004,2.718839e-004
6.608408e-004,2.770700e-004
6.908230e-004,2.770700e-004
6.809369e-004,2.748010e-004
6.366931e-004,2.733424e-004
5.715428e-004,2.722080e-004
4.999099e-004,2.691288e-004
4.334631e-004,2.603772e-004
3.937570e-004,2.459534e-004
3.966742e-004,2.305572e-004
4.318424e-004,2.193747e-004
4.767345e-004,2.169437e-004
5.178991e-004,2.203471e-004
5.480433e-004,2.213195e-004
5.679773e-004,2.153231e-004
5.892079e-004,2.004130e-004
6.271312e-004,1.796687e-004
6.817472e-004,1.579519e-004
7.308531e-004,1.368834e-004
7.514353e-004,1.119254e-004
7.386322e-004,7.951231e-005
6.994124e-004,4.499239e-005
6.386379e-004,1.371378e-005
5.584154e-004,-9.785688e-006
4.627969e-004,-2.485776e-005
3.579406e-004,-3.749886e-005
2.490327e-004,-5.192267e-005
1.331559e-004,-6.764301e-005
-1.010982e-005,-8.077030e-005
-2.034537e-004,-8.757704e-005
-4.600031e-004,-8.935975e-005
-7.737615e-004,-8.822530e-005
-1.119123e-003,-8.854943e-005
-1.452329e-003,-9.956988e-005
-1.739023e-003,-1.263107e-004
-1.953921e-003,-1.619650e-004
-2.071095e-003,-1.969711e-004
-2.071743e-003,-2.219292e-004
-1.965104e-003,-2.340841e-004
-1.777432e-003,-2.310048e-004
-1.543734e-003,-2.186879e-004
-1.301932e-003,-2.047502e-004
-1.072286e-003,-1.937298e-004
-8.453943e-004,-1.888679e-004
-5.888450e-004,-1.893541e-004
-2.822175e-004,-1.922712e-004
5.455425e-005,-1.924333e-004
3.668542e-004,-1.895161e-004
6.031455e-004,-1.835197e-004
7.425218e-004,-1.750923e-004
8.031343e-004,-1.674752e-004
8.254994e-004,-1.616409e-004
8.449472e-004,-1.579134e-004
8.750914e-004,-1.548341e-004
9.144733e-004,-1.514308e-004
9.494794e-004,-1.439758e-004
9.673066e-004,-1.292278e-004
9.596896e-004,-1.076731e-004
9.183628e-004,-8.125649e-005
8.368439e-004,-5.289507e-005
7.130259e-004,-2.826114e-005
5.540397e-004,-6.868513e-006
3.739850e-004,1.144487e-005
2.023578e-004,2.894792e-005
8.421220e-005,5.082674e-005
5.487838e-005,7.870197e-005
1.138702e-004,1.056048e-004
2.224539e-004,1.250527e-004
3.303894e-004,1.378558e-004
3.958639e-004,1.477418e-004
4.055878e-004,1.568175e-004
3.668542e-004,1.662173e-004
2.929524e-004,1.804790e-004
1.947408e-004,2.028440e-004
8.129502e-005,2.302331e-004
-4.608832e-005,2.574601e-004
-1.872472e-004,2.840388e-004
-3.301888e-004,3.015418e-004
-4.408794e-004,3.033245e-004
-4.847991e-004,2.895490e-004
-4.459034e-004,2.712356e-004
-3.365093e-004,2.568118e-004
-1.911368e-004,2.487085e-004
-4.754691e-005,2.409294e-004
6.476436e-005,2.325020e-004
1.323456e-004,2.286124e-004
1.594105e-004,2.307193e-004
1.594105e-004,2.372019e-004
1.462832e-004,2.440086e-004
1.331559e-004,2.440086e-004
1.297526e-004,2.389846e-004
1.373696e-004,2.303951e-004
1.495245e-004,2.177540e-004
1.590864e-004,2.021958e-004
1.603829e-004,1.848548e-004
1.530900e-004,1.692965e-004
1.359110e-004,1.598967e-004
1.132219e-004,1.582761e-004
8.842590e-005,1.553589e-004
7.400208e-005,1.461212e-004
7.432621e-005,1.271595e-004
7.951231e-005,1.026876e-004
7.238143e-005,7.594687e-005
4.013043e-005,4.839576e-005
-1.578211e-005,2.278944e-005
-9.162867e-005,-2.238346e-007
-1.752544e-004,-2.177852e-005
-2.446183e-004,-4.187462e-005
-2.862691e-004,-6.002594e-005
-2.971275e-004,-7.590833e-005
-2.851347e-004,-9.146661e-005
-2.600145e-004,-1.073490e-004
-2.266291e-004,-1.269589e-004
-1.831956e-004,-1.522411e-004
-1.272830e-004,-1.786577e-004
-5.419158e-005,-2.029675e-004
3.526847e-005,-2.217671e-004
1.316974e-004,-2.319772e-004
2.284504e-004,-2.327876e-004
3.198552e-004,-2.258187e-004
3.973225e-004,-2.186879e-004
4.566384e-004,-2.160948e-004
5.026649e-004,-2.206326e-004
5.491778e-004,-2.287359e-004
6.039558e-004,-2.329496e-004
6.561409e-004,-2.298704e-004
6.879058e-004,-2.211189e-004
6.919574e-004,-2.126914e-004
6.691061e-004,-2.071812e-004
6.274553e-004,-2.028055e-004
5.759185e-004,-1.961608e-004
5.251921e-004,-1.853024e-004
4.730070e-004,-1.707166e-004
4.104497e-004,-1.549962e-004
3.410858e-004,-1.402483e-004
2.725321e-004,-1.285796e-004
2.090025e-004,-1.212866e-004
1.436902e-004,-1.167488e-004
7.124698e-005,-1.096179e-004
-9.461558e-006,-9.519411e-005
-9.697683e-005,-7.266703e-005
-1.916230e-004,-4.284701e-005
-2.911311e-004,-8.975362e-006
-3.833462e-004,2.376183e-005
-4.556273e-004,5.098881e-005
-5.071641e-004,7.481241e-005
-5.389289e-004,9.361199e-005
-5.509217e-004,1.078737e-004
-5.407116e-004,1.188942e-004
-5.100812e-004,1.257009e-004
-4.676201e-004,1.294284e-004
-4.282383e-004,1.367214e-004
-4.027940e-004,1.517934e-004
-3.891806e-004,1.736723e-004
-3.742705e-004,1.981441e-004
-3.499608e-004,2.235884e-004
-3.188442e-004,2.519498e-004
-2.914552e-004,2.799871e-004
-2.697385e-004,3.059176e-004
-2.520733e-004,3.252034e-004
-2.306807e-004,3.376824e-004
-2.018331e-004,3.465960e-004
-1.650443e-004,3.521062e-004
-1.250141e-004,3.542131e-004
-9.081835e-005,3.506476e-004
-6.780507e-005,3.397893e-004
-6.067420e-005,3.239069e-004
-6.197072e-005,3.057555e-004
-6.407757e-005,2.845250e-004
-6.132246e-005,2.641047e-004
-5.743289e-005,2.464396e-004
-6.245691e-005,2.329882e-004
-8.401160e-005,2.221298e-004
-1.190177e-004,2.080301e-004
-1.616409e-004,1.885823e-004
-2.041020e-004,1.624898e-004
-2.365151e-004,1.318594e-004
-2.460769e-004,9.912221e-005
-2.332737e-004,6.881599e-005
-2.032917e-004,4.337174e-005
-1.621271e-004,2.246531e-005
-1.170729e-004,4.244267e-007
-7.282909e-005,-2.307504e-005
-3.539201e-005,-4.398147e-005
-1.059602e-005,-6.375344e-005
2.045080e-006,-8.320128e-005
5.610517e-006,-1.016767e-004
1.144487e-005,-1.173971e-004
2.684107e-005,-1.269589e-004
4.953022e-005,-1.305243e-004
7.157111e-005,-1.269589e-004
8.259155e-005,-1.206384e-004
8.242948e-005,-1.180453e-004
7.400208e-005,-1.248521e-004
5.925414e-005,-1.434896e-004
4.369587e-005,-1.728234e-004
3.251336e-005,-2.073433e-004
3.056858e-005,-2.370013e-004
3.769945e-005,-2.556388e-004
4.742337e-005,-2.632558e-004
5.163707e-005,-2.630937e-004
5.034055e-005,-2.558008e-004
4.855783e-005,-2.421874e-004
5.212327e-005,-2.193361e-004
6.298164e-005,-1.924333e-004
8.048470e-005,-1.677994e-004
9.993253e-005,-1.470550e-004
1.132219e-004,-1.316588e-004
1.187321e-004,-1.245279e-004
1.198666e-004,-1.237176e-004
1.224596e-004,-1.261486e-004
1.261871e-004,-1.259865e-004
1.294284e-004,-1.198280e-004
1.253768e-004,-1.076731e-004
1.133840e-004,-9.179074e-005
1.015532e-004,-7.655660e-005
9.879808e-005,-6.294311e-005
1.098185e-004,-5.240886e-005
1.312112e-004,-3.879538e-005
1.524417e-004,-1.983374e-005
1.660552e-004,3.503668e-006
1.692965e-004,3.202716e-005
1.595726e-004,6.525056e-005
1.410971e-004,9.636710e-005
1.250527e-004,1.192183e-004
1.187321e-004,1.308870e-004
1.253768e-004,1.326697e-004
1.423936e-004,1.308870e-004
1.633001e-004,1.302388e-004
1.796687e-004,1.344524e-004
1.791825e-004,1.415833e-004
1.535762e-004,1.492004e-004
1.046324e-004,1.560072e-004
6.314371e-005,1.658931e-004
8.534666e-005,1.801549e-004
2.054371e-004,2.005751e-004
4.094774e-004,2.224539e-004
6.391241e-004,2.396328e-004
8.324682e-004,2.474120e-004
9.551517e-004,2.474120e-004
1.005716e-003,2.449810e-004
9.914545e-004,2.428742e-004
9.199835e-004,2.397949e-004
8.041067e-004,2.350950e-004
6.522514e-004,2.289366e-004
4.662003e-004,2.227781e-004
2.431983e-004,2.187264e-004
-1.254080e-005,2.184023e-004
-2.794623e-004,2.227781e-004
-5.235327e-004,2.290986e-004
-7.244936e-004,2.359054e-004
-8.860728e-004,2.401191e-004
-1.023828e-003,2.386605e-004
-1.149429e-003,2.313675e-004
-1.249423e-003,2.192126e-004
-1.292046e-003,1.984683e-004
-1.247640e-003,1.702689e-004
-1.113937e-003,1.388282e-004
-9.188099e-004,1.096565e-004
-7.013183e-004,8.988449e-005
-5.071641e-004,8.048470e-005
-3.744326e-004,7.740546e-005
-3.196545e-004,7.691926e-005
-3.275957e-004,7.497447e-005
-3.566054e-004,6.638502e-005
-3.632501e-004,5.017848e-005
-3.225718e-004,2.748934e-005
-2.337599e-004,1.396819e-006
-1.092938e-004,-2.080613e-005
2.846173e-005,-3.701266e-005
1.587623e-004,-4.511593e-005
2.702632e-004,-4.932962e-005
3.561579e-004,-5.516398e-005
4.088291e-004,-7.120844e-005
4.248736e-004,-9.940781e-005
4.075326e-004,-1.366828e-004
3.653956e-004,-1.755785e-004
3.230965e-004,-2.073433e-004
3.133726e-004,-2.240360e-004
3.542131e-004,-2.259808e-004
4.399457e-004,-2.190120e-004
5.465847e-004,-2.091260e-004
6.443101e-004,-2.034537e-004
7.118915e-004,-1.981056e-004
7.425218e-004,-1.875713e-004
7.399287e-004,-1.736337e-004
7.144845e-004,-1.601823e-004
6.817472e-004,-1.491618e-004
6.588960e-004,-1.425172e-004
6.605167e-004,-1.383035e-004
6.909850e-004,-1.363587e-004
7.295565e-004,-1.365208e-004
7.394425e-004,-1.391138e-004
6.893643e-004,-1.368449e-004
5.692738e-004,-1.255003e-004
3.914881e-004,-1.086455e-004
1.770756e-004,-8.952183e-005
-6.245691e-005,-6.877746e-005
-3.027998e-004,-4.868137e-005
-4.972781e-004,-2.971972e-005
-6.040792e-004,-1.399939e-005
-6.131548e-004,-2.006553e-006
-5.533527e-004,4.151929e-006
-4.744269e-004,8.527692e-006
-4.170558e-004,1.355172e-005
-3.987424e-004,1.971020e-005
-4.180282e-004,2.619281e-005
-4.658375e-004,3.137890e-005
-5.256396e-004,3.721326e-005
-5.846313e-004,4.580272e-005
-6.382749e-004,5.179914e-005
-6.812222e-004,5.374392e-005
-6.943495e-004,5.487838e-005
-6.522125e-004,6.168512e-005
-5.403875e-004,7.756752e-005
-3.695707e-004,9.652917e-005
-1.645581e-004,1.145184e-004
5.390598e-005,1.316974e-004
2.650771e-004,1.423936e-004
4.475628e-004,1.461212e-004
5.760806e-004,1.467694e-004
6.321552e-004,1.475797e-004
6.140039e-004,1.479039e-004
5.446399e-004,1.488763e-004
4.572867e-004,1.513072e-004
3.814401e-004,1.560072e-004
3.303894e-004,1.647587e-004
2.948972e-004,1.785342e-004
2.568118e-004,1.940925e-004
2.047888e-004,2.060853e-004
1.349386e-004,2.111094e-004
4.855783e-005,2.137024e-004
-4.171256e-005,2.193747e-004
-1.165867e-004,2.234263e-004
-1.673132e-004,2.200230e-004
-1.919471e-004,2.044647e-004
-1.927574e-004,1.793446e-004
-1.739578e-004,1.522796e-004
-1.392759e-004,1.307250e-004
-8.854943e-005,1.154908e-004
-1.886135e-005,1.078737e-004
7.254349e-005,1.034980e-004
1.820997e-004,9.831188e-005
2.955454e-004,8.988449e-005
3.952156e-004,7.789165e-005
4.653899e-004,6.362991e-005
4.943996e-004,4.677511e-005
4.819206e-004,2.975825e-005
4.461041e-004,1.355172e-005
4.153117e-004,-1.682422e-006
4.107739e-004,-1.562004e-005
4.298976e-004,-3.134038e-005
4.572867e-004,-4.981582e-005
4.728449e-004,-7.266703e-005
4.619866e-004,-9.859748e-005
4.193634e-004,-1.242038e-004
3.480546e-004,-1.430034e-004
2.603772e-004,-1.545100e-004
1.670276e-004,-1.588858e-004
7.578480e-005,-1.579134e-004
-1.075808e-005,-1.527273e-004
-9.811128e-005,-1.483515e-004
-1.900023e-004,-1.499722e-004
-2.770314e-004,-1.566169e-004
-3.472056e-004,-1.624512e-004
-3.964735e-004,-1.643960e-004
-4.342347e-004,-1.600202e-004
-4.700511e-004,-1.504584e-004
-4.972781e-004,-1.417068e-004
-4.932265e-004,-1.355484e-004
-4.446069e-004,-1.336036e-004
-3.591985e-004,-1.352242e-004
-2.464010e-004,-1.365208e-004
-1.146419e-004,-1.347380e-004
3.332369e-005,-1.305243e-004
2.007372e-004,-1.240417e-004
3.819262e-004,-1.141558e-004
5.467468e-004,-1.037836e-004
6.517651e-004,-9.324933e-005
6.631098e-004,-7.785312e-005
5.728393e-004,-5.824322e-005
3.987811e-004,-3.571614e-005
1.769136e-004,-1.043395e-005
-6.245691e-005,1.760335e-005
-3.024756e-004,4.353380e-005
-5.452494e-004,6.346784e-005
-7.990437e-004,7.756752e-005
-1.050893e-003,8.842590e-005
-1.253961e-003,1.015532e-004
-1.343259e-003,1.169494e-004
-1.271788e-003,1.338042e-004
-1.052352e-003,1.464453e-004
-7.588515e-004,1.558451e-004
-4.859335e-004,1.694586e-004
-3.084721e-004,1.923098e-004
-2.493182e-004,2.234263e-004
-2.741142e-004,2.535705e-004
-3.173856e-004,2.772320e-004
-3.253268e-004,2.945730e-004
-2.758969e-004,3.041349e-004
-1.791439e-004,3.038107e-004
-6.180866e-005,2.965178e-004
5.163707e-005,2.871180e-004
1.459591e-004,2.773941e-004
2.122438e-004,2.673460e-004
2.488706e-004,2.563256e-004
2.595669e-004,2.464396e-004
2.527602e-004,2.391467e-004
2.412535e-004,2.326641e-004
2.326641e-004,2.253711e-004
2.292607e-004,2.166196e-004
2.326641e-004,2.090025e-004
2.422259e-004,2.023578e-004
2.522740e-004,1.965235e-004
2.530843e-004,1.916615e-004
2.337985e-004,1.879340e-004
1.979821e-004,1.793446e-004
1.556830e-004,1.602208e-004
1.193804e-004,1.308870e-004
1.038221e-004,9.555677e-005
1.193804e-004,6.103686e-005
1.623277e-004,2.846173e-005
2.258573e-004,-1.034161e-006
3.115899e-004,-2.583016e-005
4.282770e-004,-4.446767e-005
5.969870e-004,-5.710876e-005
8.203132e-004,-6.180866e-005
1.066167e-003,-5.840528e-005
1.275069e-003,-5.370539e-005
1.382681e-003,-5.321920e-005
1.355616e-003,-6.116039e-005
1.207974e-003,-7.607040e-005
9.797857e-004,-9.243900e-005
7.174017e-004,-1.097800e-004
4.587452e-004,-1.276072e-004
2.221298e-004,-1.465688e-004
1.533444e-005,-1.669890e-004
-1.611547e-004,-1.851404e-004
-3.139823e-004,-1.971332e-004
-4.535205e-004,-2.018331e-004
-5.914380e-004,-1.982676e-004
-7.528550e-004,-1.919471e-004
-9.688881e-004,-1.854645e-004
-1.249423e-003,-1.801163e-004
-1.568854e-003,-1.765509e-004
-1.868351e-003,-1.744440e-004
-2.059912e-003,-1.736337e-004
-2.049378e-003,-1.749302e-004
-1.779377e-003,-1.770371e-004
-1.258499e-003,-1.768750e-004
-5.640491e-004,-1.744440e-004
1.872858e-004,-1.689338e-004
8.679605e-004,-1.608306e-004
1.392567e-003,-1.522411e-004
1.724639e-003,-1.433275e-004
1.860613e-003,-1.370070e-004
1.812965e-003,-1.313347e-004
1.606331e-003,-1.246900e-004
1.278635e-003,-1.126972e-004
8.909738e-004,-9.211487e-005
5.154681e-004,-6.488790e-005
2.030061e-004,-3.911951e-005
-4.430560e-005,-2.048200e-005
-2.656868e-004,-6.544382e-006
-5.120260e-004,8.041497e-006
-8.158985e-004,2.570662e-005
-1.184435e-003,4.596478e-005
-1.585385e-003,7.108491e-005
-1.946628e-003,1.002567e-004
-2.182110e-003,1.253768e-004
-2.227488e-003,1.406109e-004
-2.066881e-003,1.461212e-004
-1.726706e-003,1.495245e-004
-1.259147e-003,1.587623e-004
-7.313004e-004,1.754550e-004
-2.204706e-004,1.955511e-004
2.034923e-004,2.111094e-004
5.021787e-004,2.203471e-004
6.796404e-004,2.234263e-004
7.669937e-004,2.216436e-004
8.015137e-004,2.161334e-004
8.141547e-004,2.135403e-004
8.190167e-004,2.153231e-004
8.207994e-004,2.187264e-004
8.195029e-004,2.203471e-004
8.182063e-004,2.211574e-004
8.156133e-004,2.208333e-004
8.125341e-004,2.180782e-004
8.091307e-004,2.171058e-004
7.972999e-004,2.195368e-004
7.699109e-004,2.195368e-004
7.217774e-004,2.120818e-004
6.577615e-004,1.963614e-004
5.932595e-004,1.786963e-004
5.444778e-004,1.665414e-004
5.188715e-004,1.600588e-004
5.119027e-004,1.560072e-004
5.170888e-004,1.503349e-004
5.225990e-004,1.402868e-004
5.191956e-004,1.260251e-004
5.046097e-004,1.083599e-004
4.835413e-004,8.907416e-005
4.589073e-004,6.962632e-005
4.344354e-004,5.131294e-005
4.075326e-004,3.607880e-005
3.726885e-004,1.954813e-005
3.211517e-004,9.106227e-007
2.535705e-004,-1.659243e-005
1.816135e-004,-3.198864e-005
1.269974e-004,-4.576419e-005
1.033359e-004,-5.840528e-005
1.107909e-004,-6.910160e-005
1.342904e-004,-7.655660e-005
1.488763e-004,-8.547019e-005
1.391524e-004,-1.008664e-004
9.199134e-005,-1.217728e-004
5.448452e-006,-1.468929e-004
-9.713889e-005,-1.724993e-004
-1.818991e-004,-1.875713e-004
-2.203085e-004,-1.890299e-004
-2.015090e-004,-1.841680e-004
-1.358725e-004,-1.788198e-004
-4.981582e-005,-1.768750e-004
2.262738e-005,-1.786577e-004
6.087479e-005,-1.783336e-004
5.909208e-005,-1.733096e-004
2.392390e-005,-1.648822e-004
-2.388537e-005,-1.548341e-004
-6.407757e-005,-1.462447e-004
-9.065628e-005,-1.404103e-004
-1.028112e-004,-1.376552e-004
-1.044318e-004,-1.352242e-004
-9.843541e-005,-1.321450e-004
-9.162867e-005,-1.280934e-004
-9.000802e-005,-1.242038e-004
-9.357346e-005,-1.162626e-004
-9.081835e-005,-1.016767e-004
-7.363943e-005,-8.352541e-005
-4.106429e-005,-6.359137e-005
3.503668e-006,-4.284701e-005
5.244739e-005,-1.918548e-005
8.956036e-005,1.176900e-005
1.062531e-004,4.774750e-005
1.015532e-004,8.048470e-005
7.967438e-005,1.009049e-004
5.309566e-005,1.099806e-004
2.813760e-005,1.143563e-004
3.989864e-006,1.205148e-004
-2.356124e-005,1.250527e-004
-6.213279e-005,1.245665e-004
-1.154523e-004,1.197045e-004
-1.793060e-004,1.156529e-004
-2.412149e-004,1.174356e-004
-2.935620e-004,1.279698e-004
-3.324577e-004,1.464453e-004
-3.624398e-004,1.686482e-004
-3.838324e-004,1.887444e-004
-3.943667e-004,2.052750e-004
-3.938804e-004,2.171058e-004
-3.820497e-004,2.240746e-004
-3.587123e-004,2.273159e-004
-3.235441e-004,2.323399e-004
-2.788141e-004,2.394708e-004
-2.285739e-004,2.438466e-004
-1.739578e-004,2.428742e-004
-1.107524e-004,2.367157e-004
-3.895745e-005,2.312055e-004
3.283749e-005,2.290986e-004
9.474644e-005,2.295848e-004
1.443384e-004,2.279642e-004
1.803169e-004,2.205092e-004
2.013854e-004,2.090025e-004
2.093267e-004,1.981441e-004
2.026820e-004,1.902029e-004
1.827479e-004,1.858272e-004
1.555210e-004,1.829100e-004
1.273216e-004,1.790204e-004
1.057669e-004,1.731861e-004
9.733949e-005,1.626518e-004
9.944634e-005,1.436902e-004
1.015532e-004,1.133840e-004
9.669123e-005,7.740546e-005
7.772959e-005,4.466826e-005
4.466826e-005,1.938607e-005
-3.465141e-006,5.448452e-006
-5.872941e-005,-1.034161e-006
-1.133454e-004,-5.571990e-006
-1.600202e-004,-1.399939e-005
-1.947022e-004,-2.631635e-005
-2.191741e-004,-3.733679e-005
-2.355427e-004,-4.462973e-005
-2.426735e-004,-4.916756e-005
-2.423494e-004,-5.581224e-005
-2.373254e-004,-6.715681e-005
-2.314910e-004,-8.271508e-005
-2.310048e-004,-1.000561e-004
-2.402425e-004,-1.183694e-004
-2.569353e-004,-1.373311e-004
-2.739521e-004,-1.549962e-004
-2.862691e-004,-1.684476e-004
-2.927517e-004,-1.731475e-004
-2.937241e-004,-1.692580e-004
-2.867553e-004,-1.592099e-004
-2.677937e-004,-1.468929e-004
-2.352185e-004,-1.355484e-004
-1.951884e-004,-1.267968e-004
-1.519170e-004,-1.220970e-004
-1.029732e-004,-1.250141e-004
-4.495386e-005,-1.342519e-004
1.711715e-005,-1.522411e-004
7.205730e-005,-1.776853e-004
1.133840e-004,-2.055606e-004
1.388282e-004,-2.284118e-004
1.535762e-004,-2.395943e-004
1.621656e-004,-2.371633e-004
1.676758e-004,-2.258187e-004
1.731861e-004,-2.112329e-004
1.801549e-004,-2.000504e-004
1.892305e-004,-1.896782e-004
1.989545e-004,-1.760647e-004
2.018716e-004,-1.569410e-004
1.963614e-004,-1.327933e-004
1.840444e-004,-1.060525e-004
1.675138e-004,-8.255302e-005
1.487142e-004,-6.488790e-005
1.302388e-004,-5.208474e-005
1.174356e-004,-3.879538e-005
1.141943e-004,-2.258885e-005
1.184080e-004,-6.706447e-006
1.201907e-004,5.448452e-006
1.112771e-004,1.241726e-005
9.150514e-005,2.019640e-005
6.622294e-005,3.624086e-005
4.385793e-005,6.638502e-005
2.927205e-005,1.096565e-004
2.538249e-005,1.558451e-004
3.056858e-005,1.937684e-004
4.207521e-005,2.205092e-004
5.455425e-005,2.373639e-004
6.881599e-005,2.475741e-004
9.393612e-005,2.572980e-004
1.393144e-004,2.699391e-004
2.065715e-004,2.819319e-004
2.877662e-004,2.918179e-004
3.626405e-004,2.983005e-004
4.081808e-004,2.991108e-004
4.112601e-004,2.939248e-004
3.746333e-004,2.858215e-004
3.122381e-004,2.790148e-004
2.331503e-004,2.757735e-004
1.451488e-004,2.738286e-004
5.649903e-005,2.710735e-004
-2.826114e-005,2.668598e-004
-1.044318e-004,2.634565e-004
-1.603444e-004,2.598910e-004
-1.904885e-004,2.576221e-004
-2.042641e-004,2.564877e-004
-2.193361e-004,2.524360e-004
-2.433218e-004,2.407673e-004
-2.699005e-004,2.206712e-004
-2.817312e-004,1.936063e-004
-2.669833e-004,1.607070e-004
-2.263049e-004,1.287802e-004
-1.666649e-004,1.030118e-004
-9.503204e-005,8.259155e-005
-1.886135e-005,6.217132e-005
5.649903e-005,4.126489e-005
1.349386e-004,2.149292e-005
2.243987e-004,5.934648e-006
3.274723e-004,-2.654814e-006
4.321665e-004,-5.896120e-006
5.203301e-004,-8.975362e-006
5.814288e-004,-2.080613e-005
6.093040e-004,-4.365734e-005
6.062248e-004,-7.347736e-005
5.895320e-004,-1.068628e-004
5.721910e-004,-1.381414e-004
5.488536e-004,-1.622891e-004
5.025029e-004,-1.768750e-004
4.324906e-004,-1.823853e-004
3.720403e-004,-1.818991e-004
3.676645e-004,-1.788198e-004
4.383250e-004,-1.752544e-004
5.559844e-004,-1.733096e-004
6.815852e-004,-1.713648e-004
7.914656e-004,-1.682856e-004
8.760638e-004,-1.642339e-004
9.118802e-004,-1.596961e-004
8.553194e-004,-1.553203e-004
6.699165e-004,-1.546721e-004
3.534027e-004,-1.533756e-004
-6.132246e-005,-1.494860e-004
-5.110537e-004,-1.459206e-004
-9.338820e-004,-1.442999e-004
-1.277460e-003,-1.408965e-004
-1.506297e-003,-1.310105e-004
-1.611963e-003,-1.149661e-004
-1.614070e-003,-9.341139e-005
-1.553458e-003,-7.153257e-005
-1.485228e-003,-5.127441e-005
-1.455084e-003,-3.377136e-005
-1.471290e-003,-1.610624e-005
-1.515697e-003,7.555301e-006
-1.565613e-003,3.235129e-005
-1.610343e-003,5.163707e-005
-1.637246e-003,6.670914e-005
-1.607263e-003,7.772959e-005
-1.464322e-003,8.567078e-005
-1.177628e-003,9.215340e-005
-7.690616e-004,9.993253e-005
-3.057169e-004,1.067393e-004
1.310491e-004,1.111150e-004
4.738173e-004,1.169494e-004
6.955228e-004,1.305629e-004
8.096169e-004,1.540623e-004
8.532125e-004,1.817755e-004
8.567779e-004,2.059233e-004
8.425161e-004,2.184023e-004
8.180443e-004,2.174299e-004
7.874139e-004,2.088404e-004
7.559733e-004,2.023578e-004
7.337703e-004,1.986303e-004
7.292324e-004,1.955511e-004
7.376599e-004,1.905271e-004
7.446287e-004,1.822617e-004
7.347427e-004,1.739964e-004
7.039502e-004,1.658931e-004
6.653786e-004,1.613553e-004
6.415551e-004,1.629760e-004
6.444722e-004,1.704310e-004
6.676476e-004,1.820997e-004
6.973055e-004,1.937684e-004
7.183740e-004,1.997648e-004
7.209671e-004,1.924718e-004
7.052467e-004,1.736723e-004
6.760749e-004,1.488763e-004
6.386379e-004,1.239182e-004
5.965008e-004,1.025256e-004
5.475571e-004,8.680524e-005
4.846757e-004,7.384002e-005
4.007258e-004,6.136099e-005
2.950592e-004,4.547859e-005
1.759412e-004,2.538249e-005
5.504044e-005,1.002961e-007
-5.824322e-005,-2.566809e-005
-1.580754e-004,-4.138842e-005
-2.397564e-004,-4.430560e-005
-3.002067e-004,-4.009191e-005
-3.353749e-004,-3.798505e-005
-3.399127e-004,-4.527799e-005
-3.066893e-004,-6.456377e-005
-2.318152e-004,-8.919769e-005
-1.177212e-004,-1.131834e-004
2.392390e-005,-1.323071e-004
1.699448e-004,-1.477033e-004
3.002453e-004,-1.611547e-004
4.010500e-004,-1.731475e-004
4.640934e-004,-1.812508e-004
4.866205e-004,-1.846542e-004
4.652279e-004,-1.840059e-004
4.067223e-004,-1.810887e-004
3.198552e-004,-1.778474e-004
2.232643e-004,-1.754164e-004
1.346145e-004,-1.763888e-004
7.043665e-005,-1.801163e-004
3.445814e-005,-1.797922e-004
2.052053e-005,-1.728234e-004
1.695509e-005,-1.648822e-004
1.014835e-005,-1.608306e-004
-3.789272e-006,-1.624512e-004
-2.518189e-005,-1.666649e-004
-4.673658e-005,-1.708786e-004
-6.650855e-005,-1.723372e-004
-8.222889e-005,-1.665028e-004
-9.859748e-005,-1.527273e-004
-1.204763e-004,-1.344139e-004
-1.457585e-004,-1.162626e-004
-1.661787e-004,-9.908367e-005
-1.768750e-004,-8.547019e-005
-1.763888e-004,-7.444975e-005
-1.681235e-004,-6.197072e-005
-1.613168e-004,-4.381940e-005
-1.647201e-004,-2.064406e-005
-1.781716e-004,5.772582e-006
-1.935677e-004,3.348575e-005
-2.068571e-004,5.585077e-005
-2.190120e-004,6.978839e-005
-2.332737e-004,8.113296e-005
-2.512630e-004,9.555677e-005
-2.700626e-004,1.133840e-004
-2.896725e-004,1.312112e-004
-3.109030e-004,1.457970e-004
-3.264613e-004,1.573037e-004
-3.241924e-004,1.694586e-004
-2.987481e-004,1.833962e-004
-2.548284e-004,1.934442e-004
-2.042641e-004,1.979821e-004
-1.579134e-004,1.991165e-004
-1.238797e-004,1.978200e-004
-1.024871e-004,1.961994e-004
-8.368748e-005,1.963614e-004
-5.143648e-005,2.023578e-004
3.341602e-006,2.141886e-004
7.481241e-005,2.303951e-004
1.446626e-004,2.443328e-004
1.940925e-004,2.504913e-004
2.081922e-004,2.522740e-004
1.791825e-004,2.524360e-004
1.156529e-004,2.504913e-004
4.418206e-005,2.493568e-004
-1.108221e-005,2.522740e-004
-3.701266e-005,2.585945e-004
-3.539201e-005,2.619979e-004
-1.788895e-005,2.564877e-004
5.864920e-007,2.446569e-004
4.151929e-006,2.307193e-004
-1.124428e-005,2.161334e-004
-3.571614e-005,1.996027e-004
-5.565017e-005,1.814514e-004
-5.759496e-005,1.628139e-004
-3.036798e-005,1.414213e-004
2.667901e-005,1.188942e-004
1.072255e-004,9.717743e-005
1.976579e-004,7.821578e-005
2.744769e-004,6.152305e-005
3.172622e-004,4.564065e-005
3.101313e-004,3.121684e-005
2.513016e-004,1.841368e-005
1.645966e-004,5.934648e-006
8.421220e-005,-7.192643e-006
3.429608e-005,-2.226472e-005
2.035846e-005,-3.733679e-005
3.656499e-005,-5.273300e-005
6.816773e-005,-6.910160e-005
1.013911e-004,-9.098041e-005
1.321835e-004,-1.173971e-004
1.629760e-004,-1.397621e-004
1.924718e-004,-1.514308e-004
2.125679e-004,-1.541859e-004
2.049509e-004,-1.530514e-004
1.440143e-004,-1.532135e-004
2.603075e-005,-1.574272e-004
-1.178833e-004,-1.650443e-004
-2.431597e-004,-1.742820e-004
-3.181960e-004,-1.814128e-004
-3.389403e-004,-1.840059e-004
-3.180339e-004,-1.836818e-004
-2.817312e-004,-1.815749e-004
-2.511010e-004,-1.778474e-004
-2.323013e-004,-1.718510e-004
-2.194982e-004,-1.627754e-004
-2.083157e-004,-1.511067e-004
-1.994021e-004,-1.365208e-004
-1.922712e-004,-1.198280e-004
-1.883817e-004,-1.024871e-004
-1.990780e-004,-8.935975e-005
-2.311669e-004,-7.963584e-005
-2.877277e-004,-7.655660e-005
-3.695707e-004,-7.396356e-005
-4.614617e-004,-6.440170e-005
-5.274223e-004,-4.592625e-005
-5.293671e-004,-2.647842e-005
-4.569239e-004,-1.173047e-005
-3.251648e-004,2.207145e-006
-1.723372e-004,1.792748e-005
-3.604027e-005,3.624086e-005
5.341979e-005,5.795762e-005
8.080883e-005,7.918817e-005
6.362991e-005,9.717743e-005
2.894792e-005,1.077117e-004
-9.785688e-006,1.153287e-004
-5.435365e-005,1.222976e-004
-1.081593e-004,1.305629e-004
-1.640719e-004,1.419075e-004
-2.113949e-004,1.539003e-004
-2.311669e-004,1.631380e-004
-2.084778e-004,1.668655e-004
-1.441378e-004,1.678379e-004
-5.662256e-005,1.722137e-004
2.878586e-005,1.811273e-004
9.896015e-005,1.910133e-004
1.496866e-004,1.984683e-004
1.827479e-004,1.999268e-004
1.991165e-004,1.963614e-004
2.036544e-004,1.927960e-004
2.020337e-004,1.929580e-004
1.971717e-004,1.983062e-004
1.961994e-004,2.060853e-004
2.185644e-004,2.151610e-004
2.867939e-004,2.211574e-004
4.062361e-004,2.224539e-004
5.780254e-004,2.190506e-004
7.997309e-004,2.148369e-004
1.045260e-003,2.068957e-004
1.266642e-003,1.934442e-004
1.410718e-003,1.778860e-004
1.440862e-003,1.645966e-004
1.349943e-003,1.540623e-004
1.163730e-003,1.436902e-004
9.321384e-004,1.323456e-004
7.039502e-004,1.187321e-004
5.012064e-004,1.004187e-004
3.174242e-004,7.756752e-005
1.351007e-004,5.131294e-005
-6.926366e-005,2.181705e-005
-3.066893e-004,-1.010982e-005
-5.728005e-004,-4.009191e-005
-8.424772e-004,-6.116039e-005
-1.079579e-003,-6.893953e-005
-1.238079e-003,-6.910160e-005
-1.283133e-003,-6.845333e-005
-1.207448e-003,-7.137051e-005
-1.028690e-003,-8.303922e-005
-7.781372e-004,-1.031353e-004
-5.008436e-004,-1.289037e-004
-2.569353e-004,-1.549962e-004
-1.020008e-004,-1.767130e-004
-6.197072e-005,-1.938919e-004
-1.394379e-004,-2.045882e-004
-3.109030e-004,-2.094502e-004
-5.199672e-004,-2.068571e-004
-7.011562e-004,-1.979435e-004
-7.953162e-004,-1.862748e-004
-7.507482e-004,-1.752544e-004
-5.444391e-004,-1.653684e-004
-2.041020e-004,-1.533756e-004
2.064095e-004,-1.387897e-004
6.125454e-004,-1.276072e-004
9.574206e-004,-1.209625e-004
1.205705e-003,-1.170729e-004
1.340219e-003,-1.172350e-004
1.356102e-003,-1.212866e-004
1.258700e-003,-1.224211e-004
1.064222e-003,-1.135075e-004
7.990826e-004,-9.422172e-005
4.825689e-004,-6.958779e-005
1.344524e-004,-4.608832e-005
-2.075054e-004,-2.615429e-005
-4.873921e-004,-1.075808e-005
-6.667984e-004,3.017472e-006
-7.481552e-004,1.630683e-005
-7.666306e-004,2.765140e-005
-7.737615e-004,3.348575e-005
-8.076332e-004,3.526847e-005
-8.740799e-004,3.559260e-005
-9.496023e-004,3.834771e-005
-9.970875e-004,4.077869e-005
-9.787740e-004,4.288554e-005
-8.760247e-004,4.029250e-005
-6.914323e-004,3.137890e-005
-4.399070e-004,1.954813e-005
-1.536997e-004,1.355172e-005
1.268354e-004,2.149292e-005
3.649094e-004,4.547859e-005
5.370228e-004,7.708133e-005
6.400964e-004,1.072255e-004
6.851507e-004,1.302388e-004
6.913091e-004,1.451488e-004
6.785059e-004,1.517934e-004
6.626236e-004,1.539003e-004
6.558168e-004,1.535762e-004
6.624615e-004,1.524417e-004
6.763991e-004,1.516314e-004
6.864472e-004,1.521176e-004
6.836920e-004,1.535762e-004
6.624615e-004,1.556830e-004
6.334517e-004,1.610312e-004
6.050903e-004,1.746447e-004
5.793219e-004,1.986303e-004
5.537156e-004,2.247229e-004
5.269747e-004,2.406053e-004
5.010443e-004,2.383363e-004
4.775448e-004,2.219677e-004
4.546936e-004,1.986303e-004
4.298976e-004,1.816135e-004
3.991052e-004,1.752929e-004
3.655576e-004,1.761032e-004
3.344411e-004,1.812893e-004
3.062417e-004,1.882582e-004
2.799871e-004,1.929580e-004
2.547049e-004,1.913374e-004
2.359054e-004,1.798307e-004
2.261814e-004,1.571416e-004
2.224539e-004,1.239182e-004
2.158093e-004,8.405014e-005
1.996027e-004,4.483033e-005
1.696206e-004,1.533444e-005
1.294284e-004,9.106227e-007
8.242948e-005,-1.034161e-006
3.656499e-005,3.827799e-006
-2.006553e-006,6.258778e-006
-2.712668e-005,7.485573e-007
-3.571614e-005,-1.788895e-005
-3.069211e-005,-4.835724e-005
-1.659243e-005,-8.417367e-005
2.207145e-006,-1.186936e-004
1.517237e-005,-1.449482e-004
1.776542e-005,-1.613168e-004
8.851824e-006,-1.684476e-004
-1.140634e-005,-1.695821e-004
-3.409549e-005,-1.648822e-004
-5.159854e-005,-1.558065e-004
-6.116039e-005,-1.446240e-004
-6.602235e-005,-1.329553e-004
-7.412562e-005,-1.251762e-004
-8.919769e-005,-1.258245e-004
-1.118868e-004,-1.344139e-004
-1.352242e-004,-1.423551e-004
-1.499722e-004,-1.452723e-004
-1.527273e-004,-1.431655e-004
-1.444620e-004,-1.407345e-004
-1.334415e-004,-1.370070e-004
-1.242038e-004,-1.287416e-004
-1.180453e-004,-1.149661e-004
-1.185315e-004,-1.003802e-004
-1.256624e-004,-8.579432e-005
-1.408965e-004,-7.056019e-005
-1.676373e-004,-5.338126e-005
-2.013469e-004,-3.749886e-005
-2.365151e-004,-2.469570e-005
-2.708729e-004,-1.140634e-005
-3.055549e-004,9.106227e-007
-3.387782e-004,1.371378e-005
-3.638984e-004,2.829966e-005
-3.765395e-004,4.628891e-005
-3.784843e-004,6.832980e-005
-3.767015e-004,9.312580e-005
-3.737844e-004,1.164632e-004
-3.700569e-004,1.334801e-004
-3.634122e-004,1.435281e-004
-3.506090e-004,1.483901e-004
-3.319715e-004,1.509831e-004
-3.083100e-004,1.514693e-004
-2.825416e-004,1.561692e-004
-2.507768e-004,1.691344e-004
-2.084778e-004,1.892305e-004
-1.595340e-004,2.073819e-004
-1.078352e-004,2.158093e-004
-5.597430e-005,2.132162e-004
-3.627206e-006,2.062474e-004
4.304761e-005,2.044647e-004
7.675720e-005,2.090025e-004
9.296373e-005,2.135403e-004
9.069481e-005,2.111094e-004
7.270556e-005,1.963614e-004
4.385793e-005,1.725378e-004
1.419998e-005,1.467694e-004
-6.058186e-006,1.250527e-004
-1.999580e-005,1.122495e-004
-3.328516e-005,1.069013e-004
-5.240886e-005,1.078737e-004
-8.239095e-005,1.125736e-004
-1.212866e-004,1.124116e-004
-1.634236e-004,1.033359e-004
-2.036158e-004,8.437427e-005
-2.400805e-004,6.281957e-005
-2.746004e-004,4.547859e-005
-3.222476e-004,3.607880e-005
-3.906392e-004,3.510641e-005
-4.671340e-004,3.883391e-005
-5.181845e-004,3.964424e-005
-5.128364e-004,3.040651e-005
-4.343968e-004,1.031041e-005
-2.848105e-004,-1.805102e-005
-8.206682e-005,-4.754691e-005
1.457970e-004,-6.715681e-005
3.650715e-004,-7.363943e-005
5.470709e-004,-7.509801e-005
6.734819e-004,-7.671866e-005
7.340944e-004,-8.158062e-005
7.295565e-004,-8.514606e-005
6.768853e-004,-8.676672e-005
5.961767e-004,-8.757704e-005
5.065545e-004,-9.017008e-005
4.232529e-004,-9.794922e-005
3.603715e-004,-1.118868e-004
3.172622e-004,-1.310105e-004
2.799871e-004,-1.485136e-004
2.318537e-004,-1.571031e-004
1.621656e-004,-1.551583e-004
7.124698e-005,-1.441378e-004
-3.377136e-005,-1.280934e-004
-1.459206e-004,-1.096179e-004
-2.608248e-004,-9.519411e-005
-3.750809e-004,-8.595638e-005
-4.846370e-004,-8.125649e-005
-5.828486e-004,-7.850138e-005
-6.488092e-004,-7.526008e-005
-6.643674e-004,-7.250496e-005
-6.236890e-004,-7.056019e-005
-5.340669e-004,-7.007399e-005
-4.074939e-004,-7.104638e-005
-2.635799e-004,-7.380149e-005
-1.185315e-004,-7.769106e-005
1.468618e-005,-8.012204e-005
1.242423e-004,-8.028410e-005
2.017096e-004,-7.817725e-005
2.423880e-004,-7.201877e-005
2.514636e-004,-5.759496e-005
2.462775e-004,-3.198864e-005
2.459534e-004,-2.492749e-006
2.611876e-004,2.311357e-005
2.871180e-004,4.142696e-005
3.171001e-004,5.358185e-005
3.431926e-004,6.379197e-005
3.563199e-004,7.562274e-005
3.472443e-004,9.053275e-005
3.133726e-004,1.093323e-004
2.660495e-004,1.279698e-004
2.232643e-004,1.380179e-004
1.986303e-004,1.394765e-004
1.866375e-004,1.360731e-004
1.752929e-004,1.354248e-004
1.563313e-004,1.398006e-004
1.248906e-004,1.508211e-004
8.469840e-005,1.668655e-004
4.142696e-005,1.850168e-004
4.800190e-006,1.997648e-004
-2.064406e-005,2.059233e-004
-3.604027e-005,2.064095e-004
-4.252288e-005,2.085163e-004
-3.620233e-005,2.164575e-004
-1.772689e-005,2.271538e-004
1.193106e-005,2.380122e-004
4.936815e-005,2.446569e-004
8.826383e-005,2.472499e-004
1.145184e-004,2.498430e-004
1.211631e-004,2.506533e-004
1.119254e-004,2.480603e-004
9.393612e-005,2.420638e-004
6.865393e-005,2.363916e-004
3.915804e-005,2.329882e-004
1.031041e-005,2.326641e-004
-1.302700e-005,2.302331e-004
-2.566809e-005,2.200230e-004
-2.372331e-005,1.983062e-004
-8.002969e-006,1.694586e-004
1.014835e-005,1.367214e-004
1.922400e-005,1.034980e-004
1.825161e-005,7.221937e-005
1.501031e-005,4.790957e-005
1.760335e-005,3.154097e-005
3.073064e-005,2.133085e-005
5.358185e-005,1.436204e-005
7.870197e-005,5.286387e-006
9.993253e-005,-1.108221e-005
1.224596e-004,-3.636440e-005
1.623277e-004,-6.423963e-005
2.231022e-004,-9.033215e-005
2.966799e-004,-1.105903e-004
3.772264e-004,-1.255003e-004
4.888894e-004,-1.358725e-004
6.707268e-004,-1.447861e-004
9.253316e-004,-1.551583e-004
1.209432e-003,-1.666649e-004
1.457879e-003,-1.778474e-004
1.619297e-003,-1.898403e-004
1.663541e-003,-1.990780e-004
1.586559e-003,-2.070192e-004
1.409260e-003,-2.147983e-004
1.153358e-003,-2.194982e-004
8.371680e-004,-2.199844e-004
4.757621e-004,-2.185258e-004
7.853991e-005,-2.182017e-004
-3.465574e-004,-2.183637e-004
-7.868888e-004,-2.136638e-004
-1.224303e-003,-2.029675e-004
-1.639839e-003,-1.882196e-004
-2.021503e-003,-1.749302e-004
-2.358599e-003,-1.630995e-004
-2.631517e-003,-1.514308e-004
-2.809465e-003,-1.400862e-004
-2.844471e-003,-1.295519e-004
-2.695209e-003,-1.173971e-004
-2.365081e-003,-1.057284e-004
-1.906274e-003,-9.713889e-005
-1.389286e-003,-8.741498e-005
-8.742420e-004,-7.315322e-005
-4.037664e-004,-5.532604e-005
-1.010982e-005,-3.636440e-005
2.803113e-004,-1.886135e-005
4.577728e-004,-1.520357e-006
5.336195e-004,1.938607e-005
5.375090e-004,3.964424e-005
5.005581e-004,5.585077e-005
4.516144e-004,6.946425e-005
4.130428e-004,8.259155e-005
3.986190e-004,9.636710e-005
4.073705e-004,1.111150e-004
4.237391e-004,1.208390e-004
4.388112e-004,1.229458e-004
4.495075e-004,1.237561e-004
4.611762e-004,1.304008e-004
4.767345e-004,1.477418e-004
4.960203e-004,1.767515e-004
5.135234e-004,2.112714e-004
5.203301e-004,2.443328e-004
5.080132e-004,2.696149e-004
4.764104e-004,2.863077e-004
4.389733e-004,2.958695e-004
4.182289e-004,2.999212e-004
4.303838e-004,3.004074e-004
4.757621e-004,2.984626e-004
5.363746e-004,2.908455e-004
5.922872e-004,2.791768e-004
6.294001e-004,2.657254e-004
6.446343e-004,2.524360e-004
6.417171e-004,2.417397e-004
6.289139e-004,2.357433e-004
6.151384e-004,2.320158e-004
6.031455e-004,2.271538e-004
5.955285e-004,2.232643e-004
5.845079e-004,2.206712e-004
5.639257e-004,2.180782e-004
5.337815e-004,2.133783e-004
4.992616e-004,2.057612e-004
4.572867e-004,1.997648e-004
4.102877e-004,1.927960e-004
3.592371e-004,1.775618e-004
3.057555e-004,1.500107e-004
2.532463e-004,1.133840e-004
2.093267e-004,7.610894e-005
1.791825e-004,4.175109e-005
1.605450e-004,1.290346e-005
1.446626e-004,-1.270286e-005
1.224596e-004,-3.474375e-005
9.215340e-005,-5.370539e-005
6.152305e-005,-6.780507e-005
3.850978e-005,-7.688073e-005
2.376183e-005,-7.979791e-005
1.144487e-005,-8.109443e-005
5.864920e-007,-8.433573e-005
-1.140634e-005,-9.276313e-005
-2.501983e-005,-1.073490e-004
-4.187462e-005,-1.321450e-004
-5.808115e-005,-1.645581e-004
-7.120844e-005,-1.934057e-004
-8.368748e-005,-2.147983e-004
-1.007043e-004,-2.263049e-004
-1.230693e-004,-2.295462e-004
-1.423551e-004,-2.284118e-004
-1.540238e-004,-2.230636e-004
-1.593720e-004,-2.157707e-004
-1.600202e-004,-2.070192e-004
-1.652063e-004,-1.982676e-004
-1.891920e-004,-1.888679e-004
-2.332737e-004,-1.791439e-004
-2.864312e-004,-1.718510e-004
-3.305129e-004,-1.690959e-004
-3.512573e-004,-1.708786e-004
-3.431540e-004,-1.784957e-004
-3.130099e-004,-1.851404e-004
-2.731418e-004,-1.851404e-004
-2.391081e-004,-1.755785e-004
-2.186879e-004,-1.592099e-004
-2.071812e-004,-1.418689e-004
-2.003745e-004,-1.250141e-004
-1.956746e-004,-1.130213e-004
-1.887058e-004,-1.071869e-004
-1.679614e-004,-1.020008e-004
-1.180453e-004,-9.211487e-005
-3.555408e-005,-7.623246e-005
6.200925e-005,-5.305713e-005
1.543865e-004,-2.696461e-005
2.284504e-004,-3.141010e-006
2.738286e-004,1.776542e-005
2.812837e-004,3.932010e-005
2.511395e-004,6.087479e-005
1.897167e-004,8.194328e-005
1.075496e-004,1.023635e-004
1.565857e-005,1.234320e-004
-7.866345e-005,1.420695e-004
-1.640719e-004,1.548727e-004
-2.342462e-004,1.644345e-004
-2.908069e-004,1.759412e-004
-3.347266e-004,1.918236e-004
-3.630881e-004,2.081922e-004
-3.805911e-004,2.248849e-004
-3.963114e-004,2.393087e-004
-4.188385e-004,2.491947e-004
-4.499550e-004,2.556773e-004
-4.890127e-004,2.579462e-004
-5.306636e-004,2.576221e-004
-5.655076e-004,2.535705e-004
-5.823624e-004,2.483844e-004
-5.705316e-004,2.446569e-004
-5.189948e-004,2.417397e-004
-4.214316e-004,2.370398e-004
-2.814071e-004,2.313675e-004
-1.216107e-004,2.273159e-004
2.813760e-005,2.211574e-004
1.430419e-004,2.127300e-004
2.184023e-004,2.044647e-004
2.637806e-004,1.958752e-004
2.893870e-004,1.887444e-004
2.952213e-004,1.835583e-004
2.772320e-004,1.827479e-004
2.360674e-004,1.830721e-004
1.796687e-004,1.788584e-004
1.310491e-004,1.681620e-004
1.064152e-004,1.519555e-004
1.143563e-004,1.321835e-004
1.519555e-004,1.094944e-004
2.088404e-004,8.793970e-005
2.634565e-004,6.881599e-005
2.960316e-004,4.953022e-005
2.948972e-004,2.651694e-005
2.610255e-004,1.558884e-006
2.047888e-004,-1.886135e-005
1.456350e-004,-3.004385e-005
1.028497e-004,-3.604027e-005
8.421220e-005,-4.284701e-005
8.615699e-005,-5.662256e-005
9.490851e-005,-7.995997e-005
9.896015e-005,-1.091317e-004
8.793970e-005,-1.360346e-004
6.038860e-005,-1.558065e-004
2.603075e-005,-1.669890e-004
1.883015e-006,-1.700683e-004
7.231170e-006,-1.673132e-004
5.179914e-005,-1.613168e-004
1.261871e-004,-1.567789e-004
2.070577e-004,-1.556445e-004
2.631324e-004,-1.553203e-004
2.751252e-004,-1.545100e-004
2.459534e-004,-1.496481e-004
1.882582e-004,-1.446240e-004
1.169494e-004,-1.442999e-004
4.288554e-005,-1.465688e-004
-2.631635e-005,-1.473791e-004
-8.595638e-005,-1.447861e-004
-1.316588e-004,-1.368449e-004
-1.614788e-004,-1.251762e-004
-1.783336e-004,-1.104282e-004
-1.877334e-004,-9.211487e-005
-1.922712e-004,-7.169464e-005
-1.898403e-004,-5.451572e-005
-1.796301e-004,-4.236082e-005
-1.666649e-004,-3.441962e-005
-1.494860e-004,-2.890940e-005
-1.326312e-004,-2.096820e-005
-1.182074e-004,-7.516774e-006
-1.050801e-004,9.175954e-006
-8.968389e-005,2.829966e-005
-6.667062e-005,4.434413e-005
-3.604027e-005,5.471631e-005
-1.844488e-006,5.893001e-005
3.769945e-005,5.649903e-005
8.097089e-005,5.001642e-005
1.218114e-004,4.353380e-005
1.496866e-004,3.737532e-005
1.586002e-004,3.413401e-005
1.511452e-004,3.850978e-005
1.321835e-004,5.585077e-005
1.073875e-004,8.113296e-005
8.356394e-005,1.049566e-004
6.687121e-005,1.203528e-004
6.152305e-005,1.304008e-004
6.476436e-005,1.423936e-004
7.529860e-005,1.550348e-004
8.988449e-005,1.645966e-004
1.026876e-004,1.694586e-004
1.099806e-004,1.722137e-004
1.112771e-004,1.780480e-004
1.106288e-004,1.827479e-004
1.093323e-004,1.829100e-004
1.077117e-004,1.820997e-004
1.000946e-004,1.795066e-004
8.372601e-005,1.780480e-004
6.168512e-005,1.757791e-004
3.915804e-005,1.736723e-004
1.971020e-005,1.739964e-004
2.623614e-007,1.793446e-004
-1.545797e-005,1.842065e-004
-2.194059e-005,1.814514e-004
-1.724069e-005,1.722137e-004
-5.409925e-006,1.597346e-004
8.203562e-006,1.472556e-004
2.311357e-005,1.355869e-004
3.494434e-005,1.286181e-004
3.721326e-005,1.234320e-004
3.024445e-005,1.180839e-004
1.857574e-005,1.103047e-004
7.555301e-006,9.944634e-005
4.244267e-007,8.680524e-005
2.855407e-006,7.416415e-005
1.403791e-005,5.974033e-005
3.170304e-005,4.029250e-005
5.941620e-005,1.906194e-005
9.863601e-005,1.002961e-007
1.412592e-004,-1.464765e-005
1.808031e-004,-2.728874e-005
2.143507e-004,-3.879538e-005
2.393087e-004,-5.370539e-005
2.551911e-004,-7.363943e-005
2.607014e-004,-9.697683e-005
2.548670e-004,-1.204763e-004
2.365536e-004,-1.391138e-004
2.145127e-004,-1.520790e-004
2.125679e-004,-1.574272e-004
2.699391e-004,-1.558065e-004
4.122325e-004,-1.520790e-004
6.412309e-004,-1.499722e-004
9.209559e-004,-1.535376e-004
1.190795e-003,-1.606685e-004
1.393377e-003,-1.666649e-004
1.492723e-003,-1.689338e-004
1.482189e-003,-1.684476e-004
1.377171e-003,-1.677994e-004
1.201653e-003,-1.665028e-004
9.741134e-004,-1.608306e-004
7.120535e-004,-1.498101e-004
4.370285e-004,-1.327933e-004
1.746447e-004,-1.110765e-004
-6.893953e-005,-9.114248e-005
-3.120375e-004,-7.444975e-005
-5.823624e-004,-6.213279e-005
-9.081136e-004,-5.224680e-005
-1.291074e-003,-3.976777e-005
-1.703206e-003,-2.031993e-005
-2.098646e-003,7.231170e-006
-2.413377e-003,3.850978e-005
-2.584032e-003,6.508849e-005
-2.567015e-003,8.486046e-005
-2.350820e-003,9.944634e-005
-1.952949e-003,1.112771e-004
-1.424454e-003,1.227837e-004
-8.453943e-004,1.329939e-004
-3.021515e-004,1.386662e-004
1.381800e-004,1.391524e-004
4.435111e-004,1.359110e-004
6.167590e-004,1.300767e-004
6.775336e-004,1.274836e-004
6.556547e-004,1.334801e-004
5.830494e-004,1.462832e-004
4.901859e-004,1.594105e-004
3.944053e-004,1.684862e-004
2.961937e-004,1.704310e-004
1.919856e-004,1.688103e-004
7.529860e-005,1.663793e-004
-6.197072e-005,1.645966e-004
-2.100984e-004,1.618415e-004
-3.475298e-004,1.571416e-004
-4.564377e-004,1.524417e-004
-5.253154e-004,1.493625e-004
-5.525423e-004,1.485521e-004
-5.514079e-004,1.519555e-004
-5.347152e-004,1.589243e-004
-4.925782e-004,1.626518e-004
-3.938804e-004,1.587623e-004
-2.214430e-004,1.479039e-004
1.290346e-005,1.352628e-004
2.743149e-004,1.218114e-004
5.110924e-004,1.119254e-004
6.828817e-004,1.043083e-004
7.776900e-004,9.944634e-005
8.088066e-004,9.620504e-005
7.948689e-004,9.377406e-005
7.522457e-004,8.988449e-005
6.984400e-004,8.016057e-005
6.493342e-004,6.362991e-005
6.104385e-004,4.207521e-005
5.773771e-004,1.614476e-005
5.431813e-004,-1.140634e-005
5.003960e-004,-3.539201e-005
4.564763e-004,-5.467778e-005
4.187151e-004,-6.845333e-005
3.893813e-004,-7.866345e-005
3.649094e-004,-8.547019e-005
3.444891e-004,-8.854943e-005
3.242310e-004,-8.935975e-005
3.010556e-004,-9.130454e-005
2.777182e-004,-9.535618e-005
2.603772e-004,-1.020008e-004
2.425500e-004,-1.115627e-004
2.149989e-004,-1.230693e-004
1.749688e-004,-1.344139e-004
1.248906e-004,-1.412206e-004
7.400208e-005,-1.421931e-004
3.218923e-005,-1.420310e-004
2.623614e-007,-1.452723e-004
-2.599222e-005,-1.532135e-004
-4.236082e-005,-1.600202e-004
-3.863332e-005,-1.588858e-004
-1.967167e-005,-1.483515e-004
-6.058186e-006,-1.323071e-004
-1.221667e-005,-1.190177e-004
-2.518189e-005,-1.157764e-004
-6.868513e-006,-1.237176e-004
7.286763e-005,-1.386276e-004
2.224539e-004,-1.524032e-004
4.307079e-004,-1.585616e-004
6.603546e-004,-1.554824e-004
8.639088e-004,-1.442999e-004
1.006689e-003,-1.282554e-004
1.069732e-003,-1.104282e-004
1.044774e-003,-9.114248e-005
9.288971e-004,-6.991193e-005
7.290703e-004,-4.787104e-005
4.582590e-004,-2.615429e-005
1.440143e-004,-2.330684e-006
-1.825473e-004,2.603075e-005
-4.954954e-004,5.536457e-005
-7.795958e-004,8.388807e-005
-1.028690e-003,1.070634e-004
-1.236458e-003,1.226217e-004
-1.385396e-003,1.342904e-004
-1.443740e-003,1.417454e-004
-1.380210e-003,1.462832e-004
-1.185245e-003,1.487142e-004
-9.034137e-004,1.513072e-004
-6.235270e-004,1.539003e-004
-4.266177e-004,1.602208e-004
-3.446126e-004,1.752929e-004
-3.585502e-004,1.994406e-004
-4.130042e-004,2.265056e-004
-4.455793e-004,2.522740e-004
-4.084663e-004,2.720459e-004
-2.870794e-004,2.842008e-004
-1.042698e-004,2.892249e-004
8.907416e-005,2.874421e-004
2.457913e-004,2.811216e-004
3.405996e-004,2.713977e-004
3.712299e-004,2.577842e-004
3.490270e-004,2.451431e-004
2.963557e-004,2.349330e-004
2.344468e-004,2.294227e-004
1.796687e-004,2.307193e-004
1.410971e-004,2.359054e-004
1.208390e-004,2.370398e-004
1.174356e-004,2.331503e-004
1.265113e-004,2.261814e-004
1.419075e-004,2.206712e-004
1.582761e-004,2.184023e-004
1.726999e-004,2.184023e-004
1.782101e-004,2.154851e-004
1.667035e-004,2.034923e-004
1.375317e-004,1.786963e-004
1.020394e-004,1.480659e-004
7.011252e-005,1.185701e-004
4.790957e-005,8.972242e-005
3.510641e-005,6.119892e-005
2.959619e-005,3.235129e-005
2.781346e-005,9.175954e-006
2.878586e-005,-5.734056e-006
3.510641e-005,-1.416145e-005
5.050261e-005,-1.740276e-005
7.173317e-005,-1.756482e-005
8.810177e-005,-1.918548e-005
9.020862e-005,-2.826114e-005
8.161915e-005,-4.916756e-005
6.962632e-005,-7.542214e-005
6.103686e-005,-1.026491e-004
5.909208e-005,-1.277692e-004
5.925414e-005,-1.464067e-004
5.358185e-005,-1.613168e-004
4.515445e-005,-1.755785e-004
3.964424e-005,-1.914609e-004
4.013043e-005,-2.042641e-004
4.466826e-005,-2.107467e-004
5.082674e-005,-2.118811e-004
5.390598e-005,-2.131776e-004
4.985435e-005,-2.182017e-004
3.688912e-005,-2.224154e-004
2.359977e-005,-2.219292e-004
1.971020e-005,-2.191741e-004
2.441009e-005,-2.160948e-004
3.543054e-005,-2.130156e-004
4.774750e-005,-2.113949e-004
5.390598e-005,-2.112329e-004
4.807163e-005,-2.081536e-004
3.332369e-005,-1.997262e-004
1.452411e-005,-1.851404e-004
-4.275467e-006,-1.723372e-004
-1.934754e-005,-1.650443e-004
-2.129233e-005,-1.592099e-004
7.485573e-007,-1.506204e-004
5.147500e-005,-1.360346e-004
1.263492e-004,-1.167488e-004
2.085163e-004,-9.405965e-005
2.743149e-004,-6.683268e-005
3.089969e-004,-3.847125e-005
3.127243e-004,-8.327101e-006
2.901973e-004,2.149292e-005
2.396328e-004,4.969229e-005
1.610312e-004,7.594687e-005
6.152305e-005,9.896015e-005
-4.738484e-005,1.167873e-004
-1.569410e-004,1.278078e-004
-2.606628e-004,1.302388e-004
-3.506090e-004,1.271595e-004
-4.219178e-004,1.269974e-004
-4.732924e-004,1.341283e-004
-5.057055e-004,1.475797e-004
-5.191569e-004,1.665414e-004
-5.115399e-004,1.882582e-004
-4.865818e-004,2.094887e-004
-4.446069e-004,2.290986e-004
-3.873979e-004,2.466017e-004
-3.209511e-004,2.587566e-004
-2.470493e-004,2.621599e-004
-1.656925e-004,2.569738e-004
-8.465986e-005,2.464396e-004
-9.137427e-006,2.350950e-004
6.525056e-005,2.224539e-004
1.412592e-004,2.099749e-004
2.166196e-004,1.986303e-004
2.861456e-004,1.924718e-004
3.375204e-004,1.895547e-004
3.637749e-004,1.882582e-004
3.589129e-004,1.885823e-004
3.268240e-004,1.906891e-004
2.842008e-004,1.947408e-004
2.509774e-004,1.987924e-004
2.367157e-004,1.966855e-004
2.375260e-004,1.838824e-004
2.419018e-004,1.650828e-004
2.419018e-004,1.493625e-004
2.310434e-004,1.396385e-004
2.070577e-004,1.320215e-004
1.783722e-004,1.213252e-004
1.540623e-004,1.033359e-004
1.376938e-004,8.340187e-005
1.291043e-004,6.233338e-005
1.304008e-004,4.158902e-005
1.436902e-004,2.522042e-005
1.628139e-004,1.468618e-005
1.790204e-004,7.231170e-006
1.788584e-004,-6.176923e-008
1.534141e-004,-1.140634e-005
1.033359e-004,-2.339918e-005
3.510641e-005,-3.587821e-005
-4.106429e-005,-5.111234e-005
-1.109144e-004,-7.234290e-005
-1.587237e-004,-9.584238e-005
-1.762268e-004,-1.185315e-004
-1.682856e-004,-1.400862e-004
-1.473791e-004,-1.583996e-004
-1.170729e-004,-1.713648e-004
-7.526008e-005,-1.771992e-004
-2.599222e-005,-1.771992e-004
1.922400e-005,-1.747682e-004
4.774750e-005,-1.749302e-004
5.293359e-005,-1.807646e-004
4.175109e-005,-1.903264e-004
2.603075e-005,-1.990780e-004
1.160693e-005,-2.029675e-004
1.396819e-006,-2.006986e-004
-3.141010e-006,-1.961608e-004
-6.176923e-008,-1.925954e-004
7.069105e-006,-1.909747e-004
1.857574e-005,-1.908126e-004
3.980630e-005,-1.888679e-004
8.145709e-005,-1.814128e-004
1.564933e-004,-1.682856e-004
2.613496e-004,-1.494860e-004
3.738230e-004,-1.280934e-004
4.670106e-004,-1.071869e-004
5.258403e-004,-8.790117e-005
5.412365e-004,-7.137051e-005
5.123889e-004,-5.111234e-005
4.543695e-004,-2.096820e-005
3.905157e-004,1.663096e-005
3.404375e-004,5.212327e-005
3.234207e-004,7.740546e-005
3.410858e-004,8.858796e-005
3.678266e-004,8.826383e-005
3.606957e-004,8.550872e-005
2.903593e-004,8.712937e-005
1.517934e-004,9.393612e-005
-4.446767e-005,1.023635e-004
-2.757348e-004,1.103047e-004
-5.227224e-004,1.185701e-004
-7.700340e-004,1.331559e-004
-9.833119e-004,1.574657e-004
-1.117016e-003,1.861513e-004
-1.144729e-003,2.096508e-004
-1.080551e-003,2.234263e-004
-9.709949e-004,2.274780e-004
-8.692179e-004,2.279642e-004
-8.113607e-004,2.300710e-004
-8.056884e-004,2.350950e-004
-8.275671e-004,2.409294e-004
-8.293499e-004,2.420638e-004
-7.776510e-004,2.381743e-004
-6.693914e-004,2.315296e-004
-5.152673e-004,2.258573e-004
-3.298647e-004,2.243987e-004
-1.300382e-004,2.253711e-004
6.557468e-005,2.253711e-004
2.355812e-004,2.227781e-004
3.642611e-004,2.195368e-004
4.462662e-004,2.156472e-004
4.871067e-004,2.119197e-004
4.981271e-004,2.052750e-004
4.859722e-004,1.926339e-004
4.616624e-004,1.736723e-004
4.392974e-004,1.503349e-004
4.295735e-004,1.248906e-004
4.303838e-004,1.015532e-004
4.326527e-004,8.340187e-005
4.336251e-004,7.043665e-005
4.328148e-004,5.876794e-005
4.316803e-004,4.531652e-005
4.289252e-004,3.089271e-005
4.209840e-004,1.582063e-005
4.054258e-004,-2.816880e-006
3.848434e-004,-2.339918e-005
3.632887e-004,-4.333321e-005
3.529166e-004,-5.791909e-005
3.608578e-004,-6.618442e-005
3.866261e-004,-7.088431e-005
4.208219e-004,-7.963584e-005
4.532350e-004,-9.794922e-005
4.765725e-004,-1.251762e-004
4.858102e-004,-1.551583e-004
4.751139e-004,-1.822232e-004
4.418904e-004,-2.002124e-004
3.869503e-004,-2.066950e-004
3.127243e-004,-2.008607e-004
2.294227e-004,-1.874093e-004
1.493625e-004,-1.739578e-004
8.437427e-005,-1.613168e-004
4.547859e-005,-1.491618e-004
5.066468e-005,-1.413827e-004
1.235941e-004,-1.366828e-004
2.919800e-004,-1.361966e-004
5.542018e-004,-1.408965e-004
8.647192e-004,-1.493239e-004
1.148172e-003,-1.577513e-004
1.333089e-003,-1.624512e-004
1.386894e-003,-1.603444e-004
1.312020e-003,-1.501342e-004
1.127265e-003,-1.363587e-004
8.635847e-004,-1.199901e-004
5.546879e-004,-1.044318e-004
2.266676e-004,-9.454585e-005
-9.324933e-005,-9.422172e-005
-3.846427e-004,-9.859748e-005
-6.343853e-004,-9.762509e-005
-8.342119e-004,-8.287715e-005
-9.833119e-004,-5.095028e-005
-1.104375e-003,-8.651231e-006
-1.234837e-003,3.202716e-005
-1.404520e-003,6.589881e-005
-1.618284e-003,9.458438e-005
-1.850686e-003,1.180839e-004
-2.043220e-003,1.360731e-004
-2.128952e-003,1.479039e-004
-2.064774e-003,1.547106e-004
-1.846148e-003,1.560072e-004
-1.504514e-003,1.517934e-004
-1.094327e-003,1.441764e-004
-6.849497e-004,1.435281e-004
-3.425058e-004,1.556830e-004
-1.036215e-004,1.777239e-004
3.202716e-005,2.049509e-004
9.134307e-005,2.278021e-004
1.120874e-004,2.386605e-004
1.255389e-004,2.384984e-004
1.464453e-004,2.378501e-004
1.820997e-004,2.446569e-004
2.219677e-004,2.540567e-004
2.511395e-004,2.581083e-004
2.649151e-004,2.542187e-004
2.699391e-004,2.440086e-004
2.807975e-004,2.352571e-004
3.075383e-004,2.329882e-004
3.441650e-004,2.328261e-004
3.840331e-004,2.290986e-004
4.120704e-004,2.179161e-004
4.229288e-004,2.015475e-004
4.269804e-004,1.880961e-004
4.462662e-004,1.775618e-004
4.955341e-004,1.680000e-004
5.679773e-004,1.566554e-004
6.417171e-004,1.445005e-004
6.911471e-004,1.342904e-004
7.000606e-004,1.232699e-004
6.545202e-004,1.073875e-004
5.428572e-004,8.939829e-005
3.801436e-004,7.351589e-005
2.145127e-004,5.747142e-005
1.010670e-004,4.142696e-005
7.400208e-005,2.359977e-005
1.304008e-004,5.286387e-006
2.308813e-004,-1.189254e-005
3.240689e-004,-2.842320e-005
3.728506e-004,-4.171256e-005
3.673404e-004,-4.657452e-005
3.179104e-004,-4.300908e-005
2.503292e-004,-3.441962e-005
1.908512e-004,-3.053005e-005
1.459591e-004,-3.474375e-005
1.078737e-004,-4.738484e-005
6.735741e-005,-6.812920e-005
2.035846e-005,-9.260107e-005
-2.096820e-005,-1.141558e-004
-3.555408e-005,-1.292278e-004
-1.189254e-005,-1.426792e-004
4.661304e-005,-1.551583e-004
1.265113e-004,-1.674752e-004
2.146748e-004,-1.776853e-004
2.947351e-004,-1.862748e-004
3.491891e-004,-1.927574e-004
3.678266e-004,-1.971332e-004
3.472443e-004,-2.003745e-004
2.936006e-004,-2.052365e-004
2.205092e-004,-2.131776e-004
1.417454e-004,-2.259808e-004
6.346784e-005,-2.423494e-004
-7.678839e-006,-2.580697e-004
-6.715681e-005,-2.679557e-004
-1.107524e-004,-2.677937e-004
-1.370070e-004,-2.559629e-004
-1.483515e-004,-2.324634e-004
-1.512687e-004,-2.050744e-004
-1.491618e-004,-1.780095e-004
-1.455964e-004,-1.517549e-004
-1.426792e-004,-1.289037e-004
-1.389517e-004,-1.096179e-004
-1.298761e-004,-8.968389e-005
-1.164247e-004,-6.926366e-005
-1.055663e-004,-5.127441e-005
-1.024871e-004,-3.036798e-005
-1.032974e-004,-6.706447e-006
-1.003802e-004,1.582063e-005
-8.384954e-005,3.105477e-005
-4.738484e-005,3.607880e-005
2.531276e-006,3.316162e-005
5.390598e-005,3.105477e-005
9.328786e-005,3.721326e-005
1.096565e-004,5.309566e-005
1.041462e-004,7.432621e-005
7.983644e-005,1.022015e-004
3.818565e-005,1.393144e-004
-1.659243e-005,1.801549e-004
-7.769106e-005,2.179161e-004
-1.402483e-004,2.487085e-004
-1.979435e-004,2.710735e-004
-2.478596e-004,2.842008e-004
-2.885380e-004,2.903593e-004
-3.215994e-004,2.929524e-004
-3.459091e-004,2.953834e-004
-3.489884e-004,2.945730e-004
-3.079858e-004,2.914938e-004
-2.133397e-004,2.897111e-004
-7.963584e-005,2.908455e-004
5.617490e-005,2.911697e-004
1.574657e-004,2.867939e-004
2.012234e-004,2.728562e-004
1.853410e-004,2.560015e-004
1.305629e-004,2.446569e-004
6.103686e-005,2.415777e-004
-6.706447e-006,2.433604e-004
-6.537409e-005,2.469258e-004
-1.123730e-004,2.453052e-004
-1.468929e-004,2.339606e-004
-1.723372e-004,2.107852e-004
-1.865989e-004,1.803169e-004
-1.932436e-004,1.475797e-004
-2.057227e-004,1.133840e-004
-2.413770e-004,8.048470e-005
-3.039342e-004,5.163707e-005
-3.838324e-004,2.797553e-005
-4.434724e-004,8.365628e-006
-4.326141e-004,-5.085794e-006
-3.233821e-004,-1.156841e-005
-1.396000e-004,-1.464765e-005
5.082674e-005,-1.837515e-005
1.819376e-004,-2.129233e-005
2.252090e-004,-1.950961e-005
1.856651e-004,-1.416145e-005
8.064677e-005,-1.270286e-005
-8.141856e-005,-2.534396e-005
-2.911311e-004,-4.997789e-005
-5.087847e-004,-7.704279e-005
-6.575607e-004,-9.762509e-005
-6.567503e-004,-1.081593e-004
-4.679443e-004,-1.112386e-004
-1.253383e-004,-1.089697e-004
2.901973e-004,-1.071869e-004
6.859610e-004,-1.114006e-004
9.932371e-004,-1.235555e-004
1.177344e-003,-1.400862e-004
1.235363e-003,-1.564548e-004
1.188040e-003,-1.674752e-004
1.067787e-003,-1.695821e-004
9.031286e-004,-1.627754e-004
7.186982e-004,-1.506204e-004
5.305402e-004,-1.399241e-004
3.496752e-004,-1.349001e-004
1.759412e-004,-1.352242e-004
2.855407e-006,-1.389517e-004
-1.747682e-004,-1.425172e-004
-3.658432e-004,-1.408965e-004
-5.706937e-004,-1.368449e-004
-7.800820e-004,-1.282554e-004
-9.847705e-004,-1.149661e-004
-1.169687e-003,-9.778715e-005
-1.320894e-003,-7.785312e-005
-1.424130e-003,-5.581224e-005
-1.463187e-003,-3.166451e-005
-1.424454e-003,-8.975362e-006
-1.298043e-003,1.549650e-005
-1.093678e-003,4.191315e-005
-8.419910e-004,6.719535e-005
-5.797693e-004,8.761557e-005
-3.374817e-004,1.033359e-004
-1.329553e-004,1.158149e-004
2.992031e-005,1.318594e-004
1.582761e-004,1.501728e-004
2.644289e-004,1.673517e-004
3.608578e-004,1.843686e-004
4.543695e-004,2.025199e-004
5.449640e-004,2.166196e-004
6.272933e-004,2.247229e-004
6.937401e-004,2.265056e-004
7.384702e-004,2.222919e-004
7.621317e-004,2.128921e-004
7.673178e-004,2.033302e-004
7.592146e-004,2.002510e-004
7.457631e-004,2.030061e-004
7.329599e-004,2.038164e-004
7.198326e-004,1.989545e-004
6.998986e-004,1.884202e-004
6.671614e-004,1.722137e-004
6.227554e-004,1.550348e-004
5.723531e-004,1.388282e-004
5.232473e-004,1.292664e-004
4.830550e-004,1.273216e-004
4.579349e-004,1.307250e-004
4.486972e-004,1.360731e-004
4.503179e-004,1.420695e-004
4.535592e-004,1.432040e-004
4.444835e-004,1.357490e-004
4.174185e-004,1.190562e-004
3.790091e-004,9.426025e-005
3.373583e-004,6.687121e-005
2.989488e-004,4.272347e-005
2.717218e-004,2.586868e-005
2.720459e-004,1.484824e-005
3.299033e-004,6.582909e-006
4.595556e-004,-2.816880e-006
6.334517e-004,-1.237873e-005
7.976240e-004,-2.064406e-005
9.031286e-004,-2.826114e-005
9.292212e-004,-3.992984e-005
8.827084e-004,-5.694670e-005
7.851450e-004,-7.607040e-005
6.665131e-004,-9.146661e-005
5.465847e-004,-9.989401e-005
4.316803e-004,-1.011905e-004
3.185587e-004,-1.016767e-004
1.986303e-004,-1.039456e-004
6.995045e-005,-1.092938e-004
-6.180866e-005,-1.156143e-004
-1.945401e-004,-1.204763e-004
-3.400748e-004,-1.229073e-004
-5.173742e-004,-1.235555e-004
-7.266005e-004,-1.267968e-004
-9.483058e-004,-1.334415e-004
-1.139867e-003,-1.418689e-004
-1.240672e-003,-1.506204e-004
-1.209717e-003,-1.595340e-004
-1.042304e-003,-1.645581e-004
-7.808923e-004,-1.637477e-004
-4.839888e-004,-1.564548e-004
-2.144742e-004,-1.447861e-004
-1.108221e-005,-1.326312e-004
1.148425e-004,-1.248521e-004
1.645966e-004,-1.222590e-004
1.464453e-004,-1.222590e-004
8.745350e-005,-1.245279e-004
2.181705e-005,-1.297140e-004
-3.409549e-005,-1.349001e-004
-8.579432e-005,-1.340898e-004
-1.468929e-004,-1.224211e-004
-2.182017e-004,-1.026491e-004
-2.778417e-004,-7.801519e-005
-2.992343e-004,-5.030202e-005
-2.681178e-004,-1.950961e-005
-1.904885e-004,1.209313e-005
-9.697683e-005,4.369587e-005
-1.497178e-005,7.027458e-005
4.645098e-005,9.199134e-005
9.053275e-005,1.090082e-004
1.226217e-004,1.234320e-004
1.464453e-004,1.331559e-004
1.624898e-004,1.351007e-004
1.675138e-004,1.291043e-004
1.598967e-004,1.206769e-004
1.391524e-004,1.211631e-004
1.057669e-004,1.357490e-004
5.925414e-005,1.633001e-004
4.638125e-006,1.957132e-004
-4.900550e-005,2.201850e-004
-9.616651e-005,2.326641e-004
-1.404103e-004,2.388225e-004
-1.822232e-004,2.449810e-004
-2.190120e-004,2.501671e-004
-2.507768e-004,2.548670e-004
-2.775176e-004,2.590807e-004
-2.951827e-004,2.647530e-004
-2.985861e-004,2.688046e-004
-2.899966e-004,2.709115e-004
-2.733039e-004,2.671840e-004
-2.562870e-004,2.577842e-004
-2.410529e-004,2.474120e-004
-2.250084e-004,2.417397e-004
-2.032917e-004,2.372019e-004
-1.762268e-004,2.295848e-004
-1.462447e-004,2.161334e-004
-1.183694e-004,1.984683e-004
-1.005423e-004,1.822617e-004
-9.665270e-005,1.637863e-004
-1.084835e-004,1.420695e-004
-1.287416e-004,1.177597e-004
-1.488377e-004,9.377406e-005
-1.587237e-004,7.108491e-005
-1.517549e-004,5.034055e-005
-1.290658e-004,3.251336e-005
-9.794922e-005,1.922400e-005
-6.667062e-005,5.286387e-006
-4.155049e-005,-1.156841e-005
-2.858527e-005,-2.939559e-005
-2.777494e-005,-4.641245e-005
-3.393342e-005,-5.921561e-005
-3.733679e-005,-6.877746e-005
-3.198864e-005,-7.785312e-005
-1.999580e-005,-8.725291e-005
-4.437533e-006,-9.778715e-005
9.175954e-006,-1.099421e-004
1.760335e-005,-1.224211e-004
2.359977e-005,-1.363587e-004
3.040651e-005,-1.520790e-004
3.672706e-005,-1.702304e-004
3.802358e-005,-1.895161e-004
3.251336e-005,-2.078295e-004
2.327564e-005,-2.241981e-004
1.484824e-005,-2.337599e-004
1.355172e-005,-2.337599e-004
2.262738e-005,-2.254946e-004
3.640293e-005,-2.126914e-004
4.385793e-005,-1.976194e-004
4.369587e-005,-1.823853e-004
4.094075e-005,-1.702304e-004
4.547859e-005,-1.618029e-004
6.525056e-005,-1.561307e-004
9.814982e-005,-1.527273e-004
1.326697e-004,-1.488377e-004
1.573037e-004,-1.457585e-004
1.697827e-004,-1.408965e-004
1.744826e-004,-1.302002e-004
1.798307e-004,-1.139937e-004
1.833962e-004,-9.324933e-005
1.799928e-004,-7.282909e-005
1.641104e-004,-5.435365e-005
1.355869e-004,-4.074016e-005
1.036600e-004,-3.036798e-005
7.205730e-005,-2.307504e-005
4.466826e-005,-1.626830e-005
3.154097e-005,-6.544382e-006
3.672706e-005,9.013889e-006
5.212327e-005,2.797553e-005
6.541262e-005,4.855783e-005
7.059871e-005,6.978839e-005
6.768154e-005,9.134307e-005
5.633696e-005,1.132219e-004
4.013043e-005,1.316974e-004
2.781346e-005,1.470936e-004
3.056858e-005,1.595726e-004
5.666109e-005,1.736723e-004
1.098185e-004,1.903650e-004
1.885823e-004,2.072198e-004
2.861456e-004,2.222919e-004
4.104497e-004,2.333123e-004
5.678153e-004,2.407673e-004
7.417115e-004,2.428742e-004
8.979426e-004,2.406053e-004
1.004258e-003,2.346088e-004
1.039426e-003,2.274780e-004
1.001178e-003,2.209954e-004
8.958358e-004,2.198609e-004
7.384702e-004,2.250470e-004
5.548500e-004,2.331503e-004
3.725265e-004,2.441707e-004
2.085163e-004,2.566497e-004
6.395404e-005,2.681563e-004
-7.477388e-005,2.778803e-004
-2.292221e-004,2.848491e-004
-4.120317e-004,2.918179e-004
-6.238511e-004,2.937627e-004
-8.575493e-004,2.901973e-004
-1.094813e-003,2.835526e-004
-1.322515e-003,2.752873e-004
-1.526231e-003,2.605393e-004
-1.671765e-003,2.388225e-004
-1.706447e-003,2.127300e-004
-1.588788e-003,1.884202e-004
-1.307929e-003,1.691344e-004
-9.017931e-004,1.517934e-004
-4.447690e-004,1.336421e-004
-2.210265e-005,1.091703e-004
3.015418e-004,7.675720e-005
5.018546e-004,3.575467e-005
5.979594e-004,-8.165035e-006
6.272933e-004,-4.851930e-005
6.264829e-004,-8.271508e-005
6.201624e-004,-1.126972e-004
6.177314e-004,-1.392759e-004
6.122212e-004,-1.613168e-004
5.960147e-004,-1.794681e-004
5.660325e-004,-1.956746e-004
5.245438e-004,-2.144742e-004
4.767345e-004,-2.339220e-004
4.289252e-004,-2.515871e-004
3.825745e-004,-2.650386e-004
3.396272e-004,-2.757348e-004
3.002453e-004,-2.814071e-004
2.662116e-004,-2.783279e-004
2.402811e-004,-2.716832e-004
2.208333e-004,-2.640662e-004
2.051129e-004,-2.566112e-004
1.874478e-004,-2.485079e-004
1.696206e-004,-2.415391e-004
1.589243e-004,-2.363530e-004
1.555210e-004,-2.321393e-004
1.548727e-004,-2.285739e-004
1.530900e-004,-2.251705e-004
1.495245e-004,-2.216050e-004
1.425557e-004,-2.143121e-004
1.305629e-004,-1.998883e-004
1.167873e-004,-1.776853e-004
1.036600e-004,-1.496481e-004
9.053275e-005,-1.204763e-004
7.594687e-005,-9.162867e-005
6.492643e-005,-6.667062e-005
5.568870e-005,-4.851930e-005
4.434413e-005,-3.717473e-005
2.651694e-005,-2.971972e-005
2.369211e-006,-1.999580e-005
-1.950961e-005,-4.275467e-006
-3.198864e-005,1.630683e-005
-3.344723e-005,4.191315e-005
-2.696461e-005,6.978839e-005
-1.999580e-005,9.604298e-005
-1.902341e-005,1.156529e-004
-2.939559e-005,1.268354e-004
-4.900550e-005,1.300767e-004
-7.169464e-005,1.304008e-004
-8.822530e-005,1.302388e-004
-9.098041e-005,1.349386e-004
-6.391550e-005,1.466074e-004
-2.492749e-006,1.657311e-004
8.907416e-005,1.885823e-004
1.984683e-004,2.125679e-004
3.078624e-004,2.350950e-004
4.002396e-004,2.504913e-004
4.652279e-004,2.545429e-004
4.956961e-004,2.482223e-004
4.869446e-004,2.360674e-004
4.354078e-004,2.261814e-004
3.420582e-004,2.221298e-004
2.171058e-004,2.222919e-004
7.805372e-005,2.287745e-004
-5.840528e-005,2.383363e-004
-1.807646e-004,2.427121e-004
-2.859450e-004,2.372019e-004
-3.771877e-004,2.256952e-004
-4.595169e-004,2.148369e-004
-5.411978e-004,2.101370e-004
-6.279027e-004,2.088404e-004
-7.219006e-004,2.096508e-004
-8.259465e-004,2.088404e-004
-9.278856e-004,2.046267e-004
-1.010215e-003,1.986303e-004
-1.040521e-003,1.900409e-004
-9.813671e-004,1.796687e-004
-8.089297e-004,1.692965e-004
-5.373082e-004,1.566554e-004
-2.177155e-004,1.409351e-004
8.323981e-005,1.205148e-004
3.115899e-004,9.798775e-005
4.553419e-004,7.497447e-005
5.439916e-004,5.277153e-005
6.104385e-004,3.089271e-005
6.749405e-004,5.124321e-006
7.344186e-004,-2.388537e-005
7.776900e-004,-4.932962e-005
7.953551e-004,-6.650855e-005
7.819037e-004,-7.347736e-005
7.331221e-004,-7.477388e-005
6.480376e-004,-8.125649e-005
5.272989e-004,-1.003802e-004
3.608578e-004,-1.263107e-004
1.391524e-004,-1.496481e-004
-1.303623e-004,-1.679614e-004
-4.143007e-004,-1.825473e-004
-6.697156e-004,-1.921092e-004
-8.690559e-004,-1.963229e-004
-1.006001e-003,-1.950263e-004
-1.089627e-003,-1.880575e-004
-1.130791e-003,-1.752544e-004
-1.135329e-003,-1.608306e-004
-1.090113e-003,-1.464067e-004
-9.731018e-004,-1.366828e-004
-7.667927e-004,-1.340898e-004
-4.822060e-004,-1.384655e-004
-1.660166e-004,-1.472171e-004
1.180839e-004,-1.556445e-004
3.188828e-004,-1.616409e-004
4.140152e-004,-1.637477e-004
4.135290e-004,-1.616409e-004
3.537269e-004,-1.553203e-004
2.825802e-004,-1.431655e-004
2.417397e-004,-1.233935e-004
2.514636e-004,-9.843541e-005
3.064038e-004,-7.234290e-005
3.859779e-004,-4.608832e-005
4.613383e-004,-2.194059e-005
5.029891e-004,-1.520357e-006
4.994237e-004,1.468618e-005
4.563143e-004,3.040651e-005
3.982949e-004,4.758544e-005
3.480546e-004,6.217132e-005
3.143450e-004,7.092284e-005
2.960316e-004,7.416415e-005
2.882525e-004,7.465034e-005
2.793389e-004,7.335383e-005
2.654013e-004,7.578480e-005
2.493568e-004,8.648112e-005
2.370398e-004,1.054428e-004
2.352571e-004,1.331559e-004
2.438466e-004,1.637863e-004
2.564877e-004,1.916615e-004
2.686426e-004,2.138645e-004
2.683184e-004,2.279642e-004
2.433604e-004,2.305572e-004
1.871237e-004,2.226160e-004
1.159770e-004,2.109473e-004
7.059871e-005,2.020337e-004
8.875003e-005,1.989545e-004
1.801549e-004,2.020337e-004
3.286068e-004,2.091646e-004
5.041235e-004,2.127300e-004
6.726716e-004,2.114335e-004
8.104272e-004,2.060853e-004
9.110699e-004,1.996027e-004
9.818925e-004,1.970097e-004
1.037319e-003,1.983062e-004
1.093231e-003,1.986303e-004
1.151737e-003,1.966855e-004
1.193874e-003,1.882582e-004
1.198250e-003,1.720516e-004
1.150603e-003,1.480659e-004
1.041371e-003,1.206769e-004
8.601813e-004,9.377406e-005
5.854804e-004,7.302970e-005
2.135403e-004,5.925414e-005
-2.261429e-004,5.066468e-005
-6.721465e-004,4.564065e-005
-1.055755e-003,4.272347e-005
-1.333211e-003,3.996837e-005
-1.520072e-003,3.624086e-005
-1.660907e-003,3.137890e-005
-1.783104e-003,2.408596e-005
-1.899791e-003,1.387585e-005
-2.019234e-003,3.017472e-006
-2.147913e-003,-7.354709e-006
-2.281456e-003,-1.545797e-005
-2.399277e-003,-1.983374e-005
-2.453569e-003,-2.226472e-005
-2.378695e-003,-2.583016e-005
-2.127818e-003,-3.587821e-005
-1.701910e-003,-5.629844e-005
-1.157532e-003,-8.449780e-005
-5.883588e-004,-1.154523e-004
-7.979791e-005,-1.426792e-004
3.183966e-004,-1.632615e-004
5.956905e-004,-1.781716e-004
7.695867e-004,-1.864369e-004
8.650433e-004,-1.883817e-004
9.075044e-004,-1.872472e-004
9.120423e-004,-1.840059e-004
8.859497e-004,-1.794681e-004
8.355473e-004,-1.703924e-004
7.650489e-004,-1.572651e-004
6.812610e-004,-1.438137e-004
6.005525e-004,-1.345760e-004
5.344298e-004,-1.324691e-004
4.859722e-004,-1.376552e-004
4.480489e-004,-1.491618e-004
4.038051e-004,-1.660166e-004
3.360618e-004,-1.768750e-004
2.339606e-004,-1.750923e-004
1.054428e-004,-1.611547e-004
-2.923353e-005,-1.412206e-004
-1.399241e-004,-1.183694e-004
-1.966470e-004,-9.405965e-005
-1.754164e-004,-6.699475e-005
-7.428769e-005,-3.701266e-005
8.161915e-005,-6.868513e-006
2.483844e-004,1.695509e-005
3.856538e-004,2.894792e-005
4.707381e-004,3.299956e-005
4.987754e-004,3.526847e-005
4.804620e-004,4.126489e-005
4.341113e-004,5.098881e-005
3.827366e-004,6.330578e-005
3.464339e-004,7.481241e-005
3.321722e-004,8.615699e-005
3.320101e-004,9.896015e-005
3.316860e-004,1.166253e-004
3.159656e-004,1.410971e-004
2.858215e-004,1.694586e-004
2.490327e-004,1.971717e-004
2.133783e-004,2.184023e-004
1.903650e-004,2.316917e-004
1.913374e-004,2.378501e-004
2.294227e-004,2.393087e-004
3.112658e-004,2.378501e-004
4.298976e-004,2.344468e-004
5.645740e-004,2.325020e-004
6.995744e-004,2.289366e-004
8.289027e-004,2.200230e-004
9.429968e-004,2.041406e-004
1.040722e-003,1.932822e-004
1.132614e-003,1.927960e-004
1.216887e-003,1.984683e-004
1.261780e-003,2.046267e-004
1.227422e-003,2.088404e-004
1.091935e-003,2.112714e-004
8.541849e-004,2.086784e-004
5.230852e-004,1.992786e-004
1.185701e-004,1.833962e-004
-3.266234e-004,1.671896e-004
-7.739235e-004,1.539003e-004
-1.183463e-003,1.448246e-004
-1.497869e-003,1.373696e-004
-1.659124e-003,1.294284e-004
-1.638542e-003,1.180839e-004
-1.464646e-003,1.075496e-004
-1.208907e-003,9.863601e-005
-9.585159e-004,8.858796e-005
-7.787855e-004,7.659513e-005
-6.907841e-004,6.168512e-005
-6.791154e-004,4.628891e-005
-7.029389e-004,3.121684e-005
-7.001839e-004,1.857574e-005
-6.150996e-004,9.662150e-006
-4.352071e-004,4.313994e-006
-1.893541e-004,-3.141010e-006
7.157111e-005,-1.675450e-005
3.036487e-004,-3.944364e-005
4.746277e-004,-7.056019e-005
5.679773e-004,-1.055663e-004
5.875872e-004,-1.376552e-004
5.516087e-004,-1.624512e-004
4.833792e-004,-1.794681e-004
4.042913e-004,-1.875713e-004
3.305515e-004,-1.895161e-004
2.725321e-004,-1.854645e-004
2.295848e-004,-1.794681e-004
1.983062e-004,-1.776853e-004
1.709172e-004,-1.806025e-004
1.406109e-004,-1.882196e-004
1.101427e-004,-1.984297e-004
9.247754e-005,-2.071812e-004
9.020862e-005,-2.110708e-004
1.005808e-004,-2.104225e-004
1.177597e-004,-2.039399e-004
1.299146e-004,-1.911368e-004
1.323456e-004,-1.697442e-004
1.208390e-004,-1.451102e-004
9.539470e-005,-1.237176e-004
6.217132e-005,-1.094559e-004
3.056858e-005,-1.039456e-004
4.476060e-006,-1.037836e-004
-1.075808e-005,-1.007043e-004
-1.626830e-005,-9.049421e-005
-1.302700e-005,-7.315322e-005
-2.816880e-006,-5.046408e-005
1.095867e-005,-2.258885e-005
1.825161e-005,3.179537e-006
1.501031e-005,1.971020e-005
5.286387e-006,2.732727e-005
-3.858999e-007,3.218923e-005
-1.682422e-006,4.045456e-005
-3.858999e-007,5.131294e-005
4.638125e-006,6.298164e-005
1.582063e-005,7.189524e-005
3.040651e-005,7.789165e-005
4.515445e-005,8.664318e-005
5.601284e-005,1.004187e-004
6.103686e-005,1.232699e-004
5.925414e-005,1.521176e-004
5.163707e-005,1.809652e-004
4.418206e-005,2.041406e-004
4.596478e-005,2.218057e-004
5.536457e-005,2.344468e-004
6.298164e-005,2.420638e-004
6.184718e-005,2.478982e-004
5.050261e-005,2.517878e-004
2.975825e-005,2.517878e-004
-1.844488e-006,2.475741e-004
-4.430560e-005,2.399570e-004
-9.438378e-005,2.292607e-004
-1.418689e-004,2.188885e-004
-1.788198e-004,2.119197e-004
-1.958367e-004,2.124059e-004
-1.895161e-004,2.174299e-004
-1.637477e-004,2.196988e-004
-1.303623e-004,2.143507e-004
-1.021629e-004,2.021958e-004
-8.741498e-005,1.876099e-004
-8.806324e-005,1.762653e-004
-9.065628e-005,1.696206e-004
-8.725291e-005,1.657311e-004
-7.752899e-005,1.586002e-004
-6.278104e-005,1.448246e-004
-4.689865e-005,1.221355e-004
-3.425755e-005,9.215340e-005
-2.615429e-005,5.925414e-005
-2.453363e-005,2.878586e-005
-2.437157e-005,6.096713e-006
-1.918548e-005,-6.706447e-006
-8.327101e-006,-1.335113e-005
2.369211e-006,-1.724069e-005
1.002961e-007,-1.724069e-005
-2.194059e-005,-1.318906e-005
-6.326724e-005,-8.975362e-006
-1.086455e-004,-7.354709e-006
-1.404103e-004,-1.108221e-005
-1.522411e-004,-1.902341e-005
-1.452723e-004,-3.231277e-005
-1.201522e-004,-5.046408e-005
-7.671866e-005,-7.347736e-005
-1.610624e-005,-9.875954e-005
5.228533e-005,-1.214487e-004
1.141943e-004,-1.394379e-004
1.550348e-004,-1.515928e-004
1.641104e-004,-1.595340e-004
1.449867e-004,-1.658546e-004
1.122495e-004,-1.708786e-004
7.983644e-005,-1.720131e-004
4.936815e-005,-1.721751e-004
1.889987e-005,-1.737958e-004
-1.189254e-005,-1.789819e-004
-4.138842e-005,-1.849783e-004
-6.537409e-005,-1.864369e-004
-7.979791e-005,-1.818991e-004
-8.255302e-005,-1.747682e-004
-7.801519e-005,-1.700683e-004
-7.526008e-005,-1.681235e-004
-7.639453e-005,-1.681235e-004
-7.931171e-005,-1.658546e-004
-7.931171e-005,-1.566169e-004
-7.023606e-005,-1.396000e-004
-5.338126e-005,-1.193418e-004
-3.830919e-005,-9.859748e-005
-2.599222e-005,-7.671866e-005
-1.578211e-005,-5.386745e-005
-3.789272e-006,-3.215070e-005
6.258778e-006,-1.059602e-005
8.851824e-006,1.371378e-005
4.800190e-006,3.818565e-005
-5.409925e-006,5.779555e-005
-1.659243e-005,6.800567e-005
-2.031993e-005,6.930219e-005
-1.464765e-005,6.622294e-005
2.207145e-006,6.103686e-005
2.278944e-005,6.038860e-005
3.818565e-005,7.027458e-005
4.110282e-005,9.020862e-005
3.121684e-005,1.166253e-004
1.922400e-005,1.419075e-004
1.144487e-005,1.602208e-004
7.717366e-006,1.689724e-004
4.313994e-006,1.671896e-004
5.934648e-006,1.594105e-004
1.582063e-005,1.537382e-004
3.251336e-005,1.547106e-004
4.531652e-005,1.629760e-004
6.168512e-005,1.738343e-004
9.863601e-005,1.840444e-004
1.665414e-004,1.893926e-004
2.585945e-004,1.880961e-004
3.545372e-004,1.866375e-004
4.331389e-004,1.898788e-004
4.814344e-004,1.994406e-004
4.979651e-004,2.132162e-004
5.010443e-004,2.273159e-004
5.067165e-004,2.378501e-004
5.110924e-004,2.378501e-004
4.971547e-004,2.261814e-004
4.535592e-004,2.075439e-004
3.746333e-004,1.880961e-004
2.571359e-004,1.728619e-004
1.057669e-004,1.594105e-004
-5.775702e-005,1.441764e-004
-1.912988e-004,1.271595e-004
-2.567732e-004,1.090082e-004
-2.434839e-004,8.761557e-005
-1.656925e-004,6.444023e-005
-4.317115e-005,4.191315e-005
1.125736e-004,2.392390e-005
2.893870e-004,1.031041e-005
4.692795e-004,5.864920e-007
6.149763e-004,-6.544382e-006
6.733199e-004,-1.270286e-005
6.070351e-004,-2.242678e-005
4.190393e-004,-3.782299e-005
1.581140e-004,-5.727083e-005
-9.762509e-005,-7.704279e-005
-2.809209e-004,-9.568031e-005
-3.619536e-004,-1.141558e-004
-3.643846e-004,-1.306864e-004
-3.415334e-004,-1.436516e-004
-3.420196e-004,-1.515928e-004
-3.932322e-004,-1.543479e-004
-4.920920e-004,-1.504584e-004
-6.136410e-004,-1.408965e-004
-7.350279e-004,-1.293899e-004
-8.434496e-004,-1.208004e-004
-9.218892e-004,-1.157764e-004
-9.492782e-004,-1.141558e-004
-9.095722e-004,-1.130213e-004
-8.009885e-004,-1.115627e-004
-6.293613e-004,-1.099421e-004
-4.113835e-004,-1.081593e-004
-1.831956e-004,-1.091317e-004
1.663096e-005,-1.135075e-004
1.675138e-004,-1.175591e-004
2.694529e-004,-1.177212e-004
3.337929e-004,-1.123730e-004
3.798194e-004,-9.924574e-005
4.203358e-004,-8.206682e-005
4.540453e-004,-6.261898e-005
4.743035e-004,-3.911951e-005
4.764104e-004,-7.192643e-006
4.615004e-004,3.121684e-005
4.326527e-004,6.784360e-005
3.897054e-004,9.263960e-005
3.339549e-004,1.009049e-004
2.710735e-004,1.002567e-004
2.180782e-004,1.012291e-004
1.908512e-004,1.109530e-004
1.931201e-004,1.276457e-004
2.161334e-004,1.451488e-004
2.448189e-004,1.582761e-004
2.642668e-004,1.618415e-004
2.660495e-004,1.561692e-004
2.530843e-004,1.508211e-004
2.290986e-004,1.566554e-004
1.945787e-004,1.736723e-004
1.558451e-004,1.965235e-004
1.182459e-004,2.179161e-004
8.486046e-005,2.337985e-004
5.779555e-005,2.428742e-004
3.591673e-005,2.475741e-004
1.484824e-005,2.477361e-004
-2.978945e-006,2.419018e-004
-8.165035e-006,2.342847e-004
2.207145e-006,2.289366e-004
2.457216e-005,2.295848e-004
5.098881e-005,2.313675e-004
6.914012e-005,2.300710e-004
7.043665e-005,2.247229e-004
5.957827e-005,2.182402e-004
4.094075e-005,2.130541e-004
2.246531e-005,2.101370e-004
1.047248e-005,2.052750e-004
5.286387e-006,1.953890e-004
4.800190e-006,1.832341e-004
6.258778e-006,1.748067e-004
7.879432e-006,1.694586e-004
6.744974e-006,1.644345e-004
-8.720959e-007,1.511452e-004
-1.513384e-005,1.258630e-004
-3.555408e-005,9.166720e-005
-5.937768e-005,5.844381e-005
-7.752899e-005,3.413401e-005
-8.028410e-005,1.971020e-005
-7.088431e-005,8.689758e-006
-5.808115e-005,-2.978945e-006
-4.965376e-005,-1.788895e-005
-4.333321e-005,-3.814712e-005
-3.814712e-005,-6.035007e-005
-3.409549e-005,-7.995997e-005
-3.085418e-005,-9.422172e-005
-2.356124e-005,-1.041077e-004
-1.351319e-005,-1.144799e-004
-2.492749e-006,-1.313347e-004
1.468618e-005,-1.530514e-004
3.948217e-005,-1.744440e-004
6.314371e-005,-1.938919e-004
8.226741e-005,-2.113949e-004
9.555677e-005,-2.277635e-004
1.054428e-004,-2.425115e-004
1.174356e-004,-2.540181e-004
1.307250e-004,-2.619593e-004
1.435281e-004,-2.671454e-004
1.577899e-004,-2.726556e-004
1.717275e-004,-2.780038e-004
1.833962e-004,-2.771934e-004
1.910133e-004,-2.679557e-004
2.005751e-004,-2.514251e-004
2.075439e-004,-2.284118e-004
2.031682e-004,-2.058847e-004
1.825859e-004,-1.911368e-004
1.425557e-004,-1.857886e-004
8.291568e-005,-1.835197e-004
1.468618e-005,-1.791439e-004
-4.787104e-005,-1.682856e-004
-9.438378e-005,-1.517549e-004
-1.238797e-004,-1.345760e-004
-1.418689e-004,-1.203142e-004
-1.538618e-004,-1.058904e-004
-1.605064e-004,-8.952183e-005
-1.665028e-004,-7.234290e-005
-1.703924e-004,-5.532604e-005
-1.690959e-004,-3.555408e-005
-1.647201e-004,-1.059602e-005
-1.582375e-004,1.436204e-005
-1.554824e-004,3.526847e-005
-1.605064e-004,4.888196e-005
-1.728234e-004,5.406805e-005
-1.841680e-004,5.374392e-005
-1.851404e-004,5.568870e-005
-1.720131e-004,6.184718e-005
-1.489998e-004,7.432621e-005
-1.206384e-004,9.280167e-005
-9.632857e-005,1.156529e-004
-7.752899e-005,1.414213e-004
-6.067420e-005,1.688103e-004
-4.479180e-005,2.007372e-004
-2.664048e-005,2.326641e-004
1.558884e-006,2.585945e-004
5.325772e-005,2.760976e-004
1.310491e-004,2.851732e-004
2.245608e-004,2.876042e-004
3.196932e-004,2.885766e-004
4.073705e-004,2.880904e-004
4.851619e-004,2.861456e-004
5.501501e-004,2.825802e-004
5.953664e-004,2.765838e-004
6.078454e-004,2.671840e-004
5.785116e-004,2.590807e-004
5.062304e-004,2.571359e-004
3.969983e-004,2.590807e-004
2.566497e-004,2.624841e-004
9.344993e-005,2.632944e-004
-8.530812e-005,2.587566e-004
-2.621213e-004,2.454672e-004
-4.230522e-004,2.250470e-004
-5.642111e-004,2.033302e-004
-6.823567e-004,1.829100e-004
-7.658203e-004,1.668655e-004
-7.914266e-004,1.521176e-004
-7.384312e-004,1.349386e-004
-6.014861e-004,1.138702e-004
-3.750809e-004,9.134307e-005
-5.030202e-005,6.865393e-005
3.514580e-004,4.807163e-005
7.647247e-004,3.154097e-005
1.107979e-003,1.857574e-005
1.319799e-003,5.448452e-006
1.377008e-003,-8.813297e-006
1.287062e-003,-2.307504e-005
1.077187e-003,-3.766092e-005
7.807693e-004,-5.013995e-005
4.350837e-004,-6.018800e-005
7.351589e-005,-7.201877e-005
-2.861070e-004,-8.482193e-005
-6.441093e-004,-9.989401e-005
-1.003732e-003,-1.180453e-004
-1.354279e-003,-1.374932e-004
-1.675169e-003,-1.551583e-004
-1.939660e-003,-1.703924e-004
-2.110963e-003,-1.814128e-004
-2.160393e-003,-1.867610e-004
-2.086491e-003,-1.851404e-004
-1.901088e-003,-1.810887e-004
-1.606939e-003,-1.789819e-004
-1.203559e-003,-1.804405e-004
-7.116905e-004,-1.865989e-004
-1.854645e-004,-1.942160e-004
3.034866e-004,-1.987538e-004
6.874196e-004,-1.974573e-004
9.298695e-004,-1.898403e-004
1.036671e-003,-1.804405e-004
1.035374e-003,-1.742820e-004
9.582310e-004,-1.718510e-004
8.353853e-004,-1.676373e-004
6.857989e-004,-1.553203e-004
5.339436e-004,-1.400862e-004
4.104497e-004,-1.230693e-004
3.344411e-004,-1.042698e-004
2.970040e-004,-8.287715e-005
2.636185e-004,-5.710876e-005
1.999268e-004,-2.955766e-005
8.615699e-005,-3.141010e-006
-7.331530e-005,2.019640e-005
-2.566112e-004,3.834771e-005
-4.198109e-004,4.904402e-005
-5.061917e-004,5.471631e-005
-4.775062e-004,6.087479e-005
-3.368335e-004,7.043665e-005
-1.198280e-004,8.194328e-005
1.284560e-004,9.004655e-005
3.592371e-004,9.215340e-005
5.436675e-004,9.263960e-005
6.700786e-004,9.717743e-005
7.379840e-004,1.119254e-004
7.494906e-004,1.368834e-004
7.122156e-004,1.707551e-004
6.295622e-004,2.085163e-004
5.042856e-004,2.420638e-004
3.477304e-004,2.657254e-004
1.707551e-004,2.793389e-004
7.485573e-007,2.854973e-004
-1.255003e-004,2.827423e-004
-1.715269e-004,2.752873e-004
-1.211246e-004,2.681563e-004
1.663096e-005,2.626462e-004
2.090025e-004,2.589186e-004
4.112601e-004,2.543808e-004
5.890459e-004,2.477361e-004
7.196706e-004,2.372019e-004
7.921138e-004,2.245608e-004
8.029722e-004,2.124059e-004
7.640765e-004,2.031682e-004
7.028158e-004,1.971717e-004
6.467411e-004,1.932822e-004
5.984457e-004,1.913374e-004
5.472330e-004,1.910133e-004
4.715484e-004,1.869616e-004
3.676645e-004,1.752929e-004
2.611876e-004,1.564933e-004
1.882582e-004,1.355869e-004
1.680000e-004,1.158149e-004
1.914995e-004,9.652917e-005
2.305572e-004,7.254349e-005
2.543808e-004,4.239934e-005
2.466017e-004,1.484824e-005
2.062474e-004,-4.761664e-006
1.453108e-004,-1.707863e-005
7.578480e-005,-2.809907e-005
5.772582e-006,-3.895745e-005
-6.197072e-005,-4.722278e-005
-1.232314e-004,-5.581224e-005
-1.749302e-004,-6.780507e-005
-2.126914e-004,-8.222889e-005
-2.334358e-004,-9.875954e-005
-2.404046e-004,-1.198280e-004
-2.395943e-004,-1.426792e-004
-2.350565e-004,-1.639098e-004
-2.271153e-004,-1.791439e-004
-2.160948e-004,-1.872472e-004
-2.005366e-004,-1.934057e-004
-1.801163e-004,-2.008607e-004
-1.556445e-004,-2.084778e-004
-1.255003e-004,-2.122053e-004
-9.033215e-005,-2.105846e-004
-6.148453e-005,-2.045882e-004
-4.851930e-005,-1.956746e-004
-5.289507e-005,-1.865989e-004
-7.282909e-005,-1.823853e-004
-1.065387e-004,-1.861127e-004
-1.499722e-004,-1.919471e-004
-1.964849e-004,-1.921092e-004
-2.402425e-004,-1.848162e-004
-2.703867e-004,-1.768750e-004
-2.797865e-004,-1.731475e-004
-2.713591e-004,-1.729855e-004
-2.570974e-004,-1.710407e-004
-2.415391e-004,-1.622891e-004
-2.279256e-004,-1.442999e-004
-2.185258e-004,-1.211246e-004
-2.091260e-004,-9.422172e-005
-1.911368e-004,-6.553616e-005
-1.616409e-004,-3.798505e-005
-1.214487e-004,-1.480971e-005
-7.558420e-005,4.800190e-006
-3.279896e-005,2.603075e-005
3.503668e-006,5.050261e-005
3.559260e-005,7.675720e-005
6.071273e-005,1.025256e-004
7.481241e-005,1.265113e-004
8.161915e-005,1.474177e-004
8.615699e-005,1.592484e-004
8.810177e-005,1.616794e-004
8.453633e-005,1.569795e-004
7.805372e-005,1.551968e-004
7.173317e-005,1.663793e-004
6.768154e-005,1.872858e-004
6.735741e-005,2.099749e-004
7.286763e-005,2.299089e-004
8.486046e-005,2.456293e-004
9.620504e-005,2.579462e-004
9.604298e-005,2.665357e-004
