-6.633950e-004,1.728619e-004
-8.567389e-004,1.623277e-004
-1.082496e-003,1.553589e-004
-1.318787e-003,1.456350e-004
-1.512779e-003,1.315353e-004
-1.587816e-003,1.158149e-004
-1.473235e-003,1.023635e-004
-1.148132e-003,9.442231e-005
-6.645294e-004,9.523264e-005
-1.258245e-004,1.025256e-004
3.632887e-004,1.070634e-004
7.443045e-004,1.022015e-004
1.012361e-003,8.956036e-005
1.175399e-003,7.351589e-005
1.249139e-003,6.184718e-005
1.249463e-003,5.957827e-005
1.197764e-003,6.687121e-005
1.119000e-003,7.967438e-005
1.032295e-003,9.053275e-005
9.428347e-004,9.328786e-005
8.405714e-004,8.550872e-005
7.054088e-004,7.173317e-005
5.065545e-004,6.055066e-005
2.177540e-004,5.974033e-005
-1.549962e-004,7.448828e-005
-5.702075e-004,9.863601e-005
-9.714811e-004,1.213252e-004
-1.300636e-003,1.334801e-004
-1.498680e-003,1.342904e-004
-1.508890e-003,1.300767e-004
-1.292208e-003,1.291043e-004
-8.656525e-004,1.333180e-004
-3.134961e-004,1.406109e-004
2.422259e-004,1.457970e-004
6.898505e-004,1.495245e-004
9.703859e-004,1.550348e-004
1.077997e-003,1.642725e-004
1.048826e-003,1.780480e-004
9.370004e-004,1.892305e-004
7.958413e-004,1.953890e-004
6.579236e-004,1.965235e-004
5.354022e-004,1.944166e-004
4.196875e-004,1.897167e-004
2.864697e-004,1.846927e-004
1.240803e-004,1.835583e-004
-5.257093e-005,1.848548e-004
-2.156086e-004,1.825859e-004
-3.408851e-004,1.767515e-004
-4.168937e-004,1.712413e-004
-4.543308e-004,1.650828e-004
-4.706994e-004,1.584381e-004
-4.788027e-004,1.530900e-004
-4.916058e-004,1.495245e-004
-5.142950e-004,1.435281e-004
-5.293671e-004,1.347766e-004
-5.065158e-004,1.206769e-004
-4.332623e-004,1.022015e-004
-3.045825e-004,8.356394e-005
-1.133454e-004,6.427817e-005
1.684862e-004,4.499239e-005
5.893700e-004,2.538249e-005
1.145903e-003,2.531276e-006
1.749922e-003,-2.566809e-005
2.278419e-003,-5.516398e-005
2.633506e-003,-8.628052e-005
2.776772e-003,-1.167488e-004
2.716321e-003,-1.421931e-004
2.495101e-003,-1.564548e-004
2.186203e-003,-1.601823e-004
1.848296e-003,-1.614788e-004
1.484134e-003,-1.653684e-004
1.052877e-003,-1.750923e-004
5.219508e-004,-1.925954e-004
-9.616651e-005,-2.185258e-004
-7.578791e-004,-2.517492e-004
-1.416675e-003,-2.880518e-004
-2.028633e-003,-3.215994e-004
-2.528119e-003,-3.475298e-004
-2.848847e-003,-3.647087e-004
-2.956945e-003,-3.721637e-004
-2.865054e-003,-3.762153e-004
-2.624873e-003,-3.786463e-004
-2.311276e-003,-3.776739e-004
-2.002055e-003,-3.728119e-004
-1.741454e-003,-3.640605e-004
-1.513590e-003,-3.515814e-004
-1.263847e-003,-3.350507e-004
-9.504127e-004,-3.151167e-004
-5.847933e-004,-2.985861e-004
-2.290601e-004,-2.851347e-004
3.964424e-005,-2.708729e-004
1.707551e-004,-2.519113e-004
1.720516e-004,-2.276015e-004
9.766362e-005,-1.987538e-004
7.879432e-006,-1.684476e-004
-4.317115e-005,-1.392759e-004
-2.615429e-005,-1.135075e-004
5.698522e-005,-9.632857e-005
1.808031e-004,-8.806324e-005
3.117519e-004,-8.336335e-005
4.166082e-004,-7.542214e-005
4.790034e-004,-6.213279e-005
4.952099e-004,-4.171256e-005
4.798138e-004,-1.205460e-005
4.561522e-004,2.424803e-005
4.438352e-004,6.184718e-005
4.521006e-004,9.604298e-005
4.827309e-004,1.261871e-004
5.232473e-004,1.498487e-004
5.491778e-004,1.675138e-004
5.443158e-004,1.817755e-004
5.104441e-004,1.906891e-004
4.642555e-004,1.914995e-004
4.261701e-004,1.864754e-004
4.038051e-004,1.840444e-004
3.931088e-004,1.887444e-004
3.816021e-004,2.031682e-004
3.602095e-004,2.258573e-004
3.334687e-004,2.498430e-004
3.271482e-004,2.710735e-004
3.723644e-004,2.890628e-004
4.790034e-004,3.044590e-004
6.242140e-004,3.138588e-004
7.631041e-004,3.151553e-004
8.605054e-004,3.091589e-004
9.060458e-004,2.991108e-004
9.039390e-004,2.877662e-004
8.608295e-004,2.798251e-004
7.804451e-004,2.782044e-004
6.635960e-004,2.809595e-004
5.164405e-004,2.864697e-004
3.506476e-004,2.889007e-004
1.811273e-004,2.877662e-004
1.630683e-005,2.827423e-004
-1.480274e-004,2.739907e-004
-3.224097e-004,2.623220e-004
-5.081365e-004,2.466017e-004
-6.974287e-004,2.268297e-004
-8.760247e-004,2.033302e-004
-1.011025e-003,1.780480e-004
-1.053972e-003,1.545486e-004
-9.679157e-004,1.349386e-004
-7.637134e-004,1.211631e-004
-4.985746e-004,1.120874e-004
-2.417012e-004,1.041462e-004
-4.252288e-005,9.393612e-005
7.789165e-005,7.724339e-005
1.237561e-004,5.455425e-005
1.150046e-004,2.943412e-005
7.513654e-005,3.017472e-006
2.684107e-005,-2.242678e-005
-1.497178e-005,-4.446767e-005
-4.916756e-005,-5.970181e-005
-7.979791e-005,-7.056019e-005
-1.086455e-004,-8.077030e-005
-1.303623e-004,-9.017008e-005
-1.203142e-004,-9.892161e-005
-4.074016e-005,-1.092938e-004
1.153287e-004,-1.237176e-004
3.264999e-004,-1.425172e-004
5.736496e-004,-1.630995e-004
8.404093e-004,-1.818991e-004
1.096635e-003,-1.940539e-004
1.298082e-003,-1.963229e-004
1.394673e-003,-1.917850e-004
1.350430e-003,-1.859507e-004
1.168592e-003,-1.806025e-004
8.896773e-004,-1.718510e-004
5.695980e-004,-1.622891e-004
2.548670e-004,-1.558065e-004
-2.842320e-005,-1.540238e-004
-2.851347e-004,-1.559686e-004
-5.431426e-004,-1.569410e-004
-8.269189e-004,-1.501342e-004
-1.128198e-003,-1.361966e-004
-1.395768e-003,-1.186936e-004
-1.567233e-003,-1.023250e-004
-1.616177e-003,-9.081835e-005
-1.555727e-003,-8.611845e-005
-1.433853e-003,-8.514606e-005
-1.295936e-003,-8.093236e-005
-1.151212e-003,-7.007399e-005
-9.773155e-004,-5.402952e-005
-7.570688e-004,-3.587821e-005
-4.956574e-004,-1.772689e-005
-2.204706e-004,5.864920e-007
2.684107e-005,1.825161e-005
2.099749e-004,3.494434e-005
3.125623e-004,4.807163e-005
3.420582e-004,5.876794e-005
3.226103e-004,6.768154e-005
2.812837e-004,7.708133e-005
2.431983e-004,8.469840e-005
2.203471e-004,8.793970e-005
2.151610e-004,9.409818e-005
2.226160e-004,1.099806e-004
2.331503e-004,1.341283e-004
2.365536e-004,1.616794e-004
2.292607e-004,1.872858e-004
2.111094e-004,2.081922e-004
1.887444e-004,2.227781e-004
1.709172e-004,2.286124e-004
1.610312e-004,2.290986e-004
1.589243e-004,2.284504e-004
1.616794e-004,2.307193e-004
1.712413e-004,2.323399e-004
1.846927e-004,2.312055e-004
1.937684e-004,2.290986e-004
1.984683e-004,2.287745e-004
2.039785e-004,2.321778e-004
2.060853e-004,2.350950e-004
2.004130e-004,2.346088e-004
1.872858e-004,2.308813e-004
1.710792e-004,2.263435e-004
1.551968e-004,2.218057e-004
1.432040e-004,2.182402e-004
1.360731e-004,2.124059e-004
1.354248e-004,2.038164e-004
1.355869e-004,1.927960e-004
1.281319e-004,1.822617e-004
1.127357e-004,1.722137e-004
9.588091e-005,1.569795e-004
7.837785e-005,1.305629e-004
5.909208e-005,9.831188e-005
3.996837e-005,6.897806e-005
2.392390e-005,4.904402e-005
1.468618e-005,3.705119e-005
1.274139e-005,2.846173e-005
1.760335e-005,1.646890e-005
2.829966e-005,-8.720959e-007
4.531652e-005,-2.275091e-005
6.622294e-005,-4.414354e-005
8.907416e-005,-6.148453e-005
1.107909e-004,-7.299116e-005
1.274836e-004,-8.303922e-005
1.404489e-004,-9.778715e-005
1.472556e-004,-1.185315e-004
1.436902e-004,-1.444620e-004
1.281319e-004,-1.702304e-004
1.047945e-004,-1.903264e-004
7.627100e-005,-2.044261e-004
4.807163e-005,-2.169052e-004
2.732727e-005,-2.314910e-004
2.522042e-005,-2.431597e-004
5.277153e-005,-2.468872e-004
1.119254e-004,-2.399184e-004
1.989545e-004,-2.225774e-004
2.986247e-004,-2.010227e-004
3.893813e-004,-1.793060e-004
4.538833e-004,-1.626133e-004
4.747897e-004,-1.498101e-004
4.480489e-004,-1.400862e-004
3.809539e-004,-1.345760e-004
2.858215e-004,-1.339277e-004
1.720516e-004,-1.360346e-004
5.244739e-005,-1.378173e-004
-5.613637e-005,-1.384655e-004
-1.313347e-004,-1.358725e-004
-1.582375e-004,-1.311726e-004
-1.378173e-004,-1.227452e-004
-8.854943e-005,-1.109144e-004
-3.766092e-005,-9.568031e-005
-9.947754e-006,-7.380149e-005
-1.562004e-005,-4.673658e-005
-5.565017e-005,-1.886135e-005
-1.350622e-004,4.638125e-006
-2.587180e-004,1.906194e-005
-4.178661e-004,2.846173e-005
-5.818762e-004,3.332369e-005
-7.082871e-004,3.543054e-005
-7.651721e-004,3.543054e-005
-7.483172e-004,3.462021e-005
-6.812222e-004,3.283749e-005
-5.987309e-004,3.089271e-005
-5.345531e-004,3.105477e-005
-5.094330e-004,3.964424e-005
-5.298533e-004,5.730935e-005
-5.857658e-004,8.421220e-005
-6.397335e-004,1.172735e-004
-6.488092e-004,1.485521e-004
-5.935449e-004,1.725378e-004
-4.852853e-004,1.908512e-004
-3.514194e-004,2.102990e-004
-2.107467e-004,2.344468e-004
-6.699475e-005,2.613496e-004
7.708133e-005,2.861456e-004
2.196988e-004,3.036487e-004
3.689610e-004,3.107795e-004
5.379952e-004,3.085106e-004
7.251808e-004,3.002453e-004
9.120423e-004,2.927903e-004
1.056767e-003,2.900352e-004
1.116083e-003,2.906835e-004
1.063736e-003,2.932765e-004
9.031286e-004,2.974902e-004
6.642442e-004,2.981384e-004
3.794953e-004,2.897111e-004
6.995045e-005,2.694529e-004
-2.348944e-004,2.420638e-004
-5.010056e-004,2.161334e-004
-7.074767e-004,1.984683e-004
-8.481495e-004,1.837203e-004
-9.124894e-004,1.628139e-004
-8.855865e-004,1.315353e-004
-7.586894e-004,9.231547e-005
-5.410357e-004,5.034055e-005
-2.729798e-004,1.517237e-005
-5.085794e-006,-8.002969e-006
2.169437e-004,-2.226472e-005
3.692851e-004,-3.247483e-005
4.514523e-004,-4.138842e-005
4.822447e-004,-5.257093e-005
4.833792e-004,-6.375344e-005
4.743035e-004,-7.315322e-005
4.627969e-004,-8.222889e-005
4.501558e-004,-9.341139e-005
4.365423e-004,-1.075111e-004
4.193634e-004,-1.243659e-004
3.991052e-004,-1.413827e-004
3.804677e-004,-1.583996e-004
3.722023e-004,-1.757406e-004
3.736609e-004,-1.911368e-004
3.783608e-004,-2.037779e-004
3.822504e-004,-2.109087e-004
3.799815e-004,-2.130156e-004
3.660439e-004,-2.091260e-004
3.433547e-004,-1.969711e-004
3.201794e-004,-1.797922e-004
3.028383e-004,-1.642339e-004
2.851732e-004,-1.543479e-004
2.658874e-004,-1.483515e-004
2.469258e-004,-1.441378e-004
2.292607e-004,-1.391138e-004
2.106232e-004,-1.329553e-004
1.858272e-004,-1.267968e-004
1.534141e-004,-1.240417e-004
1.193804e-004,-1.225832e-004
8.923623e-005,-1.167488e-004
7.221937e-005,-1.050801e-004
7.011252e-005,-9.130454e-005
8.048470e-005,-8.222889e-005
9.766362e-005,-7.979791e-005
1.124116e-004,-7.995997e-005
1.153287e-004,-7.720486e-005
9.928428e-005,-6.667062e-005
6.670914e-005,-4.414354e-005
2.149292e-005,-1.448558e-005
-3.020592e-005,1.857574e-005
-8.239095e-005,5.163707e-005
-1.235555e-004,8.161915e-005
-1.412206e-004,1.036600e-004
-1.295519e-004,1.166253e-004
-9.989401e-005,1.206769e-004
-7.169464e-005,1.221355e-004
-6.067420e-005,1.261871e-004
-6.780507e-005,1.376938e-004
-8.579432e-005,1.608691e-004
-1.010285e-004,1.926339e-004
-1.044318e-004,2.250470e-004
-9.713889e-005,2.470879e-004
-8.725291e-005,2.529222e-004
-7.769106e-005,2.464396e-004
-6.780507e-005,2.372019e-004
-5.581224e-005,2.310434e-004
-4.462973e-005,2.339606e-004
-3.766092e-005,2.464396e-004
-4.041603e-005,2.611876e-004
-5.078821e-005,2.702632e-004
-6.521203e-005,2.715597e-004
-7.444975e-005,2.652392e-004
-7.185670e-005,2.551911e-004
-6.116039e-005,2.462775e-004
-5.273300e-005,2.378501e-004
-4.949169e-005,2.325020e-004
-5.548811e-005,2.282883e-004
-6.974985e-005,2.252090e-004
-8.628052e-005,2.159713e-004
-9.875954e-005,1.984683e-004
-1.020008e-004,1.775618e-004
-9.632857e-005,1.581140e-004
-8.482193e-005,1.462832e-004
-7.007399e-005,1.417454e-004
-5.532604e-005,1.368834e-004
-4.203669e-005,1.252147e-004
-2.615429e-005,1.069013e-004
-7.192643e-006,8.242948e-005
1.322759e-005,5.568870e-005
2.716521e-005,2.959619e-005
2.927205e-005,5.772582e-006
1.727922e-005,-1.643037e-005
-6.706447e-006,-3.604027e-005
-4.090223e-005,-5.030202e-005
-7.380149e-005,-5.759496e-005
-8.968389e-005,-6.229485e-005
-8.141856e-005,-6.796714e-005
-5.694670e-005,-7.785312e-005
-2.615429e-005,-9.260107e-005
3.179537e-006,-1.110765e-004
2.246531e-005,-1.347380e-004
2.797553e-005,-1.613168e-004
1.841368e-005,-1.843300e-004
-5.734056e-006,-2.024813e-004
-3.960571e-005,-2.165810e-004
-7.299116e-005,-2.261429e-004
-1.016767e-004,-2.298704e-004
-1.277692e-004,-2.319772e-004
-1.533756e-004,-2.331117e-004
-1.731475e-004,-2.303566e-004
-1.801163e-004,-2.220912e-004
-1.707166e-004,-2.126914e-004
-1.468929e-004,-2.055606e-004
-1.175591e-004,-2.003745e-004
-9.065628e-005,-1.940539e-004
-7.218083e-005,-1.862748e-004
-5.921561e-005,-1.791439e-004
-4.527799e-005,-1.723372e-004
-2.680255e-005,-1.634236e-004
-4.761664e-006,-1.507825e-004
1.501031e-005,-1.342519e-004
2.457216e-005,-1.167488e-004
2.619281e-005,-9.989401e-005
2.635488e-005,-8.514606e-005
2.408596e-005,-7.169464e-005
1.501031e-005,-5.937768e-005
-2.978945e-006,-4.446767e-005
-2.890940e-005,-2.809907e-005
-5.240886e-005,-1.513384e-005
-6.731888e-005,-1.383732e-005
-7.315322e-005,-2.745081e-005
-6.537409e-005,-5.208474e-005
-3.766092e-005,-7.347736e-005
1.209313e-005,-7.979791e-005
8.097089e-005,-6.423963e-005
1.660552e-004,-3.069211e-005
2.590807e-004,1.403791e-005
3.475684e-004,6.573675e-005
4.266563e-004,1.206769e-004
5.187094e-004,1.714034e-004
6.658648e-004,2.132162e-004
8.844911e-004,2.449810e-004
1.142662e-003,2.670219e-004
1.363557e-003,2.817699e-004
1.462579e-003,2.919800e-004
1.388353e-003,2.995970e-004
1.140393e-003,3.088348e-004
7.707212e-004,3.198552e-004
3.519442e-004,3.299033e-004
-6.845333e-005,3.362238e-004
-4.721580e-004,3.389789e-004
-8.633836e-004,3.428685e-004
-1.234189e-003,3.527545e-004
-1.534982e-003,3.692851e-004
-1.704179e-003,3.875985e-004
-1.716009e-003,4.023465e-004
-1.606939e-003,4.081808e-004
-1.450060e-003,4.026706e-004
-1.311170e-003,3.859779e-004
-1.228841e-003,3.616681e-004
-1.192538e-003,3.308757e-004
-1.143432e-003,2.921420e-004
-1.020425e-003,2.467637e-004
-8.003402e-004,1.991165e-004
-5.129984e-004,1.526038e-004
-2.151224e-004,1.062531e-004
4.353380e-005,5.941620e-005
2.352571e-004,1.436204e-005
3.569682e-004,-2.404744e-005
4.261701e-004,-5.597430e-005
4.650658e-004,-8.093236e-005
4.929411e-004,-9.746302e-005
5.350781e-004,-1.092938e-004
6.127074e-004,-1.186936e-004
7.276118e-004,-1.248521e-004
8.577504e-004,-1.267968e-004
9.807581e-004,-1.246900e-004
1.081563e-003,-1.264727e-004
1.148334e-003,-1.394379e-004
1.170537e-003,-1.652063e-004
1.142824e-003,-1.971332e-004
1.059522e-003,-2.256567e-004
9.220903e-004,-2.460769e-004
7.421977e-004,-2.558008e-004
5.444778e-004,-2.519113e-004
3.581026e-004,-2.389460e-004
1.987924e-004,-2.224154e-004
7.772959e-005,-2.113949e-004
-7.354709e-006,-2.070192e-004
-7.039812e-005,-2.050744e-004
-1.290658e-004,-2.011848e-004
-1.898403e-004,-1.929195e-004
-2.635799e-004,-1.833576e-004
-3.579019e-004,-1.783336e-004
-4.703753e-004,-1.815749e-004
-5.875485e-004,-1.914609e-004
-6.872186e-004,-1.994021e-004
-7.321107e-004,-1.977815e-004
-6.862463e-004,-1.849783e-004
-5.421702e-004,-1.658546e-004
-3.238683e-004,-1.468929e-004
-8.287715e-005,-1.310105e-004
1.237561e-004,-1.154523e-004
2.581083e-004,-9.632857e-005
3.125623e-004,-7.428769e-005
3.033245e-004,-5.370539e-005
2.560015e-004,-3.879538e-005
1.952270e-004,-2.696461e-005
1.342904e-004,-1.092015e-005
7.691926e-005,1.014835e-005
2.068259e-005,3.526847e-005
-2.988179e-005,6.071273e-005
-6.504996e-005,8.291568e-005
-7.380149e-005,1.007429e-004
-5.257093e-005,1.111150e-004
-3.465141e-006,1.140322e-004
7.221937e-005,1.151667e-004
1.757791e-004,1.201907e-004
2.958695e-004,1.362352e-004
4.091532e-004,1.633001e-004
4.950479e-004,1.952270e-004
5.499881e-004,2.242366e-004
5.840218e-004,2.431983e-004
6.167590e-004,2.516257e-004
6.520892e-004,2.519498e-004
6.798024e-004,2.491947e-004
6.807749e-004,2.470879e-004
6.425274e-004,2.525981e-004
5.786736e-004,2.616738e-004
5.214646e-004,2.650771e-004
4.890515e-004,2.600531e-004
4.802999e-004,2.483844e-004
4.830550e-004,2.331503e-004
4.927790e-004,2.205092e-004
5.062304e-004,2.167816e-004
5.073649e-004,2.231022e-004
4.718725e-004,2.360674e-004
3.879227e-004,2.501671e-004
2.772320e-004,2.590807e-004
1.840444e-004,2.585945e-004
1.462832e-004,2.477361e-004
1.715654e-004,2.282883e-004
2.397949e-004,2.028440e-004
3.162898e-004,1.739964e-004
3.530786e-004,1.432040e-004
3.028383e-004,1.116012e-004
1.351007e-004,8.469840e-005
-1.702304e-004,6.670914e-005
-6.189891e-004,5.633696e-005
-1.179087e-003,4.547859e-005
-1.760253e-003,3.137890e-005
-2.254553e-003,1.176900e-005
-2.591001e-003,-1.124428e-005
-2.734915e-003,-3.377136e-005
-2.678030e-003,-4.868137e-005
-2.437525e-003,-5.176061e-005
-2.050188e-003,-4.560212e-005
-1.571933e-003,-3.863332e-005
-1.071313e-003,-4.187462e-005
-6.168823e-004,-5.710876e-005
-2.587180e-004,-8.109443e-005
-8.327101e-006,-1.065387e-004
1.513072e-004,-1.303623e-004
2.511395e-004,-1.502963e-004
3.112658e-004,-1.661787e-004
3.221241e-004,-1.771992e-004
2.662116e-004,-1.865989e-004
1.537382e-004,-1.940539e-004
3.251336e-005,-2.005366e-004
-3.685060e-005,-2.052365e-004
-1.594417e-005,-2.086398e-004
7.935024e-005,-2.105846e-004
2.000889e-004,-2.156086e-004
2.952213e-004,-2.264670e-004
3.367100e-004,-2.382978e-004
3.365480e-004,-2.476975e-004
3.240689e-004,-2.489941e-004
3.216380e-004,-2.399184e-004
3.315239e-004,-2.230636e-004
3.454615e-004,-2.045882e-004
3.559958e-004,-1.859507e-004
3.642611e-004,-1.661787e-004
3.803056e-004,-1.480274e-004
4.119083e-004,-1.300382e-004
4.564763e-004,-1.102662e-004
5.055821e-004,-8.903562e-005
5.470709e-004,-7.039812e-005
5.801322e-004,-5.613637e-005
6.078454e-004,-4.511593e-005
6.321552e-004,-3.587821e-005
6.506307e-004,-2.388537e-005
6.592202e-004,-6.382317e-006
6.601926e-004,1.760335e-005
6.601926e-004,4.531652e-005
6.631098e-004,7.286763e-005
6.689441e-004,9.798775e-005
6.713751e-004,1.208390e-004
6.653786e-004,1.402868e-004
6.434998e-004,1.598967e-004
6.013628e-004,1.809652e-004
5.391297e-004,2.047888e-004
4.665244e-004,2.269918e-004
3.919743e-004,2.414156e-004
3.196932e-004,2.500050e-004
2.508154e-004,2.576221e-004
1.914995e-004,2.670219e-004
1.430419e-004,2.788527e-004
1.004187e-004,2.903593e-004
6.087479e-005,2.999212e-004
2.473423e-005,3.080245e-004
-4.599598e-006,3.115899e-004
-2.469570e-005,3.106175e-004
-3.506788e-005,3.054314e-004
-3.571614e-005,2.979764e-004
-3.198864e-005,2.880904e-004
-2.420950e-005,2.752873e-004
-1.237873e-005,2.650771e-004
1.558884e-006,2.610255e-004
1.614476e-005,2.574601e-004
2.635488e-005,2.459534e-004
2.667901e-005,2.261814e-004
1.533444e-005,2.030061e-004
-5.247859e-006,1.796687e-004
-2.534396e-005,1.581140e-004
-3.506788e-005,1.396385e-004
-3.668853e-005,1.263492e-004
-4.041603e-005,1.164632e-004
-4.997789e-005,1.072255e-004
-6.164659e-005,9.685330e-005
-7.120844e-005,8.550872e-005
-7.607040e-005,7.351589e-005
-7.914964e-005,5.698522e-005
-8.530812e-005,3.737532e-005
-9.535618e-005,1.468618e-005
-1.083214e-004,-9.623623e-006
-1.229073e-004,-3.134038e-005
-1.353863e-004,-4.916756e-005
-1.441378e-004,-6.829127e-005
-1.486757e-004,-9.000802e-005
-1.501342e-004,-1.144799e-004
-1.509446e-004,-1.397621e-004
-1.540238e-004,-1.643960e-004
-1.605064e-004,-1.864369e-004
-1.621271e-004,-2.050744e-004
-1.545100e-004,-2.154466e-004
-1.402483e-004,-2.152845e-004
-1.266348e-004,-2.049123e-004
-1.255003e-004,-1.927574e-004
-1.408965e-004,-1.841680e-004
-1.673132e-004,-1.762268e-004
-1.935677e-004,-1.708786e-004
-2.138259e-004,-1.666649e-004
-2.271153e-004,-1.635857e-004
-2.331117e-004,-1.585616e-004
-2.285739e-004,-1.511067e-004
-2.141500e-004,-1.470550e-004
-1.985918e-004,-1.472171e-004
-1.904885e-004,-1.525652e-004
-1.909747e-004,-1.618029e-004
-1.938919e-004,-1.694200e-004
-1.909747e-004,-1.703924e-004
-1.797922e-004,-1.647201e-004
-1.642339e-004,-1.580754e-004
-1.493239e-004,-1.517549e-004
-1.360346e-004,-1.423551e-004
-1.242038e-004,-1.277692e-004
-1.104282e-004,-1.075111e-004
-9.114248e-005,-8.255302e-005
-6.650855e-005,-5.710876e-005
-4.219875e-005,-3.215070e-005
-2.437157e-005,-8.651231e-006
-1.643037e-005,1.257933e-005
-1.156841e-005,2.765140e-005
4.800190e-006,3.883391e-005
5.325772e-005,4.790957e-005
1.360731e-004,5.682316e-005
2.396328e-004,6.703327e-005
3.402755e-004,8.016057e-005
4.115842e-004,9.750156e-005
4.329769e-004,1.232699e-004
4.012120e-004,1.545486e-004
3.277964e-004,1.830721e-004
2.325020e-004,2.015475e-004
1.352628e-004,2.086784e-004
4.920609e-005,2.099749e-004
-2.226472e-005,2.096508e-004
-7.963584e-005,2.114335e-004
-1.248521e-004,2.143507e-004
-1.656925e-004,2.195368e-004
-2.049123e-004,2.255332e-004
-2.470493e-004,2.341226e-004
-2.872415e-004,2.425500e-004
-3.232200e-004,2.493568e-004
-3.582261e-004,2.540567e-004
-4.024699e-004,2.579462e-004
-4.640547e-004,2.634565e-004
-5.442770e-004,2.717218e-004
-6.264441e-004,2.803113e-004
-6.771705e-004,2.877662e-004
-6.690673e-004,2.932765e-004
-5.896553e-004,2.957075e-004
-4.527101e-004,2.914938e-004
-2.841623e-004,2.809595e-004
-1.204763e-004,2.673460e-004
1.452411e-005,2.506533e-004
1.159770e-004,2.320158e-004
1.863134e-004,2.075439e-004
2.303951e-004,1.775618e-004
2.558394e-004,1.420695e-004
2.720459e-004,1.054428e-004
2.863077e-004,7.189524e-005
2.984626e-004,4.175109e-005
3.044590e-004,1.209313e-005
3.052694e-004,-1.772689e-005
3.028383e-004,-4.706071e-005
2.965178e-004,-7.380149e-005
2.880904e-004,-9.551824e-005
2.816078e-004,-1.170729e-004
2.819319e-004,-1.361966e-004
2.848491e-004,-1.525652e-004
2.822560e-004,-1.660166e-004
2.715597e-004,-1.793060e-004
2.558394e-004,-1.959987e-004
2.480603e-004,-2.159328e-004
2.556773e-004,-2.326255e-004
2.733424e-004,-2.439701e-004
2.887387e-004,-2.520733e-004
2.944109e-004,-2.583939e-004
2.866318e-004,-2.614731e-004
2.626462e-004,-2.643903e-004
2.255332e-004,-2.692523e-004
1.872858e-004,-2.742763e-004
1.589243e-004,-2.775176e-004
1.457970e-004,-2.775176e-004
1.443384e-004,-2.742763e-004
1.496866e-004,-2.682799e-004
1.545486e-004,-2.635799e-004
1.496866e-004,-2.592042e-004
1.381800e-004,-2.517492e-004
1.286181e-004,-2.415391e-004
1.265113e-004,-2.288980e-004
1.304008e-004,-2.156086e-004
1.316974e-004,-1.998883e-004
1.226217e-004,-1.771992e-004
1.033359e-004,-1.472171e-004
7.902610e-005,-1.139937e-004
5.601284e-005,-7.995997e-005
3.737532e-005,-4.414354e-005
2.927205e-005,-8.165035e-006
3.137890e-005,2.359977e-005
3.996837e-005,4.969229e-005
5.001642e-005,6.687121e-005
5.876794e-005,7.772959e-005
6.541262e-005,8.696731e-005
6.832980e-005,9.474644e-005
6.832980e-005,1.023635e-004
6.703327e-005,1.150046e-004
6.962632e-005,1.344524e-004
7.691926e-005,1.581140e-004
8.567078e-005,1.825859e-004
8.923623e-005,2.054371e-004
7.918817e-005,2.248849e-004
5.649903e-005,2.441707e-004
2.829966e-005,2.618358e-004
2.045080e-006,2.770700e-004
-1.302700e-005,2.892249e-004
-1.254080e-005,2.992729e-004
3.503668e-006,3.064038e-004
2.586868e-005,3.104554e-004
3.964424e-005,3.122381e-004
3.413401e-005,3.145071e-004
1.014835e-005,3.162898e-004
-2.696461e-005,3.206656e-004
-6.958779e-005,3.273102e-004
-1.105903e-004,3.315239e-004
-1.423551e-004,3.290929e-004
-1.603444e-004,3.192070e-004
-1.614788e-004,3.038107e-004
-1.423551e-004,2.848491e-004
-1.079973e-004,2.624841e-004
-7.444975e-005,2.406053e-004
-5.402952e-005,2.222919e-004
-4.608832e-005,2.047888e-004
-4.155049e-005,1.861513e-004
-3.409549e-005,1.658931e-004
-2.258885e-005,1.493625e-004
-8.327101e-006,1.365593e-004
6.907040e-006,1.260251e-004
1.630683e-005,1.154908e-004
1.047248e-005,1.028497e-004
-1.205460e-005,8.518459e-005
-3.766092e-005,6.249545e-005
-5.127441e-005,3.802358e-005
-4.819517e-005,1.549650e-005
-3.441962e-005,-3.303076e-006
-1.918548e-005,-1.480971e-005
-1.464765e-005,-2.420950e-005
-2.777494e-005,-3.976777e-005
-5.078821e-005,-6.504996e-005
-5.775702e-005,-9.179074e-005
-1.691656e-005,-1.138316e-004
7.918817e-005,-1.267968e-004
2.151610e-004,-1.342519e-004
3.613439e-004,-1.373311e-004
4.830550e-004,-1.405724e-004
5.524190e-004,-1.481895e-004
5.584154e-004,-1.632615e-004
5.097958e-004,-1.822232e-004
4.253598e-004,-2.015090e-004
3.287688e-004,-2.178775e-004
2.435224e-004,-2.324634e-004
1.905271e-004,-2.444563e-004
1.910133e-004,-2.506147e-004
2.522740e-004,-2.472114e-004
3.527545e-004,-2.363530e-004
4.449697e-004,-2.220912e-004
4.931031e-004,-2.094502e-004
4.872688e-004,-1.979435e-004
4.373526e-004,-1.856265e-004
3.524304e-004,-1.731475e-004
2.393087e-004,-1.608306e-004
1.056048e-004,-1.519170e-004
-3.749886e-005,-1.468929e-004
-1.676373e-004,-1.452723e-004
-2.661730e-004,-1.399241e-004
-3.198166e-004,-1.248521e-004
-3.250027e-004,-9.940781e-005
-2.990722e-004,-6.586029e-005
-2.731418e-004,-2.971972e-005
-2.831898e-004,3.341602e-006
-3.491504e-004,2.748934e-005
-4.629203e-004,3.834771e-005
-5.891691e-004,4.061663e-005
-6.893255e-004,4.580272e-005
-7.321107e-004,5.974033e-005
-7.082871e-004,8.161915e-005
-6.240131e-004,1.054428e-004
-4.974402e-004,1.261871e-004
-3.674638e-004,1.432040e-004
-2.797865e-004,1.597346e-004
-2.616352e-004,1.798307e-004
-3.167374e-004,2.017096e-004
-4.293727e-004,2.182402e-004
-5.792832e-004,2.250470e-004
-7.507482e-004,2.227781e-004
-9.273994e-004,2.154851e-004
-1.072448e-003,2.064095e-004
-1.130953e-003,2.000889e-004
-1.066776e-003,1.968476e-004
-8.761868e-004,2.007372e-004
-5.972724e-004,2.119197e-004
-2.951827e-004,2.265056e-004
-3.020592e-005,2.394708e-004
1.645966e-004,2.469258e-004
2.898731e-004,2.467637e-004
3.649094e-004,2.407673e-004
4.120704e-004,2.312055e-004
4.412422e-004,2.179161e-004
4.499937e-004,2.064095e-004
4.417284e-004,1.984683e-004
4.286011e-004,1.898788e-004
4.182289e-004,1.765894e-004
4.076947e-004,1.610312e-004
3.922984e-004,1.430419e-004
3.738230e-004,1.244044e-004
3.561579e-004,1.034980e-004
3.414099e-004,8.097089e-005
3.273102e-004,5.536457e-005
3.143450e-004,2.927205e-005
3.068900e-004,4.151929e-006
3.089969e-004,-1.562004e-005
3.195311e-004,-3.020592e-005
3.370341e-004,-3.636440e-005
3.581026e-004,-3.652646e-005
3.850055e-004,-4.009191e-005
4.198496e-004,-5.273300e-005
4.595556e-004,-7.120844e-005
4.909963e-004,-9.081835e-005
4.871067e-004,-1.109144e-004
4.305459e-004,-1.324691e-004
3.357376e-004,-1.540238e-004
2.576221e-004,-1.713648e-004
2.355812e-004,-1.807646e-004
2.642668e-004,-1.844921e-004
3.075383e-004,-1.830335e-004
3.360618e-004,-1.760647e-004
3.383307e-004,-1.652063e-004
3.187208e-004,-1.541859e-004
2.869559e-004,-1.447861e-004
2.571359e-004,-1.376552e-004
2.401191e-004,-1.321450e-004
2.383363e-004,-1.313347e-004
2.566497e-004,-1.365208e-004
2.953834e-004,-1.464067e-004
3.490270e-004,-1.562927e-004
4.136911e-004,-1.634236e-004
4.835413e-004,-1.639098e-004
5.266506e-004,-1.572651e-004
5.016926e-004,-1.446240e-004
3.775505e-004,-1.324691e-004
1.639484e-004,-1.230693e-004
-9.049421e-005,-1.118868e-004
-3.003688e-004,-9.713889e-005
-3.893426e-004,-8.012204e-005
-3.369955e-004,-5.953974e-005
-1.849783e-004,-3.522994e-005
-6.058186e-006,-1.043395e-005
1.282940e-004,1.387585e-005
1.683241e-004,3.786152e-005
1.031738e-004,5.925414e-005
-4.641245e-005,7.465034e-005
-2.478596e-004,8.372601e-005
-4.715097e-004,9.020862e-005
-6.988873e-004,9.701536e-005
-9.145963e-004,1.047945e-004
-1.082820e-003,1.148425e-004
-1.141974e-003,1.242423e-004
-1.033228e-003,1.325077e-004
-7.460483e-004,1.419075e-004
-3.397507e-004,1.558451e-004
7.935024e-005,1.746447e-004
4.059119e-004,1.971717e-004
5.832114e-004,2.175920e-004
6.131936e-004,2.328261e-004
5.443158e-004,2.401191e-004
4.323286e-004,2.420638e-004
3.175863e-004,2.438466e-004
2.200230e-004,2.475741e-004
1.479039e-004,2.504913e-004
9.863601e-005,2.516257e-004
6.136099e-005,2.474120e-004
2.538249e-005,2.329882e-004
-1.173047e-005,2.128921e-004
-5.597430e-005,1.955511e-004
-1.126972e-004,1.874478e-004
-1.820611e-004,1.910133e-004
-2.640662e-004,2.017096e-004
-3.553089e-004,2.156472e-004
-4.470379e-004,2.261814e-004
-5.266119e-004,2.229401e-004
-5.817142e-004,2.054371e-004
-5.984068e-004,1.780480e-004
-5.588629e-004,1.535762e-004
-4.514136e-004,1.355869e-004
-2.840002e-004,1.195424e-004
-8.206682e-005,1.005808e-004
1.253768e-004,7.999851e-005
3.081865e-004,6.103686e-005
4.392974e-004,4.661304e-005
4.989374e-004,3.510641e-005
4.806241e-004,2.230325e-005
3.804677e-004,7.393236e-006
1.952270e-004,-6.868513e-006
-6.569822e-005,-1.918548e-005
-3.569296e-004,-3.150244e-005
-6.147755e-004,-4.057810e-005
-7.627411e-004,-4.544006e-005
-7.355141e-004,-4.965376e-005
-5.185087e-004,-5.759496e-005
-1.613168e-004,-7.509801e-005
2.425500e-004,-1.002181e-004
5.832114e-004,-1.282554e-004
7.854691e-004,-1.498101e-004
8.269579e-004,-1.626133e-004
7.402529e-004,-1.677994e-004
5.901803e-004,-1.690959e-004
4.341113e-004,-1.695821e-004
3.094830e-004,-1.726613e-004
2.292607e-004,-1.780095e-004
1.867996e-004,-1.836818e-004
1.704310e-004,-1.891920e-004
1.715654e-004,-1.932436e-004
1.837203e-004,-1.979435e-004
2.008992e-004,-2.021572e-004
2.214815e-004,-2.045882e-004
2.365536e-004,-2.055606e-004
2.389846e-004,-2.031296e-004
2.265056e-004,-1.981056e-004
2.067336e-004,-1.935677e-004
1.882582e-004,-1.890299e-004
1.748067e-004,-1.796301e-004
1.626518e-004,-1.629374e-004
1.451488e-004,-1.405724e-004
1.184080e-004,-1.173971e-004
8.875003e-005,-9.697683e-005
6.217132e-005,-7.752899e-005
3.867184e-005,-5.305713e-005
9.338019e-006,-2.242678e-005
-3.085418e-005,6.420843e-006
-7.234290e-005,2.943412e-005
-1.020008e-004,4.515445e-005
-1.220970e-004,5.747142e-005
-1.360346e-004,6.865393e-005
-1.410586e-004,7.918817e-005
-1.323071e-004,8.939829e-005
-1.114006e-004,9.960841e-005
-8.854943e-005,1.112771e-004
-7.396356e-005,1.242423e-004
-6.958779e-005,1.406109e-004
-7.185670e-005,1.626518e-004
-7.558420e-005,1.869616e-004
-7.850138e-005,2.090025e-004
-7.801519e-005,2.256952e-004
-7.590833e-005,2.350950e-004
-7.720486e-005,2.391467e-004
-7.736692e-005,2.423880e-004
-7.201877e-005,2.474120e-004
-5.629844e-005,2.524360e-004
-3.263690e-005,2.508154e-004
-1.108221e-005,2.420638e-004
4.244267e-007,2.346088e-004
-4.599598e-006,2.325020e-004
-3.522994e-005,2.380122e-004
-9.227693e-005,2.457913e-004
-1.465688e-004,2.519498e-004
-1.540238e-004,2.568118e-004
-8.984595e-005,2.618358e-004
4.483033e-005,2.628082e-004
2.506533e-004,2.550291e-004
5.439916e-004,2.384984e-004
9.331108e-004,2.177540e-004
1.376846e-003,1.981441e-004
1.793841e-003,1.804790e-004
2.100470e-003,1.639484e-004
2.236929e-003,1.464453e-004
2.189282e-003,1.263492e-004
1.986213e-003,1.034980e-004
1.668889e-003,7.999851e-005
1.267128e-003,5.925414e-005
8.023240e-004,3.980630e-005
2.864697e-004,2.246531e-005
-2.673075e-004,9.175954e-006
-8.361567e-004,-2.168618e-006
-1.396416e-003,-1.286493e-005
-1.925722e-003,-2.420950e-005
-2.397981e-003,-3.474375e-005
-2.790990e-003,-4.689865e-005
-3.090811e-003,-6.099833e-005
-3.292097e-003,-7.461182e-005
-3.398413e-003,-9.049421e-005
-3.399385e-003,-1.068628e-004
-3.256767e-003,-1.222590e-004
-2.928746e-003,-1.352242e-004
-2.409001e-003,-1.498101e-004
-1.749395e-003,-1.677994e-004
-1.043276e-003,-1.890299e-004
-3.946908e-004,-2.112329e-004
1.159770e-004,-2.264670e-004
4.537212e-004,-2.301945e-004
6.329655e-004,-2.245222e-004
7.062191e-004,-2.159328e-004
7.337703e-004,-2.028055e-004
7.543526e-004,-1.849783e-004
7.817416e-004,-1.634236e-004
8.058894e-004,-1.460826e-004
8.115617e-004,-1.410586e-004
7.896828e-004,-1.472171e-004
7.409012e-004,-1.580754e-004
6.765611e-004,-1.665028e-004
6.127074e-004,-1.699062e-004
5.631154e-004,-1.650443e-004
5.342677e-004,-1.506204e-004
5.271368e-004,-1.310105e-004
5.326470e-004,-1.109144e-004
5.401021e-004,-9.162867e-005
5.418848e-004,-7.023606e-005
5.415607e-004,-4.592625e-005
5.473950e-004,-1.886135e-005
5.681394e-004,7.069105e-006
6.005525e-004,2.586868e-005
6.386379e-004,3.510641e-005
6.752646e-004,3.915804e-005
7.073536e-004,4.645098e-005
7.311772e-004,5.925414e-005
7.439804e-004,7.254349e-005
7.465734e-004,8.048470e-005
7.379840e-004,8.323981e-005
7.080019e-004,8.372601e-005
6.456067e-004,8.761557e-005
5.448020e-004,1.009049e-004
4.005638e-004,1.252147e-004
2.107852e-004,1.535762e-004
1.002961e-007,1.770756e-004
-1.809267e-004,1.940925e-004
-2.828657e-004,2.073819e-004
-2.852967e-004,2.159713e-004
-2.006986e-004,2.193747e-004
-7.088431e-005,2.208333e-004
5.633696e-005,2.214815e-004
1.501728e-004,2.213195e-004
2.111094e-004,2.205092e-004
2.504913e-004,2.196988e-004
2.798251e-004,2.190506e-004
3.013798e-004,2.198609e-004
3.156415e-004,2.229401e-004
3.211517e-004,2.284504e-004
3.159656e-004,2.316917e-004
3.031625e-004,2.336365e-004
2.872801e-004,2.363916e-004
2.709115e-004,2.350950e-004
2.558394e-004,2.260194e-004
2.399570e-004,2.068957e-004
2.161334e-004,1.843686e-004
1.798307e-004,1.623277e-004
1.388282e-004,1.417454e-004
1.065772e-004,1.206769e-004
8.956036e-005,1.015532e-004
8.097089e-005,8.648112e-005
7.400208e-005,7.448828e-005
6.930219e-005,6.411610e-005
7.821578e-005,5.309566e-005
1.163011e-004,3.899597e-005
1.889064e-004,1.938607e-005
2.867939e-004,-3.141010e-006
3.879227e-004,-2.615429e-005
4.739794e-004,-4.527799e-005
5.339436e-004,-5.889148e-005
5.610085e-004,-7.023606e-005
5.516087e-004,-8.320128e-005
5.047718e-004,-9.973194e-005
4.277907e-004,-1.201522e-004
3.282826e-004,-1.438137e-004
2.106232e-004,-1.666649e-004
7.724339e-005,-1.843300e-004
-6.456377e-005,-1.969711e-004
-2.107467e-004,-2.029675e-004
-3.588744e-004,-2.018331e-004
-5.019780e-004,-1.935677e-004
-6.364922e-004,-1.820611e-004
-7.617687e-004,-1.726613e-004
-8.739179e-004,-1.702304e-004
-9.641882e-004,-1.734716e-004
-1.025611e-003,-1.763888e-004
-1.061914e-003,-1.763888e-004
-1.085413e-003,-1.724993e-004
-1.098054e-003,-1.637477e-004
-1.082172e-003,-1.504584e-004
-1.014915e-003,-1.297140e-004
-8.852624e-004,-1.011905e-004
-7.040734e-004,-7.477388e-005
-5.021401e-004,-5.581224e-005
-3.110651e-004,-4.673658e-005
-1.548341e-004,-4.155049e-005
-4.300908e-005,-3.458168e-005
2.781346e-005,-1.740276e-005
6.978839e-005,8.365628e-006
9.766362e-005,3.996837e-005
1.218114e-004,7.108491e-005
1.446626e-004,9.296373e-005
1.636242e-004,1.026876e-004
1.759412e-004,1.012291e-004
1.846927e-004,9.555677e-005
1.961994e-004,9.182927e-005
2.162954e-004,8.875003e-005
2.384984e-004,8.242948e-005
2.547049e-004,6.784360e-005
2.589186e-004,4.628891e-005
2.417397e-004,2.473423e-005
2.015475e-004,1.468618e-005
1.435281e-004,2.327564e-005
7.999851e-005,4.661304e-005
2.424803e-005,7.675720e-005
-1.399939e-005,1.086841e-004
-3.441962e-005,1.351007e-004
-4.252288e-005,1.539003e-004
-4.187462e-005,1.660552e-004
-3.474375e-005,1.751309e-004
-2.080613e-005,1.801549e-004
1.072688e-006,1.790204e-004
2.959619e-005,1.712413e-004
5.893001e-005,1.595726e-004
7.756752e-005,1.480659e-004
7.351589e-005,1.436902e-004
4.239934e-005,1.517934e-004
-1.043395e-005,1.670276e-004
-7.396356e-005,1.799928e-004
-1.284175e-004,1.846927e-004
-1.522411e-004,1.822617e-004
-1.334415e-004,1.764274e-004
-7.153257e-005,1.715654e-004
1.695509e-005,1.689724e-004
1.085220e-004,1.663793e-004
1.832341e-004,1.594105e-004
2.321778e-004,1.475797e-004
2.563256e-004,1.347766e-004
2.571359e-004,1.260251e-004
2.389846e-004,1.206769e-004
2.070577e-004,1.146805e-004
1.717275e-004,1.044704e-004
1.456350e-004,9.037068e-005
1.328318e-004,7.643307e-005
1.307250e-004,6.200925e-005
1.341283e-004,4.645098e-005
1.370455e-004,2.829966e-005
1.308870e-004,1.322759e-005
1.133840e-004,4.962256e-006
9.134307e-005,1.072688e-006
7.659513e-005,-3.141010e-006
7.675720e-005,-1.027188e-005
9.620504e-005,-1.902341e-005
1.297526e-004,-2.890940e-005
1.655690e-004,-4.090223e-005
1.921477e-004,-5.500191e-005
2.046267e-004,-7.056019e-005
2.064095e-004,-8.514606e-005
1.942546e-004,-9.535618e-005
1.655690e-004,-1.023250e-004
1.255389e-004,-1.092938e-004
8.356394e-005,-1.170729e-004
4.612685e-005,-1.290658e-004
2.035846e-005,-1.428413e-004
9.824215e-006,-1.553203e-004
1.047248e-005,-1.635857e-004
8.365628e-006,-1.655305e-004
-4.113403e-006,-1.643960e-004
-2.372331e-005,-1.603444e-004
-5.046408e-005,-1.562927e-004
-8.854943e-005,-1.522411e-004
-1.392759e-004,-1.472171e-004
-1.919471e-004,-1.428413e-004
-2.280877e-004,-1.408965e-004
-2.368392e-004,-1.394379e-004
-2.160948e-004,-1.342519e-004
-1.724993e-004,-1.266348e-004
-1.225832e-004,-1.178833e-004
-7.639453e-005,-1.057284e-004
-3.749886e-005,-8.806324e-005
-8.327101e-006,-6.569822e-005
8.527692e-006,-4.252288e-005
1.063454e-005,-2.404744e-005
1.234753e-006,-1.464765e-005
-5.734056e-006,-1.351319e-005
-1.682422e-006,-1.367526e-005
1.371378e-005,-8.975362e-006
3.786152e-005,1.396819e-006
6.751948e-005,1.371378e-005
9.344993e-005,3.056858e-005
1.022015e-004,5.471631e-005
9.344993e-005,8.421220e-005
8.599492e-005,1.159770e-004
1.002567e-004,1.459591e-004
1.441764e-004,1.715654e-004
2.112714e-004,1.890685e-004
2.837146e-004,1.987924e-004
3.344411e-004,2.054371e-004
3.423823e-004,2.145127e-004
3.036487e-004,2.243987e-004
2.303951e-004,2.316917e-004
1.417454e-004,2.360674e-004
6.119892e-005,2.365536e-004
1.144487e-005,2.320158e-004
1.549650e-005,2.263435e-004
7.951231e-005,2.237505e-004
1.931201e-004,2.247229e-004
3.279585e-004,2.265056e-004
4.498317e-004,2.281262e-004
5.328091e-004,2.292607e-004
5.645740e-004,2.273159e-004
5.473950e-004,2.206712e-004
4.924549e-004,2.078681e-004
4.159600e-004,1.923098e-004
3.371962e-004,1.757791e-004
2.634565e-004,1.597346e-004
1.916615e-004,1.498487e-004
1.033359e-004,1.487142e-004
-1.691656e-005,1.513072e-004
-1.765509e-004,1.493625e-004
-3.728119e-004,1.370455e-004
-5.940311e-004,1.159770e-004
-8.205983e-004,9.312580e-005
-1.026259e-003,7.270556e-005
-1.167580e-003,5.244739e-005
-1.204693e-003,3.607880e-005
-1.126091e-003,2.765140e-005
-9.543023e-004,2.278944e-005
-7.345417e-004,1.808955e-005
-5.188328e-004,1.241726e-005
-3.352128e-004,3.179537e-006
-1.859507e-004,-1.513384e-005
-5.791909e-005,-4.300908e-005
5.666109e-005,-7.444975e-005
1.522796e-004,-1.028112e-004
2.112714e-004,-1.201522e-004
2.180782e-004,-1.279313e-004
1.725378e-004,-1.314967e-004
9.409818e-005,-1.350622e-004
1.257933e-005,-1.386276e-004
-4.592625e-005,-1.417068e-004
-7.056019e-005,-1.425172e-004
-6.294311e-005,-1.425172e-004
-3.296103e-005,-1.442999e-004
1.176900e-005,-1.485136e-004
6.103686e-005,-1.551583e-004
1.047945e-004,-1.616409e-004
1.318594e-004,-1.656925e-004
1.385041e-004,-1.658546e-004
1.240803e-004,-1.673132e-004
1.028497e-004,-1.699062e-004
8.518459e-005,-1.686097e-004
7.594687e-005,-1.614788e-004
7.448828e-005,-1.514308e-004
7.789165e-005,-1.431655e-004
8.518459e-005,-1.340898e-004
9.523264e-005,-1.232314e-004
1.072255e-004,-1.096179e-004
1.232699e-004,-9.535618e-005
1.595726e-004,-7.833932e-005
2.325020e-004,-5.824322e-005
3.448133e-004,-3.555408e-005
4.775448e-004,-1.399939e-005
6.114109e-004,2.369211e-006
7.306910e-004,1.646890e-005
8.267959e-004,2.943412e-005
8.914600e-004,4.077869e-005
9.180387e-004,5.147500e-005
9.028045e-004,6.492643e-005
8.447851e-004,8.194328e-005
7.396046e-004,1.017153e-004
5.801322e-004,1.214872e-004
3.673404e-004,1.385041e-004
1.179218e-004,1.521176e-004
-1.483515e-004,1.634622e-004
-4.162455e-004,1.723757e-004
-6.781430e-004,1.791825e-004
-9.306407e-004,1.832341e-004
-1.166770e-003,1.880961e-004
-1.359952e-003,1.934442e-004
-1.470804e-003,1.989545e-004
-1.453139e-003,2.021958e-004
-1.290750e-003,2.013854e-004
-1.020101e-003,1.976579e-004
-7.115284e-004,1.949028e-004
-4.326141e-004,1.966855e-004
-2.167431e-004,1.992786e-004
-5.257093e-005,2.000889e-004
8.696731e-005,1.981441e-004
2.161334e-004,1.923098e-004
3.234207e-004,1.824238e-004
3.919743e-004,1.699448e-004
4.179048e-004,1.586002e-004
4.206599e-004,1.474177e-004
4.237391e-004,1.373696e-004
4.347596e-004,1.289422e-004
4.452938e-004,1.208390e-004
4.360561e-004,1.114392e-004
3.976466e-004,9.993253e-005
3.363859e-004,8.664318e-005
2.696149e-004,7.286763e-005
2.112714e-004,5.925414e-005
1.671896e-004,4.547859e-005
1.318594e-004,3.073064e-005
9.588091e-005,1.436204e-005
5.179914e-005,-2.330684e-006
-3.465141e-006,-1.934754e-005
-7.023606e-005,-3.685060e-005
-1.462447e-004,-5.224680e-005
-2.310048e-004,-6.634648e-005
-3.207890e-004,-7.947377e-005
-4.074939e-004,-8.984595e-005
-4.800992e-004,-9.843541e-005
-5.329325e-004,-1.057284e-004
-5.565940e-004,-1.165867e-004
-5.290429e-004,-1.319829e-004
-4.084663e-004,-1.509446e-004
-1.571031e-004,-1.669890e-004
2.226160e-004,-1.773612e-004
6.793162e-004,-1.815749e-004
1.124834e-003,-1.818991e-004
1.467441e-003,-1.793060e-004
1.651061e-003,-1.749302e-004
1.665647e-003,-1.750923e-004
1.548636e-003,-1.802784e-004
1.364205e-003,-1.903264e-004
1.175075e-003,-2.034537e-004
1.012361e-003,-2.180396e-004
8.674743e-004,-2.256567e-004
7.101087e-004,-2.222533e-004
5.146578e-004,-2.058847e-004
2.689667e-004,-1.828714e-004
-2.258885e-005,-1.572651e-004
-3.519055e-004,-1.313347e-004
-7.220627e-004,-1.075111e-004
-1.123012e-003,-8.530812e-005
-1.506459e-003,-6.083626e-005
-1.787156e-003,-3.409549e-005
-1.887475e-003,-7.678839e-006
-1.778404e-003,1.517237e-005
-1.486201e-003,3.526847e-005
-1.069044e-003,5.179914e-005
-6.021344e-004,6.525056e-005
-1.609926e-004,7.724339e-005
1.942546e-004,8.939829e-005
4.240633e-004,1.030118e-004
5.159543e-004,1.174356e-004
4.830550e-004,1.292664e-004
3.606957e-004,1.363972e-004
2.021958e-004,1.388282e-004
6.703327e-005,1.407730e-004
2.623614e-007,1.496866e-004
1.954813e-005,1.671896e-004
1.078737e-004,1.945787e-004
2.294227e-004,2.290986e-004
3.461098e-004,2.626462e-004
4.269804e-004,2.882525e-004
4.584211e-004,3.007315e-004
4.469145e-004,3.028383e-004
4.166082e-004,2.987867e-004
3.958639e-004,2.926282e-004
3.999155e-004,2.893870e-004
4.284390e-004,2.858215e-004
4.655520e-004,2.807975e-004
4.892136e-004,2.751252e-004
4.853240e-004,2.713977e-004
4.498317e-004,2.679943e-004
3.910019e-004,2.629703e-004
3.213138e-004,2.542187e-004
2.550291e-004,2.425500e-004
2.083542e-004,2.300710e-004
1.785342e-004,2.175920e-004
1.564933e-004,2.046267e-004
1.289422e-004,1.949028e-004
8.323981e-005,1.874478e-004
1.954813e-005,1.788584e-004
-4.900550e-005,1.655690e-004
-1.032974e-004,1.475797e-004
-1.326312e-004,1.240803e-004
-1.391138e-004,9.685330e-005
-1.329553e-004,7.124698e-005
-1.203142e-004,4.985435e-005
-1.042698e-004,2.992031e-005
-9.049421e-005,9.500085e-006
-8.790117e-005,-1.010982e-005
-9.762509e-005,-2.826114e-005
-1.130213e-004,-4.430560e-005
-1.246900e-004,-5.743289e-005
-1.293899e-004,-6.910160e-005
-1.274451e-004,-8.174268e-005
-1.211246e-004,-9.503204e-005
-1.144799e-004,-1.122110e-004
-1.107524e-004,-1.316588e-004
-1.083214e-004,-1.515928e-004
-1.060525e-004,-1.682856e-004
-1.058904e-004,-1.806025e-004
-1.110765e-004,-1.906506e-004
-1.230693e-004,-2.010227e-004
-1.405724e-004,-2.086398e-004
-1.640719e-004,-2.107467e-004
-1.906506e-004,-2.110708e-004
-2.115570e-004,-2.113949e-004
-2.191741e-004,-2.115570e-004
-2.081536e-004,-2.086398e-004
-1.812508e-004,-2.018331e-004
-1.551583e-004,-1.950263e-004
-1.433275e-004,-1.914609e-004
-1.459206e-004,-1.908126e-004
-1.535376e-004,-1.922712e-004
-1.595340e-004,-1.929195e-004
-1.614788e-004,-1.932436e-004
-1.614788e-004,-1.916230e-004
-1.566169e-004,-1.851404e-004
-1.455964e-004,-1.729855e-004
-1.329553e-004,-1.558065e-004
-1.198280e-004,-1.353863e-004
-1.081593e-004,-1.135075e-004
-9.746302e-005,-9.146661e-005
-8.725291e-005,-7.007399e-005
-7.850138e-005,-5.176061e-005
-7.039812e-005,-3.717473e-005
-6.278104e-005,-2.501983e-005
-5.240886e-005,-1.205460e-005
-4.106429e-005,2.369211e-006
-2.971972e-005,2.019640e-005
-1.805102e-005,4.207521e-005
-4.923729e-006,6.557468e-005
7.879432e-006,8.502253e-005
1.727922e-005,9.733949e-005
2.003433e-005,1.034980e-004
1.095867e-005,1.043083e-004
-1.059602e-005,1.083599e-004
-3.847125e-005,1.206769e-004
-6.521203e-005,1.423936e-004
-8.401160e-005,1.699448e-004
-9.000802e-005,1.974959e-004
-8.303922e-005,2.190506e-004
-6.683268e-005,2.333123e-004
-4.122636e-005,2.431983e-004
-7.840905e-006,2.472499e-004
2.943412e-005,2.454672e-004
6.249545e-005,2.383363e-004
8.631905e-005,2.282883e-004
9.944634e-005,2.222919e-004
1.049566e-004,2.245608e-004
1.078737e-004,2.339606e-004
1.116012e-004,2.427121e-004
1.200286e-004,2.444948e-004
1.370455e-004,2.375260e-004
1.741585e-004,2.245608e-004
2.440086e-004,2.122438e-004
3.495132e-004,2.064095e-004
4.676588e-004,2.055991e-004
5.678153e-004,2.055991e-004
6.256726e-004,2.041406e-004
6.358828e-004,1.976579e-004
6.083316e-004,1.829100e-004
5.525811e-004,1.649207e-004
4.815964e-004,1.487142e-004
4.054258e-004,1.341283e-004
3.299033e-004,1.201907e-004
2.509774e-004,1.012291e-004
1.615174e-004,7.432621e-005
4.531652e-005,4.515445e-005
-1.091317e-004,2.214118e-005
-2.987481e-004,8.689758e-006
-5.057055e-004,1.234753e-006
-7.172007e-004,-5.734056e-006
-9.246443e-004,-1.448558e-005
-1.118312e-003,-2.275091e-005
-1.264981e-003,-3.215070e-005
-1.317166e-003,-4.657452e-005
-1.246668e-003,-6.650855e-005
-1.055593e-003,-8.757704e-005
-7.851060e-004,-1.079973e-004
-4.963057e-004,-1.261486e-004
-2.407288e-004,-1.360346e-004
-4.398147e-005,-1.376552e-004
8.956036e-005,-1.353863e-004
1.728619e-004,-1.365208e-004
2.231022e-004,-1.438137e-004
2.529222e-004,-1.541859e-004
2.713977e-004,-1.603444e-004
2.876042e-004,-1.639098e-004
3.049452e-004,-1.668270e-004
3.195311e-004,-1.669890e-004
3.324963e-004,-1.630995e-004
3.465960e-004,-1.616409e-004
3.621543e-004,-1.660166e-004
3.773884e-004,-1.736337e-004
3.900295e-004,-1.796301e-004
3.966742e-004,-1.780095e-004
3.982949e-004,-1.663408e-004
3.961880e-004,-1.468929e-004
3.901916e-004,-1.253383e-004
3.775505e-004,-1.054042e-004
3.561579e-004,-8.919769e-005
3.260137e-004,-7.590833e-005
2.944109e-004,-6.731888e-005
2.701012e-004,-6.035007e-005
2.581083e-004,-5.159854e-005
2.587566e-004,-3.587821e-005
2.658874e-004,-1.335113e-005
2.743149e-004,1.160693e-005
2.799871e-004,3.688912e-005
2.814457e-004,5.990240e-005
2.770700e-004,7.902610e-005
2.710735e-004,9.458438e-005
2.673460e-004,1.080358e-004
2.676702e-004,1.213252e-004
2.676702e-004,1.365593e-004
2.634565e-004,1.540623e-004
2.480603e-004,1.705930e-004
2.146748e-004,1.848548e-004
1.655690e-004,1.965235e-004
1.094944e-004,2.057612e-004
5.341979e-005,2.132162e-004
5.124321e-006,2.177540e-004
-2.939559e-005,2.180782e-004
-4.770897e-005,2.146748e-004
-4.932962e-005,2.106232e-004
-3.344723e-005,2.054371e-004
-4.923729e-006,1.955511e-004
2.667901e-005,1.804790e-004
4.985435e-005,1.631380e-004
6.152305e-005,1.453108e-004
6.217132e-005,1.289422e-004
5.860588e-005,1.169494e-004
5.925414e-005,1.125736e-004
6.606088e-005,1.116012e-004
7.465034e-005,1.096565e-004
7.546067e-005,1.052807e-004
6.557468e-005,9.733949e-005
5.098881e-005,8.502253e-005
3.834771e-005,7.157111e-005
3.413401e-005,6.379197e-005
3.380988e-005,6.233338e-005
2.732727e-005,6.330578e-005
9.500085e-006,6.444023e-005
-1.529591e-005,6.589881e-005
-3.247483e-005,6.768154e-005
-2.096820e-005,7.270556e-005
2.554455e-005,7.902610e-005
9.766362e-005,8.210535e-005
1.714034e-004,7.983644e-005
2.245608e-004,7.254349e-005
2.470879e-004,6.087479e-005
2.446569e-004,4.807163e-005
2.229401e-004,3.445814e-005
1.846927e-004,1.760335e-005
1.320215e-004,-2.238346e-007
7.189524e-005,-1.805102e-005
9.175954e-006,-3.571614e-005
-5.370539e-005,-5.548811e-005
-1.152902e-004,-7.623246e-005
-1.744440e-004,-9.535618e-005
-2.347323e-004,-1.123730e-004
-2.909690e-004,-1.245279e-004
-3.353749e-004,-1.323071e-004
-3.677880e-004,-1.379794e-004
-3.980942e-004,-1.421931e-004
-4.402311e-004,-1.421931e-004
-4.993849e-004,-1.358725e-004
-5.736109e-004,-1.284175e-004
-6.586951e-004,-1.264727e-004
-7.360002e-004,-1.316588e-004
-7.747339e-004,-1.418689e-004
-7.528550e-004,-1.528894e-004
-6.505919e-004,-1.592099e-004
-4.635685e-004,-1.582375e-004
-2.109087e-004,-1.498101e-004
6.492643e-005,-1.396000e-004
3.140208e-004,-1.311726e-004
5.016926e-004,-1.219349e-004
6.153004e-004,-1.092938e-004
6.622995e-004,-9.276313e-005
6.559788e-004,-7.671866e-005
6.080075e-004,-6.359137e-005
5.347540e-004,-4.916756e-005
4.472386e-004,-3.377136e-005
3.452995e-004,-1.983374e-005
2.292607e-004,-9.137427e-006
9.944634e-005,-3.858999e-007
-4.171256e-005,9.500085e-006
-1.875713e-004,1.873781e-005
-3.235441e-004,2.959619e-005
-4.329382e-004,4.191315e-005
-5.031124e-004,5.730935e-005
-5.256396e-004,7.254349e-005
-5.079744e-004,8.161915e-005
-4.711856e-004,8.615699e-005
-4.306693e-004,9.344993e-005
-3.807532e-004,1.067393e-004
-3.049066e-004,1.250527e-004
-1.969711e-004,1.470936e-004
-7.153257e-005,1.701068e-004
5.309566e-005,1.906891e-004
1.560072e-004,2.085163e-004
2.216436e-004,2.232643e-004
2.389846e-004,2.320158e-004
2.059233e-004,2.346088e-004
1.263492e-004,2.363916e-004
1.031041e-005,2.409294e-004
-1.175591e-004,2.466017e-004
-2.135018e-004,2.534084e-004
-2.389460e-004,2.584324e-004
-1.827094e-004,2.626462e-004
-7.137051e-005,2.665357e-004
5.017848e-005,2.696149e-004
1.513072e-004,2.670219e-004
2.206712e-004,2.574601e-004
2.621599e-004,2.430362e-004
2.867939e-004,2.268297e-004
3.038107e-004,2.096508e-004
3.115899e-004,1.932822e-004
2.937627e-004,1.812893e-004
2.362295e-004,1.705930e-004
1.407730e-004,1.605450e-004
1.727922e-005,1.490383e-004
-1.092938e-004,1.326697e-004
-2.026434e-004,1.101427e-004
-2.387840e-004,8.372601e-005
-2.175534e-004,5.617490e-005
-1.590478e-004,3.105477e-005
-8.401160e-005,9.338019e-006
-1.034161e-006,-7.678839e-006
9.118101e-005,-2.307504e-005
1.944166e-004,-3.895745e-005
3.015418e-004,-5.159854e-005
4.010500e-004,-5.953974e-005
4.796517e-004,-6.488790e-005
5.323229e-004,-7.234290e-005
5.589016e-004,-8.579432e-005
5.689497e-004,-1.071869e-004
5.717048e-004,-1.319829e-004
5.712186e-004,-1.530514e-004
5.665187e-004,-1.671511e-004
5.571189e-004,-1.752544e-004
5.439916e-004,-1.784957e-004
5.213025e-004,-1.771992e-004
4.806241e-004,-1.724993e-004
4.182289e-004,-1.648822e-004
3.401134e-004,-1.566169e-004
2.548670e-004,-1.499722e-004
1.749688e-004,-1.491618e-004
1.193804e-004,-1.551583e-004
1.007429e-004,-1.655305e-004
1.145184e-004,-1.731475e-004
1.459591e-004,-1.712027e-004
1.756171e-004,-1.619650e-004
1.864754e-004,-1.488377e-004
1.647587e-004,-1.366828e-004
1.166253e-004,-1.285796e-004
5.957827e-005,-1.250141e-004
1.306552e-005,-1.232314e-004
-1.254080e-005,-1.178833e-004
-1.724069e-005,-1.084835e-004
-2.978945e-006,-9.535618e-005
2.781346e-005,-7.947377e-005
6.249545e-005,-6.067420e-005
8.453633e-005,-3.976777e-005
7.675720e-005,-1.545797e-005
3.316162e-005,8.041497e-006
-3.393342e-005,3.121684e-005
-1.037836e-004,4.823370e-005
-1.603444e-004,5.747142e-005
-1.890299e-004,5.828175e-005
-1.778474e-004,5.714729e-005
-1.242038e-004,6.314371e-005
-3.798505e-005,7.578480e-005
5.439218e-005,8.923623e-005
1.158149e-004,1.041462e-004
1.257009e-004,1.208390e-004
1.004187e-004,1.422316e-004
7.870197e-005,1.654069e-004
8.842590e-005,1.876099e-004
1.242423e-004,2.044647e-004
1.600588e-004,2.122438e-004
1.723757e-004,2.130541e-004
1.513072e-004,2.117576e-004
1.106288e-004,2.119197e-004
7.302970e-005,2.167816e-004
5.341979e-005,2.252090e-004
4.320967e-005,2.336365e-004
2.084466e-005,2.334744e-004
-1.027188e-005,2.239125e-004
-3.976777e-005,2.096508e-004
-7.282909e-005,1.974959e-004
-1.264727e-004,1.898788e-004
-2.350565e-004,1.900409e-004
-4.209454e-004,1.970097e-004
-6.736051e-004,2.054371e-004
-9.515471e-004,2.072198e-004
-1.193511e-003,2.031682e-004
-1.342611e-003,1.940925e-004
-1.363679e-003,1.783722e-004
-1.257689e-003,1.560072e-004
-1.068558e-003,1.305629e-004
-8.604664e-004,1.062531e-004
-6.828429e-004,8.648112e-005
-5.543251e-004,7.059871e-005
-4.836646e-004,5.309566e-005
-4.901472e-004,3.316162e-005
-5.822003e-004,1.112074e-005
-7.445897e-004,-8.489166e-006
-9.389060e-004,-2.453363e-005
-1.101133e-003,-4.009191e-005
-1.164663e-003,-5.646050e-005
-1.082010e-003,-6.910160e-005
-8.419910e-004,-7.833932e-005
-4.779923e-004,-8.465986e-005
-5.856735e-005,-9.292520e-005
3.354135e-004,-1.055663e-004
6.358828e-004,-1.233935e-004
8.026481e-004,-1.446240e-004
8.306854e-004,-1.682856e-004
7.451148e-004,-1.887058e-004
5.869390e-004,-1.963229e-004
3.992672e-004,-1.885437e-004
1.996027e-004,-1.710407e-004
9.662150e-006,-1.543479e-004
-1.238797e-004,-1.465688e-004
-1.587237e-004,-1.452723e-004
-8.482193e-005,-1.509446e-004
7.367795e-005,-1.621271e-004
2.735045e-004,-1.733096e-004
4.621486e-004,-1.783336e-004
5.987698e-004,-1.718510e-004
6.665131e-004,-1.517549e-004
6.692683e-004,-1.271210e-004
6.221072e-004,-1.094559e-004
5.397780e-004,-1.039456e-004
4.274666e-004,-1.057284e-004
2.827423e-004,-1.091317e-004
9.814982e-005,-1.081593e-004
-1.263107e-004,-9.973194e-005
-3.773498e-004,-8.611845e-005
-6.100755e-004,-7.218083e-005
-7.470207e-004,-6.002594e-005
-7.244936e-004,-4.981582e-005
-5.374703e-004,-3.798505e-005
-2.400805e-004,-2.356124e-005
8.664318e-005,-5.734056e-006
3.645853e-004,1.322759e-005
5.514466e-004,3.283749e-005
6.493342e-004,5.309566e-005
6.809369e-004,7.384002e-005
6.780197e-004,9.004655e-005
6.689441e-004,9.701536e-005
6.671614e-004,9.620504e-005
6.710509e-004,9.361199e-005
6.731578e-004,9.879808e-005
6.798024e-004,1.138702e-004
7.149707e-004,1.381800e-004
7.906552e-004,1.655690e-004
8.929186e-004,1.916615e-004
9.890234e-004,2.132162e-004
1.054336e-003,2.297469e-004
1.078808e-003,2.407673e-004
1.064546e-003,2.457913e-004
1.018195e-003,2.440086e-004
9.465622e-004,2.365536e-004
8.520781e-004,2.278021e-004
7.357151e-004,2.205092e-004
6.028214e-004,2.174299e-004
4.613383e-004,2.174299e-004
3.102934e-004,2.196988e-004
1.453108e-004,2.226160e-004
-2.631635e-005,2.231022e-004
-1.900023e-004,2.196988e-004
-3.272716e-004,2.138645e-004
-4.280762e-004,2.054371e-004
-4.893369e-004,1.955511e-004
-5.162397e-004,1.882582e-004
-5.141329e-004,1.812893e-004
-4.859335e-004,1.725378e-004
-4.314796e-004,1.611932e-004
-3.441264e-004,1.475797e-004
-2.233878e-004,1.329939e-004
-8.401160e-005,1.161391e-004
5.082674e-005,9.701536e-005
1.603829e-004,7.675720e-005
2.342847e-004,5.747142e-005
2.686426e-004,4.013043e-005
2.602152e-004,2.732727e-005
2.203471e-004,1.727922e-005
1.641104e-004,8.041497e-006
1.135460e-004,1.396819e-006
8.664318e-005,-4.761664e-006
9.312580e-005,-1.740276e-005
1.333180e-004,-3.652646e-005
1.979821e-004,-5.905355e-005
2.718839e-004,-7.947377e-005
3.326584e-004,-9.730096e-005
3.593992e-004,-1.126972e-004
3.493511e-004,-1.287416e-004
3.111037e-004,-1.464067e-004
2.571359e-004,-1.622891e-004
1.996027e-004,-1.736337e-004
1.420695e-004,-1.812508e-004
8.550872e-005,-1.882196e-004
3.478228e-005,-1.959987e-004
-6.868513e-006,-2.029675e-004
-3.976777e-005,-2.083157e-004
-7.201877e-005,-2.088019e-004
-1.208004e-004,-2.042641e-004
-1.974573e-004,-1.963229e-004
-2.945344e-004,-1.851404e-004
-3.959873e-004,-1.702304e-004
-4.862577e-004,-1.559686e-004
-5.518941e-004,-1.442999e-004
-5.833348e-004,-1.355484e-004
-5.771763e-004,-1.284175e-004
-5.399013e-004,-1.188556e-004
-4.938748e-004,-1.042698e-004
-4.564377e-004,-8.336335e-005
-4.355313e-004,-6.326724e-005
-4.331002e-004,-4.819517e-005
-4.342347e-004,-3.749886e-005
-4.266177e-004,-2.745081e-005
-3.964735e-004,-1.578211e-005
-3.335922e-004,-2.006553e-006
-2.417012e-004,1.371378e-005
-1.336036e-004,3.445814e-005
-3.198864e-005,5.682316e-005
4.483033e-005,7.432621e-005
8.242948e-005,8.842590e-005
7.805372e-005,1.009049e-004
3.218923e-005,1.107909e-004
-5.143648e-005,1.190562e-004
-1.571031e-004,1.300767e-004
-2.608248e-004,1.441764e-004
-3.262992e-004,1.586002e-004
-3.248407e-004,1.731861e-004
-2.504527e-004,1.897167e-004
-1.276072e-004,2.086784e-004
4.313994e-006,2.295848e-004
1.088461e-004,2.478982e-004
1.574657e-004,2.602152e-004
1.488763e-004,2.649151e-004
9.847395e-005,2.641047e-004
2.927205e-005,2.634565e-004
-3.685060e-005,2.658874e-004
-8.903562e-005,2.676702e-004
-1.261486e-004,2.663737e-004
-1.441378e-004,2.628082e-004
-1.434896e-004,2.560015e-004
-1.287416e-004,2.482223e-004
-1.054042e-004,2.399570e-004
-8.303922e-005,2.315296e-004
-6.683268e-005,2.231022e-004
-5.678463e-005,2.145127e-004
-4.673658e-005,2.030061e-004
-3.587821e-005,1.864754e-004
-2.615429e-005,1.652449e-004
-1.983374e-005,1.427178e-004
-1.529591e-005,1.237561e-004
-1.173047e-005,1.103047e-004
-8.327101e-006,1.015532e-004
-2.330684e-006,9.182927e-005
5.772582e-006,7.983644e-005
1.792748e-005,6.411610e-005
3.154097e-005,4.580272e-005
4.272347e-005,2.473423e-005
4.547859e-005,1.558884e-006
3.802358e-005,-2.080613e-005
2.473423e-005,-4.284701e-005
1.598270e-005,-6.586029e-005
1.727922e-005,-8.790117e-005
2.359977e-005,-1.057284e-004
2.992031e-005,-1.199901e-004
3.543054e-005,-1.326312e-004
3.932010e-005,-1.475412e-004
4.013043e-005,-1.645581e-004
3.867184e-005,-1.817370e-004
3.316162e-005,-1.959987e-004
2.716521e-005,-2.062088e-004
2.084466e-005,-2.149604e-004
1.371378e-005,-2.271153e-004
7.879432e-006,-2.402425e-004
2.045080e-006,-2.481838e-004
-4.113403e-006,-2.475355e-004
-1.237873e-005,-2.420253e-004
-1.918548e-005,-2.329496e-004
-2.226472e-005,-2.233878e-004
-1.821308e-005,-2.156086e-004
-2.168618e-006,-2.073433e-004
2.408596e-005,-1.976194e-004
5.455425e-005,-1.895161e-004
7.756752e-005,-1.840059e-004
8.680524e-005,-1.788198e-004
8.178122e-005,-1.702304e-004
6.103686e-005,-1.567789e-004
2.424803e-005,-1.412206e-004
-1.821308e-005,-1.224211e-004
-5.159854e-005,-1.034594e-004
-6.602235e-005,-8.903562e-005
-6.180866e-005,-8.028410e-005
-4.219875e-005,-7.558420e-005
-1.027188e-005,-6.829127e-005
2.797553e-005,-5.095028e-005
6.589881e-005,-2.307504e-005
9.344993e-005,7.069105e-006
1.059290e-004,3.283749e-005
1.038221e-004,5.520250e-005
9.928428e-005,7.821578e-005
1.017153e-004,1.038221e-004
1.107909e-004,1.287802e-004
1.205148e-004,1.498487e-004
1.278078e-004,1.637863e-004
1.278078e-004,1.738343e-004
1.172735e-004,1.817755e-004
1.004187e-004,1.859892e-004
8.550872e-005,1.871237e-004
7.886404e-005,1.882582e-004
7.902610e-005,1.961994e-004
8.032264e-005,2.128921e-004
7.708133e-005,2.349330e-004
7.643307e-005,2.563256e-004
8.080883e-005,2.730183e-004
9.166720e-005,2.816078e-004
1.070634e-004,2.829043e-004
1.201907e-004,2.775562e-004
1.302388e-004,2.681563e-004
1.365593e-004,2.579462e-004
1.391524e-004,2.525981e-004
1.329939e-004,2.537325e-004
1.197045e-004,2.555152e-004
1.028497e-004,2.516257e-004
8.939829e-005,2.431983e-004
8.518459e-005,2.310434e-004
8.907416e-005,2.177540e-004
9.847395e-005,2.099749e-004
1.133840e-004,2.093267e-004
1.321835e-004,2.085163e-004
1.462832e-004,2.017096e-004
1.571416e-004,1.869616e-004
1.676758e-004,1.683241e-004
1.775618e-004,1.459591e-004
1.782101e-004,1.234320e-004
1.665414e-004,1.047945e-004
1.474177e-004,9.020862e-005
1.297526e-004,7.740546e-005
1.128978e-004,6.217132e-005
9.069481e-005,4.402000e-005
6.200925e-005,2.716521e-005
2.846173e-005,1.387585e-005
-7.030578e-006,3.503668e-006
-3.847125e-005,-6.544382e-006
-6.035007e-005,-1.918548e-005
-7.623246e-005,-3.604027e-005
-8.676672e-005,-5.646050e-005
-9.162867e-005,-7.671866e-005
-7.817725e-005,-9.681477e-005
-2.291298e-005,-1.161005e-004
8.583286e-005,-1.336036e-004
2.274780e-004,-1.515928e-004
3.649094e-004,-1.681235e-004
4.702519e-004,-1.835197e-004
5.402642e-004,-2.000504e-004
5.856425e-004,-2.186879e-004
6.195141e-004,-2.355427e-004
6.467411e-004,-2.460769e-004
6.592202e-004,-2.449425e-004
6.404206e-004,-2.324634e-004
5.840218e-004,-2.133397e-004
4.999099e-004,-1.922712e-004
3.984569e-004,-1.707166e-004
2.892249e-004,-1.501342e-004
1.778860e-004,-1.352242e-004
5.698522e-005,-1.282554e-004
-8.773911e-005,-1.274451e-004
-2.694143e-004,-1.280934e-004
-4.961436e-004,-1.284175e-004
-7.423208e-004,-1.280934e-004
-9.445783e-004,-1.248521e-004
-1.041331e-003,-1.211246e-004
-1.013132e-003,-1.172350e-004
-8.818590e-004,-1.138316e-004
-7.018045e-004,-1.131834e-004
-5.355255e-004,-1.170729e-004
-4.272659e-004,-1.224211e-004
-3.899909e-004,-1.238797e-004
-4.029561e-004,-1.172350e-004
-4.296969e-004,-1.018388e-004
-4.437966e-004,-8.433573e-005
-4.381243e-004,-6.715681e-005
-4.181903e-004,-5.030202e-005
-3.993907e-004,-3.474375e-005
-4.002010e-004,-2.096820e-005
-4.272659e-004,-8.813297e-006
-4.668098e-004,7.879432e-006
-4.977643e-004,3.462021e-005
-4.976023e-004,7.189524e-005
-4.510895e-004,1.171115e-004
-3.588744e-004,1.613553e-004
-2.384598e-004,1.960373e-004
-1.062146e-004,2.169437e-004
2.424803e-005,2.281262e-004
1.414213e-004,2.308813e-004
2.396328e-004,2.303951e-004
3.158036e-004,2.303951e-004
3.678266e-004,2.346088e-004
3.984569e-004,2.448189e-004
4.096394e-004,2.590807e-004
4.026706e-004,2.733424e-004
3.819262e-004,2.819319e-004
3.597233e-004,2.837146e-004
3.449753e-004,2.835526e-004
3.428685e-004,2.858215e-004
3.545372e-004,2.926282e-004
3.756057e-004,3.002453e-004
3.971604e-004,3.038107e-004
4.135290e-004,3.002453e-004
4.247115e-004,2.876042e-004
4.297355e-004,2.684805e-004
4.284390e-004,2.487085e-004
4.192013e-004,2.302331e-004
3.994293e-004,2.125679e-004
3.700955e-004,1.940925e-004
3.415720e-004,1.752929e-004
3.274723e-004,1.571416e-004
3.337929e-004,1.383420e-004
3.603715e-004,1.177597e-004
3.984569e-004,9.717743e-005
4.375147e-004,7.935024e-005
4.632831e-004,6.330578e-005
4.603659e-004,4.612685e-005
4.193634e-004,3.040651e-005
3.386548e-004,2.100672e-005
2.231022e-004,1.630683e-005
9.231547e-005,9.824215e-006
-2.793700e-005,-3.627206e-006
-1.128592e-004,-2.647842e-005
-1.520790e-004,-5.435365e-005
-1.465688e-004,-8.125649e-005
-1.055663e-004,-1.036215e-004
-4.706071e-005,-1.208004e-004
1.419998e-005,-1.316588e-004
6.719535e-005,-1.370070e-004
1.005808e-004,-1.405724e-004
1.098185e-004,-1.452723e-004
9.685330e-005,-1.468929e-004
7.011252e-005,-1.439758e-004
3.899597e-005,-1.384655e-004
8.851824e-006,-1.379794e-004
-1.740276e-005,-1.426792e-004
-2.939559e-005,-1.460826e-004
-3.951337e-006,-1.452723e-004
9.166720e-005,-1.404103e-004
2.790148e-004,-1.350622e-004
5.446399e-004,-1.327933e-004
8.588848e-004,-1.334415e-004
1.175723e-003,-1.340898e-004
1.438431e-003,-1.334415e-004
1.590449e-003,-1.331174e-004
1.592070e-003,-1.334415e-004
1.433893e-003,-1.329553e-004
1.137638e-003,-1.282554e-004
7.465734e-004,-1.152902e-004
3.115899e-004,-9.243900e-005
-1.266348e-004,-6.602235e-005
-5.436288e-004,-4.236082e-005
-9.278856e-004,-2.339918e-005
-1.274867e-003,-8.651231e-006
-1.591381e-003,7.069105e-006
-1.886664e-003,2.489629e-005
-2.159096e-003,4.402000e-005
-2.389715e-003,6.119892e-005
-2.561667e-003,7.400208e-005
-2.667496e-003,8.161915e-005
-2.693913e-003,9.085688e-005
-2.602994e-003,1.103047e-004
-2.357626e-003,1.388282e-004
-1.951814e-003,1.728619e-004
-1.430774e-003,2.064095e-004
-8.684076e-004,2.333123e-004
-3.384541e-004,2.490327e-004
1.056048e-004,2.519498e-004
4.360561e-004,2.446569e-004
6.456067e-004,2.346088e-004
7.449528e-004,2.276400e-004
7.595387e-004,2.226160e-004
7.258290e-004,2.187264e-004
6.731578e-004,2.145127e-004
6.268070e-004,2.049509e-004
5.997422e-004,1.931201e-004
5.926113e-004,1.822617e-004
6.003904e-004,1.728619e-004
6.130316e-004,1.624898e-004
6.209727e-004,1.522796e-004
6.183797e-004,1.446626e-004
6.029835e-004,1.402868e-004
5.785116e-004,1.363972e-004
5.490156e-004,1.279698e-004
5.175750e-004,1.128978e-004
4.931031e-004,9.280167e-005
4.843516e-004,7.286763e-005
4.906721e-004,5.552663e-005
5.010443e-004,4.191315e-005
5.007202e-004,3.218923e-005
4.827309e-004,2.343770e-005
4.546936e-004,1.468618e-005
4.203358e-004,3.503668e-006
3.793332e-004,-1.205460e-005
3.354135e-004,-3.069211e-005
2.973281e-004,-4.641245e-005
2.726942e-004,-5.727083e-005
2.632944e-004,-6.116039e-005
2.602152e-004,-6.148453e-005
2.524360e-004,-6.456377e-005
2.360674e-004,-7.331530e-005
2.180782e-004,-8.806324e-005
2.073819e-004,-1.076731e-004
2.051129e-004,-1.290658e-004
2.083542e-004,-1.522411e-004
2.081922e-004,-1.713648e-004
1.947408e-004,-1.831956e-004
1.644345e-004,-1.870851e-004
1.239182e-004,-1.859507e-004
8.875003e-005,-1.818991e-004
6.573675e-005,-1.737958e-004
5.828175e-005,-1.634236e-004
6.281957e-005,-1.512687e-004
7.319176e-005,-1.412206e-004
8.534666e-005,-1.342519e-004
1.015532e-004,-1.331174e-004
1.185701e-004,-1.418689e-004
1.326697e-004,-1.585616e-004
1.391524e-004,-1.768750e-004
1.420695e-004,-1.893541e-004
1.462832e-004,-1.906506e-004
1.548727e-004,-1.841680e-004
1.610312e-004,-1.750923e-004
1.548727e-004,-1.643960e-004
1.305629e-004,-1.520790e-004
8.858796e-005,-1.384655e-004
3.040651e-005,-1.219349e-004
-5.030202e-005,-9.924574e-005
-1.621271e-004,-7.120844e-005
-3.118754e-004,-4.041603e-005
-4.904714e-004,-1.010982e-005
-6.528608e-004,1.808955e-005
-7.419967e-004,4.353380e-005
-7.206041e-004,6.217132e-005
-5.922483e-004,7.367795e-005
-3.993907e-004,8.080883e-005
-2.031296e-004,8.729144e-005
-5.176061e-005,9.620504e-005
3.786152e-005,1.064152e-004
7.853991e-005,1.172735e-004
9.020862e-005,1.281319e-004
9.069481e-005,1.380179e-004
9.166720e-005,1.495245e-004
1.025256e-004,1.641104e-004
1.258630e-004,1.830721e-004
1.561692e-004,2.026820e-004
1.814514e-004,2.218057e-004
1.887444e-004,2.388225e-004
1.738343e-004,2.501671e-004
1.441764e-004,2.535705e-004
1.218114e-004,2.504913e-004
1.295905e-004,2.483844e-004
1.752929e-004,2.480603e-004
2.449810e-004,2.511395e-004
3.135347e-004,2.545429e-004
3.585888e-004,2.535705e-004
3.618301e-004,2.472499e-004
3.172622e-004,2.389846e-004
2.389846e-004,2.342847e-004
1.511452e-004,2.331503e-004
6.654708e-005,2.310434e-004
-1.237873e-005,2.214815e-004
-8.854943e-005,2.031682e-004
-1.679614e-004,1.796687e-004
-2.478596e-004,1.577899e-004
-3.248407e-004,1.430419e-004
-3.966356e-004,1.354248e-004
-4.536825e-004,1.263492e-004
-4.946851e-004,1.093323e-004
-5.240189e-004,8.405014e-005
-5.512458e-004,5.649903e-005
-5.826865e-004,3.170304e-005
-6.214201e-004,1.290346e-005
-6.661501e-004,-3.858999e-007
-7.116905e-004,-1.156841e-005
-7.353520e-004,-2.291298e-005
-7.082871e-004,-3.312309e-005
-6.139652e-004,-4.122636e-005
-4.582204e-004,-4.544006e-005
-2.755728e-004,-4.949169e-005
-1.047560e-004,-5.694670e-005
3.267542e-005,-6.764301e-005
1.281319e-004,-8.222889e-005
1.842065e-004,-1.000561e-004
2.112714e-004,-1.191798e-004
2.201850e-004,-1.332795e-004
2.195368e-004,-1.396000e-004
2.149989e-004,-1.397621e-004
2.085163e-004,-1.410586e-004
2.021958e-004,-1.454344e-004
1.970097e-004,-1.478653e-004
1.981441e-004,-1.451102e-004
2.051129e-004,-1.421931e-004
2.146748e-004,-1.433275e-004
2.279642e-004,-1.470550e-004
2.550291e-004,-1.493239e-004
3.136967e-004,-1.475412e-004
4.078567e-004,-1.412206e-004
5.264886e-004,-1.327933e-004
6.417171e-004,-1.266348e-004
7.250187e-004,-1.253383e-004
7.652109e-004,-1.282554e-004
7.656972e-004,-1.308485e-004
7.352289e-004,-1.318209e-004
6.857989e-004,-1.227452e-004
6.227554e-004,-1.003802e-004
5.433434e-004,-7.056019e-005
4.391353e-004,-4.495386e-005
3.065659e-004,-2.550602e-005
1.435281e-004,-7.516774e-006
-4.673658e-005,9.986281e-006
-2.528836e-004,2.635488e-005
-4.640547e-004,4.207521e-005
-6.726327e-004,5.876794e-005
-8.729455e-004,7.448828e-005
-1.052028e-003,8.534666e-005
-1.181680e-003,9.215340e-005
-1.222682e-003,9.393612e-005
-1.145215e-003,9.328786e-005
-9.504127e-004,9.604298e-005
-6.680949e-004,1.046324e-004
-3.467195e-004,1.211631e-004
-3.911951e-005,1.436902e-004
2.221298e-004,1.691344e-004
4.180668e-004,1.952270e-004
5.460985e-004,2.196988e-004
6.130316e-004,2.396328e-004
6.358828e-004,2.529222e-004
6.303725e-004,2.582704e-004
6.117350e-004,2.579462e-004
5.872631e-004,2.566497e-004
5.590637e-004,2.556773e-004
5.240576e-004,2.576221e-004
4.768966e-004,2.615117e-004
4.117463e-004,2.660495e-004
3.321722e-004,2.662116e-004
2.383363e-004,2.598910e-004
1.307250e-004,2.493568e-004
1.630683e-005,2.376881e-004
-9.162867e-005,2.263435e-004
-1.767130e-004,2.156472e-004
-2.232257e-004,2.030061e-004
-2.227395e-004,1.876099e-004
-1.734716e-004,1.714034e-004
-8.530812e-005,1.571416e-004
2.311357e-005,1.459591e-004
1.289422e-004,1.370455e-004
2.104611e-004,1.271595e-004
2.571359e-004,1.133840e-004
2.764217e-004,9.555677e-005
2.783665e-004,7.432621e-005
2.723701e-004,5.341979e-005
2.613496e-004,3.332369e-005
2.456293e-004,1.436204e-005
2.255332e-004,-3.858999e-007
2.015475e-004,-9.623623e-006
1.702689e-004,-1.659243e-005
1.363972e-004,-2.307504e-005
1.072255e-004,-2.907146e-005
8.340187e-005,-3.701266e-005
6.508849e-005,-4.754691e-005
4.855783e-005,-6.326724e-005
2.959619e-005,-8.384954e-005
8.365628e-006,-1.075111e-004
-1.205460e-005,-1.324691e-004
-2.890940e-005,-1.564548e-004
-4.868137e-005,-1.747682e-004
-7.655660e-005,-1.846542e-004
-1.148040e-004,-1.880575e-004
-1.536997e-004,-1.909747e-004
-1.793060e-004,-1.968091e-004
-1.864369e-004,-2.034537e-004
-1.794681e-004,-2.084778e-004
-1.671511e-004,-2.104225e-004
-1.470550e-004,-2.091260e-004
-1.167488e-004,-2.045882e-004
-7.201877e-005,-1.968091e-004
-1.286493e-005,-1.896782e-004
5.617490e-005,-1.862748e-004
1.295905e-004,-1.864369e-004
1.926339e-004,-1.870851e-004
2.316917e-004,-1.864369e-004
2.440086e-004,-1.823853e-004
2.378501e-004,-1.778474e-004
2.229401e-004,-1.729855e-004
2.060853e-004,-1.642339e-004
1.827479e-004,-1.475412e-004
1.493625e-004,-1.233935e-004
1.099806e-004,-9.341139e-005
7.205730e-005,-6.278104e-005
3.575467e-005,-3.117831e-005
3.503668e-006,1.883015e-006
-2.129233e-005,3.267542e-005
-3.474375e-005,5.633696e-005
-4.203669e-005,7.059871e-005
-5.483985e-005,7.870197e-005
-8.206682e-005,8.696731e-005
-1.211246e-004,9.620504e-005
-1.637477e-004,1.054428e-004
-2.029675e-004,1.133840e-004
-2.395943e-004,1.214872e-004
-2.750866e-004,1.315353e-004
-3.063652e-004,1.422316e-004
-3.269475e-004,1.547106e-004
-3.316474e-004,1.694586e-004
-3.159271e-004,1.890685e-004
-2.827037e-004,2.124059e-004
-2.378116e-004,2.331503e-004
-1.903264e-004,2.472499e-004
-1.441378e-004,2.517878e-004
-1.083214e-004,2.485465e-004
-9.179074e-005,2.406053e-004
-9.227693e-005,2.308813e-004
-1.058904e-004,2.208333e-004
-1.242038e-004,2.104611e-004
-1.368449e-004,2.004130e-004
-1.365208e-004,1.903650e-004
-1.238797e-004,1.824238e-004
-9.859748e-005,1.809652e-004
-6.391550e-005,1.845306e-004
-2.631635e-005,1.887444e-004
8.041497e-006,1.898788e-004
3.753739e-005,1.855030e-004
6.978839e-005,1.738343e-004
1.187321e-004,1.539003e-004
1.911753e-004,1.295905e-004
2.775562e-004,1.056048e-004
3.566440e-004,8.793970e-005
4.123946e-004,7.400208e-005
4.427008e-004,5.957827e-005
4.521006e-004,4.029250e-005
4.452938e-004,1.873781e-005
4.321665e-004,-2.330684e-006
4.154738e-004,-2.048200e-005
3.906778e-004,-3.360929e-005
3.503235e-004,-4.381940e-005
2.910076e-004,-5.338126e-005
2.096508e-004,-6.294311e-005
1.070634e-004,-7.007399e-005
-1.140634e-005,-7.282909e-005
-1.407345e-004,-7.315322e-005
-2.681178e-004,-7.396356e-005
-3.841565e-004,-7.817725e-005
-4.841508e-004,-8.692878e-005
-5.606457e-004,-1.015147e-004
-6.037550e-004,-1.199901e-004
-6.078067e-004,-1.379794e-004
-5.750695e-004,-1.499722e-004
-5.154294e-004,-1.561307e-004
-4.379622e-004,-1.575893e-004
-3.499608e-004,-1.554824e-004
-2.525595e-004,-1.517549e-004
-1.536997e-004,-1.504584e-004
-6.553616e-005,-1.515928e-004
1.883015e-006,-1.533756e-004
4.612685e-005,-1.566169e-004
7.432621e-005,-1.575893e-004
9.442231e-005,-1.549962e-004
1.096565e-004,-1.535376e-004
1.167873e-004,-1.532135e-004
1.122495e-004,-1.519170e-004
9.896015e-005,-1.485136e-004
7.691926e-005,-1.438137e-004
5.471631e-005,-1.363587e-004
4.564065e-005,-1.243659e-004
6.087479e-005,-1.075111e-004
9.539470e-005,-8.871149e-005
1.336421e-004,-7.023606e-005
1.592484e-004,-4.932962e-005
1.730240e-004,-2.129233e-005
1.769136e-004,1.419998e-005
1.702689e-004,5.098881e-005
1.537382e-004,8.226741e-005
1.326697e-004,1.065772e-004
1.221355e-004,1.278078e-004
1.318594e-004,1.451488e-004
1.605450e-004,1.616794e-004
1.944166e-004,1.778860e-004
2.200230e-004,1.895547e-004
2.273159e-004,1.906891e-004
2.120818e-004,1.843686e-004
1.806411e-004,1.799928e-004
1.483901e-004,1.848548e-004
1.273216e-004,1.960373e-004
1.182459e-004,2.080301e-004
1.119254e-004,2.154851e-004
1.044704e-004,2.117576e-004
9.361199e-005,2.012234e-004
7.870197e-005,1.892305e-004
5.828175e-005,1.817755e-004
3.850978e-005,1.804790e-004
2.554455e-005,1.798307e-004
2.133085e-005,1.743205e-004
2.343770e-005,1.626518e-004
2.797553e-005,1.500107e-004
3.413401e-005,1.430419e-004
3.786152e-005,1.410971e-004
3.737532e-005,1.419075e-004
3.170304e-005,1.456350e-004
2.538249e-005,1.477418e-004
2.181705e-005,1.467694e-004
2.457216e-005,1.425557e-004
4.175109e-005,1.360731e-004
8.891209e-005,1.247285e-004
1.759412e-004,1.109530e-004
2.958695e-004,1.018773e-004
4.290873e-004,1.015532e-004
5.490156e-004,1.051186e-004
6.366931e-004,1.038221e-004
6.780197e-004,9.393612e-005
6.699165e-004,7.724339e-005
6.067110e-004,5.990240e-005
4.901859e-004,4.142696e-005
3.337929e-004,2.311357e-005
1.543865e-004,8.851824e-006
-3.879538e-005,2.369211e-006
-2.415391e-004,1.002961e-007
-4.322899e-004,-2.006553e-006
-5.768522e-004,-3.465141e-006
-6.424887e-004,-6.706447e-006
-6.223925e-004,-1.302700e-005
-5.371462e-004,-2.599222e-005
-4.316416e-004,-4.625038e-005
-3.509331e-004,-6.958779e-005
-3.256510e-004,-8.822530e-005
-3.536883e-004,-9.713889e-005
-4.083043e-004,-9.778715e-005
-4.616237e-004,-9.405965e-005
-4.940368e-004,-9.098041e-005
-4.894990e-004,-9.341139e-005
-4.452552e-004,-1.018388e-004
-3.708672e-004,-1.128592e-004
-2.755728e-004,-1.237176e-004
-1.663408e-004,-1.327933e-004
-5.921561e-005,-1.370070e-004
3.251336e-005,-1.323071e-004
1.033359e-004,-1.216107e-004
1.577899e-004,-1.112386e-004
2.086784e-004,-1.045939e-004
2.709115e-004,-1.044318e-004
3.469201e-004,-1.063766e-004
4.261701e-004,-1.060525e-004
4.958582e-004,-1.041077e-004
5.454503e-004,-9.989401e-005
5.658705e-004,-9.454585e-005
5.488536e-004,-8.741498e-005
4.961824e-004,-7.736692e-005
4.175806e-004,-6.586029e-005
3.375204e-004,-5.257093e-005
2.769079e-004,-3.506788e-005
2.487085e-004,-1.318906e-005
2.422259e-004,8.203562e-006
2.323399e-004,2.619281e-005
2.023578e-004,4.013043e-005
1.501728e-004,5.163707e-005
7.578480e-005,6.314371e-005
-2.258885e-005,7.529860e-005
-1.363587e-004,8.664318e-005
-2.415391e-004,9.636710e-005
-2.959930e-004,1.056048e-004
-2.655248e-004,1.125736e-004
-1.520790e-004,1.198666e-004
5.772582e-006,1.331559e-004
1.574657e-004,1.517934e-004
2.713977e-004,1.728619e-004
3.467581e-004,1.923098e-004
3.942432e-004,2.085163e-004
4.221185e-004,2.179161e-004
4.316803e-004,2.196988e-004
4.179048e-004,2.184023e-004
3.781987e-004,2.198609e-004
3.135347e-004,2.234263e-004
2.255332e-004,2.269918e-004
1.107909e-004,2.279642e-004
-3.425755e-005,2.295848e-004
-2.084778e-004,2.308813e-004
-4.053871e-004,2.302331e-004
-6.155858e-004,2.266676e-004
-8.304843e-004,2.205092e-004
-1.038252e-003,2.151610e-004
-1.201938e-003,2.098128e-004
-1.267574e-003,2.033302e-004
-1.203559e-003,1.950649e-004
-1.021883e-003,1.830721e-004
-7.757063e-004,1.684862e-004
-5.303394e-004,1.506590e-004
-3.282440e-004,1.325077e-004
-1.596961e-004,1.138702e-004
1.176900e-005,9.555677e-005
2.088404e-004,7.562274e-005
4.211461e-004,5.390598e-005
6.140039e-004,3.429608e-005
7.567836e-004,1.792748e-005
8.355473e-004,1.234753e-006
8.452713e-004,-1.821308e-005
7.888725e-004,-4.009191e-005
6.859610e-004,-5.646050e-005
5.592257e-004,-6.569822e-005
4.333010e-004,-6.910160e-005
3.308757e-004,-7.088431e-005
2.574601e-004,-7.671866e-005
2.055991e-004,-9.114248e-005
1.602208e-004,-1.123730e-004
9.733949e-005,-1.376552e-004
-1.092015e-005,-1.621271e-004
-1.817370e-004,-1.809267e-004
-4.068457e-004,-1.911368e-004
-6.548056e-004,-1.947022e-004
-8.726213e-004,-1.934057e-004
-1.000329e-003,-1.895161e-004
-1.000329e-003,-1.859507e-004
-8.859106e-004,-1.853024e-004
-7.056941e-004,-1.906506e-004
-5.102433e-004,-1.987538e-004
-3.342404e-004,-2.015090e-004
-1.898403e-004,-1.972953e-004
-7.266703e-005,-1.875713e-004
2.522042e-005,-1.784957e-004
1.109530e-004,-1.750923e-004
1.924718e-004,-1.767130e-004
2.699391e-004,-1.799543e-004
3.404375e-004,-1.843300e-004
4.008879e-004,-1.856265e-004
4.499937e-004,-1.789819e-004
4.867825e-004,-1.618029e-004
5.154681e-004,-1.384655e-004
5.410745e-004,-1.149661e-004
5.624671e-004,-9.568031e-005
5.767288e-004,-7.850138e-005
5.825632e-004,-5.581224e-005
5.767288e-004,-2.712668e-005
5.514466e-004,5.864920e-007
5.060683e-004,2.116879e-005
4.448076e-004,3.235129e-005
3.798194e-004,4.061663e-005
3.221241e-004,5.147500e-005
2.762596e-004,6.719535e-005
2.472499e-004,8.226741e-005
2.491947e-004,9.263960e-005
2.906835e-004,9.960841e-005
3.639370e-004,1.093323e-004
4.461041e-004,1.258630e-004
5.109303e-004,1.482280e-004
5.439916e-004,1.694586e-004
5.469088e-004,1.817755e-004
5.266506e-004,1.829100e-004
4.919686e-004,1.799928e-004
4.441593e-004,1.796687e-004
3.820883e-004,1.859892e-004
2.995970e-004,1.989545e-004
1.889064e-004,2.143507e-004
4.920609e-005,2.256952e-004
-1.128592e-004,2.265056e-004
-2.849726e-004,2.188885e-004
-4.459034e-004,2.098128e-004
-5.815520e-004,2.033302e-004
-6.828429e-004,2.012234e-004
-7.379451e-004,2.028440e-004
-7.293556e-004,2.077060e-004
-6.522125e-004,2.120818e-004
-5.191569e-004,2.098128e-004
-3.510952e-004,1.976579e-004
-1.674752e-004,1.791825e-004
1.598270e-005,1.602208e-004
1.812893e-004,1.462832e-004
3.080245e-004,1.368834e-004
3.833848e-004,1.326697e-004
4.125566e-004,1.302388e-004
3.999155e-004,1.235941e-004
3.433547e-004,1.083599e-004
2.430362e-004,8.712937e-005
1.111150e-004,6.670914e-005
-3.555408e-005,5.309566e-005
-1.935677e-004,4.871989e-005
-3.661673e-004,4.920609e-005
-5.612939e-004,4.726130e-005
-7.808923e-004,4.094075e-005
-1.014915e-003,3.186510e-005
-1.234837e-003,2.165498e-005
-1.399496e-003,1.371378e-005
-1.460594e-003,8.851824e-006
-1.384910e-003,4.962256e-006
-1.175035e-003,-2.654814e-006
-8.744040e-004,-1.529591e-005
-5.415219e-004,-3.296103e-005
-2.348944e-004,-5.273300e-005
7.485573e-007,-7.266703e-005
1.459591e-004,-9.243900e-005
2.111094e-004,-1.079973e-004
2.232643e-004,-1.206384e-004
2.192126e-004,-1.327933e-004
2.205092e-004,-1.449482e-004
2.323399e-004,-1.551583e-004
2.508154e-004,-1.634236e-004
2.738286e-004,-1.715269e-004
3.012177e-004,-1.802784e-004
3.287688e-004,-1.900023e-004
3.522683e-004,-1.963229e-004
3.666921e-004,-1.950263e-004
3.697714e-004,-1.851404e-004
3.660439e-004,-1.703924e-004
3.610198e-004,-1.551583e-004
3.516200e-004,-1.410586e-004
3.326584e-004,-1.269589e-004
3.039728e-004,-1.115627e-004
2.725321e-004,-9.811128e-005
2.485465e-004,-8.838737e-005
2.394708e-004,-7.914964e-005
2.474120e-004,-6.423963e-005
2.655633e-004,-4.479180e-005
2.783665e-004,-2.291298e-005
2.777182e-004,-8.720959e-007
2.647530e-004,2.246531e-005
2.435224e-004,4.628891e-005
2.166196e-004,6.914012e-005
1.869616e-004,8.745350e-005
1.566554e-004,1.018773e-004
1.367214e-004,1.119254e-004
1.321835e-004,1.184080e-004
1.372076e-004,1.219734e-004
1.430419e-004,1.231079e-004
1.438522e-004,1.248906e-004
1.381800e-004,1.287802e-004
1.299146e-004,1.370455e-004
1.253768e-004,1.495245e-004
1.247285e-004,1.624898e-004
1.231079e-004,1.773998e-004
1.158149e-004,1.957132e-004
9.928428e-005,2.153231e-004
8.145709e-005,2.321778e-004
7.659513e-005,2.454672e-004
1.015532e-004,2.545429e-004
1.615174e-004,2.569738e-004
2.464396e-004,2.540567e-004
3.331446e-004,2.487085e-004
4.010500e-004,2.431983e-004
4.436732e-004,2.393087e-004
4.579349e-004,2.363916e-004
4.469145e-004,2.305572e-004
4.153117e-004,2.211574e-004
3.678266e-004,2.109473e-004
3.101313e-004,1.997648e-004
2.469258e-004,1.876099e-004
1.749688e-004,1.718896e-004
9.685330e-005,1.514693e-004
1.403791e-005,1.292664e-004
-7.639453e-005,1.096565e-004
-1.870851e-004,9.652917e-005
-3.309991e-004,8.907416e-005
-4.992229e-004,8.194328e-005
-6.596675e-004,7.238143e-005
-7.786234e-004,6.103686e-005
-8.374532e-004,4.645098e-005
-8.387497e-004,2.700314e-005
-8.029332e-004,1.234753e-006
-7.444277e-004,-2.647842e-005
-6.677708e-004,-5.321920e-005
-5.682627e-004,-7.380149e-005
-4.454172e-004,-8.806324e-005
-3.065273e-004,-9.730096e-005
-1.676373e-004,-1.029732e-004
-4.608832e-005,-1.099421e-004
4.726130e-005,-1.227452e-004
1.052807e-004,-1.405724e-004
1.313732e-004,-1.637477e-004
1.373696e-004,-1.890299e-004
1.394765e-004,-2.071812e-004
1.479039e-004,-2.122053e-004
1.641104e-004,-2.081536e-004
1.842065e-004,-2.003745e-004
2.023578e-004,-1.953505e-004
2.138645e-004,-1.937298e-004
2.140265e-004,-1.948643e-004
1.978200e-004,-1.961608e-004
1.722137e-004,-1.969711e-004
1.576278e-004,-1.943781e-004
1.744826e-004,-1.864369e-004
2.313675e-004,-1.733096e-004
3.182346e-004,-1.603444e-004
4.104497e-004,-1.493239e-004
4.862963e-004,-1.399241e-004
5.300540e-004,-1.314967e-004
5.412365e-004,-1.216107e-004
5.311884e-004,-1.131834e-004
5.195198e-004,-1.036215e-004
5.099580e-004,-9.276313e-005
4.934272e-004,-7.833932e-005
4.597176e-004,-6.245691e-005
4.127187e-004,-4.884343e-005
3.704196e-004,-3.701266e-005
3.448133e-004,-2.518189e-005
3.242310e-004,-1.092015e-005
2.960316e-004,6.582909e-006
2.548670e-004,2.927205e-005
1.968476e-004,5.520250e-005
1.219734e-004,8.097089e-005
3.559260e-005,1.044704e-004
-6.359137e-005,1.239182e-004
-1.827094e-004,1.370455e-004
-3.250027e-004,1.422316e-004
-4.872300e-004,1.456350e-004
-6.561021e-004,1.543865e-004
-8.210845e-004,1.689724e-004
-9.756948e-004,1.887444e-004
-1.101295e-003,2.102990e-004
-1.163529e-003,2.281262e-004
-1.126091e-003,2.401191e-004
-9.784499e-004,2.453052e-004
-7.491275e-004,2.464396e-004
-4.930644e-004,2.477361e-004
-2.676316e-004,2.529222e-004
-1.071869e-004,2.594049e-004
-1.383732e-005,2.608634e-004
3.850978e-005,2.577842e-004
8.064677e-005,2.508154e-004
1.310491e-004,2.409294e-004
1.866375e-004,2.339606e-004
2.286124e-004,2.342847e-004
2.459534e-004,2.397949e-004
2.346088e-004,2.470879e-004
2.017096e-004,2.535705e-004
1.568175e-004,2.542187e-004
1.140322e-004,2.451431e-004
8.453633e-005,2.302331e-004
6.703327e-005,2.143507e-004
5.925414e-005,1.989545e-004
6.071273e-005,1.827479e-004
6.281957e-005,1.657311e-004
5.358185e-005,1.469315e-004
2.797553e-005,1.229458e-004
-9.785688e-006,9.247754e-005
-4.349527e-005,5.957827e-005
-5.240886e-005,2.781346e-005
-2.356124e-005,2.693341e-006
3.964424e-005,-1.545797e-005
1.218114e-004,-3.296103e-005
1.974959e-004,-5.435365e-005
2.456293e-004,-7.963584e-005
2.632944e-004,-1.062146e-004
2.582704e-004,-1.300382e-004
2.428742e-004,-1.468929e-004
2.260194e-004,-1.561307e-004
2.124059e-004,-1.635857e-004
2.010613e-004,-1.746061e-004
1.934442e-004,-1.893541e-004
1.866375e-004,-2.047502e-004
1.754550e-004,-2.194982e-004
1.513072e-004,-2.327876e-004
1.096565e-004,-2.410529e-004
5.455425e-005,-2.446183e-004
-2.654814e-006,-2.454286e-004
-4.333321e-005,-2.464010e-004
-5.872941e-005,-2.498044e-004
-5.257093e-005,-2.551526e-004
-3.296103e-005,-2.596904e-004
-1.682422e-006,-2.551526e-004
3.850978e-005,-2.410529e-004
8.080883e-005,-2.241981e-004
1.190562e-004,-2.094502e-004
1.432040e-004,-1.981056e-004
1.469315e-004,-1.869231e-004
1.341283e-004,-1.734716e-004
1.184080e-004,-1.595340e-004
1.120874e-004,-1.459206e-004
1.205148e-004,-1.319829e-004
1.402868e-004,-1.149661e-004
1.692965e-004,-9.373552e-005
2.124059e-004,-6.910160e-005
2.785285e-004,-4.349527e-005
3.712299e-004,-2.145439e-005
4.756001e-004,-3.465141e-006
5.585775e-004,1.436204e-005
5.945560e-004,3.656499e-005
5.762426e-004,6.298164e-005
5.054200e-004,9.037068e-005
3.903536e-004,1.154908e-004
2.521119e-004,1.329939e-004
1.175977e-004,1.410971e-004
2.369211e-006,1.435281e-004
-8.790117e-005,1.453108e-004
-1.585616e-004,1.506590e-004
-2.251705e-004,1.623277e-004
-2.929138e-004,1.788584e-004
-3.569296e-004,2.002510e-004
-4.146248e-004,2.252090e-004
-4.632444e-004,2.477361e-004
-5.035987e-004,2.675081e-004
-5.241810e-004,2.863077e-004
-5.027883e-004,3.028383e-004
-4.245108e-004,3.167760e-004
-2.998826e-004,3.279585e-004
-1.549962e-004,3.352514e-004
-1.351319e-005,3.378445e-004
1.025256e-004,3.315239e-004
1.736723e-004,3.177483e-004
1.978200e-004,2.999212e-004
1.850168e-004,2.830664e-004
1.534141e-004,2.702632e-004
1.190562e-004,2.644289e-004
9.344993e-005,2.644289e-004
8.939829e-005,2.681563e-004
1.044704e-004,2.717218e-004
1.240803e-004,2.701012e-004
1.325077e-004,2.585945e-004
1.206769e-004,2.365536e-004
8.858796e-005,2.062474e-004
4.564065e-005,1.756171e-004
-2.330684e-006,1.487142e-004
-4.835724e-005,1.234320e-004
-8.563225e-005,9.831188e-005
-1.070249e-004,7.416415e-005
-1.013526e-004,5.309566e-005
-6.667062e-005,3.802358e-005
-1.950961e-005,2.748934e-005
1.841368e-005,1.322759e-005
3.688912e-005,-5.896120e-006
3.607880e-005,-2.696461e-005
2.181705e-005,-4.592625e-005
-1.682422e-006,-5.856735e-005
-3.020592e-005,-6.618442e-005
-5.597430e-005,-7.412562e-005
-7.137051e-005,-8.919769e-005
-7.201877e-005,-1.141558e-004
-5.646050e-005,-1.430034e-004
-3.247483e-005,-1.694200e-004
-1.335113e-005,-1.909747e-004
-5.571990e-006,-2.058847e-004
-6.382317e-006,-2.120432e-004
-1.270286e-005,-2.115570e-004
-2.242678e-005,-2.139880e-004
-3.231277e-005,-2.232257e-004
-4.155049e-005,-2.365151e-004
-4.657452e-005,-2.486699e-004
-4.479180e-005,-2.549905e-004
-4.074016e-005,-2.538560e-004
-3.749886e-005,-2.468872e-004
-3.312309e-005,-2.381357e-004
-2.615429e-005,-2.329496e-004
-2.129233e-005,-2.310048e-004
-3.441962e-005,-2.282497e-004
-7.817725e-005,-2.199844e-004
-1.465688e-004,-2.076674e-004
-2.245222e-004,-1.924333e-004
-2.877277e-004,-1.788198e-004
-3.215994e-004,-1.668270e-004
-3.254889e-004,-1.532135e-004
-3.126857e-004,-1.353863e-004
-2.932379e-004,-1.144799e-004
-2.710350e-004,-9.130454e-005
-2.452666e-004,-6.780507e-005
-2.094502e-004,-4.689865e-005
-1.460826e-004,-3.036798e-005
-4.074016e-005,-1.610624e-005
1.039842e-004,-2.238346e-007
2.623220e-004,1.727922e-005
4.028327e-004,3.429608e-005
5.054200e-004,4.823370e-005
5.731634e-004,6.152305e-005
6.203245e-004,7.546067e-005
6.601926e-004,9.085688e-005
7.050846e-004,1.057669e-004
7.449528e-004,1.221355e-004
7.622938e-004,1.438522e-004
7.444666e-004,1.718896e-004
6.866092e-004,2.059233e-004
5.890459e-004,2.410915e-004
4.602039e-004,2.722080e-004
3.085106e-004,2.921420e-004
1.354248e-004,3.017039e-004
-5.727083e-005,3.057555e-004
-2.608248e-004,3.065659e-004
-4.475241e-004,3.021901e-004
-5.885208e-004,2.931144e-004
-6.734431e-004,2.773941e-004
-7.026148e-004,2.582704e-004
-6.807360e-004,2.406053e-004
-6.175305e-004,2.268297e-004
-5.241810e-004,2.177540e-004
-4.224039e-004,2.146748e-004
-3.402368e-004,2.192126e-004
-2.982619e-004,2.263435e-004
-3.015032e-004,2.299089e-004
-3.433161e-004,2.265056e-004
-4.050630e-004,2.192126e-004
-4.538446e-004,2.104611e-004
-4.591928e-004,2.002510e-004
-4.091146e-004,1.833962e-004
-3.126857e-004,1.577899e-004
-1.908126e-004,1.248906e-004
-6.715681e-005,9.263960e-005
4.142696e-005,6.897806e-005
1.349386e-004,5.439218e-005
2.457913e-004,4.304761e-005
4.347596e-004,3.235129e-005
7.316634e-004,1.873781e-005
1.096473e-003,-5.479652e-007
1.443131e-003,-2.226472e-005
1.688175e-003,-4.317115e-005
1.787683e-003,-5.937768e-005
1.749435e-003,-6.602235e-005
1.611517e-003,-6.715681e-005
1.411204e-003,-6.845333e-005
1.173130e-003,-7.380149e-005
9.036149e-004,-8.482193e-005
6.037938e-004,-1.029732e-004
2.809595e-004,-1.255003e-004
-4.916756e-005,-1.483515e-004
-3.651949e-004,-1.661787e-004
-6.578848e-004,-1.775233e-004
-9.483058e-004,-1.835197e-004
-1.284429e-003,-1.870851e-004
-1.694779e-003,-1.900023e-004
-2.170765e-003,-1.911368e-004
-2.650479e-003,-1.890299e-004
-3.012047e-003,-1.836818e-004
-3.113825e-003,-1.720131e-004
-2.873157e-003,-1.588858e-004
-2.324889e-003,-1.517549e-004
-1.598350e-003,-1.491618e-004
-8.554424e-004,-1.473791e-004
-2.345703e-004,-1.446240e-004
1.983062e-004,-1.366828e-004
4.506420e-004,-1.242038e-004
5.742979e-004,-1.120489e-004
6.269692e-004,-1.029732e-004
6.592202e-004,-9.081835e-005
6.947125e-004,-7.331530e-005
7.391184e-004,-5.386745e-005
7.840106e-004,-3.636440e-005
8.182063e-004,-1.999580e-005
8.293889e-004,-5.571990e-006
8.148030e-004,6.096713e-006
7.796348e-004,1.501031e-005
7.340944e-004,2.538249e-005
6.854748e-004,4.061663e-005
6.392861e-004,5.941620e-005
6.000663e-004,7.789165e-005
5.734875e-004,9.377406e-005
5.600362e-004,1.081979e-004
5.545259e-004,1.210010e-004
5.496639e-004,1.279698e-004
5.431813e-004,1.339663e-004
5.375090e-004,1.464453e-004
5.373470e-004,1.675138e-004
5.394538e-004,1.921477e-004
5.405883e-004,2.153231e-004
5.391297e-004,2.350950e-004
5.413986e-004,2.488706e-004
5.480433e-004,2.545429e-004
5.561466e-004,2.530843e-004
5.678153e-004,2.466017e-004
5.896941e-004,2.383363e-004
6.169211e-004,2.325020e-004
6.386379e-004,2.308813e-004
6.483617e-004,2.326641e-004
6.472273e-004,2.352571e-004
6.362069e-004,2.350950e-004
6.170832e-004,2.269918e-004
5.861287e-004,2.077060e-004
5.326470e-004,1.822617e-004
4.542074e-004,1.595726e-004
3.564820e-004,1.438522e-004
2.474120e-004,1.305629e-004
1.346145e-004,1.174356e-004
1.889987e-005,1.036600e-004
-1.096179e-004,9.328786e-005
-2.548284e-004,8.486046e-005
-4.204592e-004,7.756752e-005
-6.060239e-004,6.849186e-005
-8.082814e-004,5.601284e-005
-1.015887e-003,4.094075e-005
-1.209231e-003,2.441009e-005
-1.350714e-003,8.689758e-006
-1.400954e-003,-3.627206e-006
-1.341152e-003,-1.367526e-005
-1.182814e-003,-2.242678e-005
-9.661330e-004,-3.182657e-005
-7.442656e-004,-4.462973e-005
-5.475183e-004,-5.727083e-005
-3.815635e-004,-6.845333e-005
-2.384598e-004,-7.817725e-005
-1.060525e-004,-8.871149e-005
1.808955e-005,-1.054042e-004
1.276457e-004,-1.324691e-004
2.106232e-004,-1.658546e-004
2.535705e-004,-1.963229e-004
2.569738e-004,-2.164190e-004
2.422259e-004,-2.229016e-004
2.337985e-004,-2.170672e-004
2.423880e-004,-2.039399e-004
2.736666e-004,-1.938919e-004
3.214759e-004,-1.904885e-004
3.807918e-004,-1.896782e-004
4.386491e-004,-1.895161e-004
4.824068e-004,-1.875713e-004
5.047718e-004,-1.840059e-004
5.059062e-004,-1.778474e-004
4.909963e-004,-1.666649e-004
4.593935e-004,-1.522411e-004
4.025085e-004,-1.384655e-004
3.198552e-004,-1.259865e-004
2.190506e-004,-1.146419e-004
1.174356e-004,-1.039456e-004
2.667901e-005,-9.114248e-005
-4.349527e-005,-7.185670e-005
-8.854943e-005,-4.770897e-005
-9.778715e-005,-2.437157e-005
-6.456377e-005,-6.706447e-006
4.638125e-006,3.341602e-006
8.356394e-005,8.365628e-006
1.438522e-004,1.306552e-005
1.680000e-004,2.408596e-005
1.590864e-004,4.158902e-005
1.347766e-004,6.233338e-005
1.077117e-004,8.113296e-005
8.226741e-005,9.296373e-005
6.022653e-005,9.669123e-005
4.580272e-005,9.588091e-005
3.591673e-005,9.636710e-005
2.278944e-005,1.000946e-004
6.258778e-006,1.083599e-004
-1.124428e-005,1.216493e-004
-3.134038e-005,1.394765e-004
-5.662256e-005,1.576278e-004
-8.919769e-005,1.731861e-004
-1.272830e-004,1.869616e-004
-1.618029e-004,1.989545e-004
-1.786577e-004,2.081922e-004
-1.760647e-004,2.166196e-004
-1.603444e-004,2.231022e-004
-1.415448e-004,2.243987e-004
-1.292278e-004,2.198609e-004
-1.282554e-004,2.090025e-004
-1.394379e-004,1.944166e-004
-1.634236e-004,1.809652e-004
-1.940539e-004,1.746447e-004
-2.219292e-004,1.801549e-004
-2.408908e-004,1.958752e-004
-2.496423e-004,2.156472e-004
-2.417012e-004,2.305572e-004
-2.125294e-004,2.359054e-004
-1.692580e-004,2.305572e-004
-1.214487e-004,2.177540e-004
-8.352541e-005,2.031682e-004
-6.586029e-005,1.916615e-004
-7.282909e-005,1.822617e-004
-1.067007e-004,1.736723e-004
-1.618029e-004,1.650828e-004
-2.241981e-004,1.522796e-004
-2.750866e-004,1.287802e-004
-2.974516e-004,9.669123e-005
-2.823795e-004,6.703327e-005
-2.382978e-004,4.450620e-005
-1.893541e-004,3.008238e-005
-1.530514e-004,2.165498e-005
-1.284175e-004,1.695509e-005
-1.057284e-004,1.095867e-005
-7.914964e-005,3.989864e-006
-4.932962e-005,-4.113403e-006
-2.420950e-005,-1.286493e-005
-9.137427e-006,-2.307504e-005
-6.176923e-008,-3.587821e-005
1.063454e-005,-5.662256e-005
2.489629e-005,-8.352541e-005
4.434413e-005,-1.152902e-004
6.200925e-005,-1.441378e-004
7.400208e-005,-1.637477e-004
8.113296e-005,-1.742820e-004
8.842590e-005,-1.818991e-004
1.038221e-004,-1.925954e-004
1.315353e-004,-2.060468e-004
1.663793e-004,-2.182017e-004
1.965235e-004,-2.248464e-004
2.156472e-004,-2.206326e-004
2.278021e-004,-2.032917e-004
2.440086e-004,-1.767130e-004
2.759355e-004,-1.540238e-004
3.287688e-004,-1.425172e-004
3.969983e-004,-1.408965e-004
4.660382e-004,-1.430034e-004
5.224369e-004,-1.446240e-004
5.558224e-004,-1.441378e-004
5.673291e-004,-1.408965e-004
5.702463e-004,-1.363587e-004
5.751082e-004,-1.324691e-004
5.783495e-004,-1.243659e-004
5.590637e-004,-1.081593e-004
4.987754e-004,-8.498399e-005
3.898674e-004,-5.808115e-005
2.384984e-004,-3.263690e-005
6.168512e-005,-1.140634e-005
-1.122110e-004,6.258778e-006
-2.598524e-004,2.311357e-005
-3.734602e-004,3.802358e-005
-4.632444e-004,5.179914e-005
-5.480045e-004,6.638502e-005
-6.452437e-004,7.983644e-005
-7.703581e-004,8.891209e-005
-9.235098e-004,9.490851e-005
-1.083468e-003,9.993253e-005
-1.217172e-003,1.091703e-004
-1.291884e-003,1.266733e-004
-1.280216e-003,1.498487e-004
-1.175197e-003,1.764274e-004
-9.962771e-004,2.065715e-004
-7.758683e-004,2.367157e-004
-5.381186e-004,2.615117e-004
-2.958309e-004,2.770700e-004
-5.273300e-005,2.838767e-004
1.808031e-004,2.837146e-004
3.879227e-004,2.785285e-004
5.563086e-004,2.692908e-004
6.749405e-004,2.572980e-004
7.349047e-004,2.433604e-004
7.402529e-004,2.252090e-004
7.219395e-004,2.031682e-004
7.319876e-004,1.788584e-004
8.112376e-004,1.545486e-004
9.554758e-004,1.359110e-004
1.118028e-003,1.273216e-004
1.242170e-003,1.265113e-004
1.281228e-003,1.268354e-004
1.219805e-003,1.214872e-004
1.077835e-003,1.096565e-004
8.956737e-004,9.782569e-005
7.117294e-004,8.826383e-005
5.441537e-004,7.918817e-005
3.871123e-004,6.962632e-005
2.268297e-004,6.281957e-005
6.476436e-005,5.925414e-005
-8.255302e-005,5.666109e-005
-2.071812e-004,5.115087e-005
-3.191683e-004,4.223728e-005
-4.395829e-004,3.073064e-005
-5.831727e-004,1.808955e-005
-7.475069e-004,6.907040e-006
-9.170272e-004,-2.654814e-006
-1.051379e-003,-1.059602e-005
-1.096433e-003,-1.562004e-005
-1.014428e-003,-1.869928e-005
-8.139537e-004,-2.210265e-005
-5.415219e-004,-2.907146e-005
-2.554767e-004,-3.830919e-005
-5.734056e-006,-5.273300e-005
1.814514e-004,-7.412562e-005
2.973281e-004,-1.007043e-004
3.454615e-004,-1.248521e-004
3.456236e-004,-1.386276e-004
3.203414e-004,-1.418689e-004
2.863077e-004,-1.394379e-004
2.550291e-004,-1.365208e-004
2.333123e-004,-1.345760e-004
2.184023e-004,-1.373311e-004
2.109473e-004,-1.470550e-004
2.109473e-004,-1.596961e-004
2.132162e-004,-1.682856e-004
2.153231e-004,-1.749302e-004
2.169437e-004,-1.814128e-004
2.198609e-004,-1.877334e-004
2.216436e-004,-1.940539e-004
2.185644e-004,-2.011848e-004
2.044647e-004,-2.084778e-004
1.829100e-004,-2.120432e-004
1.620036e-004,-2.092881e-004
1.477418e-004,-1.958367e-004
1.420695e-004,-1.718510e-004
1.441764e-004,-1.412206e-004
1.474177e-004,-1.083214e-004
1.422316e-004,-7.947377e-005
1.235941e-004,-5.743289e-005
9.426025e-005,-4.155049e-005
6.492643e-005,-2.728874e-005
4.531652e-005,-1.124428e-005
3.802358e-005,5.448452e-006
4.045456e-005,2.214118e-005
4.256141e-005,4.142696e-005
3.656499e-005,6.217132e-005
2.554455e-005,8.064677e-005
1.176900e-005,9.636710e-005
1.234753e-006,1.124116e-004
-5.896120e-006,1.291043e-004
-7.840905e-006,1.435281e-004
-7.516774e-006,1.564933e-004
-2.978945e-006,1.725378e-004
8.527692e-006,1.926339e-004
2.133085e-005,2.162954e-004
2.732727e-005,2.415777e-004
2.376183e-005,2.673460e-004
1.322759e-005,2.871180e-004
3.989864e-006,2.991108e-004
2.623614e-007,3.036487e-004
4.244267e-007,3.010556e-004
-1.196227e-006,2.965178e-004
-6.058186e-006,2.880904e-004
-8.327101e-006,2.764217e-004
-7.192643e-006,2.668598e-004
-4.923729e-006,2.618358e-004
-5.409925e-006,2.616738e-004
-8.651231e-006,2.641047e-004
-1.578211e-005,2.663737e-004
-2.404744e-005,2.671840e-004
-3.604027e-005,2.621599e-004
-5.548811e-005,2.493568e-004
-7.882551e-005,2.310434e-004
-1.057284e-004,2.109473e-004
-1.327933e-004,1.944166e-004
-1.580754e-004,1.837203e-004
-1.768750e-004,1.748067e-004
-1.869231e-004,1.657311e-004
-1.880575e-004,1.548727e-004
-1.789819e-004,1.398006e-004
-1.590478e-004,1.187321e-004
-1.342519e-004,9.344993e-005
-1.104282e-004,6.849186e-005
-9.357346e-005,4.580272e-005
-8.514606e-005,2.149292e-005
-7.623246e-005,-5.571990e-006
-5.743289e-005,-3.134038e-005
-2.842320e-005,-4.916756e-005
1.371378e-005,-5.240886e-005
8.842590e-005,-4.819517e-005
2.065715e-004,-4.981582e-005
3.605336e-004,-6.634648e-005
5.237334e-004,-9.260107e-005
6.650545e-004,-1.209625e-004
7.598628e-004,-1.475412e-004
7.948689e-004,-1.669890e-004
7.754210e-004,-1.786577e-004
7.188602e-004,-1.843300e-004
6.446343e-004,-1.872472e-004
5.634395e-004,-1.896782e-004
4.767345e-004,-1.888679e-004
3.743092e-004,-1.870851e-004
2.402811e-004,-1.867610e-004
6.071273e-005,-1.898403e-004
-1.710407e-004,-1.969711e-004
-4.491447e-004,-2.068571e-004
-7.604721e-004,-2.186879e-004
-1.076337e-003,-2.287359e-004
-1.360924e-003,-2.306807e-004
-1.581333e-003,-2.225774e-004
-1.701099e-003,-2.091260e-004
-1.698020e-003,-1.938919e-004
-1.569664e-003,-1.763888e-004
-1.336128e-003,-1.583996e-004
-1.038900e-003,-1.418689e-004
-7.338934e-004,-1.256624e-004
-4.653512e-004,-1.079973e-004
-2.556388e-004,-8.935975e-005
-1.049180e-004,-6.958779e-005
1.063454e-005,-4.965376e-005
1.120874e-004,-3.231277e-005
1.986303e-004,-1.805102e-005
2.597290e-004,-7.354709e-006
2.900352e-004,-5.479652e-007
2.939248e-004,7.231170e-006
2.877662e-004,2.116879e-005
2.906835e-004,4.256141e-005
3.060797e-004,6.362991e-005
3.266619e-004,7.594687e-005
3.431926e-004,8.080883e-005
3.493511e-004,8.502253e-005
3.504856e-004,9.539470e-005
3.610198e-004,1.151667e-004
3.999155e-004,1.388282e-004
4.707381e-004,1.611932e-004
5.627912e-004,1.806411e-004
6.559788e-004,1.961994e-004
7.311772e-004,2.049509e-004
7.760693e-004,2.062474e-004
7.927621e-004,2.057612e-004
7.797969e-004,2.088404e-004
7.365254e-004,2.128921e-004
6.879058e-004,2.099749e-004
6.773715e-004,2.034923e-004
7.410632e-004,1.997648e-004
8.773603e-004,2.030061e-004
1.044774e-003,2.125679e-004
1.190633e-003,2.231022e-004
1.270855e-003,2.276400e-004
1.261456e-003,2.234263e-004
1.165189e-003,2.164575e-004
1.002799e-003,2.107852e-004
8.019998e-004,2.062474e-004
5.825632e-004,2.013854e-004
3.542131e-004,1.942546e-004
1.210010e-004,1.840444e-004
-1.096179e-004,1.739964e-004
-3.311612e-004,1.603829e-004
-5.510838e-004,1.386662e-004
-7.792717e-004,1.062531e-004
-1.022856e-003,6.832980e-005
-1.279891e-003,3.364782e-005
-1.529472e-003,4.638125e-006
-1.735943e-003,-2.048200e-005
-1.866730e-003,-3.976777e-005
-1.909353e-003,-5.192267e-005
-1.876940e-003,-5.516398e-005
-1.801256e-003,-5.257093e-005
-1.710175e-003,-4.722278e-005
-1.605805e-003,-4.544006e-005
-1.469184e-003,-4.949169e-005
-1.278271e-003,-6.229485e-005
-1.029338e-003,-8.465986e-005
-7.429690e-004,-1.104282e-004
-4.476861e-004,-1.326312e-004
-1.671511e-004,-1.477033e-004
8.210535e-005,-1.548341e-004
2.853353e-004,-1.595340e-004
4.362182e-004,-1.640719e-004
5.357263e-004,-1.679614e-004
5.872631e-004,-1.705545e-004
6.023352e-004,-1.699062e-004
5.926113e-004,-1.663408e-004
5.689497e-004,-1.621271e-004
5.388056e-004,-1.600202e-004
5.057442e-004,-1.590478e-004
4.723587e-004,-1.592099e-004
4.474007e-004,-1.647201e-004
4.337872e-004,-1.705545e-004
4.316803e-004,-1.750923e-004
4.363802e-004,-1.762268e-004
4.533971e-004,-1.715269e-004
4.896998e-004,-1.624512e-004
5.443158e-004,-1.498101e-004
6.018490e-004,-1.373311e-004
6.456067e-004,-1.225832e-004
6.666752e-004,-1.083214e-004
6.658648e-004,-9.568031e-005
6.503066e-004,-8.303922e-005
6.302104e-004,-6.440170e-005
6.117350e-004,-3.685060e-005
5.833735e-004,-5.409925e-006
5.209784e-004,2.376183e-005
4.130428e-004,4.483033e-005
2.652392e-004,5.698522e-005
9.750156e-005,6.654708e-005
-6.245691e-005,7.999851e-005
-1.947022e-004,9.879808e-005
-2.929138e-004,1.156529e-004
-3.648708e-004,1.247285e-004
-4.134903e-004,1.284560e-004
-4.392588e-004,1.339663e-004
-4.429862e-004,1.469315e-004
-4.245108e-004,1.660552e-004
-3.836704e-004,1.880961e-004
-3.154408e-004,2.101370e-004
-2.117191e-004,2.299089e-004
-7.299116e-005,2.478982e-004
8.826383e-005,2.624841e-004
2.435224e-004,2.717218e-004
3.718782e-004,2.725321e-004
4.574487e-004,2.641047e-004
4.995857e-004,2.490327e-004
5.034753e-004,2.363916e-004
4.820827e-004,2.341226e-004
4.485351e-004,2.427121e-004
4.143393e-004,2.561635e-004
3.845193e-004,2.673460e-004
3.720403e-004,2.726942e-004
4.161220e-004,2.731804e-004
5.449640e-004,2.697770e-004
7.363633e-004,2.641047e-004
9.266282e-004,2.521119e-004
1.050284e-003,2.404432e-004
1.070380e-003,2.320158e-004
9.862683e-004,2.245608e-004
8.217718e-004,2.138645e-004
6.097901e-004,1.952270e-004
3.790091e-004,1.649207e-004
1.493625e-004,1.271595e-004
-6.877746e-005,9.020862e-005
-2.711970e-004,6.103686e-005
-4.630823e-004,4.288554e-005
-6.475127e-004,3.186510e-005
-8.246500e-004,2.019640e-005
-9.964393e-004,4.151929e-006
-1.165960e-003,-1.545797e-005
-1.334994e-003,-3.685060e-005
-1.502731e-003,-5.483985e-005
-1.653128e-003,-6.910160e-005
-1.740481e-003,-8.352541e-005
-1.704827e-003,-1.015147e-004
-1.517317e-003,-1.279313e-004
-1.200966e-003,-1.611547e-004
-8.210845e-004,-1.922712e-004
-4.530343e-004,-2.151224e-004
-1.540238e-004,-2.266291e-004
5.682316e-005,-2.287359e-004
1.952270e-004,-2.276015e-004
2.903593e-004,-2.259808e-004
3.605336e-004,-2.267911e-004
4.151496e-004,-2.303566e-004
4.550177e-004,-2.334358e-004
4.791655e-004,-2.339220e-004
4.896998e-004,-2.290601e-004
4.880791e-004,-2.198223e-004
4.751139e-004,-2.099363e-004
4.527488e-004,-2.036158e-004
4.294114e-004,-2.029675e-004
4.138531e-004,-2.044261e-004
4.059119e-004,-2.011848e-004
3.918123e-004,-1.888679e-004
3.574544e-004,-1.681235e-004
3.002453e-004,-1.439758e-004
2.328261e-004,-1.190177e-004
1.744826e-004,-9.746302e-005
1.419075e-004,-7.963584e-005
1.404489e-004,-6.423963e-005
1.663793e-004,-4.770897e-005
2.078681e-004,-2.453363e-005
2.511395e-004,6.907040e-006
2.814457e-004,3.721326e-005
2.901973e-004,6.022653e-005
2.806354e-004,7.627100e-005
2.649151e-004,9.004655e-005
2.517878e-004,1.002567e-004
2.438466e-004,1.078737e-004
2.334744e-004,1.138702e-004
2.062474e-004,1.201907e-004
1.581140e-004,1.297526e-004
9.507057e-005,1.464453e-004
3.137890e-005,1.680000e-004
-1.059602e-005,1.927960e-004
-1.383732e-005,2.143507e-004
2.295151e-005,2.308813e-004
8.307774e-005,2.409294e-004
1.441764e-004,2.487085e-004
1.882582e-004,2.587566e-004
2.222919e-004,2.710735e-004
2.704253e-004,2.812837e-004
3.511338e-004,2.892249e-004
4.610142e-004,2.926282e-004
5.783495e-004,2.874421e-004
6.694303e-004,2.757735e-004
7.005468e-004,2.641047e-004
6.491721e-004,2.558394e-004
5.200059e-004,2.503292e-004
3.365480e-004,2.466017e-004
1.255389e-004,2.423880e-004
-9.211487e-005,2.372019e-004
-2.977757e-004,2.318537e-004
-4.732924e-004,2.266676e-004
-6.105618e-004,2.208333e-004
-7.220627e-004,2.109473e-004
-8.329154e-004,1.984683e-004
-9.690502e-004,1.822617e-004
-1.137598e-003,1.624898e-004
-1.325270e-003,1.396385e-004
-1.512617e-003,1.146805e-004
-1.666903e-003,8.761557e-005
-1.738050e-003,6.022653e-005
-1.683596e-003,3.543054e-005
-1.496249e-003,1.614476e-005
-1.204369e-003,7.555301e-006
-8.612768e-004,8.365628e-006
-5.209396e-004,1.160693e-005
-2.206326e-004,6.096713e-006
1.906194e-005,-8.002969e-006
2.004130e-004,-2.550602e-005
3.454615e-004,-4.106429e-005
4.835413e-004,-5.338126e-005
6.332897e-004,-6.991193e-005
7.908173e-004,-9.470791e-005
9.420244e-004,-1.272830e-004
1.074270e-003,-1.609926e-004
1.176371e-003,-1.878955e-004
1.239253e-003,-2.002124e-004
1.252866e-003,-1.987538e-004
1.206839e-003,-1.904885e-004
1.097769e-003,-1.835197e-004
9.352177e-004,-1.807646e-004
7.399287e-004,-1.812508e-004
5.285954e-004,-1.840059e-004
3.044590e-004,-1.891920e-004
5.990240e-005,-1.964849e-004
-1.883817e-004,-2.032917e-004
-3.942046e-004,-2.073433e-004
-5.104054e-004,-2.039399e-004
-5.238568e-004,-1.989159e-004
-4.645409e-004,-1.987538e-004
-3.852910e-004,-2.010227e-004
-3.365093e-004,-1.998883e-004
-3.415334e-004,-1.921092e-004
-3.977700e-004,-1.814128e-004
-4.739407e-004,-1.682856e-004
-5.266119e-004,-1.548341e-004
-5.164018e-004,-1.389517e-004
-4.326141e-004,-1.178833e-004
-2.922655e-004,-9.405965e-005
-1.293899e-004,-7.137051e-005
2.181705e-005,-5.062615e-005
1.419075e-004,-3.198864e-005
2.237505e-004,-1.221667e-005
2.744769e-004,7.879432e-006
3.033245e-004,2.797553e-005
3.172622e-004,4.807163e-005
3.203414e-004,6.687121e-005
3.148312e-004,8.323981e-005
3.085106e-004,9.636710e-005
3.107795e-004,1.070634e-004
3.216380e-004,1.159770e-004
3.315239e-004,1.244044e-004
3.305515e-004,1.352628e-004
3.161277e-004,1.529279e-004
2.903593e-004,1.795066e-004
2.644289e-004,2.094887e-004
2.462775e-004,2.346088e-004
2.352571e-004,2.491947e-004
2.276400e-004,2.540567e-004
2.174299e-004,2.527602e-004
2.038164e-004,2.517878e-004
1.858272e-004,2.503292e-004
1.662173e-004,2.474120e-004
1.474177e-004,2.427121e-004
1.318594e-004,2.365536e-004
1.169494e-004,2.321778e-004
1.009049e-004,2.325020e-004
9.004655e-005,2.367157e-004
8.680524e-005,2.410915e-004
9.118101e-005,2.410915e-004
9.636710e-005,2.326641e-004
9.766362e-005,2.158093e-004
9.588091e-005,1.940925e-004
9.085688e-005,1.741585e-004
7.821578e-005,1.577899e-004
5.811968e-005,1.436902e-004
3.429608e-005,1.287802e-004
1.436204e-005,1.083599e-004
3.827799e-006,8.405014e-005
3.503668e-006,6.233338e-005
1.063454e-005,4.547859e-005
2.197911e-005,3.235129e-005
3.543054e-005,2.392390e-005
4.871989e-005,2.035846e-005
5.520250e-005,1.873781e-005
5.050261e-005,1.403791e-005
3.705119e-005,3.827799e-006
2.100672e-005,-1.205460e-005
3.827799e-006,-2.923353e-005
-1.270286e-005,-4.219875e-005
-2.583016e-005,-5.224680e-005
-3.182657e-005,-6.245691e-005
-3.296103e-005,-7.574627e-005
-3.847125e-005,-9.357346e-005
-5.289507e-005,-1.177212e-004
-7.477388e-005,-1.438137e-004
-1.007043e-004,-1.627754e-004
-1.251762e-004,-1.712027e-004
-1.420310e-004,-1.729855e-004
-1.533756e-004,-1.726613e-004
-1.676373e-004,-1.760647e-004
-1.891920e-004,-1.857886e-004
-2.152845e-004,-2.006986e-004
-2.381357e-004,-2.172293e-004
-2.499665e-004,-2.306807e-004
-2.486699e-004,-2.395943e-004
-2.337599e-004,-2.457528e-004
-2.028055e-004,-2.504527e-004
-1.524032e-004,-2.523975e-004
-8.611845e-005,-2.483458e-004
-9.461558e-006,-2.363530e-004
6.962632e-005,-2.170672e-004
1.454729e-004,-1.917850e-004
2.025199e-004,-1.658546e-004
2.344468e-004,-1.407345e-004
2.431983e-004,-1.149661e-004
2.430362e-004,-8.935975e-005
2.431983e-004,-6.650855e-005
2.509774e-004,-4.544006e-005
2.619979e-004,-2.469570e-005
2.647530e-004,-4.275467e-006
2.501671e-004,1.646890e-005
2.195368e-004,3.786152e-005
1.786963e-004,6.006447e-005
1.376938e-004,8.048470e-005
1.017153e-004,9.912221e-005
7.270556e-005,1.156529e-004
4.645098e-005,1.336421e-004
1.582063e-005,1.534141e-004
-1.837515e-005,1.730240e-004
-5.646050e-005,1.924718e-004
-9.908367e-005,2.133783e-004
-1.477033e-004,2.352571e-004
-1.972953e-004,2.571359e-004
-2.431597e-004,2.785285e-004
-2.802727e-004,2.963557e-004
-3.015032e-004,3.080245e-004
-3.013411e-004,3.111037e-004
-2.771934e-004,3.065659e-004
-2.358668e-004,2.978143e-004
-1.848162e-004,2.924662e-004
-1.306864e-004,2.929524e-004
-8.125649e-005,2.974902e-004
-4.057810e-005,2.970040e-004
-1.756482e-005,2.892249e-004
-1.578211e-005,2.795009e-004
-2.874733e-005,2.712356e-004
-4.625038e-005,2.626462e-004
-6.294311e-005,2.451431e-004
-7.250496e-005,2.151610e-004
-7.137051e-005,1.786963e-004
-5.743289e-005,1.446626e-004
-3.360929e-005,1.171115e-004
-1.237873e-005,9.490851e-005
-5.479652e-007,7.951231e-005
2.045080e-006,6.881599e-005
8.689758e-006,6.200925e-005
4.013043e-005,5.471631e-005
1.023635e-004,4.337174e-005
1.811273e-004,2.992031e-005
2.487085e-004,1.679302e-005
2.892249e-004,3.017472e-006
3.153174e-004,-1.432352e-005
3.564820e-004,-3.247483e-005
4.224426e-004,-4.997789e-005
4.979651e-004,-6.294311e-005
5.530673e-004,-7.201877e-005
5.700842e-004,-7.833932e-005
5.529052e-004,-8.174268e-005
5.216266e-004,-8.384954e-005
4.903480e-004,-8.822530e-005
4.571246e-004,-9.827335e-005
4.039671e-004,-1.154523e-004
3.094830e-004,-1.366828e-004
1.519555e-004,-1.532135e-004
-7.234290e-005,-1.640719e-004
-3.382920e-004,-1.674752e-004
-6.115342e-004,-1.652063e-004
-8.572251e-004,-1.590478e-004
-1.060617e-003,-1.532135e-004
-1.214903e-003,-1.480274e-004
-1.310522e-003,-1.434896e-004
-1.339207e-003,-1.376552e-004
-1.295288e-003,-1.293899e-004
-1.186056e-003,-1.203142e-004
-1.023666e-003,-1.133454e-004
-8.238396e-004,-1.092938e-004
-5.984068e-004,-1.076731e-004
-3.579019e-004,-1.088076e-004
-1.133454e-004,-1.128592e-004
1.240803e-004,-1.144799e-004
3.444891e-004,-1.068628e-004
5.417228e-004,-9.146661e-005
7.135121e-004,-7.833932e-005
8.533746e-004,-7.169464e-005
9.507760e-004,-7.218083e-005
9.929130e-004,-7.444975e-005
9.749237e-004,-6.715681e-005
8.981046e-004,-4.803310e-005
7.676419e-004,-1.950961e-005
5.913147e-004,1.452411e-005
3.820883e-004,4.466826e-005
1.509831e-004,6.557468e-005
-8.692878e-005,8.080883e-005
-3.104168e-004,9.231547e-005
-5.027883e-004,1.017153e-004
-6.627468e-004,1.135460e-004
-7.880232e-004,1.260251e-004
-8.554424e-004,1.376938e-004
-8.428013e-004,1.524417e-004
-7.431312e-004,1.733481e-004
-5.669662e-004,1.983062e-004
-3.405610e-004,2.192126e-004
-1.045939e-004,2.337985e-004
1.130598e-004,2.406053e-004
3.112658e-004,2.404432e-004
4.969927e-004,2.347709e-004
6.674855e-004,2.265056e-004
8.112376e-004,2.198609e-004
9.149595e-004,2.167816e-004
9.677928e-004,2.154851e-004
9.648756e-004,2.166196e-004
9.143112e-004,2.200230e-004
8.345750e-004,2.216436e-004
7.477079e-004,2.200230e-004
6.665131e-004,2.153231e-004
5.895320e-004,2.077060e-004
5.091476e-004,1.991165e-004
4.193634e-004,1.884202e-004
3.185587e-004,1.770756e-004
2.075439e-004,1.645966e-004
9.134307e-005,1.534141e-004
-3.685060e-005,1.474177e-004
-1.830335e-004,1.443384e-004
-3.384541e-004,1.396385e-004
-4.784786e-004,1.329939e-004
-5.745832e-004,1.260251e-004
-6.120203e-004,1.180839e-004
-5.917621e-004,1.064152e-004
-5.306636e-004,9.069481e-005
-4.496309e-004,7.157111e-005
-3.580640e-004,5.293359e-005
-2.582318e-004,3.494434e-005
-1.496481e-004,1.598270e-005
-4.122636e-005,-4.599598e-006
5.374392e-005,-2.631635e-005
1.218114e-004,-4.673658e-005
1.589243e-004,-6.035007e-005
1.778860e-004,-6.731888e-005
1.968476e-004,-7.234290e-005
2.255332e-004,-7.736692e-005
2.611876e-004,-8.692878e-005
2.974902e-004,-1.021629e-004
3.264999e-004,-1.235555e-004
3.464339e-004,-1.481895e-004
3.543751e-004,-1.689338e-004
3.462718e-004,-1.812508e-004
3.243930e-004,-1.859507e-004
2.994350e-004,-1.875713e-004
2.798251e-004,-1.906506e-004
2.715597e-004,-1.982676e-004
2.713977e-004,-2.049123e-004
2.647530e-004,-2.079916e-004
2.414156e-004,-2.081536e-004
2.038164e-004,-2.083157e-004
1.631380e-004,-2.099363e-004
1.331559e-004,-2.122053e-004
1.197045e-004,-2.146363e-004
1.190562e-004,-2.156086e-004
1.261871e-004,-2.146363e-004
1.304008e-004,-2.125294e-004
1.268354e-004,-2.073433e-004
1.174356e-004,-1.981056e-004
1.028497e-004,-1.869231e-004
8.323981e-005,-1.754164e-004
5.844381e-005,-1.627754e-004
3.137890e-005,-1.468929e-004
5.610517e-006,-1.250141e-004
-1.383732e-005,-9.600444e-005
-2.469570e-005,-6.294311e-005
-2.323711e-005,-3.296103e-005
-1.934754e-005,-9.947754e-006
-2.194059e-005,8.041497e-006
-3.117831e-005,2.441009e-005
-4.041603e-005,4.061663e-005
-4.851930e-005,5.747142e-005
-5.743289e-005,7.173317e-005
-6.650855e-005,8.178122e-005
-7.412562e-005,8.988449e-005
-8.093236e-005,9.766362e-005
-9.292520e-005,1.043083e-004
-1.157764e-004,1.127357e-004
-1.481895e-004,1.286181e-004
-1.720131e-004,1.513072e-004
-1.494860e-004,1.769136e-004
-4.932962e-005,2.025199e-004
1.240803e-004,2.284504e-004
3.247172e-004,2.522740e-004
4.906721e-004,2.675081e-004
5.749461e-004,2.720459e-004
5.642498e-004,2.692908e-004
4.725208e-004,2.647530e-004
3.294171e-004,2.597290e-004
1.686482e-004,2.550291e-004
9.175954e-006,2.503292e-004
-1.441378e-004,2.431983e-004
-2.885380e-004,2.292607e-004
-4.196489e-004,2.171058e-004
-5.309877e-004,2.098128e-004
-6.175305e-004,2.083542e-004
-6.886772e-004,2.077060e-004
-7.650100e-004,2.044647e-004
-8.669490e-004,2.002510e-004
-9.987081e-004,1.931201e-004
-1.145701e-003,1.822617e-004
-1.270492e-003,1.705930e-004
-1.312142e-003,1.608691e-004
-1.219927e-003,1.529279e-004
-9.873635e-004,1.446626e-004
-6.603158e-004,1.299146e-004
-3.113892e-004,1.075496e-004
-8.651231e-006,8.194328e-005
2.054371e-004,5.633696e-005
3.179104e-004,3.299956e-005
3.465960e-004,1.322759e-005
3.221241e-004,-1.682422e-006
2.739907e-004,-1.351319e-005
2.235884e-004,-2.453363e-005
1.799928e-004,-3.587821e-005
1.423936e-004,-4.349527e-005
1.083599e-004,-4.981582e-005
7.335383e-005,-6.132246e-005
3.543054e-005,-7.866345e-005
-8.165035e-006,-1.021629e-004
-5.548811e-005,-1.289037e-004
-1.023250e-004,-1.525652e-004
-1.452723e-004,-1.666649e-004
-1.746061e-004,-1.668270e-004
-1.749302e-004,-1.546721e-004
-1.423551e-004,-1.415448e-004
-8.903562e-005,-1.368449e-004
-2.907146e-005,-1.423551e-004
3.299956e-005,-1.527273e-004
9.069481e-005,-1.634236e-004
1.456350e-004,-1.695821e-004
1.979821e-004,-1.702304e-004
2.464396e-004,-1.677994e-004
2.911697e-004,-1.650443e-004
3.393030e-004,-1.613168e-004
3.950536e-004,-1.562927e-004
4.529109e-004,-1.535376e-004
5.023408e-004,-1.533756e-004
5.332953e-004,-1.527273e-004
5.402642e-004,-1.475412e-004
5.232473e-004,-1.383035e-004
4.838654e-004,-1.259865e-004
4.260080e-004,-1.109144e-004
3.603715e-004,-9.227693e-005
2.968419e-004,-6.877746e-005
2.415777e-004,-3.960571e-005
1.973338e-004,-8.002969e-006
1.662173e-004,2.262738e-005
1.501728e-004,5.212327e-005
1.490383e-004,7.853991e-005
1.573037e-004,1.007429e-004
1.704310e-004,1.145184e-004
1.819376e-004,1.195424e-004
1.799928e-004,1.208390e-004
1.539003e-004,1.221355e-004
1.025256e-004,1.265113e-004
3.218923e-005,1.360731e-004
-4.171256e-005,1.522796e-004
-1.002181e-004,1.725378e-004
-1.316588e-004,1.932822e-004
-1.353863e-004,2.088404e-004
-1.188556e-004,2.184023e-004
-9.276313e-005,2.234263e-004
-6.683268e-005,2.292607e-004
-4.268495e-005,2.391467e-004
-2.258885e-005,2.493568e-004
-3.303076e-006,2.576221e-004
1.954813e-005,2.571359e-004
5.082674e-005,2.451431e-004
9.199134e-005,2.235884e-004
1.396385e-004,2.000889e-004
1.866375e-004,1.803169e-004
2.347709e-004,1.697827e-004
2.824181e-004,1.739964e-004
3.255275e-004,1.900409e-004
3.537269e-004,2.099749e-004
3.555096e-004,2.281262e-004
3.277964e-004,2.381743e-004
2.822560e-004,2.380122e-004
2.286124e-004,2.258573e-004
1.775618e-004,2.030061e-004
1.398006e-004,1.769136e-004
1.214872e-004,1.563313e-004
1.156529e-004,1.412592e-004
1.096565e-004,1.292664e-004
9.685330e-005,1.167873e-004
6.978839e-005,1.013911e-004
2.797553e-005,8.307774e-005
-1.448558e-005,5.957827e-005
-5.078821e-005,2.894792e-005
-8.968389e-005,-7.030578e-006
-1.387897e-004,-4.365734e-005
-1.951884e-004,-7.396356e-005
-2.489941e-004,-9.146661e-005
-2.925897e-004,-1.000561e-004
-3.178718e-004,-1.041077e-004
-3.237062e-004,-1.065387e-004
-3.130099e-004,-1.091317e-004
-2.869174e-004,-1.172350e-004
-2.460769e-004,-1.316588e-004
-1.943781e-004,-1.488377e-004
-1.404103e-004,-1.647201e-004
-8.790117e-005,-1.767130e-004
-4.219875e-005,-1.817370e-004
-9.137427e-006,-1.828714e-004
6.744974e-006,-1.817370e-004
8.527692e-006,-1.802784e-004
4.962256e-006,-1.768750e-004
3.989864e-006,-1.699062e-004
1.274139e-005,-1.587237e-004
3.105477e-005,-1.459206e-004
5.390598e-005,-1.366828e-004
7.594687e-005,-1.347380e-004
9.490851e-005,-1.423551e-004
1.086841e-004,-1.558065e-004
1.132219e-004,-1.689338e-004
1.039842e-004,-1.752544e-004
8.518459e-005,-1.739578e-004
6.217132e-005,-1.629374e-004
4.126489e-005,-1.462447e-004
2.586868e-005,-1.321450e-004
1.306552e-005,-1.267968e-004
-8.720959e-007,-1.292278e-004
-1.497178e-005,-1.297140e-004
-2.599222e-005,-1.217728e-004
-3.506788e-005,-1.039456e-004
-4.219875e-005,-7.931171e-005
-4.689865e-005,-5.386745e-005
-5.257093e-005,-3.150244e-005
-6.148453e-005,-1.351319e-005
-6.991193e-005,-1.034161e-006
-7.218083e-005,6.420843e-006
-6.472583e-005,1.079661e-005
-5.856735e-005,1.630683e-005
-6.294311e-005,2.651694e-005
-7.331530e-005,3.964424e-005
-8.320128e-005,5.455425e-005
-8.725291e-005,7.108491e-005
-8.563225e-005,9.004655e-005
-7.882551e-005,1.111150e-004
-6.942573e-005,1.346145e-004
-6.180866e-005,1.563313e-004
-6.002594e-005,1.730240e-004
-6.278104e-005,1.855030e-004
-6.602235e-005,1.978200e-004
-6.180866e-005,2.145127e-004
-5.030202e-005,2.352571e-004
-3.263690e-005,2.511395e-004
-1.027188e-005,2.607014e-004
1.079661e-005,2.655633e-004
2.457216e-005,2.678322e-004
3.154097e-005,2.678322e-004
3.462021e-005,2.673460e-004
3.251336e-005,2.668598e-004
2.165498e-005,2.671840e-004
5.448452e-006,2.702632e-004
-8.813297e-006,2.748010e-004
-1.610624e-005,2.778803e-004
-1.140634e-005,2.760976e-004
2.855407e-006,2.658874e-004
1.889987e-005,2.485465e-004
3.218923e-005,2.310434e-004
4.061663e-005,2.125679e-004
4.158902e-005,1.958752e-004
3.040651e-005,1.808031e-004
6.096713e-006,1.657311e-004
-2.275091e-005,1.472556e-004
-4.544006e-005,1.231079e-004
-5.402952e-005,9.328786e-005
-4.317115e-005,6.314371e-005
-1.189254e-005,4.061663e-005
2.538249e-005,2.813760e-005
5.001642e-005,2.068259e-005
5.893001e-005,1.371378e-005
5.779555e-005,3.179537e-006
5.698522e-005,-1.010982e-005
6.362991e-005,-2.372331e-005
8.226741e-005,-3.571614e-005
1.138702e-004,-4.722278e-005
1.621656e-004,-6.051213e-005
2.297469e-004,-7.412562e-005
3.098072e-004,-8.919769e-005
3.901916e-004,-1.023250e-004
4.657141e-004,-1.131834e-004
5.268127e-004,-1.227452e-004
5.642498e-004,-1.332795e-004
5.765668e-004,-1.449482e-004
5.770530e-004,-1.543479e-004
5.783495e-004,-1.582375e-004
5.956905e-004,-1.572651e-004
6.511169e-004,-1.545100e-004
7.503009e-004,-1.536997e-004
8.771982e-004,-1.545100e-004
9.956681e-004,-1.558065e-004
1.064546e-003,-1.575893e-004
1.062601e-003,-1.580754e-004
9.867544e-004,-1.611547e-004
8.417058e-004,-1.647201e-004
