-4.569239e-004,-2.583016e-005
-4.619479e-004,-6.812920e-005
-4.386105e-004,-1.057284e-004
-3.648708e-004,-1.366828e-004
-2.382978e-004,-1.553203e-004
-8.060823e-005,-1.579134e-004
6.865393e-005,-1.525652e-004
1.754550e-004,-1.511067e-004
2.318537e-004,-1.556445e-004
2.504913e-004,-1.637477e-004
2.467637e-004,-1.718510e-004
2.286124e-004,-1.820611e-004
1.989545e-004,-1.958367e-004
1.613553e-004,-2.151224e-004
1.210010e-004,-2.347323e-004
8.356394e-005,-2.491561e-004
5.601284e-005,-2.546664e-004
3.786152e-005,-2.491561e-004
2.684107e-005,-2.324634e-004
1.614476e-005,-1.992400e-004
2.693341e-006,-1.340898e-004
-7.354709e-006,-9.623623e-006
-8.327101e-006,1.673517e-004
4.476060e-006,3.431926e-004
3.040651e-005,4.514523e-004
6.606088e-005,4.427008e-004
1.052807e-004,3.164518e-004
1.375317e-004,1.119254e-004
1.526038e-004,-1.130213e-004
1.477418e-004,-3.074997e-004
1.302388e-004,-4.418518e-004
1.159770e-004,-5.037607e-004
1.184080e-004,-5.019780e-004
1.376938e-004,-4.574101e-004
1.688103e-004,-3.951770e-004
2.057612e-004,-3.324577e-004
2.406053e-004,-2.788141e-004
2.602152e-004,-2.374874e-004
2.569738e-004,-2.060468e-004
2.268297e-004,-1.823853e-004
1.791825e-004,-1.665028e-004
1.257009e-004,-1.606685e-004
8.583286e-005,-1.590478e-004
6.670914e-005,-1.559686e-004
6.670914e-005,-1.464067e-004
7.886404e-005,-1.314967e-004
9.280167e-005,-1.139937e-004
9.831188e-005,-9.794922e-005
8.729144e-005,-8.320128e-005
5.730935e-005,-6.683268e-005
1.371378e-005,-4.560212e-005
-2.988179e-005,-1.691656e-005
-6.375344e-005,2.473423e-005
-8.628052e-005,8.048470e-005
-9.762509e-005,1.472556e-004
-9.665270e-005,2.153231e-004
-8.352541e-005,2.741528e-004
-5.872941e-005,3.190449e-004
-2.923353e-005,3.499994e-004
-1.156841e-005,3.702575e-004
-2.145439e-005,3.825745e-004
-6.586029e-005,3.929467e-004
-1.391138e-004,4.085050e-004
-2.237119e-004,4.308700e-004
-2.880518e-004,4.561522e-004
-3.037722e-004,4.811103e-004
-2.707109e-004,5.029891e-004
-2.041020e-004,5.211404e-004
-1.274451e-004,5.328091e-004
-5.694670e-005,5.345919e-004
-3.627206e-006,5.213025e-004
3.834771e-005,4.905101e-004
8.323981e-005,4.480489e-004
1.388282e-004,4.052637e-004
2.036544e-004,3.675024e-004
2.684805e-004,3.334687e-004
3.187208e-004,3.004074e-004
3.465960e-004,2.691288e-004
3.446512e-004,2.363916e-004
2.987867e-004,1.983062e-004
2.078681e-004,1.587623e-004
1.028497e-004,1.214872e-004
2.278944e-005,8.939829e-005
-8.002969e-006,6.103686e-005
1.403791e-005,3.575467e-005
7.351589e-005,1.355172e-005
1.412592e-004,-3.951337e-006
1.918236e-004,-1.902341e-005
2.117576e-004,-3.992984e-005
2.005751e-004,-7.299116e-005
1.636242e-004,-1.206384e-004
1.047945e-004,-1.822232e-004
3.170304e-005,-2.475355e-004
-3.668853e-005,-3.002067e-004
-8.190475e-005,-3.254889e-004
-1.029732e-004,-3.211132e-004
-1.096179e-004,-3.015032e-004
-1.133454e-004,-2.875656e-004
-1.190177e-004,-2.934000e-004
-1.293899e-004,-3.177098e-004
-1.498101e-004,-3.452609e-004
-1.927574e-004,-3.590364e-004
-2.668213e-004,-3.420196e-004
-3.653570e-004,-2.718453e-004
-4.674581e-004,-1.303623e-004
-5.556216e-004,5.844381e-005
-6.196374e-004,2.261814e-004
-6.478368e-004,3.065659e-004
-6.248235e-004,2.705873e-004
-5.327704e-004,1.328318e-004
-3.666535e-004,-6.569822e-005
-1.477033e-004,-2.733039e-004
7.724339e-005,-4.515757e-004
2.522740e-004,-5.799314e-004
3.346032e-004,-6.475127e-004
3.226103e-004,-6.496195e-004
2.548670e-004,-5.894933e-004
1.879340e-004,-4.826922e-004
1.561692e-004,-3.587123e-004
1.545486e-004,-2.423494e-004
1.600588e-004,-1.460826e-004
1.551968e-004,-7.363943e-005
1.385041e-004,-1.643037e-005
1.167873e-004,3.040651e-005
9.312580e-005,7.173317e-005
6.606088e-005,1.070634e-004
3.121684e-005,1.342904e-004
-1.237873e-005,1.506590e-004
-5.289507e-005,1.573037e-004
-7.461182e-005,1.649207e-004
-6.504996e-005,1.832341e-004
-2.647842e-005,2.138645e-004
2.441009e-005,2.500050e-004
7.367795e-005,2.807975e-004
1.169494e-004,3.008936e-004
1.547106e-004,3.109416e-004
1.866375e-004,3.169380e-004
2.088404e-004,3.247172e-004
2.237505e-004,3.373583e-004
2.388225e-004,3.548613e-004
2.594049e-004,3.723644e-004
2.867939e-004,3.890571e-004
3.235827e-004,4.047775e-004
3.725265e-004,4.166082e-004
4.240633e-004,4.232529e-004
4.486972e-004,4.255218e-004
4.177427e-004,4.255218e-004
3.326584e-004,4.209840e-004
2.221298e-004,4.104497e-004
1.237561e-004,3.918123e-004
6.525056e-005,3.642611e-004
6.184718e-005,3.292550e-004
1.116012e-004,2.892249e-004
1.921477e-004,2.456293e-004
2.731804e-004,2.023578e-004
3.303894e-004,1.621656e-004
3.506476e-004,1.226217e-004
3.292550e-004,8.356394e-005
2.733424e-004,4.596478e-005
1.932822e-004,1.176900e-005
9.507057e-005,-1.610624e-005
-1.075808e-005,-3.620233e-005
-1.002181e-004,-5.208474e-005
-1.485136e-004,-6.910160e-005
-1.420310e-004,-8.676672e-005
-9.260107e-005,-1.036215e-004
-2.890940e-005,-1.164247e-004
1.971020e-005,-1.267968e-004
2.829966e-005,-1.357104e-004
-1.416145e-005,-1.451102e-004
-8.935975e-005,-1.579134e-004
-1.551583e-004,-1.757406e-004
-1.757406e-004,-1.898403e-004
-1.349001e-004,-1.989159e-004
-4.025397e-005,-2.042641e-004
7.951231e-005,-2.052365e-004
1.923098e-004,-2.006986e-004
2.736666e-004,-1.911368e-004
3.138588e-004,-1.778474e-004
3.138588e-004,-1.580754e-004
2.790148e-004,-1.274451e-004
2.278021e-004,-8.077030e-005
1.872858e-004,-1.659243e-005
1.671896e-004,6.362991e-005
1.582761e-004,1.566554e-004
1.485521e-004,2.514636e-004
1.305629e-004,3.367100e-004
1.049566e-004,4.016982e-004
7.772959e-005,4.375147e-004
5.341979e-005,4.425387e-004
3.850978e-005,4.239012e-004
4.077869e-005,3.892192e-004
5.811968e-005,3.462718e-004
7.481241e-005,2.974902e-004
7.302970e-005,2.472499e-004
4.385793e-005,1.992786e-004
-6.220252e-006,1.555210e-004
-5.597430e-005,1.182459e-004
-7.752899e-005,8.858796e-005
-5.419158e-005,6.541262e-005
1.306552e-005,4.677511e-005
1.091703e-004,2.538249e-005
2.057612e-004,-1.358292e-006
2.699391e-004,-3.166451e-005
2.809595e-004,-6.942573e-005
2.365536e-004,-1.208004e-004
1.547106e-004,-1.830335e-004
6.087479e-005,-2.481838e-004
-3.328516e-005,-3.065273e-004
-1.350622e-004,-3.510952e-004
-2.502906e-004,-3.825359e-004
-3.773498e-004,-4.052250e-004
-5.094330e-004,-4.305072e-004
-6.437852e-004,-4.671340e-004
-7.792717e-004,-5.144570e-004
-9.068170e-004,-5.632387e-004
-1.002111e-003,-5.967862e-004
-1.036307e-003,-5.792832e-004
-9.897945e-004,-4.672960e-004
-8.695421e-004,-2.700626e-004
-7.073147e-004,-5.597430e-005
-5.499493e-004,8.875003e-005
-4.382863e-004,1.067393e-004
-3.925839e-004,-5.409925e-006
-3.919357e-004,-2.016710e-004
-3.955011e-004,-4.096008e-004
-3.681121e-004,-5.640491e-004
-2.974516e-004,-6.288751e-004
-1.997262e-004,-6.063480e-004
-1.055663e-004,-5.240189e-004
-4.365734e-005,-4.146248e-004
-2.339918e-005,-3.036101e-004
-2.323711e-005,-2.042641e-004
-1.448558e-005,-1.193418e-004
2.748934e-005,-4.219875e-005
1.064152e-004,2.684107e-005
2.104611e-004,8.226741e-005
3.218000e-004,1.193804e-004
4.164462e-004,1.401247e-004
4.796517e-004,1.530900e-004
5.149820e-004,1.644345e-004
5.446399e-004,1.788584e-004
5.960147e-004,1.958752e-004
6.749405e-004,2.141886e-004
7.504630e-004,2.341226e-004
7.702350e-004,2.584324e-004
7.045984e-004,2.900352e-004
5.585775e-004,3.263378e-004
3.636129e-004,3.546993e-004
1.571416e-004,3.660439e-004
-2.680255e-005,3.585888e-004
-1.669890e-004,3.396272e-004
-2.553146e-004,3.203414e-004
-2.893484e-004,3.034866e-004
-2.754107e-004,2.854973e-004
-2.272773e-004,2.666978e-004
-1.642339e-004,2.519498e-004
-1.104282e-004,2.454672e-004
-7.282909e-005,2.417397e-004
-3.571614e-005,2.365536e-004
1.403791e-005,2.289366e-004
7.756752e-005,2.193747e-004
1.466074e-004,2.065715e-004
2.026820e-004,1.867996e-004
2.315296e-004,1.633001e-004
2.316917e-004,1.456350e-004
2.167816e-004,1.398006e-004
2.036544e-004,1.417454e-004
2.094887e-004,1.457970e-004
2.410915e-004,1.461212e-004
2.890628e-004,1.402868e-004
3.336308e-004,1.308870e-004
3.628026e-004,1.226217e-004
3.715541e-004,1.193804e-004
3.616681e-004,1.219734e-004
3.386548e-004,1.292664e-004
3.111037e-004,1.380179e-004
2.871180e-004,1.456350e-004
2.726942e-004,1.513072e-004
2.679943e-004,1.563313e-004
2.709115e-004,1.607070e-004
2.738286e-004,1.675138e-004
2.681563e-004,1.798307e-004
2.513016e-004,1.983062e-004
2.292607e-004,2.229401e-004
2.085163e-004,2.462775e-004
1.958752e-004,2.598910e-004
1.971717e-004,2.610255e-004
2.101370e-004,2.524360e-004
2.200230e-004,2.441707e-004
2.151610e-004,2.433604e-004
1.924718e-004,2.542187e-004
1.516314e-004,2.733424e-004
1.026876e-004,2.913317e-004
5.779555e-005,2.997591e-004
2.181705e-005,3.010556e-004
9.106227e-007,2.960316e-004
-5.896120e-006,2.829043e-004
-3.303076e-006,2.594049e-004
6.907040e-006,2.303951e-004
2.392390e-005,2.015475e-004
4.369587e-005,1.744826e-004
6.330578e-005,1.496866e-004
7.546067e-005,1.282940e-004
7.578480e-005,1.124116e-004
6.314371e-005,9.960841e-005
4.434413e-005,9.037068e-005
2.862379e-005,8.356394e-005
2.635488e-005,7.659513e-005
4.029250e-005,6.832980e-005
6.784360e-005,6.281957e-005
9.993253e-005,6.055066e-005
1.261871e-004,6.087479e-005
1.341283e-004,6.071273e-005
1.205148e-004,5.228533e-005
8.372601e-005,2.878586e-005
2.765140e-005,-1.205460e-005
-3.960571e-005,-6.018800e-005
-1.096179e-004,-1.008664e-004
-1.831956e-004,-1.295519e-004
-2.564491e-004,-1.481895e-004
-3.130099e-004,-1.605064e-004
-3.316474e-004,-1.658546e-004
-2.982619e-004,-1.650443e-004
-2.263049e-004,-1.601823e-004
-1.402483e-004,-1.558065e-004
-6.569822e-005,-1.528894e-004
-1.480971e-005,-1.519170e-004
1.225520e-005,-1.546721e-004
1.760335e-005,-1.637477e-004
9.986281e-006,-1.776853e-004
-3.303076e-006,-1.950263e-004
-1.918548e-005,-2.122053e-004
-3.231277e-005,-2.269532e-004
-3.604027e-005,-2.395943e-004
-2.518189e-005,-2.501286e-004
-2.978945e-006,-2.596904e-004
2.586868e-005,-2.703867e-004
4.726130e-005,-2.864312e-004
5.001642e-005,-3.063652e-004
3.397195e-005,-3.298647e-004
3.017472e-006,-3.536883e-004
-3.620233e-005,-3.721637e-004
-7.866345e-005,-3.825359e-004
-1.214487e-004,-3.859393e-004
-1.647201e-004,-3.852910e-004
-2.029675e-004,-3.812394e-004
-2.335979e-004,-3.744326e-004
-2.608248e-004,-3.634122e-004
-2.934000e-004,-3.485022e-004
-3.415334e-004,-3.269475e-004
-4.159214e-004,-2.979378e-004
-5.147812e-004,-2.686040e-004
-6.269303e-004,-2.431597e-004
-7.288694e-004,-2.207947e-004
-8.016367e-004,-1.966470e-004
-8.278913e-004,-1.632615e-004
-7.912645e-004,-1.190177e-004
-6.867325e-004,-6.699475e-005
-5.274223e-004,-1.610624e-005
-3.444506e-004,2.570662e-005
-1.731475e-004,5.828175e-005
-3.393342e-005,8.615699e-005
6.654708e-005,1.099806e-004
1.389903e-004,1.286181e-004
2.008992e-004,1.394765e-004
2.547049e-004,1.428799e-004
2.927903e-004,1.436902e-004
3.094830e-004,1.490383e-004
3.102934e-004,1.668655e-004
3.075383e-004,1.976579e-004
3.112658e-004,2.378501e-004
3.237448e-004,2.827423e-004
3.349273e-004,3.248792e-004
3.328204e-004,3.624784e-004
3.096451e-004,3.927847e-004
2.697770e-004,4.096394e-004
2.237505e-004,4.140152e-004
1.752929e-004,4.133669e-004
1.333180e-004,4.154738e-004
1.075496e-004,4.195254e-004
9.960841e-005,4.224426e-004
1.010670e-004,4.198496e-004
9.879808e-005,4.083429e-004
8.502253e-005,3.871123e-004
7.011252e-005,3.595612e-004
6.995045e-005,3.286068e-004
9.701536e-005,3.008936e-004
1.547106e-004,2.814457e-004
2.278021e-004,2.723701e-004
2.884145e-004,2.691288e-004
3.060797e-004,2.662116e-004
2.702632e-004,2.576221e-004
1.950649e-004,2.422259e-004
1.148425e-004,2.218057e-004
6.492643e-005,2.046267e-004
6.038860e-005,1.889064e-004
9.442231e-005,1.671896e-004
1.487142e-004,1.367214e-004
1.999268e-004,9.879808e-005
2.284504e-004,5.601284e-005
2.284504e-004,1.419998e-005
2.104611e-004,-2.242678e-005
1.884202e-004,-5.321920e-005
1.701068e-004,-8.012204e-005
1.566554e-004,-1.049180e-004
1.467694e-004,-1.276072e-004
1.393144e-004,-1.451102e-004
1.352628e-004,-1.580754e-004
1.428799e-004,-1.690959e-004
1.728619e-004,-1.864369e-004
2.231022e-004,-2.130156e-004
2.829043e-004,-2.493182e-004
3.384927e-004,-2.883759e-004
3.809539e-004,-3.164132e-004
4.021844e-004,-3.032860e-004
3.875985e-004,-2.144742e-004
3.243930e-004,-5.565017e-005
2.232643e-004,1.197045e-004
1.086841e-004,2.464396e-004
2.207145e-006,2.798251e-004
-8.449780e-005,2.119197e-004
-1.493239e-004,7.335383e-005
-1.961608e-004,-9.195280e-005
-2.321393e-004,-2.475355e-004
-2.635799e-004,-3.718396e-004
-2.848105e-004,-4.528722e-004
-2.817312e-004,-4.875542e-004
-2.436459e-004,-4.786406e-004
-1.721751e-004,-4.386105e-004
-8.287715e-005,-3.826980e-004
-1.196227e-006,-3.258130e-004
5.228533e-005,-2.789762e-004
7.157111e-005,-2.438080e-004
6.735741e-005,-2.185258e-004
5.439218e-005,-1.982676e-004
4.256141e-005,-1.752544e-004
4.126489e-005,-1.391138e-004
5.131294e-005,-8.563225e-005
6.217132e-005,-2.048200e-005
6.330578e-005,3.948217e-005
4.677511e-005,8.307774e-005
1.776542e-005,1.093323e-004
-1.610624e-005,1.198666e-004
-4.479180e-005,1.179218e-004
-5.872941e-005,1.120874e-004
-5.386745e-005,1.077117e-004
-3.182657e-005,1.093323e-004
-6.176923e-008,1.242423e-004
2.489629e-005,1.560072e-004
3.413401e-005,2.072198e-004
3.883391e-005,2.752873e-004
4.823370e-005,3.490270e-004
6.330578e-005,4.101256e-004
7.610894e-005,4.474007e-004
7.772959e-005,4.621486e-004
5.487838e-005,4.600418e-004
4.313994e-006,4.480489e-004
-6.812920e-005,4.331389e-004
-1.509446e-004,4.167703e-004
-2.206326e-004,3.950536e-004
-2.540181e-004,3.666921e-004
-2.420253e-004,3.352514e-004
-1.856265e-004,3.119140e-004
-9.924574e-005,2.989488e-004
-3.465141e-006,2.945730e-004
8.194328e-005,2.926282e-004
1.393144e-004,2.887387e-004
1.623277e-004,2.840388e-004
1.539003e-004,2.809595e-004
1.218114e-004,2.793389e-004
8.242948e-005,2.780424e-004
5.439218e-005,2.731804e-004
4.369587e-005,2.624841e-004
4.013043e-005,2.454672e-004
2.197911e-005,2.231022e-004
-2.745081e-005,1.971717e-004
-1.097800e-004,1.701068e-004
-2.097743e-004,1.453108e-004
-3.019894e-004,1.295905e-004
-3.514194e-004,1.224596e-004
-3.420196e-004,1.200286e-004
-2.815692e-004,1.156529e-004
-1.859507e-004,1.083599e-004
-8.222889e-005,9.896015e-005
7.485573e-007,9.069481e-005
4.223728e-005,8.421220e-005
3.332369e-005,7.270556e-005
-1.513384e-005,5.131294e-005
-7.266703e-005,1.338965e-005
-1.002181e-004,-4.187462e-005
-7.234290e-005,-1.050801e-004
1.484824e-005,-1.640719e-004
1.359110e-004,-2.104225e-004
2.504913e-004,-2.384598e-004
3.222862e-004,-2.468872e-004
3.321722e-004,-2.418632e-004
2.795009e-004,-2.310048e-004
1.829100e-004,-2.188499e-004
7.546067e-005,-2.076674e-004
-4.437533e-006,-1.963229e-004
-2.599222e-005,-1.864369e-004
2.327564e-005,-1.793060e-004
1.231079e-004,-1.773612e-004
2.269918e-004,-1.848162e-004
2.889007e-004,-2.041020e-004
2.872801e-004,-2.282497e-004
2.352571e-004,-2.514251e-004
1.676758e-004,-2.686040e-004
1.085220e-004,-2.757348e-004
6.508849e-005,-2.742763e-004
3.413401e-005,-2.650386e-004
5.448452e-006,-2.520733e-004
-2.826114e-005,-2.413770e-004
-6.407757e-005,-2.324634e-004
-8.433573e-005,-2.219292e-004
-7.769106e-005,-2.081536e-004
-4.365734e-005,-1.911368e-004
1.079661e-005,-1.697442e-004
7.367795e-005,-1.425172e-004
1.326697e-004,-1.076731e-004
1.746447e-004,-6.812920e-005
1.867996e-004,-2.583016e-005
1.680000e-004,1.582063e-005
1.367214e-004,5.390598e-005
1.140322e-004,8.453633e-005
1.099806e-004,1.094944e-004
1.244044e-004,1.291043e-004
1.432040e-004,1.470936e-004
1.524417e-004,1.665414e-004
1.433661e-004,1.867996e-004
1.085220e-004,2.023578e-004
4.726130e-005,2.102990e-004
-2.129233e-005,2.128921e-004
-6.667062e-005,2.096508e-004
-7.282909e-005,2.031682e-004
-4.398147e-005,1.970097e-004
3.179537e-006,1.996027e-004
5.147500e-005,2.099749e-004
8.745350e-005,2.213195e-004
1.059290e-004,2.247229e-004
1.122495e-004,2.187264e-004
1.106288e-004,2.106232e-004
1.062531e-004,2.055991e-004
1.033359e-004,2.012234e-004
1.017153e-004,1.923098e-004
1.009049e-004,1.759412e-004
1.004187e-004,1.513072e-004
9.766362e-005,1.234320e-004
8.664318e-005,9.928428e-005
6.865393e-005,8.129502e-005
4.564065e-005,6.962632e-005
1.808955e-005,6.087479e-005
-1.659243e-005,5.520250e-005
-5.208474e-005,5.066468e-005
-7.963584e-005,4.693717e-005
-9.535618e-005,3.786152e-005
-1.000561e-004,2.392390e-005
-9.681477e-005,8.041497e-006
-9.519411e-005,-5.896120e-006
-9.859748e-005,-1.643037e-005
-9.875954e-005,-2.664048e-005
-9.146661e-005,-3.555408e-005
-6.812920e-005,-4.219875e-005
-1.869928e-005,-4.641245e-005
5.585077e-005,-5.127441e-005
1.393144e-004,-5.791909e-005
2.143507e-004,-6.245691e-005
2.736666e-004,-6.423963e-005
3.208276e-004,-6.618442e-005
3.584268e-004,-7.282909e-005
3.897054e-004,-8.384954e-005
4.154738e-004,-9.324933e-005
4.388112e-004,-9.908367e-005
4.606900e-004,-1.018388e-004
4.733311e-004,-9.908367e-005
4.691174e-004,-8.741498e-005
4.389733e-004,-6.910160e-005
3.820883e-004,-4.949169e-005
3.013798e-004,-3.344723e-005
2.109473e-004,-2.210265e-005
1.274836e-004,-9.623623e-006
6.444023e-005,3.503668e-006
1.419998e-005,1.614476e-005
-5.321920e-005,3.154097e-005
-1.715269e-004,7.286763e-005
-3.554710e-004,1.767515e-004
-6.024585e-004,3.441650e-004
-8.763488e-004,5.211404e-004
-1.121392e-003,6.331276e-004
-1.282809e-003,6.305345e-004
-1.327701e-003,5.109303e-004
-1.249747e-003,3.114278e-004
-1.070827e-003,8.956036e-005
-8.287016e-004,-9.973194e-005
-5.692351e-004,-2.229016e-004
-3.235441e-004,-2.788141e-004
-1.018388e-004,-2.859450e-004
9.199134e-005,-2.655248e-004
2.535705e-004,-2.345703e-004
3.780367e-004,-2.021572e-004
4.535592e-004,-1.723372e-004
4.762483e-004,-1.431655e-004
4.555039e-004,-1.157764e-004
4.072085e-004,-9.195280e-005
3.459477e-004,-7.914964e-005
2.799871e-004,-8.563225e-005
2.216436e-004,-1.114006e-004
1.731861e-004,-1.509446e-004
1.286181e-004,-1.896782e-004
8.323981e-005,-2.156086e-004
3.624086e-005,-2.229016e-004
-7.192643e-006,-2.169052e-004
-4.057810e-005,-2.078295e-004
-6.051213e-005,-2.060468e-004
-6.359137e-005,-2.122053e-004
-5.791909e-005,-2.206326e-004
-6.099833e-005,-2.238740e-004
-8.352541e-005,-2.173914e-004
-1.209625e-004,-1.969711e-004
-1.478653e-004,-1.637477e-004
-1.418689e-004,-1.237176e-004
-1.037836e-004,-8.547019e-005
-5.257093e-005,-5.710876e-005
-1.108221e-005,-3.798505e-005
9.175954e-006,-2.064406e-005
1.144487e-005,3.341602e-006
9.662150e-006,3.786152e-005
1.857574e-005,8.064677e-005
4.547859e-005,1.274836e-004
8.680524e-005,1.736723e-004
1.357490e-004,2.167816e-004
1.861513e-004,2.527602e-004
2.266676e-004,2.764217e-004
2.457913e-004,2.901973e-004
2.427121e-004,2.997591e-004
2.258573e-004,3.114278e-004
2.060853e-004,3.276344e-004
1.898788e-004,3.440029e-004
1.735102e-004,3.563199e-004
1.517934e-004,3.624784e-004
1.261871e-004,3.650715e-004
1.018773e-004,3.649094e-004
9.101894e-005,3.623164e-004
1.046324e-004,3.534027e-004
1.415833e-004,3.365480e-004
1.893926e-004,3.158036e-004
2.325020e-004,2.991108e-004
2.657254e-004,2.905214e-004
2.895490e-004,2.867939e-004
3.026763e-004,2.760976e-004
3.033245e-004,2.551911e-004
2.940868e-004,2.276400e-004
2.795009e-004,1.936063e-004
2.663737e-004,1.594105e-004
2.607014e-004,1.304008e-004
2.660495e-004,1.049566e-004
2.746390e-004,7.902610e-005
2.749631e-004,5.406805e-005
2.619979e-004,2.992031e-005
2.417397e-004,1.047248e-005
2.172679e-004,-1.844488e-006
1.893926e-004,-7.516774e-006
1.602208e-004,-7.192643e-006
1.316974e-004,-3.789272e-006
1.036600e-004,-3.627206e-006
7.837785e-005,-8.975362e-006
6.379197e-005,-1.821308e-005
6.249545e-005,-2.793700e-005
7.481241e-005,-3.555408e-005
9.263960e-005,-4.203669e-005
1.069013e-004,-4.868137e-005
1.080358e-004,-5.678463e-005
9.231547e-005,-6.456377e-005
6.103686e-005,-6.910160e-005
2.392390e-005,-6.488790e-005
-5.571990e-006,-4.770897e-005
-2.113026e-005,-1.643037e-005
-2.696461e-005,2.554455e-005
-3.766092e-005,7.335383e-005
-6.002594e-005,1.265113e-004
-9.081835e-005,1.816135e-004
-1.125351e-004,2.368777e-004
-1.058904e-004,3.135347e-004
-6.521203e-005,4.298976e-004
-1.351319e-005,5.679773e-004
5.610517e-006,6.775336e-004
-4.090223e-005,7.141604e-004
-1.525652e-004,6.592202e-004
-2.932379e-004,5.263265e-004
-4.151110e-004,3.480546e-004
-4.815578e-004,1.641104e-004
-4.844750e-004,6.258778e-006
-4.390967e-004,-1.094559e-004
-3.655190e-004,-1.773612e-004
-2.780038e-004,-2.036158e-004
-1.885437e-004,-1.979435e-004
-1.081593e-004,-1.752544e-004
-4.219875e-005,-1.493239e-004
8.689758e-006,-1.285796e-004
4.094075e-005,-1.204763e-004
5.763349e-005,-1.255003e-004
7.221937e-005,-1.413827e-004
9.361199e-005,-1.587237e-004
1.163011e-004,-1.690959e-004
1.299146e-004,-1.723372e-004
1.266733e-004,-1.687718e-004
1.111150e-004,-1.558065e-004
1.039842e-004,-1.323071e-004
1.234320e-004,-1.075111e-004
1.799928e-004,-9.195280e-005
2.621599e-004,-9.373552e-005
3.511338e-004,-1.170729e-004
4.274666e-004,-1.569410e-004
4.838654e-004,-2.079916e-004
5.225990e-004,-2.664971e-004
5.509604e-004,-3.261372e-004
5.712186e-004,-3.835083e-004
5.825632e-004,-4.371519e-004
5.853184e-004,-4.839888e-004
5.725152e-004,-5.212637e-004
5.375090e-004,-5.426564e-004
4.837033e-004,-5.330946e-004
4.177427e-004,-4.804233e-004
3.467581e-004,-3.893426e-004
2.710735e-004,-2.760590e-004
1.756171e-004,-1.605064e-004
3.834771e-005,-5.386745e-005
-1.619650e-004,3.672706e-005
-4.366657e-004,1.081979e-004
-7.732753e-004,1.551968e-004
-1.134681e-003,1.775618e-004
-1.466429e-003,1.773998e-004
-1.708716e-003,1.603829e-004
-1.826538e-003,1.351007e-004
-1.820541e-003,1.127357e-004
-1.715685e-003,1.012291e-004
-1.550703e-003,1.007429e-004
-1.360762e-003,1.036600e-004
-1.162394e-003,9.896015e-005
-9.554367e-004,8.486046e-005
-7.270867e-004,6.995045e-005
-4.689167e-004,6.346784e-005
-1.922712e-004,6.589881e-005
6.573675e-005,6.914012e-005
2.670219e-004,6.832980e-005
3.968363e-004,6.346784e-005
4.610142e-004,6.119892e-005
4.730070e-004,6.897806e-005
4.572867e-004,8.842590e-005
4.423766e-004,1.154908e-004
4.459421e-004,1.440143e-004
4.738173e-004,1.623277e-004
5.170888e-004,1.610312e-004
5.610085e-004,1.386662e-004
5.880735e-004,1.022015e-004
5.890459e-004,6.719535e-005
5.606844e-004,4.693717e-005
5.065545e-004,4.531652e-005
4.391353e-004,5.763349e-005
3.785229e-004,7.708133e-005
3.435168e-004,1.000946e-004
3.433547e-004,1.198666e-004
3.794953e-004,1.318594e-004
4.415663e-004,1.313732e-004
5.083373e-004,1.151667e-004
5.587396e-004,8.129502e-005
5.694359e-004,4.110282e-005
5.240576e-004,6.744974e-006
4.250357e-004,-1.383732e-005
2.914938e-004,-1.837515e-005
1.472556e-004,-1.205460e-005
2.878586e-005,1.002961e-007
-2.826114e-005,1.306552e-005
-1.043395e-005,2.311357e-005
6.768154e-005,3.089271e-005
1.668655e-004,4.158902e-005
2.495189e-004,6.103686e-005
2.944109e-004,9.312580e-005
2.974902e-004,1.344524e-004
2.675081e-004,1.738343e-004
2.203471e-004,2.004130e-004
1.783722e-004,2.081922e-004
1.602208e-004,2.008992e-004
1.686482e-004,1.882582e-004
1.965235e-004,1.808031e-004
2.292607e-004,1.843686e-004
2.543808e-004,1.999268e-004
2.649151e-004,2.248849e-004
2.652392e-004,2.530843e-004
2.582704e-004,2.760976e-004
2.431983e-004,2.895490e-004
2.146748e-004,2.919800e-004
1.736723e-004,2.879283e-004
1.276457e-004,2.817699e-004
8.356394e-005,2.739907e-004
4.596478e-005,2.624841e-004
1.063454e-005,2.433604e-004
-2.518189e-005,2.187264e-004
-6.213279e-005,1.994406e-004
-8.903562e-005,2.127300e-004
-9.454585e-005,2.874421e-004
-7.056019e-005,4.195254e-004
-2.242678e-005,5.582534e-004
3.170304e-005,6.399344e-004
6.865393e-005,6.217830e-004
7.513654e-005,4.966686e-004
5.666109e-005,2.958695e-004
3.559260e-005,6.849186e-005
3.316162e-005,-1.394379e-004
5.795762e-005,-2.979378e-004
1.020394e-004,-3.953390e-004
1.449867e-004,-4.355313e-004
1.633001e-004,-4.327761e-004
1.363972e-004,-4.071698e-004
5.763349e-005,-3.742705e-004
-5.629844e-005,-3.460712e-004
-1.763888e-004,-3.284061e-004
-2.642282e-004,-3.207890e-004
-2.916173e-004,-3.211132e-004
-2.548284e-004,-3.250027e-004
-1.768750e-004,-3.282440e-004
-8.838737e-005,-3.243544e-004
-2.242678e-005,-3.133340e-004
-2.238346e-007,-2.995585e-004
-1.302700e-005,-2.880518e-004
-3.685060e-005,-2.818933e-004
-5.419158e-005,-2.767073e-004
-5.872941e-005,-2.684419e-004
-5.435365e-005,-2.608248e-004
-4.803310e-005,-2.561249e-004
-4.446767e-005,-2.572594e-004
-4.997789e-005,-2.585559e-004
-6.310517e-005,-2.551526e-004
-7.769106e-005,-2.488320e-004
-8.303922e-005,-2.410529e-004
-7.704279e-005,-2.282497e-004
-6.699475e-005,-2.016710e-004
-6.132246e-005,-1.571031e-004
-6.245691e-005,-1.013526e-004
-6.488790e-005,-4.608832e-005
-6.035007e-005,-2.330684e-006
-4.300908e-005,2.667901e-005
-2.048200e-005,4.272347e-005
1.396819e-006,5.082674e-005
1.452411e-005,6.006447e-005
1.095867e-005,7.999851e-005
-2.654814e-006,1.106288e-004
-1.140634e-005,1.433661e-004
-1.196227e-006,1.735102e-004
3.656499e-005,1.979821e-004
9.620504e-005,2.172679e-004
1.598967e-004,2.302331e-004
2.140265e-004,2.321778e-004
2.581083e-004,2.240746e-004
2.953834e-004,2.115956e-004
3.227724e-004,2.039785e-004
3.427064e-004,2.098128e-004
3.645853e-004,2.329882e-004
3.924605e-004,2.663737e-004
4.273046e-004,2.978143e-004
4.705760e-004,3.190449e-004
5.127130e-004,3.258516e-004
5.341057e-004,3.205035e-004
5.183853e-004,3.086727e-004
4.592314e-004,2.965178e-004
3.710679e-004,2.898731e-004
2.770700e-004,2.889007e-004
1.992786e-004,2.940868e-004
1.412592e-004,3.039728e-004
8.518459e-005,3.167760e-004
4.476060e-006,3.295791e-004
-1.206384e-004,3.383307e-004
-2.946965e-004,3.355756e-004
-5.104054e-004,3.158036e-004
-7.525309e-004,2.807975e-004
-9.962771e-004,2.391467e-004
-1.215551e-003,1.931201e-004
-1.385720e-003,1.479039e-004
-1.493818e-003,1.093323e-004
-1.530931e-003,8.372601e-005
-1.492035e-003,7.092284e-005
-1.381344e-003,6.687121e-005
-1.212634e-003,6.946425e-005
-1.006001e-003,7.772959e-005
-7.784614e-004,8.842590e-005
-5.444391e-004,9.490851e-005
-3.279199e-004,9.377406e-005
-1.583996e-004,8.712937e-005
-4.122636e-005,7.400208e-005
4.207521e-005,4.871989e-005
1.192183e-004,1.176900e-005
2.033302e-004,-3.312309e-005
2.829043e-004,-8.190475e-005
3.237448e-004,-1.290658e-004
2.983005e-004,-1.689338e-004
2.132162e-004,-1.964849e-004
1.101427e-004,-2.089640e-004
3.883391e-005,-2.089640e-004
2.829966e-005,-1.997262e-004
7.351589e-005,-1.851404e-004
1.474177e-004,-1.661787e-004
2.265056e-004,-1.454344e-004
2.955454e-004,-1.263107e-004
3.465960e-004,-1.151281e-004
3.673404e-004,-1.146419e-004
3.427064e-004,-1.242038e-004
2.675081e-004,-1.417068e-004
1.492004e-004,-1.648822e-004
1.663096e-005,-1.934057e-004
-8.887356e-005,-2.243602e-004
-1.355484e-004,-2.483458e-004
-1.143178e-004,-2.558008e-004
-3.766092e-005,-2.436459e-004
6.508849e-005,-2.183637e-004
1.639484e-004,-1.882196e-004
2.373639e-004,-1.569410e-004
2.837146e-004,-1.277692e-004
3.109416e-004,-1.041077e-004
3.349273e-004,-8.628052e-005
3.686369e-004,-6.877746e-005
4.151496e-004,-4.381940e-005
4.717105e-004,-8.327101e-006
5.303781e-004,3.413401e-005
5.809425e-004,7.124698e-005
6.156246e-004,9.247754e-005
6.277795e-004,1.000946e-004
6.141660e-004,1.038221e-004
5.777013e-004,1.101427e-004
5.323229e-004,1.190562e-004
4.965065e-004,1.304008e-004
4.749518e-004,1.445005e-004
4.634451e-004,1.613553e-004
4.566384e-004,1.806411e-004
4.529109e-004,1.955511e-004
4.522626e-004,2.036544e-004
4.535592e-004,2.020337e-004
4.540453e-004,1.903650e-004
4.454559e-004,1.748067e-004
4.188772e-004,1.634622e-004
3.798194e-004,1.605450e-004
3.362238e-004,1.636242e-004
2.994350e-004,1.676758e-004
2.811216e-004,1.717275e-004
2.955454e-004,1.704310e-004
3.391410e-004,1.634622e-004
3.895433e-004,1.527658e-004
4.196875e-004,1.401247e-004
4.076947e-004,1.281319e-004
3.485408e-004,1.175977e-004
2.619979e-004,1.043083e-004
1.783722e-004,8.745350e-005
1.184080e-004,6.654708e-005
9.134307e-005,3.802358e-005
9.507057e-005,5.864920e-007
1.210010e-004,-3.960571e-005
1.568175e-004,-6.504996e-005
1.882582e-004,-7.039812e-005
1.940925e-004,-5.597430e-005
1.551968e-004,-3.036798e-005
6.784360e-005,-6.382317e-006
-4.754691e-005,3.503668e-006
-1.606685e-004,-1.034161e-006
-2.446183e-004,-1.383732e-005
-2.898345e-004,-2.664048e-005
-3.008550e-004,-3.539201e-005
-2.930758e-004,-3.717473e-005
-2.789762e-004,-3.377136e-005
-2.762210e-004,-2.599222e-005
-3.008550e-004,-1.480971e-005
-3.614674e-004,-3.858999e-007
-4.484965e-004,1.128280e-005
-5.330946e-004,1.419998e-005
-5.883588e-004,1.031041e-005
-6.014861e-004,4.962256e-006
-5.771763e-004,-2.238346e-007
-5.314739e-004,-9.623623e-006
-4.799371e-004,-3.441962e-005
-4.327761e-004,-7.898758e-005
-4.034423e-004,-1.370070e-004
-4.029561e-004,-1.925954e-004
-4.329382e-004,-2.306807e-004
-4.791268e-004,-2.418632e-004
-5.198052e-004,-2.256567e-004
-5.368221e-004,-1.898403e-004
-5.142950e-004,-1.486757e-004
-4.425001e-004,-1.120489e-004
-3.238683e-004,-8.692878e-005
-1.771992e-004,-7.526008e-005
-3.215070e-005,-7.396356e-005
8.469840e-005,-7.704279e-005
1.597346e-004,-7.898758e-005
1.973338e-004,-7.785312e-005
2.101370e-004,-7.444975e-005
2.111094e-004,-6.877746e-005
2.125679e-004,-6.148453e-005
2.200230e-004,-5.176061e-005
2.347709e-004,-3.717473e-005
2.461155e-004,-1.432352e-005
2.480603e-004,1.484824e-005
2.444948e-004,5.082674e-005
2.422259e-004,8.664318e-005
2.394708e-004,1.163011e-004
2.303951e-004,1.355869e-004
2.174299e-004,1.487142e-004
2.086784e-004,1.600588e-004
2.004130e-004,1.715654e-004
1.851789e-004,1.848548e-004
1.636242e-004,1.960373e-004
1.422316e-004,2.030061e-004
1.244044e-004,2.060853e-004
1.072255e-004,2.093267e-004
8.793970e-005,2.269918e-004
6.346784e-005,2.717218e-004
3.105477e-005,3.388169e-004
-3.789272e-006,4.089912e-004
-3.328516e-005,4.645796e-004
-4.965376e-005,4.965065e-004
-5.257093e-005,5.028270e-004
-5.062615e-005,4.879170e-004
-5.824322e-005,4.626348e-004
-7.639453e-005,4.349216e-004
-8.644259e-005,4.086671e-004
-7.201877e-005,3.820883e-004
-3.215070e-005,3.568061e-004
2.197911e-005,3.350894e-004
7.594687e-005,3.195311e-004
1.203528e-004,3.073762e-004
1.524417e-004,2.937627e-004
1.746447e-004,2.733424e-004
1.843686e-004,2.410915e-004
1.812893e-004,1.960373e-004
1.642725e-004,1.422316e-004
1.351007e-004,8.567078e-005
9.993253e-005,3.688912e-005
6.119892e-005,1.396819e-006
1.841368e-005,-1.983374e-005
-2.226472e-005,-3.117831e-005
-4.819517e-005,-4.074016e-005
-4.722278e-005,-5.905355e-005
-1.189254e-005,-9.535618e-005
5.439218e-005,-1.504584e-004
1.347766e-004,-2.131776e-004
2.099749e-004,-2.713591e-004
2.759355e-004,-3.164132e-004
3.328204e-004,-3.483401e-004
3.812780e-004,-3.707051e-004
4.161220e-004,-3.888564e-004
4.313562e-004,-4.010113e-004
4.214702e-004,-4.023079e-004
3.853296e-004,-3.864254e-004
3.292550e-004,-3.556330e-004
2.671840e-004,-3.121996e-004
2.216436e-004,-2.621213e-004
2.057612e-004,-2.139880e-004
2.044647e-004,-1.733096e-004
1.911753e-004,-1.408965e-004
1.496866e-004,-1.186936e-004
7.529860e-005,-1.060525e-004
-3.506788e-005,-1.005423e-004
-1.754164e-004,-9.665270e-005
-3.275957e-004,-9.243900e-005
-4.734545e-004,-8.498399e-005
-6.021344e-004,-7.850138e-005
-7.157421e-004,-7.347736e-005
-8.193018e-004,-7.153257e-005
-9.118411e-004,-7.039812e-005
-9.915773e-004,-6.650855e-005
-1.055431e-003,-5.872941e-005
-1.094489e-003,-4.657452e-005
-1.093030e-003,-2.923353e-005
-1.041817e-003,-8.165035e-006
-9.402025e-004,1.549650e-005
-7.894818e-004,3.559260e-005
-5.958138e-004,4.953022e-005
-3.729740e-004,6.622294e-005
-1.400862e-004,1.192183e-004
8.242948e-005,2.326641e-004
2.782044e-004,3.879227e-004
4.350837e-004,5.294057e-004
5.520949e-004,6.016869e-004
6.387999e-004,5.777013e-004
7.049226e-004,4.663623e-004
7.588904e-004,3.051073e-004
8.015137e-004,1.433661e-004
8.306854e-004,1.857574e-005
8.441369e-004,-5.062615e-005
8.363577e-004,-6.197072e-005
8.039447e-004,-3.198864e-005
7.460872e-004,1.825161e-005
6.571133e-004,7.027458e-005
5.175750e-004,1.146805e-004
3.077003e-004,1.469315e-004
2.797553e-005,1.639484e-004
-2.963172e-004,1.639484e-004
-6.194753e-004,1.483901e-004
-8.844521e-004,1.242423e-004
-1.040197e-003,9.717743e-005
-1.059483e-003,7.173317e-005
-9.408508e-004,5.390598e-005
-7.155800e-004,4.531652e-005
-4.389346e-004,4.110282e-005
-1.689338e-004,3.705119e-005
5.341979e-005,2.894792e-005
2.111094e-004,1.889987e-005
3.099692e-004,9.013889e-006
3.653956e-004,4.244267e-007
4.000776e-004,-8.813297e-006
4.339493e-004,-2.080613e-005
4.749518e-004,-3.701266e-005
5.174129e-004,-5.305713e-005
5.553362e-004,-6.164659e-005
5.853184e-004,-6.180866e-005
6.059006e-004,-5.921561e-005
6.200004e-004,-5.937768e-005
6.250244e-004,-6.456377e-005
6.122212e-004,-7.104638e-005
5.736496e-004,-7.072225e-005
5.120648e-004,-6.310517e-005
4.349216e-004,-5.046408e-005
3.519442e-004,-2.923353e-005
2.798251e-004,7.485573e-007
2.391467e-004,3.478228e-005
2.367157e-004,6.751948e-005
2.632944e-004,9.118101e-005
2.945730e-004,1.000946e-004
3.080245e-004,1.002567e-004
3.008936e-004,1.010670e-004
2.832284e-004,1.013911e-004
2.666978e-004,9.717743e-005
2.538946e-004,8.972242e-005
2.300710e-004,7.935024e-005
1.733481e-004,6.071273e-005
7.448828e-005,3.786152e-005
-6.391550e-005,2.052053e-005
-2.417012e-004,1.646890e-005
-4.682684e-004,2.311357e-005
-7.274108e-004,3.624086e-005
-9.568953e-004,5.277153e-005
-1.075689e-003,7.043665e-005
-1.038252e-003,8.745350e-005
-8.616009e-004,1.059290e-004
-6.086170e-004,1.386662e-004
-3.590364e-004,2.085163e-004
-1.746061e-004,3.096451e-004
-7.315322e-005,4.021844e-004
-3.101625e-005,4.430249e-004
-9.623623e-006,4.047775e-004
1.711715e-005,2.885766e-004
6.168512e-005,1.188942e-004
1.265113e-004,-6.456377e-005
2.007372e-004,-2.258187e-004
2.658874e-004,-3.450988e-004
3.072141e-004,-4.180282e-004
3.214759e-004,-4.410415e-004
3.179104e-004,-4.233763e-004
3.070520e-004,-3.807532e-004
2.936006e-004,-3.298647e-004
2.756114e-004,-2.788141e-004
2.503292e-004,-2.326255e-004
2.180782e-004,-1.943781e-004
1.829100e-004,-1.666649e-004
1.459591e-004,-1.502963e-004
1.125736e-004,-1.405724e-004
8.080883e-005,-1.313347e-004
4.969229e-005,-1.195039e-004
2.116879e-005,-1.018388e-004
-5.247859e-006,-8.239095e-005
-2.858527e-005,-6.407757e-005
-4.868137e-005,-4.981582e-005
-6.099833e-005,-3.879538e-005
-5.840528e-005,-2.761287e-005
-3.215070e-005,-1.270286e-005
1.922400e-005,5.448452e-006
8.631905e-005,2.667901e-005
1.483901e-004,5.471631e-005
1.846927e-004,9.037068e-005
1.929580e-004,1.318594e-004
1.846927e-004,1.749688e-004
1.752929e-004,2.179161e-004
1.694586e-004,2.610255e-004
1.650828e-004,2.979764e-004
1.545486e-004,3.274723e-004
1.313732e-004,3.446512e-004
9.960841e-005,3.454615e-004
6.573675e-005,3.310377e-004
3.283749e-005,3.054314e-004
9.175954e-006,2.739907e-004
1.720949e-006,2.444948e-004
1.565857e-005,2.187264e-004
4.904402e-005,1.971717e-004
9.798775e-005,1.822617e-004
1.623277e-004,1.718896e-004
2.449810e-004,1.586002e-004
3.433547e-004,1.432040e-004
4.422146e-004,1.294284e-004
5.161164e-004,1.234320e-004
5.384815e-004,1.320215e-004
5.052580e-004,1.501728e-004
4.326527e-004,1.667035e-004
3.509718e-004,1.762653e-004
2.876042e-004,1.767515e-004
2.619979e-004,1.665414e-004
2.728562e-004,1.446626e-004
3.086727e-004,1.156529e-004
3.467581e-004,9.263960e-005
3.657197e-004,8.518459e-005
3.532407e-004,9.328786e-005
3.070520e-004,1.103047e-004
2.357433e-004,1.304008e-004
1.449867e-004,1.459591e-004
3.834771e-005,1.514693e-004
-8.709085e-005,1.470936e-004
-2.360289e-004,1.352628e-004
-4.108973e-004,1.163011e-004
-6.172064e-004,8.842590e-005
-8.447461e-004,5.374392e-005
-1.062562e-003,1.808955e-005
-1.239213e-003,-1.545797e-005
-1.351848e-003,-4.819517e-005
-1.393337e-003,-8.141856e-005
-1.370972e-003,-1.114006e-004
-1.305174e-003,-1.360346e-004
-1.203072e-003,-1.553203e-004
-1.071962e-003,-1.703924e-004
-9.226995e-004,-1.786577e-004
-7.666306e-004,-1.817370e-004
-6.092652e-004,-1.818991e-004
-4.557894e-004,-1.794681e-004
-3.183580e-004,-1.736337e-004
-2.105846e-004,-1.650443e-004
-1.357104e-004,-1.567789e-004
-8.449780e-005,-1.524032e-004
-4.025397e-005,-1.535376e-004
2.230325e-005,-1.592099e-004
1.266733e-004,-1.702304e-004
2.832284e-004,-1.862748e-004
4.861343e-004,-2.062088e-004
7.117294e-004,-2.250084e-004
9.269523e-004,-2.376495e-004
1.101335e-003,-2.410529e-004
1.213646e-003,-2.337599e-004
1.246870e-003,-2.131776e-004
1.191281e-003,-1.771992e-004
1.043639e-003,-1.305243e-004
8.222580e-004,-7.947377e-005
5.708945e-004,-3.198864e-005
3.422202e-004,3.827799e-006
1.804790e-004,2.392390e-005
1.007429e-004,2.927205e-005
9.118101e-005,2.586868e-005
1.161391e-004,2.619281e-005
1.312112e-004,3.348575e-005
1.013911e-004,5.001642e-005
-1.358292e-006,7.254349e-005
-2.029675e-004,9.490851e-005
-5.078124e-004,1.122495e-004
-8.679214e-004,1.224596e-004
-1.187028e-003,1.305629e-004
-1.377617e-003,1.449867e-004
-1.400468e-003,1.701068e-004
-1.279243e-003,2.034923e-004
-1.074068e-003,2.428742e-004
-8.539838e-004,2.822560e-004
-6.609641e-004,3.114278e-004
-4.988988e-004,3.245551e-004
-3.496366e-004,3.224483e-004
-1.877334e-004,3.122381e-004
-5.409925e-006,3.020280e-004
1.741585e-004,2.952213e-004
3.200173e-004,2.867939e-004
4.104497e-004,2.751252e-004
4.527488e-004,2.598910e-004
4.652279e-004,2.372019e-004
4.621486e-004,2.068957e-004
4.558281e-004,1.751309e-004
4.571246e-004,1.496866e-004
4.731691e-004,1.333180e-004
5.050959e-004,1.214872e-004
5.441537e-004,1.085220e-004
5.712186e-004,9.020862e-005
5.734875e-004,6.946425e-005
5.512846e-004,5.115087e-005
5.162785e-004,3.948217e-005
4.867825e-004,3.299956e-005
4.790034e-004,2.700314e-005
4.942376e-004,1.663096e-005
5.222749e-004,-8.720959e-007
5.491778e-004,-2.080613e-005
5.637637e-004,-3.928157e-005
5.648981e-004,-5.840528e-005
5.579292e-004,-8.060823e-005
5.441537e-004,-1.045939e-004
5.200059e-004,-1.277692e-004
4.814344e-004,-1.442999e-004
4.250357e-004,-1.527273e-004
3.647473e-004,-1.520790e-004
3.313618e-004,-1.457585e-004
3.495132e-004,-1.412206e-004
4.258460e-004,-1.423551e-004
5.448020e-004,-1.462447e-004
6.725095e-004,-1.498101e-004
7.694247e-004,-1.532135e-004
8.125341e-004,-1.569410e-004
7.961654e-004,-1.614788e-004
7.264773e-004,-1.674752e-004
6.161107e-004,-1.746061e-004
4.812723e-004,-1.828714e-004
3.347652e-004,-1.888679e-004
1.877720e-004,-1.883817e-004
5.406805e-005,-1.789819e-004
-6.261898e-005,-1.634236e-004
-1.650443e-004,-1.451102e-004
-2.655248e-004,-1.287416e-004
-3.718396e-004,-1.139937e-004
-4.770200e-004,-1.028112e-004
-5.689110e-004,-9.146661e-005
-6.326026e-004,-7.542214e-005
-6.703638e-004,-5.095028e-005
-6.914323e-004,-1.448558e-005
-7.039114e-004,4.175109e-005
-7.095836e-004,1.171115e-004
-7.052079e-004,2.000889e-004
-6.867325e-004,2.901973e-004
-6.582089e-004,4.072085e-004
-6.280648e-004,5.542018e-004
-6.040792e-004,6.895264e-004
-5.766901e-004,7.603490e-004
-5.295291e-004,7.340944e-004
-4.447690e-004,6.128695e-004
-3.152788e-004,4.290873e-004
-1.528894e-004,2.316917e-004
1.436204e-005,6.800567e-005
1.650828e-004,-3.166451e-005
2.948972e-004,-6.586029e-005
4.091532e-004,-5.257093e-005
5.112545e-004,-1.464765e-005
5.997422e-004,2.522042e-005
6.731578e-004,5.244739e-005
7.256670e-004,6.379197e-005
7.472217e-004,6.476436e-005
7.232360e-004,6.152305e-005
6.405826e-004,5.779555e-005
4.888894e-004,5.487838e-005
2.621599e-004,5.163707e-005
-3.296103e-005,4.515445e-005
-3.729740e-004,3.721326e-005
-7.300039e-004,2.959619e-005
-1.067262e-003,2.019640e-005
-1.333211e-003,5.610517e-006
-1.476963e-003,-1.513384e-005
-1.471615e-003,-4.236082e-005
-1.323001e-003,-7.574627e-005
-1.066613e-003,-1.115627e-004
-7.616066e-004,-1.535376e-004
-4.708614e-004,-2.089640e-004
-2.357047e-004,-2.768693e-004
-7.039812e-005,-3.473677e-004
3.121684e-005,-4.003631e-004
8.696731e-005,-4.125180e-004
1.167873e-004,-3.682741e-004
1.334801e-004,-2.781658e-004
1.456350e-004,-1.671511e-004
1.631380e-004,-6.423963e-005
1.921477e-004,1.112074e-005
2.329882e-004,5.698522e-005
2.793389e-004,8.437427e-005
3.303894e-004,1.083599e-004
3.879227e-004,1.349386e-004
4.486972e-004,1.586002e-004
5.034753e-004,1.733481e-004
5.418848e-004,1.759412e-004
5.603603e-004,1.639484e-004
5.647360e-004,1.388282e-004
5.572810e-004,1.070634e-004
5.464226e-004,7.724339e-005
5.420469e-004,5.358185e-005
5.452881e-004,3.543054e-005
5.533914e-004,1.808955e-005
5.597120e-004,1.558884e-006
5.546879e-004,-9.947754e-006
5.242196e-004,-1.399939e-005
4.566384e-004,-1.545797e-005
3.529166e-004,-1.853722e-005
2.245608e-004,-2.372331e-005
8.437427e-005,-3.020592e-005
-4.803310e-005,-3.506788e-005
-1.540238e-004,-4.057810e-005
-2.172293e-004,-4.625038e-005
-2.360289e-004,-4.819517e-005
-2.303566e-004,-4.414354e-005
-2.371633e-004,-3.506788e-005
-2.887001e-004,-2.145439e-005
-3.857772e-004,-4.113403e-006
-4.956574e-004,1.695509e-005
-5.614560e-004,4.094075e-005
-5.317981e-004,6.314371e-005
-3.796187e-004,7.935024e-005
-1.078352e-004,9.020862e-005
2.456293e-004,9.831188e-005
6.112488e-004,1.052807e-004
9.196594e-004,1.107909e-004
1.114462e-003,1.156529e-004
1.178316e-003,1.219734e-004
1.135531e-003,1.294284e-004
1.030350e-003,1.352628e-004
9.008598e-004,1.406109e-004
7.566215e-004,1.446626e-004
5.733255e-004,1.500107e-004
3.250413e-004,1.590864e-004
1.792748e-005,1.751309e-004
-3.047445e-004,1.965235e-004
-5.988930e-004,2.242366e-004
-8.358325e-004,2.551911e-004
-1.001787e-003,2.864697e-004
-1.091572e-003,3.101313e-004
-1.102592e-003,3.229345e-004
-1.045545e-003,3.297412e-004
-9.602986e-004,3.331446e-004
-9.154066e-004,3.370341e-004
-9.648365e-004,3.472443e-004
-1.115881e-003,3.671783e-004
-1.334183e-003,3.947294e-004
-1.555240e-003,4.242253e-004
-1.698344e-003,4.477248e-004
-1.693968e-003,4.559901e-004
-1.510510e-003,4.454559e-004
-1.171146e-003,4.175806e-004
-7.431312e-004,3.713920e-004
-3.107410e-004,3.119140e-004
5.552663e-005,2.467637e-004
3.235827e-004,1.879340e-004
5.021787e-004,1.406109e-004
6.141660e-004,1.078737e-004
6.857989e-004,8.680524e-005
7.387943e-004,7.238143e-005
7.880622e-004,6.152305e-005
8.306854e-004,4.693717e-005
8.583986e-004,2.441009e-005
8.665019e-004,-4.113403e-006
8.564538e-004,-3.814712e-005
8.321440e-004,-7.218083e-005
8.028102e-004,-1.005423e-004
7.728280e-004,-1.196660e-004
7.465734e-004,-1.295519e-004
7.253428e-004,-1.374932e-004
6.992503e-004,-1.538618e-004
6.467411e-004,-1.809267e-004
5.606844e-004,-2.151224e-004
4.603659e-004,-2.514251e-004
3.843572e-004,-2.775176e-004
3.650715e-004,-2.862691e-004
4.169324e-004,-2.804347e-004
5.250300e-004,-2.707109e-004
6.613270e-004,-2.695764e-004
7.882243e-004,-2.810830e-004
8.703915e-004,-3.002067e-004
8.780085e-004,-3.173856e-004
7.992447e-004,-3.237062e-004
6.507927e-004,-3.188442e-004
4.670106e-004,-3.029619e-004
2.893870e-004,-2.831898e-004
1.584381e-004,-2.639041e-004
1.005808e-004,-2.454286e-004
1.211631e-004,-2.250084e-004
2.000889e-004,-2.005366e-004
2.952213e-004,-1.716889e-004
3.673404e-004,-1.412206e-004
3.854917e-004,-1.115627e-004
3.286068e-004,-8.465986e-005
1.916615e-004,-6.294311e-005
-5.896120e-006,-4.527799e-005
-2.358668e-004,-2.988179e-005
-4.778303e-004,-2.015787e-005
-7.217386e-004,-1.545797e-005
-9.530057e-004,-1.302700e-005
-1.147808e-003,-9.623623e-006
-1.288157e-003,-7.354709e-006
-1.377779e-003,-9.137427e-006
-1.414892e-003,-1.318906e-005
-1.381506e-003,-1.724069e-005
-1.266926e-003,-1.967167e-005
-1.077148e-003,-2.226472e-005
-8.345360e-004,-2.518189e-005
-5.783107e-004,-3.377136e-005
-3.491504e-004,-4.462973e-005
-1.757406e-004,-5.597430e-005
-5.970181e-005,-6.440170e-005
1.776542e-005,-6.748094e-005
7.465034e-005,-6.618442e-005
1.198666e-004,-6.051213e-005
1.521176e-004,-5.095028e-005
1.778860e-004,-3.409549e-005
2.086784e-004,-5.247859e-006
2.535705e-004,3.640293e-005
3.081865e-004,8.356394e-005
3.668542e-004,1.261871e-004
4.209840e-004,1.595726e-004
4.580970e-004,1.926339e-004
4.686312e-004,2.307193e-004
4.495075e-004,2.765838e-004
4.044533e-004,3.255275e-004
3.454615e-004,3.678266e-004
2.812837e-004,4.067223e-004
2.206712e-004,4.644175e-004
1.796687e-004,5.493398e-004
1.730240e-004,6.308587e-004
2.034923e-004,6.671614e-004
2.534084e-004,6.415551e-004
2.958695e-004,5.566327e-004
3.096451e-004,4.261701e-004
2.856594e-004,2.692908e-004
2.292607e-004,1.072255e-004
1.605450e-004,-4.057810e-005
1.065772e-004,-1.600202e-004
9.182927e-005,-2.415391e-004
1.304008e-004,-2.814071e-004
2.109473e-004,-2.843243e-004
3.086727e-004,-2.624455e-004
3.926226e-004,-2.345703e-004
4.360561e-004,-2.164190e-004
4.266563e-004,-2.172293e-004
3.704196e-004,-2.366771e-004
2.799871e-004,-2.624455e-004
1.777239e-004,-2.809209e-004
8.923623e-005,-2.882139e-004
3.121684e-005,-2.864312e-004
1.128280e-005,-2.815692e-004
2.975825e-005,-2.797865e-004
7.918817e-005,-2.828657e-004
1.462832e-004,-2.882139e-004
2.166196e-004,-2.956689e-004
2.803113e-004,-3.057169e-004
3.258516e-004,-3.136581e-004
3.467581e-004,-3.146305e-004
3.431926e-004,-3.089583e-004
3.269861e-004,-3.026377e-004
3.080245e-004,-2.950206e-004
2.859836e-004,-2.825416e-004
2.587566e-004,-2.639041e-004
2.294227e-004,-2.370013e-004
2.010613e-004,-1.935677e-004
1.691344e-004,-1.107524e-004
1.281319e-004,3.316162e-005
8.307774e-005,2.234263e-004
5.698522e-005,4.046154e-004
6.557468e-005,5.177371e-004
1.028497e-004,5.263265e-004
1.530900e-004,4.336251e-004
1.971717e-004,2.803113e-004
2.203471e-004,1.224596e-004
2.109473e-004,7.555301e-006
1.652449e-004,-4.187462e-005
9.344993e-005,-2.501983e-005
1.711715e-005,3.769945e-005
-4.819517e-005,1.174356e-004
-1.172350e-004,1.916615e-004
-2.186879e-004,2.466017e-004
-3.745947e-004,2.812837e-004
-5.896553e-004,3.034866e-004
-8.492839e-004,3.214759e-004
-1.118474e-003,3.422202e-004
-1.347635e-003,3.679886e-004
-1.494952e-003,3.900295e-004
-1.538061e-003,3.986190e-004
-1.473397e-003,3.944053e-004
-1.314087e-003,3.830607e-004
-1.084927e-003,3.713920e-004
-8.287016e-004,3.649094e-004
-5.917621e-004,3.585888e-004
-4.016596e-004,3.464339e-004
-2.579077e-004,3.303894e-004
-1.454344e-004,3.130485e-004
-5.127441e-005,2.999212e-004
2.684107e-005,2.945730e-004
8.291568e-005,2.973281e-004
1.137081e-004,3.018659e-004
1.260251e-004,2.992729e-004
1.229458e-004,2.846870e-004
1.047945e-004,2.585945e-004
6.444023e-005,2.273159e-004
-2.330684e-006,1.999268e-004
-9.292520e-005,1.812893e-004
-1.969711e-004,1.735102e-004
-2.891863e-004,1.718896e-004
-3.438023e-004,1.699448e-004
-3.407231e-004,1.589243e-004
-2.661730e-004,1.338042e-004
-1.232314e-004,9.620504e-005
6.476436e-005,5.568870e-005
2.692908e-004,2.197911e-005
4.642555e-004,1.002961e-007
6.224313e-004,-6.382317e-006
7.164293e-004,4.244267e-007
7.310151e-004,1.614476e-005
6.729957e-004,3.526847e-005
5.637637e-004,5.406805e-005
4.315182e-004,7.594687e-005
3.067279e-004,1.028497e-004
2.164575e-004,1.253768e-004
1.718896e-004,1.323456e-004
1.657311e-004,1.156529e-004
1.829100e-004,8.437427e-005
2.060853e-004,5.325772e-005
2.222919e-004,3.154097e-005
2.265056e-004,2.343770e-005
2.245608e-004,2.116879e-005
2.185644e-004,1.322759e-005
2.132162e-004,-3.627206e-006
2.188885e-004,-2.583016e-005
2.454672e-004,-4.706071e-005
2.856594e-004,-6.699475e-005
3.261758e-004,-9.211487e-005
3.561579e-004,-1.274451e-004
3.751195e-004,-1.682856e-004
3.874365e-004,-2.075054e-004
3.992672e-004,-2.408908e-004
4.091532e-004,-2.611490e-004
4.073705e-004,-2.677937e-004
3.895433e-004,-2.689281e-004
3.691231e-004,-2.708729e-004
3.666921e-004,-2.750866e-004
3.944053e-004,-2.794623e-004
4.461041e-004,-2.812451e-004
5.084993e-004,-2.775176e-004
5.752703e-004,-2.729798e-004
6.454446e-004,-2.716832e-004
7.195085e-004,-2.734659e-004
7.935724e-004,-2.747625e-004
8.551573e-004,-2.707109e-004
8.938910e-004,-2.629317e-004
9.096113e-004,-2.507768e-004
9.066941e-004,-2.358668e-004
8.891911e-004,-2.152845e-004
8.517539e-004,-1.932436e-004
7.823899e-004,-1.744440e-004
6.770474e-004,-1.585616e-004
5.349160e-004,-1.407345e-004
3.532407e-004,-1.114006e-004
1.240803e-004,-6.731888e-005
-1.498101e-004,-1.124428e-005
-4.459034e-004,4.596478e-005
-7.214144e-004,9.782569e-005
-9.403646e-004,1.394765e-004
-1.097244e-003,1.663793e-004
-1.222358e-003,1.759412e-004
-1.350876e-003,1.676758e-004
-1.493980e-003,1.466074e-004
-1.641297e-003,1.227837e-004
-1.768681e-003,1.067393e-004
-1.846796e-003,1.028497e-004
-1.846796e-003,1.148425e-004
-1.748746e-003,1.419075e-004
-1.553296e-003,1.842065e-004
-1.293667e-003,2.380122e-004
-1.027880e-003,2.974902e-004
-8.048780e-004,3.527545e-004
-6.343853e-004,3.901916e-004
-4.974402e-004,4.039671e-004
-3.697327e-004,3.932708e-004
-2.478596e-004,3.613439e-004
-1.441378e-004,3.141829e-004
-7.185670e-005,2.619979e-004
-3.085418e-005,2.148369e-004
-1.075808e-005,1.780480e-004
9.106227e-007,1.545486e-004
1.889987e-005,1.479039e-004
5.358185e-005,1.590864e-004
1.017153e-004,1.791825e-004
1.539003e-004,1.974959e-004
2.004130e-004,2.068957e-004
2.363916e-004,2.038164e-004
2.607014e-004,1.867996e-004
2.733424e-004,1.598967e-004
2.780424e-004,1.302388e-004
2.782044e-004,1.012291e-004
2.757735e-004,7.805372e-005
2.725321e-004,5.828175e-005
2.769079e-004,3.834771e-005
2.978143e-004,1.776542e-005
3.431926e-004,-7.030578e-006
4.172565e-004,-3.863332e-005
5.120648e-004,-7.963584e-005
6.093040e-004,-1.258245e-004
6.872575e-004,-1.700683e-004
7.290703e-004,-2.044261e-004
7.391184e-004,-2.264670e-004
7.352289e-004,-2.350565e-004
7.342565e-004,-2.335979e-004
7.431700e-004,-2.279256e-004
7.569456e-004,-2.232257e-004
7.598628e-004,-2.246843e-004
7.371737e-004,-2.347323e-004
6.854748e-004,-2.512630e-004
6.162729e-004,-2.699005e-004
5.503122e-004,-2.831898e-004
5.083373e-004,-2.846485e-004
4.984512e-004,-2.700626e-004
5.076890e-004,-2.392702e-004
5.089855e-004,-2.036158e-004
4.794896e-004,-1.763888e-004
4.182289e-004,-1.616409e-004
3.375204e-004,-1.530514e-004
2.529222e-004,-1.428413e-004
1.864754e-004,-1.295519e-004
1.522796e-004,-1.170729e-004
1.498487e-004,-1.075111e-004
1.694586e-004,-9.794922e-005
1.966855e-004,-9.065628e-005
2.169437e-004,-8.530812e-005
2.179161e-004,-8.028410e-005
1.914995e-004,-7.947377e-005
1.378558e-004,-8.028410e-005
5.925414e-005,-7.623246e-005
-3.863332e-005,-5.953974e-005
-1.467309e-004,-2.874733e-005
-2.522354e-004,8.041497e-006
-3.378059e-004,4.483033e-005
-3.835083e-004,8.129502e-005
-3.770257e-004,1.210010e-004
-3.280820e-004,1.611932e-004
-2.540181e-004,1.936063e-004
-1.705545e-004,2.101370e-004
-9.146661e-005,2.067336e-004
-2.177852e-005,1.906891e-004
4.223728e-005,1.723757e-004
1.041462e-004,1.616794e-004
1.675138e-004,1.587623e-004
2.255332e-004,1.587623e-004
2.568118e-004,1.607070e-004
2.375260e-004,1.655690e-004
1.516314e-004,1.764274e-004
4.151929e-006,1.942546e-004
-1.784957e-004,2.177540e-004
-3.535262e-004,2.482223e-004
-4.789647e-004,2.773941e-004
-5.283947e-004,2.965178e-004
-5.031124e-004,3.008936e-004
-4.251591e-004,2.906835e-004
-3.284061e-004,2.715597e-004
-2.379736e-004,2.516257e-004
-1.690959e-004,2.362295e-004
-1.261486e-004,2.193747e-004
-1.036215e-004,1.979821e-004
-9.665270e-005,1.683241e-004
-9.713889e-005,1.287802e-004
-9.600444e-005,8.275361e-005
-8.692878e-005,3.656499e-005
-7.056019e-005,-3.141010e-006
-4.738484e-005,-3.263690e-005
-2.518189e-005,-4.949169e-005
-6.220252e-006,-5.289507e-005
1.614476e-005,-4.641245e-005
4.693717e-005,-3.328516e-005
7.432621e-005,-1.643037e-005
8.210535e-005,3.827799e-006
6.379197e-005,2.667901e-005
3.170304e-005,5.341979e-005
6.096713e-006,8.437427e-005
-1.034161e-006,1.132219e-004
1.225520e-005,1.404489e-004
3.899597e-005,1.654069e-004
6.865393e-005,1.864754e-004
9.814982e-005,2.007372e-004
1.244044e-004,2.111094e-004
1.470936e-004,2.232643e-004
1.657311e-004,2.419018e-004
1.827479e-004,2.665357e-004
2.021958e-004,2.953834e-004
2.195368e-004,3.224483e-004
2.292607e-004,3.407616e-004
2.252090e-004,3.441650e-004
2.107852e-004,3.289309e-004
2.002510e-004,2.948972e-004
2.010613e-004,2.401191e-004
2.101370e-004,1.701068e-004
2.187264e-004,9.750156e-005
2.221298e-004,3.008238e-005
2.190506e-004,-3.036798e-005
2.141886e-004,-8.498399e-005
2.159713e-004,-1.400862e-004
2.433604e-004,-1.953505e-004
3.033245e-004,-2.404046e-004
3.754436e-004,-2.661730e-004
4.093153e-004,-2.749245e-004
3.493511e-004,-2.684419e-004
1.668655e-004,-2.548284e-004
-1.311726e-004,-2.391081e-004
-5.000332e-004,-2.232257e-004
-8.740799e-004,-2.083157e-004
-1.192376e-003,-1.925954e-004
-1.419105e-003,-1.752544e-004
-1.558968e-003,-1.579134e-004
-1.634977e-003,-1.436516e-004
-1.666741e-003,-1.302002e-004
-1.662852e-003,-1.180453e-004
-1.622822e-003,-1.075111e-004
-1.543410e-003,-9.568031e-005
-1.422347e-003,-7.947377e-005
-1.248775e-003,-5.986387e-005
-1.011349e-003,-4.171256e-005
-7.056941e-004,-2.664048e-005
-3.439643e-004,-1.173047e-005
3.073064e-005,3.017472e-006
3.718782e-004,1.355172e-005
6.433378e-004,1.922400e-005
8.193408e-004,2.262738e-005
8.947013e-004,2.603075e-005
8.818981e-004,2.846173e-005
8.018378e-004,2.748934e-005
6.788301e-004,2.732727e-005
5.467468e-004,3.170304e-005
4.350837e-004,4.304761e-005
3.665301e-004,6.217132e-005
3.551855e-004,8.810177e-005
4.015361e-004,1.169494e-004
4.926169e-004,1.410971e-004
6.031455e-004,1.543865e-004
7.164293e-004,1.573037e-004
8.267959e-004,1.539003e-004
9.316522e-004,1.529279e-004
1.027757e-003,1.558451e-004
1.105711e-003,1.595726e-004
1.162434e-003,1.671896e-004
1.189337e-003,1.765894e-004
1.168268e-003,1.867996e-004
1.085776e-003,1.960373e-004
9.418624e-004,1.992786e-004
7.436562e-004,1.934442e-004
5.097958e-004,1.788584e-004
2.697770e-004,1.631380e-004
4.450620e-005,1.534141e-004
-1.580754e-004,1.475797e-004
-3.285682e-004,1.435281e-004
-4.528722e-004,1.383420e-004
-5.095950e-004,1.307250e-004
-4.672960e-004,1.206769e-004
-2.985861e-004,1.116012e-004
-7.030578e-006,1.047945e-004
3.448133e-004,1.020394e-004
6.574374e-004,1.010670e-004
8.472161e-004,9.717743e-005
8.856256e-004,9.118101e-005
7.994067e-004,8.340187e-005
6.376655e-004,7.221937e-005
4.333010e-004,5.649903e-005
2.005751e-004,3.494434e-005
-5.986387e-005,1.014835e-005
-3.384541e-004,-1.675450e-005
-6.193133e-004,-4.317115e-005
-8.912588e-004,-6.974985e-005
-1.146674e-003,-9.341139e-005
-1.365786e-003,-1.157764e-004
-1.508079e-003,-1.389517e-004
-1.534010e-003,-1.666649e-004
-1.420078e-003,-1.958367e-004
-1.180059e-003,-2.209568e-004
-8.627353e-004,-2.373254e-004
-5.399013e-004,-2.431597e-004
-2.781658e-004,-2.402425e-004
-1.208004e-004,-2.263049e-004
-8.222889e-005,-1.963229e-004
-1.455964e-004,-1.374932e-004
-2.669833e-004,-2.550602e-005
-3.861013e-004,1.407730e-004
-4.578962e-004,3.169380e-004
-4.702132e-004,4.446456e-004
-4.329382e-004,4.802999e-004
-3.637363e-004,4.115842e-004
-2.856209e-004,2.572980e-004
-2.125294e-004,6.233338e-005
-1.423551e-004,-1.263107e-004
-5.986387e-005,-2.752487e-004
6.022653e-005,-3.647087e-004
2.263435e-004,-3.925839e-004
4.143393e-004,-3.776739e-004
5.845079e-004,-3.478539e-004
7.107570e-004,-3.212752e-004
7.859553e-004,-3.008550e-004
8.193408e-004,-2.778417e-004
8.300372e-004,-2.485079e-004
8.301992e-004,-2.133397e-004
8.272820e-004,-1.763888e-004
8.251752e-004,-1.449482e-004
8.212856e-004,-1.206384e-004
8.045929e-004,-1.018388e-004
7.678040e-004,-8.384954e-005
7.178878e-004,-6.326724e-005
6.715371e-004,-4.592625e-005
6.373413e-004,-3.782299e-005
6.138419e-004,-3.814712e-005
5.942319e-004,-4.090223e-005
5.621430e-004,-4.349527e-005
5.025029e-004,-4.770897e-005
4.135290e-004,-5.613637e-005
3.004074e-004,-6.586029e-005
1.809652e-004,-6.780507e-005
8.113296e-005,-5.435365e-005
2.181705e-005,-1.983374e-005
7.485573e-007,2.862379e-005
-1.416145e-005,7.918817e-005
-7.623246e-005,1.240803e-004
-2.186879e-004,1.592484e-004
-4.314796e-004,1.892305e-004
-6.676087e-004,2.166196e-004
-8.658146e-004,2.443328e-004
-9.679157e-004,2.739907e-004
-9.333958e-004,3.060797e-004
-7.590136e-004,3.396272e-004
-4.859335e-004,3.710679e-004
-1.815749e-004,3.974845e-004
9.409818e-005,4.185530e-004
3.036487e-004,4.358940e-004
4.294114e-004,4.449697e-004
4.815964e-004,4.407560e-004
4.871067e-004,4.263322e-004
4.746277e-004,4.047775e-004
4.606900e-004,3.780367e-004
4.514523e-004,3.474063e-004
4.467524e-004,3.127243e-004
4.414042e-004,2.757735e-004
4.318424e-004,2.423880e-004
4.185530e-004,2.156472e-004
3.991052e-004,1.960373e-004
3.733368e-004,1.788584e-004
3.417340e-004,1.626518e-004
3.004074e-004,1.487142e-004
2.483844e-004,1.368834e-004
1.918236e-004,1.281319e-004
1.349386e-004,1.214872e-004
7.448828e-005,1.172735e-004
-3.858999e-007,1.116012e-004
-9.989401e-005,1.012291e-004
-2.191741e-004,8.405014e-005
-3.347266e-004,5.795762e-005
-4.194868e-004,2.327564e-005
-4.562756e-004,-1.383732e-005
-4.478482e-004,-4.900550e-005
-4.096008e-004,-7.526008e-005
-3.553089e-004,-8.773911e-005
-2.895104e-004,-9.081835e-005
-2.107467e-004,-9.324933e-005
-1.209625e-004,-1.011905e-004
-3.134038e-005,-1.159385e-004
3.769945e-005,-1.347380e-004
7.254349e-005,-1.528894e-004
7.448828e-005,-1.674752e-004
6.103686e-005,-1.804405e-004
5.763349e-005,-1.955125e-004
7.756752e-005,-2.126914e-004
1.143563e-004,-2.314910e-004
1.393144e-004,-2.464010e-004
1.222976e-004,-2.507768e-004
4.920609e-005,-2.417012e-004
-6.569822e-005,-2.232257e-004
-1.878955e-004,-2.019951e-004
-2.755728e-004,-1.817370e-004
-2.977757e-004,-1.676373e-004
-2.485079e-004,-1.655305e-004
-1.506204e-004,-1.733096e-004
-5.483985e-005,-1.799543e-004
-1.520357e-006,-1.744440e-004
-1.196227e-006,-1.506204e-004
-3.928157e-005,-1.089697e-004
-8.887356e-005,-5.905355e-005
-1.264727e-004,-1.399939e-005
-1.386276e-004,1.582063e-005
-1.263107e-004,3.202716e-005
-9.924574e-005,4.191315e-005
-6.991193e-005,5.455425e-005
-5.159854e-005,7.578480e-005
-4.916756e-005,1.049566e-004
-5.143648e-005,1.428799e-004
-3.441962e-005,1.992786e-004
1.031041e-005,2.759355e-004
7.092284e-005,3.623164e-004
1.297526e-004,4.431870e-004
1.701068e-004,5.050959e-004
1.759412e-004,5.394538e-004
1.376938e-004,5.436675e-004
6.541262e-005,5.224369e-004
-1.772689e-005,4.867825e-004
-8.368748e-005,4.495075e-004
-1.251762e-004,4.182289e-004
-1.548341e-004,3.940812e-004
-1.864369e-004,3.738230e-004
-2.237119e-004,3.506476e-004
-2.559629e-004,3.230965e-004
-2.694143e-004,2.965178e-004
-2.626076e-004,2.705873e-004
-2.404046e-004,2.409294e-004
-2.109087e-004,2.091646e-004
-1.781716e-004,1.788584e-004
-1.472171e-004,1.488763e-004
-1.193418e-004,1.179218e-004
-9.924574e-005,8.291568e-005
-9.114248e-005,4.515445e-005
-8.919769e-005,1.883015e-006
-8.919769e-005,-4.284701e-005
-9.357346e-005,-8.854943e-005
-1.034594e-004,-1.290658e-004
-1.096179e-004,-1.600202e-004
-1.045939e-004,-1.859507e-004
-9.308726e-005,-2.123673e-004
-8.822530e-005,-2.415391e-004
-9.227693e-005,-2.724935e-004
-9.454585e-005,-3.040963e-004
-7.461182e-005,-3.331060e-004
-2.647842e-005,-3.579019e-004
3.915804e-005,-3.737844e-004
1.047945e-004,-3.848048e-004
1.526038e-004,-3.937184e-004
1.707551e-004,-3.980942e-004
1.620036e-004,-3.942046e-004
1.457970e-004,-3.835083e-004
1.435281e-004,-3.720016e-004
1.647587e-004,-3.626019e-004
2.018716e-004,-3.546606e-004
2.415777e-004,-3.452609e-004
2.705873e-004,-3.306750e-004
2.769079e-004,-3.044204e-004
2.569738e-004,-2.660110e-004
2.214815e-004,-2.214430e-004
1.866375e-004,-1.807646e-004
1.616794e-004,-1.511067e-004
1.448246e-004,-1.302002e-004
1.312112e-004,-1.143178e-004
1.164632e-004,-1.062146e-004
9.766362e-005,-1.039456e-004
7.886404e-005,-9.924574e-005
7.465034e-005,-8.174268e-005
9.944634e-005,-5.143648e-005
1.558451e-004,-1.918548e-005
2.290986e-004,5.448452e-006
2.971661e-004,1.938607e-005
3.475684e-004,2.457216e-005
3.820883e-004,2.781346e-005
4.028327e-004,3.413401e-005
4.149876e-004,4.239934e-005
4.274666e-004,5.163707e-005
4.441593e-004,6.200925e-005
4.616624e-004,7.578480e-005
4.723587e-004,9.555677e-005
4.556660e-004,1.239182e-004
3.906778e-004,1.595726e-004
2.739907e-004,1.966855e-004
1.278078e-004,2.278021e-004
-6.868513e-006,2.534084e-004
-9.584238e-005,2.720459e-004
-1.306864e-004,2.846870e-004
-1.349001e-004,2.918179e-004
-1.449482e-004,2.955454e-004
-1.904885e-004,2.987867e-004
-2.747625e-004,3.047831e-004
-3.703810e-004,3.159656e-004
-4.483344e-004,3.329825e-004
-4.930644e-004,3.506476e-004
-5.095950e-004,3.644232e-004
-5.073262e-004,3.718782e-004
-4.977643e-004,3.710679e-004
-4.933886e-004,3.637749e-004
-5.066779e-004,3.563199e-004
-5.413599e-004,3.546993e-004
-5.919242e-004,3.569682e-004
-6.432990e-004,3.561579e-004
-6.760361e-004,3.470822e-004
-6.747396e-004,3.318480e-004
-6.269303e-004,3.138588e-004
-5.337428e-004,2.991108e-004
-4.071698e-004,2.913317e-004
-2.605007e-004,2.901973e-004
-1.079973e-004,2.887387e-004
3.316162e-005,2.804733e-004
1.453108e-004,2.645909e-004
2.287745e-004,2.454672e-004
2.923041e-004,2.286124e-004
3.482167e-004,2.151610e-004
3.999155e-004,2.055991e-004
4.451317e-004,1.936063e-004
4.781931e-004,1.709172e-004
4.953720e-004,1.367214e-004
4.966686e-004,9.555677e-005
4.884033e-004,5.698522e-005
4.780310e-004,2.149292e-005
4.715484e-004,-1.189254e-005
4.767345e-004,-4.138842e-005
4.937514e-004,-6.796714e-005
5.198439e-004,-9.049421e-005
5.499881e-004,-1.104282e-004
5.749461e-004,-1.289037e-004
5.856425e-004,-1.447861e-004
5.695980e-004,-1.582375e-004
5.183853e-004,-1.689338e-004
4.380009e-004,-1.786577e-004
3.569682e-004,-1.885437e-004
3.135347e-004,-2.021572e-004
3.389789e-004,-2.178775e-004
4.342734e-004,-2.348944e-004
5.749461e-004,-2.519113e-004
7.253428e-004,-2.673075e-004
8.525642e-004,-2.763831e-004
9.399176e-004,-2.763831e-004
9.848097e-004,-2.694143e-004
1.000044e-003,-2.551526e-004
1.006689e-003,-2.373254e-004
1.016250e-003,-2.212809e-004
1.018681e-003,-2.089640e-004
9.917786e-004,-2.036158e-004
9.186870e-004,-2.057227e-004
7.929241e-004,-2.128535e-004
6.099523e-004,-2.182017e-004
3.511338e-004,-2.182017e-004
4.800190e-006,-2.125294e-004
-4.141386e-004,-2.044261e-004
-8.645180e-004,-1.959987e-004
-1.285726e-003,-1.869231e-004
-1.619256e-003,-1.724993e-004
-1.816166e-003,-1.491618e-004
-1.868351e-003,-1.167488e-004
-1.810331e-003,-7.639453e-005
-1.703692e-003,-2.955766e-005
-1.596243e-003,1.598270e-005
-1.491711e-003,5.001642e-005
-1.350876e-003,6.687121e-005
-1.134033e-003,6.735741e-005
-8.457185e-004,5.925414e-005
-5.301774e-004,5.147500e-005
-2.400805e-004,4.969229e-005
-1.772689e-005,5.666109e-005
1.185701e-004,6.816773e-005
1.733481e-004,8.340187e-005
1.752929e-004,1.044704e-004
1.637863e-004,1.344524e-004
1.668655e-004,1.660552e-004
1.897167e-004,1.916615e-004
2.119197e-004,2.070577e-004
2.005751e-004,2.119197e-004
1.281319e-004,2.104611e-004
-9.137427e-006,2.104611e-004
-1.840059e-004,2.161334e-004
-3.494746e-004,2.261814e-004
-4.514136e-004,2.370398e-004
-4.624341e-004,2.466017e-004
-3.929081e-004,2.493568e-004
-2.831898e-004,2.428742e-004
-1.841680e-004,2.325020e-004
-1.214487e-004,2.282883e-004
-8.077030e-005,2.373639e-004
-2.615429e-005,2.550291e-004
7.254349e-005,2.720459e-004
2.187264e-004,2.785285e-004
3.709058e-004,2.731804e-004
4.598797e-004,2.598910e-004
4.303838e-004,2.457913e-004
2.746390e-004,2.386605e-004
3.283749e-005,2.427121e-004
-2.172293e-004,2.602152e-004
-3.959873e-004,2.829043e-004
-4.588687e-004,2.992729e-004
-3.995528e-004,3.012177e-004
-2.365151e-004,2.893870e-004
-1.497178e-005,2.795009e-004
2.064095e-004,3.094830e-004
3.803056e-004,3.916502e-004
4.827309e-004,4.919686e-004
5.078511e-004,5.545259e-004
4.689553e-004,5.375090e-004
3.969983e-004,4.289252e-004
3.307136e-004,2.501671e-004
3.026763e-004,3.964424e-005
3.281205e-004,-1.601823e-004
4.033189e-004,-3.131719e-004
5.049339e-004,-4.057112e-004
5.940699e-004,-4.454172e-004
6.376655e-004,-4.515757e-004
6.300483e-004,-4.446069e-004
5.872631e-004,-4.382863e-004
5.303781e-004,-4.425001e-004
4.733311e-004,-4.525481e-004
4.209840e-004,-4.627582e-004
3.835469e-004,-4.679443e-004
3.687990e-004,-4.685925e-004
3.678266e-004,-4.671340e-004
3.611819e-004,-4.690787e-004
3.302274e-004,-4.745890e-004
2.829043e-004,-4.796130e-004
2.469258e-004,-4.809095e-004
2.365536e-004,-4.804233e-004
2.478982e-004,-4.796130e-004
2.615117e-004,-4.810716e-004
2.637806e-004,-4.862577e-004
2.545429e-004,-4.958195e-004
2.420638e-004,-5.078124e-004
2.321778e-004,-5.165638e-004
2.260194e-004,-5.152673e-004
2.200230e-004,-4.930644e-004
2.104611e-004,-4.441207e-004
1.932822e-004,-3.708672e-004
1.658931e-004,-2.796244e-004
1.253768e-004,-1.838438e-004
5.504044e-005,-9.535618e-005
-6.245691e-005,-1.837515e-005
-2.235498e-004,4.499239e-005
-3.942046e-004,9.879808e-005
-5.133225e-004,1.501728e-004
-5.360117e-004,1.981441e-004
-4.669719e-004,2.389846e-004
-3.403989e-004,2.717218e-004
-1.938919e-004,3.000832e-004
-5.111234e-005,3.258516e-004
7.465034e-005,3.488649e-004
1.804790e-004,3.726885e-004
2.650771e-004,3.982949e-004
3.248792e-004,4.273046e-004
3.589129e-004,4.580970e-004
3.676645e-004,4.838654e-004
3.550234e-004,5.046097e-004
3.328204e-004,5.203301e-004
3.159656e-004,5.347540e-004
3.109416e-004,5.483674e-004
3.230965e-004,5.584154e-004
3.504856e-004,5.616568e-004
3.859779e-004,5.559844e-004
4.195254e-004,5.441537e-004
4.380009e-004,5.305402e-004
4.180668e-004,5.235714e-004
3.477304e-004,5.201680e-004
2.376881e-004,5.086614e-004
1.117633e-004,4.817585e-004
-1.156841e-005,4.401077e-004
-1.358725e-004,3.914881e-004
-2.778417e-004,3.465960e-004
-4.449310e-004,3.119140e-004
-6.340612e-004,2.874421e-004
-8.248120e-004,2.699391e-004
-9.909290e-004,2.555152e-004
-1.125119e-003,2.431983e-004
-1.228031e-003,2.376881e-004
-1.288967e-003,2.406053e-004
-1.276812e-003,2.477361e-004
-1.164987e-003,2.564877e-004
-9.606228e-004,2.650771e-004
-7.092595e-004,2.681563e-004
-4.638926e-004,2.577842e-004
-2.601766e-004,2.287745e-004
-1.101041e-004,1.871237e-004
-1.772689e-005,1.378558e-004
1.128280e-005,8.810177e-005
-2.923353e-005,4.515445e-005
-1.396000e-004,1.549650e-005
-2.998826e-004,3.503668e-006
-4.755614e-004,6.258778e-006
-6.293613e-004,1.063454e-005
-7.345417e-004,4.313994e-006
-7.708443e-004,-1.999580e-005
-7.387554e-004,-6.132246e-005
-6.492953e-004,-1.120489e-004
-5.214258e-004,-1.614788e-004
-3.653570e-004,-2.052365e-004
-1.849783e-004,-2.459149e-004
1.452411e-005,-2.844864e-004
2.102990e-004,-3.186821e-004
3.705817e-004,-3.467195e-004
4.749518e-004,-3.684362e-004
5.209784e-004,-3.843186e-004
5.261644e-004,-3.961493e-004
5.141716e-004,-4.065215e-004
5.055821e-004,-4.177041e-004
5.110924e-004,-4.284004e-004
5.342677e-004,-4.334244e-004
5.867769e-004,-4.340726e-004
6.723474e-004,-4.389346e-004
7.796348e-004,-4.496309e-004
8.862739e-004,-4.629203e-004
9.687652e-004,-4.679443e-004
1.009282e-003,-4.588687e-004
1.001502e-003,-4.363416e-004
9.387831e-004,-4.037664e-004
8.173960e-004,-3.614674e-004
6.425274e-004,-3.131719e-004
4.331389e-004,-2.632558e-004
2.132162e-004,-2.120432e-004
9.013889e-006,-1.600202e-004
-1.587237e-004,-1.133454e-004
-2.844864e-004,-7.315322e-005
-3.792946e-004,-3.766092e-005
-4.598410e-004,-4.923729e-006
-5.347152e-004,2.732727e-005
-6.021344e-004,6.006447e-005
-6.447575e-004,9.442231e-005
-6.347094e-004,1.305629e-004
-5.531906e-004,1.637863e-004
-4.164075e-004,1.872858e-004
-2.674695e-004,2.015475e-004
-1.480274e-004,2.153231e-004
-7.785312e-005,2.368777e-004
-5.370539e-005,2.637806e-004
-6.488790e-005,2.872801e-004
-9.211487e-005,3.030004e-004
-1.084835e-004,3.102934e-004
-9.227693e-005,3.143450e-004
-3.766092e-005,3.183966e-004
4.385793e-005,3.227724e-004
1.292664e-004,3.245551e-004
1.957132e-004,3.211517e-004
2.336365e-004,3.143450e-004
2.534084e-004,3.083486e-004
2.666978e-004,3.073762e-004
2.835526e-004,3.125623e-004
3.083486e-004,3.203414e-004
3.279585e-004,3.287688e-004
3.282826e-004,3.383307e-004
3.080245e-004,3.440029e-004
2.754493e-004,3.396272e-004
2.352571e-004,3.218000e-004
1.947408e-004,2.893870e-004
1.676758e-004,2.474120e-004
1.696206e-004,2.044647e-004
2.062474e-004,1.691344e-004
2.725321e-004,1.462832e-004
3.624784e-004,1.299146e-004
4.679830e-004,1.137081e-004
5.742979e-004,9.280167e-005
6.647304e-004,6.573675e-005
7.284221e-004,3.802358e-005
7.658592e-004,1.760335e-005
7.716935e-004,1.176900e-005
7.321496e-004,2.716521e-005
6.483617e-004,5.617490e-005
5.397780e-004,8.615699e-005
4.389733e-004,1.070634e-004
3.746333e-004,1.143563e-004
3.606957e-004,1.065772e-004
3.853296e-004,8.161915e-005
4.211461e-004,4.256141e-005
4.261701e-004,-5.247859e-006
3.652335e-004,-5.451572e-005
2.242366e-004,-1.005423e-004
6.258778e-006,-1.433275e-004
-2.721694e-004,-1.835197e-004
-5.875485e-004,-2.194982e-004
-9.006586e-004,-2.464010e-004
-1.153318e-003,-2.637420e-004
-1.296746e-003,-2.750866e-004
-1.299177e-003,-2.804347e-004
-1.165797e-003,-2.778417e-004
-9.374474e-004,-2.711970e-004
-6.702017e-004,-2.630937e-004
-4.155972e-004,-2.546664e-004
-2.055606e-004,-2.452666e-004
-5.516398e-005,-2.316531e-004
3.218923e-005,-2.131776e-004
6.606088e-005,-1.961608e-004
7.302970e-005,-1.835197e-004
8.178122e-005,-1.746061e-004
1.085220e-004,-1.621271e-004
1.587623e-004,-1.436516e-004
2.295848e-004,-1.214487e-004
3.179104e-004,-1.031353e-004
4.177427e-004,-9.584238e-005
5.169268e-004,-9.162867e-005
5.922872e-004,-7.931171e-005
6.165970e-004,-5.159854e-005
5.733255e-004,-8.813297e-006
4.702519e-004,3.915804e-005
3.376824e-004,7.886404e-005
2.167816e-004,1.067393e-004
1.334801e-004,1.279698e-004
9.296373e-005,1.451488e-004
9.620504e-005,1.550348e-004
1.291043e-004,1.556830e-004
1.534141e-004,1.488763e-004
1.221355e-004,1.355869e-004
1.128280e-005,1.190562e-004
-1.588858e-004,1.101427e-004
-3.391024e-004,1.128978e-004
-4.736166e-004,1.281319e-004
-5.269361e-004,1.488763e-004
-4.893369e-004,1.645966e-004
-3.854531e-004,1.644345e-004
-2.674695e-004,1.462832e-004
-1.818991e-004,1.201907e-004
-1.559686e-004,9.831188e-005
-1.942160e-004,8.712937e-005
-2.788141e-004,8.615699e-005
-3.818876e-004,9.231547e-005
-4.716718e-004,1.010670e-004
-5.074882e-004,1.077117e-004
-4.749131e-004,1.067393e-004
-3.998769e-004,9.377406e-005
-3.233821e-004,7.189524e-005
-2.713591e-004,4.953022e-005
-2.413770e-004,3.624086e-005
-2.120432e-004,3.672706e-005
-1.669890e-004,4.936815e-005
-1.099421e-004,7.140904e-005
-5.305713e-005,1.012291e-004
-1.010982e-005,1.359110e-004
1.906194e-005,1.709172e-004
4.272347e-005,2.031682e-004
6.606088e-005,2.266676e-004
8.875003e-005,2.394708e-004
1.051186e-004,2.459534e-004
1.012291e-004,2.525981e-004
5.828175e-005,2.619979e-004
-3.555408e-005,2.709115e-004
-1.608306e-004,2.725321e-004
-2.703867e-004,2.618358e-004
-3.178718e-004,2.337985e-004
-2.789762e-004,1.884202e-004
-1.648822e-004,1.326697e-004
-9.947754e-006,7.319176e-005
1.446626e-004,1.582063e-005
2.692908e-004,-3.539201e-005
3.433547e-004,-7.412562e-005
3.652335e-004,-1.008664e-004
3.571303e-004,-1.177212e-004
3.438409e-004,-1.271210e-004
3.388169e-004,-1.306864e-004
3.397893e-004,-1.284175e-004
3.329825e-004,-1.214487e-004
3.102934e-004,-1.102662e-004
2.754493e-004,-9.762509e-005
2.376881e-004,-8.368748e-005
2.218057e-004,-6.618442e-005
2.525981e-004,-4.722278e-005
3.373583e-004,-3.150244e-005
4.595556e-004,-2.015787e-005
5.733255e-004,-1.318906e-005
6.261588e-004,-1.189254e-005
5.908285e-004,-2.113026e-005
4.728449e-004,-4.106429e-005
3.062417e-004,-6.667062e-005
1.470936e-004,-9.713889e-005
4.547859e-005,-1.248521e-004
1.371378e-005,-1.418689e-004
2.262738e-005,-1.465688e-004
3.380988e-005,-1.451102e-004
2.554455e-005,-1.387897e-004
-7.354709e-006,-1.282554e-004
-4.835724e-005,-1.172350e-004
-7.509801e-005,-1.036215e-004
-6.877746e-005,-8.514606e-005
-2.745081e-005,-6.051213e-005
3.672706e-005,-3.279896e-005
9.474644e-005,-7.840905e-006
1.098185e-004,9.500085e-006
6.476436e-005,2.035846e-005
-1.886135e-005,3.218923e-005
-8.984595e-005,5.147500e-005
-9.730096e-005,7.756752e-005
-2.177852e-005,1.036600e-004
1.090082e-004,1.229458e-004
2.495189e-004,1.355869e-004
3.571303e-004,1.464453e-004
4.104497e-004,1.597346e-004
4.159600e-004,1.775618e-004
3.989431e-004,2.002510e-004
3.806297e-004,2.231022e-004
3.637749e-004,2.394708e-004
3.409237e-004,2.436845e-004
2.921420e-004,2.397949e-004
2.047888e-004,2.331503e-004
8.664318e-005,2.295848e-004
-3.782299e-005,2.326641e-004
-1.439758e-004,2.381743e-004
-2.190120e-004,2.422259e-004
-2.626076e-004,2.440086e-004
-2.856209e-004,2.467637e-004
-3.105789e-004,2.527602e-004
-3.603330e-004,2.590807e-004
-4.512515e-004,2.611876e-004
-5.828486e-004,2.589186e-004
-7.407002e-004,2.548670e-004
-9.004966e-004,2.501671e-004
-1.029987e-003,2.451431e-004
-1.096271e-003,2.386605e-004
-1.074231e-003,2.287745e-004
-9.625676e-004,2.104611e-004
-7.836475e-004,1.882582e-004
-5.721523e-004,1.691344e-004
-3.637363e-004,1.584381e-004
-1.893541e-004,1.582761e-004
-5.791909e-005,1.637863e-004
4.191315e-005,1.647587e-004
1.258630e-004,1.519555e-004
2.051129e-004,1.214872e-004
2.895490e-004,7.562274e-005
3.754436e-004,2.651694e-005
4.482110e-004,-1.302700e-005
4.955341e-004,-3.766092e-005
5.089855e-004,-5.613637e-005
4.885653e-004,-7.526008e-005
4.490213e-004,-1.028112e-004
4.094774e-004,-1.410586e-004
3.746333e-004,-1.870851e-004
3.428685e-004,-2.313290e-004
3.192070e-004,-2.653627e-004
3.133726e-004,-2.874036e-004
3.352514e-004,-2.990722e-004
3.863020e-004,-3.060411e-004
4.639314e-004,-3.133340e-004
5.580913e-004,-3.207890e-004
6.540340e-004,-3.271096e-004
7.345806e-004,-3.313232e-004
7.948689e-004,-3.332680e-004
8.395990e-004,-3.311612e-004
8.724983e-004,-3.261372e-004
8.979426e-004,-3.198166e-004
9.096113e-004,-3.167374e-004
8.971323e-004,-3.188442e-004
8.504574e-004,-3.248407e-004
7.678040e-004,-3.342404e-004
6.491721e-004,-3.465574e-004
5.054200e-004,-3.613053e-004
3.568061e-004,-3.760533e-004
2.211574e-004,-3.857772e-004
1.166253e-004,-3.851289e-004
4.547859e-005,-3.708672e-004
-1.270286e-005,-3.420196e-004
-9.746302e-005,-2.977757e-004
-2.408908e-004,-2.415391e-004
-4.642168e-004,-1.807646e-004
-7.958024e-004,-1.178833e-004
-1.254933e-003,-5.143648e-005
-1.816814e-003,1.371378e-005
-2.397008e-003,7.302970e-005
-2.870402e-003,1.307250e-004
-3.109773e-003,1.921477e-004
-3.043002e-003,2.506533e-004
-2.681433e-003,2.955454e-004
-2.109342e-003,3.216380e-004
-1.453950e-003,3.347652e-004
-8.476633e-004,3.376824e-004
-3.830221e-004,3.336308e-004
-9.017008e-005,3.294171e-004
5.455425e-005,3.295791e-004
1.075496e-004,3.360618e-004
1.284560e-004,3.482167e-004
1.683241e-004,3.668542e-004
2.550291e-004,3.854917e-004
3.846814e-004,3.965121e-004
5.285954e-004,3.984569e-004
6.569512e-004,3.924605e-004
7.550009e-004,3.824125e-004
8.177201e-004,3.730126e-004
8.472161e-004,3.636129e-004
8.535367e-004,3.537269e-004
8.472161e-004,3.474063e-004
8.392748e-004,3.422202e-004
8.306854e-004,3.362238e-004
8.185305e-004,3.287688e-004
8.005413e-004,3.192070e-004
7.734763e-004,3.078624e-004
7.357151e-004,2.958695e-004
6.976296e-004,2.867939e-004
6.647304e-004,2.807975e-004
6.391241e-004,2.796630e-004
6.159487e-004,2.801492e-004
5.930975e-004,2.782044e-004
5.751082e-004,2.671840e-004
5.626292e-004,2.420638e-004
5.542018e-004,2.060853e-004
5.483674e-004,1.650828e-004
5.339436e-004,1.274836e-004
5.008822e-004,9.377406e-005
4.509661e-004,6.184718e-005
3.945674e-004,3.154097e-005
3.472443e-004,5.864920e-007
3.175863e-004,-3.085418e-005
3.077003e-004,-5.662256e-005
3.127243e-004,-7.185670e-005
3.201794e-004,-8.141856e-005
3.198552e-004,-9.130454e-005
3.124002e-004,-1.067007e-004
3.031625e-004,-1.316588e-004
2.968419e-004,-1.661787e-004
2.955454e-004,-2.032917e-004
3.013798e-004,-2.373254e-004
3.154794e-004,-2.656868e-004
3.352514e-004,-2.869174e-004
3.495132e-004,-3.000446e-004
3.543751e-004,-3.087962e-004
3.516200e-004,-3.207890e-004
3.393030e-004,-3.368335e-004
3.201794e-004,-3.540124e-004
3.051073e-004,-3.673017e-004
3.004074e-004,-3.694086e-004
3.038107e-004,-3.570916e-004
3.049452e-004,-3.350507e-004
2.900352e-004,-3.076617e-004
2.555152e-004,-2.793003e-004
2.064095e-004,-2.527216e-004
1.485521e-004,-2.263049e-004
8.242948e-005,-2.015090e-004
8.203562e-006,-1.793060e-004
-6.845333e-005,-1.588858e-004
-1.404103e-004,-1.357104e-004
-2.081536e-004,-1.136696e-004
-2.724935e-004,-9.584238e-005
-3.347266e-004,-8.044617e-005
-3.929081e-004,-6.278104e-005
-4.381243e-004,-3.847125e-005
-4.705373e-004,-6.058186e-006
-4.977643e-004,2.765140e-005
-5.266119e-004,5.520250e-005
-5.614560e-004,7.173317e-005
-6.031067e-004,8.097089e-005
-6.617744e-004,9.150514e-005
-7.522068e-004,1.088461e-004
-8.854245e-004,1.310491e-004
-1.057214e-003,1.545486e-004
-1.232406e-003,1.761032e-004
-1.340990e-003,1.955511e-004
-1.311008e-003,2.171058e-004
-1.106157e-003,2.430362e-004
-7.554481e-004,2.736666e-004
-3.441264e-004,3.054314e-004
2.522042e-005,3.307136e-004
2.668598e-004,3.396272e-004
3.428685e-004,3.323342e-004
2.777182e-004,3.172622e-004
1.231079e-004,3.054314e-004
-7.380149e-005,3.039728e-004
-2.736280e-004,3.128864e-004
-4.348830e-004,3.250413e-004
-5.305015e-004,3.311998e-004
-5.578905e-004,3.286068e-004
-5.390910e-004,3.247172e-004
-4.920920e-004,3.243930e-004
-4.162455e-004,3.255275e-004
-2.977757e-004,3.234207e-004
-1.162626e-004,3.140208e-004
1.273216e-004,2.986247e-004
4.013741e-004,2.775562e-004
6.541961e-004,2.585945e-004
8.391128e-004,2.438466e-004
9.360280e-004,2.328261e-004
9.509380e-004,2.221298e-004
9.076665e-004,2.099749e-004
8.355473e-004,1.918236e-004
7.579181e-004,1.654069e-004
6.841783e-004,1.295905e-004
6.094660e-004,8.793970e-005
5.318367e-004,4.823370e-005
4.558281e-004,1.257933e-005
3.843572e-004,-1.788895e-005
3.104554e-004,-4.057810e-005
2.162954e-004,-5.240886e-005
8.275361e-005,-5.791909e-005
-9.827335e-005,-6.164659e-005
-3.228959e-004,-6.359137e-005
-5.747453e-004,-6.812920e-005
-8.181673e-004,-7.931171e-005
-1.016535e-003,-9.827335e-005
-1.158342e-003,-1.230693e-004
-1.244237e-003,-1.507825e-004
-1.262388e-003,-1.806025e-004
-1.209879e-003,-2.079916e-004
-1.103564e-003,-2.280877e-004
-9.666192e-004,-2.425115e-004
-8.168708e-004,-2.558008e-004
-6.575607e-004,-2.697385e-004
-4.872300e-004,-2.815692e-004
-3.073376e-004,-2.861070e-004
-1.238797e-004,-2.833519e-004
5.423012e-005,-2.762210e-004
2.133783e-004,-2.686040e-004
3.493511e-004,-2.629317e-004
4.569625e-004,-2.553146e-004
5.383193e-004,-2.441321e-004
6.031455e-004,-2.259808e-004
6.637580e-004,-1.934057e-004
7.212912e-004,-1.446240e-004
7.687764e-004,-8.482193e-005
7.953551e-004,-2.826114e-005
7.960034e-004,1.679302e-005
7.788245e-004,5.034055e-005
7.569456e-004,7.384002e-005
7.397667e-004,8.988449e-005
7.331221e-004,9.944634e-005
7.400909e-004,1.023635e-004
7.566215e-004,9.328786e-005
7.728280e-004,7.578480e-005
7.744487e-004,5.633696e-005
7.545147e-004,3.932010e-005
7.078398e-004,2.781346e-005
6.302104e-004,2.214118e-005
5.373470e-004,1.889987e-005
4.582590e-004,1.533444e-005
4.114222e-004,1.614476e-005
4.038051e-004,2.376183e-005
4.248736e-004,3.915804e-005
4.506420e-004,6.379197e-005
4.629590e-004,9.620504e-005
4.561522e-004,1.316974e-004
4.350837e-004,1.684862e-004
4.102877e-004,2.023578e-004
3.807918e-004,2.310434e-004
3.350894e-004,2.585945e-004
2.684805e-004,2.851732e-004
1.900409e-004,3.068900e-004
1.034980e-004,3.175863e-004
-2.238346e-007,3.148312e-004
-1.332795e-004,3.023522e-004
-2.992343e-004,2.861456e-004
-4.788027e-004,2.688046e-004
-6.280648e-004,2.496809e-004
-7.031010e-004,2.292607e-004
-6.831670e-004,2.102990e-004
-5.857658e-004,1.999268e-004
-4.540067e-004,2.004130e-004
-3.322956e-004,2.068957e-004
-2.417012e-004,2.158093e-004
-1.814128e-004,2.250470e-004
-1.465688e-004,2.289366e-004
-1.246900e-004,2.234263e-004
-9.811128e-005,2.043026e-004
-5.435365e-005,1.749688e-004
4.962256e-006,1.381800e-004
6.719535e-005,9.798775e-005
1.146805e-004,5.974033e-005
1.393144e-004,2.441009e-005
1.386662e-004,-4.275467e-006
1.200286e-004,-2.599222e-005
9.069481e-005,-4.511593e-005
5.001642e-005,-6.472583e-005
-3.858999e-007,-8.628052e-005
-5.257093e-005,-1.073490e-004
-9.243900e-005,-1.287416e-004
-1.110765e-004,-1.468929e-004
-1.099421e-004,-1.614788e-004
-9.843541e-005,-1.765509e-004
-8.644259e-005,-1.977815e-004
-7.315322e-005,-2.248464e-004
-5.921561e-005,-2.506147e-004
-4.916756e-005,-2.703867e-004
-4.932962e-005,-2.833519e-004
-6.229485e-005,-2.916173e-004
-8.125649e-005,-2.969654e-004
-9.373552e-005,-2.976137e-004
-9.211487e-005,-2.909690e-004
-7.688073e-005,-2.773555e-004
-4.932962e-005,-2.619593e-004
-8.975362e-006,-2.481838e-004
4.596478e-005,-2.379736e-004
1.088461e-004,-2.298704e-004
1.705930e-004,-2.277635e-004
2.132162e-004,-2.326255e-004
2.149989e-004,-2.373254e-004
1.655690e-004,-2.342462e-004
7.740546e-005,-2.209568e-004
-2.388537e-005,-1.981056e-004
-1.211246e-004,-1.708786e-004
-2.164190e-004,-1.420310e-004
-3.177098e-004,-1.123730e-004
-4.254832e-004,-8.336335e-005
-5.185087e-004,-5.386745e-005
-5.669662e-004,-2.874733e-005
-5.468701e-004,-8.327101e-006
-4.608134e-004,9.338019e-006
-3.418575e-004,2.748934e-005
-2.300324e-004,4.645098e-005
-1.506204e-004,6.751948e-005
-1.088076e-004,9.199134e-005
-9.519411e-005,1.182459e-004
-1.010285e-004,1.430419e-004
-1.164247e-004,1.663793e-004
-1.284175e-004,1.900409e-004
-1.251762e-004,2.148369e-004
-1.026491e-004,2.384984e-004
-6.456377e-005,2.548670e-004
-2.177852e-005,2.641047e-004
2.133085e-005,2.696149e-004
6.427817e-005,2.775562e-004
1.025256e-004,2.937627e-004
1.304008e-004,3.192070e-004
1.540623e-004,3.493511e-004
1.856651e-004,3.827366e-004
2.263435e-004,4.277907e-004
2.660495e-004,5.104441e-004
2.910076e-004,6.519272e-004
2.803113e-004,8.242028e-004
2.231022e-004,9.632549e-004
1.278078e-004,1.008957e-003
2.116879e-005,9.374866e-004
-6.618442e-005,7.676419e-004
-1.107524e-004,5.439916e-004
-1.052422e-004,3.193690e-004
-5.565017e-005,1.339663e-004
2.522042e-005,8.365628e-006
1.232699e-004,-5.597430e-005
2.354192e-004,-7.380149e-005
3.508097e-004,-6.650855e-005
4.420525e-004,-5.370539e-005
4.854860e-004,-4.560212e-005
4.720346e-004,-4.706071e-005
4.104497e-004,-5.467778e-005
3.264999e-004,-6.245691e-005
2.522740e-004,-6.910160e-005
2.187264e-004,-7.866345e-005
2.370398e-004,-9.811128e-005
2.958695e-004,-1.314967e-004
3.769022e-004,-1.733096e-004
4.697657e-004,-2.147983e-004
5.653843e-004,-2.496423e-004
6.530617e-004,-2.804347e-004
7.169155e-004,-3.118754e-004
7.438183e-004,-3.412093e-004
7.306910e-004,-3.596847e-004
6.864472e-004,-3.617915e-004
6.221072e-004,-3.507711e-004
5.409124e-004,-3.344025e-004
4.373526e-004,-3.194925e-004
2.992729e-004,-3.083100e-004
1.138702e-004,-2.977757e-004
-1.253383e-004,-2.872415e-004
-4.087905e-004,-2.739521e-004
-7.157421e-004,-2.545043e-004
-1.023342e-003,-2.285739e-004
-1.297719e-003,-2.016710e-004
-1.489604e-003,-1.784957e-004
-1.568368e-003,-1.574272e-004
-1.533199e-003,-1.344139e-004
-1.396903e-003,-1.097800e-004
-1.170011e-003,-8.482193e-005
-8.690559e-004,-6.294311e-005
-5.334187e-004,-4.625038e-005
-2.185258e-004,-3.636440e-005
2.684107e-005,-3.117831e-005
1.942546e-004,-2.761287e-005
3.133726e-004,-2.291298e-005
4.258460e-004,-1.740276e-005
5.627912e-004,-1.302700e-005
7.169155e-004,-1.270286e-005
8.483506e-004,-1.788895e-005
9.063699e-004,-2.599222e-005
8.639088e-004,-3.490581e-005
7.287462e-004,-4.398147e-005
5.318367e-004,-4.592625e-005
3.156415e-004,-3.555408e-005
1.036600e-004,-1.092015e-005
-1.201522e-004,1.776542e-005
-3.925839e-004,4.029250e-005
-7.193076e-004,5.455425e-005
-1.056727e-003,6.233338e-005
-1.338235e-003,6.541262e-005
-1.499652e-003,6.962632e-005
-1.500787e-003,7.935024e-005
-1.340504e-003,9.636710e-005
-1.065641e-003,1.206769e-004
-7.486413e-004,1.504969e-004
-4.614617e-004,1.829100e-004
-2.459149e-004,2.175920e-004
-1.060525e-004,2.566497e-004
-3.004385e-005,3.017039e-004
4.151929e-006,3.490270e-004
2.441009e-005,3.940812e-004
5.811968e-005,4.321665e-004
1.175977e-004,4.546936e-004
1.999268e-004,4.553419e-004
2.953834e-004,4.354078e-004
3.922984e-004,4.029947e-004
4.858102e-004,3.730126e-004
5.717048e-004,3.619922e-004
6.436619e-004,3.734989e-004
6.911471e-004,4.025085e-004
7.042743e-004,4.427008e-004
6.862851e-004,4.854860e-004
6.503066e-004,5.251921e-004
6.143281e-004,5.554983e-004
5.848321e-004,5.717048e-004
5.639257e-004,5.721910e-004
5.580913e-004,5.546879e-004
5.700842e-004,5.247059e-004
5.940699e-004,4.846757e-004
6.180556e-004,4.381629e-004
6.324793e-004,3.884089e-004
6.389620e-004,3.402755e-004
6.400964e-004,2.963557e-004
6.370172e-004,2.538946e-004
6.248623e-004,2.096508e-004
5.927734e-004,1.555210e-004
5.292437e-004,8.599492e-005
4.300596e-004,3.503668e-006
3.081865e-004,-7.833932e-005
1.924718e-004,-1.436516e-004
1.098185e-004,-1.875713e-004
7.011252e-005,-2.102605e-004
6.768154e-005,-2.240360e-004
8.729144e-005,-2.381357e-004
1.059290e-004,-2.553146e-004
1.093323e-004,-2.718453e-004
1.000946e-004,-2.859450e-004
8.291568e-005,-2.966413e-004
6.233338e-005,-3.044204e-004
4.029250e-005,-3.154408e-004
2.732727e-005,-3.308371e-004
3.137890e-005,-3.475298e-004
5.325772e-005,-3.616295e-004
8.793970e-005,-3.718396e-004
1.302388e-004,-3.786463e-004
1.699448e-004,-3.805911e-004
1.991165e-004,-3.760533e-004
2.200230e-004,-3.645466e-004
2.350950e-004,-3.502849e-004
2.423880e-004,-3.381300e-004
2.435224e-004,-3.319715e-004
2.396328e-004,-3.337542e-004
2.242366e-004,-3.378059e-004
1.913374e-004,-3.392644e-004
1.415833e-004,-3.342404e-004
8.550872e-005,-3.250027e-004
4.337174e-005,-3.160891e-004
3.137890e-005,-3.079858e-004
5.244739e-005,-3.021515e-004
9.166720e-005,-3.015032e-004
1.318594e-004,-3.081479e-004
1.624898e-004,-3.156029e-004
1.725378e-004,-3.133340e-004
1.548727e-004,-2.946965e-004
1.159770e-004,-2.601766e-004
6.978839e-005,-2.164190e-004
3.121684e-005,-1.712027e-004
1.079661e-005,-1.298761e-004
9.824215e-006,-9.211487e-005
2.214118e-005,-5.678463e-005
4.418206e-005,-2.291298e-005
7.465034e-005,6.582909e-006
1.067393e-004,3.008238e-005
1.222976e-004,4.920609e-005
1.023635e-004,6.768154e-005
3.802358e-005,8.680524e-005
-6.051213e-005,1.069013e-004
-1.705545e-004,1.299146e-004
-2.710350e-004,1.573037e-004
-3.408851e-004,1.893926e-004
-3.638984e-004,2.252090e-004
-3.483401e-004,2.628082e-004
-3.204649e-004,3.038107e-004
-3.003688e-004,3.449753e-004
-3.105789e-004,3.832228e-004
-3.655190e-004,4.183910e-004
-4.629203e-004,4.490213e-004
-5.872243e-004,4.696036e-004
-7.209282e-004,4.744656e-004
-8.546321e-004,4.613383e-004
-9.847705e-004,4.315182e-004
-1.113937e-003,3.973225e-004
-1.233379e-003,3.712299e-004
-1.333211e-003,3.616681e-004
-1.398847e-003,3.621543e-004
-1.415054e-003,3.619922e-004
-1.375510e-003,3.556717e-004
-1.286698e-003,3.417340e-004
-1.159315e-003,3.211517e-004
-9.935220e-004,2.965178e-004
-7.860785e-004,2.717218e-004
-5.507597e-004,2.511395e-004
-3.211132e-004,2.347709e-004
-1.329553e-004,2.138645e-004
-2.006553e-006,1.812893e-004
7.691926e-005,1.378558e-004
1.291043e-004,9.118101e-005
1.812893e-004,4.774750e-005
2.566497e-004,1.160693e-005
3.571303e-004,-1.464765e-005
4.746277e-004,-3.166451e-005
5.956905e-004,-4.625038e-005
7.060571e-004,-6.602235e-005
7.913035e-004,-9.341139e-005
8.449472e-004,-1.250141e-004
8.806016e-004,-1.525652e-004
9.165801e-004,-1.673132e-004
9.664963e-004,-1.721751e-004
1.038940e-003,-1.778474e-004
1.134072e-003,-1.891920e-004
1.244439e-003,-2.058847e-004
1.354643e-003,-2.243602e-004
1.443131e-003,-2.431597e-004
1.489158e-003,-2.635799e-004
1.471817e-003,-2.849726e-004
1.385112e-003,-3.008550e-004
1.239901e-003,-3.024756e-004
1.049474e-003,-2.883759e-004
8.214476e-004,-2.630937e-004
5.553362e-004,-2.321393e-004
2.566497e-004,-2.010227e-004
-5.548811e-005,-1.708786e-004
-3.698948e-004,-1.378173e-004
-6.831670e-004,-1.007043e-004
-9.944944e-004,-6.067420e-005
-1.305822e-003,-1.902341e-005
-1.595757e-003,2.084466e-005
-1.818273e-003,5.406805e-005
-1.931718e-003,7.967438e-005
-1.916484e-003,9.912221e-005
-1.774515e-003,1.103047e-004
-1.531093e-003,1.120874e-004
-1.231758e-003,1.067393e-004
-9.261029e-004,9.960841e-005
-6.463782e-004,9.490851e-005
-3.937184e-004,9.896015e-005
-1.491618e-004,1.116012e-004
1.026876e-004,1.281319e-004
3.639370e-004,1.391524e-004
6.161107e-004,1.425557e-004
8.352232e-004,1.389903e-004
1.000206e-003,1.321835e-004
1.100363e-003,1.294284e-004
1.145903e-003,1.323456e-004
1.160003e-003,1.344524e-004
1.167133e-003,1.281319e-004
1.169078e-003,1.153287e-004
1.152061e-003,1.031738e-004
1.100524e-003,9.896015e-005
1.006364e-003,1.044704e-004
8.851394e-004,1.179218e-004
7.644006e-004,1.292664e-004
6.710509e-004,1.304008e-004
6.174073e-004,1.224596e-004
5.986077e-004,1.112771e-004
5.853184e-004,1.013911e-004
5.396159e-004,9.620504e-005
4.423766e-004,9.490851e-005
2.871180e-004,8.875003e-005
7.238143e-005,7.189524e-005
-1.992400e-004,4.855783e-005
-5.173742e-004,2.716521e-005
-8.627353e-004,1.792748e-005
-1.193673e-003,1.792748e-005
-1.453463e-003,2.197911e-005
-1.581333e-003,3.235129e-005
-1.533038e-003,5.487838e-005
-1.305498e-003,9.361199e-005
-9.423094e-004,1.445005e-004
-5.211017e-004,1.936063e-004
-1.225832e-004,2.258573e-004
1.937684e-004,2.372019e-004
3.882468e-004,2.346088e-004
4.459421e-004,2.300710e-004
3.718782e-004,2.287745e-004
1.903650e-004,2.265056e-004
-5.176061e-005,2.193747e-004
-3.008550e-004,2.060853e-004
-5.164018e-004,1.876099e-004
-6.752257e-004,1.692965e-004
-7.685754e-004,1.522796e-004
-7.888335e-004,1.375317e-004
-7.259523e-004,1.234320e-004
-5.726385e-004,1.103047e-004
-3.400748e-004,1.002567e-004
-6.796714e-005,9.442231e-005
1.853410e-004,8.923623e-005
3.760919e-004,7.708133e-005
4.880791e-004,4.985435e-005
5.298919e-004,6.096713e-006
5.260024e-004,-4.868137e-005
5.029891e-004,-1.026491e-004
4.861343e-004,-1.405724e-004
4.953720e-004,-1.572651e-004
5.368608e-004,-1.569410e-004
6.021731e-004,-1.459206e-004
6.762370e-004,-1.306864e-004
7.452769e-004,-1.148040e-004
7.950310e-004,-1.037836e-004
8.243649e-004,-9.956988e-005
8.392748e-004,-1.002181e-004
8.498091e-004,-1.010285e-004
8.532125e-004,-1.015147e-004
8.407335e-004,-1.041077e-004
8.060515e-004,-1.083214e-004
7.409012e-004,-1.101041e-004
6.347483e-004,-1.107524e-004
4.895377e-004,-1.105903e-004
3.435168e-004,-1.136696e-004
2.498430e-004,-1.172350e-004
2.370398e-004,-1.175591e-004
2.840388e-004,-1.148040e-004
3.368721e-004,-1.102662e-004
3.402755e-004,-1.054042e-004
2.641047e-004,-9.713889e-005
1.188942e-004,-8.174268e-005
-5.565017e-005,-5.856735e-005
-2.125294e-004,-2.793700e-005
-3.126857e-004,2.045080e-006
-3.374817e-004,2.603075e-005
-3.003688e-004,4.402000e-005
-2.339220e-004,6.006447e-005
-1.741199e-004,7.594687e-005
-1.475412e-004,8.972242e-005
-1.580754e-004,9.960841e-005
-1.825473e-004,1.073875e-004
-2.006986e-004,1.156529e-004
-2.076674e-004,1.208390e-004
-2.028055e-004,1.201907e-004
-1.856265e-004,1.182459e-004
-1.595340e-004,1.226217e-004
-1.340898e-004,1.341283e-004
-1.170729e-004,1.479039e-004
-1.131834e-004,1.594105e-004
-1.225832e-004,1.676758e-004
-1.370070e-004,1.791825e-004
-1.405724e-004,1.971717e-004
-1.188556e-004,2.148369e-004
-7.542214e-005,2.232643e-004
-2.388537e-005,2.185644e-004
1.971020e-005,2.044647e-004
4.077869e-005,1.858272e-004
3.105477e-005,1.702689e-004
-9.785688e-006,1.613553e-004
-7.072225e-005,1.618415e-004
-1.350622e-004,1.692965e-004
-1.909747e-004,1.757791e-004
-2.311669e-004,1.749688e-004
-2.533699e-004,1.655690e-004
-2.652006e-004,1.517934e-004
-2.754107e-004,1.360731e-004
-2.921034e-004,1.203528e-004
-3.120375e-004,1.046324e-004
-3.241924e-004,8.891209e-005
-3.143064e-004,6.995045e-005
-2.713591e-004,4.807163e-005
-1.896782e-004,2.586868e-005
-7.558420e-005,3.827799e-006
5.115087e-005,-1.707863e-005
1.717275e-004,-3.668853e-005
2.788527e-004,-5.354332e-005
3.772264e-004,-7.056019e-005
4.699278e-004,-9.130454e-005
5.516087e-004,-1.120489e-004
6.135177e-004,-1.219349e-004
6.443101e-004,-1.180453e-004
6.329655e-004,-1.034594e-004
5.683015e-004,-8.709085e-005
4.475628e-004,-8.352541e-005
2.892249e-004,-9.422172e-005
1.316974e-004,-1.148040e-004
8.365628e-006,-1.378173e-004
-7.056019e-005,-1.524032e-004
-1.144799e-004,-1.491618e-004
-1.491618e-004,-1.290658e-004
-1.981056e-004,-9.924574e-005
-2.718453e-004,-7.331530e-005
-3.648708e-004,-6.132246e-005
-4.721580e-004,-6.618442e-005
-5.984068e-004,-8.287715e-005
-7.337314e-004,-1.005423e-004
-8.614388e-004,-1.141558e-004
-9.696984e-004,-1.240417e-004
-1.052352e-003,-1.332795e-004
-1.105671e-003,-1.467309e-004
-1.121554e-003,-1.635857e-004
-1.091409e-003,-1.759026e-004
-1.009242e-003,-1.771992e-004
-8.792660e-004,-1.637477e-004
-7.094215e-004,-1.358725e-004
-5.099192e-004,-9.373552e-005
-2.956689e-004,-4.479180e-005
-8.741498e-005,1.002961e-007
9.263960e-005,3.737532e-005
2.297469e-004,6.751948e-005
3.177483e-004,9.101894e-005
3.619922e-004,1.065772e-004
3.725265e-004,1.120874e-004
3.569682e-004,1.070634e-004
3.166139e-004,9.636710e-005
2.587566e-004,8.761557e-005
1.903650e-004,8.875003e-005
1.148425e-004,9.977047e-005
3.818565e-005,1.153287e-004
-3.296103e-005,1.261871e-004
-8.741498e-005,1.282940e-004
-1.120489e-004,1.253768e-004
-1.045939e-004,1.232699e-004
-7.266703e-005,1.250527e-004
-1.399939e-005,1.291043e-004
7.578480e-005,1.354248e-004
1.902029e-004,1.425557e-004
3.205035e-004,1.511452e-004
4.529109e-004,1.598967e-004
5.640878e-004,1.673517e-004
6.316690e-004,1.749688e-004
6.426895e-004,1.840444e-004
6.002283e-004,1.911753e-004
5.295678e-004,1.916615e-004
4.640934e-004,1.837203e-004
4.334631e-004,1.692965e-004
4.451317e-004,1.527658e-004
4.807861e-004,1.370455e-004
5.101200e-004,1.219734e-004
5.081752e-004,1.049566e-004
4.548557e-004,8.356394e-005
3.574544e-004,5.844381e-005
2.391467e-004,3.121684e-005
1.266733e-004,3.503668e-006
4.855783e-005,-2.080613e-005
2.522042e-005,-3.895745e-005
5.115087e-005,-4.689865e-005
1.078737e-004,-4.106429e-005
1.791825e-004,-2.161646e-005
2.543808e-004,6.744974e-006
3.393030e-004,3.607880e-005
4.397836e-004,5.374392e-005
5.580913e-004,5.196120e-005
6.880678e-004,3.348575e-005
8.120479e-004,8.851824e-006
9.000494e-004,-8.489166e-006
9.206317e-004,-1.010982e-005
8.574262e-004,3.017472e-006
7.224257e-004,2.149292e-005
5.472330e-004,3.818565e-005
3.683128e-004,4.839576e-005
1.971717e-004,4.855783e-005
2.910999e-005,3.656499e-005
-1.308485e-004,1.095867e-005
-2.538560e-004,-2.307504e-005
-2.874036e-004,-5.889148e-005
-1.912988e-004,-9.081835e-005
1.857574e-005,-1.148040e-004
2.665357e-004,-1.287416e-004
4.503179e-004,-1.271210e-004
5.054200e-004,-1.097800e-004
4.239012e-004,-8.239095e-005
2.482223e-004,-5.500191e-005
3.753739e-005,-3.766092e-005
-1.643960e-004,-3.490581e-005
-3.452609e-004,-4.106429e-005
-5.139708e-004,-4.851930e-005
-6.825188e-004,-5.240886e-005
-8.633836e-004,-4.462973e-005
-1.079741e-003,-2.210265e-005
-1.352659e-003,2.992031e-005
-1.689593e-003,1.459591e-004
-2.062019e-003,3.253654e-004
-2.404301e-003,5.191956e-004
-2.650803e-003,6.579236e-004
-2.756956e-003,6.900126e-004
-2.702178e-003,6.036317e-004
-2.483875e-003,4.240633e-004
-2.109504e-003,2.031682e-004
-1.603860e-003,-5.085794e-006
-1.017670e-003,-1.595340e-004
-4.313175e-004,-2.425115e-004
6.978839e-005,-2.577456e-004
4.302217e-004,-2.267911e-004
6.498204e-004,-1.793060e-004
7.601869e-004,-1.352242e-004
8.066997e-004,-1.021629e-004
8.285785e-004,-8.077030e-005
8.554814e-004,-6.780507e-005
9.018321e-004,-6.407757e-005
9.661721e-004,-6.472583e-005
1.037643e-003,-6.116039e-005
1.098256e-003,-5.046408e-005
1.135855e-003,-3.782299e-005
1.144768e-003,-2.874733e-005
1.126455e-003,-2.113026e-005
1.081239e-003,-1.010982e-005
1.009768e-003,9.106227e-007
9.162560e-004,5.934648e-006
8.177201e-004,-1.520357e-006
7.323117e-004,-1.902341e-005
6.710509e-004,-3.830919e-005
6.341000e-004,-4.965376e-005
6.151384e-004,-5.046408e-005
6.099523e-004,-4.317115e-005
6.172452e-004,-3.441962e-005
6.326414e-004,-2.599222e-005
6.504686e-004,-1.756482e-005
6.650545e-004,-2.816880e-006
6.695924e-004,2.359977e-005
6.606788e-004,6.233338e-005
6.446343e-004,1.078737e-004
6.259967e-004,1.540623e-004
5.982835e-004,1.963614e-004
5.542018e-004,2.263435e-004
4.908342e-004,2.420638e-004
4.166082e-004,2.461155e-004
3.452995e-004,2.425500e-004
3.030004e-004,2.344468e-004
3.025142e-004,2.222919e-004
3.352514e-004,2.064095e-004
3.739850e-004,1.876099e-004
3.908399e-004,1.663793e-004
3.684748e-004,1.420695e-004
3.111037e-004,1.192183e-004
2.367157e-004,1.010670e-004
1.626518e-004,8.826383e-005
1.000946e-004,7.886404e-005
5.179914e-005,6.914012e-005
2.035846e-005,5.568870e-005
1.234753e-006,3.850978e-005
-1.092015e-005,2.068259e-005
-2.501983e-005,2.369211e-006
-5.240886e-005,-1.853722e-005
-9.908367e-005,-4.398147e-005
-1.587237e-004,-6.942573e-005
-2.055606e-004,-8.968389e-005
-2.211189e-004,-1.063766e-004
-2.053985e-004,-1.230693e-004
-1.712027e-004,-1.376552e-004
-1.298761e-004,-1.486757e-004
-7.817725e-005,-1.532135e-004
-6.544382e-006,-1.499722e-004
8.113296e-005,-1.374932e-004
1.748067e-004,-1.188556e-004
2.684805e-004,-1.002181e-004
3.608578e-004,-8.482193e-005
4.519385e-004,-7.137051e-005
5.370228e-004,-5.321920e-005
6.008766e-004,-2.469570e-005
6.334517e-004,1.565857e-005
6.358828e-004,6.573675e-005
6.114109e-004,1.177597e-004
5.657084e-004,1.602208e-004
4.992616e-004,1.856651e-004
4.115842e-004,1.957132e-004
3.038107e-004,1.936063e-004
1.846927e-004,1.817755e-004
6.298164e-005,1.573037e-004
-6.537409e-005,1.226217e-004
-2.194982e-004,8.113296e-005
-4.254832e-004,3.964424e-005
-6.912703e-004,7.231170e-006
-1.010053e-003,-7.354709e-006
-1.349904e-003,1.558884e-006
-1.659610e-003,3.753739e-005
-1.886502e-003,8.826383e-005
-1.996382e-003,1.380179e-004
-1.993789e-003,1.717275e-004
-1.915350e-003,1.837203e-004
-1.814869e-003,1.793446e-004
-1.734647e-003,1.702689e-004
-1.695427e-003,1.637863e-004
-1.694130e-003,1.611932e-004
-1.712930e-003,1.639484e-004
-1.726219e-003,1.704310e-004
-1.713902e-003,1.749688e-004
-1.652642e-003,1.705930e-004
-1.524286e-003,1.564933e-004
-1.314087e-003,1.373696e-004
-1.010863e-003,1.227837e-004
-6.262821e-004,1.182459e-004
-2.026434e-004,1.227837e-004
1.986303e-004,1.291043e-004
5.274609e-004,1.341283e-004
7.566215e-004,1.380179e-004
8.814119e-004,1.402868e-004
9.190111e-004,1.407730e-004
8.997253e-004,1.389903e-004
8.562917e-004,1.328318e-004
8.143168e-004,1.190562e-004
7.856312e-004,9.669123e-005
7.691005e-004,6.995045e-005
7.616456e-004,4.142696e-005
7.572698e-004,8.365628e-006
7.528940e-004,-2.793700e-005
7.402529e-004,-5.937768e-005
7.201568e-004,-7.785312e-005
6.994124e-004,-8.417367e-005
6.806127e-004,-8.676672e-005
6.629477e-004,-9.195280e-005
6.399344e-004,-1.070249e-004
6.071971e-004,-1.358725e-004
5.708945e-004,-1.744440e-004
5.449640e-004,-2.099363e-004
5.433434e-004,-2.305186e-004
5.726772e-004,-2.342462e-004
6.230795e-004,-2.241981e-004
6.731578e-004,-2.084778e-004
6.963331e-004,-1.929195e-004
6.812610e-004,-1.833576e-004
6.375034e-004,-1.780095e-004
5.827253e-004,-1.759026e-004
5.305402e-004,-1.812508e-004
4.888894e-004,-1.896782e-004
4.670106e-004,-1.940539e-004
4.673347e-004,-1.911368e-004
4.799758e-004,-1.807646e-004
4.846757e-004,-1.674752e-004
4.662003e-004,-1.558065e-004
4.294114e-004,-1.423551e-004
3.960259e-004,-1.196660e-004
3.837090e-004,-8.838737e-005
3.872744e-004,-5.402952e-005
3.874365e-004,-1.950961e-005
3.807918e-004,1.679302e-005
3.790091e-004,5.844381e-005
3.947294e-004,1.044704e-004
4.221185e-004,1.448246e-004
4.431870e-004,1.712413e-004
4.355699e-004,1.801549e-004
3.830607e-004,1.749688e-004
2.804733e-004,1.602208e-004
1.163011e-004,1.376938e-004
-1.196660e-004,1.085220e-004
-4.217557e-004,6.995045e-005
-7.627411e-004,2.522042e-005
-1.089303e-003,-1.529591e-005
-1.338883e-003,-4.544006e-005
-1.469670e-003,-5.986387e-005
-1.470480e-003,-5.613637e-005
-1.358979e-003,-3.571614e-005
-1.158991e-003,-2.654814e-006
-8.996862e-004,3.429608e-005
-6.165582e-004,6.200925e-005
-3.501228e-004,7.043665e-005
-1.352242e-004,6.119892e-005
1.290346e-005,4.564065e-005
9.458438e-005,3.397195e-005
1.227837e-004,3.089271e-005
1.145184e-004,3.445814e-005
8.372601e-005,3.915804e-005
4.369587e-005,4.564065e-005
9.986281e-006,5.552663e-005
9.106227e-007,7.497447e-005
2.522042e-005,1.064152e-004
7.205730e-005,1.479039e-004
1.210010e-004,1.916615e-004
1.586002e-004,2.282883e-004
1.869616e-004,2.553532e-004
2.104611e-004,2.718839e-004
2.339606e-004,2.795009e-004
2.560015e-004,2.796630e-004
2.715597e-004,2.748010e-004
2.735045e-004,2.628082e-004
2.594049e-004,2.410915e-004
2.276400e-004,2.161334e-004
1.843686e-004,1.945787e-004
1.393144e-004,1.851789e-004
9.571884e-005,1.905271e-004
5.601284e-005,2.088404e-004
2.829966e-005,2.321778e-004
1.922400e-005,2.498430e-004
2.927205e-005,2.545429e-004
4.661304e-005,2.420638e-004
5.909208e-005,2.172679e-004
6.119892e-005,1.898788e-004
5.293359e-005,1.657311e-004
4.547859e-005,1.474177e-004
5.082674e-005,1.302388e-004
7.351589e-005,1.124116e-004
1.060910e-004,9.231547e-005
1.375317e-004,6.719535e-005
1.631380e-004,3.526847e-005
1.887444e-004,2.531276e-006
2.193747e-004,-2.761287e-005
2.551911e-004,-5.240886e-005
2.903593e-004,-7.153257e-005
3.200173e-004,-8.887356e-005
3.376824e-004,-1.078352e-004
3.378445e-004,-1.271210e-004
3.180725e-004,-1.444620e-004
2.827423e-004,-1.564548e-004
2.436845e-004,-1.630995e-004
2.172679e-004,-1.686097e-004
2.162954e-004,-1.801163e-004
2.438466e-004,-1.969711e-004
2.958695e-004,-2.162569e-004
3.551855e-004,-2.327876e-004
4.007258e-004,-2.357047e-004
4.110980e-004,-2.220912e-004
3.717161e-004,-1.951884e-004
2.782044e-004,-1.637477e-004
1.391524e-004,-1.392759e-004
-2.031993e-005,-1.302002e-004
-1.783336e-004,-1.342519e-004
-3.149546e-004,-1.441378e-004
-4.134903e-004,-1.491618e-004
-4.638926e-004,-1.451102e-004
-4.609755e-004,-1.310105e-004
-4.248349e-004,-1.078352e-004
-3.984183e-004,-8.077030e-005
-4.115456e-004,-5.435365e-005
-4.637306e-004,-3.522994e-005
-5.261258e-004,-2.647842e-005
-5.556216e-004,-2.907146e-005
-5.151053e-004,-3.960571e-005
-4.039285e-004,-5.143648e-005
-2.506147e-004,-5.646050e-005
-9.794922e-005,-5.013995e-005
1.468618e-005,-3.117831e-005
6.606088e-005,-3.789272e-006
5.941620e-005,2.538249e-005
1.128280e-005,5.115087e-005
-6.180866e-005,7.238143e-005
-1.426792e-004,8.956036e-005
-2.172293e-004,1.049566e-004
-2.703867e-004,1.242423e-004
-2.908069e-004,1.457970e-004
-2.718453e-004,1.628139e-004
-2.180396e-004,1.715654e-004
-1.459206e-004,1.699448e-004
-7.412562e-005,1.602208e-004
-1.059602e-005,1.537382e-004
4.904402e-005,1.576278e-004
1.010670e-004,1.710792e-004
1.365593e-004,1.921477e-004
1.600588e-004,2.122438e-004
1.791825e-004,2.252090e-004
1.872858e-004,2.312055e-004
1.775618e-004,2.328261e-004
1.547106e-004,2.321778e-004
1.328318e-004,2.276400e-004
1.257009e-004,2.174299e-004
1.354248e-004,2.020337e-004
1.527658e-004,1.840444e-004
1.731861e-004,1.668655e-004
1.953890e-004,1.547106e-004
2.211574e-004,1.474177e-004
2.594049e-004,1.462832e-004
3.188828e-004,1.487142e-004
3.942432e-004,1.524417e-004
4.673347e-004,1.573037e-004
5.234093e-004,1.628139e-004
5.532294e-004,1.681620e-004
5.546879e-004,1.722137e-004
5.298919e-004,1.741585e-004
4.867825e-004,1.714034e-004
4.321665e-004,1.644345e-004
3.803056e-004,1.545486e-004
3.478926e-004,1.441764e-004
3.394651e-004,1.323456e-004
3.401134e-004,1.182459e-004
3.099692e-004,1.031738e-004
2.132162e-004,8.842590e-005
4.758544e-005,7.643307e-005
-1.661787e-004,6.589881e-005
-4.005251e-004,5.617490e-005
-6.193133e-004,4.320967e-005
-7.838095e-004,2.441009e-005
-8.701903e-004,-8.720959e-007
-8.755385e-004,-2.664048e-005
-8.129813e-004,-4.770897e-005
-7.029389e-004,-6.586029e-005
-5.779866e-004,-8.514606e-005
-4.731304e-004,-1.092938e-004
-4.052250e-004,-1.397621e-004
-3.692465e-004,-1.739578e-004
-3.454229e-004,-2.053985e-004
-3.109030e-004,-2.269532e-004
-2.583939e-004,-2.373254e-004
-1.961608e-004,-2.379736e-004
-1.360346e-004,-2.335979e-004
-7.607040e-005,-2.287359e-004
-7.678839e-006,-2.285739e-004
7.221937e-005,-2.269532e-004
1.569795e-004,-2.170672e-004
2.320158e-004,-1.994021e-004
2.842008e-004,-1.797922e-004
3.115899e-004,-1.650443e-004
3.156415e-004,-1.562927e-004
3.007315e-004,-1.493239e-004
2.767458e-004,-1.363587e-004
2.488706e-004,-1.105903e-004
2.041406e-004,-6.942573e-005
1.375317e-004,-1.707863e-005
6.395404e-005,3.575467e-005
1.371378e-005,7.351589e-005
5.772582e-006,8.502253e-005
3.413401e-005,7.335383e-005
6.622294e-005,5.439218e-005
6.087479e-005,4.547859e-005
-4.275467e-006,5.163707e-005
-1.233935e-004,6.914012e-005
-2.601766e-004,9.085688e-005
-3.720016e-004,1.069013e-004
-4.525481e-004,1.141943e-004
-5.223983e-004,1.163011e-004
-5.852795e-004,1.135460e-004
-6.069963e-004,1.038221e-004
-5.433047e-004,9.296373e-005
-3.747568e-004,8.956036e-005
-1.227452e-004,9.620504e-005
1.584381e-004,1.065772e-004
4.057499e-004,1.164632e-004
5.772150e-004,1.252147e-004
6.661890e-004,1.323456e-004
6.948746e-004,1.367214e-004
6.921195e-004,1.338042e-004
6.741302e-004,1.248906e-004
6.501445e-004,1.138702e-004
6.190279e-004,1.070634e-004
5.764047e-004,1.046324e-004
5.180612e-004,9.944634e-005
4.475628e-004,8.615699e-005
3.785229e-004,6.606088e-005
3.264999e-004,4.094075e-005
2.958695e-004,1.436204e-005
2.889007e-004,-1.124428e-005
3.038107e-004,-3.085418e-005
3.341170e-004,-4.171256e-005
3.728506e-004,-4.317115e-005
4.156358e-004,-3.506788e-005
4.516144e-004,-1.545797e-005
4.721967e-004,1.452411e-005
4.738173e-004,4.904402e-005
4.564763e-004,8.648112e-005
4.226047e-004,1.266733e-004
3.684748e-004,1.642725e-004
2.913317e-004,1.927960e-004
1.947408e-004,2.077060e-004
1.004187e-004,2.112714e-004
3.494434e-005,2.093267e-004
1.274139e-005,2.091646e-004
2.781346e-005,2.124059e-004
5.325772e-005,2.156472e-004
5.649903e-005,2.137024e-004
2.424803e-005,2.026820e-004
-3.620233e-005,1.853410e-004
-1.021629e-004,1.629760e-004
-1.524032e-004,1.391524e-004
-1.676373e-004,1.172735e-004
-1.355484e-004,9.798775e-005
-7.201877e-005,7.740546e-005
3.665733e-006,5.293359e-005
8.032264e-005,2.424803e-005
1.577899e-004,-7.354709e-006
2.436845e-004,-3.992984e-005
3.446512e-004,-7.331530e-005
4.579349e-004,-1.092938e-004
5.728393e-004,-1.449482e-004
6.772094e-004,-1.749302e-004
7.614834e-004,-1.917850e-004
8.113996e-004,-1.934057e-004
8.125341e-004,-1.851404e-004
7.582422e-004,-1.729855e-004
6.634339e-004,-1.637477e-004
5.600362e-004,-1.587237e-004
4.662003e-004,-1.585616e-004
3.798194e-004,-1.632615e-004
2.833905e-004,-1.692580e-004
1.534141e-004,-1.687718e-004
-2.404744e-005,-1.574272e-004
-2.632558e-004,-1.386276e-004
-5.726385e-004,-1.167488e-004
-9.547884e-004,-9.519411e-005
-1.396741e-003,-7.363943e-005
-1.876616e-003,-5.305713e-005
-2.351792e-003,-3.571614e-005
-2.736049e-003,-2.161646e-005
-2.942359e-003,-5.734056e-006
-2.932959e-003,1.776542e-005
-2.723084e-003,5.552663e-005
-2.356168e-003,1.062531e-004
-1.894119e-003,1.611932e-004
-1.408733e-003,2.111094e-004
-9.640261e-004,2.493568e-004
-5.904656e-004,2.705873e-004
-2.942103e-004,2.772320e-004
-6.375344e-005,2.735045e-004
1.231079e-004,2.632944e-004
2.898731e-004,2.441707e-004
4.467524e-004,2.192126e-004
5.908285e-004,1.939304e-004
7.071915e-004,1.777239e-004
7.726660e-004,1.757791e-004
7.736384e-004,1.848548e-004
7.016813e-004,1.986303e-004
5.462606e-004,2.135403e-004
3.192070e-004,2.265056e-004
7.659513e-005,2.410915e-004
-9.600444e-005,2.590807e-004
-1.391138e-004,2.804733e-004
-4.819517e-005,2.986247e-004
1.258630e-004,3.057555e-004
3.115899e-004,3.023522e-004
4.592314e-004,2.903593e-004
5.433434e-004,2.723701e-004
5.637637e-004,2.517878e-004
5.439916e-004,2.336365e-004
5.140096e-004,2.179161e-004
4.906721e-004,1.983062e-004
4.791655e-004,1.714034e-004
4.760863e-004,1.414213e-004
4.751139e-004,1.120874e-004
4.739794e-004,8.502253e-005
4.653899e-004,6.022653e-005
4.439973e-004,3.721326e-005
4.109360e-004,1.501031e-005
3.785229e-004,-8.975362e-006
3.603715e-004,-3.782299e-005
3.610198e-004,-6.829127e-005
3.775505e-004,-1.000561e-004
4.044533e-004,-1.332795e-004
4.277907e-004,-1.671511e-004
4.388112e-004,-1.950263e-004
4.352458e-004,-2.152845e-004
4.245494e-004,-2.250084e-004
4.214702e-004,-2.277635e-004
4.318424e-004,-2.261429e-004
4.498317e-004,-2.196603e-004
4.697657e-004,-2.091260e-004
4.830550e-004,-2.008607e-004
4.843516e-004,-2.002124e-004
4.715484e-004,-2.092881e-004
4.417284e-004,-2.245222e-004
3.916502e-004,-2.460769e-004
3.248792e-004,-2.699005e-004
2.542187e-004,-2.922655e-004
1.983062e-004,-3.117133e-004
1.618415e-004,-3.245165e-004
1.372076e-004,-3.269475e-004
1.124116e-004,-3.206269e-004
8.923623e-005,-3.060411e-004
7.675720e-005,-2.869174e-004
8.356394e-005,-2.647144e-004
1.175977e-004,-2.387840e-004
1.799928e-004,-2.115570e-004
2.632944e-004,-1.849783e-004
3.516200e-004,-1.592099e-004
4.292493e-004,-1.311726e-004
4.827309e-004,-1.018388e-004
5.115786e-004,-7.201877e-005
5.240576e-004,-3.992984e-005
5.300540e-004,-1.682422e-006
5.329712e-004,4.142696e-005
5.347540e-004,8.178122e-005
5.302161e-004,1.098185e-004
5.149820e-004,1.164632e-004
4.890515e-004,1.046324e-004
4.521006e-004,7.870197e-005
3.974845e-004,5.066468e-005
3.253654e-004,2.878586e-005
2.443328e-004,1.841368e-005
1.660552e-004,2.246531e-005
8.988449e-005,4.207521e-005
3.017472e-006,7.643307e-005
-1.092938e-004,1.159770e-004
-2.577456e-004,1.492004e-004
-4.478482e-004,1.735102e-004
-6.804119e-004,1.913374e-004
-9.555988e-004,2.049509e-004
-1.274381e-003,2.122438e-004
-1.609532e-003,2.158093e-004
-1.903519e-003,2.198609e-004
-2.082926e-003,2.279642e-004
-2.092163e-003,2.401191e-004
-1.910164e-003,2.543808e-004
-1.568206e-003,2.699391e-004
-1.139219e-003,2.804733e-004
-7.137973e-004,2.858215e-004
-3.685983e-004,2.845250e-004
-1.677994e-004,2.798251e-004
-1.433275e-004,2.767458e-004
-2.694143e-004,2.795009e-004
-4.650271e-004,2.882525e-004
-6.420024e-004,3.004074e-004
-7.274108e-004,3.125623e-004
-6.823567e-004,3.193690e-004
-5.152673e-004,3.216380e-004
-2.775176e-004,3.203414e-004
-5.273300e-005,3.188828e-004
8.097089e-005,3.172622e-004
9.620504e-005,3.119140e-004
2.068259e-005,2.965178e-004
-8.709085e-005,2.694529e-004
-1.592099e-004,2.393087e-004
-1.517549e-004,2.179161e-004
-5.710876e-005,2.114335e-004
1.039842e-004,2.188885e-004
2.932765e-004,2.299089e-004
4.678209e-004,2.346088e-004
6.044420e-004,2.276400e-004
6.942263e-004,2.090025e-004
7.386322e-004,1.829100e-004
7.480320e-004,1.589243e-004
7.347427e-004,1.391524e-004
7.076777e-004,1.188942e-004
6.699165e-004,8.956036e-005
6.269692e-004,4.693717e-005
5.849942e-004,-7.354709e-006
5.470709e-004,-6.958779e-005
5.094717e-004,-1.332795e-004
4.629590e-004,-1.919471e-004
3.995914e-004,-2.410529e-004
3.195311e-004,-2.814071e-004
2.347709e-004,-3.186821e-004
1.680000e-004,-3.530400e-004
1.368834e-004,-3.820497e-004
1.415833e-004,-4.016596e-004
1.683241e-004,-4.123559e-004
1.997648e-004,-4.194868e-004
2.286124e-004,-4.254832e-004
2.579462e-004,-4.256453e-004
2.885766e-004,-4.143007e-004
3.127243e-004,-3.877220e-004
3.200173e-004,-3.510952e-004
3.128864e-004,-3.109030e-004
3.089969e-004,-2.700626e-004
3.216380e-004,-2.306807e-004
3.493511e-004,-1.919471e-004
3.791712e-004,-1.569410e-004
4.029947e-004,-1.284175e-004
4.250357e-004,-1.081593e-004
4.572867e-004,-9.454585e-005
5.083373e-004,-9.049421e-005
5.785116e-004,-9.713889e-005
6.598685e-004,-1.065387e-004
7.368495e-004,-1.104282e-004
7.948689e-004,-1.070249e-004
8.360335e-004,-9.616651e-005
8.695811e-004,-7.396356e-005
9.015080e-004,-4.057810e-005
9.295454e-004,-6.176923e-008
9.370004e-004,4.061663e-005
8.966461e-004,7.416415e-005
7.896828e-004,9.523264e-005
6.146522e-004,1.017153e-004
3.833848e-004,9.458438e-005
1.034980e-004,8.129502e-005
-2.219292e-004,7.124698e-005
-5.852795e-004,6.832980e-005
-9.633779e-004,7.546067e-005
-1.322515e-003,9.182927e-005
-1.624929e-003,1.148425e-004
-1.847120e-003,1.440143e-004
-1.985362e-003,1.775618e-004
-2.050188e-003,2.137024e-004
-2.053429e-003,2.482223e-004
-1.988603e-003,2.772320e-004
-1.851172e-003,2.991108e-004
-1.651345e-003,3.141829e-004
-1.399820e-003,3.253654e-004
-1.097568e-003,3.357376e-004
-7.460483e-004,3.452995e-004
-3.630881e-004,3.517821e-004
4.962256e-006,3.522683e-004
3.002453e-004,3.456236e-004
4.790034e-004,3.346032e-004
5.281092e-004,3.201794e-004
4.639314e-004,3.062417e-004
3.360618e-004,2.976523e-004
2.088404e-004,2.965178e-004
1.273216e-004,2.997591e-004
1.104668e-004,3.023522e-004
1.594105e-004,2.994350e-004
2.581083e-004,2.901973e-004
3.736609e-004,2.819319e-004
4.702519e-004,2.801492e-004
5.253541e-004,2.838767e-004
5.366987e-004,2.838767e-004
5.133613e-004,2.725321e-004
4.718725e-004,2.441707e-004
4.286011e-004,2.034923e-004
3.926226e-004,1.595726e-004
3.699334e-004,1.219734e-004
3.626405e-004,9.766362e-005
3.632887e-004,8.567078e-005
3.616681e-004,7.756752e-005
3.585888e-004,6.395404e-005
3.555096e-004,4.402000e-005
3.522683e-004,2.052053e-005
3.469201e-004,-6.706447e-006
3.367100e-004,-3.992984e-005
3.213138e-004,-7.428769e-005
3.031625e-004,-1.067007e-004
2.879283e-004,-1.402483e-004
2.769079e-004,-1.799543e-004
2.683184e-004,-2.256567e-004
2.594049e-004,-2.742763e-004
2.501671e-004,-3.168994e-004
2.373639e-004,-3.476919e-004
2.216436e-004,-3.694086e-004
2.051129e-004,-3.859393e-004
1.961994e-004,-3.990665e-004
2.046267e-004,-4.063595e-004
2.352571e-004,-4.083043e-004
2.739907e-004,-4.070078e-004
3.051073e-004,-4.089525e-004
3.255275e-004,-4.167317e-004
3.360618e-004,-4.309934e-004
3.394651e-004,-4.506033e-004
3.367100e-004,-4.659995e-004
3.300653e-004,-4.749131e-004
3.242310e-004,-4.711856e-004
3.255275e-004,-4.543308e-004
3.431926e-004,-4.227281e-004
3.819262e-004,-3.729740e-004
4.237391e-004,-3.096065e-004
4.485351e-004,-2.417012e-004
4.465904e-004,-1.752544e-004
4.091532e-004,-1.126972e-004
3.252034e-004,-5.483985e-005
1.872858e-004,-2.654814e-006
9.013889e-006,4.013043e-005
-1.763888e-004,7.400208e-005
-3.314853e-004,1.038221e-004
-4.275900e-004,1.297526e-004
-4.585445e-004,1.492004e-004
-4.444448e-004,1.602208e-004
-4.249970e-004,1.641104e-004
-4.407173e-004,1.678379e-004
-5.201293e-004,1.762653e-004
-6.637191e-004,1.867996e-004
-8.411807e-004,1.986303e-004
-1.007784e-003,2.167816e-004
-1.119285e-003,2.474120e-004
-1.148781e-003,2.910076e-004
-1.105509e-003,3.393030e-004
-1.012808e-003,3.869503e-004
-8.894761e-004,4.269804e-004
-7.560964e-004,4.580970e-004
-6.337371e-004,4.811103e-004
-5.352014e-004,4.950479e-004
-4.622720e-004,5.018546e-004
-4.191627e-004,5.028270e-004
-4.010113e-004,4.997478e-004
-3.951770e-004,4.927790e-004
-3.898288e-004,4.804620e-004
-3.762153e-004,4.629590e-004
-3.459091e-004,4.404318e-004
-2.951827e-004,4.161220e-004
-2.295462e-004,3.913261e-004
-1.551583e-004,3.663680e-004
-7.623246e-005,3.433547e-004
9.106227e-007,3.247172e-004
6.719535e-005,3.085106e-004
1.188942e-004,2.921420e-004
1.571416e-004,2.748010e-004
1.804790e-004,2.564877e-004
1.913374e-004,2.368777e-004
1.973338e-004,2.141886e-004
2.054371e-004,1.850168e-004
2.141886e-004,1.526038e-004
2.243987e-004,1.284560e-004
2.339606e-004,1.388282e-004
2.362295e-004,2.190506e-004
2.295848e-004,3.631267e-004
2.200230e-004,5.128751e-004
2.184023e-004,5.971491e-004
2.407673e-004,5.723531e-004
2.936006e-004,4.399457e-004
3.683128e-004,2.362295e-004
4.462662e-004,6.096713e-006
5.102821e-004,-2.118811e-004
5.579292e-004,-3.903150e-004
5.888838e-004,-5.151053e-004
6.003904e-004,-5.880346e-004
5.845079e-004,-6.204477e-004
5.482053e-004,-6.267683e-004
5.144958e-004,-6.193133e-004
5.041235e-004,-6.037550e-004
5.274609e-004,-5.846313e-004
5.723531e-004,-5.666421e-004
6.148142e-004,-5.522182e-004
6.378276e-004,-5.408737e-004
6.431757e-004,-5.298533e-004
6.418792e-004,-5.142950e-004
6.332897e-004,-4.961436e-004
6.062248e-004,-4.828543e-004
5.532294e-004,-4.788027e-004
4.686312e-004,-4.820440e-004
3.592371e-004,-4.847991e-004
2.508154e-004,-4.796130e-004
1.705930e-004,-4.609755e-004
1.355869e-004,-4.301831e-004
1.469315e-004,-3.922598e-004
1.903650e-004,-3.579019e-004
2.490327e-004,-3.384541e-004
3.109416e-004,-3.342404e-004
3.734989e-004,-3.355370e-004
4.423766e-004,-3.225718e-004
5.224369e-004,-2.794623e-004
6.063868e-004,-2.110708e-004
6.812610e-004,-1.313347e-004
7.298806e-004,-5.613637e-005
7.436562e-004,5.934648e-006
7.243705e-004,5.260946e-005
6.762370e-004,8.664318e-005
5.997422e-004,1.132219e-004
4.861343e-004,1.402868e-004
3.159656e-004,1.709172e-004
6.573675e-005,2.098128e-004
-2.768693e-004,2.600531e-004
-7.045596e-004,3.227724e-004
-1.171146e-003,3.937570e-004
-1.620553e-003,4.696036e-004
-2.014696e-003,5.422090e-004
-2.319055e-003,6.042800e-004
-2.489062e-003,6.541961e-004
-2.487927e-003,6.914712e-004
-2.299769e-003,7.128638e-004
-1.948249e-003,7.161052e-004
-1.487173e-003,7.013571e-004
-9.991943e-004,6.708889e-004
-5.695592e-004,6.316690e-004
-2.596904e-004,5.893700e-004
-8.628052e-005,5.456123e-004
-2.809907e-005,5.025029e-004
-4.706071e-005,4.644175e-004
-1.044318e-004,4.399457e-004
-1.613168e-004,4.313562e-004
-1.823853e-004,4.337872e-004
-1.428413e-004,4.371906e-004
-4.171256e-005,4.292493e-004
8.729144e-005,4.039671e-004
2.031682e-004,3.632887e-004
2.788527e-004,3.133726e-004
3.122381e-004,2.607014e-004
3.180725e-004,2.125679e-004
3.164518e-004,1.765894e-004
3.222862e-004,1.551968e-004
3.409237e-004,1.435281e-004
3.666921e-004,1.310491e-004
3.901916e-004,1.091703e-004
4.070464e-004,7.432621e-005
4.222805e-004,2.765140e-005
4.499937e-004,-1.950961e-005
4.956961e-004,-5.824322e-005
5.519328e-004,-8.336335e-005
6.068730e-004,-9.551824e-005
6.498204e-004,-9.811128e-005
6.770474e-004,-9.762509e-005
6.862851e-004,-1.013526e-004
6.772094e-004,-1.135075e-004
6.465791e-004,-1.355484e-004
5.973112e-004,-1.658546e-004
5.389676e-004,-1.995642e-004
4.833792e-004,-2.334358e-004
4.435111e-004,-2.609869e-004
4.282770e-004,-2.767073e-004
4.352458e-004,-2.781658e-004
4.464283e-004,-2.720074e-004
4.428628e-004,-2.700626e-004
