4.248736e-004,5.935837e-004
4.576108e-004,5.642498e-004
5.230852e-004,5.248679e-004
6.096281e-004,4.770586e-004
6.963331e-004,4.269804e-004
7.556491e-004,3.816021e-004
7.627800e-004,3.435168e-004
7.055709e-004,3.127243e-004
5.872631e-004,2.866318e-004
4.157979e-004,2.647530e-004
1.910133e-004,2.453052e-004
-8.628052e-005,2.295848e-004
-4.049009e-004,2.185644e-004
-7.509103e-004,2.093267e-004
-1.096109e-003,1.968476e-004
-1.400468e-003,1.785342e-004
-1.626711e-003,1.532520e-004
-1.749881e-003,1.235941e-004
-1.757984e-003,9.782569e-005
-1.654424e-003,7.967438e-005
-1.453463e-003,7.043665e-005
-1.181194e-003,7.011252e-005
-8.677593e-004,7.675720e-005
-5.530285e-004,8.210535e-005
-2.758969e-004,7.935024e-005
-6.002594e-005,6.071273e-005
9.134307e-005,2.246531e-005
1.879340e-004,-2.890940e-005
2.451431e-004,-7.866345e-005
2.767458e-004,-1.161005e-004
2.955454e-004,-1.405724e-004
3.180725e-004,-1.530514e-004
3.566440e-004,-1.595340e-004
4.098015e-004,-1.634236e-004
4.751139e-004,-1.671511e-004
5.451261e-004,-1.712027e-004
6.123833e-004,-1.746061e-004
6.695924e-004,-1.728234e-004
7.097846e-004,-1.627754e-004
7.332841e-004,-1.501342e-004
7.347427e-004,-1.410586e-004
7.146465e-004,-1.355484e-004
6.736440e-004,-1.280934e-004
6.185417e-004,-1.173971e-004
5.650602e-004,-1.067007e-004
5.260024e-004,-9.616651e-005
5.023408e-004,-8.498399e-005
4.846757e-004,-7.299116e-005
4.629590e-004,-5.516398e-005
4.378388e-004,-3.344723e-005
4.167703e-004,-9.623623e-006
4.072085e-004,1.274139e-005
4.054258e-004,2.748934e-005
4.068843e-004,3.494434e-005
4.076947e-004,4.353380e-005
4.047775e-004,6.281957e-005
3.960259e-004,9.458438e-005
3.775505e-004,1.331559e-004
3.436788e-004,1.688103e-004
2.984626e-004,1.966855e-004
2.462775e-004,2.159713e-004
1.919856e-004,2.271538e-004
1.402868e-004,2.305572e-004
9.312580e-005,2.243987e-004
5.390598e-005,2.124059e-004
2.667901e-005,1.979821e-004
1.711715e-005,1.845306e-004
2.473423e-005,1.717275e-004
3.656499e-005,1.603829e-004
3.202716e-005,1.527658e-004
-2.978945e-006,1.492004e-004
-5.970181e-005,1.448246e-004
-1.199901e-004,1.381800e-004
-1.640719e-004,1.253768e-004
-1.878955e-004,1.075496e-004
-1.958367e-004,8.875003e-005
-1.964849e-004,7.254349e-005
-1.956746e-004,5.860588e-005
-2.016710e-004,4.385793e-005
-2.125294e-004,2.197911e-005
-2.229016e-004,-7.030578e-006
-2.282497e-004,-3.847125e-005
-2.329496e-004,-6.553616e-005
-2.395943e-004,-8.465986e-005
-2.452666e-004,-9.924574e-005
-2.428356e-004,-1.109144e-004
-2.241981e-004,-1.224211e-004
-1.862748e-004,-1.329553e-004
-1.454344e-004,-1.438137e-004
-1.259865e-004,-1.582375e-004
-1.507825e-004,-1.755785e-004
-2.222533e-004,-1.903264e-004
-3.156029e-004,-1.982676e-004
-3.927460e-004,-1.972953e-004
-4.227281e-004,-1.909747e-004
-3.904771e-004,-1.877334e-004
-2.969654e-004,-1.937298e-004
-1.635857e-004,-2.062088e-004
-2.971972e-005,-2.183637e-004
6.249545e-005,-2.267911e-004
9.620504e-005,-2.308428e-004
8.405014e-005,-2.284118e-004
5.374392e-005,-2.185258e-004
2.489629e-005,-2.000504e-004
1.387585e-005,-1.788198e-004
2.992031e-005,-1.600202e-004
8.226741e-005,-1.468929e-004
1.631380e-004,-1.383035e-004
2.475741e-004,-1.316588e-004
3.085106e-004,-1.261486e-004
3.329825e-004,-1.229073e-004
3.214759e-004,-1.242038e-004
2.851732e-004,-1.287416e-004
2.355812e-004,-1.358725e-004
1.726999e-004,-1.415448e-004
8.810177e-005,-1.472171e-004
-2.728874e-005,-1.507825e-004
-1.801163e-004,-1.506204e-004
-3.818876e-004,-1.452723e-004
-6.287131e-004,-1.326312e-004
-8.954725e-004,-1.136696e-004
-1.143108e-003,-8.628052e-005
-1.332076e-003,-5.370539e-005
-1.430774e-003,-2.323711e-005
-1.418457e-003,1.234753e-006
-1.298367e-003,2.068259e-005
-1.088492e-003,3.818565e-005
-8.165467e-004,5.617490e-005
-5.175362e-004,7.465034e-005
-2.277635e-004,9.474644e-005
2.133085e-005,1.140322e-004
2.085163e-004,1.320215e-004
3.349273e-004,1.498487e-004
4.136911e-004,1.673517e-004
4.558281e-004,1.911753e-004
4.747897e-004,2.222919e-004
4.866205e-004,2.598910e-004
4.990995e-004,2.994350e-004
5.097958e-004,3.326584e-004
5.162785e-004,3.577785e-004
5.242196e-004,3.752816e-004
5.456123e-004,3.864641e-004
5.845079e-004,3.927847e-004
6.319932e-004,3.989431e-004
6.689441e-004,4.112601e-004
6.720233e-004,4.290873e-004
6.266450e-004,4.457800e-004
5.248679e-004,4.551798e-004
3.746333e-004,4.571246e-004
2.043026e-004,4.538833e-004
4.547859e-005,4.506420e-004
-7.250496e-005,4.452938e-004
-1.324691e-004,4.310321e-004
-1.360346e-004,4.062361e-004
-1.029732e-004,3.765781e-004
-6.035007e-005,3.483787e-004
-2.923353e-005,3.240689e-004
-2.113026e-005,2.994350e-004
-2.923353e-005,2.694529e-004
-4.300908e-005,2.313675e-004
-5.386745e-005,1.859892e-004
-5.808115e-005,1.341283e-004
-6.180866e-005,7.286763e-005
-7.250496e-005,3.827799e-006
-8.725291e-005,-6.521203e-005
-1.044318e-004,-1.227452e-004
-1.212866e-004,-1.595340e-004
-1.313347e-004,-1.755785e-004
-1.271210e-004,-1.788198e-004
-1.020008e-004,-1.799543e-004
-5.370539e-005,-1.882196e-004
1.857574e-005,-2.081536e-004
1.064152e-004,-2.358668e-004
1.913374e-004,-2.609869e-004
2.513016e-004,-2.836761e-004
2.739907e-004,-3.031239e-004
2.631324e-004,-3.206269e-004
2.347709e-004,-3.374817e-004
2.059233e-004,-3.557951e-004
1.825859e-004,-3.723258e-004
1.675138e-004,-3.848048e-004
1.573037e-004,-3.901529e-004
1.493625e-004,-3.909633e-004
1.430419e-004,-3.880461e-004
1.488763e-004,-3.848048e-004
1.767515e-004,-3.818876e-004
2.278021e-004,-3.771877e-004
2.931144e-004,-3.650328e-004
3.593992e-004,-3.433161e-004
4.148255e-004,-3.160891e-004
4.493454e-004,-2.895104e-004
4.590694e-004,-2.713591e-004
4.465904e-004,-2.660110e-004
4.153117e-004,-2.656868e-004
3.739850e-004,-2.577456e-004
3.417340e-004,-2.311669e-004
3.380065e-004,-1.814128e-004
3.587509e-004,-1.157764e-004
3.835469e-004,-4.349527e-005
3.966742e-004,2.765140e-005
3.937570e-004,9.442231e-005
3.773884e-004,1.564933e-004
3.516200e-004,2.158093e-004
3.132105e-004,2.679943e-004
2.522740e-004,3.089969e-004
1.573037e-004,3.354135e-004
3.105477e-005,3.464339e-004
-1.057284e-004,3.433547e-004
-2.267911e-004,3.271482e-004
-3.149546e-004,3.051073e-004
-3.711913e-004,2.877662e-004
-4.055492e-004,2.817699e-004
-4.235384e-004,2.861456e-004
-4.154351e-004,2.997591e-004
-3.783222e-004,3.206656e-004
-3.160891e-004,3.444891e-004
-2.339220e-004,3.710679e-004
-1.383035e-004,4.015361e-004
-3.652646e-005,4.311941e-004
6.751948e-005,4.546936e-004
1.577899e-004,4.738173e-004
2.148369e-004,4.898618e-004
2.287745e-004,5.046097e-004
2.034923e-004,5.175750e-004
1.498487e-004,5.235714e-004
8.210535e-005,5.136854e-004
2.207145e-006,4.832171e-004
-9.989401e-005,4.350837e-004
-2.402425e-004,3.791712e-004
-4.305072e-004,3.242310e-004
-6.552918e-004,2.744769e-004
-8.692179e-004,2.329882e-004
-1.019615e-003,2.030061e-004
-1.069531e-003,1.835583e-004
-1.004543e-003,1.692965e-004
-8.439358e-004,1.539003e-004
-6.355198e-004,1.354248e-004
-4.296969e-004,1.150046e-004
-2.660110e-004,9.199134e-005
-1.549962e-004,7.011252e-005
-7.963584e-005,5.115087e-005
-1.675450e-005,3.202716e-005
5.082674e-005,5.934648e-006
1.291043e-004,-2.664048e-005
2.132162e-004,-6.116039e-005
2.944109e-004,-9.438378e-005
3.653956e-004,-1.237176e-004
4.195254e-004,-1.475412e-004
4.574487e-004,-1.660166e-004
4.849998e-004,-1.776853e-004
5.063924e-004,-1.846542e-004
5.250300e-004,-1.867610e-004
5.404262e-004,-1.830335e-004
5.454503e-004,-1.773612e-004
5.329712e-004,-1.733096e-004
4.965065e-004,-1.729855e-004
4.339493e-004,-1.773612e-004
3.487029e-004,-1.885437e-004
2.475741e-004,-2.073433e-004
1.404489e-004,-2.301945e-004
4.126489e-005,-2.478596e-004
-3.928157e-005,-2.556388e-004
-9.730096e-005,-2.551526e-004
-1.370070e-004,-2.475355e-004
-1.627754e-004,-2.358668e-004
-1.788198e-004,-2.246843e-004
-1.882196e-004,-2.146363e-004
-1.885437e-004,-2.042641e-004
-1.676373e-004,-1.917850e-004
-1.190177e-004,-1.780095e-004
-5.111234e-005,-1.674752e-004
2.295151e-005,-1.585616e-004
8.761557e-005,-1.493239e-004
1.320215e-004,-1.455964e-004
1.587623e-004,-1.522411e-004
1.812893e-004,-1.663408e-004
2.090025e-004,-1.726613e-004
2.365536e-004,-1.601823e-004
2.428742e-004,-1.225832e-004
2.080301e-004,-7.234290e-005
1.321835e-004,-2.404744e-005
3.591673e-005,8.203562e-006
-5.338126e-005,1.841368e-005
-1.146419e-004,1.144487e-005
-1.365208e-004,-3.141010e-006
-1.220970e-004,-1.902341e-005
-9.211487e-005,-3.198864e-005
-6.699475e-005,-3.701266e-005
-5.289507e-005,-3.441962e-005
-4.381940e-005,-2.501983e-005
-2.615429e-005,-1.189254e-005
7.555301e-006,-1.358292e-006
5.487838e-005,3.503668e-006
9.993253e-005,3.503668e-006
1.258630e-004,9.106227e-007
1.197045e-004,2.531276e-006
8.826383e-005,1.452411e-005
5.536457e-005,3.980630e-005
4.094075e-005,7.432621e-005
4.580272e-005,1.080358e-004
6.703327e-005,1.323456e-004
9.879808e-005,1.462832e-004
1.287802e-004,1.550348e-004
1.548727e-004,1.621656e-004
1.814514e-004,1.655690e-004
2.080301e-004,1.631380e-004
2.307193e-004,1.556830e-004
2.359054e-004,1.440143e-004
2.161334e-004,1.308870e-004
1.736723e-004,1.210010e-004
1.211631e-004,1.171115e-004
7.513654e-005,1.193804e-004
4.709924e-005,1.268354e-004
4.094075e-005,1.393144e-004
5.163707e-005,1.534141e-004
7.189524e-005,1.642725e-004
1.009049e-004,1.694586e-004
1.440143e-004,1.738343e-004
1.978200e-004,1.809652e-004
2.415777e-004,1.931201e-004
2.498430e-004,2.086784e-004
2.133783e-004,2.227781e-004
1.432040e-004,2.290986e-004
6.152305e-005,2.226160e-004
-1.416145e-005,2.075439e-004
-7.169464e-005,1.937684e-004
-1.151281e-004,1.853410e-004
-1.554824e-004,1.793446e-004
-1.987538e-004,1.725378e-004
-2.528836e-004,1.621656e-004
-3.066893e-004,1.464453e-004
-3.450988e-004,1.281319e-004
-3.559572e-004,1.106288e-004
-3.387782e-004,9.863601e-005
-3.021515e-004,9.199134e-005
-2.577456e-004,8.745350e-005
-2.094502e-004,8.016057e-005
-1.640719e-004,6.687121e-005
-1.263107e-004,4.564065e-005
-9.616651e-005,2.359977e-005
-6.991193e-005,4.313994e-006
-4.673658e-005,-9.623623e-006
-2.453363e-005,-2.258885e-005
-3.465141e-006,-3.911951e-005
1.128280e-005,-6.132246e-005
1.679302e-005,-8.514606e-005
1.176900e-005,-1.047560e-004
-1.520357e-006,-1.173971e-004
-1.254080e-005,-1.251762e-004
-1.335113e-005,-1.314967e-004
4.244267e-007,-1.366828e-004
2.181705e-005,-1.418689e-004
4.175109e-005,-1.493239e-004
6.103686e-005,-1.567789e-004
7.805372e-005,-1.603444e-004
8.340187e-005,-1.629374e-004
6.606088e-005,-1.666649e-004
2.116879e-005,-1.671511e-004
-4.803310e-005,-1.590478e-004
-1.361966e-004,-1.413827e-004
-2.378116e-004,-1.152902e-004
-3.403989e-004,-8.563225e-005
-4.305072e-004,-5.516398e-005
-4.894990e-004,-2.372331e-005
-4.956574e-004,6.907040e-006
-4.384484e-004,3.413401e-005
-3.243544e-004,5.617490e-005
-1.770371e-004,7.465034e-005
-3.020592e-005,9.199134e-005
8.129502e-005,1.107909e-004
1.432040e-004,1.300767e-004
1.626518e-004,1.495245e-004
1.566554e-004,1.684862e-004
1.435281e-004,1.840444e-004
1.302388e-004,1.950649e-004
1.193804e-004,2.018716e-004
1.065772e-004,2.101370e-004
8.534666e-005,2.196988e-004
5.714729e-005,2.250470e-004
2.878586e-005,2.203471e-004
1.047248e-005,2.039785e-004
8.689758e-006,1.812893e-004
2.424803e-005,1.594105e-004
5.747142e-005,1.440143e-004
1.047945e-004,1.342904e-004
1.550348e-004,1.297526e-004
1.961994e-004,1.273216e-004
2.213195e-004,1.255389e-004
2.316917e-004,1.250527e-004
2.386605e-004,1.297526e-004
2.477361e-004,1.399627e-004
2.637806e-004,1.521176e-004
2.879283e-004,1.600588e-004
3.167760e-004,1.576278e-004
3.436788e-004,1.448246e-004
3.642611e-004,1.226217e-004
3.765781e-004,9.571884e-005
3.830607e-004,7.043665e-005
3.871123e-004,4.790957e-005
3.919743e-004,2.684107e-005
3.995914e-004,6.582909e-006
4.112601e-004,-8.975362e-006
4.269804e-004,-1.886135e-005
4.461041e-004,-2.453363e-005
4.671726e-004,-2.988179e-005
4.830550e-004,-3.685060e-005
4.929411e-004,-4.527799e-005
4.997478e-004,-5.775702e-005
5.005581e-004,-7.558420e-005
4.922928e-004,-9.308726e-005
4.757621e-004,-1.020008e-004
4.540453e-004,-1.020008e-004
4.266563e-004,-9.762509e-005
3.947294e-004,-8.773911e-005
3.590750e-004,-7.153257e-005
3.187208e-004,-5.451572e-005
2.735045e-004,-4.608832e-005
2.214815e-004,-5.013995e-005
1.571416e-004,-6.553616e-005
7.416415e-005,-9.179074e-005
-3.539201e-005,-1.271210e-004
-1.757406e-004,-1.635857e-004
-3.457471e-004,-1.885437e-004
-5.334187e-004,-1.959987e-004
-7.206041e-004,-1.877334e-004
-8.795901e-004,-1.699062e-004
-9.825015e-004,-1.524032e-004
-1.007946e-003,-1.420310e-004
-9.630537e-004,-1.404103e-004
-8.735937e-004,-1.454344e-004
-7.654962e-004,-1.540238e-004
-6.567503e-004,-1.642339e-004
-5.588629e-004,-1.734716e-004
-4.703753e-004,-1.801163e-004
-3.864254e-004,-1.838438e-004
-2.993964e-004,-1.836818e-004
-2.023193e-004,-1.759026e-004
-9.114248e-005,-1.629374e-004
2.813760e-005,-1.446240e-004
1.380179e-004,-1.230693e-004
2.179161e-004,-9.924574e-005
2.590807e-004,-7.736692e-005
2.663737e-004,-5.694670e-005
2.524360e-004,-3.992984e-005
2.346088e-004,-2.372331e-005
2.276400e-004,-3.789272e-006
2.347709e-004,2.343770e-005
2.496809e-004,5.925414e-005
2.637806e-004,9.798775e-005
2.678322e-004,1.367214e-004
2.589186e-004,1.746447e-004
2.388225e-004,2.143507e-004
2.025199e-004,2.589186e-004
1.480659e-004,3.125623e-004
7.772959e-005,3.730126e-004
4.151929e-006,4.337872e-004
-5.483985e-005,4.862963e-004
-9.098041e-005,5.206542e-004
-1.037836e-004,5.332953e-004
-9.000802e-005,5.248679e-004
-5.095028e-005,5.047718e-004
4.313994e-006,4.862963e-004
6.071273e-005,4.765725e-004
1.049566e-004,4.721967e-004
1.273216e-004,4.650658e-004
1.227837e-004,4.422146e-004
9.604298e-005,4.000776e-004
5.957827e-005,3.444891e-004
2.327564e-005,2.908455e-004
-1.092015e-005,2.521119e-004
-4.932962e-005,2.352571e-004
-9.778715e-005,2.318537e-004
-1.630995e-004,2.300710e-004
-2.475355e-004,2.235884e-004
-3.403989e-004,2.140265e-004
-4.199730e-004,2.047888e-004
-4.598410e-004,1.968476e-004
-4.371519e-004,1.853410e-004
-3.431540e-004,1.647587e-004
-1.925954e-004,1.354248e-004
-2.356124e-005,1.036600e-004
1.229458e-004,7.497447e-005
2.279642e-004,5.066468e-005
2.939248e-004,2.716521e-005
3.431926e-004,1.234753e-006
3.991052e-004,-2.793700e-005
4.777069e-004,-5.905355e-005
5.752703e-004,-8.984595e-005
6.742922e-004,-1.149661e-004
7.546768e-004,-1.331174e-004
8.047550e-004,-1.449482e-004
8.230684e-004,-1.519170e-004
8.175581e-004,-1.496481e-004
7.906552e-004,-1.381414e-004
7.402529e-004,-1.220970e-004
6.626236e-004,-1.107524e-004
5.567948e-004,-1.139937e-004
4.274666e-004,-1.311726e-004
2.760976e-004,-1.564548e-004
1.080358e-004,-1.818991e-004
-7.752899e-005,-2.032917e-004
-2.917793e-004,-2.188499e-004
-5.324463e-004,-2.298704e-004
-7.624169e-004,-2.425115e-004
-9.280476e-004,-2.569353e-004
-9.784499e-004,-2.734659e-004
-8.907726e-004,-2.891863e-004
-6.807360e-004,-3.044204e-004
-4.023079e-004,-3.170615e-004
-1.178833e-004,-3.251648e-004
1.247285e-004,-3.309991e-004
2.953834e-004,-3.379679e-004
3.845193e-004,-3.457471e-004
3.978086e-004,-3.544986e-004
3.496752e-004,-3.613053e-004
2.555152e-004,-3.614674e-004
1.266733e-004,-3.530400e-004
-3.814712e-005,-3.358611e-004
-2.370013e-004,-3.118754e-004
-4.564377e-004,-2.851347e-004
-6.664743e-004,-2.585559e-004
-8.287016e-004,-2.327876e-004
-9.262649e-004,-2.050744e-004
-9.709949e-004,-1.724993e-004
-1.000653e-003,-1.366828e-004
-1.046355e-003,-1.011905e-004
-1.107130e-003,-6.780507e-005
-1.155911e-003,-3.895745e-005
-1.152670e-003,-1.594417e-005
-1.070665e-003,5.286387e-006
-9.061688e-004,3.202716e-005
-6.745775e-004,6.670914e-005
-4.052250e-004,1.080358e-004
-1.251762e-004,1.556830e-004
1.402868e-004,2.065715e-004
3.725265e-004,2.579462e-004
5.614947e-004,3.117519e-004
6.994124e-004,3.644232e-004
7.832003e-004,4.068843e-004
8.133444e-004,4.298976e-004
7.937344e-004,4.297355e-004
7.250187e-004,4.096394e-004
6.028214e-004,3.781987e-004
4.305459e-004,3.446512e-004
2.229401e-004,3.164518e-004
1.257933e-005,2.968419e-004
-1.527273e-004,2.846870e-004
-2.271153e-004,2.791768e-004
-2.013469e-004,2.780424e-004
-1.058904e-004,2.795009e-004
1.160693e-005,2.833905e-004
1.096565e-004,2.893870e-004
1.820997e-004,2.963557e-004
2.401191e-004,3.036487e-004
3.004074e-004,3.075383e-004
3.689610e-004,3.044590e-004
4.449697e-004,2.937627e-004
5.279472e-004,2.795009e-004
6.062248e-004,2.665357e-004
6.658648e-004,2.566497e-004
6.977918e-004,2.511395e-004
7.008709e-004,2.501671e-004
6.783439e-004,2.462775e-004
6.334517e-004,2.312055e-004
5.721910e-004,2.028440e-004
5.072028e-004,1.662173e-004
4.558281e-004,1.304008e-004
4.315182e-004,9.912221e-005
4.394595e-004,7.691926e-005
4.658761e-004,6.395404e-005
4.849998e-004,5.341979e-005
4.827309e-004,4.434413e-005
4.629590e-004,3.867184e-005
4.388112e-004,3.575467e-005
4.235771e-004,3.235129e-005
4.182289e-004,1.889987e-005
4.200116e-004,-6.706447e-006
4.240633e-004,-4.560212e-005
4.211461e-004,-9.486997e-005
4.076947e-004,-1.468929e-004
3.900295e-004,-1.909747e-004
3.773884e-004,-2.203085e-004
3.736609e-004,-2.382978e-004
3.769022e-004,-2.494803e-004
3.811159e-004,-2.567732e-004
3.777126e-004,-2.583939e-004
3.537269e-004,-2.559629e-004
3.041349e-004,-2.515871e-004
2.409294e-004,-2.489941e-004
1.820997e-004,-2.478596e-004
1.410971e-004,-2.509389e-004
1.167873e-004,-2.585559e-004
8.534666e-005,-2.677937e-004
3.121684e-005,-2.783279e-004
-4.835724e-005,-2.854588e-004
-1.517549e-004,-2.896725e-004
-2.770314e-004,-2.878898e-004
-4.107352e-004,-2.791382e-004
-5.303394e-004,-2.656868e-004
-6.121824e-004,-2.486699e-004
-6.434610e-004,-2.267911e-004
-6.270924e-004,-1.994021e-004
-5.762039e-004,-1.674752e-004
-5.141329e-004,-1.349001e-004
-4.642168e-004,-1.002181e-004
-4.368278e-004,-6.504996e-005
-4.295348e-004,-3.182657e-005
-4.390967e-004,7.485573e-007
-4.647030e-004,3.462021e-005
-4.985746e-004,6.849186e-005
-5.236948e-004,9.863601e-005
-5.261258e-004,1.237561e-004
-4.997091e-004,1.415833e-004
-4.465517e-004,1.550348e-004
-3.794566e-004,1.645966e-004
-3.118754e-004,1.730240e-004
-2.580697e-004,1.880961e-004
-2.347323e-004,2.151610e-004
-2.588801e-004,2.538946e-004
-3.211132e-004,3.026763e-004
-3.886944e-004,3.585888e-004
-4.280762e-004,4.138531e-004
-4.152731e-004,4.551798e-004
-3.496366e-004,4.781931e-004
-2.462390e-004,4.893756e-004
-1.303623e-004,4.982892e-004
-2.210265e-005,5.026649e-004
6.136099e-005,4.969927e-004
1.107909e-004,4.759242e-004
1.292664e-004,4.360561e-004
1.255389e-004,3.811159e-004
1.127357e-004,3.242310e-004
1.013911e-004,2.816078e-004
9.604298e-005,2.657254e-004
9.847395e-005,2.765838e-004
1.064152e-004,2.992729e-004
1.182459e-004,3.169380e-004
1.414213e-004,3.240689e-004
1.780480e-004,3.203414e-004
2.159713e-004,3.089969e-004
2.388225e-004,2.897111e-004
2.393087e-004,2.636185e-004
2.156472e-004,2.265056e-004
1.683241e-004,1.743205e-004
1.067393e-004,1.077117e-004
5.471631e-005,3.478228e-005
3.494434e-005,-3.004385e-005
4.871989e-005,-7.801519e-005
8.097089e-005,-1.084835e-004
1.106288e-004,-1.259865e-004
1.281319e-004,-1.386276e-004
1.346145e-004,-1.525652e-004
1.326697e-004,-1.622891e-004
1.240803e-004,-1.621271e-004
1.198666e-004,-1.543479e-004
1.261871e-004,-1.481895e-004
1.433661e-004,-1.551583e-004
1.681620e-004,-1.822232e-004
1.953890e-004,-2.292221e-004
2.156472e-004,-2.854588e-004
2.237505e-004,-3.382920e-004
2.200230e-004,-3.830221e-004
2.059233e-004,-4.154351e-004
1.814514e-004,-4.329382e-004
1.524417e-004,-4.360174e-004
1.206769e-004,-4.327761e-004
7.886404e-005,-4.288866e-004
2.667901e-005,-4.262935e-004
-2.647842e-005,-4.209454e-004
-6.083626e-005,-4.057112e-004
-6.083626e-005,-3.797808e-004
-2.372331e-005,-3.423437e-004
3.737532e-005,-2.946965e-004
1.034980e-004,-2.426735e-004
1.607070e-004,-1.895161e-004
2.018716e-004,-1.400862e-004
2.185644e-004,-9.892161e-005
2.049509e-004,-6.877746e-005
1.613553e-004,-4.770897e-005
9.879808e-005,-3.182657e-005
3.688912e-005,-1.886135e-005
-9.623623e-006,-1.205460e-005
-3.506788e-005,-1.205460e-005
-4.706071e-005,-1.513384e-005
-5.808115e-005,-1.351319e-005
-7.688073e-005,-5.479652e-007
-1.065387e-004,2.068259e-005
-1.431655e-004,4.515445e-005
-1.739578e-004,7.221937e-005
-1.912988e-004,1.018773e-004
-1.888679e-004,1.310491e-004
-1.757406e-004,1.563313e-004
-1.661787e-004,1.718896e-004
-1.710407e-004,1.761032e-004
-1.912988e-004,1.757791e-004
-2.165810e-004,1.765894e-004
-2.334358e-004,1.812893e-004
-2.318152e-004,1.911753e-004
-2.133397e-004,2.077060e-004
-1.853024e-004,2.290986e-004
-1.566169e-004,2.530843e-004
-1.310105e-004,2.775562e-004
-1.071869e-004,2.953834e-004
-7.898758e-005,3.070520e-004
-4.625038e-005,3.156415e-004
-1.513384e-005,3.200173e-004
4.313994e-006,3.196932e-004
1.241726e-005,3.180725e-004
1.306552e-005,3.167760e-004
1.371378e-005,3.166139e-004
2.084466e-005,3.205035e-004
3.624086e-005,3.266619e-004
5.682316e-005,3.307136e-004
7.837785e-005,3.277964e-004
9.896015e-005,3.179104e-004
1.227837e-004,3.028383e-004
1.517934e-004,2.854973e-004
1.867996e-004,2.658874e-004
2.216436e-004,2.436845e-004
2.488706e-004,2.211574e-004
2.679943e-004,1.991165e-004
2.754493e-004,1.803169e-004
2.705873e-004,1.621656e-004
2.615117e-004,1.436902e-004
2.543808e-004,1.221355e-004
2.532463e-004,9.928428e-005
2.543808e-004,7.319176e-005
2.498430e-004,4.547859e-005
2.339606e-004,2.003433e-005
2.109473e-004,3.017472e-006
1.864754e-004,-5.479652e-007
1.660552e-004,8.689758e-006
1.504969e-004,2.457216e-005
1.391524e-004,3.964424e-005
1.307250e-004,4.920609e-005
1.255389e-004,5.179914e-005
1.227837e-004,4.564065e-005
1.150046e-004,2.975825e-005
9.442231e-005,2.207145e-006
6.768154e-005,-3.636440e-005
4.531652e-005,-8.190475e-005
3.786152e-005,-1.258245e-004
4.742337e-005,-1.577513e-004
6.606088e-005,-1.718510e-004
7.983644e-005,-1.765509e-004
8.680524e-005,-1.809267e-004
9.328786e-005,-1.887058e-004
1.106288e-004,-1.974573e-004
1.436902e-004,-2.049123e-004
1.861513e-004,-2.126914e-004
2.209954e-004,-2.271153e-004
2.279642e-004,-2.553146e-004
1.989545e-004,-2.990722e-004
1.406109e-004,-3.527159e-004
6.589881e-005,-4.070078e-004
-8.327101e-006,-4.536825e-004
-6.472583e-005,-4.869059e-004
-9.519411e-005,-5.102433e-004
-9.778715e-005,-5.295291e-004
-7.914964e-005,-5.470322e-004
-4.625038e-005,-5.629146e-004
-1.140634e-005,-5.770142e-004
1.031041e-005,-5.830107e-004
1.582063e-005,-5.742591e-004
8.851824e-006,-5.470322e-004
3.503668e-006,-5.026262e-004
1.468618e-005,-4.494688e-004
4.823370e-005,-3.932322e-004
9.280167e-005,-3.365093e-004
1.244044e-004,-2.796244e-004
1.248906e-004,-2.209568e-004
8.907416e-005,-1.566169e-004
2.084466e-005,-8.595638e-005
-6.229485e-005,-1.108221e-005
-1.352242e-004,6.136099e-005
-1.862748e-004,1.286181e-004
-2.162569e-004,1.942546e-004
-2.290601e-004,2.628082e-004
-2.331117e-004,3.388169e-004
-2.384598e-004,4.229288e-004
-2.533699e-004,5.060683e-004
-2.857829e-004,5.786736e-004
-3.438023e-004,6.425274e-004
-4.228902e-004,6.989262e-004
-5.112157e-004,7.488423e-004
-5.958138e-004,7.901691e-004
-6.624226e-004,8.272820e-004
-6.990494e-004,8.596951e-004
-7.069906e-004,8.784947e-004
-6.883531e-004,8.739569e-004
-6.489712e-004,8.481885e-004
-5.998655e-004,8.062135e-004
-5.561078e-004,7.512733e-004
-5.267740e-004,6.909850e-004
-5.094330e-004,6.303725e-004
-4.833405e-004,5.723531e-004
-4.136524e-004,5.203301e-004
-2.771934e-004,4.756001e-004
-7.995997e-005,4.321665e-004
1.415833e-004,3.850055e-004
3.420582e-004,3.344411e-004
4.892136e-004,2.853353e-004
5.717048e-004,2.410915e-004
6.013628e-004,2.051129e-004
6.050903e-004,1.756171e-004
6.118971e-004,1.500107e-004
6.415551e-004,1.234320e-004
6.984400e-004,9.296373e-005
7.720177e-004,5.941620e-005
8.485126e-004,2.538249e-005
9.160939e-004,-6.544382e-006
9.697376e-004,-3.652646e-005
1.012037e-003,-6.164659e-005
1.042343e-003,-7.850138e-005
1.057577e-003,-8.919769e-005
1.054336e-003,-9.892161e-005
1.017061e-003,-1.110765e-004
9.284109e-004,-1.269589e-004
7.747728e-004,-1.496481e-004
5.603603e-004,-1.820611e-004
3.025142e-004,-2.203085e-004
1.954813e-005,-2.535319e-004
-2.749245e-004,-2.741142e-004
-5.706937e-004,-2.797865e-004
-8.431255e-004,-2.776796e-004
-1.053162e-003,-2.770314e-004
-1.161746e-003,-2.846485e-004
-1.148294e-003,-2.969654e-004
-1.019615e-003,-3.055549e-004
-8.092538e-004,-3.087962e-004
-5.697213e-004,-3.079858e-004
-3.501228e-004,-3.042584e-004
-1.812508e-004,-2.958309e-004
-7.023606e-005,-2.887001e-004
-5.409925e-006,-2.864312e-004
3.932010e-005,-2.903207e-004
8.956036e-005,-2.935620e-004
1.566554e-004,-2.904828e-004
2.346088e-004,-2.822175e-004
3.067279e-004,-2.742763e-004
3.628026e-004,-2.718453e-004
4.002396e-004,-2.746004e-004
4.245494e-004,-2.726556e-004
4.420525e-004,-2.608248e-004
4.514523e-004,-2.387840e-004
4.378388e-004,-2.109087e-004
3.924605e-004,-1.809267e-004
3.271482e-004,-1.511067e-004
2.605393e-004,-1.222590e-004
2.132162e-004,-9.940781e-005
2.000889e-004,-8.222889e-005
2.164575e-004,-6.683268e-005
2.407673e-004,-5.159854e-005
2.501671e-004,-3.733679e-005
2.354192e-004,-2.501983e-005
2.033302e-004,-1.286493e-005
1.649207e-004,9.013889e-006
1.206769e-004,4.434413e-005
7.335383e-005,8.972242e-005
2.538249e-005,1.380179e-004
-1.545797e-005,1.830721e-004
-4.365734e-005,2.218057e-004
-6.002594e-005,2.534084e-004
-6.504996e-005,2.760976e-004
-5.840528e-005,2.932765e-004
-4.252288e-005,3.091589e-004
-2.615429e-005,3.264999e-004
-1.480971e-005,3.446512e-004
-1.010982e-005,3.628026e-004
-1.010982e-005,3.780367e-004
-9.137427e-006,3.854917e-004
5.286387e-006,3.812780e-004
3.202716e-005,3.652335e-004
5.179914e-005,3.425444e-004
4.126489e-005,3.149933e-004
-1.545797e-005,2.882525e-004
-1.104282e-004,2.675081e-004
-2.156086e-004,2.503292e-004
-2.955068e-004,2.320158e-004
-3.188442e-004,2.130541e-004
-2.703867e-004,1.944166e-004
-1.593720e-004,1.791825e-004
-1.983374e-005,1.655690e-004
1.175977e-004,1.513072e-004
2.347709e-004,1.336421e-004
3.229345e-004,1.117633e-004
3.777126e-004,8.518459e-005
4.018603e-004,5.601284e-005
4.057499e-004,2.586868e-005
3.997535e-004,-1.358292e-006
3.837090e-004,-2.566809e-005
3.558337e-004,-4.462973e-005
3.211517e-004,-6.099833e-005
2.876042e-004,-7.509801e-005
2.545429e-004,-8.854943e-005
2.088404e-004,-1.002181e-004
1.304008e-004,-1.105903e-004
9.175954e-006,-1.199901e-004
-1.438137e-004,-1.314967e-004
-2.992343e-004,-1.494860e-004
-4.251591e-004,-1.715269e-004
-4.982505e-004,-1.948643e-004
-5.082985e-004,-2.182017e-004
-4.729683e-004,-2.352185e-004
-4.259694e-004,-2.434839e-004
-4.013355e-004,-2.420253e-004
-4.224039e-004,-2.318152e-004
-4.920920e-004,-2.138259e-004
-5.919242e-004,-1.950263e-004
-6.838153e-004,-1.794681e-004
-7.337314e-004,-1.669890e-004
-7.238454e-004,-1.546721e-004
-6.564262e-004,-1.379794e-004
-5.455735e-004,-1.175591e-004
-4.073319e-004,-9.762509e-005
-2.481838e-004,-7.947377e-005
-7.785312e-005,-6.051213e-005
8.988449e-005,-3.814712e-005
2.444948e-004,-9.947754e-006
3.781987e-004,2.262738e-005
4.812723e-004,5.374392e-005
5.478812e-004,7.448828e-005
5.739738e-004,8.097089e-005
5.593878e-004,7.902610e-005
5.005581e-004,7.529860e-005
4.016982e-004,7.043665e-005
2.757735e-004,6.152305e-005
1.467694e-004,4.953022e-005
3.056858e-005,3.802358e-005
-6.926366e-005,3.316162e-005
-1.608306e-004,3.543054e-005
-2.551526e-004,4.272347e-005
-3.690845e-004,5.163707e-005
-5.222362e-004,6.071273e-005
-7.186593e-004,6.946425e-005
-9.398784e-004,8.129502e-005
-1.155587e-003,1.000946e-004
-1.328187e-003,1.265113e-004
-1.415216e-003,1.529279e-004
-1.379724e-003,1.777239e-004
-1.204531e-003,1.981441e-004
-9.063309e-004,2.125679e-004
-5.403875e-004,2.196988e-004
-1.801163e-004,2.229401e-004
1.132219e-004,2.231022e-004
3.072141e-004,2.222919e-004
4.034809e-004,2.224539e-004
4.289252e-004,2.226160e-004
4.180668e-004,2.243987e-004
3.955397e-004,2.286124e-004
3.726885e-004,2.331503e-004
3.551855e-004,2.331503e-004
3.462718e-004,2.305572e-004
3.449753e-004,2.302331e-004
3.464339e-004,2.323399e-004
3.422202e-004,2.349330e-004
3.305515e-004,2.355812e-004
3.190449e-004,2.365536e-004
3.180725e-004,2.391467e-004
3.362238e-004,2.454672e-004
3.730126e-004,2.545429e-004
4.256839e-004,2.631324e-004
4.880791e-004,2.676702e-004
5.485295e-004,2.660495e-004
6.023352e-004,2.519498e-004
6.464170e-004,2.179161e-004
6.754267e-004,1.662173e-004
6.924436e-004,1.022015e-004
7.101087e-004,3.964424e-005
7.420356e-004,-5.409925e-006
7.859553e-004,-3.036798e-005
8.263097e-004,-4.009191e-005
8.434886e-004,-4.106429e-005
8.250132e-004,-4.122636e-005
7.793107e-004,-4.592625e-005
7.282600e-004,-5.840528e-005
6.948746e-004,-8.222889e-005
6.877437e-004,-1.125351e-004
7.057329e-004,-1.434896e-004
7.326358e-004,-1.729855e-004
7.434942e-004,-2.005366e-004
7.174017e-004,-2.285739e-004
6.430136e-004,-2.554767e-004
5.156302e-004,-2.780038e-004
3.381686e-004,-2.958309e-004
1.195424e-004,-3.083100e-004
-1.148040e-004,-3.139823e-004
-3.389403e-004,-3.130099e-004
-5.429805e-004,-3.076617e-004
-7.215765e-004,-2.987481e-004
-8.588458e-004,-2.835140e-004
-9.280476e-004,-2.605007e-004
-9.098963e-004,-2.339220e-004
-8.092538e-004,-2.068571e-004
-6.582089e-004,-1.788198e-004
-4.982505e-004,-1.509446e-004
-3.541745e-004,-1.245279e-004
-2.318152e-004,-9.794922e-005
-1.298761e-004,-7.104638e-005
-3.928157e-005,-4.479180e-005
4.855783e-005,-1.837515e-005
1.326697e-004,9.175954e-006
2.041406e-004,4.013043e-005
2.466017e-004,7.157111e-005
2.550291e-004,9.685330e-005
2.433604e-004,1.077117e-004
2.328261e-004,1.026876e-004
2.423880e-004,8.469840e-005
2.853353e-004,6.265751e-005
3.606957e-004,4.531652e-005
4.602039e-004,3.380988e-005
5.715428e-004,2.797553e-005
6.788301e-004,2.862379e-005
7.611593e-004,3.591673e-005
7.977861e-004,4.645098e-005
7.791486e-004,5.585077e-005
7.005468e-004,6.492643e-005
5.535535e-004,7.691926e-005
3.378445e-004,9.555677e-005
7.286763e-005,1.164632e-004
-2.097743e-004,1.331559e-004
-4.836646e-004,1.386662e-004
-7.363244e-004,1.347766e-004
-9.714811e-004,1.263492e-004
-1.188162e-003,1.187321e-004
-1.360438e-003,1.153287e-004
-1.451681e-003,1.169494e-004
-1.434340e-003,1.210010e-004
-1.299988e-003,1.261871e-004
-1.072448e-003,1.354248e-004
-8.043919e-004,1.509831e-004
-5.480045e-004,1.710792e-004
-3.412093e-004,1.913374e-004
-1.987538e-004,2.051129e-004
-1.088076e-004,2.096508e-004
-5.095028e-005,2.065715e-004
-6.058186e-006,2.002510e-004
3.834771e-005,1.911753e-004
8.486046e-005,1.793446e-004
1.278078e-004,1.689724e-004
1.597346e-004,1.618415e-004
1.756171e-004,1.550348e-004
1.808031e-004,1.441764e-004
1.850168e-004,1.266733e-004
2.033302e-004,1.081979e-004
2.333123e-004,9.442231e-005
2.631324e-004,8.761557e-005
2.799871e-004,8.080883e-005
2.790148e-004,6.946425e-005
2.668598e-004,5.585077e-005
2.504913e-004,4.045456e-005
2.355812e-004,2.343770e-005
2.274780e-004,4.476060e-006
2.294227e-004,-1.059602e-005
2.388225e-004,-1.869928e-005
2.504913e-004,-2.096820e-005
2.547049e-004,-2.113026e-005
2.469258e-004,-2.129233e-005
2.271538e-004,-2.631635e-005
2.004130e-004,-4.252288e-005
1.759412e-004,-7.056019e-005
1.576278e-004,-1.039456e-004
1.435281e-004,-1.285796e-004
1.208390e-004,-1.371690e-004
8.145709e-005,-1.306864e-004
2.651694e-005,-1.178833e-004
-3.992984e-005,-1.081593e-004
-1.138316e-004,-1.052422e-004
-1.877334e-004,-1.047560e-004
-2.454286e-004,-1.052422e-004
-2.699005e-004,-1.036215e-004
-2.554767e-004,-9.778715e-005
-2.089640e-004,-8.854943e-005
-1.399241e-004,-7.720486e-005
-6.002594e-005,-6.391550e-005
2.619281e-005,-4.722278e-005
1.151667e-004,-2.501983e-005
1.979821e-004,6.744974e-006
2.688046e-004,4.677511e-005
3.195311e-004,9.020862e-005
3.438409e-004,1.320215e-004
3.305515e-004,1.683241e-004
2.689667e-004,1.963614e-004
1.576278e-004,2.081922e-004
1.760335e-005,2.021958e-004
-1.131834e-004,1.808031e-004
-1.987538e-004,1.410971e-004
-2.219292e-004,8.421220e-005
-1.896782e-004,2.262738e-005
-1.269589e-004,-2.615429e-005
-6.083626e-005,-4.932962e-005
-8.327101e-006,-4.381940e-005
2.019640e-005,-1.788895e-005
2.035846e-005,1.452411e-005
-8.489166e-006,4.110282e-005
-5.953974e-005,5.520250e-005
-1.206384e-004,6.152305e-005
-1.770371e-004,7.124698e-005
-2.152845e-004,9.620504e-005
-2.238740e-004,1.398006e-004
-1.969711e-004,1.879340e-004
-1.384655e-004,2.231022e-004
-7.023606e-005,2.326641e-004
-1.756482e-005,2.203471e-004
8.527692e-006,1.983062e-004
1.387585e-005,1.757791e-004
1.792748e-005,1.615174e-004
3.834771e-005,1.598967e-004
7.789165e-005,1.655690e-004
1.257009e-004,1.725378e-004
1.652449e-004,1.780480e-004
1.918236e-004,1.811273e-004
2.135403e-004,1.806411e-004
2.422259e-004,1.762653e-004
2.856594e-004,1.647587e-004
3.396272e-004,1.438522e-004
3.935950e-004,1.174356e-004
4.347596e-004,8.729144e-005
4.564763e-004,6.119892e-005
4.572867e-004,4.790957e-005
4.409181e-004,5.050261e-005
4.076947e-004,6.298164e-005
3.587509e-004,7.999851e-005
2.897111e-004,9.344993e-005
1.973338e-004,9.685330e-005
7.967438e-005,8.956036e-005
-5.694670e-005,7.335383e-005
-1.932436e-004,4.985435e-005
-3.104168e-004,2.230325e-005
-4.003631e-004,-5.247859e-006
-4.531963e-004,-3.053005e-005
-4.703753e-004,-5.127441e-005
-4.637306e-004,-6.829127e-005
-4.556273e-004,-8.320128e-005
-4.697270e-004,-9.486997e-005
-5.181845e-004,-1.021629e-004
-5.916001e-004,-1.083214e-004
-6.653398e-004,-1.175591e-004
-7.082871e-004,-1.342519e-004
-6.971046e-004,-1.556445e-004
-6.373025e-004,-1.778474e-004
-5.501114e-004,-1.963229e-004
-4.629203e-004,-2.076674e-004
-3.814014e-004,-2.139880e-004
-2.943724e-004,-2.193361e-004
-1.953505e-004,-2.250084e-004
-9.211487e-005,-2.318152e-004
1.234753e-006,-2.408908e-004
8.680524e-005,-2.517492e-004
1.782101e-004,-2.634179e-004
2.859836e-004,-2.765452e-004
4.038051e-004,-2.890242e-004
5.101200e-004,-2.971275e-004
5.879114e-004,-2.990722e-004
6.326414e-004,-2.946965e-004
6.446343e-004,-2.841623e-004
6.295622e-004,-2.664971e-004
6.012007e-004,-2.421874e-004
5.681394e-004,-2.088019e-004
5.323229e-004,-1.710407e-004
5.015305e-004,-1.353863e-004
4.909963e-004,-1.089697e-004
5.128751e-004,-9.341139e-005
5.624671e-004,-8.514606e-005
6.206486e-004,-7.412562e-005
6.635960e-004,-4.981582e-005
6.699165e-004,-4.275467e-006
6.394482e-004,6.022653e-005
5.867769e-004,1.344524e-004
5.263265e-004,2.094887e-004
4.660382e-004,2.744769e-004
3.986190e-004,3.226103e-004
3.167760e-004,3.448133e-004
2.190506e-004,3.375204e-004
1.128978e-004,3.049452e-004
3.827799e-006,2.626462e-004
-1.021629e-004,2.320158e-004
-1.950263e-004,2.278021e-004
-2.736280e-004,2.506533e-004
-3.410472e-004,2.921420e-004
-4.011734e-004,3.352514e-004
-4.540067e-004,3.639370e-004
-4.964678e-004,3.720403e-004
-5.274223e-004,3.621543e-004
-5.403875e-004,3.367100e-004
-5.233706e-004,3.025142e-004
-4.719959e-004,2.673460e-004
-3.969597e-004,2.363916e-004
-3.173856e-004,2.120818e-004
-2.538560e-004,1.968476e-004
-2.199844e-004,1.910133e-004
-2.146363e-004,1.953890e-004
-2.141500e-004,2.106232e-004
-1.867610e-004,2.316917e-004
-1.135075e-004,2.485465e-004
-7.354709e-006,2.571359e-004
1.010670e-004,2.572980e-004
1.906891e-004,2.550291e-004
2.543808e-004,2.574601e-004
2.848491e-004,2.649151e-004
2.759355e-004,2.735045e-004
2.286124e-004,2.773941e-004
1.568175e-004,2.668598e-004
7.513654e-005,2.415777e-004
-6.176923e-008,2.052750e-004
-6.294311e-005,1.652449e-004
-1.191798e-004,1.268354e-004
-1.737958e-004,9.085688e-005
-2.191741e-004,5.682316e-005
-2.472114e-004,2.813760e-005
-2.716832e-004,8.365628e-006
-3.198166e-004,-1.196227e-006
-4.154351e-004,-3.627206e-006
-5.656697e-004,-5.479652e-007
-7.509103e-004,2.045080e-006
-9.226995e-004,-2.330684e-006
-1.009242e-003,-1.610624e-005
-9.479817e-004,-3.895745e-005
-7.249799e-004,-7.266703e-005
-3.849669e-004,-1.136696e-004
-5.571990e-006,-1.530514e-004
3.282826e-004,-1.838438e-004
5.616568e-004,-2.045882e-004
6.856368e-004,-2.160948e-004
7.251808e-004,-2.241981e-004
7.178878e-004,-2.327876e-004
6.948746e-004,-2.429977e-004
6.676476e-004,-2.511010e-004
6.344241e-004,-2.575835e-004
5.929354e-004,-2.660110e-004
5.493398e-004,-2.814071e-004
5.135234e-004,-3.002067e-004
4.987754e-004,-3.118754e-004
5.128751e-004,-3.097686e-004
5.485295e-004,-3.018274e-004
5.918010e-004,-2.971275e-004
6.255105e-004,-2.987481e-004
6.425274e-004,-3.032860e-004
6.428516e-004,-3.039342e-004
6.310208e-004,-3.002067e-004
6.164349e-004,-2.921034e-004
6.052523e-004,-2.796244e-004
5.987698e-004,-2.626076e-004
5.947181e-004,-2.413770e-004
5.927734e-004,-2.183637e-004
5.875872e-004,-1.976194e-004
5.700842e-004,-1.841680e-004
5.339436e-004,-1.760647e-004
4.772207e-004,-1.692580e-004
4.012120e-004,-1.622891e-004
3.164518e-004,-1.515928e-004
2.419018e-004,-1.374932e-004
1.895547e-004,-1.180453e-004
1.485521e-004,-9.227693e-005
9.588091e-005,-6.180866e-005
-3.303076e-006,-3.004385e-005
-1.828714e-004,7.231170e-006
-4.528722e-004,5.714729e-005
-7.956403e-004,1.172735e-004
-1.172280e-003,1.819376e-004
-1.521207e-003,2.438466e-004
-1.782456e-003,3.007315e-004
-1.908057e-003,3.487029e-004
-1.869161e-003,3.877606e-004
-1.670955e-003,4.175806e-004
-1.356710e-003,4.394595e-004
-9.920634e-004,4.543695e-004
-6.449196e-004,4.634451e-004
-3.533641e-004,4.652279e-004
-1.300382e-004,4.576108e-004
2.554455e-005,4.430249e-004
1.308870e-004,4.222805e-004
2.043026e-004,3.992672e-004
2.616738e-004,3.786850e-004
3.089969e-004,3.640991e-004
3.425444e-004,3.522683e-004
3.592371e-004,3.435168e-004
3.629646e-004,3.328204e-004
3.600474e-004,3.203414e-004
3.592371e-004,3.083486e-004
3.619922e-004,2.970040e-004
3.632887e-004,2.874421e-004
3.606957e-004,2.786906e-004
3.555096e-004,2.726942e-004
3.485408e-004,2.681563e-004
3.360618e-004,2.632944e-004
3.111037e-004,2.563256e-004
2.741528e-004,2.480603e-004
2.337985e-004,2.404432e-004
2.036544e-004,2.355812e-004
1.882582e-004,2.325020e-004
1.863134e-004,2.282883e-004
1.897167e-004,2.167816e-004
1.863134e-004,1.940925e-004
1.759412e-004,1.568175e-004
1.626518e-004,1.046324e-004
1.516314e-004,3.688912e-005
1.423936e-004,-4.106429e-005
1.347766e-004,-1.186936e-004
1.318594e-004,-1.820611e-004
1.341283e-004,-2.266291e-004
1.385041e-004,-2.485079e-004
1.398006e-004,-2.496423e-004
1.354248e-004,-2.363530e-004
1.248906e-004,-2.194982e-004
1.091703e-004,-2.032917e-004
9.442231e-005,-1.916230e-004
9.361199e-005,-1.846542e-004
1.172735e-004,-1.794681e-004
1.662173e-004,-1.736337e-004
2.354192e-004,-1.700683e-004
3.138588e-004,-1.713648e-004
3.884089e-004,-1.783336e-004
4.514523e-004,-1.916230e-004
4.976409e-004,-2.110708e-004
5.230852e-004,-2.285739e-004
5.130371e-004,-2.361909e-004
4.564763e-004,-2.348944e-004
3.538890e-004,-2.308428e-004
2.237505e-004,-2.243602e-004
9.409818e-005,-2.152845e-004
-2.654814e-006,-2.024813e-004
-5.046408e-005,-1.865989e-004
-5.370539e-005,-1.658546e-004
-2.809907e-005,-1.436516e-004
8.041497e-006,-1.208004e-004
3.672706e-005,-1.007043e-004
3.964424e-005,-8.012204e-005
6.582909e-006,-5.872941e-005
-5.192267e-005,-3.620233e-005
-1.117248e-004,-1.756482e-005
-1.566169e-004,-3.303076e-006
-1.888679e-004,6.096713e-006
-2.182017e-004,1.274139e-005
-2.532078e-004,1.906194e-005
-2.984240e-004,2.441009e-005
-3.577399e-004,3.040651e-005
-4.353692e-004,4.077869e-005
-5.407116e-004,6.022653e-005
-6.807360e-004,8.826383e-005
-8.424772e-004,1.226217e-004
-9.891463e-004,1.581140e-004
-1.082820e-003,1.898788e-004
-1.104699e-003,2.135403e-004
-1.063210e-003,2.274780e-004
-9.823395e-004,2.315296e-004
-8.787798e-004,2.313675e-004
-7.538275e-004,2.300710e-004
-6.103997e-004,2.284504e-004
-4.570859e-004,2.265056e-004
-3.006929e-004,2.250470e-004
-1.502963e-004,2.222919e-004
-1.432352e-005,2.166196e-004
9.507057e-005,2.090025e-004
1.726999e-004,2.005751e-004
2.158093e-004,1.931201e-004
2.313675e-004,1.902029e-004
2.325020e-004,1.919856e-004
2.265056e-004,1.971717e-004
2.200230e-004,2.054371e-004
2.193747e-004,2.119197e-004
2.289366e-004,2.098128e-004
2.490327e-004,1.957132e-004
2.748010e-004,1.712413e-004
2.986247e-004,1.419075e-004
3.177483e-004,1.169494e-004
3.297412e-004,1.009049e-004
3.360618e-004,9.442231e-005
3.431926e-004,9.182927e-005
3.579406e-004,8.502253e-005
3.869503e-004,7.335383e-005
4.352458e-004,6.022653e-005
4.931031e-004,4.790957e-005
5.475571e-004,3.559260e-005
5.905044e-004,2.359977e-005
6.180556e-004,9.338019e-006
6.302104e-004,-6.544382e-006
6.352345e-004,-2.275091e-005
6.323173e-004,-4.074016e-005
6.193521e-004,-6.018800e-005
5.935837e-004,-7.817725e-005
5.519328e-004,-9.195280e-005
4.947237e-004,-1.018388e-004
4.310321e-004,-1.083214e-004
3.713920e-004,-1.141558e-004
3.185587e-004,-1.173971e-004
2.649151e-004,-1.214487e-004
1.965235e-004,-1.316588e-004
1.067393e-004,-1.496481e-004
-5.571990e-006,-1.765509e-004
-1.332795e-004,-2.075054e-004
-2.605007e-004,-2.327876e-004
-3.716775e-004,-2.465631e-004
-4.525481e-004,-2.436459e-004
-4.898231e-004,-2.332737e-004
-4.763717e-004,-2.219292e-004
-4.159214e-004,-2.115570e-004
-3.241924e-004,-2.039399e-004
-2.389460e-004,-1.985918e-004
-1.947022e-004,-1.896782e-004
-2.006986e-004,-1.713648e-004
-2.348944e-004,-1.465688e-004
-2.551526e-004,-1.232314e-004
-2.237119e-004,-1.096179e-004
-1.245279e-004,-1.041077e-004
2.716521e-005,-1.037836e-004
2.036544e-004,-1.050801e-004
3.811159e-004,-1.041077e-004
5.452881e-004,-9.568031e-005
6.862851e-004,-7.574627e-005
7.963275e-004,-4.884343e-005
8.643950e-004,-2.339918e-005
8.827084e-004,-4.437533e-006
8.507816e-004,4.800190e-006
7.770417e-004,4.313994e-006
6.694303e-004,-2.330684e-006
5.290816e-004,-7.192643e-006
3.534027e-004,-3.627206e-006
1.373696e-004,1.549650e-005
-1.342519e-004,5.034055e-005
-4.715097e-004,9.960841e-005
-8.607905e-004,1.569795e-004
-1.255582e-003,2.162954e-004
-1.593812e-003,2.709115e-004
-1.820217e-003,3.166139e-004
-1.895254e-003,3.563199e-004
-1.801256e-003,3.926226e-004
-1.558968e-003,4.226047e-004
-1.225924e-003,4.417284e-004
-8.763488e-004,4.425387e-004
-5.766901e-004,4.232529e-004
-3.572537e-004,3.851676e-004
-1.972953e-004,3.362238e-004
-5.321920e-005,2.877662e-004
1.000946e-004,2.498430e-004
2.504913e-004,2.286124e-004
3.584268e-004,2.243987e-004
3.807918e-004,2.300710e-004
3.023522e-004,2.365536e-004
1.396385e-004,2.401191e-004
-6.245691e-005,2.386605e-004
-2.264670e-004,2.328261e-004
-2.711970e-004,2.177540e-004
-1.519170e-004,1.952270e-004
1.179218e-004,1.746447e-004
4.713863e-004,1.618415e-004
8.180443e-004,1.530900e-004
1.083183e-003,1.419075e-004
1.228394e-003,1.274836e-004
1.246059e-003,1.075496e-004
1.148334e-003,7.967438e-005
9.634171e-004,4.823370e-005
7.253428e-004,1.582063e-005
4.649037e-004,-1.432352e-005
2.164575e-004,-4.252288e-005
-4.113403e-006,-6.974985e-005
-1.997262e-004,-9.373552e-005
-3.804291e-004,-1.169109e-004
-5.478425e-004,-1.417068e-004
-6.812222e-004,-1.661787e-004
-7.466965e-004,-1.828714e-004
-7.061802e-004,-1.849783e-004
-5.462218e-004,-1.760647e-004
-3.013411e-004,-1.634236e-004
-3.749886e-005,-1.540238e-004
1.809652e-004,-1.519170e-004
3.171001e-004,-1.551583e-004
3.720403e-004,-1.561307e-004
3.728506e-004,-1.569410e-004
3.504856e-004,-1.583996e-004
3.268240e-004,-1.626133e-004
3.187208e-004,-1.692580e-004
3.384927e-004,-1.759026e-004
3.874365e-004,-1.818991e-004
4.529109e-004,-1.856265e-004
5.133613e-004,-1.853024e-004
5.556603e-004,-1.794681e-004
5.749461e-004,-1.682856e-004
5.759185e-004,-1.514308e-004
5.653843e-004,-1.269589e-004
5.499881e-004,-9.454585e-005
5.357263e-004,-6.472583e-005
5.227611e-004,-4.122636e-005
5.080132e-004,-2.015787e-005
4.869446e-004,4.476060e-006
4.525868e-004,3.429608e-005
4.028327e-004,6.379197e-005
3.506476e-004,9.199134e-005
3.036487e-004,1.195424e-004
2.576221e-004,1.472556e-004
2.094887e-004,1.715654e-004
1.589243e-004,1.856651e-004
1.101427e-004,1.780480e-004
6.832980e-005,1.456350e-004
3.543054e-005,9.377406e-005
7.717366e-006,3.834771e-005
-2.842320e-005,-5.896120e-006
-8.044617e-005,-2.761287e-005
-1.459206e-004,-2.291298e-005
-2.135018e-004,2.045080e-006
-2.629317e-004,3.867184e-005
-2.747625e-004,7.529860e-005
-2.413770e-004,1.064152e-004
-1.750923e-004,1.287802e-004
-8.806324e-005,1.436902e-004
3.179537e-006,1.560072e-004
7.756752e-005,1.675138e-004
1.205148e-004,1.773998e-004
1.351007e-004,1.835583e-004
1.328318e-004,1.889064e-004
1.208390e-004,1.981441e-004
1.059290e-004,2.115956e-004
9.085688e-005,2.300710e-004
6.962632e-005,2.517878e-004
3.802358e-005,2.702632e-004
-1.682422e-006,2.801492e-004
-4.106429e-005,2.835526e-004
-7.153257e-005,2.833905e-004
-8.741498e-005,2.791768e-004
-8.838737e-005,2.686426e-004
-7.833932e-005,2.532463e-004
-6.067420e-005,2.360674e-004
-4.171256e-005,2.190506e-004
-3.539201e-005,2.033302e-004
-5.176061e-005,1.900409e-004
-8.741498e-005,1.757791e-004
-1.313347e-004,1.595726e-004
-1.726613e-004,1.368834e-004
-2.036158e-004,1.002567e-004
-2.186879e-004,5.115087e-005
-2.162569e-004,3.341602e-006
-1.985918e-004,-3.490581e-005
-1.739578e-004,-6.472583e-005
-1.543479e-004,-9.098041e-005
-1.477033e-004,-1.157764e-004
-1.562927e-004,-1.370070e-004
-1.733096e-004,-1.532135e-004
-1.896782e-004,-1.686097e-004
-2.005366e-004,-1.880575e-004
-2.052365e-004,-2.110708e-004
-2.062088e-004,-2.318152e-004
-2.055606e-004,-2.494803e-004
-2.078295e-004,-2.686040e-004
-2.152845e-004,-2.927517e-004
-2.263049e-004,-3.212752e-004
-2.358668e-004,-3.462333e-004
-2.342462e-004,-3.645466e-004
-2.169052e-004,-3.742705e-004
-1.877334e-004,-3.794566e-004
-1.566169e-004,-3.781601e-004
-1.290658e-004,-3.677880e-004
-1.047560e-004,-3.452609e-004
-8.303922e-005,-3.141443e-004
-6.602235e-005,-2.755728e-004
-5.419158e-005,-2.288980e-004
-4.803310e-005,-1.747682e-004
-5.013995e-005,-1.180453e-004
-5.840528e-005,-6.067420e-005
-7.056019e-005,-4.113403e-006
-7.931171e-005,5.034055e-005
-8.125649e-005,1.017153e-004
-7.153257e-005,1.430419e-004
-5.208474e-005,1.657311e-004
-2.469570e-005,1.704310e-004
7.555301e-006,1.628139e-004
3.915804e-005,1.568175e-004
6.865393e-005,1.551968e-004
1.013911e-004,1.534141e-004
1.389903e-004,1.482280e-004
1.770756e-004,1.402868e-004
2.073819e-004,1.305629e-004
2.240746e-004,1.219734e-004
2.276400e-004,1.197045e-004
2.320158e-004,1.263492e-004
2.563256e-004,1.365593e-004
3.064038e-004,1.461212e-004
3.705817e-004,1.530900e-004
4.321665e-004,1.637863e-004
4.781931e-004,1.837203e-004
5.088235e-004,2.138645e-004
5.253541e-004,2.548670e-004
5.347540e-004,2.994350e-004
5.409124e-004,3.367100e-004
5.368608e-004,3.587509e-004
5.091476e-004,3.613439e-004
4.488593e-004,3.485408e-004
3.525924e-004,3.284447e-004
2.187264e-004,3.077003e-004
4.936815e-005,2.887387e-004
-1.468929e-004,2.713977e-004
-3.611433e-004,2.530843e-004
-5.877105e-004,2.357433e-004
-8.196260e-004,2.245608e-004
-1.036793e-003,2.119197e-004
-1.211014e-003,1.952270e-004
-1.322839e-003,1.751309e-004
-1.365138e-003,1.577899e-004
-1.343097e-003,1.462832e-004
-1.286374e-003,1.389903e-004
-1.228517e-003,1.321835e-004
-1.184759e-003,1.266733e-004
-1.157694e-003,1.257009e-004
-1.140191e-003,1.323456e-004
-1.113937e-003,1.425557e-004
-1.050245e-003,1.488763e-004
-9.235098e-004,1.466074e-004
-7.157421e-004,1.342904e-004
-4.326141e-004,1.140322e-004
-1.057284e-004,8.826383e-005
2.164575e-004,5.957827e-005
4.861343e-004,2.813760e-005
6.708889e-004,-7.100305e-007
7.528940e-004,-2.161646e-005
7.386322e-004,-3.215070e-005
6.780197e-004,-2.988179e-005
6.433378e-004,-1.513384e-005
6.835299e-004,9.824215e-006
7.904932e-004,3.656499e-005
9.190111e-004,5.163707e-005
1.018033e-003,4.790957e-005
1.053850e-003,2.197911e-005
1.012685e-003,-2.210265e-005
8.882187e-004,-8.222889e-005
6.846645e-004,-1.528894e-004
4.180668e-004,-2.206326e-004
1.145184e-004,-2.700626e-004
-1.951884e-004,-2.998826e-004
-4.770200e-004,-3.134961e-004
-6.946736e-004,-3.160891e-004
-8.095779e-004,-3.107410e-004
-7.945059e-004,-2.992343e-004
-6.458920e-004,-2.827037e-004
-3.935563e-004,-2.621213e-004
-9.098041e-005,-2.392702e-004
2.023578e-004,-2.170672e-004
4.412422e-004,-1.994021e-004
6.029835e-004,-1.867610e-004
6.934160e-004,-1.747682e-004
7.366874e-004,-1.580754e-004
7.566215e-004,-1.379794e-004
7.689385e-004,-1.240417e-004
7.809313e-004,-1.255003e-004
7.945448e-004,-1.399241e-004
8.041067e-004,-1.609926e-004
8.036205e-004,-1.786577e-004
7.870898e-004,-1.809267e-004
7.567836e-004,-1.603444e-004
7.211292e-004,-1.225832e-004
6.880678e-004,-7.914964e-005
6.574374e-004,-4.203669e-005
6.282657e-004,-1.724069e-005
5.994180e-004,-2.492749e-006
5.715428e-004,8.689758e-006
5.407503e-004,2.408596e-005
4.955341e-004,4.564065e-005
4.350837e-004,7.059871e-005
3.660439e-004,9.312580e-005
2.973281e-004,1.135460e-004
2.409294e-004,1.338042e-004
2.041406e-004,1.579519e-004
1.824238e-004,1.846927e-004
1.668655e-004,2.083542e-004
1.555210e-004,2.290986e-004
1.466074e-004,2.457913e-004
1.339663e-004,2.561635e-004
1.101427e-004,2.637806e-004
7.059871e-005,2.670219e-004
2.165498e-005,2.624841e-004
-2.388537e-005,2.513016e-004
-5.338126e-005,2.410915e-004
-6.245691e-005,2.370398e-004
-5.354332e-005,2.397949e-004
-3.393342e-005,2.443328e-004
-1.010982e-005,2.444948e-004
1.047248e-005,2.402811e-004
2.392390e-005,2.312055e-004
3.267542e-005,2.208333e-004
4.077869e-005,2.119197e-004
4.677511e-005,2.060853e-004
3.899597e-005,1.976579e-004
7.555301e-006,1.846927e-004
-3.522994e-005,1.649207e-004
-6.829127e-005,1.435281e-004
-7.979791e-005,1.255389e-004
-7.477388e-005,1.106288e-004
-6.116039e-005,9.588091e-005
-4.479180e-005,7.935024e-005
-2.826114e-005,6.233338e-005
-1.448558e-005,4.515445e-005
-4.437533e-006,2.522042e-005
1.144487e-005,1.234753e-006
4.337174e-005,-2.469570e-005
8.842590e-005,-5.078821e-005
1.297526e-004,-7.639453e-005
1.500107e-004,-9.649064e-005
1.459591e-004,-1.084835e-004
1.316974e-004,-1.162626e-004
1.263492e-004,-1.271210e-004
1.432040e-004,-1.452723e-004
1.799928e-004,-1.749302e-004
2.196988e-004,-2.078295e-004
2.448189e-004,-2.329496e-004
2.410915e-004,-2.464010e-004
1.996027e-004,-2.465631e-004
1.257009e-004,-2.292221e-004
4.045456e-005,-2.008607e-004
-3.506788e-005,-1.681235e-004
-8.498399e-005,-1.370070e-004
-1.067007e-004,-1.133454e-004
-1.102662e-004,-1.011905e-004
-1.126972e-004,-1.018388e-004
-1.297140e-004,-1.107524e-004
-1.827094e-004,-1.206384e-004
-2.963172e-004,-1.243659e-004
-4.873921e-004,-1.201522e-004
-7.421587e-004,-1.122110e-004
-1.023990e-003,-1.023250e-004
-1.280378e-003,-9.033215e-005
-1.454112e-003,-7.623246e-005
-1.504838e-003,-6.067420e-005
-1.428667e-003,-4.560212e-005
-1.256878e-003,-3.150244e-005
-1.041331e-003,-2.145439e-005
-8.364808e-004,-1.707863e-005
-6.843015e-004,-1.124428e-005
-5.982448e-004,1.396819e-006
-5.640491e-004,2.473423e-005
-5.585388e-004,6.184718e-005
-5.530285e-004,1.112771e-004
-5.267740e-004,1.633001e-004
-4.732924e-004,2.077060e-004
-4.040906e-004,2.350950e-004
-3.389403e-004,2.461155e-004
-2.963172e-004,2.454672e-004
-2.762210e-004,2.373639e-004
-2.686040e-004,2.239125e-004
-2.561249e-004,2.075439e-004
-2.250084e-004,1.931201e-004
-1.697442e-004,1.872858e-004
-9.843541e-005,1.937684e-004
-2.566809e-005,2.078681e-004
3.332369e-005,2.245608e-004
6.233338e-005,2.404432e-004
5.585077e-005,2.522740e-004
2.489629e-005,2.602152e-004
-7.030578e-006,2.658874e-004
-9.299493e-006,2.644289e-004
3.996837e-005,2.551911e-004
1.423936e-004,2.399570e-004
2.757735e-004,2.201850e-004
4.085050e-004,2.002510e-004
5.101200e-004,1.838824e-004
5.658705e-004,1.730240e-004
5.760806e-004,1.702689e-004
5.558224e-004,1.735102e-004
5.318367e-004,1.822617e-004
5.310264e-004,1.937684e-004
5.619809e-004,2.021958e-004
6.144901e-004,2.021958e-004
6.721854e-004,1.926339e-004
7.174017e-004,1.769136e-004
7.430080e-004,1.569795e-004
7.644006e-004,1.352628e-004
7.960034e-004,1.114392e-004
8.459196e-004,8.583286e-005
9.230627e-004,6.022653e-005
1.028243e-003,3.380988e-005
1.149630e-003,2.531276e-006
1.263725e-003,-3.360929e-005
1.345406e-003,-6.715681e-005
1.386732e-003,-8.887356e-005
1.383005e-003,-9.794922e-005
1.326768e-003,-9.892161e-005
1.210729e-003,-1.015147e-004
1.029378e-003,-1.115627e-004
7.836864e-004,-1.271210e-004
4.791655e-004,-1.447861e-004
1.383420e-004,-1.596961e-004
-2.026434e-004,-1.686097e-004
-5.089468e-004,-1.708786e-004
-7.536653e-004,-1.724993e-004
-9.235098e-004,-1.788198e-004
-1.043438e-003,-1.908126e-004
-1.156722e-003,-2.060468e-004
-1.297719e-003,-2.182017e-004
-1.461891e-003,-2.229016e-004
-1.604995e-003,-2.170672e-004
-1.678086e-003,-1.987538e-004
-1.658962e-003,-1.742820e-004
-1.557834e-003,-1.434896e-004
-1.407599e-003,-1.079973e-004
-1.246668e-003,-7.201877e-005
-1.099675e-003,-3.928157e-005
-9.794224e-004,-1.075808e-005
-8.852624e-004,1.176900e-005
-7.953162e-004,2.619281e-005
-6.836532e-004,2.910999e-005
-5.301774e-004,1.841368e-005
-3.340784e-004,-2.330684e-006
-1.092938e-004,-2.420950e-005
1.253768e-004,-4.284701e-005
3.530786e-004,-5.970181e-005
5.613327e-004,-7.282909e-005
7.423597e-004,-8.093236e-005
8.901635e-004,-8.352541e-005
9.987473e-004,-8.222889e-005
1.065194e-003,-8.125649e-005
1.086911e-003,-8.741498e-005
1.068273e-003,-9.989401e-005
1.023705e-003,-1.169109e-004
9.635791e-004,-1.347380e-004
8.929186e-004,-1.460826e-004
8.170719e-004,-1.407345e-004
7.409012e-004,-1.193418e-004
6.789921e-004,-8.741498e-005
6.457687e-004,-5.127441e-005
6.499824e-004,-1.432352e-005
6.900126e-004,2.570662e-005
7.554871e-004,7.416415e-005
8.222580e-004,1.287802e-004
8.669881e-004,1.866375e-004
8.747673e-004,2.454672e-004
8.426782e-004,3.033245e-004
7.728280e-004,3.613439e-004
6.642442e-004,4.198496e-004
5.110924e-004,4.743035e-004
3.064038e-004,5.183853e-004
5.406805e-005,5.469088e-004
-2.232257e-004,5.554983e-004
-4.971161e-004,5.426951e-004
-7.489655e-004,5.159543e-004
-9.633779e-004,4.869446e-004
-1.119285e-003,4.671726e-004
-1.188973e-003,4.608521e-004
-1.151050e-003,4.657141e-004
-1.000167e-003,4.751139e-004
-7.637134e-004,4.811103e-004
-4.885266e-004,4.788414e-004
-2.211189e-004,4.619866e-004
2.531276e-006,4.263322e-004
1.641104e-004,3.741471e-004
2.602152e-004,3.138588e-004
3.030004e-004,2.485465e-004
3.070520e-004,1.856651e-004
2.924662e-004,1.320215e-004
2.791768e-004,9.085688e-005
2.804733e-004,5.876794e-005
3.004074e-004,2.586868e-005
3.331446e-004,-9.461558e-006
3.676645e-004,-4.770897e-005
3.898674e-004,-8.239095e-005
3.910019e-004,-1.096179e-004
3.725265e-004,-1.290658e-004
3.326584e-004,-1.400862e-004
2.641047e-004,-1.442999e-004
1.647587e-004,-1.431655e-004
2.927205e-005,-1.394379e-004
-1.366828e-004,-1.381414e-004
-3.094444e-004,-1.462447e-004
-4.431483e-004,-1.676373e-004
-4.982505e-004,-2.003745e-004
-4.611376e-004,-2.378116e-004
-3.543365e-004,-2.771934e-004
-2.219292e-004,-3.157650e-004
-9.730096e-005,-3.502849e-004
4.244267e-007,-3.846427e-004
6.735741e-005,-4.202971e-004
1.101427e-004,-4.531963e-004
1.316974e-004,-4.812336e-004
1.334801e-004,-5.050572e-004
1.175977e-004,-5.196431e-004
8.437427e-005,-5.240189e-004
3.640293e-005,-5.233706e-004
-1.788895e-005,-5.191569e-004
-6.229485e-005,-5.091089e-004
-8.579432e-005,-4.932265e-004
-8.757704e-005,-4.721580e-004
-7.671866e-005,-4.460655e-004
-6.537409e-005,-4.131662e-004
-5.727083e-005,-3.767015e-004
-5.046408e-005,-3.402368e-004
-3.863332e-005,-3.058790e-004
-1.772689e-005,-2.778417e-004
6.258778e-006,-2.564491e-004
2.862379e-005,-2.415391e-004
4.126489e-005,-2.311669e-004
3.786152e-005,-2.209568e-004
2.424803e-005,-2.015090e-004
1.306552e-005,-1.653684e-004
1.582063e-005,-1.128592e-004
3.769945e-005,-4.770897e-005
7.432621e-005,1.922400e-005
1.111150e-004,8.161915e-005
1.399627e-004,1.349386e-004
1.472556e-004,1.762653e-004
1.224596e-004,2.049509e-004
5.860588e-005,2.221298e-004
-4.576419e-005,2.303951e-004
-1.796301e-004,2.396328e-004
-3.134961e-004,2.605393e-004
-4.170558e-004,2.955454e-004
-4.625961e-004,3.371962e-004
-4.426621e-004,3.775505e-004
-3.668155e-004,4.102877e-004
-2.583939e-004,4.282770e-004
-1.441378e-004,4.318424e-004
-4.268495e-005,4.292493e-004
3.364782e-005,4.255218e-004
8.145709e-005,4.250357e-004
1.062531e-004,4.313562e-004
1.083599e-004,4.459421e-004
9.199134e-005,4.618245e-004
6.541262e-005,4.739794e-004
4.272347e-005,4.794896e-004
3.170304e-005,4.819206e-004
3.445814e-005,4.833792e-004
5.504044e-005,4.845136e-004
8.761557e-005,4.864584e-004
1.175977e-004,4.884033e-004
1.316974e-004,4.869446e-004
1.216493e-004,4.777069e-004
8.421220e-005,4.555039e-004
2.035846e-005,4.196875e-004
-5.808115e-005,3.770643e-004
-1.302002e-004,3.342791e-004
-1.762268e-004,2.974902e-004
-1.831956e-004,2.702632e-004
-1.535376e-004,2.527602e-004
-1.018388e-004,2.436845e-004
-4.706071e-005,2.363916e-004
-5.409925e-006,2.206712e-004
1.355172e-005,1.931201e-004
2.531276e-006,1.560072e-004
-3.150244e-005,1.156529e-004
-7.299116e-005,7.772959e-005
-1.070249e-004,4.709924e-005
-1.251762e-004,2.230325e-005
-1.211246e-004,7.485573e-007
-1.013526e-004,-2.307504e-005
-7.769106e-005,-5.402952e-005
-5.240886e-005,-9.324933e-005
-2.064406e-005,-1.373311e-004
1.711715e-005,-1.806025e-004
5.828175e-005,-2.185258e-004
1.049566e-004,-2.493182e-004
1.566554e-004,-2.713591e-004
2.034923e-004,-2.882139e-004
2.389846e-004,-3.057169e-004
2.655633e-004,-3.251648e-004
2.880904e-004,-3.446126e-004
3.013798e-004,-3.632501e-004
2.960316e-004,-3.810773e-004
2.649151e-004,-3.974459e-004
2.193747e-004,-4.100870e-004
1.788584e-004,-4.191627e-004
1.592484e-004,-4.271038e-004
1.597346e-004,-4.356933e-004
1.600588e-004,-4.418518e-004
1.352628e-004,-4.382863e-004
8.080883e-005,-4.159214e-004
9.986281e-006,-3.700569e-004
-5.808115e-005,-3.100927e-004
-1.055663e-004,-2.514251e-004
-1.261486e-004,-2.053985e-004
-1.173971e-004,-1.737958e-004
-8.968389e-005,-1.486757e-004
-6.245691e-005,-1.279313e-004
-5.646050e-005,-1.152902e-004
-7.914964e-005,-1.099421e-004
-1.232314e-004,-1.055663e-004
-1.754164e-004,-9.179074e-005
-2.285739e-004,-6.035007e-005
-2.864312e-004,-1.286493e-005
-3.533641e-004,4.142696e-005
-4.227281e-004,9.636710e-005
-4.768579e-004,1.436902e-004
-5.026262e-004,1.791825e-004
-4.847991e-004,2.067336e-004
-4.147869e-004,2.313675e-004
-3.023136e-004,2.563256e-004
-1.663408e-004,2.832284e-004
-3.134038e-005,3.109416e-004
8.437427e-005,3.367100e-004
1.726999e-004,3.559958e-004
2.316917e-004,3.660439e-004
2.658874e-004,3.687990e-004
2.850112e-004,3.687990e-004
2.965178e-004,3.689610e-004
3.017039e-004,3.668542e-004
3.015418e-004,3.640991e-004
2.979764e-004,3.589129e-004
2.989488e-004,3.530786e-004
3.081865e-004,3.501615e-004
3.253654e-004,3.495132e-004
3.456236e-004,3.482167e-004
3.634508e-004,3.454615e-004
3.728506e-004,3.375204e-004
3.720403e-004,3.239069e-004
3.718782e-004,3.059176e-004
3.796573e-004,2.846870e-004
3.950536e-004,2.600531e-004
4.188772e-004,2.354192e-004
4.470765e-004,2.153231e-004
4.712243e-004,2.010613e-004
4.866205e-004,1.877720e-004
4.955341e-004,1.707551e-004
5.005581e-004,1.461212e-004
4.963444e-004,1.195424e-004
4.874308e-004,9.490851e-005
4.814344e-004,7.367795e-005
4.828930e-004,5.439218e-005
4.905101e-004,3.218923e-005
5.002340e-004,7.393236e-006
5.021787e-004,-1.610624e-005
4.825689e-004,-3.685060e-005
4.311941e-004,-5.370539e-005
3.469201e-004,-6.796714e-005
2.396328e-004,-8.303922e-005
1.239182e-004,-9.908367e-005
1.387585e-005,-1.169109e-004
-8.271508e-005,-1.391138e-004
-1.689338e-004,-1.669890e-004
-2.481838e-004,-1.998883e-004
-3.227338e-004,-2.316531e-004
-3.914495e-004,-2.559629e-004
-4.572480e-004,-2.723315e-004
-5.275843e-004,-2.841623e-004
-6.071584e-004,-2.921034e-004
-7.001839e-004,-2.940482e-004
-8.068228e-004,-2.895104e-004
-9.179996e-004,-2.815692e-004
-1.011187e-003,-2.734659e-004
-1.057376e-003,-2.655248e-004
-1.027880e-003,-2.582318e-004
-9.147583e-004,-2.530457e-004
-7.321107e-004,-2.540181e-004
-5.108916e-004,-2.609869e-004
-2.844864e-004,-2.690902e-004
-7.801519e-005,-2.752487e-004
9.458438e-005,-2.741142e-004
2.295848e-004,-2.630937e-004
3.308757e-004,-2.441321e-004
4.046154e-004,-2.173914e-004
4.605280e-004,-1.877334e-004
5.034753e-004,-1.603444e-004
5.396159e-004,-1.352242e-004
5.780254e-004,-1.096179e-004
6.272933e-004,-7.963584e-005
6.924436e-004,-4.187462e-005
7.768797e-004,8.203562e-006
8.668260e-004,6.930219e-005
9.308419e-004,1.321835e-004
9.316522e-004,1.913374e-004
8.491609e-004,2.451431e-004
6.874196e-004,2.901973e-004
4.660382e-004,3.229345e-004
2.028440e-004,3.438409e-004
-8.222889e-005,3.534027e-004
-3.621157e-004,3.548613e-004
-5.937069e-004,3.537269e-004
-7.274108e-004,3.579406e-004
-7.228730e-004,3.709058e-004
-5.736109e-004,3.919743e-004
-3.089583e-004,4.096394e-004
1.533444e-005,4.164462e-004
3.333067e-004,4.110980e-004
5.801322e-004,3.965121e-004
7.033019e-004,3.781987e-004
6.754267e-004,3.563199e-004
5.062304e-004,3.263378e-004
2.145127e-004,2.893870e-004
-1.721751e-004,2.482223e-004
-6.112100e-004,2.057612e-004
-1.050893e-003,1.654069e-004
-1.442929e-003,1.331559e-004
-1.744371e-003,1.106288e-004
-1.912757e-003,9.879808e-005
-1.916970e-003,9.199134e-005
-1.752312e-003,8.275361e-005
-1.457677e-003,6.735741e-005
-1.103402e-003,5.212327e-005
-7.781372e-004,3.932010e-005
-5.609698e-004,3.186510e-005
-4.906334e-004,3.008238e-005
-5.413599e-004,3.348575e-005
-6.377887e-004,3.607880e-005
-6.987253e-004,3.089271e-005
-6.823567e-004,1.792748e-005
-5.987309e-004,1.234753e-006
-4.979264e-004,-1.821308e-005
-4.345588e-004,-3.668853e-005
-4.264556e-004,-5.224680e-005
-4.329382e-004,-6.586029e-005
-3.935563e-004,-7.574627e-005
-2.679557e-004,-8.044617e-005
-6.018800e-005,-7.817725e-005
1.887444e-004,-7.201877e-005
4.362182e-004,-6.731888e-005
6.564650e-004,-6.553616e-005
8.366818e-004,-6.667062e-005
9.731410e-004,-7.363943e-005
1.067301e-003,-8.498399e-005
1.126617e-003,-1.029732e-004
1.157085e-003,-1.284175e-004
1.164054e-003,-1.582375e-004
1.151413e-003,-1.885437e-004
1.119162e-003,-2.115570e-004
1.064384e-003,-2.233878e-004
9.912923e-004,-2.250084e-004
9.076665e-004,-2.250084e-004
8.209614e-004,-2.282497e-004
7.413874e-004,-2.332737e-004
6.812610e-004,-2.379736e-004
6.462549e-004,-2.421874e-004
6.394482e-004,-2.460769e-004
6.574374e-004,-2.496423e-004
6.832058e-004,-2.512630e-004
7.015193e-004,-2.515871e-004
7.067053e-004,-2.491561e-004
7.005468e-004,-2.370013e-004
6.848265e-004,-2.141500e-004
6.603546e-004,-1.877334e-004
6.347483e-004,-1.608306e-004
6.102764e-004,-1.368449e-004
5.922872e-004,-1.183694e-004
5.807805e-004,-1.052422e-004
5.670050e-004,-9.357346e-005
5.410745e-004,-7.688073e-005
4.997478e-004,-5.419158e-005
4.506420e-004,-2.712668e-005
4.034809e-004,3.179537e-006
3.615060e-004,3.283749e-005
3.222862e-004,5.617490e-005
2.840388e-004,7.465034e-005
2.517878e-004,9.166720e-005
2.278021e-004,1.124116e-004
2.096508e-004,1.355869e-004
1.924718e-004,1.558451e-004
1.709172e-004,1.725378e-004
1.409351e-004,1.913374e-004
1.026876e-004,2.171058e-004
6.152305e-005,2.457913e-004
2.943412e-005,2.723701e-004
1.565857e-005,2.945730e-004
1.987227e-005,3.132105e-004
3.218923e-005,3.321722e-004
4.094075e-005,3.496752e-004
3.688912e-005,3.645853e-004
2.489629e-005,3.731747e-004
1.257933e-005,3.730126e-004
3.341602e-006,3.649094e-004
-3.858999e-007,3.516200e-004
1.234753e-006,3.339549e-004
3.341602e-006,3.128864e-004
2.623614e-007,2.895490e-004
-6.868513e-006,2.679943e-004
-1.675450e-005,2.506533e-004
-2.437157e-005,2.401191e-004
-3.425755e-005,2.359054e-004
-5.581224e-005,2.349330e-004
-9.292520e-005,2.325020e-004
-1.439758e-004,2.261814e-004
-2.052365e-004,2.154851e-004
-2.663351e-004,1.989545e-004
-3.222476e-004,1.720516e-004
-3.645466e-004,1.363972e-004
-3.932322e-004,9.928428e-005
-4.143007e-004,6.703327e-005
-4.335865e-004,4.256141e-005
-4.574101e-004,2.392390e-005
-4.987367e-004,7.879432e-006
-5.650214e-004,-6.382317e-006
-6.494574e-004,-1.805102e-005
-7.368106e-004,-2.291298e-005
-8.052022e-004,-1.529591e-005
-8.372911e-004,5.772582e-006
-8.304843e-004,3.316162e-005
-7.959644e-004,5.763349e-005
-7.526930e-004,7.351589e-005
-7.147697e-004,7.659513e-005
-6.841394e-004,6.978839e-005
-6.462161e-004,5.763349e-005
-5.854416e-004,4.515445e-005
-4.976023e-004,3.008238e-005
-3.882082e-004,9.338019e-006
-2.729798e-004,-2.048200e-005
-1.710407e-004,-5.759496e-005
-1.054042e-004,-9.551824e-005
-9.033215e-005,-1.290658e-004
-1.251762e-004,-1.562927e-004
-1.997262e-004,-1.770371e-004
-2.921034e-004,-1.950263e-004
-3.856151e-004,-2.113949e-004
-4.749131e-004,-2.259808e-004
-5.467080e-004,-2.366771e-004
-5.823624e-004,-2.417012e-004
-5.663179e-004,-2.408908e-004
-4.967919e-004,-2.353806e-004
-3.805911e-004,-2.235498e-004
-2.337599e-004,-2.076674e-004
-8.174268e-005,-1.943781e-004
4.077869e-005,-1.859507e-004
1.140322e-004,-1.812508e-004
1.432040e-004,-1.781716e-004
1.433661e-004,-1.734716e-004
1.247285e-004,-1.621271e-004
1.018773e-004,-1.394379e-004
9.150514e-005,-1.060525e-004
9.798775e-005,-6.991193e-005
1.171115e-004,-3.895745e-005
1.464453e-004,-1.610624e-005
1.822617e-004,2.623614e-007
2.184023e-004,1.209313e-005
2.485465e-004,2.100672e-005
2.678322e-004,3.024445e-005
2.749631e-004,4.272347e-005
2.769079e-004,5.925414e-005
2.765838e-004,7.627100e-005
2.722080e-004,9.247754e-005
2.649151e-004,1.107909e-004
2.590807e-004,1.344524e-004
2.587566e-004,1.616794e-004
2.607014e-004,1.895547e-004
2.654013e-004,2.151610e-004
2.832284e-004,2.349330e-004
3.166139e-004,2.478982e-004
3.563199e-004,2.555152e-004
3.897054e-004,2.582704e-004
4.070464e-004,2.561635e-004
4.089912e-004,2.506533e-004
3.947294e-004,2.446569e-004
3.655576e-004,2.436845e-004
3.261758e-004,2.535705e-004
2.861456e-004,2.720459e-004
2.547049e-004,2.916559e-004
2.394708e-004,3.094830e-004
2.423880e-004,3.226103e-004
2.600531e-004,3.320101e-004
2.791768e-004,3.362238e-004
2.898731e-004,3.326584e-004
2.856594e-004,3.224483e-004
2.712356e-004,3.098072e-004
2.519498e-004,2.948972e-004
2.325020e-004,2.770700e-004
2.149989e-004,2.550291e-004
2.052750e-004,2.248849e-004
2.059233e-004,1.855030e-004
2.138645e-004,1.363972e-004
2.232643e-004,7.627100e-005
2.292607e-004,1.063454e-005
2.274780e-004,-4.981582e-005
2.156472e-004,-9.292520e-005
1.983062e-004,-1.143178e-004
1.820997e-004,-1.206384e-004
1.691344e-004,-1.235555e-004
1.547106e-004,-1.313347e-004
1.315353e-004,-1.470550e-004
1.002567e-004,-1.689338e-004
6.735741e-005,-1.937298e-004
3.721326e-005,-2.225774e-004
1.063454e-005,-2.572594e-004
-1.707863e-005,-2.964792e-004
-4.803310e-005,-3.365093e-004
-7.736692e-005,-3.734602e-004
-1.003802e-004,-4.013355e-004
-1.104282e-004,-4.164075e-004
-1.002181e-004,-4.217557e-004
-7.072225e-005,-4.219178e-004
-3.668853e-005,-4.191627e-004
-1.254080e-005,-4.139766e-004
4.244267e-007,-4.058733e-004
6.582909e-006,-3.951770e-004
3.341602e-006,-3.851289e-004
-1.772689e-005,-3.744326e-004
-5.370539e-005,-3.617915e-004
-9.292520e-005,-3.450988e-004
-1.263107e-004,-3.245165e-004
-1.462447e-004,-2.971275e-004
-1.561307e-004,-2.632558e-004
-1.640719e-004,-2.233878e-004
-1.729855e-004,-1.773612e-004
-1.759026e-004,-1.263107e-004
-1.603444e-004,-7.477388e-005
-1.212866e-004,-2.842320e-005
-7.023606e-005,1.063454e-005
-2.323711e-005,4.645098e-005
5.124321e-006,7.821578e-005
1.582063e-005,1.064152e-004
2.635488e-005,1.386662e-004
6.038860e-005,1.759412e-004
1.287802e-004,2.135403e-004
2.274780e-004,2.457913e-004
3.412479e-004,2.644289e-004
4.542074e-004,2.691288e-004
5.514466e-004,2.618358e-004
6.224313e-004,2.444948e-004
6.671614e-004,2.273159e-004
6.825576e-004,2.227781e-004
6.626236e-004,2.399570e-004
6.059006e-004,2.770700e-004
5.167646e-004,3.268240e-004
4.005638e-004,3.799815e-004
2.595669e-004,4.294114e-004
8.388807e-005,4.686312e-004
-1.340898e-004,4.952099e-004
-3.940425e-004,5.143337e-004
-6.893255e-004,5.328091e-004
-9.909290e-004,5.540397e-004
-1.254285e-003,5.721910e-004
-1.429964e-003,5.746220e-004
-1.472425e-003,5.488536e-004
-1.362707e-003,4.901859e-004
-1.131764e-003,4.055878e-004
-8.515528e-004,3.115899e-004
-5.938690e-004,2.269918e-004
-3.967976e-004,1.628139e-004
-2.645523e-004,1.208390e-004
-1.789819e-004,9.863601e-005
-1.154523e-004,9.053275e-005
-5.046408e-005,8.858796e-005
3.753739e-005,8.761557e-005
1.553589e-004,8.242948e-005
2.937627e-004,7.043665e-005
4.324906e-004,5.293359e-005
5.496639e-004,3.056858e-005
6.274553e-004,4.476060e-006
6.624615e-004,-2.388537e-005
6.631098e-004,-4.851930e-005
6.422033e-004,-6.132246e-005
6.028214e-004,-5.937768e-005
5.443158e-004,-4.657452e-005
4.644175e-004,-3.425755e-005
3.675024e-004,-2.793700e-005
2.691288e-004,-2.647842e-005
1.924718e-004,-2.339918e-005
1.566554e-004,-1.205460e-005
1.616794e-004,9.986281e-006
1.814514e-004,4.304761e-005
1.850168e-004,8.502253e-005
1.459591e-004,1.326697e-004
6.379197e-005,1.782101e-004
-3.879538e-005,2.115956e-004
-1.306864e-004,2.231022e-004
-1.797922e-004,2.055991e-004
-1.734716e-004,1.602208e-004
-1.295519e-004,9.442231e-005
-9.519411e-005,1.452411e-005
-1.086455e-004,-7.185670e-005
-1.793060e-004,-1.459206e-004
-2.903207e-004,-1.891920e-004
-4.006872e-004,-1.968091e-004
-4.708614e-004,-1.791439e-004
-5.018159e-004,-1.520790e-004
-5.207775e-004,-1.298761e-004
-5.528665e-004,-1.208004e-004
-6.073205e-004,-1.300382e-004
-6.747396e-004,-1.554824e-004
-7.300039e-004,-1.853024e-004
-7.436173e-004,-2.097743e-004
-6.961322e-004,-2.292221e-004
-5.822003e-004,-2.439701e-004
-4.104111e-004,-2.567732e-004
-2.055606e-004,-2.645523e-004
4.313994e-006,-2.643903e-004
1.926339e-004,-2.540181e-004
3.431926e-004,-2.352185e-004
4.490213e-004,-2.139880e-004
5.136854e-004,-1.921092e-004
5.535535e-004,-1.703924e-004
5.861287e-004,-1.468929e-004
6.211348e-004,-1.188556e-004
6.554927e-004,-9.195280e-005
6.778577e-004,-6.780507e-005
6.786680e-004,-4.300908e-005
6.541961e-004,-1.545797e-005
6.094660e-004,1.517237e-005
5.530673e-004,4.531652e-005
4.931031e-004,7.092284e-005
4.350837e-004,8.907416e-005
3.841952e-004,1.039842e-004
3.448133e-004,1.210010e-004
3.187208e-004,1.422316e-004
3.098072e-004,1.647587e-004
3.140208e-004,1.811273e-004
3.222862e-004,1.830721e-004
3.284447e-004,1.705930e-004
3.350894e-004,1.542244e-004
3.478926e-004,1.457970e-004
3.605336e-004,1.496866e-004
3.671783e-004,1.615174e-004
3.632887e-004,1.739964e-004
3.448133e-004,1.812893e-004
3.120761e-004,1.770756e-004
2.701012e-004,1.595726e-004
2.281262e-004,1.326697e-004
1.919856e-004,1.013911e-004
1.645966e-004,7.562274e-005
1.464453e-004,6.200925e-005
1.334801e-004,5.990240e-005
1.214872e-004,6.589881e-005
1.122495e-004,7.059871e-005
1.070634e-004,6.881599e-005
1.060910e-004,5.974033e-005
1.052807e-004,4.564065e-005
1.020394e-004,3.089271e-005
9.831188e-005,1.582063e-005
9.798775e-005,-3.789272e-006
1.005808e-004,-2.615429e-005
9.944634e-005,-4.868137e-005
8.469840e-005,-6.812920e-005
5.212327e-005,-8.077030e-005
1.193106e-005,-8.384954e-005
-2.307504e-005,-7.623246e-005
-3.847125e-005,-5.824322e-005
-2.064406e-005,-3.652646e-005
3.850978e-005,-1.983374e-005
1.406109e-004,-1.205460e-005
2.718839e-004,-1.529591e-005
4.018603e-004,-2.826114e-005
4.955341e-004,-4.689865e-005
5.298919e-004,-6.958779e-005
4.973168e-004,-1.005423e-004
4.073705e-004,-1.420310e-004
2.783665e-004,-1.903264e-004
1.381800e-004,-2.360289e-004
1.565857e-005,-2.716832e-004
-7.007399e-005,-2.959930e-004
-1.130213e-004,-3.086341e-004
-1.186936e-004,-3.094444e-004
-9.811128e-005,-2.961551e-004
-6.780507e-005,-2.687660e-004
-4.155049e-005,-2.287359e-004
-2.323711e-005,-1.799543e-004
-9.299493e-006,-1.327933e-004
-1.358292e-006,-9.551824e-005
-1.124428e-005,-6.845333e-005
-5.208474e-005,-5.111234e-005
-1.358725e-004,-4.090223e-005
-2.695764e-004,-3.053005e-005
-4.355313e-004,-1.237873e-005
-5.917621e-004,1.112074e-005
-6.880290e-004,3.462021e-005
-7.013183e-004,5.520250e-005
-6.415162e-004,6.832980e-005
-5.319601e-004,7.335383e-005
-3.992286e-004,7.562274e-005
-2.736280e-004,8.064677e-005
-1.757406e-004,9.474644e-005
-1.256624e-004,1.192183e-004
-1.327933e-004,1.488763e-004
-1.943781e-004,1.777239e-004
-3.052308e-004,2.018716e-004
-4.656754e-004,2.180782e-004
-6.747396e-004,2.269918e-004
-9.299924e-004,2.302331e-004
-1.211824e-003,2.315296e-004
-1.477287e-003,2.347709e-004
-1.688620e-003,2.404432e-004
-1.821190e-003,2.470879e-004
-1.872726e-003,2.519498e-004
-1.861058e-003,2.579462e-004
-1.809197e-003,2.684805e-004
-1.736105e-003,2.820940e-004
-1.644538e-003,2.984626e-004
-1.520558e-003,3.145071e-004
-1.330942e-003,3.269861e-004
-1.047328e-003,3.320101e-004
-6.713362e-004,3.295791e-004
-2.429977e-004,3.230965e-004
1.842065e-004,3.141829e-004
5.645740e-004,3.023522e-004
8.618020e-004,2.906835e-004
1.056929e-003,2.775562e-004
1.154816e-003,2.634565e-004
1.175075e-003,2.493568e-004
1.146875e-003,2.373639e-004
1.087397e-003,2.299089e-004
1.006527e-003,2.279642e-004
9.044252e-004,2.333123e-004
7.861174e-004,2.410915e-004
6.567892e-004,2.419018e-004
5.213025e-004,2.350950e-004
3.884089e-004,2.240746e-004
2.634565e-004,2.171058e-004
1.527658e-004,2.151610e-004
6.978839e-005,2.164575e-004
2.992031e-005,2.187264e-004
5.390598e-005,2.245608e-004
1.488763e-004,2.360674e-004
2.971661e-004,2.496809e-004
4.644175e-004,2.605393e-004
6.136798e-004,2.621599e-004
7.235601e-004,2.527602e-004
7.908173e-004,2.261814e-004
8.230684e-004,1.817755e-004
8.357094e-004,1.240803e-004
8.462437e-004,6.314371e-005
8.640709e-004,4.962256e-006
8.864359e-004,-4.608832e-005
8.971323e-004,-8.676672e-005
8.869221e-004,-1.148040e-004
8.535367e-004,-1.327933e-004
8.026481e-004,-1.481895e-004
7.486803e-004,-1.669890e-004
7.073536e-004,-1.856265e-004
6.814231e-004,-1.987538e-004
6.629477e-004,-2.058847e-004
6.462549e-004,-2.096122e-004
6.282657e-004,-2.172293e-004
6.096281e-004,-2.326255e-004
6.012007e-004,-2.527216e-004
6.190279e-004,-2.716832e-004
6.679717e-004,-2.856209e-004
7.396046e-004,-2.921034e-004
8.157754e-004,-2.909690e-004
8.687708e-004,-2.859450e-004
8.869221e-004,-2.840002e-004
8.720121e-004,-2.901587e-004
8.329543e-004,-2.995585e-004
7.841726e-004,-3.092824e-004
7.425218e-004,-3.141443e-004
7.227498e-004,-3.112272e-004
7.232360e-004,-2.998826e-004
7.195085e-004,-2.844864e-004
6.776956e-004,-2.684419e-004
5.746220e-004,-2.519113e-004
4.174185e-004,-2.319772e-004
2.313675e-004,-2.078295e-004
4.466826e-005,-1.822232e-004
-1.311726e-004,-1.569410e-004
-3.016653e-004,-1.327933e-004
-4.771820e-004,-1.078352e-004
-6.671225e-004,-7.931171e-005
-8.891520e-004,-4.932962e-005
-1.153480e-003,-1.740276e-005
-1.452005e-003,1.338965e-005
-1.760739e-003,3.688912e-005
-2.042895e-003,4.855783e-005
-2.246287e-003,5.439218e-005
-2.316624e-003,6.573675e-005
-2.224895e-003,8.437427e-005
-1.985038e-003,1.093323e-004
-1.648428e-003,1.368834e-004
-1.270168e-003,1.634622e-004
-8.927174e-004,1.843686e-004
-5.480045e-004,2.008992e-004
-2.609869e-004,2.138645e-004
-4.689865e-005,2.227781e-004
9.069481e-005,2.281262e-004
1.573037e-004,2.300710e-004
1.681620e-004,2.305572e-004
1.472556e-004,2.331503e-004
1.218114e-004,2.399570e-004
1.080358e-004,2.501671e-004
1.093323e-004,2.623220e-004
1.224596e-004,2.748010e-004
1.417454e-004,2.840388e-004
1.592484e-004,2.889007e-004
1.790204e-004,2.893870e-004
2.091646e-004,2.866318e-004
2.470879e-004,2.814457e-004
2.908455e-004,2.723701e-004
3.425444e-004,2.594049e-004
4.018603e-004,2.425500e-004
4.619866e-004,2.171058e-004
5.101200e-004,1.816135e-004
5.386435e-004,1.409351e-004
5.358884e-004,1.023635e-004
4.965065e-004,6.768154e-005
4.229288e-004,3.672706e-005
3.247172e-004,8.527692e-006
2.167816e-004,-1.724069e-005
1.198666e-004,-4.171256e-005
4.936815e-005,-6.440170e-005
1.031041e-005,-8.384954e-005
-1.286493e-005,-9.762509e-005
-4.155049e-005,-1.042698e-004
-8.222889e-005,-1.036215e-004
-1.302002e-004,-1.008664e-004
-1.809267e-004,-1.042698e-004
-2.235498e-004,-1.136696e-004
-2.468872e-004,-1.237176e-004
-2.460769e-004,-1.355484e-004
-2.175534e-004,-1.528894e-004
-1.679614e-004,-1.741199e-004
-1.065387e-004,-1.917850e-004
-4.203669e-005,-2.024813e-004
1.549650e-005,-2.032917e-004
5.974033e-005,-1.958367e-004
9.215340e-005,-1.814128e-004
1.148425e-004,-1.648822e-004
1.347766e-004,-1.485136e-004
1.592484e-004,-1.340898e-004
1.913374e-004,-1.203142e-004
2.333123e-004,-1.032974e-004
2.895490e-004,-8.433573e-005
3.566440e-004,-6.942573e-005
4.187151e-004,-6.051213e-005
4.480489e-004,-5.548811e-005
4.219564e-004,-4.803310e-005
3.417340e-004,-3.458168e-005
2.281262e-004,-1.707863e-005
1.054428e-004,-3.141010e-006
-1.034161e-006,3.017472e-006
-7.607040e-005,4.313994e-006
-1.133454e-004,5.610517e-006
-1.101041e-004,8.689758e-006
-6.796714e-005,1.031041e-005
4.962256e-006,8.527692e-006
9.182927e-005,4.800190e-006
1.675138e-004,5.286387e-006
2.112714e-004,1.419998e-005
2.146748e-004,3.056858e-005
1.816135e-004,5.163707e-005
1.282940e-004,7.076078e-005
8.064677e-005,8.648112e-005
5.795762e-005,9.960841e-005
5.698522e-005,1.085220e-004
6.314371e-005,1.122495e-004
5.212327e-005,1.114392e-004
-2.492749e-006,1.091703e-004
-1.162626e-004,1.091703e-004
-2.833519e-004,1.151667e-004
-4.697270e-004,1.234320e-004
-6.280648e-004,1.265113e-004
-7.125008e-004,1.206769e-004
-6.980770e-004,1.062531e-004
-5.940311e-004,8.648112e-005
-4.376381e-004,6.541262e-005
-2.747625e-004,4.466826e-005
-1.387897e-004,2.927205e-005
-4.122636e-005,2.068259e-005
2.424803e-005,2.230325e-005
7.384002e-005,3.543054e-005
1.195424e-004,5.682316e-005
1.626518e-004,8.259155e-005
1.978200e-004,1.070634e-004
2.182402e-004,1.294284e-004
2.224539e-004,1.519555e-004
2.146748e-004,1.752929e-004
1.979821e-004,1.976579e-004
1.744826e-004,2.171058e-004
1.475797e-004,2.331503e-004
1.221355e-004,2.454672e-004
9.977047e-005,2.527602e-004
8.502253e-005,2.529222e-004
8.810177e-005,2.451431e-004
1.151667e-004,2.352571e-004
1.616794e-004,2.245608e-004
2.162954e-004,2.101370e-004
2.673460e-004,1.906891e-004
3.021901e-004,1.689724e-004
3.125623e-004,1.475797e-004
3.026763e-004,1.328318e-004
2.806354e-004,1.252147e-004
2.511395e-004,1.232699e-004
2.132162e-004,1.206769e-004
1.631380e-004,1.148425e-004
9.652917e-005,1.091703e-004
1.857574e-005,1.013911e-004
-5.305713e-005,8.405014e-005
-1.079973e-004,5.309566e-005
-1.462447e-004,9.500085e-006
-1.768750e-004,-4.074016e-005
-2.128535e-004,-8.757704e-005
-2.664971e-004,-1.248521e-004
-3.420196e-004,-1.517549e-004
-4.271038e-004,-1.689338e-004
-5.047331e-004,-1.791439e-004
-5.621043e-004,-1.856265e-004
-5.988930e-004,-1.901644e-004
-6.215822e-004,-1.925954e-004
-6.332509e-004,-1.927574e-004
-6.322784e-004,-1.906506e-004
-6.176926e-004,-1.865989e-004
-5.799314e-004,-1.797922e-004
-5.105674e-004,-1.697442e-004
-4.014975e-004,-1.554824e-004
-2.501286e-004,-1.433275e-004
-6.715681e-005,-1.386276e-004
1.315353e-004,-1.417068e-004
3.318480e-004,-1.470550e-004
5.191956e-004,-1.485136e-004
6.851507e-004,-1.467309e-004
8.337647e-004,-1.410586e-004
9.648756e-004,-1.306864e-004
1.069084e-003,-1.135075e-004
1.133586e-003,-8.822530e-005
1.159192e-003,-5.646050e-005
1.149792e-003,-2.323711e-005
1.106845e-003,1.063454e-005
1.025974e-003,3.948217e-005
9.021563e-004,5.957827e-005
7.289083e-004,7.367795e-005
5.000719e-004,8.842590e-005
2.127300e-004,1.080358e-004
-1.258245e-004,1.294284e-004
-4.990608e-004,1.514693e-004
-8.669490e-004,1.770756e-004
-1.171308e-003,2.109473e-004
-1.359790e-003,2.538946e-004
-1.400792e-003,3.042970e-004
-1.296422e-003,3.545372e-004
-1.088816e-003,3.963501e-004
-8.415048e-004,4.229288e-004
-6.120203e-004,4.290873e-004
-4.340726e-004,4.151496e-004
-3.117133e-004,3.845193e-004
-2.288980e-004,3.483787e-004
-1.519170e-004,3.201794e-004
-5.305713e-005,3.046211e-004
6.719535e-005,3.002453e-004
1.929580e-004,2.999212e-004
3.047831e-004,2.974902e-004
3.864641e-004,2.913317e-004
4.290873e-004,2.790148e-004
4.349216e-004,2.613496e-004
4.185530e-004,2.401191e-004
4.013741e-004,2.195368e-004
4.013741e-004,2.012234e-004
4.187151e-004,1.843686e-004
4.404318e-004,1.675138e-004
4.545315e-004,1.477418e-004
4.569625e-004,1.232699e-004
4.486972e-004,9.231547e-005
4.297355e-004,6.055066e-005
4.010500e-004,3.429608e-005
3.644232e-004,1.646890e-005
3.245551e-004,3.665733e-006
2.838767e-004,-1.027188e-005
2.474120e-004,-2.469570e-005
2.195368e-004,-3.782299e-005
2.000889e-004,-4.997789e-005
1.832341e-004,-5.921561e-005
1.607070e-004,-6.553616e-005
1.308870e-004,-7.315322e-005
9.199134e-005,-8.644259e-005
4.855783e-005,-1.026491e-004
1.241726e-005,-1.227452e-004
-5.479652e-007,-1.483515e-004
2.133085e-005,-1.780095e-004
7.659513e-005,-2.100984e-004
1.542244e-004,-2.447804e-004
2.334744e-004,-2.783279e-004
3.017039e-004,-3.029619e-004
3.566440e-004,-3.136581e-004
3.961880e-004,-3.092824e-004
4.273046e-004,-2.929138e-004
4.608521e-004,-2.710350e-004
5.003960e-004,-2.501286e-004
5.375090e-004,-2.378116e-004
5.551741e-004,-2.308428e-004
5.404262e-004,-2.220912e-004
4.812723e-004,-2.099363e-004
3.676645e-004,-1.989159e-004
2.072198e-004,-1.924333e-004
2.505836e-005,-1.968091e-004
-1.350622e-004,-2.091260e-004
-2.415391e-004,-2.212809e-004
-2.904828e-004,-2.266291e-004
-2.993964e-004,-2.246843e-004
-2.919414e-004,-2.173914e-004
-2.898345e-004,-2.058847e-004
-3.060411e-004,-1.950263e-004
-3.345645e-004,-1.896782e-004
-3.661673e-004,-1.908126e-004
-3.919357e-004,-1.968091e-004
-4.016596e-004,-2.039399e-004
-3.977700e-004,-2.041020e-004
-3.940425e-004,-1.883817e-004
-4.000390e-004,-1.520790e-004
-4.157593e-004,-9.973194e-005
-4.316416e-004,-4.479180e-005
-4.355313e-004,3.017472e-006
-4.117076e-004,4.402000e-005
-3.593606e-004,8.631905e-005
-2.899966e-004,1.344524e-004
-2.254946e-004,1.867996e-004
-1.797922e-004,2.407673e-004
-1.481895e-004,2.976523e-004
-1.139937e-004,3.572923e-004
-6.715681e-005,4.166082e-004
-2.978945e-006,4.676588e-004
7.059871e-005,5.007202e-004
1.312112e-004,5.060683e-004
1.550348e-004,4.809482e-004
1.193804e-004,4.271425e-004
1.419998e-005,3.577785e-004
-1.423551e-004,2.940868e-004
-3.099306e-004,2.556773e-004
-4.387725e-004,2.435224e-004
-4.972781e-004,2.525981e-004
-4.755614e-004,2.757735e-004
-3.755671e-004,3.041349e-004
-2.088019e-004,3.326584e-004
-9.137427e-006,3.572923e-004
1.803169e-004,3.744712e-004
3.193690e-004,3.814401e-004
3.874365e-004,3.801436e-004
3.850055e-004,3.738230e-004
3.242310e-004,3.657197e-004
2.169437e-004,3.564820e-004
8.113296e-005,3.396272e-004
-5.581224e-005,3.054314e-004
-1.656925e-004,2.503292e-004
-2.271153e-004,1.783722e-004
-2.462390e-004,1.010670e-004
-2.447804e-004,2.910999e-005
-2.319772e-004,-2.890940e-005
-1.974573e-004,-6.553616e-005
-1.198280e-004,-8.271508e-005
1.468618e-005,-8.919769e-005
1.957132e-004,-9.470791e-005
3.903536e-004,-1.015147e-004
5.567948e-004,-1.079973e-004
6.681338e-004,-1.105903e-004
7.193465e-004,-1.065387e-004
7.198326e-004,-9.827335e-005
6.877437e-004,-8.644259e-005
6.454446e-004,-7.526008e-005
6.112488e-004,-6.602235e-005
5.926113e-004,-5.646050e-005
5.838597e-004,-4.511593e-005
5.684635e-004,-3.539201e-005
5.370228e-004,-3.036798e-005
4.884033e-004,-2.923353e-005
4.213082e-004,-3.377136e-005
3.391410e-004,-4.770897e-005
2.560015e-004,-7.396356e-005
1.799928e-004,-1.143178e-004
1.094944e-004,-1.658546e-004
4.061663e-005,-2.193361e-004
-3.393342e-005,-2.621213e-004
-1.261486e-004,-2.882139e-004
-2.457528e-004,-2.974516e-004
-3.893426e-004,-2.934000e-004
-5.441150e-004,-2.771934e-004
-6.946736e-004,-2.546664e-004
-8.257844e-004,-2.331117e-004
-9.239960e-004,-2.160948e-004
-9.752086e-004,-2.023193e-004
-9.703467e-004,-1.951884e-004
-9.090860e-004,-1.947022e-004
-8.056884e-004,-2.005366e-004
-6.847876e-004,-2.089640e-004
-5.702075e-004,-2.159328e-004
-4.752372e-004,-2.154466e-004
-4.040906e-004,-2.024813e-004
-3.527159e-004,-1.788198e-004
-3.086341e-004,-1.477033e-004
-2.596904e-004,-1.128592e-004
-1.955125e-004,-7.769106e-005
-1.101041e-004,-4.689865e-005
-1.205460e-005,-1.983374e-005
8.793970e-005,7.555301e-006
1.812893e-004,3.543054e-005
2.628082e-004,5.795762e-005
3.305515e-004,7.319176e-005
3.884089e-004,8.032264e-005
4.373526e-004,8.113296e-005
4.705760e-004,8.793970e-005
4.809482e-004,1.114392e-004
4.668485e-004,1.498487e-004
4.337872e-004,1.919856e-004
3.966742e-004,2.271538e-004
3.662059e-004,2.488706e-004
3.454615e-004,2.564877e-004
3.323342e-004,2.551911e-004
3.198552e-004,2.516257e-004
3.059176e-004,2.477361e-004
2.960316e-004,2.419018e-004
2.936006e-004,2.355812e-004
3.062417e-004,2.325020e-004
3.443271e-004,2.308813e-004
4.167703e-004,2.274780e-004
5.190336e-004,2.218057e-004
6.368551e-004,2.174299e-004
7.537043e-004,2.180782e-004
8.605054e-004,2.252090e-004
9.585551e-004,2.336365e-004
1.046233e-003,2.386605e-004
1.112031e-003,2.341226e-004
1.134558e-003,2.192126e-004
1.093556e-003,1.978200e-004
9.885372e-004,1.731861e-004
8.394370e-004,1.436902e-004
6.755888e-004,1.098185e-004
5.131993e-004,7.837785e-005
3.491891e-004,5.358185e-005
1.668655e-004,3.802358e-005
-4.462973e-005,3.121684e-005
-2.686040e-004,3.283749e-005
-4.661616e-004,3.543054e-005
-5.888450e-004,3.105477e-005
-6.105618e-004,1.403791e-005
-5.429805e-004,-1.643037e-005
-4.308313e-004,-5.257093e-005
-3.376438e-004,-8.368748e-005
-3.125237e-004,-1.007043e-004
-3.700569e-004,-1.075111e-004
-4.938748e-004,-1.126972e-004
-6.564262e-004,-1.177212e-004
-8.470150e-004,-1.237176e-004
-1.065317e-003,-1.313347e-004
-1.287671e-003,-1.374932e-004
-1.469994e-003,-1.383035e-004
-1.575498e-003,-1.342519e-004
-1.603374e-003,-1.255003e-004
-1.585385e-003,-1.149661e-004
-1.557185e-003,-1.070249e-004
-1.531903e-003,-1.024871e-004
-1.502893e-003,-9.697683e-005
-1.464484e-003,-8.709085e-005
-1.416999e-003,-7.509801e-005
-1.368055e-003,-6.440170e-005
-1.321866e-003,-5.953974e-005
-1.270978e-003,-6.245691e-005
-1.185245e-003,-7.493595e-005
-1.019615e-003,-9.292520e-005
-7.507482e-004,-1.107524e-004
-3.985804e-004,-1.170729e-004
-1.902341e-005,-1.092938e-004
3.247172e-004,-9.000802e-005
5.875872e-004,-6.423963e-005
7.530560e-004,-3.522994e-005
8.306854e-004,-8.651231e-006
8.494850e-004,8.689758e-006
8.433265e-004,1.776542e-005
8.355473e-004,2.278944e-005
8.340888e-004,2.813760e-005
8.425161e-004,3.672706e-005
8.588848e-004,4.612685e-005
8.867600e-004,5.876794e-005
9.263040e-004,7.805372e-005
9.728169e-004,1.033359e-004
1.013819e-003,1.287802e-004
1.030998e-003,1.448246e-004
1.014143e-003,1.483901e-004
9.677928e-004,1.453108e-004
9.000494e-004,1.482280e-004
8.254994e-004,1.654069e-004
7.559733e-004,1.958752e-004
7.000606e-004,2.320158e-004
6.566271e-004,2.658874e-004
6.224313e-004,2.966799e-004
6.007145e-004,3.218000e-004
5.937457e-004,3.367100e-004
6.016869e-004,3.405996e-004
6.227554e-004,3.383307e-004
6.498204e-004,3.346032e-004
6.720233e-004,3.277964e-004
6.794783e-004,3.130485e-004
6.634339e-004,2.856594e-004
6.263209e-004,2.514636e-004
5.783495e-004,2.211574e-004
5.305402e-004,2.046267e-004
4.898618e-004,2.070577e-004
4.600418e-004,2.226160e-004
4.371906e-004,2.402811e-004
4.143393e-004,2.517878e-004
3.814401e-004,2.504913e-004
3.349273e-004,2.370398e-004
2.861456e-004,2.192126e-004
2.431983e-004,2.059233e-004
2.111094e-004,2.008992e-004
1.885823e-004,2.020337e-004
1.668655e-004,2.039785e-004
1.410971e-004,1.963614e-004
1.192183e-004,1.765894e-004
1.114392e-004,1.472556e-004
1.197045e-004,1.120874e-004
1.419075e-004,7.789165e-005
1.735102e-004,5.228533e-005
2.075439e-004,3.462021e-005
2.427121e-004,2.003433e-005
2.811216e-004,9.106227e-007
3.193690e-004,-1.999580e-005
3.508097e-004,-3.571614e-005
3.684748e-004,-4.155049e-005
3.666921e-004,-4.203669e-005
3.409237e-004,-4.722278e-005
2.811216e-004,-5.824322e-005
1.631380e-004,-7.331530e-005
-3.263690e-005,-8.935975e-005
-2.997205e-004,-1.045939e-004
-5.992171e-004,-1.201522e-004
-8.740799e-004,-1.402483e-004
-1.091085e-003,-1.660166e-004
-1.252664e-003,-1.916230e-004
-1.374051e-003,-2.075054e-004
-1.455408e-003,-2.133397e-004
-1.483607e-003,-2.079916e-004
-1.445522e-003,-1.937298e-004
-1.344555e-003,-1.784957e-004
-1.202586e-003,-1.703924e-004
-1.044573e-003,-1.720131e-004
-8.920691e-004,-1.810887e-004
-7.585274e-004,-1.927574e-004
-6.457299e-004,-1.979435e-004
-5.390910e-004,-1.914609e-004
-4.251591e-004,-1.762268e-004
-3.049066e-004,-1.577513e-004
-1.874093e-004,-1.473791e-004
-7.882551e-005,-1.496481e-004
1.501031e-005,-1.614788e-004
8.712937e-005,-1.806025e-004
1.336421e-004,-2.032917e-004
1.532520e-004,-2.201465e-004
1.514693e-004,-2.279256e-004
1.388282e-004,-2.229016e-004
1.218114e-004,-2.084778e-004
9.896015e-005,-1.885437e-004
7.302970e-005,-1.669890e-004
5.341979e-005,-1.481895e-004
4.904402e-005,-1.298761e-004
5.828175e-005,-1.126972e-004
7.092284e-005,-9.551824e-005
8.226741e-005,-7.590833e-005
9.037068e-005,-5.305713e-005
9.215340e-005,-2.809907e-005
8.599492e-005,7.485573e-007
7.319176e-005,3.397195e-005
6.119892e-005,7.043665e-005
5.876794e-005,1.036600e-004
7.772959e-005,1.263492e-004
1.284560e-004,1.352628e-004
2.153231e-004,1.367214e-004
3.279585e-004,1.410971e-004
4.462662e-004,1.535762e-004
5.529052e-004,1.712413e-004
6.376655e-004,1.879340e-004
7.008709e-004,1.992786e-004
7.392805e-004,2.073819e-004
7.438183e-004,2.111094e-004
7.092984e-004,2.128921e-004
6.386379e-004,2.138645e-004
5.381573e-004,2.162954e-004
4.141773e-004,2.201850e-004
2.675081e-004,2.243987e-004
9.555677e-005,2.268297e-004
-1.122110e-004,2.239125e-004
-3.583881e-004,2.175920e-004
-6.219063e-004,2.109473e-004
-8.633836e-004,2.025199e-004
-1.037118e-003,1.908512e-004
-1.108102e-003,1.772377e-004
-1.059483e-003,1.594105e-004
-9.042240e-004,1.346145e-004
-6.828429e-004,1.072255e-004
-4.488206e-004,8.275361e-005
-2.426735e-004,6.589881e-005
-8.611845e-005,5.244739e-005
2.052053e-005,3.769945e-005
8.631905e-005,1.906194e-005
1.338042e-004,-4.599598e-006
1.837203e-004,-3.004385e-005
2.448189e-004,-4.932962e-005
3.162898e-004,-5.791909e-005
3.900295e-004,-5.727083e-005
4.579349e-004,-5.370539e-005
5.059062e-004,-5.791909e-005
5.277851e-004,-7.493595e-005
5.268127e-004,-1.020008e-004
5.106062e-004,-1.321450e-004
4.884033e-004,-1.579134e-004
4.741415e-004,-1.733096e-004
4.798138e-004,-1.794681e-004
4.997478e-004,-1.828714e-004
5.131993e-004,-1.857886e-004
5.049339e-004,-1.870851e-004
4.798138e-004,-1.810887e-004
4.521006e-004,-1.634236e-004
4.334631e-004,-1.392759e-004
4.271425e-004,-1.144799e-004
4.264942e-004,-9.195280e-005
4.193634e-004,-7.509801e-005
4.020224e-004,-6.132246e-005
3.712299e-004,-4.868137e-005
3.221241e-004,-4.041603e-005
2.495189e-004,-3.441962e-005
1.577899e-004,-2.615429e-005
5.212327e-005,-1.108221e-005
-6.245691e-005,1.663096e-005
-1.833576e-004,5.698522e-005
-3.086341e-004,1.062531e-004
-4.379622e-004,1.581140e-004
-5.659938e-004,2.021958e-004
-6.898117e-004,2.271538e-004
-8.102262e-004,2.269918e-004
-9.209168e-004,2.062474e-004
-1.006487e-003,1.770756e-004
-1.031445e-003,1.501728e-004
-9.628917e-004,1.370455e-004
-8.017988e-004,1.409351e-004
-5.823624e-004,1.569795e-004
-3.520676e-004,1.731861e-004
-1.517549e-004,1.845306e-004
-4.437533e-006,1.879340e-004
9.685330e-005,1.835583e-004
1.676758e-004,1.751309e-004
2.219677e-004,1.662173e-004
2.715597e-004,1.620036e-004
3.252034e-004,1.649207e-004
3.791712e-004,1.718896e-004
4.213082e-004,1.803169e-004
4.405939e-004,1.882582e-004
4.339493e-004,1.940925e-004
4.133669e-004,1.999268e-004
3.960259e-004,2.038164e-004
3.986190e-004,2.051129e-004
4.347596e-004,2.051129e-004
5.016926e-004,2.043026e-004
5.853184e-004,2.008992e-004
6.686199e-004,1.981441e-004
7.370116e-004,1.981441e-004
7.846588e-004,1.973338e-004
8.136685e-004,1.906891e-004
8.306854e-004,1.764274e-004
8.318199e-004,1.587623e-004
8.097790e-004,1.427178e-004
7.512733e-004,1.334801e-004
6.451205e-004,1.302388e-004
4.884033e-004,1.265113e-004
2.798251e-004,1.169494e-004
3.494434e-005,9.944634e-005
-2.084778e-004,7.772959e-005
-4.151110e-004,5.536457e-005
-5.731247e-004,3.283749e-005
-6.949978e-004,8.203562e-006
-8.212466e-004,-1.837515e-005
-9.906049e-004,-4.592625e-005
-1.218144e-003,-7.169464e-005
-1.486687e-003,-9.389759e-005
-1.754419e-003,-1.146419e-004
-1.960242e-003,-1.339277e-004
-2.048406e-003,-1.498101e-004
-1.982607e-003,-1.621271e-004
-1.764791e-003,-1.705545e-004
-1.432233e-003,-1.742820e-004
-1.037928e-003,-1.757406e-004
-6.266062e-004,-1.801163e-004
-2.391081e-004,-1.904885e-004
8.875003e-005,-2.104225e-004
3.320101e-004,-2.357047e-004
4.765725e-004,-2.572594e-004
5.264886e-004,-2.674695e-004
5.041235e-004,-2.655248e-004
4.430249e-004,-2.592042e-004
3.799815e-004,-2.549905e-004
3.358997e-004,-2.523975e-004
3.166139e-004,-2.489941e-004
3.167760e-004,-2.433218e-004
3.373583e-004,-2.319772e-004
3.845193e-004,-2.113949e-004
4.608521e-004,-1.818991e-004
5.563086e-004,-1.451102e-004
6.571133e-004,-1.060525e-004
7.420356e-004,-6.715681e-005
7.891966e-004,-3.101625e-005
7.882243e-004,3.341602e-006
7.470596e-004,3.462021e-005
6.866092e-004,6.087479e-005
6.258347e-004,7.789165e-005
5.720290e-004,8.032264e-005
5.285954e-004,6.768154e-005
4.950479e-004,4.790957e-005
4.637693e-004,3.154097e-005
4.224426e-004,2.278944e-005
3.621543e-004,2.343770e-005
2.887387e-004,3.283749e-005
2.146748e-004,5.034055e-005
1.532520e-004,7.108491e-005
1.175977e-004,9.150514e-005
1.120874e-004,1.101427e-004
1.297526e-004,1.245665e-004
1.542244e-004,1.378558e-004
1.704310e-004,1.513072e-004
1.680000e-004,1.637863e-004
1.438522e-004,1.744826e-004
1.051186e-004,1.859892e-004
6.816773e-005,2.028440e-004
5.293359e-005,2.245608e-004
6.508849e-005,2.487085e-004
9.652917e-005,2.731804e-004
1.351007e-004,2.989488e-004
1.667035e-004,3.229345e-004
1.842065e-004,3.393030e-004
1.898788e-004,3.431926e-004
1.879340e-004,3.375204e-004
1.790204e-004,3.287688e-004
1.602208e-004,3.260137e-004
1.273216e-004,3.341170e-004
8.242948e-005,3.467581e-004
3.607880e-005,3.546993e-004
-4.275467e-006,3.487029e-004
-3.458168e-005,3.230965e-004
-5.646050e-005,2.820940e-004
-7.039812e-005,2.328261e-004
-7.720486e-005,1.835583e-004
-8.012204e-005,1.428799e-004
-8.773911e-005,1.135460e-004
-1.089697e-004,9.507057e-005
-1.486757e-004,8.858796e-005
-2.071812e-004,9.361199e-005
-2.715212e-004,1.081979e-004
-3.225718e-004,1.281319e-004
-3.347266e-004,1.456350e-004
-2.916173e-004,1.548727e-004
-1.912988e-004,1.524417e-004
-6.018800e-005,1.373696e-004
6.460230e-005,1.128978e-004
1.584381e-004,8.307774e-005
2.258573e-004,5.471631e-005
2.824181e-004,3.299956e-005
3.352514e-004,1.792748e-005
3.799815e-004,5.610517e-006
4.073705e-004,-1.108221e-005
4.057499e-004,-3.409549e-005
3.738230e-004,-6.035007e-005
3.266619e-004,-8.514606e-005
2.905214e-004,-1.073490e-004
2.867939e-004,-1.276072e-004
3.266619e-004,-1.444620e-004
4.083429e-004,-1.609926e-004
5.203301e-004,-1.789819e-004
6.337758e-004,-2.006986e-004
7.182120e-004,-2.241981e-004
7.553250e-004,-2.447804e-004
7.465734e-004,-2.583939e-004
7.016813e-004,-2.613110e-004
6.253485e-004,-2.582318e-004
5.094717e-004,-2.538560e-004
3.418961e-004,-2.512630e-004
1.163011e-004,-2.525595e-004
-1.554824e-004,-2.593663e-004
-4.543308e-004,-2.697385e-004
-7.616066e-004,-2.802727e-004
-1.075041e-003,-2.841623e-004
-1.411650e-003,-2.776796e-004
-1.786184e-003,-2.626076e-004
-2.164120e-003,-2.464010e-004
-2.461997e-003,-2.340841e-004
-2.592946e-003,-2.229016e-004
-2.509320e-003,-2.083157e-004
-2.224084e-003,-1.890299e-004
-1.802552e-003,-1.630995e-004
-1.330456e-003,-1.313347e-004
-8.821832e-004,-9.940781e-005
-5.001953e-004,-7.007399e-005
-2.032917e-004,-4.284701e-005
1.517237e-005,-2.177852e-005
1.765894e-004,-1.358292e-006
3.004074e-004,2.635488e-005
3.987811e-004,6.006447e-005
4.773828e-004,8.696731e-005
5.310264e-004,9.798775e-005
5.572810e-004,9.215340e-005
5.611706e-004,7.789165e-005
5.558224e-004,6.476436e-005
5.477191e-004,5.811968e-005
5.375090e-004,6.379197e-005
5.248679e-004,8.307774e-005
5.101200e-004,1.077117e-004
4.969927e-004,1.316974e-004
4.887274e-004,1.514693e-004
4.872688e-004,1.649207e-004
4.872688e-004,1.735102e-004
4.825689e-004,1.791825e-004
4.694416e-004,1.858272e-004
4.521006e-004,1.947408e-004
4.415663e-004,2.043026e-004
4.365423e-004,2.143507e-004
4.310321e-004,2.224539e-004
4.203358e-004,2.279642e-004
4.020224e-004,2.299089e-004
3.754436e-004,2.305572e-004
3.404375e-004,2.289366e-004
2.970040e-004,2.247229e-004
2.474120e-004,2.171058e-004
1.952270e-004,2.088404e-004
1.511452e-004,2.018716e-004
1.235941e-004,1.955511e-004
1.187321e-004,1.910133e-004
1.334801e-004,1.880961e-004
1.649207e-004,1.900409e-004
2.127300e-004,1.981441e-004
2.735045e-004,2.093267e-004
3.344411e-004,2.208333e-004
3.798194e-004,2.294227e-004
4.016982e-004,2.350950e-004
3.994293e-004,2.397949e-004
3.812780e-004,2.419018e-004
3.605336e-004,2.339606e-004
3.430306e-004,2.106232e-004
3.339549e-004,1.676758e-004
3.363859e-004,1.098185e-004
3.506476e-004,4.839576e-005
3.636129e-004,-3.303076e-006
3.608578e-004,-4.333321e-005
3.358997e-004,-7.412562e-005
2.916559e-004,-9.924574e-005
2.399570e-004,-1.195039e-004
1.949028e-004,-1.355484e-004
1.595726e-004,-1.485136e-004
1.355869e-004,-1.556445e-004
1.203528e-004,-1.530514e-004
1.153287e-004,-1.366828e-004
1.247285e-004,-1.063766e-004
1.425557e-004,-6.796714e-005
1.560072e-004,-2.680255e-005
1.509831e-004,9.662150e-006
1.201907e-004,3.137890e-005
5.649903e-005,3.089271e-005
-3.944364e-005,1.225520e-005
-1.634236e-004,-1.788895e-005
-3.016653e-004,-5.176061e-005
-4.361795e-004,-7.882551e-005
-5.478425e-004,-9.114248e-005
-6.264441e-004,-8.919769e-005
-6.711741e-004,-8.012204e-005
-6.839773e-004,-7.412562e-005
-6.598296e-004,-7.558420e-005
-5.823624e-004,-8.530812e-005
-4.399070e-004,-1.013526e-004
-2.408908e-004,-1.204763e-004
-1.302700e-005,-1.420310e-004
2.025199e-004,-1.630995e-004
3.704196e-004,-1.778474e-004
4.700898e-004,-1.793060e-004
4.982892e-004,-1.669890e-004
4.710622e-004,-1.449482e-004
4.112601e-004,-1.203142e-004
3.326584e-004,-9.665270e-005
2.347709e-004,-7.590833e-005
1.148425e-004,-5.694670e-005
-2.534396e-005,-4.025397e-005
-1.853024e-004,-2.647842e-005
-3.585502e-004,-1.416145e-005
-5.389289e-004,-3.858999e-007
-7.146077e-004,1.776542e-005
-8.664628e-004,4.337174e-005
-9.659709e-004,7.529860e-005
-9.865533e-004,1.101427e-004
-9.230236e-004,1.443384e-004
-7.889956e-004,1.722137e-004
-6.142893e-004,1.903650e-004
-4.374760e-004,1.971717e-004
-2.864312e-004,1.940925e-004
-1.707166e-004,1.863134e-004
-8.676672e-005,1.804790e-004
-1.578211e-005,1.842065e-004
6.444023e-005,1.983062e-004
1.660552e-004,2.143507e-004
3.002453e-004,2.234263e-004
4.642555e-004,2.226160e-004
6.305345e-004,2.180782e-004
7.554871e-004,2.158093e-004
8.034584e-004,2.188885e-004
7.653730e-004,2.239125e-004
6.574374e-004,2.281262e-004
5.057442e-004,2.276400e-004
3.324963e-004,2.203471e-004
1.470936e-004,2.086784e-004
-4.819517e-005,1.942546e-004
-2.523975e-004,1.806411e-004
-4.653512e-004,1.718896e-004
-6.915944e-004,1.668655e-004
-9.342061e-004,1.584381e-004
-1.182652e-003,1.399627e-004
-1.403547e-003,1.132219e-004
-1.537251e-003,8.599492e-005
-1.526393e-003,6.362991e-005
-1.344718e-003,4.969229e-005
-1.023990e-003,4.402000e-005
-6.395715e-004,4.142696e-005
-2.606628e-004,3.591673e-005
7.108491e-005,2.878586e-005
3.315239e-004,2.311357e-005
5.122268e-004,2.359977e-005
6.177314e-004,3.251336e-005
6.631098e-004,4.369587e-005
6.786680e-004,4.742337e-005
6.926056e-004,3.850978e-005
7.170775e-004,1.338965e-005
7.457631e-004,-2.291298e-005
7.666696e-004,-5.970181e-005
7.712074e-004,-8.222889e-005
7.605111e-004,-8.336335e-005
7.376599e-004,-6.504996e-005
7.036261e-004,-4.057810e-005
6.626236e-004,-2.501983e-005
6.195141e-004,-2.599222e-005
5.822391e-004,-4.300908e-005
5.488536e-004,-7.299116e-005
5.117406e-004,-1.118868e-004
4.673347e-004,-1.522411e-004
4.217943e-004,-1.853024e-004
3.819262e-004,-2.041020e-004
3.602095e-004,-2.050744e-004
3.689610e-004,-1.943781e-004
4.117463e-004,-1.780095e-004
4.663623e-004,-1.652063e-004
4.978030e-004,-1.624512e-004
4.788414e-004,-1.705545e-004
4.036430e-004,-1.843300e-004
2.880904e-004,-2.016710e-004
1.584381e-004,-2.206326e-004
4.304761e-005,-2.365151e-004
-4.171256e-005,-2.389460e-004
-8.676672e-005,-2.222533e-004
-9.114248e-005,-1.922712e-004
-5.824322e-005,-1.632615e-004
1.072688e-006,-1.465688e-004
6.816773e-005,-1.434896e-004
1.334801e-004,-1.483515e-004
2.020337e-004,-1.577513e-004
2.944109e-004,-1.716889e-004
4.329769e-004,-1.865989e-004
6.259967e-004,-1.995642e-004
8.558056e-004,-2.066950e-004
1.085776e-003,-2.024813e-004
1.279283e-003,-1.854645e-004
1.414446e-003,-1.572651e-004
1.485106e-003,-1.217728e-004
1.488348e-003,-8.271508e-005
1.427897e-003,-4.187462e-005
1.311534e-003,5.864920e-007
1.140717e-003,4.726130e-005
9.113940e-004,9.928428e-005
6.261588e-004,1.537382e-004
2.885766e-004,2.114335e-004
-9.908367e-005,2.702632e-004
-5.115399e-004,3.260137e-004
-9.053585e-004,3.752816e-004
-1.232730e-003,4.192013e-004
-1.468049e-003,4.555039e-004
-1.625901e-003,4.794896e-004
-1.738536e-003,4.866205e-004
-1.843393e-003,4.773828e-004
-1.958459e-003,4.589073e-004
-2.084546e-003,4.326527e-004
-2.207878e-003,3.981328e-004
-2.312086e-003,3.595612e-004
-2.392795e-003,3.245551e-004
-2.444980e-003,2.974902e-004
-2.442873e-003,2.780424e-004
-2.343527e-003,2.636185e-004
-2.109666e-003,2.483844e-004
-1.742750e-003,2.308813e-004
-1.294964e-003,2.099749e-004
-8.439358e-004,1.853410e-004
-4.582204e-004,1.564933e-004
-1.707166e-004,1.271595e-004
1.922400e-005,9.993253e-005
1.352628e-004,7.805372e-005
2.015475e-004,6.557468e-005
2.427121e-004,5.990240e-005
2.820940e-004,5.455425e-005
3.415720e-004,4.564065e-005
4.273046e-004,3.283749e-005
5.365367e-004,1.403791e-005
6.590580e-004,-1.335113e-005
7.770417e-004,-4.738484e-005
8.716880e-004,-8.595638e-005
9.376486e-004,-1.180453e-004
9.776788e-004,-1.361966e-004
9.914545e-004,-1.361966e-004
9.833511e-004,-1.243659e-004
9.627688e-004,-1.042698e-004
9.379727e-004,-7.704279e-005
9.182008e-004,-4.187462e-005
9.034528e-004,1.072688e-006
8.801154e-004,5.082674e-005
8.391128e-004,1.039842e-004
7.820658e-004,1.539003e-004
7.138362e-004,1.966855e-004
6.444722e-004,2.287745e-004
5.862907e-004,2.530843e-004
5.438296e-004,2.701012e-004
5.206542e-004,2.762596e-004
5.133613e-004,2.696149e-004
5.131993e-004,2.464396e-004
5.144958e-004,2.028440e-004
5.136854e-004,1.375317e-004
5.049339e-004,5.196120e-005
4.739794e-004,-4.430560e-005
4.080188e-004,-1.400862e-004
3.054314e-004,-2.224154e-004
1.816135e-004,-2.754107e-004
6.508849e-005,-2.925897e-004
-2.113026e-005,-2.788141e-004
-6.731888e-005,-2.441321e-004
-8.384954e-005,-2.023193e-004
-9.000802e-005,-1.650443e-004
-9.616651e-005,-1.413827e-004
-9.730096e-005,-1.318209e-004
-8.060823e-005,-1.271210e-004
-3.717473e-005,-1.209625e-004
3.932010e-005,-1.097800e-004
1.425557e-004,-9.503204e-005
2.582704e-004,-7.720486e-005
3.752816e-004,-5.451572e-005
4.871067e-004,-2.356124e-005
5.905044e-004,1.274139e-005
6.783439e-004,4.839576e-005
7.436562e-004,7.578480e-005
7.797969e-004,9.361199e-005
7.780141e-004,1.010670e-004
7.352289e-004,1.041462e-004
6.559788e-004,1.052807e-004
5.574431e-004,1.043083e-004
4.529109e-004,1.020394e-004
3.440029e-004,9.944634e-005
2.247229e-004,9.798775e-005
9.523264e-005,1.000946e-004
-4.268495e-005,1.046324e-004
-1.857886e-004,1.096565e-004
-3.297026e-004,1.163011e-004
-4.664857e-004,1.253768e-004
-5.854416e-004,1.412592e-004
-6.794395e-004,1.667035e-004
-7.551240e-004,1.971717e-004
-8.303223e-004,2.276400e-004
-9.335579e-004,2.509774e-004
-1.080065e-003,2.649151e-004
-1.262550e-003,2.715597e-004
-1.450384e-003,2.731804e-004
-1.603374e-003,2.650771e-004
-1.681651e-003,2.414156e-004
-1.662852e-003,2.002510e-004
-1.547623e-003,1.467694e-004
-1.348931e-003,8.842590e-005
-1.082820e-003,3.380988e-005
-7.747339e-004,-9.785688e-006
-4.608134e-004,-4.284701e-005
-1.752544e-004,-6.748094e-005
5.617490e-005,-8.628052e-005
2.192126e-004,-9.794922e-005
3.177483e-004,-1.049180e-004
3.681507e-004,-1.078352e-004
3.944053e-004,-1.135075e-004
4.135290e-004,-1.242038e-004
4.324906e-004,-1.376552e-004
4.503179e-004,-1.512687e-004
4.662003e-004,-1.650443e-004
4.733311e-004,-1.797922e-004
4.640934e-004,-1.995642e-004
4.388112e-004,-2.227395e-004
4.039671e-004,-2.441321e-004
3.679886e-004,-2.600145e-004
3.423823e-004,-2.669833e-004
3.277964e-004,-2.632558e-004
3.240689e-004,-2.496423e-004
3.310377e-004,-2.284118e-004
3.457857e-004,-2.045882e-004
3.652335e-004,-1.840059e-004
3.785229e-004,-1.694200e-004
3.752816e-004,-1.613168e-004
3.524304e-004,-1.566169e-004
3.183966e-004,-1.517549e-004
2.926282e-004,-1.441378e-004
2.871180e-004,-1.297140e-004
2.945730e-004,-1.122110e-004
2.927903e-004,-9.973194e-005
2.723701e-004,-9.535618e-005
2.397949e-004,-8.919769e-005
2.086784e-004,-7.623246e-005
1.853410e-004,-5.565017e-005
1.688103e-004,-3.069211e-005
1.555210e-004,-4.437533e-006
1.472556e-004,1.776542e-005
1.436902e-004,3.640293e-005
1.440143e-004,5.471631e-005
1.483901e-004,7.756752e-005
1.535762e-004,1.104668e-004
1.534141e-004,1.511452e-004
1.394765e-004,1.952270e-004
1.059290e-004,2.370398e-004
5.520250e-005,2.725321e-004
1.720949e-006,2.957075e-004
-3.636440e-005,2.971661e-004
-5.775702e-005,2.707494e-004
-6.942573e-005,2.265056e-004
-7.380149e-005,1.833962e-004
-7.169464e-005,1.555210e-004
-6.456377e-005,1.467694e-004
-5.062615e-005,1.560072e-004
-3.312309e-005,1.759412e-004
-1.205460e-005,1.978200e-004
1.257933e-005,2.149989e-004
3.607880e-005,2.242366e-004
5.406805e-005,2.221298e-004
6.055066e-005,2.114335e-004
4.693717e-005,1.939304e-004
1.144487e-005,1.765894e-004
-3.620233e-005,1.652449e-004
-8.255302e-005,1.610312e-004
-1.151281e-004,1.642725e-004
-1.242038e-004,1.739964e-004
-1.088076e-004,1.869616e-004
-7.639453e-005,2.002510e-004
-4.171256e-005,2.109473e-004
-1.254080e-005,2.154851e-004
9.500085e-006,2.117576e-004
2.295151e-005,2.034923e-004
2.781346e-005,1.953890e-004
2.262738e-005,1.872858e-004
1.176900e-005,1.796687e-004
4.244267e-007,1.694586e-004
-6.868513e-006,1.547106e-004
-6.868513e-006,1.307250e-004
7.485573e-007,9.814982e-005
1.290346e-005,6.492643e-005
2.197911e-005,3.996837e-005
2.765140e-005,2.554455e-005
3.494434e-005,1.906194e-005
4.483033e-005,1.501031e-005
5.633696e-005,9.824215e-006
6.881599e-005,7.485573e-007
8.145709e-005,-7.840905e-006
9.296373e-005,-1.270286e-005
1.010670e-004,-1.756482e-005
1.051186e-004,-2.761287e-005
1.073875e-004,-4.997789e-005
1.114392e-004,-8.514606e-005
1.111150e-004,-1.276072e-004
1.009049e-004,-1.677994e-004
8.226741e-005,-1.992400e-004
7.027458e-005,-2.216050e-004
7.367795e-005,-2.342462e-004
8.793970e-005,-2.404046e-004
9.993253e-005,-2.454286e-004
1.052807e-004,-2.514251e-004
1.150046e-004,-2.595283e-004
1.404489e-004,-2.724935e-004
1.832341e-004,-2.880518e-004
2.404432e-004,-2.992343e-004
3.122381e-004,-3.018274e-004
3.958639e-004,-2.911311e-004
4.882411e-004,-2.637420e-004
5.832114e-004,-2.204706e-004
6.699165e-004,-1.676373e-004
7.310151e-004,-1.122110e-004
7.498147e-004,-6.213279e-005
7.198326e-004,-1.805102e-005
6.433378e-004,1.873781e-005
5.130371e-004,5.001642e-005
3.248792e-004,7.756752e-005
8.372601e-005,9.896015e-005
-2.028055e-004,1.106288e-004
-5.147812e-004,1.141943e-004
-8.293499e-004,1.128978e-004
-1.118799e-003,1.104668e-004
-1.352983e-003,1.104668e-004
-1.508242e-003,1.122495e-004
-1.581333e-003,1.122495e-004
-1.592515e-003,1.125736e-004
-1.575174e-003,1.182459e-004
-1.553620e-003,1.286181e-004
-1.537413e-003,1.389903e-004
-1.534982e-003,1.475797e-004
-1.556375e-003,1.556830e-004
-1.595595e-003,1.668655e-004
-1.619904e-003,1.833962e-004
-1.586519e-003,2.055991e-004
-1.462701e-003,2.294227e-004
-1.225275e-003,2.532463e-004
-8.752144e-004,2.783665e-004
-4.522240e-004,3.047831e-004
-2.372331e-005,3.297412e-004
3.397893e-004,3.480546e-004
5.961767e-004,3.571303e-004
7.475458e-004,3.540510e-004
8.191788e-004,3.404375e-004
8.430023e-004,3.229345e-004
8.491609e-004,3.046211e-004
8.561297e-004,2.846870e-004
8.655295e-004,2.568118e-004
8.724983e-004,2.219677e-004
8.677984e-004,1.877720e-004
8.394370e-004,1.594105e-004
7.921138e-004,1.435281e-004
7.389564e-004,1.393144e-004
6.929298e-004,1.456350e-004
6.621373e-004,1.556830e-004
6.490100e-004,1.608691e-004
6.516031e-004,1.561692e-004
6.644063e-004,1.432040e-004
6.778577e-004,1.237561e-004
6.838542e-004,9.960841e-005
6.684579e-004,7.853991e-005
6.141660e-004,5.909208e-005
5.206542e-004,3.818565e-005
4.157979e-004,1.614476e-005
3.341170e-004,-8.489166e-006
2.992729e-004,-3.377136e-005
3.093210e-004,-5.791909e-005
3.443271e-004,-7.882551e-005
3.822504e-004,-9.243900e-005
4.119083e-004,-9.794922e-005
4.328148e-004,-9.827335e-005
4.498317e-004,-1.029732e-004
4.687933e-004,-1.203142e-004
4.845136e-004,-1.502963e-004
4.837033e-004,-1.856265e-004
4.572867e-004,-2.201465e-004
4.085050e-004,-2.491561e-004
3.482167e-004,-2.687660e-004
2.884145e-004,-2.786520e-004
2.406053e-004,-2.833519e-004
2.164575e-004,-2.825416e-004
2.213195e-004,-2.763831e-004
2.491947e-004,-2.694143e-004
2.867939e-004,-2.648765e-004
3.133726e-004,-2.606628e-004
3.182346e-004,-2.527216e-004
2.994350e-004,-2.402425e-004
2.665357e-004,-2.266291e-004
2.284504e-004,-2.188499e-004
1.867996e-004,-2.162569e-004
1.436902e-004,-2.177155e-004
1.004187e-004,-2.194982e-004
6.703327e-005,-2.167431e-004
5.374392e-005,-2.034537e-004
6.687121e-005,-1.862748e-004
9.685330e-005,-1.707166e-004
1.295905e-004,-1.575893e-004
1.487142e-004,-1.442999e-004
1.504969e-004,-1.240417e-004
1.487142e-004,-9.503204e-005
1.652449e-004,-5.986387e-005
2.179161e-004,-2.226472e-005
3.042970e-004,1.533444e-005
4.078567e-004,5.115087e-005
5.156302e-004,8.080883e-005
6.130316e-004,1.056048e-004
6.804507e-004,1.282940e-004
6.974676e-004,1.501728e-004
6.580857e-004,1.684862e-004
5.764047e-004,1.809652e-004
4.845136e-004,1.871237e-004
4.182289e-004,1.884202e-004
3.884089e-004,1.889064e-004
3.783608e-004,1.905271e-004
3.632887e-004,1.965235e-004
3.203414e-004,2.033302e-004
2.255332e-004,2.057612e-004
5.666109e-005,2.068957e-004
-1.997262e-004,2.120818e-004
-5.228845e-004,2.234263e-004
-8.462047e-004,2.363916e-004
-1.099351e-003,2.466017e-004
-1.238889e-003,2.504913e-004
-1.267250e-003,2.504913e-004
-1.228031e-003,2.493568e-004
-1.172442e-003,2.485465e-004
-1.152508e-003,2.498430e-004
-1.209069e-003,2.550291e-004
-1.355252e-003,2.624841e-004
-1.566261e-003,2.679943e-004
-1.793152e-003,2.673460e-004
-1.977583e-003,2.616738e-004
-2.071581e-003,2.534084e-004
-2.057805e-003,2.451431e-004
-1.943711e-003,2.372019e-004
-1.747612e-003,2.274780e-004
-1.490252e-003,2.159713e-004
-1.204207e-003,2.039785e-004
-9.325854e-004,1.934442e-004
-6.951598e-004,1.824238e-004
-4.841508e-004,1.683241e-004
-2.799486e-004,1.511452e-004
-6.812920e-005,1.304008e-004
1.453108e-004,1.051186e-004
3.427064e-004,7.837785e-005
5.037994e-004,5.585077e-005
6.167590e-004,3.705119e-005
6.817472e-004,2.003433e-005
7.062191e-004,4.800190e-006
7.049226e-004,-9.785688e-006
6.950366e-004,-2.728874e-005
6.861230e-004,-5.078821e-005
6.825576e-004,-7.671866e-005
6.906608e-004,-1.032974e-004
7.122156e-004,-1.264727e-004
7.457631e-004,-1.454344e-004
7.786624e-004,-1.598582e-004
7.896828e-004,-1.726613e-004
7.650489e-004,-1.827094e-004
7.092984e-004,-1.912988e-004
6.425274e-004,-1.974573e-004
5.851563e-004,-1.982676e-004
5.507984e-004,-1.968091e-004
5.402642e-004,-1.959987e-004
5.457744e-004,-1.971332e-004
5.519328e-004,-1.953505e-004
5.465847e-004,-1.840059e-004
5.284334e-004,-1.614788e-004
5.034753e-004,-1.347380e-004
4.773828e-004,-1.094559e-004
4.597176e-004,-8.854943e-005
4.521006e-004,-7.007399e-005
4.456179e-004,-5.532604e-005
4.279528e-004,-4.495386e-005
4.000776e-004,-4.106429e-005
3.675024e-004,-4.268495e-005
3.405996e-004,-4.884343e-005
3.211517e-004,-5.889148e-005
3.064038e-004,-7.218083e-005
2.876042e-004,-8.336335e-005
2.585945e-004,-8.563225e-005
2.237505e-004,-7.752899e-005
1.905271e-004,-6.148453e-005
1.641104e-004,-4.009191e-005
1.423936e-004,-1.740276e-005
1.226217e-004,-1.682422e-006
1.056048e-004,2.693341e-006
9.053275e-005,1.720949e-006
7.756752e-005,2.531276e-006
6.962632e-005,1.322759e-005
6.314371e-005,3.543054e-005
5.520250e-005,6.411610e-005
4.304761e-005,9.166720e-005
2.603075e-005,1.192183e-004
8.203562e-006,1.464453e-004
-7.840905e-006,1.746447e-004
-2.145439e-005,1.994406e-004
-3.474375e-005,2.192126e-004
-4.527799e-005,2.313675e-004
-4.932962e-005,2.328261e-004
-5.240886e-005,2.188885e-004
-5.824322e-005,1.927960e-004
-6.229485e-005,1.644345e-004
-6.148453e-005,1.451488e-004
-5.694670e-005,1.352628e-004
-4.835724e-005,1.349386e-004
-4.138842e-005,1.448246e-004
-4.090223e-005,1.671896e-004
-4.641245e-005,2.030061e-004
-5.095028e-005,2.478982e-004
-4.997789e-005,2.919800e-004
-4.560212e-005,3.235827e-004
-4.284701e-005,3.303894e-004
-5.257093e-005,3.080245e-004
-8.109443e-005,2.613496e-004
-1.214487e-004,2.070577e-004
-1.571031e-004,1.598967e-004
-1.770371e-004,1.273216e-004
-1.801163e-004,1.122495e-004
-1.703924e-004,1.081979e-004
-1.558065e-004,1.088461e-004
-1.413827e-004,1.099806e-004
-1.266348e-004,1.103047e-004
-1.050801e-004,1.044704e-004
-7.104638e-005,8.307774e-005
-2.080613e-005,4.807163e-005
3.980630e-005,7.555301e-006
1.046324e-004,-3.004385e-005
1.819376e-004,-5.565017e-005
2.806354e-004,-6.553616e-005
4.012120e-004,-6.035007e-005
5.290816e-004,-4.884343e-005
6.498204e-004,-4.495386e-005
7.558112e-004,-5.710876e-005
8.399231e-004,-7.882551e-005
8.961599e-004,-1.021629e-004
9.225765e-004,-1.203142e-004
9.118802e-004,-1.300382e-004
8.404093e-004,-1.323071e-004
6.832058e-004,-1.355484e-004
4.298976e-004,-1.418689e-004
9.328786e-005,-1.502963e-004
-3.031239e-004,-1.598582e-004
-7.327590e-004,-1.676373e-004
-1.173739e-003,-1.742820e-004
-1.599646e-003,-1.750923e-004
-1.963321e-003,-1.614788e-004
-2.214198e-003,-1.344139e-004
-2.310141e-003,-1.013526e-004
-2.235429e-003,-6.942573e-005
-2.013237e-003,-4.414354e-005
-1.703044e-003,-3.069211e-005
-1.378265e-003,-3.458168e-005
-1.090113e-003,-5.451572e-005
-8.530114e-004,-7.979791e-005
-6.552918e-004,-1.018388e-004
-4.854474e-004,-1.141558e-004
-3.319715e-004,-1.115627e-004
-1.914609e-004,-9.389759e-005
-7.218083e-005,-6.634648e-005
1.241726e-005,-3.652646e-005
6.087479e-005,-1.010982e-005
9.231547e-005,7.231170e-006
1.292664e-004,1.355172e-005
1.830721e-004,1.176900e-005
2.547049e-004,9.662150e-006
3.347652e-004,1.290346e-005
4.148255e-004,2.230325e-005
4.953720e-004,3.883391e-005
5.752703e-004,5.730935e-005
6.452826e-004,7.173317e-005
6.901747e-004,8.161915e-005
6.976296e-004,9.247754e-005
6.692683e-004,1.112771e-004
6.161107e-004,1.376938e-004
5.548500e-004,1.673517e-004
5.037994e-004,1.906891e-004
4.743035e-004,2.047888e-004
4.679830e-004,2.107852e-004
4.765725e-004,2.094887e-004
4.887274e-004,2.028440e-004
4.952099e-004,1.965235e-004
4.971547e-004,1.940925e-004
5.013684e-004,1.966855e-004
5.055821e-004,2.004130e-004
5.041235e-004,1.989545e-004
4.924549e-004,1.905271e-004
4.736553e-004,1.757791e-004
4.521006e-004,1.592484e-004
4.345975e-004,1.464453e-004
4.290873e-004,1.378558e-004
4.368664e-004,1.320215e-004
4.538833e-004,1.300767e-004
4.666864e-004,1.346145e-004
4.577728e-004,1.404489e-004
4.157979e-004,1.414213e-004
3.477304e-004,1.362352e-004
2.760976e-004,1.257009e-004
2.231022e-004,1.112771e-004
1.970097e-004,9.669123e-005
1.963614e-004,8.259155e-005
2.090025e-004,7.027458e-005
2.192126e-004,6.022653e-005
2.206712e-004,4.985435e-005
2.156472e-004,3.688912e-005
2.072198e-004,2.359977e-005
2.020337e-004,9.662150e-006
2.075439e-004,-6.058186e-006
2.205092e-004,-2.356124e-005
2.334744e-004,-3.847125e-005
2.444948e-004,-4.527799e-005
2.563256e-004,-4.219875e-005
2.681563e-004,-3.604027e-005
2.791768e-004,-3.863332e-005
2.890628e-004,-5.743289e-005
2.986247e-004,-9.098041e-005
3.065659e-004,-1.267968e-004
3.064038e-004,-1.517549e-004
2.940868e-004,-1.645581e-004
2.670219e-004,-1.686097e-004
2.253711e-004,-1.673132e-004
1.688103e-004,-1.622891e-004
1.004187e-004,-1.579134e-004
2.133085e-005,-1.506204e-004
-6.148453e-005,-1.408965e-004
-1.389517e-004,-1.302002e-004
-2.045882e-004,-1.220970e-004
-2.579077e-004,-1.185315e-004
-3.019894e-004,-1.204763e-004
-3.462333e-004,-1.284175e-004
-3.977700e-004,-1.423551e-004
-4.595169e-004,-1.566169e-004
-5.355255e-004,-1.665028e-004
-6.283889e-004,-1.665028e-004
-7.291936e-004,-1.562927e-004
-8.228673e-004,-1.413827e-004
-8.969311e-004,-1.246900e-004
-9.444162e-004,-1.049180e-004
-9.489541e-004,-7.979791e-005
-8.995241e-004,-4.900550e-005
-8.013126e-004,-1.545797e-005
-6.680949e-004,1.727922e-005
-5.194810e-004,4.369587e-005
-3.745947e-004,6.249545e-005
-2.498044e-004,7.562274e-005
-1.524032e-004,8.356394e-005
-7.979791e-005,8.891209e-005
-2.664048e-005,9.280167e-005
1.209313e-005,1.012291e-004
3.656499e-005,1.182459e-004
4.823370e-005,1.470936e-004
5.050261e-005,1.838824e-004
4.402000e-005,2.208333e-004
2.894792e-005,2.503292e-004
8.041497e-006,2.713977e-004
-1.189254e-005,2.856594e-004
-1.853722e-005,2.961937e-004
2.369211e-006,3.044590e-004
4.969229e-005,3.109416e-004
1.078737e-004,3.133726e-004
1.621656e-004,3.098072e-004
2.033302e-004,3.034866e-004
2.334744e-004,2.995970e-004
2.500050e-004,2.992729e-004
2.446569e-004,2.984626e-004
2.224539e-004,2.968419e-004
2.004130e-004,2.945730e-004
1.927960e-004,2.923041e-004
2.008992e-004,2.880904e-004
2.213195e-004,2.788527e-004
2.517878e-004,2.657254e-004
2.861456e-004,2.513016e-004
3.161277e-004,2.352571e-004
3.320101e-004,2.193747e-004
3.318480e-004,2.033302e-004
3.198552e-004,1.859892e-004
2.958695e-004,1.642725e-004
2.597290e-004,1.334801e-004
2.120818e-004,9.263960e-005
1.624898e-004,4.742337e-005
1.252147e-004,3.827799e-006
1.085220e-004,-3.036798e-005
1.190562e-004,-5.386745e-005
1.568175e-004,-7.039812e-005
2.196988e-004,-8.563225e-005
2.942489e-004,-9.908367e-005
3.657197e-004,-1.156143e-004
4.232529e-004,-1.361966e-004
4.639314e-004,-1.592099e-004
4.929411e-004,-1.793060e-004
5.141716e-004,-1.938919e-004
5.213025e-004,-2.031296e-004
