4.397836e-004,-1.689338e-004
4.931031e-004,-1.950263e-004
5.349160e-004,-2.216050e-004
5.512846e-004,-2.413770e-004
5.331332e-004,-2.523975e-004
4.760863e-004,-2.554767e-004
3.812780e-004,-2.572594e-004
2.558394e-004,-2.564491e-004
1.138702e-004,-2.506147e-004
-2.210265e-005,-2.386219e-004
-1.297140e-004,-2.232257e-004
-1.951884e-004,-2.133397e-004
-2.141500e-004,-2.157707e-004
-1.900023e-004,-2.276015e-004
-1.302002e-004,-2.410529e-004
-4.706071e-005,-2.494803e-004
3.915804e-005,-2.501286e-004
1.094944e-004,-2.439701e-004
1.514693e-004,-2.389460e-004
1.637863e-004,-2.360289e-004
1.545486e-004,-2.335979e-004
1.385041e-004,-2.250084e-004
1.278078e-004,-2.084778e-004
1.284560e-004,-1.898403e-004
1.404489e-004,-1.700683e-004
1.524417e-004,-1.449482e-004
1.517934e-004,-1.154523e-004
1.281319e-004,-8.141856e-005
8.518459e-005,-4.657452e-005
3.445814e-005,-1.221667e-005
-1.010982e-005,1.549650e-005
-3.798505e-005,3.624086e-005
-4.527799e-005,5.179914e-005
-4.074016e-005,6.881599e-005
-3.668853e-005,9.020862e-005
-4.074016e-005,1.117633e-004
-5.597430e-005,1.291043e-004
-7.623246e-005,1.401247e-004
-8.790117e-005,1.479039e-004
-8.482193e-005,1.579519e-004
-6.877746e-005,1.725378e-004
-3.782299e-005,1.879340e-004
5.286387e-006,2.012234e-004
5.244739e-005,2.117576e-004
9.231547e-005,2.219677e-004
1.175977e-004,2.359054e-004
1.247285e-004,2.493568e-004
1.163011e-004,2.590807e-004
1.013911e-004,2.634565e-004
9.069481e-005,2.650771e-004
8.599492e-005,2.692908e-004
7.578480e-005,2.760976e-004
4.547859e-005,2.825802e-004
-1.108221e-005,2.853353e-004
-8.579432e-005,2.833905e-004
-1.603444e-004,2.762596e-004
-2.131776e-004,2.673460e-004
-2.314910e-004,2.589186e-004
-2.169052e-004,2.524360e-004
-1.794681e-004,2.487085e-004
-1.311726e-004,2.475741e-004
-8.449780e-005,2.443328e-004
-5.095028e-005,2.350950e-004
-3.668853e-005,2.171058e-004
-4.025397e-005,1.966855e-004
-5.305713e-005,1.793446e-004
-7.461182e-005,1.673517e-004
-1.039456e-004,1.560072e-004
-1.378173e-004,1.409351e-004
-1.676373e-004,1.218114e-004
-1.828714e-004,9.960841e-005
-1.820611e-004,7.594687e-005
-1.728234e-004,5.212327e-005
-1.642339e-004,2.846173e-005
-1.616409e-004,5.610517e-006
-1.618029e-004,-1.578211e-005
-1.624512e-004,-3.522994e-005
-1.608306e-004,-5.143648e-005
-1.553203e-004,-6.667062e-005
-1.491618e-004,-8.611845e-005
-1.447861e-004,-1.139937e-004
-1.349001e-004,-1.454344e-004
-1.172350e-004,-1.749302e-004
-9.422172e-005,-1.956746e-004
-7.234290e-005,-2.063709e-004
-5.905355e-005,-2.083157e-004
-6.164659e-005,-2.102605e-004
-7.347736e-005,-2.169052e-004
-7.833932e-005,-2.285739e-004
-6.845333e-005,-2.408908e-004
-4.916756e-005,-2.499665e-004
-2.793700e-005,-2.532078e-004
-5.085794e-006,-2.517492e-004
2.100672e-005,-2.465631e-004
5.196120e-005,-2.395943e-004
8.615699e-005,-2.344082e-004
1.154908e-004,-2.326255e-004
1.313732e-004,-2.355427e-004
1.291043e-004,-2.421874e-004
1.138702e-004,-2.512630e-004
9.134307e-005,-2.562870e-004
7.319176e-005,-2.536940e-004
6.362991e-005,-2.425115e-004
5.925414e-005,-2.250084e-004
5.601284e-005,-2.031296e-004
5.115087e-005,-1.739578e-004
4.936815e-005,-1.383035e-004
5.293359e-005,-9.973194e-005
5.633696e-005,-6.407757e-005
4.953022e-005,-3.652646e-005
3.429608e-005,-1.562004e-005
1.549650e-005,4.244267e-007
1.234753e-006,1.614476e-005
-4.113403e-006,3.688912e-005
5.864920e-007,6.719535e-005
1.711715e-005,9.960841e-005
4.223728e-005,1.252147e-004
7.173317e-005,1.414213e-004
9.912221e-005,1.519555e-004
1.214872e-004,1.631380e-004
1.407730e-004,1.833962e-004
1.470936e-004,2.156472e-004
1.261871e-004,2.542187e-004
7.351589e-005,2.901973e-004
-6.058186e-006,3.140208e-004
-9.243900e-005,3.245551e-004
-1.647201e-004,3.284447e-004
-2.088019e-004,3.355756e-004
-2.188499e-004,3.470822e-004
-1.987538e-004,3.576164e-004
-1.601823e-004,3.628026e-004
-1.131834e-004,3.623164e-004
-6.504996e-005,3.568061e-004
-2.258885e-005,3.472443e-004
1.031041e-005,3.402755e-004
3.769945e-005,3.418961e-004
6.330578e-005,3.616681e-004
8.923623e-005,4.008879e-004
1.164632e-004,4.527488e-004
1.427178e-004,5.020167e-004
1.649207e-004,5.319988e-004
1.786963e-004,5.358884e-004
1.822617e-004,5.169268e-004
1.782101e-004,4.828930e-004
1.735102e-004,4.446456e-004
1.770756e-004,4.073705e-004
1.906891e-004,3.709058e-004
2.085163e-004,3.354135e-004
2.205092e-004,2.992729e-004
2.248849e-004,2.616738e-004
2.232643e-004,2.206712e-004
2.203471e-004,1.780480e-004
2.151610e-004,1.394765e-004
2.068957e-004,1.141943e-004
1.983062e-004,1.065772e-004
1.889064e-004,1.109530e-004
1.741585e-004,1.172735e-004
1.561692e-004,1.150046e-004
1.480659e-004,9.361199e-005
1.573037e-004,5.017848e-005
1.808031e-004,-6.058186e-006
2.025199e-004,-6.067420e-005
2.093267e-004,-1.062146e-004
1.979821e-004,-1.407345e-004
1.739964e-004,-1.702304e-004
1.469315e-004,-1.959987e-004
1.261871e-004,-2.209568e-004
1.205148e-004,-2.460769e-004
1.245665e-004,-2.721694e-004
1.274836e-004,-2.971275e-004
1.182459e-004,-3.172236e-004
8.826383e-005,-3.382920e-004
3.705119e-005,-3.655190e-004
-2.615429e-005,-3.972838e-004
-8.822530e-005,-4.285624e-004
-1.387897e-004,-4.564377e-004
-1.687718e-004,-4.835025e-004
-1.712027e-004,-5.126743e-004
-1.441378e-004,-5.418460e-004
-9.600444e-005,-5.672903e-004
-4.106429e-005,-5.836589e-004
7.393236e-006,-5.911139e-004
4.304761e-005,-5.979206e-004
5.941620e-005,-6.147755e-004
4.758544e-005,-6.436231e-004
1.193106e-005,-6.726327e-004
-2.988179e-005,-6.890013e-004
-6.002594e-005,-6.896496e-004
-6.618442e-005,-6.745775e-004
-5.095028e-005,-6.465403e-004
-2.907146e-005,-6.105618e-004
-1.610624e-005,-5.663179e-004
-1.918548e-005,-5.115399e-004
-3.571614e-005,-4.483344e-004
-5.581224e-005,-3.838324e-004
-6.423963e-005,-3.256510e-004
-5.208474e-005,-2.763831e-004
-1.934754e-005,-2.297083e-004
2.165498e-005,-1.781716e-004
5.228533e-005,-1.164247e-004
5.277153e-005,-4.187462e-005
1.922400e-005,4.142696e-005
-2.939559e-005,1.247285e-004
-6.667062e-005,1.999268e-004
-8.125649e-005,2.654013e-004
-7.396356e-005,3.190449e-004
-5.646050e-005,3.631267e-004
-4.219875e-005,4.031568e-004
-3.944364e-005,4.443214e-004
-4.754691e-005,4.871067e-004
-5.305713e-005,5.379952e-004
-3.814712e-005,6.319932e-004
-3.858999e-007,8.063756e-004
5.406805e-005,1.060170e-003
1.166253e-004,1.363233e-003
1.754550e-004,1.694819e-003
2.203471e-004,2.030133e-003
2.462775e-004,2.316666e-003
2.503292e-004,2.476463e-003
2.308813e-004,2.445185e-003
1.829100e-004,2.196899e-003
1.078737e-004,1.762563e-003
1.711715e-005,1.218994e-003
-7.428769e-005,6.666752e-004
-1.486757e-004,1.919856e-004
-1.956746e-004,-1.515928e-004
-2.081536e-004,-3.428299e-004
-1.857886e-004,-4.013355e-004
-1.426792e-004,-3.783222e-004
-9.308726e-005,-3.366714e-004
-4.576419e-005,-3.248407e-004
-6.706447e-006,-3.635742e-004
2.214118e-005,-4.491447e-004
4.369587e-005,-5.591870e-004
6.411610e-005,-6.690673e-004
8.421220e-005,-7.601480e-004
1.033359e-004,-8.218948e-004
1.245665e-004,-8.565768e-004
1.511452e-004,-8.744040e-004
1.795066e-004,-8.829935e-004
2.034923e-004,-8.841280e-004
2.179161e-004,-8.766730e-004
2.132162e-004,-8.619250e-004
1.806411e-004,-8.447461e-004
1.219734e-004,-8.322670e-004
5.390598e-005,-8.283774e-004
-2.816880e-006,-8.303223e-004
-3.555408e-005,-8.324291e-004
-4.803310e-005,-8.282154e-004
-5.808115e-005,-8.116848e-004
-7.769106e-005,-7.872129e-004
-1.070249e-004,-7.564205e-004
-1.345760e-004,-7.215765e-004
-1.457585e-004,-6.862463e-004
-1.363587e-004,-6.492953e-004
-1.078352e-004,-6.014861e-004
-7.007399e-005,-5.364979e-004
-3.296103e-005,-4.548170e-004
2.693341e-006,-3.617915e-004
3.786152e-005,-2.632558e-004
6.897806e-005,-1.624512e-004
9.344993e-005,-6.067420e-005
1.192183e-004,3.526847e-005
1.496866e-004,1.150046e-004
1.780480e-004,1.752929e-004
1.825859e-004,2.273159e-004
1.495245e-004,2.817699e-004
9.393612e-005,3.417340e-004
4.353380e-005,4.049396e-004
1.533444e-005,4.683071e-004
3.179537e-006,5.285954e-004
-2.978945e-006,5.898562e-004
-1.092015e-005,6.788301e-004
-2.485776e-005,8.305234e-004
-4.171256e-005,1.037643e-003
-5.646050e-005,1.238766e-003
-6.164659e-005,1.360802e-003
-4.787104e-005,1.365502e-003
-9.947754e-006,1.255135e-003
5.001642e-005,1.061305e-003
1.205148e-004,8.232304e-004
1.824238e-004,5.767288e-004
2.182402e-004,3.581026e-004
2.190506e-004,1.916615e-004
1.806411e-004,8.518459e-005
1.052807e-004,3.478228e-005
8.203562e-006,2.181705e-005
-8.935975e-005,2.408596e-005
-1.648822e-004,2.133085e-005
-1.987538e-004,6.582909e-006
-1.870851e-004,-1.140634e-005
-1.373311e-004,-2.177852e-005
-6.472583e-005,-2.080613e-005
1.582063e-005,-7.192643e-006
9.474644e-005,1.744129e-005
1.566554e-004,4.758544e-005
1.867996e-004,7.999851e-005
1.824238e-004,1.106288e-004
1.534141e-004,1.383420e-004
1.141943e-004,1.647587e-004
7.999851e-005,1.926339e-004
6.444023e-005,2.187264e-004
7.432621e-005,2.394708e-004
1.046324e-004,2.535705e-004
1.448246e-004,2.592428e-004
1.806411e-004,2.558394e-004
2.020337e-004,2.472499e-004
1.974959e-004,2.323399e-004
1.634622e-004,2.102990e-004
1.086841e-004,1.845306e-004
4.580272e-005,1.598967e-004
-1.335113e-005,1.477418e-004
-6.099833e-005,1.780480e-004
-8.984595e-005,2.835526e-004
-9.211487e-005,4.564763e-004
-6.569822e-005,6.413930e-004
-2.404744e-005,7.652109e-004
9.013889e-006,7.754210e-004
1.582063e-005,6.601926e-004
-6.544382e-006,4.511282e-004
-5.030202e-005,2.015475e-004
-1.041077e-004,-3.620233e-005
-1.541859e-004,-2.232257e-004
-1.862748e-004,-3.421817e-004
-1.966470e-004,-3.964735e-004
-1.934057e-004,-4.047388e-004
-1.945401e-004,-3.906392e-004
-2.240360e-004,-3.737844e-004
-2.848105e-004,-3.608192e-004
-3.543365e-004,-3.536883e-004
-4.034423e-004,-3.481781e-004
-4.144627e-004,-3.373197e-004
-3.839945e-004,-3.173856e-004
-3.222476e-004,-2.911311e-004
-2.434839e-004,-2.614731e-004
-1.592099e-004,-2.344082e-004
-7.817725e-005,-2.128535e-004
-9.461558e-006,-1.968091e-004
4.628891e-005,-1.823853e-004
9.523264e-005,-1.692580e-004
1.388282e-004,-1.572651e-004
1.791825e-004,-1.459206e-004
2.174299e-004,-1.329553e-004
2.517878e-004,-1.186936e-004
2.783665e-004,-1.026491e-004
2.892249e-004,-8.141856e-005
2.856594e-004,-5.338126e-005
2.709115e-004,-2.161646e-005
2.521119e-004,6.582909e-006
2.365536e-004,2.667901e-005
2.321778e-004,3.283749e-005
2.368777e-004,2.878586e-005
2.389846e-004,2.327564e-005
2.258573e-004,2.376183e-005
1.906891e-004,3.413401e-005
1.315353e-004,5.520250e-005
5.909208e-005,8.323981e-005
-1.027188e-005,1.166253e-004
-6.634648e-005,1.587623e-004
-1.076731e-004,2.132162e-004
-1.316588e-004,2.744769e-004
-1.300382e-004,3.258516e-004
-1.003802e-004,3.508097e-004
-5.483985e-005,3.462718e-004
-8.489166e-006,3.200173e-004
3.413401e-005,2.846870e-004
7.319176e-005,2.550291e-004
1.039842e-004,2.399570e-004
1.227837e-004,2.409294e-004
1.247285e-004,2.545429e-004
1.067393e-004,2.752873e-004
7.578480e-005,2.961937e-004
3.786152e-005,3.086727e-004
1.234753e-006,3.030004e-004
-3.150244e-005,2.764217e-004
-5.727083e-005,2.368777e-004
-7.526008e-005,1.973338e-004
-8.093236e-005,1.684862e-004
-7.493595e-005,1.488763e-004
-6.051213e-005,1.291043e-004
-4.219875e-005,1.009049e-004
-2.372331e-005,5.811968e-005
-4.275467e-006,5.864920e-007
2.035846e-005,-6.245691e-005
4.839576e-005,-1.190177e-004
7.448828e-005,-1.665028e-004
9.312580e-005,-2.065330e-004
1.051186e-004,-2.434839e-004
1.154908e-004,-2.836761e-004
1.320215e-004,-3.301888e-004
1.521176e-004,-3.810773e-004
1.694586e-004,-4.321279e-004
1.773998e-004,-4.739407e-004
1.694586e-004,-5.016539e-004
1.482280e-004,-5.155915e-004
1.255389e-004,-5.207775e-004
1.114392e-004,-5.254775e-004
1.083599e-004,-5.395772e-004
1.151667e-004,-5.674524e-004
1.292664e-004,-6.089411e-004
1.466074e-004,-6.619364e-004
1.608691e-004,-7.207661e-004
1.624898e-004,-7.761925e-004
1.433661e-004,-8.099020e-004
1.081979e-004,-8.013126e-004
7.367795e-005,-7.463724e-004
5.293359e-005,-6.420024e-004
5.196120e-005,-4.763717e-004
6.962632e-005,-2.506147e-004
1.020394e-004,-4.761664e-006
1.412592e-004,1.997648e-004
1.736723e-004,3.346032e-004
1.936063e-004,4.402698e-004
1.986303e-004,5.796460e-004
1.846927e-004,7.501388e-004
1.529279e-004,8.786568e-004
1.127357e-004,8.789809e-004
7.870197e-005,7.123777e-004
5.666109e-005,4.038051e-004
4.661304e-005,2.862379e-005
4.434413e-005,-3.246786e-004
4.385793e-005,-5.925725e-004
3.867184e-005,-7.577171e-004
2.700314e-005,-8.335636e-004
1.387585e-005,-8.413427e-004
3.665733e-006,-7.998540e-004
-5.409925e-006,-7.278970e-004
-1.756482e-005,-6.441093e-004
-2.923353e-005,-5.593491e-004
-3.296103e-005,-4.760476e-004
-2.518189e-005,-3.940425e-004
-1.043395e-005,-3.178718e-004
2.623614e-007,-2.567732e-004
2.623614e-007,-2.169052e-004
-1.205460e-005,-1.955125e-004
-2.971972e-005,-1.854645e-004
-4.673658e-005,-1.797922e-004
-5.791909e-005,-1.742820e-004
-6.504996e-005,-1.669890e-004
-6.991193e-005,-1.511067e-004
-7.623246e-005,-1.253383e-004
-8.514606e-005,-9.956988e-005
-9.438378e-005,-9.017008e-005
-9.859748e-005,-9.519411e-005
-9.681477e-005,-1.021629e-004
-9.065628e-005,-1.031353e-004
-8.368748e-005,-9.519411e-005
-8.190475e-005,-7.477388e-005
-8.709085e-005,-4.787104e-005
-9.811128e-005,-2.437157e-005
-1.125351e-004,-1.027188e-005
-1.233935e-004,-6.058186e-006
-1.267968e-004,-8.165035e-006
-1.238797e-004,-1.254080e-005
-1.159385e-004,-1.383732e-005
-1.042698e-004,-7.192643e-006
-8.903562e-005,1.031041e-005
-6.991193e-005,3.915804e-005
-4.462973e-005,7.319176e-005
-1.092015e-005,1.060910e-004
2.716521e-005,1.286181e-004
5.990240e-005,1.359110e-004
7.999851e-005,1.351007e-004
8.696731e-005,1.420695e-004
8.712937e-005,1.710792e-004
8.826383e-005,2.279642e-004
9.199134e-005,3.136967e-004
9.182927e-005,4.198496e-004
8.437427e-005,5.344298e-004
6.670914e-005,6.428516e-004
4.450620e-005,7.410632e-004
2.392390e-005,8.345750e-004
8.203562e-006,9.292212e-004
-6.058186e-006,1.027271e-003
-1.918548e-005,1.120459e-003
-2.988179e-005,1.198250e-003
-3.587821e-005,1.254649e-003
-3.312309e-005,1.281552e-003
-2.356124e-005,1.277338e-003
-9.785688e-006,1.243142e-003
1.241726e-005,1.184636e-003
4.320967e-005,1.111221e-003
7.335383e-005,1.036995e-003
9.263960e-005,9.736272e-004
9.523264e-005,9.216042e-004
8.356394e-005,8.757396e-004
6.768154e-005,8.280924e-004
5.423012e-005,7.853071e-004
4.726130e-005,7.582422e-004
4.612685e-005,7.504630e-004
4.790957e-005,7.541905e-004
4.969229e-005,7.569456e-004
5.163707e-005,7.468975e-004
5.228533e-005,7.162672e-004
4.904402e-005,6.619753e-004
3.883391e-005,5.871011e-004
2.003433e-005,5.007202e-004
-9.785688e-006,4.120704e-004
-4.009191e-005,3.307136e-004
-6.213279e-005,2.632944e-004
-7.282909e-005,2.104611e-004
-7.363943e-005,1.657311e-004
-6.148453e-005,1.190562e-004
-3.863332e-005,6.476436e-005
-1.367526e-005,7.555301e-006
5.772582e-006,-4.187462e-005
1.322759e-005,-7.963584e-005
9.500085e-006,-1.067007e-004
1.558884e-006,-1.308485e-004
-3.303076e-006,-1.574272e-004
1.072688e-006,-1.854645e-004
1.549650e-005,-2.154466e-004
2.781346e-005,-2.481838e-004
2.797553e-005,-2.817312e-004
1.727922e-005,-3.160891e-004
2.369211e-006,-3.491504e-004
-1.464765e-005,-3.791325e-004
-3.231277e-005,-4.013355e-004
-4.414354e-005,-4.134903e-004
-5.289507e-005,-4.133283e-004
-6.650855e-005,-4.011734e-004
-8.725291e-005,-3.773498e-004
-9.989401e-005,-3.462333e-004
-8.822530e-005,-3.157650e-004
-5.030202e-005,-2.904828e-004
8.527692e-006,-2.708729e-004
7.756752e-005,-2.566112e-004
1.456350e-004,-2.473734e-004
2.062474e-004,-2.486699e-004
2.551911e-004,-2.661730e-004
2.913317e-004,-3.003688e-004
3.117519e-004,-3.421817e-004
3.073762e-004,-3.744326e-004
2.767458e-004,-3.848048e-004
2.260194e-004,-3.679500e-004
1.631380e-004,-3.275957e-004
9.717743e-005,-2.731418e-004
4.904402e-005,-2.147983e-004
3.996837e-005,-1.596961e-004
7.140904e-005,-1.133454e-004
1.255389e-004,-8.141856e-005
1.767515e-004,-6.488790e-005
2.005751e-004,-6.099833e-005
1.914995e-004,-5.127441e-005
1.522796e-004,-2.654814e-006
9.669123e-005,1.038221e-004
4.337174e-005,2.391467e-004
7.717366e-006,3.431926e-004
-6.220252e-006,3.603715e-004
-7.678839e-006,2.689667e-004
-4.437533e-006,9.134307e-005
5.864920e-007,-1.242038e-004
1.160693e-005,-3.256510e-004
3.218923e-005,-4.783165e-004
6.200925e-005,-5.661559e-004
9.361199e-005,-5.916001e-004
1.135460e-004,-5.716661e-004
1.143563e-004,-5.311498e-004
9.490851e-005,-4.907955e-004
5.860588e-005,-4.638926e-004
9.013889e-006,-4.554653e-004
-5.192267e-005,-4.595169e-004
-1.295519e-004,-4.708614e-004
-2.219292e-004,-4.839888e-004
-3.091203e-004,-4.958195e-004
-3.656811e-004,-4.998712e-004
-3.651949e-004,-4.933886e-004
-2.966413e-004,-4.797751e-004
-1.768750e-004,-4.619479e-004
-4.171256e-005,-4.426621e-004
7.238143e-005,-4.228902e-004
1.454729e-004,-3.992286e-004
1.728619e-004,-3.720016e-004
1.598967e-004,-3.459091e-004
1.158149e-004,-3.206269e-004
5.131294e-005,-2.982619e-004
-2.113026e-005,-2.773555e-004
-8.303922e-005,-2.567732e-004
-1.157764e-004,-2.334358e-004
-1.096179e-004,-2.050744e-004
-7.461182e-005,-1.689338e-004
-2.890940e-005,-1.230693e-004
4.151929e-006,-7.120844e-005
6.096713e-006,-1.837515e-005
-1.675450e-005,3.299956e-005
-3.782299e-005,8.777764e-005
-3.668853e-005,1.441764e-004
-1.173047e-005,1.942546e-004
2.878586e-005,2.337985e-004
6.476436e-005,2.571359e-004
8.567078e-005,2.603772e-004
9.344993e-005,2.472499e-004
9.652917e-005,2.256952e-004
9.960841e-005,2.051129e-004
1.000946e-004,1.931201e-004
9.782569e-005,1.947408e-004
9.426025e-005,2.111094e-004
9.085688e-005,2.401191e-004
8.891209e-005,2.760976e-004
8.518459e-005,3.119140e-004
7.789165e-005,3.454615e-004
6.654708e-005,3.739850e-004
5.309566e-005,3.937570e-004
4.418206e-005,4.052637e-004
4.564065e-005,4.140152e-004
5.876794e-005,4.420525e-004
7.562274e-005,5.178991e-004
9.296373e-005,6.430136e-004
1.090082e-004,7.786624e-004
1.206769e-004,8.689329e-004
1.300767e-004,8.726604e-004
1.417454e-004,7.825520e-004
1.526038e-004,6.245382e-004
1.561692e-004,4.420525e-004
1.555210e-004,2.775562e-004
1.563313e-004,1.563313e-004
1.613553e-004,8.421220e-005
1.710792e-004,5.633696e-005
1.756171e-004,6.136099e-005
1.652449e-004,8.340187e-005
1.423936e-004,1.034980e-004
1.132219e-004,1.094944e-004
8.453633e-005,9.814982e-005
6.768154e-005,7.400208e-005
6.897806e-005,4.304761e-005
8.534666e-005,8.365628e-006
1.041462e-004,-2.583016e-005
1.119254e-004,-5.467778e-005
1.012291e-004,-7.720486e-005
6.849186e-005,-9.892161e-005
1.355172e-005,-1.264727e-004
-5.548811e-005,-1.595340e-004
-1.198280e-004,-1.972953e-004
-1.579134e-004,-2.433218e-004
-1.558065e-004,-3.011791e-004
-1.206384e-004,-3.703810e-004
-7.623246e-005,-4.449310e-004
-5.046408e-005,-5.160777e-004
-6.083626e-005,-5.716661e-004
-1.079973e-004,-6.027826e-004
-1.770371e-004,-6.071584e-004
-2.465631e-004,-5.893312e-004
-2.887001e-004,-5.611319e-004
-2.974516e-004,-5.285567e-004
-2.752487e-004,-4.925782e-004
-2.306807e-004,-4.522240e-004
-1.742820e-004,-4.073319e-004
-1.143178e-004,-3.645466e-004
-5.548811e-005,-3.259751e-004
-8.720959e-007,-2.874036e-004
4.029250e-005,-2.457528e-004
5.649903e-005,-2.000504e-004
4.612685e-005,-1.522411e-004
2.505836e-005,-9.973194e-005
1.403791e-005,-3.895745e-005
2.797553e-005,2.781346e-005
6.573675e-005,9.685330e-005
1.109530e-004,1.667035e-004
1.459591e-004,2.295848e-004
1.592484e-004,2.749631e-004
1.487142e-004,3.021901e-004
1.231079e-004,3.156415e-004
9.037068e-005,3.253654e-004
6.298164e-005,3.363859e-004
5.260946e-005,3.474063e-004
5.893001e-005,3.553475e-004
6.978839e-005,3.585888e-004
6.735741e-005,3.524304e-004
3.932010e-005,3.337929e-004
-6.382317e-006,3.081865e-004
-4.722278e-005,2.845250e-004
-5.743289e-005,2.701012e-004
-2.404744e-005,2.663737e-004
4.256141e-005,2.759355e-004
1.203528e-004,2.929524e-004
1.838824e-004,3.077003e-004
2.138645e-004,3.133726e-004
2.010613e-004,3.101313e-004
1.548727e-004,3.052694e-004
9.215340e-005,3.086727e-004
3.413401e-005,3.242310e-004
-9.299493e-006,3.464339e-004
-3.247483e-005,3.606957e-004
-3.020592e-005,3.553475e-004
-9.299493e-006,3.324963e-004
1.776542e-005,3.036487e-004
3.380988e-005,2.853353e-004
3.462021e-005,2.880904e-004
2.781346e-005,3.120761e-004
2.197911e-005,3.470822e-004
2.262738e-005,3.812780e-004
3.575467e-005,4.089912e-004
6.119892e-005,4.277907e-004
9.053275e-005,4.358940e-004
1.135460e-004,4.307079e-004
1.234320e-004,4.140152e-004
1.187321e-004,3.885709e-004
1.022015e-004,3.577785e-004
7.610894e-005,3.302274e-004
4.693717e-005,3.072141e-004
2.700314e-005,2.867939e-004
2.732727e-005,2.678322e-004
4.726130e-005,2.470879e-004
7.594687e-005,2.255332e-004
9.993253e-005,2.039785e-004
1.117633e-004,1.851789e-004
1.124116e-004,1.670276e-004
1.044704e-004,1.462832e-004
9.215340e-005,1.248906e-004
8.226741e-005,1.038221e-004
8.323981e-005,8.016057e-005
9.182927e-005,5.082674e-005
9.766362e-005,1.857574e-005
9.199134e-005,-1.318906e-005
7.319176e-005,-4.138842e-005
4.564065e-005,-6.586029e-005
1.922400e-005,-8.628052e-005
-2.654814e-006,-1.011905e-004
-1.950961e-005,-1.096179e-004
-3.085418e-005,-1.105903e-004
-3.231277e-005,-1.029732e-004
-1.724069e-005,-9.081835e-005
1.209313e-005,-8.109443e-005
3.624086e-005,-8.255302e-005
4.223728e-005,-9.875954e-005
3.186510e-005,-1.293899e-004
1.176900e-005,-1.665028e-004
-8.327101e-006,-2.065330e-004
-2.599222e-005,-2.459149e-004
-3.522994e-005,-2.773555e-004
-3.522994e-005,-2.976137e-004
-2.826114e-005,-3.092824e-004
-1.286493e-005,-3.117133e-004
1.419998e-005,-3.032860e-004
5.050261e-005,-2.880518e-004
8.793970e-005,-2.720074e-004
1.221355e-004,-2.574215e-004
1.454729e-004,-2.476975e-004
1.522796e-004,-2.429977e-004
1.328318e-004,-2.407288e-004
9.085688e-005,-2.387840e-004
4.256141e-005,-2.394322e-004
7.069105e-006,-2.496423e-004
-9.299493e-006,-2.689281e-004
-7.840905e-006,-2.958309e-004
4.476060e-006,-3.287302e-004
1.711715e-005,-3.613053e-004
2.522042e-005,-3.841565e-004
2.975825e-005,-3.899909e-004
3.413401e-005,-3.767015e-004
4.256141e-005,-3.501228e-004
5.601284e-005,-3.217614e-004
7.076078e-005,-3.013411e-004
8.712937e-005,-2.969654e-004
1.099806e-004,-3.076617e-004
1.423936e-004,-3.264613e-004
1.718896e-004,-3.391024e-004
1.733481e-004,-3.288923e-004
1.252147e-004,-2.848105e-004
2.943412e-005,-2.079916e-004
-9.389759e-005,-1.130213e-004
-2.177155e-004,-1.594417e-005
-3.159271e-004,7.335383e-005
-3.752429e-004,1.539003e-004
-3.922598e-004,2.239125e-004
-3.784843e-004,2.798251e-004
-3.465574e-004,3.218000e-004
-3.097686e-004,3.540510e-004
-2.741142e-004,3.806297e-004
-2.397564e-004,4.052637e-004
-2.060468e-004,4.269804e-004
-1.728234e-004,4.420525e-004
-1.462447e-004,4.491834e-004
-1.263107e-004,4.477248e-004
-1.079973e-004,4.380009e-004
-8.012204e-005,4.206599e-004
-3.685060e-005,3.966742e-004
2.003433e-005,3.696093e-004
8.275361e-005,3.459477e-004
1.325077e-004,3.274723e-004
1.457970e-004,3.130485e-004
1.028497e-004,3.052694e-004
5.448452e-006,3.068900e-004
-1.208004e-004,3.175863e-004
-2.363530e-004,3.321722e-004
-3.044204e-004,3.435168e-004
-3.065273e-004,3.461098e-004
-2.475355e-004,3.352514e-004
-1.494860e-004,3.109416e-004
-3.782299e-005,2.713977e-004
5.974033e-005,2.195368e-004
1.325077e-004,1.563313e-004
1.842065e-004,8.356394e-005
2.159713e-004,8.527692e-006
2.269918e-004,-5.710876e-005
2.185644e-004,-1.101041e-004
1.984683e-004,-1.520790e-004
1.725378e-004,-1.854645e-004
1.456350e-004,-2.126914e-004
1.240803e-004,-2.370013e-004
1.130598e-004,-2.580697e-004
1.184080e-004,-2.731418e-004
1.436902e-004,-2.820554e-004
1.867996e-004,-2.851347e-004
2.386605e-004,-2.875656e-004
2.869559e-004,-2.924276e-004
3.161277e-004,-3.013411e-004
3.175863e-004,-3.143064e-004
2.897111e-004,-3.290543e-004
2.355812e-004,-3.386162e-004
1.623277e-004,-3.400748e-004
7.578480e-005,-3.360231e-004
-7.678839e-006,-3.298647e-004
-7.137051e-005,-3.224097e-004
-1.005423e-004,-3.147926e-004
-9.405965e-005,-3.052308e-004
-5.986387e-005,-2.887001e-004
-9.461558e-006,-2.613110e-004
5.098881e-005,-2.258187e-004
1.098185e-004,-1.883817e-004
1.539003e-004,-1.527273e-004
1.793446e-004,-1.217728e-004
1.833962e-004,-9.308726e-005
1.673517e-004,-6.375344e-005
1.373696e-004,-3.117831e-005
1.057669e-004,3.827799e-006
8.534666e-005,3.850978e-005
8.210535e-005,7.140904e-005
9.571884e-005,1.002567e-004
1.221355e-004,1.227837e-004
1.584381e-004,1.393144e-004
2.007372e-004,1.501728e-004
2.396328e-004,1.574657e-004
2.603772e-004,1.658931e-004
2.423880e-004,1.806411e-004
1.790204e-004,2.030061e-004
9.571884e-005,2.318537e-004
2.829966e-005,2.670219e-004
-7.678839e-006,3.117519e-004
-1.788895e-005,3.687990e-004
-1.399939e-005,4.392974e-004
-1.196227e-006,5.230852e-004
1.808955e-005,6.099523e-004
3.705119e-005,6.798024e-004
4.953022e-005,7.146465e-004
4.774750e-005,7.086502e-004
3.170304e-005,6.725095e-004
1.484824e-005,6.261588e-004
1.193106e-005,5.875872e-004
2.635488e-005,5.700842e-004
5.179914e-005,5.715428e-004
7.416415e-005,5.744600e-004
8.145709e-005,5.636016e-004
7.691926e-005,5.371849e-004
7.157111e-005,4.995857e-004
7.416415e-005,4.525868e-004
8.275361e-005,3.927847e-004
8.972242e-005,3.128864e-004
8.793970e-005,2.137024e-004
8.323981e-005,1.046324e-004
8.631905e-005,2.045080e-006
1.012291e-004,-7.752899e-005
1.177597e-004,-1.245279e-004
1.159770e-004,-1.394379e-004
7.951231e-005,-1.293899e-004
7.069105e-006,-1.073490e-004
-8.806324e-005,-8.660465e-005
-1.789819e-004,-7.526008e-005
-2.378116e-004,-7.769106e-005
-2.532078e-004,-9.146661e-005
-2.382978e-004,-1.123730e-004
-2.107467e-004,-1.352242e-004
-1.818991e-004,-1.525652e-004
-1.582375e-004,-1.630995e-004
-1.459206e-004,-1.715269e-004
-1.459206e-004,-1.812508e-004
-1.579134e-004,-1.909747e-004
-1.705545e-004,-1.981056e-004
-1.747682e-004,-2.066950e-004
-1.619650e-004,-2.237119e-004
-1.276072e-004,-2.567732e-004
-7.363943e-005,-3.042584e-004
-4.437533e-006,-3.548227e-004
7.011252e-005,-3.924218e-004
1.393144e-004,-3.998769e-004
1.976579e-004,-3.737844e-004
2.404432e-004,-3.214373e-004
2.600531e-004,-2.554767e-004
2.462775e-004,-1.895161e-004
2.025199e-004,-1.344139e-004
1.409351e-004,-9.503204e-005
7.092284e-005,-6.893953e-005
-9.299493e-006,-5.727083e-005
-9.373552e-005,-6.180866e-005
-1.661787e-004,-8.530812e-005
-2.086398e-004,-1.277692e-004
-2.126914e-004,-1.859507e-004
-1.844921e-004,-2.499665e-004
-1.360346e-004,-3.066893e-004
-8.239095e-005,-3.433161e-004
-3.911951e-005,-3.514194e-004
-1.497178e-005,-3.311612e-004
-1.189254e-005,-2.885380e-004
-2.372331e-005,-2.335979e-004
-4.430560e-005,-1.780095e-004
-6.926366e-005,-1.259865e-004
-9.794922e-005,-7.752899e-005
-1.306864e-004,-2.826114e-005
-1.588858e-004,2.019640e-005
-1.770371e-004,6.541262e-005
-1.861127e-004,1.104668e-004
-1.891920e-004,1.582761e-004
-1.864369e-004,2.055991e-004
-1.789819e-004,2.480603e-004
-1.643960e-004,2.822560e-004
-1.371690e-004,3.028383e-004
-9.146661e-005,3.077003e-004
-2.745081e-005,2.992729e-004
4.223728e-005,2.796630e-004
1.012291e-004,2.521119e-004
1.385041e-004,2.234263e-004
1.539003e-004,1.991165e-004
1.592484e-004,1.837203e-004
1.678379e-004,1.775618e-004
1.882582e-004,1.783722e-004
2.153231e-004,1.822617e-004
2.391467e-004,1.859892e-004
2.459534e-004,1.902029e-004
2.303951e-004,1.923098e-004
1.979821e-004,1.889064e-004
1.623277e-004,1.743205e-004
1.347766e-004,1.457970e-004
1.224596e-004,1.080358e-004
1.239182e-004,7.205730e-005
1.346145e-004,5.082674e-005
1.467694e-004,4.612685e-005
1.598967e-004,5.244739e-005
1.761032e-004,6.233338e-005
2.000889e-004,7.092284e-005
2.349330e-004,7.772959e-005
2.725321e-004,8.599492e-005
3.025142e-004,9.344993e-005
3.146691e-004,9.474644e-005
3.042970e-004,8.842590e-005
2.725321e-004,7.853991e-005
2.268297e-004,6.573675e-005
1.796687e-004,5.050261e-005
1.435281e-004,3.299956e-005
1.292664e-004,1.257933e-005
1.376938e-004,-8.975362e-006
1.655690e-004,-3.020592e-005
2.060853e-004,-4.236082e-005
2.422259e-004,-4.203669e-005
2.631324e-004,-3.620233e-005
2.681563e-004,-3.490581e-005
2.637806e-004,-4.236082e-005
2.597290e-004,-5.872941e-005
2.623220e-004,-7.833932e-005
2.619979e-004,-8.984595e-005
2.446569e-004,-8.563225e-005
2.028440e-004,-7.218083e-005
1.362352e-004,-5.808115e-005
4.645098e-005,-4.900550e-005
-6.569822e-005,-3.960571e-005
-1.914609e-004,-2.777494e-005
-3.091203e-004,-1.480971e-005
-3.886944e-004,-7.678839e-006
-4.037664e-004,-1.173047e-005
-3.363473e-004,-2.404744e-005
-1.927574e-004,-3.441962e-005
-6.544382e-006,-3.409549e-005
1.773998e-004,-1.983374e-005
3.167760e-004,2.531276e-006
3.926226e-004,2.181705e-005
4.046154e-004,2.489629e-005
3.673404e-004,6.744974e-006
3.034866e-004,-2.842320e-005
2.370398e-004,-7.282909e-005
1.837203e-004,-1.143178e-004
1.409351e-004,-1.404103e-004
8.567078e-005,-1.430034e-004
-4.761664e-006,-1.263107e-004
-1.365208e-004,-1.013526e-004
-3.010170e-004,-7.931171e-005
-4.747511e-004,-6.326724e-005
-6.379507e-004,-5.111234e-005
-7.862405e-004,-3.895745e-005
-9.218892e-004,-2.501983e-005
-1.053162e-003,-9.299493e-006
-1.185083e-003,4.800190e-006
-1.310684e-003,1.436204e-005
-1.408733e-003,2.165498e-005
-1.458325e-003,3.154097e-005
-1.445360e-003,4.596478e-005
-1.364976e-003,6.719535e-005
-1.227058e-003,9.555677e-005
-1.050407e-003,1.269974e-004
-8.523631e-004,1.595726e-004
-6.436231e-004,1.929580e-004
-4.288866e-004,2.261814e-004
-2.123673e-004,2.594049e-004
1.558884e-006,2.895490e-004
2.051129e-004,3.153174e-004
3.843572e-004,3.346032e-004
5.227611e-004,3.503235e-004
6.130316e-004,3.590750e-004
6.608408e-004,3.584268e-004
6.869333e-004,3.475684e-004
7.109190e-004,3.344411e-004
7.384702e-004,3.266619e-004
7.621317e-004,3.232586e-004
7.666696e-004,3.208276e-004
7.443045e-004,3.162898e-004
7.005468e-004,3.060797e-004
6.423654e-004,2.910076e-004
5.812666e-004,2.760976e-004
5.229231e-004,2.621599e-004
4.704139e-004,2.485465e-004
4.336251e-004,2.328261e-004
4.175806e-004,2.124059e-004
4.222805e-004,1.884202e-004
4.462662e-004,1.660552e-004
4.768966e-004,1.474177e-004
4.942376e-004,1.315353e-004
4.880791e-004,1.166253e-004
4.525868e-004,9.782569e-005
3.950536e-004,6.768154e-005
3.310377e-004,2.473423e-005
2.798251e-004,-2.647842e-005
2.543808e-004,-8.028410e-005
2.550291e-004,-1.319829e-004
2.746390e-004,-1.776853e-004
3.042970e-004,-2.194982e-004
3.443271e-004,-2.617972e-004
3.900295e-004,-3.010170e-004
4.264942e-004,-3.326198e-004
4.405939e-004,-3.489884e-004
4.297355e-004,-3.497987e-004
4.015361e-004,-3.402368e-004
3.632887e-004,-3.318095e-004
3.201794e-004,-3.271096e-004
2.783665e-004,-3.233821e-004
2.422259e-004,-3.149546e-004
2.171058e-004,-2.979378e-004
2.031682e-004,-2.742763e-004
1.996027e-004,-2.476975e-004
2.018716e-004,-2.203085e-004
1.999268e-004,-1.922712e-004
1.848548e-004,-1.665028e-004
1.586002e-004,-1.462447e-004
1.203528e-004,-1.329553e-004
7.319176e-005,-1.279313e-004
2.197911e-005,-1.290658e-004
-2.275091e-005,-1.316588e-004
-5.062615e-005,-1.314967e-004
-6.083626e-005,-1.255003e-004
-5.646050e-005,-1.146419e-004
-4.122636e-005,-1.086455e-004
-1.724069e-005,-1.144799e-004
1.209313e-005,-1.280934e-004
3.915804e-005,-1.439758e-004
5.325772e-005,-1.551583e-004
4.790957e-005,-1.567789e-004
1.711715e-005,-1.488377e-004
-3.539201e-005,-1.327933e-004
-9.713889e-005,-1.107524e-004
-1.527273e-004,-8.239095e-005
-1.943781e-004,-4.349527e-005
-2.237119e-004,6.907040e-006
-2.488320e-004,6.557468e-005
-2.793003e-004,1.248906e-004
-3.196545e-004,1.791825e-004
-3.669776e-004,2.242366e-004
-4.063595e-004,2.619979e-004
-4.214316e-004,2.918179e-004
-4.066836e-004,3.120761e-004
-3.676259e-004,3.253654e-004
-3.105789e-004,3.357376e-004
-2.457528e-004,3.490270e-004
-1.878955e-004,3.644232e-004
-1.489998e-004,3.816021e-004
-1.313347e-004,4.020224e-004
-1.329553e-004,4.266563e-004
-1.506204e-004,4.631210e-004
-1.841680e-004,5.326470e-004
-2.288980e-004,6.451205e-004
-2.794623e-004,7.741245e-004
-3.295405e-004,8.697432e-004
-3.692465e-004,8.925945e-004
-3.937184e-004,8.248511e-004
-4.016596e-004,6.773715e-004
-3.833462e-004,4.843516e-004
-3.306750e-004,2.866318e-004
-2.483458e-004,1.224596e-004
-1.511067e-004,7.393236e-006
-5.694670e-005,-5.419158e-005
1.889987e-005,-6.958779e-005
6.865393e-005,-5.613637e-005
9.458438e-005,-2.696461e-005
1.047945e-004,8.203562e-006
1.091703e-004,5.633696e-005
1.119254e-004,1.367214e-004
1.128978e-004,2.467637e-004
1.112771e-004,3.503235e-004
1.078737e-004,4.073705e-004
1.064152e-004,3.944053e-004
1.106288e-004,3.072141e-004
1.193804e-004,1.634622e-004
1.289422e-004,-4.599598e-006
1.389903e-004,-1.639098e-004
1.495245e-004,-2.917793e-004
1.576278e-004,-3.763774e-004
1.621656e-004,-4.159214e-004
1.618415e-004,-4.138145e-004
1.618415e-004,-3.770257e-004
1.686482e-004,-3.196545e-004
1.778860e-004,-2.580697e-004
1.788584e-004,-2.088019e-004
1.658931e-004,-1.883817e-004
1.474177e-004,-1.995642e-004
1.359110e-004,-2.365151e-004
1.362352e-004,-2.852967e-004
1.425557e-004,-3.290543e-004
1.443384e-004,-3.585502e-004
1.402868e-004,-3.773498e-004
1.336421e-004,-3.977700e-004
1.229458e-004,-4.254832e-004
1.062531e-004,-4.572480e-004
8.777764e-005,-4.870680e-004
6.719535e-005,-5.117019e-004
4.207521e-005,-5.355255e-004
1.501031e-005,-5.578905e-004
-1.205460e-005,-5.762039e-004
-3.879538e-005,-5.903036e-004
-6.375344e-005,-6.008379e-004
-8.433573e-005,-6.050515e-004
-9.308726e-005,-5.995413e-004
-9.065628e-005,-5.773384e-004
-8.141856e-005,-5.322842e-004
-6.812920e-005,-4.642168e-004
-4.835724e-005,-3.776739e-004
-1.983374e-005,-2.802727e-004
1.630683e-005,-1.833576e-004
4.758544e-005,-1.010285e-004
5.893001e-005,-4.219875e-005
3.753739e-005,-2.330684e-006
-1.740276e-005,3.105477e-005
-9.405965e-005,6.735741e-005
-1.724993e-004,1.125736e-004
-2.237119e-004,1.692965e-004
-2.276015e-004,2.354192e-004
-1.870851e-004,3.041349e-004
-1.198280e-004,3.673404e-004
-4.171256e-005,4.156358e-004
3.429608e-005,4.464283e-004
9.896015e-005,4.610142e-004
1.475797e-004,4.671726e-004
1.812893e-004,4.691174e-004
1.978200e-004,4.739794e-004
1.997648e-004,4.879170e-004
1.898788e-004,5.083373e-004
1.725378e-004,5.297299e-004
1.487142e-004,5.509604e-004
1.086841e-004,5.678153e-004
4.823370e-005,5.773771e-004
-2.161646e-005,5.770530e-004
-8.725291e-005,5.663567e-004
-1.256624e-004,5.469088e-004
-1.188556e-004,5.225990e-004
-7.315322e-005,4.958582e-004
-7.516774e-006,4.681450e-004
5.228533e-005,4.371906e-004
8.421220e-005,4.046154e-004
8.648112e-005,3.730126e-004
6.914012e-005,3.457857e-004
4.612685e-005,3.255275e-004
2.343770e-005,3.104554e-004
4.151929e-006,2.936006e-004
-1.383732e-005,2.697770e-004
-3.863332e-005,2.383363e-004
-7.866345e-005,2.034923e-004
-1.384655e-004,1.757791e-004
-2.036158e-004,1.628139e-004
-2.476975e-004,1.655690e-004
-2.525595e-004,1.754550e-004
-2.126914e-004,1.835583e-004
-1.441378e-004,1.840444e-004
-7.120844e-005,1.720516e-004
-7.354709e-006,1.425557e-004
4.726130e-005,9.539470e-005
9.733949e-005,3.834771e-005
1.440143e-004,-1.221667e-005
1.838824e-004,-4.527799e-005
2.128921e-004,-6.148453e-005
2.260194e-004,-6.618442e-005
2.216436e-004,-6.618442e-005
2.052750e-004,-6.618442e-005
1.936063e-004,-7.088431e-005
2.015475e-004,-8.368748e-005
2.300710e-004,-1.055663e-004
2.720459e-004,-1.326312e-004
3.080245e-004,-1.582375e-004
3.135347e-004,-1.784957e-004
2.733424e-004,-1.951884e-004
1.949028e-004,-2.110708e-004
1.041462e-004,-2.295462e-004
3.251336e-005,-2.502906e-004
3.017472e-006,-2.707109e-004
2.052053e-005,-2.888622e-004
7.384002e-005,-2.989102e-004
1.325077e-004,-2.998826e-004
1.681620e-004,-2.919414e-004
1.741585e-004,-2.786520e-004
1.560072e-004,-2.619593e-004
1.248906e-004,-2.446183e-004
8.923623e-005,-2.318152e-004
5.406805e-005,-2.204706e-004
2.165498e-005,-2.068571e-004
-8.813297e-006,-1.867610e-004
-3.522994e-005,-1.566169e-004
-5.111234e-005,-1.143178e-004
-4.657452e-005,-6.504996e-005
-2.210265e-005,-1.983374e-005
1.419998e-005,1.112074e-005
5.082674e-005,2.343770e-005
8.599492e-005,1.744129e-005
1.226217e-004,-8.720959e-007
1.626518e-004,-1.999580e-005
2.135403e-004,-2.955766e-005
2.749631e-004,-2.388537e-005
3.415720e-004,-6.544382e-006
4.025085e-004,1.711715e-005
4.436732e-004,4.191315e-005
4.546936e-004,6.573675e-005
4.316803e-004,9.085688e-005
3.854917e-004,1.218114e-004
3.347652e-004,1.595726e-004
2.983005e-004,1.991165e-004
2.884145e-004,2.279642e-004
3.086727e-004,2.386605e-004
3.465960e-004,2.286124e-004
3.827366e-004,1.987924e-004
3.982949e-004,1.629760e-004
3.812780e-004,1.339663e-004
3.279585e-004,1.187321e-004
2.449810e-004,1.167873e-004
1.399627e-004,1.214872e-004
1.436204e-005,1.312112e-004
-1.230693e-004,1.396385e-004
-2.538560e-004,1.443384e-004
-3.664914e-004,1.420695e-004
-4.658375e-004,1.325077e-004
-5.702075e-004,1.198666e-004
-6.995356e-004,1.127357e-004
-8.641939e-004,1.135460e-004
-1.057214e-003,1.171115e-004
-1.256716e-003,1.179218e-004
-1.427371e-003,1.141943e-004
-1.541141e-003,1.041462e-004
-1.582143e-003,9.231547e-005
-1.543410e-003,8.161915e-005
-1.429154e-003,7.205730e-005
-1.245858e-003,6.281957e-005
-1.000815e-003,5.568870e-005
-7.055320e-004,5.179914e-005
-3.891806e-004,4.661304e-005
-8.838737e-005,3.251336e-005
1.629760e-004,9.013889e-006
3.499994e-004,-2.242678e-005
4.728449e-004,-5.694670e-005
5.384815e-004,-8.725291e-005
5.516087e-004,-1.128592e-004
5.204921e-004,-1.318209e-004
4.589073e-004,-1.468929e-004
3.875985e-004,-1.611547e-004
3.289309e-004,-1.771992e-004
2.987867e-004,-1.919471e-004
3.012177e-004,-2.010227e-004
3.226103e-004,-2.052365e-004
3.491891e-004,-2.083157e-004
3.744712e-004,-2.151224e-004
3.981328e-004,-2.292221e-004
4.204978e-004,-2.501286e-004
4.368664e-004,-2.699005e-004
4.467524e-004,-2.775176e-004
4.491834e-004,-2.679557e-004
4.477248e-004,-2.475355e-004
4.530729e-004,-2.248464e-004
4.734932e-004,-2.055606e-004
5.091476e-004,-1.900023e-004
5.569569e-004,-1.765509e-004
6.076833e-004,-1.637477e-004
6.449584e-004,-1.536997e-004
6.592202e-004,-1.459206e-004
6.452826e-004,-1.381414e-004
6.088178e-004,-1.272830e-004
5.592257e-004,-1.062146e-004
4.995857e-004,-7.315322e-005
4.284390e-004,-3.085418e-005
3.480546e-004,1.776542e-005
2.704253e-004,6.622294e-005
2.025199e-004,1.117633e-004
1.433661e-004,1.495245e-004
9.134307e-005,1.770756e-004
4.677511e-005,1.947408e-004
3.989864e-006,2.093267e-004
-4.203669e-005,2.286124e-004
-8.563225e-005,2.600531e-004
-1.143178e-004,3.073762e-004
-1.256624e-004,3.712299e-004
-1.237176e-004,4.423766e-004
-1.180453e-004,5.072028e-004
-1.195039e-004,5.514466e-004
-1.261486e-004,5.683015e-004
-1.300382e-004,5.559844e-004
-1.285796e-004,5.127130e-004
-1.290658e-004,4.422146e-004
-1.433275e-004,3.574544e-004
-1.796301e-004,2.715597e-004
-2.386219e-004,2.007372e-004
-3.170615e-004,1.566554e-004
-3.997148e-004,1.451488e-004
-4.645409e-004,1.611932e-004
-4.904714e-004,1.932822e-004
-4.593548e-004,2.316917e-004
-3.720016e-004,2.668598e-004
-2.476975e-004,2.914938e-004
-1.167488e-004,3.057555e-004
3.827799e-006,3.122381e-004
1.083599e-004,3.080245e-004
1.838824e-004,2.882525e-004
2.167816e-004,2.504913e-004
2.094887e-004,2.005751e-004
1.785342e-004,1.503349e-004
1.402868e-004,1.065772e-004
9.944634e-005,7.221937e-005
5.828175e-005,4.466826e-005
2.424803e-005,2.133085e-005
9.662150e-006,-4.599598e-006
2.197911e-005,-3.911951e-005
6.589881e-005,-8.336335e-005
1.325077e-004,-1.344139e-004
2.030061e-004,-1.851404e-004
2.584324e-004,-2.288980e-004
2.879283e-004,-2.561249e-004
2.911697e-004,-2.634179e-004
2.751252e-004,-2.532078e-004
2.478982e-004,-2.319772e-004
2.154851e-004,-2.070192e-004
1.764274e-004,-1.836818e-004
1.231079e-004,-1.656925e-004
5.974033e-005,-1.574272e-004
-2.816880e-006,-1.673132e-004
-5.240886e-005,-1.981056e-004
-7.882551e-005,-2.415391e-004
-7.866345e-005,-2.812451e-004
-5.224680e-005,-3.073376e-004
-1.059602e-005,-3.167374e-004
2.959619e-005,-3.144685e-004
5.941620e-005,-3.099306e-004
7.384002e-005,-3.073376e-004
7.367795e-005,-3.066893e-004
6.006447e-005,-3.078238e-004
3.299956e-005,-3.126857e-004
-1.205460e-005,-3.181960e-004
-6.974985e-005,-3.185201e-004
-1.279313e-004,-3.092824e-004
-1.788198e-004,-2.906449e-004
-2.173914e-004,-2.653627e-004
-2.410529e-004,-2.378116e-004
-2.551526e-004,-2.096122e-004
-2.724935e-004,-1.838438e-004
-2.929138e-004,-1.564548e-004
-3.060411e-004,-1.233935e-004
-2.966413e-004,-8.401160e-005
-2.574215e-004,-4.057810e-005
-1.854645e-004,9.106227e-007
-9.422172e-005,3.251336e-005
-2.330684e-006,5.050261e-005
6.703327e-005,5.795762e-005
9.993253e-005,5.876794e-005
1.017153e-004,5.747142e-005
8.615699e-005,6.071273e-005
6.751948e-005,7.821578e-005
5.277153e-005,1.104668e-004
4.726130e-005,1.454729e-004
5.730935e-005,1.728619e-004
8.437427e-005,1.929580e-004
1.219734e-004,2.090025e-004
1.504969e-004,2.261814e-004
1.574657e-004,2.449810e-004
1.409351e-004,2.670219e-004
1.124116e-004,2.880904e-004
8.453633e-005,3.034866e-004
7.238143e-005,3.122381e-004
8.405014e-005,3.172622e-004
1.197045e-004,3.213138e-004
1.718896e-004,3.239069e-004
2.276400e-004,3.239069e-004
2.759355e-004,3.222862e-004
3.078624e-004,3.226103e-004
3.159656e-004,3.292550e-004
2.952213e-004,3.414099e-004
2.551911e-004,3.569682e-004
2.098128e-004,3.743092e-004
1.743205e-004,3.922984e-004
1.553589e-004,4.117463e-004
1.511452e-004,4.430249e-004
1.509831e-004,5.106062e-004
1.412592e-004,6.386379e-004
1.111150e-004,8.297130e-004
6.006447e-005,1.056281e-003
-2.816880e-006,1.255135e-003
-6.310517e-005,1.357236e-003
-1.065387e-004,1.323689e-003
-1.298761e-004,1.164054e-003
-1.381414e-004,9.159319e-004
-1.405724e-004,6.289139e-004
-1.493239e-004,3.550234e-004
-1.726613e-004,1.349386e-004
-2.135018e-004,-1.497178e-005
-2.733039e-004,-1.055663e-004
-3.462333e-004,-1.524032e-004
-4.201350e-004,-1.731475e-004
-4.753993e-004,-1.830335e-004
-5.011677e-004,-1.874093e-004
-4.920920e-004,-1.875713e-004
-4.494688e-004,-1.934057e-004
-3.783222e-004,-2.130156e-004
-2.903207e-004,-2.511010e-004
-2.028055e-004,-3.037722e-004
-1.344139e-004,-3.635742e-004
-9.227693e-005,-4.246728e-004
-7.363943e-005,-4.815578e-004
-6.715681e-005,-5.348772e-004
-5.953974e-005,-5.823624e-004
-3.782299e-005,-6.223925e-004
1.072688e-006,-6.569124e-004
4.774750e-005,-6.919185e-004
8.988449e-005,-7.321107e-004
1.205148e-004,-7.787855e-004
1.349386e-004,-8.312946e-004
1.362352e-004,-8.909347e-004
1.344524e-004,-9.598124e-004
1.375317e-004,-1.030149e-003
1.464453e-004,-1.085251e-003
1.577899e-004,-1.103564e-003
1.657311e-004,-1.072934e-003
1.655690e-004,-9.940083e-004
1.574657e-004,-8.836418e-004
1.443384e-004,-7.606342e-004
1.242423e-004,-6.432990e-004
9.798775e-005,-5.399013e-004
6.800567e-005,-4.454172e-004
3.429608e-005,-3.514194e-004
-5.571990e-006,-2.551526e-004
-5.402952e-005,-1.574272e-004
-1.023250e-004,-6.423963e-005
-1.337657e-004,1.987227e-005
-1.373311e-004,9.571884e-005
-1.141558e-004,1.639484e-004
-7.120844e-005,2.274780e-004
-1.805102e-005,2.822560e-004
3.299956e-005,3.268240e-004
7.205730e-005,3.610198e-004
9.814982e-005,3.871123e-004
1.193804e-004,4.078567e-004
1.495245e-004,4.313562e-004
1.944166e-004,4.613383e-004
2.474120e-004,4.934272e-004
2.989488e-004,5.177371e-004
3.352514e-004,5.321609e-004
3.514580e-004,5.358884e-004
3.574544e-004,5.326470e-004
3.590750e-004,5.240576e-004
3.649094e-004,5.146578e-004
3.793332e-004,5.072028e-004
3.958639e-004,5.008822e-004
4.002396e-004,4.927790e-004
3.811159e-004,4.807861e-004
3.315239e-004,4.670106e-004
2.577842e-004,4.580970e-004
1.765894e-004,4.577728e-004
1.085220e-004,4.634451e-004
6.978839e-005,4.721967e-004
6.119892e-005,4.751139e-004
7.367795e-005,4.702519e-004
9.458438e-005,4.600418e-004
1.135460e-004,4.441593e-004
1.182459e-004,4.253598e-004
1.075496e-004,4.038051e-004
8.615699e-005,3.790091e-004
5.698522e-005,3.525924e-004
2.068259e-005,3.263378e-004
-1.724069e-005,3.023522e-004
-5.208474e-005,2.820940e-004
-7.720486e-005,2.644289e-004
-8.822530e-005,2.488706e-004
-8.644259e-005,2.375260e-004
-7.979791e-005,2.294227e-004
-7.574627e-005,2.188885e-004
-8.255302e-005,2.036544e-004
-9.762509e-005,1.872858e-004
-1.154523e-004,1.715654e-004
-1.258245e-004,1.597346e-004
-1.220970e-004,1.527658e-004
-1.016767e-004,1.519555e-004
-6.845333e-005,1.532520e-004
-2.890940e-005,1.573037e-004
5.934648e-006,1.618415e-004
3.316162e-005,1.683241e-004
5.682316e-005,1.759412e-004
7.902610e-005,1.778860e-004
9.750156e-005,1.628139e-004
1.044704e-004,1.255389e-004
9.652917e-005,7.384002e-005
7.448828e-005,2.197911e-005
4.628891e-005,-2.323711e-005
1.646890e-005,-6.067420e-005
-6.706447e-006,-9.292520e-005
-1.643037e-005,-1.285796e-004
-1.367526e-005,-1.652063e-004
-1.682422e-006,-2.015090e-004
1.938607e-005,-2.352185e-004
4.564065e-005,-2.637420e-004
6.719535e-005,-2.875656e-004
7.886404e-005,-3.060411e-004
7.448828e-005,-3.222476e-004
5.244739e-005,-3.408851e-004
1.825161e-005,-3.608192e-004
-1.756482e-005,-3.779981e-004
-4.511593e-005,-3.898288e-004
-6.407757e-005,-3.967976e-004
-7.509801e-005,-4.006872e-004
-7.963584e-005,-4.027940e-004
-7.461182e-005,-4.045768e-004
-5.435365e-005,-4.032803e-004
-2.161646e-005,-3.948528e-004
2.181705e-005,-3.817256e-004
6.362991e-005,-3.647087e-004
9.977047e-005,-3.478539e-004
1.219734e-004,-3.368335e-004
1.239182e-004,-3.334301e-004
1.070634e-004,-3.360231e-004
7.740546e-005,-3.355370e-004
4.223728e-005,-3.211132e-004
4.638125e-006,-2.874036e-004
-2.939559e-005,-2.381357e-004
-5.532604e-005,-1.841680e-004
-6.910160e-005,-1.357104e-004
-6.715681e-005,-9.697683e-005
-4.268495e-005,-6.391550e-005
4.476060e-006,-3.620233e-005
6.768154e-005,-1.173047e-005
1.328318e-004,1.436204e-005
1.833962e-004,4.013043e-005
2.043026e-004,6.168512e-005
1.838824e-004,7.983644e-005
1.163011e-004,9.620504e-005
6.907040e-006,1.153287e-004
-1.290658e-004,1.427178e-004
-2.639041e-004,1.749688e-004
-3.669776e-004,2.080301e-004
-4.191627e-004,2.380122e-004
-4.152731e-004,2.621599e-004
-3.684362e-004,2.803113e-004
-2.932379e-004,2.919800e-004
-2.029675e-004,2.976523e-004
-1.123730e-004,2.992729e-004
-3.782299e-005,2.955454e-004
1.338965e-005,2.874421e-004
4.320967e-005,2.801492e-004
5.179914e-005,2.798251e-004
3.786152e-005,2.885766e-004
7.879432e-006,3.000832e-004
-2.501983e-005,3.089969e-004
-5.143648e-005,3.119140e-004
-6.602235e-005,3.057555e-004
-6.618442e-005,2.910076e-004
-4.932962e-005,2.728562e-004
-1.950961e-005,2.587566e-004
9.986281e-006,2.504913e-004
2.489629e-005,2.394708e-004
2.343770e-005,2.196988e-004
1.322759e-005,1.890685e-004
3.989864e-006,1.535762e-004
4.962256e-006,1.214872e-004
2.311357e-005,9.296373e-005
5.649903e-005,6.541262e-005
9.507057e-005,4.077869e-005
1.253768e-004,2.343770e-005
1.386662e-004,1.063454e-005
1.396385e-004,1.002961e-007
1.344524e-004,-8.651231e-006
1.315353e-004,-1.902341e-005
1.383420e-004,-3.458168e-005
1.555210e-004,-5.791909e-005
1.790204e-004,-8.547019e-005
2.059233e-004,-1.115627e-004
2.333123e-004,-1.347380e-004
2.571359e-004,-1.554824e-004
2.699391e-004,-1.742820e-004
2.675081e-004,-1.919471e-004
2.527602e-004,-2.099363e-004
2.323399e-004,-2.285739e-004
2.122438e-004,-2.475355e-004
2.026820e-004,-2.653627e-004
2.127300e-004,-2.838381e-004
2.423880e-004,-2.998826e-004
2.837146e-004,-3.065273e-004
3.229345e-004,-2.995585e-004
3.487029e-004,-2.815692e-004
3.521062e-004,-2.588801e-004
3.290929e-004,-2.352185e-004
2.799871e-004,-2.096122e-004
2.120818e-004,-1.815749e-004
1.355869e-004,-1.583996e-004
6.055066e-005,-1.441378e-004
-5.247859e-006,-1.345760e-004
-6.132246e-005,-1.208004e-004
-1.083214e-004,-9.892161e-005
-1.582375e-004,-6.877746e-005
-2.292221e-004,-3.344723e-005
-3.177098e-004,-2.238346e-007
-4.005251e-004,2.603075e-005
-4.449310e-004,4.256141e-005
-4.298589e-004,5.179914e-005
-3.536883e-004,5.779555e-005
-2.405667e-004,6.103686e-005
-1.224211e-004,6.362991e-005
-2.291298e-005,6.670914e-005
4.402000e-005,7.351589e-005
7.465034e-005,8.356394e-005
6.687121e-005,9.831188e-005
2.116879e-005,1.208390e-004
-4.932962e-005,1.493625e-004
-1.178833e-004,1.775618e-004
-1.548341e-004,1.970097e-004
-1.413827e-004,2.012234e-004
-7.914964e-005,1.940925e-004
1.841368e-005,1.855030e-004
1.325077e-004,1.884202e-004
2.446569e-004,2.099749e-004
3.402755e-004,2.459534e-004
4.193634e-004,2.872801e-004
4.859722e-004,3.245551e-004
5.266506e-004,3.522683e-004
5.175750e-004,3.666921e-004
4.326527e-004,3.712299e-004
2.679943e-004,3.689610e-004
4.807163e-005,3.574544e-004
-1.760647e-004,3.362238e-004
-3.538503e-004,3.080245e-004
-4.606514e-004,2.793389e-004
-5.071641e-004,2.592428e-004
-5.259637e-004,2.519498e-004
-5.415219e-004,2.556773e-004
-5.609698e-004,2.694529e-004
-5.797693e-004,2.927903e-004
-5.826865e-004,3.179104e-004
-5.593491e-004,3.315239e-004
-5.094330e-004,3.282826e-004
-4.412035e-004,3.057555e-004
-3.692465e-004,2.686426e-004
-3.063652e-004,2.237505e-004
-2.639041e-004,1.796687e-004
-2.504527e-004,1.440143e-004
-2.605007e-004,1.167873e-004
-2.802727e-004,9.636710e-005
-2.950206e-004,7.918817e-005
-2.942103e-004,6.589881e-005
-2.770314e-004,5.487838e-005
-2.567732e-004,4.564065e-005
-2.473734e-004,3.688912e-005
-2.541802e-004,2.651694e-005
-2.682799e-004,1.938607e-005
-2.694143e-004,2.116879e-005
-2.326255e-004,3.137890e-005
-1.455964e-004,4.547859e-005
-9.461558e-006,5.876794e-005
1.571416e-004,6.800567e-005
3.294171e-004,6.849186e-005
4.807861e-004,5.439218e-005
5.966629e-004,2.619281e-005
6.716992e-004,-1.351319e-005
7.105949e-004,-6.423963e-005
7.253428e-004,-1.214487e-004
7.274497e-004,-1.739578e-004
7.199947e-004,-2.117191e-004
7.075156e-004,-2.276015e-004
6.939021e-004,-2.240360e-004
6.812610e-004,-2.089640e-004
6.666752e-004,-1.934057e-004
6.449584e-004,-1.833576e-004
6.195141e-004,-1.775233e-004
5.929354e-004,-1.775233e-004
5.676532e-004,-1.861127e-004
5.407503e-004,-2.070192e-004
5.063924e-004,-2.400805e-004
4.668485e-004,-2.823795e-004
4.297355e-004,-3.258130e-004
3.952156e-004,-3.588744e-004
3.626405e-004,-3.731361e-004
3.320101e-004,-3.677880e-004
3.010556e-004,-3.494746e-004
2.701012e-004,-3.230579e-004
2.433604e-004,-2.899966e-004
2.196988e-004,-2.530457e-004
1.974959e-004,-2.162569e-004
1.822617e-004,-1.833576e-004
1.765894e-004,-1.554824e-004
1.636242e-004,-1.308485e-004
1.231079e-004,-1.057284e-004
5.520250e-005,-8.287715e-005
-1.886135e-005,-6.699475e-005
-7.590833e-005,-5.824322e-005
-9.940781e-005,-5.111234e-005
-8.482193e-005,-4.122636e-005
-4.819517e-005,-2.631635e-005
-1.562004e-005,-5.896120e-006
-7.354709e-006,1.841368e-005
-3.247483e-005,4.142696e-005
-8.579432e-005,5.909208e-005
-1.486757e-004,6.946425e-005
-2.036158e-004,7.400208e-005
-2.429977e-004,7.319176e-005
-2.724935e-004,6.914012e-005
-2.998826e-004,6.800567e-005
-3.288923e-004,7.481241e-005
-3.613053e-004,9.490851e-005
-4.014975e-004,1.240803e-004
-4.418518e-004,1.535762e-004
-4.745890e-004,1.770756e-004
-4.870680e-004,1.936063e-004
-4.713477e-004,2.073819e-004
-4.194868e-004,2.273159e-004
-3.371576e-004,2.534084e-004
-2.439701e-004,2.804733e-004
-1.488377e-004,3.039728e-004
-5.662256e-005,3.208276e-004
2.716521e-005,3.339549e-004
9.344993e-005,3.475684e-004
1.423936e-004,3.660439e-004
1.769136e-004,3.932708e-004
2.002510e-004,4.279528e-004
2.169437e-004,4.652279e-004
2.224539e-004,4.994237e-004
2.070577e-004,5.287575e-004
1.785342e-004,5.564707e-004
1.556830e-004,5.806184e-004
1.438522e-004,5.976353e-004
1.315353e-004,6.031455e-004
1.030118e-004,5.888838e-004
5.212327e-005,5.503122e-004
-1.043395e-005,4.841895e-004
-6.359137e-005,3.869503e-004
-8.352541e-005,2.641047e-004
-6.099833e-005,1.284560e-004
-3.951337e-006,1.883015e-006
6.022653e-005,-9.973194e-005
1.017153e-004,-1.697442e-004
1.096565e-004,-2.123673e-004
9.134307e-005,-2.391081e-004
5.698522e-005,-2.580697e-004
6.744974e-006,-2.739521e-004
-5.921561e-005,-2.851347e-004
-1.297140e-004,-2.942103e-004
-1.880575e-004,-3.029619e-004
-2.222533e-004,-3.141443e-004
-2.298704e-004,-3.293785e-004
-2.122053e-004,-3.431540e-004
-1.750923e-004,-3.460712e-004
-1.282554e-004,-3.319715e-004
-8.158062e-005,-3.034480e-004
-4.203669e-005,-2.668213e-004
-1.221667e-005,-2.308428e-004
4.313994e-006,-2.002124e-004
2.369211e-006,-1.804405e-004
-1.967167e-005,-1.737958e-004
-4.868137e-005,-1.773612e-004
-6.974985e-005,-1.830335e-004
-6.569822e-005,-1.864369e-004
-2.923353e-005,-1.878955e-004
3.251336e-005,-1.901644e-004
9.555677e-005,-1.912988e-004
1.391524e-004,-1.904885e-004
1.543865e-004,-1.838438e-004
1.440143e-004,-1.734716e-004
1.208390e-004,-1.622891e-004
9.928428e-005,-1.536997e-004
8.972242e-005,-1.473791e-004
9.134307e-005,-1.454344e-004
9.701536e-005,-1.436516e-004
9.798775e-005,-1.344139e-004
9.134307e-005,-1.144799e-004
8.226741e-005,-8.320128e-005
7.465034e-005,-4.479180e-005
7.302970e-005,-5.247859e-006
7.513654e-005,2.765140e-005
7.481241e-005,5.001642e-005
6.995045e-005,6.298164e-005
6.168512e-005,7.205730e-005
5.341979e-005,7.708133e-005
4.564065e-005,7.789165e-005
3.591673e-005,7.448828e-005
1.582063e-005,6.784360e-005
-1.837515e-005,5.649903e-005
-6.116039e-005,3.672706e-005
-9.584238e-005,8.365628e-006
-1.091317e-004,-2.339918e-005
-9.892161e-005,-4.900550e-005
-6.748094e-005,-6.099833e-005
-2.647842e-005,-5.548811e-005
9.500085e-006,-3.620233e-005
3.299956e-005,-5.247859e-006
4.855783e-005,3.121684e-005
5.860588e-005,6.525056e-005
6.865393e-005,9.377406e-005
8.469840e-005,1.195424e-004
1.114392e-004,1.422316e-004
1.446626e-004,1.602208e-004
1.739964e-004,1.728619e-004
1.830721e-004,1.752929e-004
1.564933e-004,1.645966e-004
9.247754e-005,1.451488e-004
1.079661e-005,1.253768e-004
-6.083626e-005,1.103047e-004
-9.940781e-005,1.007429e-004
-1.000561e-004,1.002567e-004
-7.931171e-005,1.072255e-004
-5.694670e-005,1.164632e-004
-4.544006e-005,1.250527e-004
-4.641245e-005,1.320215e-004
-5.078821e-005,1.376938e-004
-4.900550e-005,1.453108e-004
-3.377136e-005,1.582761e-004
-1.092015e-005,1.743205e-004
7.069105e-006,1.903650e-004
1.582063e-005,2.028440e-004
1.695509e-005,2.067336e-004
1.954813e-005,1.997648e-004
3.283749e-005,1.835583e-004
5.747142e-005,1.610312e-004
7.967438e-005,1.333180e-004
8.761557e-005,1.038221e-004
7.902610e-005,7.610894e-005
6.346784e-005,5.633696e-005
5.293359e-005,4.320967e-005
5.487838e-005,3.202716e-005
6.460230e-005,1.484824e-005
6.962632e-005,-5.571990e-006
6.962632e-005,-2.275091e-005
6.492643e-005,-3.101625e-005
6.119892e-005,-2.874733e-005
6.249545e-005,-2.015787e-005
6.914012e-005,-1.237873e-005
8.259155e-005,-9.623623e-006
1.000946e-004,-9.299493e-006
1.109530e-004,-1.464765e-005
1.031738e-004,-2.599222e-005
7.205730e-005,-3.847125e-005
2.052053e-005,-4.057810e-005
-3.296103e-005,-2.761287e-005
-6.180866e-005,-4.923729e-006
-4.868137e-005,1.727922e-005
3.503668e-006,3.591673e-005
7.513654e-005,4.709924e-005
1.479039e-004,5.439218e-005
2.091646e-004,6.346784e-005
2.482223e-004,7.789165e-005
2.624841e-004,9.717743e-005
2.540567e-004,1.171115e-004
2.316917e-004,1.315353e-004
2.017096e-004,1.396385e-004
1.658931e-004,1.406109e-004
1.284560e-004,1.406109e-004
9.296373e-005,1.440143e-004
5.941620e-005,1.506590e-004
3.121684e-005,1.592484e-004
1.825161e-005,1.688103e-004
2.732727e-005,1.817755e-004
4.888196e-005,1.996027e-004
6.638502e-005,2.185644e-004
6.622294e-005,2.302331e-004
4.256141e-005,2.295848e-004
-1.520357e-006,2.224539e-004
-5.402952e-005,2.203471e-004
-1.015147e-004,2.278021e-004
-1.391138e-004,2.384984e-004
-1.749302e-004,2.449810e-004
-2.237119e-004,2.441707e-004
-2.963172e-004,2.344468e-004
-3.972838e-004,2.213195e-004
-5.209396e-004,2.124059e-004
-6.499436e-004,2.111094e-004
-7.536653e-004,2.146748e-004
-7.980713e-004,2.169437e-004
-7.648479e-004,2.167816e-004
-6.622606e-004,2.135403e-004
-5.133225e-004,2.085163e-004
-3.454229e-004,1.986303e-004
-1.796301e-004,1.837203e-004
-3.263690e-005,1.678379e-004
8.372601e-005,1.522796e-004
1.589243e-004,1.313732e-004
1.817755e-004,1.038221e-004
1.508211e-004,7.286763e-005
8.712937e-005,4.256141e-005
2.489629e-005,1.744129e-005
-2.226472e-005,-1.196227e-006
-6.958779e-005,-1.545797e-005
-1.358725e-004,-2.971972e-005
-2.216050e-004,-4.722278e-005
-2.982619e-004,-6.893953e-005
-3.258130e-004,-9.373552e-005
-2.721694e-004,-1.208004e-004
-1.336036e-004,-1.454344e-004
5.974033e-005,-1.642339e-004
2.585945e-004,-1.771992e-004
4.200116e-004,-1.874093e-004
5.169268e-004,-1.971332e-004
5.465847e-004,-2.112329e-004
5.219508e-004,-2.321393e-004
4.694416e-004,-2.598524e-004
4.232529e-004,-2.927517e-004
4.093153e-004,-3.241924e-004
4.303838e-004,-3.449367e-004
4.671726e-004,-3.512573e-004
4.992616e-004,-3.426678e-004
5.088235e-004,-3.254889e-004
4.898618e-004,-3.086341e-004
4.425387e-004,-2.969654e-004
3.725265e-004,-2.862691e-004
2.890628e-004,-2.726556e-004
2.046267e-004,-2.545043e-004
1.344524e-004,-2.303566e-004
8.923623e-005,-2.023193e-004
7.270556e-005,-1.759026e-004
7.335383e-005,-1.561307e-004
7.562274e-005,-1.467309e-004
6.703327e-005,-1.480274e-004
4.580272e-005,-1.520790e-004
1.727922e-005,-1.525652e-004
-1.318906e-005,-1.472171e-004
-4.608832e-005,-1.371690e-004
-7.833932e-005,-1.277692e-004
-9.859748e-005,-1.131834e-004
-9.243900e-005,-8.903562e-005
-5.030202e-005,-5.419158e-005
2.343770e-005,-1.529591e-005
1.125736e-004,1.630683e-005
1.999268e-004,3.705119e-005
2.676702e-004,4.904402e-005
2.952213e-004,6.038860e-005
2.722080e-004,7.481241e-005
2.038164e-004,9.328786e-005
1.179218e-004,1.158149e-004
4.418206e-005,1.388282e-004
3.827799e-006,1.597346e-004
3.341602e-006,1.759412e-004
3.591673e-005,1.851789e-004
9.085688e-005,1.872858e-004
1.542244e-004,1.835583e-004
2.125679e-004,1.754550e-004
2.566497e-004,1.660552e-004
2.825802e-004,1.556830e-004
2.939248e-004,1.466074e-004
2.984626e-004,1.389903e-004
3.017039e-004,1.328318e-004
3.057555e-004,1.315353e-004
3.049452e-004,1.341283e-004
2.876042e-004,1.394765e-004
2.511395e-004,1.446626e-004
2.023578e-004,1.501728e-004
1.527658e-004,1.577899e-004
1.116012e-004,1.678379e-004
8.583286e-005,1.806411e-004
7.886404e-005,1.983062e-004
8.729144e-005,2.208333e-004
1.013911e-004,2.428742e-004
1.163011e-004,2.582704e-004
1.312112e-004,2.641047e-004
1.427178e-004,2.564877e-004
1.500107e-004,2.320158e-004
1.551968e-004,1.952270e-004
1.645966e-004,1.537382e-004
1.872858e-004,1.177597e-004
2.295848e-004,9.393612e-005
2.932765e-004,8.583286e-005
3.738230e-004,9.037068e-005
4.558281e-004,1.078737e-004
5.209784e-004,1.352628e-004
5.587396e-004,1.678379e-004
5.691118e-004,2.062474e-004
5.584154e-004,2.456293e-004
5.347540e-004,2.840388e-004
4.976409e-004,3.169380e-004
4.431870e-004,3.397893e-004
3.587509e-004,3.461098e-004
2.263435e-004,3.276344e-004
3.850978e-005,2.749631e-004
-2.015090e-004,1.906891e-004
-4.901472e-004,9.215340e-005
-8.173570e-004,-3.465141e-006
-1.165311e-003,-8.514606e-005
-1.498842e-003,-1.462447e-004
-1.772894e-003,-1.870851e-004
-1.943063e-003,-2.104225e-004
-1.977583e-003,-2.206326e-004
-1.868189e-003,-2.230636e-004
-1.641459e-003,-2.209568e-004
-1.347959e-003,-2.144742e-004
-1.038414e-003,-2.086398e-004
-7.612825e-004,-2.049123e-004
-5.450874e-004,-2.070192e-004
-3.943667e-004,-2.175534e-004
-2.998826e-004,-2.345703e-004
-2.452666e-004,-2.481838e-004
-2.083157e-004,-2.522354e-004
-1.703924e-004,-2.489941e-004
-1.276072e-004,-2.438080e-004
-8.158062e-005,-2.374874e-004
-3.360929e-005,-2.264670e-004
1.776542e-005,-2.133397e-004
7.708133e-005,-2.003745e-004
1.446626e-004,-1.916230e-004
2.145127e-004,-1.835197e-004
2.783665e-004,-1.689338e-004
3.282826e-004,-1.442999e-004
3.606957e-004,-1.138316e-004
3.799815e-004,-7.931171e-005
3.950536e-004,-4.625038e-005
4.128807e-004,-2.064406e-005
4.345975e-004,-5.571990e-006
4.577728e-004,4.313994e-006
4.790034e-004,1.484824e-005
4.974789e-004,3.040651e-005
5.104441e-004,4.709924e-005
5.093097e-004,6.006447e-005
4.869446e-004,7.189524e-005
4.428628e-004,8.340187e-005
3.777126e-004,9.669123e-005
2.919800e-004,1.127357e-004
1.979821e-004,1.276457e-004
1.143563e-004,1.457970e-004
6.022653e-005,1.697827e-004
4.207521e-005,2.010613e-004
5.423012e-005,2.359054e-004
8.048470e-005,2.702632e-004
1.104668e-004,3.025142e-004
1.299146e-004,3.289309e-004
1.263492e-004,3.433547e-004
9.280167e-005,3.435168e-004
3.397195e-005,3.371962e-004
-2.566809e-005,3.341170e-004
-6.164659e-005,3.405996e-004
-5.548811e-005,3.589129e-004
-8.975362e-006,3.854917e-004
6.800567e-005,4.088291e-004
1.594105e-004,4.206599e-004
2.470879e-004,4.140152e-004
3.167760e-004,3.892192e-004
3.632887e-004,3.514580e-004
3.921364e-004,3.085106e-004
4.141773e-004,2.636185e-004
4.384871e-004,2.203471e-004
4.627969e-004,1.814514e-004
4.765725e-004,1.469315e-004
4.705760e-004,1.151667e-004
4.452938e-004,8.615699e-005
4.091532e-004,6.071273e-005
3.610198e-004,3.867184e-005
2.976523e-004,1.630683e-005
2.128921e-004,-1.075808e-005
9.798775e-005,-4.381940e-005
-4.479180e-005,-7.590833e-005
-2.002124e-004,-9.859748e-005
-3.462333e-004,-1.102662e-004
-4.553032e-004,-1.118868e-004
-5.099192e-004,-1.068628e-004
-5.066779e-004,-9.778715e-005
-4.593548e-004,-8.984595e-005
-3.929081e-004,-8.984595e-005
-3.316474e-004,-1.032974e-004
-2.896725e-004,-1.295519e-004
-2.643903e-004,-1.676373e-004
-2.452666e-004,-2.154466e-004
-2.227395e-004,-2.721694e-004
-1.836818e-004,-3.308371e-004
-1.190177e-004,-3.856151e-004
-3.830919e-005,-4.293727e-004
3.299956e-005,-4.549791e-004
7.546067e-005,-4.575721e-004
8.080883e-005,-4.365036e-004
5.617490e-005,-3.982562e-004
2.635488e-005,-3.532020e-004
2.295151e-005,-3.112272e-004
5.228533e-005,-2.794623e-004
1.010670e-004,-2.569353e-004
1.526038e-004,-2.373254e-004
1.902029e-004,-2.180396e-004
2.073819e-004,-1.992400e-004
2.030061e-004,-1.806025e-004
1.752929e-004,-1.645581e-004
1.227837e-004,-1.546721e-004
4.888196e-005,-1.524032e-004
-4.738484e-005,-1.502963e-004
-1.682856e-004,-1.415448e-004
-3.053928e-004,-1.259865e-004
-4.378002e-004,-1.050801e-004
-5.471942e-004,-8.433573e-005
-6.152617e-004,-6.715681e-005
-6.240131e-004,-5.548811e-005
-5.638869e-004,-4.608832e-005
-4.399070e-004,-3.182657e-005
-2.768693e-004,-3.951337e-006
-1.079973e-004,3.737532e-005
4.110282e-005,8.291568e-005
1.607070e-004,1.222976e-004
2.480603e-004,1.519555e-004
3.013798e-004,1.769136e-004
3.292550e-004,2.060853e-004
3.373583e-004,2.438466e-004
3.268240e-004,2.858215e-004
2.999212e-004,3.252034e-004
2.589186e-004,3.587509e-004
2.044647e-004,3.864641e-004
1.435281e-004,4.133669e-004
9.150514e-005,4.436732e-004
6.444023e-005,4.718725e-004
6.719535e-005,4.921307e-004
9.280167e-005,4.992616e-004
1.281319e-004,4.960203e-004
1.586002e-004,4.849998e-004
1.725378e-004,4.702519e-004
1.631380e-004,4.553419e-004
1.326697e-004,4.402698e-004
9.733949e-005,4.248736e-004
7.351589e-005,4.114222e-004
7.059871e-005,4.031568e-004
9.507057e-005,4.010500e-004
1.495245e-004,3.995914e-004
2.297469e-004,3.921364e-004
3.218000e-004,3.722023e-004
4.049396e-004,3.371962e-004
4.623107e-004,2.947351e-004
4.885653e-004,2.514636e-004
4.877550e-004,2.102990e-004
4.699278e-004,1.736723e-004
4.454559e-004,1.419075e-004
4.209840e-004,1.135460e-004
4.012120e-004,8.372601e-005
3.888950e-004,5.196120e-005
3.832228e-004,1.776542e-005
3.859779e-004,-1.821308e-005
3.906778e-004,-5.548811e-005
3.840331e-004,-9.179074e-005
3.559958e-004,-1.251762e-004
3.013798e-004,-1.520790e-004
2.258573e-004,-1.708786e-004
1.436902e-004,-1.844921e-004
7.092284e-005,-1.994021e-004
1.436204e-005,-2.212809e-004
-3.474375e-005,-2.493182e-004
-8.093236e-005,-2.744383e-004
-1.251762e-004,-2.942103e-004
-1.716889e-004,-3.109030e-004
-2.169052e-004,-3.261372e-004
-2.548284e-004,-3.376438e-004
-2.818933e-004,-3.381300e-004
-2.997205e-004,-3.191683e-004
-3.078238e-004,-2.814071e-004
-3.068514e-004,-2.371633e-004
-3.016653e-004,-1.985918e-004
-2.972895e-004,-1.754164e-004
-2.932379e-004,-1.712027e-004
-2.838381e-004,-1.836818e-004
-2.655248e-004,-2.047502e-004
-2.382978e-004,-2.264670e-004
-2.021572e-004,-2.412149e-004
-1.618029e-004,-2.470493e-004
-1.238797e-004,-2.417012e-004
-9.211487e-005,-2.248464e-004
-6.537409e-005,-2.005366e-004
-3.944364e-005,-1.784957e-004
-1.416145e-005,-1.640719e-004
6.096713e-006,-1.577513e-004
2.197911e-005,-1.566169e-004
3.543054e-005,-1.546721e-004
4.985435e-005,-1.467309e-004
6.541262e-005,-1.381414e-004
8.340187e-005,-1.347380e-004
1.028497e-004,-1.360346e-004
1.198666e-004,-1.332795e-004
1.328318e-004,-1.248521e-004
1.441764e-004,-1.086455e-004
1.503349e-004,-8.060823e-005
1.498487e-004,-3.668853e-005
1.419075e-004,1.776542e-005
1.257009e-004,7.708133e-005
9.798775e-005,1.425557e-004
6.346784e-005,2.161334e-004
3.186510e-005,2.957075e-004
8.689758e-006,3.804677e-004
-5.247859e-006,4.624728e-004
-1.318906e-005,5.323229e-004
-2.064406e-005,5.811046e-004
-3.263690e-005,6.008766e-004
-5.516398e-005,5.942319e-004
-9.162867e-005,5.728393e-004
-1.360346e-004,5.470709e-004
-1.822232e-004,5.240576e-004
-2.240360e-004,5.033132e-004
-2.491561e-004,4.824068e-004
-2.514251e-004,4.548557e-004
-2.404046e-004,4.166082e-004
-2.308428e-004,3.709058e-004
-2.335979e-004,3.323342e-004
-2.506147e-004,3.106175e-004
-2.721694e-004,3.028383e-004
-2.885380e-004,3.004074e-004
-2.927517e-004,2.942489e-004
-2.814071e-004,2.837146e-004
-2.532078e-004,2.686426e-004
-2.110708e-004,2.509774e-004
-1.618029e-004,2.276400e-004
-1.126972e-004,1.986303e-004
-6.748094e-005,1.592484e-004
-2.501983e-005,1.103047e-004
1.792748e-005,6.022653e-005
6.330578e-005,1.582063e-005
1.103047e-004,-2.096820e-005
1.532520e-004,-4.949169e-005
1.843686e-004,-7.169464e-005
1.986303e-004,-9.049421e-005
1.927960e-004,-1.076731e-004
1.694586e-004,-1.253383e-004
1.383420e-004,-1.446240e-004
1.067393e-004,-1.715269e-004
8.113296e-005,-2.039399e-004
6.184718e-005,-2.394322e-004
5.034055e-005,-2.760590e-004
4.304761e-005,-3.115513e-004
3.105477e-005,-3.369955e-004
8.365628e-006,-3.480160e-004
-2.583016e-005,-3.491504e-004
-6.586029e-005,-3.476919e-004
-1.092938e-004,-3.486642e-004
-1.569410e-004,-3.506090e-004
-1.997262e-004,-3.497987e-004
-2.167431e-004,-3.450988e-004
-1.917850e-004,-3.331060e-004
-1.271210e-004,-3.164132e-004
-4.446767e-005,-2.932379e-004
3.235129e-005,-2.647144e-004
9.312580e-005,-2.365151e-004
1.462832e-004,-2.120432e-004
2.073819e-004,-1.903264e-004
2.814457e-004,-1.699062e-004
3.576164e-004,-1.485136e-004
4.200116e-004,-1.263107e-004
4.563143e-004,-1.020008e-004
4.642555e-004,-8.158062e-005
4.504799e-004,-7.428769e-005
4.264942e-004,-8.303922e-005
4.055878e-004,-1.044318e-004
3.984569e-004,-1.272830e-004
4.106118e-004,-1.318209e-004
4.446456e-004,-1.049180e-004
4.961824e-004,-4.430560e-005
5.567948e-004,3.802358e-005
6.204865e-004,1.214872e-004
6.747784e-004,1.914995e-004
7.101087e-004,2.419018e-004
7.237222e-004,2.764217e-004
7.101087e-004,3.060797e-004
6.639201e-004,3.362238e-004
5.869390e-004,3.666921e-004
4.759242e-004,3.952156e-004
3.195311e-004,4.188772e-004
1.057669e-004,4.331389e-004
-1.588858e-004,4.383250e-004
-4.629203e-004,4.339493e-004
-7.911025e-004,4.182289e-004
-1.120419e-003,3.914881e-004
-1.408571e-003,3.584268e-004
-1.610181e-003,3.221241e-004
-1.684893e-003,2.843629e-004
-1.612450e-003,2.419018e-004
-1.400468e-003,1.981441e-004
-1.088492e-003,1.586002e-004
-7.313004e-004,1.273216e-004
-3.810773e-004,1.069013e-004
-7.688073e-005,9.620504e-005
1.628139e-004,9.134307e-005
3.277964e-004,8.729144e-005
4.164462e-004,8.259155e-005
4.354078e-004,8.032264e-005
4.054258e-004,8.453633e-005
3.499994e-004,9.523264e-005
2.845250e-004,1.056048e-004
2.258573e-004,1.093323e-004
1.825859e-004,1.065772e-004
1.454729e-004,1.000946e-004
1.069013e-004,9.037068e-005
6.006447e-005,7.967438e-005
-6.058186e-006,7.254349e-005
-9.389759e-005,6.687121e-005
-1.835197e-004,5.649903e-005
-2.488320e-004,3.672706e-005
-2.750866e-004,7.717366e-006
-2.703867e-004,-2.291298e-005
-2.449425e-004,-4.722278e-005
-1.989159e-004,-6.002594e-005
-1.148040e-004,-6.748094e-005
2.732727e-005,-7.947377e-005
2.172679e-004,-9.811128e-005
4.122325e-004,-1.170729e-004
5.567948e-004,-1.298761e-004
6.075213e-004,-1.337657e-004
5.454503e-004,-1.361966e-004
3.804677e-004,-1.452723e-004
1.550348e-004,-1.608306e-004
-7.072225e-005,-1.780095e-004
-2.357047e-004,-1.950263e-004
-3.058790e-004,-2.122053e-004
-2.838381e-004,-2.284118e-004
-1.938919e-004,-2.386219e-004
-7.914964e-005,-2.410529e-004
2.748934e-005,-2.376495e-004
1.031738e-004,-2.345703e-004
1.438522e-004,-2.295462e-004
1.605450e-004,-2.224154e-004
1.637863e-004,-2.144742e-004
1.602208e-004,-2.076674e-004
1.534141e-004,-2.052365e-004
1.477418e-004,-2.044261e-004
1.467694e-004,-2.041020e-004
1.467694e-004,-2.021572e-004
1.479039e-004,-1.963229e-004
1.564933e-004,-1.849783e-004
1.801549e-004,-1.673132e-004
2.151610e-004,-1.452723e-004
2.555152e-004,-1.214487e-004
2.970040e-004,-9.324933e-005
3.367100e-004,-5.791909e-005
3.649094e-004,-1.643037e-005
3.725265e-004,2.619281e-005
3.668542e-004,6.460230e-005
3.645853e-004,9.571884e-005
3.841952e-004,1.218114e-004
4.276287e-004,1.456350e-004
4.827309e-004,1.680000e-004
5.323229e-004,1.877720e-004
5.584154e-004,2.065715e-004
5.529052e-004,2.245608e-004
5.190336e-004,2.394708e-004
4.673347e-004,2.461155e-004
4.060740e-004,2.441707e-004
3.409237e-004,2.363916e-004
2.782044e-004,2.274780e-004
2.216436e-004,2.248849e-004
1.712413e-004,2.289366e-004
1.274836e-004,2.391467e-004
8.907416e-005,2.506533e-004
5.520250e-005,2.600531e-004
2.084466e-005,2.658874e-004
-1.497178e-005,2.662116e-004
-4.268495e-005,2.598910e-004
-4.835724e-005,2.490327e-004
-2.988179e-005,2.323399e-004
6.582909e-006,2.067336e-004
5.066468e-005,1.739964e-004
8.599492e-005,1.368834e-004
9.717743e-005,9.928428e-005
7.708133e-005,6.379197e-005
3.218923e-005,2.813760e-005
-2.696461e-005,-8.489166e-006
-8.790117e-005,-4.414354e-005
-1.324691e-004,-7.331530e-005
-1.520790e-004,-9.438378e-005
-1.400862e-004,-1.020008e-004
-1.054042e-004,-9.503204e-005
-6.521203e-005,-7.979791e-005
-3.312309e-005,-6.229485e-005
-1.399939e-005,-5.013995e-005
-5.896120e-006,-4.868137e-005
-9.137427e-006,-5.500191e-005
-2.031993e-005,-6.018800e-005
-3.377136e-005,-5.613637e-005
-4.689865e-005,-3.766092e-005
-5.937768e-005,-7.192643e-006
-7.282909e-005,3.121684e-005
-8.806324e-005,7.335383e-005
-1.086455e-004,1.180839e-004
-1.363587e-004,1.586002e-004
-1.707166e-004,1.879340e-004
-2.005366e-004,2.033302e-004
-2.112329e-004,2.083542e-004
-1.997262e-004,2.101370e-004
-1.747682e-004,2.059233e-004
-1.533756e-004,1.981441e-004
-1.494860e-004,1.910133e-004
-1.643960e-004,1.863134e-004
-1.877334e-004,1.791825e-004
-2.070192e-004,1.633001e-004
-2.144742e-004,1.365593e-004
-2.092881e-004,9.928428e-005
-1.916230e-004,5.504044e-005
-1.676373e-004,7.879432e-006
-1.473791e-004,-3.490581e-005
-1.384655e-004,-6.375344e-005
-1.426792e-004,-6.861539e-005
-1.551583e-004,-5.127441e-005
-1.613168e-004,-2.356124e-005
-1.496481e-004,-1.034161e-006
-1.212866e-004,5.124321e-006
-8.692878e-005,-3.465141e-006
-5.321920e-005,-2.177852e-005
-2.907146e-005,-4.171256e-005
-2.339918e-005,-5.808115e-005
-3.198864e-005,-6.910160e-005
-4.868137e-005,-7.412562e-005
-6.748094e-005,-7.072225e-005
-8.287715e-005,-5.840528e-005
-8.628052e-005,-3.847125e-005
-7.785312e-005,-1.464765e-005
-6.456377e-005,8.851824e-006
-5.581224e-005,2.748934e-005
-4.641245e-005,4.126489e-005
-3.166451e-005,5.131294e-005
-9.785688e-006,5.682316e-005
9.662150e-006,5.682316e-005
1.371378e-005,5.374392e-005
5.448452e-006,4.726130e-005
-1.108221e-005,3.980630e-005
-3.134038e-005,3.462021e-005
-6.083626e-005,3.624086e-005
-1.122110e-004,4.515445e-005
-1.891920e-004,5.747142e-005
-2.796244e-004,6.930219e-005
-3.619536e-004,8.242948e-005
-4.138145e-004,1.010670e-004
-4.159214e-004,1.239182e-004
-3.668155e-004,1.446626e-004
-2.791382e-004,1.595726e-004
-1.718510e-004,1.645966e-004
-6.035007e-005,1.605450e-004
4.077869e-005,1.480659e-004
1.159770e-004,1.273216e-004
1.524417e-004,1.005808e-004
1.514693e-004,7.610894e-005
1.323456e-004,5.795762e-005
1.172735e-004,4.612685e-005
1.114392e-004,4.418206e-005
1.103047e-004,5.228533e-005
1.070634e-004,6.573675e-005
1.015532e-004,8.064677e-005
9.571884e-005,9.231547e-005
8.875003e-005,9.588091e-005
8.421220e-005,8.842590e-005
8.842590e-005,7.302970e-005
1.009049e-004,5.811968e-005
1.167873e-004,4.790957e-005
1.274836e-004,4.385793e-005
1.297526e-004,4.531652e-005
1.210010e-004,5.115087e-005
1.004187e-004,5.698522e-005
6.962632e-005,5.974033e-005
3.218923e-005,5.811968e-005
-1.140634e-005,5.098881e-005
-6.602235e-005,4.158902e-005
-1.285796e-004,3.413401e-005
-1.882196e-004,2.667901e-005
-2.378116e-004,1.663096e-005
-2.711970e-004,4.151929e-006
-2.843243e-004,-8.489166e-006
-2.703867e-004,-1.545797e-005
-2.279256e-004,-1.643037e-005
-1.609926e-004,-1.480971e-005
-7.607040e-005,-1.918548e-005
1.889987e-005,-3.506788e-005
1.153287e-004,-6.213279e-005
2.068957e-004,-9.243900e-005
2.910076e-004,-1.154523e-004
3.676645e-004,-1.319829e-004
4.363802e-004,-1.436516e-004
4.901859e-004,-1.530514e-004
5.237334e-004,-1.632615e-004
5.323229e-004,-1.746061e-004
5.094717e-004,-1.802784e-004
4.522626e-004,-1.763888e-004
3.747954e-004,-1.639098e-004
2.997591e-004,-1.455964e-004
2.383363e-004,-1.292278e-004
1.949028e-004,-1.209625e-004
1.658931e-004,-1.173971e-004
1.475797e-004,-1.131834e-004
1.370455e-004,-1.079973e-004
1.373696e-004,-1.041077e-004
1.506590e-004,-9.973194e-005
1.744826e-004,-9.308726e-005
2.044647e-004,-7.947377e-005
2.323399e-004,-6.018800e-005
2.517878e-004,-3.879538e-005
2.600531e-004,-2.372331e-005
2.542187e-004,-1.983374e-005
2.342847e-004,-2.615429e-005
2.033302e-004,-3.344723e-005
1.676758e-004,-3.328516e-005
1.383420e-004,-2.356124e-005
1.247285e-004,-7.030578e-006
1.289422e-004,1.241726e-005
1.466074e-004,3.202716e-005
1.671896e-004,4.969229e-005
1.796687e-004,6.265751e-005
1.773998e-004,7.140904e-005
1.574657e-004,7.756752e-005
1.226217e-004,7.740546e-005
7.951231e-005,7.465034e-005
3.607880e-005,7.967438e-005
3.827799e-006,1.031738e-004
-1.351319e-005,1.454729e-004
-1.918548e-005,1.999268e-004
-1.594417e-005,2.542187e-004
-2.006553e-006,3.015418e-004
2.359977e-005,3.386548e-004
5.714729e-005,3.668542e-004
9.004655e-005,3.898674e-004
1.154908e-004,4.051016e-004
1.357490e-004,4.104497e-004
1.587623e-004,3.984569e-004
1.958752e-004,3.636129e-004
2.470879e-004,3.080245e-004
2.966799e-004,2.431983e-004
3.266619e-004,1.869616e-004
3.266619e-004,1.479039e-004
2.992729e-004,1.282940e-004
2.618358e-004,1.232699e-004
2.391467e-004,1.248906e-004
2.459534e-004,1.265113e-004
2.749631e-004,1.237561e-004
3.046211e-004,1.138702e-004
3.174242e-004,9.604298e-005
3.093210e-004,7.416415e-005
2.848491e-004,5.423012e-005
2.500050e-004,4.175109e-005
2.017096e-004,3.591673e-005
1.378558e-004,3.202716e-005
5.244739e-005,2.408596e-005
-6.051213e-005,7.879432e-006
-1.937298e-004,-1.059602e-005
-3.293785e-004,-2.485776e-005
-4.470379e-004,-3.215070e-005
-5.423322e-004,-3.522994e-005
-6.254718e-004,-3.766092e-005
-7.076389e-004,-4.187462e-005
-7.943438e-004,-5.095028e-005
-8.870451e-004,-6.326724e-005
-9.850947e-004,-7.396356e-005
-1.079417e-003,-8.303922e-005
-1.153967e-003,-9.438378e-005
-1.206638e-003,-1.101041e-004
-1.240834e-003,-1.331174e-004
-1.257851e-003,-1.593720e-004
-1.257526e-003,-1.780095e-004
-1.225113e-003,-1.859507e-004
-1.137598e-003,-1.859507e-004
-9.815291e-004,-1.817370e-004
-7.677651e-004,-1.773612e-004
-5.194810e-004,-1.747682e-004
-2.655248e-004,-1.742820e-004
-3.215070e-005,-1.746061e-004
1.602208e-004,-1.752544e-004
3.017039e-004,-1.780095e-004
3.957018e-004,-1.825473e-004
4.551798e-004,-1.878955e-004
4.952099e-004,-1.940539e-004
5.271368e-004,-1.951884e-004
5.601982e-004,-1.862748e-004
5.984457e-004,-1.703924e-004
6.345862e-004,-1.588858e-004
6.509548e-004,-1.575893e-004
6.415551e-004,-1.652063e-004
6.141660e-004,-1.721751e-004
5.851563e-004,-1.723372e-004
5.647360e-004,-1.645581e-004
5.553362e-004,-1.491618e-004
5.579292e-004,-1.258245e-004
5.731634e-004,-9.049421e-005
6.007145e-004,-4.738484e-005
6.350724e-004,-4.599598e-006
6.671614e-004,3.413401e-005
6.945504e-004,6.719535e-005
7.248566e-004,8.939829e-005
7.669937e-004,1.005808e-004
8.220959e-004,1.059290e-004
8.739569e-004,1.090082e-004
8.963220e-004,1.081979e-004
8.755776e-004,1.025256e-004
8.156133e-004,9.247754e-005
7.183740e-004,8.664318e-005
5.767288e-004,9.280167e-005
3.937570e-004,1.130598e-004
1.965235e-004,1.445005e-004
1.630683e-005,1.820997e-004
-1.371690e-004,2.182402e-004
-2.676316e-004,2.513016e-004
-3.935563e-004,2.798251e-004
-5.368221e-004,3.081865e-004
-6.935392e-004,3.470822e-004
-8.324291e-004,4.018603e-004
-9.076274e-004,4.689553e-004
-8.825073e-004,5.392918e-004
-7.499378e-004,6.008766e-004
-5.410357e-004,6.447964e-004
-3.238683e-004,6.653786e-004
-1.668270e-004,6.618132e-004
-1.000561e-004,6.371793e-004
-9.940781e-005,5.924492e-004
-1.157764e-004,5.310264e-004
-1.136696e-004,4.603659e-004
-8.465986e-005,3.887330e-004
-3.911951e-005,3.183966e-004
2.369211e-006,2.480603e-004
2.214118e-005,1.819376e-004
1.922400e-005,1.235941e-004
1.558884e-006,7.562274e-005
-3.069211e-005,3.688912e-005
-7.461182e-005,7.069105e-006
-1.156143e-004,-1.432352e-005
-1.374932e-004,-3.053005e-005
-1.374932e-004,-4.479180e-005
-1.280934e-004,-5.872941e-005
-1.196660e-004,-7.396356e-005
-1.180453e-004,-9.195280e-005
-1.264727e-004,-1.143178e-004
-1.336036e-004,-1.378173e-004
-1.232314e-004,-1.530514e-004
-9.130454e-005,-1.593720e-004
-4.932962e-005,-1.627754e-004
-1.529591e-005,-1.720131e-004
2.369211e-006,-1.882196e-004
1.387585e-005,-2.078295e-004
4.272347e-005,-2.253326e-004
1.143563e-004,-2.402425e-004
2.372019e-004,-2.493182e-004
3.850055e-004,-2.506147e-004
5.133613e-004,-2.457528e-004
5.867769e-004,-2.381357e-004
5.926113e-004,-2.308428e-004
5.328091e-004,-2.274394e-004
4.208219e-004,-2.246843e-004
2.757735e-004,-2.172293e-004
1.188942e-004,-2.021572e-004
-3.036798e-005,-1.848162e-004
-1.585616e-004,-1.718510e-004
-2.527216e-004,-1.681235e-004
-3.076617e-004,-1.754164e-004
-3.342404e-004,-1.865989e-004
-3.528779e-004,-1.950263e-004
-3.724878e-004,-1.956746e-004
-3.825359e-004,-1.867610e-004
-3.541745e-004,-1.694200e-004
-2.671454e-004,-1.499722e-004
-1.284175e-004,-1.337657e-004
3.462021e-005,-1.248521e-004
1.825859e-004,-1.232314e-004
2.879283e-004,-1.237176e-004
3.438409e-004,-1.208004e-004
3.631267e-004,-1.097800e-004
3.611819e-004,-8.968389e-005
3.483787e-004,-6.650855e-005
3.294171e-004,-4.608832e-005
3.127243e-004,-3.328516e-005
2.995970e-004,-2.939559e-005
2.892249e-004,-3.134038e-005
2.772320e-004,-3.344723e-005
2.600531e-004,-3.652646e-005
2.378501e-004,-4.106429e-005
2.102990e-004,-4.479180e-005
1.822617e-004,-4.511593e-005
1.603829e-004,-3.960571e-005
1.443384e-004,-3.053005e-005
1.269974e-004,-1.983374e-005
1.080358e-004,-5.896120e-006
9.020862e-005,1.274139e-005
7.740546e-005,3.786152e-005
7.546067e-005,6.881599e-005
8.129502e-005,1.044704e-004
8.210535e-005,1.391524e-004
6.071273e-005,1.647587e-004
1.484824e-005,1.798307e-004
-4.462973e-005,1.835583e-004
-1.018388e-004,1.775618e-004
-1.430034e-004,1.678379e-004
-1.619650e-004,1.658931e-004
-1.596961e-004,1.791825e-004
-1.418689e-004,2.046267e-004
-1.170729e-004,2.368777e-004
-8.676672e-005,2.764217e-004
-5.516398e-005,3.255275e-004
-2.664048e-005,3.816021e-004
-2.330684e-006,4.386491e-004
1.792748e-005,4.866205e-004
3.089271e-005,5.185474e-004
3.364782e-005,5.355643e-004
2.505836e-005,5.460985e-004
7.555301e-006,5.533914e-004
-1.205460e-005,5.525811e-004
-2.939559e-005,5.405883e-004
-4.657452e-005,5.148199e-004
-5.905355e-005,4.733311e-004
-6.407757e-005,4.216323e-004
-6.764301e-005,3.645853e-004
-8.141856e-005,3.013798e-004
-1.086455e-004,2.273159e-004
-1.371690e-004,1.440143e-004
-1.477033e-004,5.990240e-005
-1.332795e-004,-1.173047e-005
-9.438378e-005,-6.375344e-005
-4.041603e-005,-9.211487e-005
1.565857e-005,-1.000561e-004
6.411610e-005,-9.584238e-005
1.028497e-004,-8.790117e-005
1.305629e-004,-8.158062e-005
1.409351e-004,-7.752899e-005
1.321835e-004,-7.509801e-005
1.086841e-004,-7.671866e-005
7.594687e-005,-8.773911e-005
3.964424e-005,-1.037836e-004
1.014835e-005,-1.177212e-004
-6.220252e-006,-1.246900e-004
-7.840905e-006,-1.271210e-004
-2.654814e-006,-1.287416e-004
-6.176923e-008,-1.310105e-004
-4.275467e-006,-1.365208e-004
-1.335113e-005,-1.491618e-004
-1.950961e-005,-1.681235e-004
-1.788895e-005,-1.875713e-004
-5.734056e-006,-2.036158e-004
1.338965e-005,-2.113949e-004
3.494434e-005,-2.068571e-004
5.779555e-005,-1.906506e-004
8.145709e-005,-1.665028e-004
1.018773e-004,-1.374932e-004
1.154908e-004,-1.060525e-004
1.193804e-004,-7.655660e-005
1.080358e-004,-5.516398e-005
7.789165e-005,-4.138842e-005
3.429608e-005,-3.279896e-005
-1.643037e-005,-2.793700e-005
-6.537409e-005,-2.809907e-005
-9.859748e-005,-3.134038e-005
-1.075111e-004,-3.296103e-005
-9.146661e-005,-3.263690e-005
-6.586029e-005,-3.344723e-005
-4.803310e-005,-4.041603e-005
-5.030202e-005,-5.240886e-005
-7.169464e-005,-6.861539e-005
-1.000561e-004,-8.709085e-005
-1.199901e-004,-1.104282e-004
-1.261486e-004,-1.345760e-004
-1.230693e-004,-1.530514e-004
-1.170729e-004,-1.653684e-004
-1.107524e-004,-1.747682e-004
-1.015147e-004,-1.825473e-004
-8.806324e-005,-1.880575e-004
-6.877746e-005,-1.890299e-004
-4.511593e-005,-1.846542e-004
-2.080613e-005,-1.746061e-004
-1.844488e-006,-1.600202e-004
6.258778e-006,-1.442999e-004
4.638125e-006,-1.235555e-004
-5.734056e-006,-9.438378e-005
-2.696461e-005,-5.840528e-005
-5.483985e-005,-2.145439e-005
-7.979791e-005,8.041497e-006
-9.665270e-005,2.910999e-005
-9.859748e-005,4.985435e-005
-8.498399e-005,7.805372e-005
-6.407757e-005,1.151667e-004
-3.992984e-005,1.529279e-004
-1.432352e-005,1.832341e-004
3.017472e-006,2.065715e-004
7.879432e-006,2.279642e-004
1.720949e-006,2.522740e-004
-9.947754e-006,2.760976e-004
-2.404744e-005,2.965178e-004
-3.830919e-005,3.115899e-004
-4.576419e-005,3.216380e-004
-3.749886e-005,3.264999e-004
-4.761664e-006,3.260137e-004
5.050261e-005,3.201794e-004
1.140322e-004,3.104554e-004
1.728619e-004,2.953834e-004
2.169437e-004,2.759355e-004
2.417397e-004,2.535705e-004
2.467637e-004,2.315296e-004
2.325020e-004,2.124059e-004
2.041406e-004,1.963614e-004
1.683241e-004,1.804790e-004
1.422316e-004,1.647587e-004
1.351007e-004,1.514693e-004
1.456350e-004,1.427178e-004
1.639484e-004,1.391524e-004
1.876099e-004,1.346145e-004
2.247229e-004,1.260251e-004
2.848491e-004,1.120874e-004
3.581026e-004,9.507057e-005
4.175806e-004,7.594687e-005
4.405939e-004,5.212327e-005
4.190393e-004,2.133085e-005
3.668542e-004,-1.205460e-005
3.081865e-004,-4.398147e-005
2.542187e-004,-6.991193e-005
2.130541e-004,-8.773911e-005
1.863134e-004,-9.713889e-005
1.764274e-004,-1.045939e-004
1.769136e-004,-1.162626e-004
1.684862e-004,-1.342519e-004
1.232699e-004,-1.564548e-004
1.549650e-005,-1.788198e-004
-1.527273e-004,-1.947022e-004
-3.496366e-004,-1.984297e-004
-5.303394e-004,-1.867610e-004
-6.528608e-004,-1.653684e-004
-7.065044e-004,-1.370070e-004
-7.142835e-004,-1.037836e-004
-7.228730e-004,-6.764301e-005
-7.559343e-004,-2.890940e-005
-8.047160e-004,9.500085e-006
-8.408565e-004,4.483033e-005
-8.355084e-004,6.881599e-005
-7.718167e-004,7.789165e-005
-6.408680e-004,7.918817e-005
-4.518998e-004,8.129502e-005
-2.305186e-004,9.085688e-005
-5.734056e-006,1.041462e-004
1.944166e-004,1.107909e-004
3.462718e-004,1.047945e-004
4.452938e-004,9.215340e-005
4.963444e-004,8.161915e-005
5.159543e-004,7.724339e-005
5.219508e-004,7.805372e-005
5.264886e-004,8.226741e-005
5.370228e-004,8.923623e-005
5.533914e-004,9.847395e-005
5.707325e-004,1.067393e-004
5.845079e-004,1.141943e-004
5.869390e-004,1.266733e-004
5.679773e-004,1.430419e-004
5.221128e-004,1.590864e-004
4.589073e-004,1.692965e-004
3.869503e-004,1.714034e-004
3.169380e-004,1.667035e-004
2.592428e-004,1.594105e-004
2.169437e-004,1.539003e-004
1.876099e-004,1.508211e-004
1.636242e-004,1.501728e-004
1.367214e-004,1.480659e-004
1.056048e-004,1.420695e-004
7.562274e-005,1.336421e-004
5.309566e-005,1.258630e-004
4.110282e-005,1.197045e-004
4.207521e-005,1.153287e-004
6.606088e-005,1.133840e-004
1.174356e-004,1.146805e-004
1.879340e-004,1.128978e-004
2.671840e-004,1.044704e-004
3.428685e-004,8.891209e-005
3.973225e-004,7.578480e-005
4.076947e-004,7.092284e-005
3.540510e-004,8.178122e-005
2.316917e-004,1.041462e-004
6.427817e-005,1.244044e-004
-1.045939e-004,1.339663e-004
-2.382978e-004,1.310491e-004
-3.139823e-004,1.182459e-004
-3.212752e-004,9.490851e-005
-2.627696e-004,6.071273e-005
-1.543479e-004,1.517237e-005
-2.501983e-005,-4.057810e-005
9.312580e-005,-1.031353e-004
1.756171e-004,-1.640719e-004
2.137024e-004,-2.157707e-004
2.090025e-004,-2.536940e-004
1.733481e-004,-2.760590e-004
1.286181e-004,-2.836761e-004
9.474644e-005,-2.791382e-004
8.242948e-005,-2.643903e-004
9.604298e-005,-2.439701e-004
1.316974e-004,-2.253326e-004
1.846927e-004,-2.126914e-004
2.410915e-004,-2.073433e-004
2.824181e-004,-2.062088e-004
2.953834e-004,-2.050744e-004
2.722080e-004,-2.024813e-004
2.208333e-004,-1.982676e-004
1.577899e-004,-1.950263e-004
1.026876e-004,-1.945401e-004
7.108491e-005,-1.966470e-004
6.573675e-005,-1.951884e-004
7.254349e-005,-1.861127e-004
7.124698e-005,-1.676373e-004
4.709924e-005,-1.407345e-004
-1.075808e-005,-1.109144e-004
-1.102662e-004,-8.579432e-005
-2.634179e-004,-6.812920e-005
-4.679443e-004,-5.046408e-005
-7.173628e-004,-2.712668e-005
-9.910910e-004,1.558884e-006
-1.249747e-003,3.073064e-005
-1.441633e-003,5.536457e-005
-1.514724e-003,6.930219e-005
-1.433853e-003,7.286763e-005
-1.198697e-003,6.946425e-005
-8.531735e-004,6.508849e-005
-4.750752e-004,6.508849e-005
-1.318209e-004,6.881599e-005
1.339663e-004,7.513654e-005
3.109416e-004,8.453633e-005
4.015361e-004,1.022015e-004
4.242253e-004,1.287802e-004
3.991052e-004,1.608691e-004
3.386548e-004,1.932822e-004
2.626462e-004,2.218057e-004
1.989545e-004,2.406053e-004
1.717275e-004,2.472499e-004
1.913374e-004,2.444948e-004
2.519498e-004,2.394708e-004
3.258516e-004,2.316917e-004
3.869503e-004,2.193747e-004
4.174185e-004,2.033302e-004
4.154738e-004,1.866375e-004
3.879227e-004,1.751309e-004
3.407616e-004,1.741585e-004
2.854973e-004,1.850168e-004
2.337985e-004,2.018716e-004
1.911753e-004,2.148369e-004
1.470936e-004,2.214815e-004
8.680524e-005,2.235884e-004
3.503668e-006,2.261814e-004
-9.098041e-005,2.308813e-004
-1.643960e-004,2.337985e-004
-1.891920e-004,2.329882e-004
-1.595340e-004,2.268297e-004
-9.519411e-005,2.128921e-004
-2.356124e-005,1.889064e-004
3.607880e-005,1.607070e-004
6.703327e-005,1.344524e-004
6.055066e-005,1.103047e-004
2.829966e-005,8.988449e-005
-1.318906e-005,7.367795e-005
-5.078821e-005,6.071273e-005
-6.310517e-005,5.196120e-005
-3.847125e-005,4.288554e-005
1.776542e-005,3.478228e-005
8.956036e-005,2.732727e-005
1.602208e-004,1.857574e-005
2.188885e-004,7.231170e-006
2.598910e-004,-9.461558e-006
2.867939e-004,-3.344723e-005
3.067279e-004,-6.893953e-005
3.321722e-004,-1.115627e-004
3.764160e-004,-1.532135e-004
4.423766e-004,-1.888679e-004
5.109303e-004,-2.136638e-004
5.511225e-004,-2.251705e-004
5.277851e-004,-2.220912e-004
4.156358e-004,-2.122053e-004
2.078681e-004,-2.016710e-004
-7.914964e-005,-1.917850e-004
-4.014975e-004,-1.796301e-004
-7.011562e-004,-1.658546e-004
-9.167031e-004,-1.527273e-004
-1.001463e-003,-1.433275e-004
-9.439300e-004,-1.387897e-004
-7.735994e-004,-1.381414e-004
-5.437909e-004,-1.389517e-004
-3.083100e-004,-1.400862e-004
-1.041077e-004,-1.434896e-004
5.244739e-005,-1.486757e-004
1.654069e-004,-1.514308e-004
2.431983e-004,-1.481895e-004
2.919800e-004,-1.397621e-004
3.109416e-004,-1.287416e-004
2.965178e-004,-1.165867e-004
2.503292e-004,-1.042698e-004
1.893926e-004,-8.952183e-005
1.271595e-004,-6.472583e-005
6.573675e-005,-3.539201e-005
-2.168618e-006,-6.382317e-006
-7.882551e-005,2.068259e-005
-1.559686e-004,4.191315e-005
-2.156086e-004,5.455425e-005
-2.373254e-004,5.893001e-005
-2.026434e-004,5.974033e-005
-1.058904e-004,6.087479e-005
3.769945e-005,6.832980e-005
2.013854e-004,8.453633e-005
3.548613e-004,1.077117e-004
4.744656e-004,1.344524e-004
5.456123e-004,1.610312e-004
5.702463e-004,1.837203e-004
5.592257e-004,2.033302e-004
5.195198e-004,2.192126e-004
4.603659e-004,2.344468e-004
3.893813e-004,2.451431e-004
3.140208e-004,2.508154e-004
2.363916e-004,2.524360e-004
1.514693e-004,2.538946e-004
5.001642e-005,2.555152e-004
-6.116039e-005,2.577842e-004
-1.643960e-004,2.631324e-004
-2.460769e-004,2.731804e-004
-3.071755e-004,2.842008e-004
-3.562813e-004,2.934386e-004
-3.961493e-004,2.976523e-004
-4.107352e-004,2.961937e-004
-3.830221e-004,2.897111e-004
-3.112272e-004,2.842008e-004
-2.088019e-004,2.833905e-004
-9.405965e-005,2.842008e-004
1.225520e-005,2.807975e-004
9.993253e-005,2.735045e-004
1.686482e-004,2.641047e-004
2.216436e-004,2.517878e-004
2.624841e-004,2.346088e-004
2.965178e-004,2.085163e-004
3.260137e-004,1.712413e-004
3.456236e-004,1.253768e-004
3.508097e-004,7.610894e-005
3.373583e-004,3.170304e-005
3.051073e-004,-2.238346e-007
2.582704e-004,-1.837515e-005
2.004130e-004,-3.020592e-005
1.221355e-004,-4.074016e-005
7.717366e-006,-5.176061e-005
-1.459206e-004,-6.051213e-005
-3.254889e-004,-7.039812e-005
-5.121881e-004,-8.222889e-005
-6.784671e-004,-9.422172e-005
-7.906163e-004,-1.058904e-004
-8.136295e-004,-1.208004e-004
-7.335693e-004,-1.402483e-004
-5.677765e-004,-1.640719e-004
-3.595226e-004,-1.874093e-004
-1.541859e-004,-2.062088e-004
2.084466e-005,-2.220912e-004
1.605450e-004,-2.368392e-004
2.723701e-004,-2.455907e-004
3.619922e-004,-2.431597e-004
4.289252e-004,-2.321393e-004
4.713863e-004,-2.188499e-004
4.903480e-004,-2.079916e-004
4.887274e-004,-1.987538e-004
4.728449e-004,-1.854645e-004
4.456179e-004,-1.671511e-004
4.130428e-004,-1.462447e-004
3.816021e-004,-1.269589e-004
3.553475e-004,-1.089697e-004
3.404375e-004,-9.114248e-005
3.389789e-004,-7.461182e-005
3.451374e-004,-6.229485e-005
3.504856e-004,-5.565017e-005
3.443271e-004,-5.370539e-005
3.266619e-004,-5.613637e-005
3.059176e-004,-6.310517e-005
2.955454e-004,-7.688073e-005
3.021901e-004,-9.308726e-005
3.315239e-004,-1.047560e-004
3.926226e-004,-1.067007e-004
4.814344e-004,-1.042698e-004
5.726772e-004,-9.762509e-005
6.311828e-004,-8.368748e-005
6.295622e-004,-6.245691e-005
5.587396e-004,-3.458168e-005
4.326527e-004,-6.868513e-006
2.799871e-004,1.306552e-005
1.182459e-004,2.392390e-005
-4.819517e-005,3.024445e-005
-2.206326e-004,3.948217e-005
-3.932322e-004,5.941620e-005
-5.507597e-004,8.842590e-005
-6.783050e-004,1.229458e-004
-7.710064e-004,1.590864e-004
-8.361567e-004,1.929580e-004
-8.907726e-004,2.206712e-004
-9.299924e-004,2.404432e-004
-9.330717e-004,2.537325e-004
-8.847762e-004,2.621599e-004
-7.922369e-004,2.692908e-004
-6.784671e-004,2.756114e-004
-5.731247e-004,2.796630e-004
-5.029504e-004,2.806354e-004
-4.815578e-004,2.806354e-004
-5.045711e-004,2.842008e-004
-5.505976e-004,2.903593e-004
-5.852795e-004,2.921420e-004
-5.765280e-004,2.824181e-004
-5.084606e-004,2.670219e-004
-3.938804e-004,2.508154e-004
-2.600145e-004,2.367157e-004
-1.332795e-004,2.252090e-004
-2.631635e-005,2.169437e-004
6.055066e-005,2.124059e-004
1.380179e-004,2.088404e-004
2.120818e-004,2.047888e-004
2.809595e-004,2.007372e-004
3.431926e-004,1.929580e-004
3.952156e-004,1.777239e-004
4.365423e-004,1.555210e-004
4.658761e-004,1.316974e-004
4.849998e-004,1.124116e-004
4.935893e-004,1.020394e-004
4.916445e-004,1.028497e-004
4.812723e-004,1.145184e-004
4.649037e-004,1.310491e-004
4.448076e-004,1.495245e-004
4.274666e-004,1.671896e-004
4.128807e-004,1.748067e-004
4.013741e-004,1.629760e-004
3.903536e-004,1.281319e-004
3.769022e-004,7.529860e-005
3.595612e-004,1.598270e-005
3.371962e-004,-3.911951e-005
3.093210e-004,-8.514606e-005
2.791768e-004,-1.217728e-004
2.579462e-004,-1.499722e-004
2.462775e-004,-1.721751e-004
2.391467e-004,-1.874093e-004
2.310434e-004,-1.950263e-004
2.192126e-004,-2.002124e-004
2.033302e-004,-2.128535e-004
1.832341e-004,-2.353806e-004
1.645966e-004,-2.669833e-004
1.550348e-004,-3.011791e-004
1.492004e-004,-3.290543e-004
1.386662e-004,-3.454229e-004
1.213252e-004,-3.512573e-004
1.025256e-004,-3.514194e-004
8.761557e-005,-3.514194e-004
8.048470e-005,-3.556330e-004
7.805372e-005,-3.674638e-004
7.627100e-005,-3.835083e-004
6.995045e-005,-4.036044e-004
5.876794e-005,-4.318037e-004
4.564065e-005,-4.685925e-004
3.640293e-005,-5.092709e-004
3.218923e-005,-5.476804e-004
3.543054e-005,-5.804176e-004
4.256141e-005,-6.018102e-004
4.823370e-005,-6.052136e-004
4.353380e-005,-5.872243e-004
2.311357e-005,-5.512458e-004
-1.351319e-005,-5.001953e-004
-6.683268e-005,-4.339106e-004
-1.297140e-004,-3.541745e-004
-1.827094e-004,-2.590421e-004
-2.143121e-004,-1.428413e-004
-2.248464e-004,-4.599598e-006
-2.217671e-004,1.511452e-004
-2.164190e-004,3.193690e-004
-2.122053e-004,4.908342e-004
-2.045882e-004,6.556547e-004
-1.893541e-004,8.062135e-004
-1.770371e-004,9.410520e-004
-1.789819e-004,1.056119e-003
-1.943781e-004,1.147686e-003
-2.133397e-004,1.204246e-003
-2.224154e-004,1.210567e-003
-2.152845e-004,1.155951e-003
-1.861127e-004,1.047691e-003
-1.353863e-004,9.047493e-004
-7.072225e-005,7.532181e-004
-7.516774e-006,6.136798e-004
4.272347e-005,5.016926e-004
7.189524e-005,4.217943e-004
7.578480e-005,3.702575e-004
5.358185e-005,3.336308e-004
1.095867e-005,3.013798e-004
-3.522994e-005,2.704253e-004
-6.521203e-005,2.391467e-004
-5.921561e-005,2.068957e-004
-7.354709e-006,1.778860e-004
8.745350e-005,1.539003e-004
2.093267e-004,1.323456e-004
3.331446e-004,1.085220e-004
4.397836e-004,8.356394e-005
5.225990e-004,6.055066e-005
5.723531e-004,4.077869e-005
5.843459e-004,2.343770e-005
5.567948e-004,7.717366e-006
4.887274e-004,-6.220252e-006
3.775505e-004,-2.177852e-005
2.211574e-004,-4.365734e-005
1.922400e-005,-7.120844e-005
-2.300324e-004,-1.008664e-004
-5.198052e-004,-1.282554e-004
-8.097400e-004,-1.498101e-004
-1.045221e-003,-1.643960e-004
-1.181356e-003,-1.759026e-004
-1.194645e-003,-1.900023e-004
-1.083144e-003,-2.088019e-004
-8.748902e-004,-2.282497e-004
-6.219063e-004,-2.480217e-004
-3.826980e-004,-2.645523e-004
-1.961608e-004,-2.758969e-004
-7.963584e-005,-2.835140e-004
-2.761287e-005,-2.904828e-004
-1.513384e-005,-2.948586e-004
-7.354709e-006,-2.921034e-004
1.630683e-005,-2.838381e-004
5.682316e-005,-2.733039e-004
1.005808e-004,-2.658489e-004
1.372076e-004,-2.645523e-004
1.598967e-004,-2.699005e-004
1.717275e-004,-2.757348e-004
1.829100e-004,-2.731418e-004
2.039785e-004,-2.650386e-004
2.334744e-004,-2.580697e-004
2.623220e-004,-2.530457e-004
2.822560e-004,-2.464010e-004
2.910076e-004,-2.365151e-004
2.936006e-004,-2.229016e-004
2.900352e-004,-2.039399e-004
2.786906e-004,-1.799543e-004
2.602152e-004,-1.511067e-004
2.401191e-004,-1.199901e-004
2.213195e-004,-8.968389e-005
2.015475e-004,-6.359137e-005
1.770756e-004,-4.333321e-005
1.422316e-004,-2.599222e-005
8.291568e-005,-9.623623e-006
-1.869928e-005,1.160693e-005
-1.655305e-004,3.834771e-005
-3.382920e-004,6.800567e-005
-4.969540e-004,9.571884e-005
-5.948414e-004,1.158149e-004
-6.056998e-004,1.266733e-004
-5.251534e-004,1.376938e-004
-3.703810e-004,1.571416e-004
-1.741199e-004,1.864754e-004
2.522042e-005,2.224539e-004
2.000889e-004,2.615117e-004
3.358997e-004,2.987867e-004
4.281149e-004,3.302274e-004
4.765725e-004,3.535648e-004
4.914824e-004,3.666921e-004
4.811103e-004,3.702575e-004
4.508040e-004,3.640991e-004
4.102877e-004,3.521062e-004
3.686369e-004,3.334687e-004
3.346032e-004,3.075383e-004
3.161277e-004,2.751252e-004
3.140208e-004,2.407673e-004
3.255275e-004,2.119197e-004
3.409237e-004,1.931201e-004
3.517821e-004,1.884202e-004
3.550234e-004,1.923098e-004
3.542131e-004,2.033302e-004
3.521062e-004,2.138645e-004
3.501615e-004,2.188885e-004
3.465960e-004,2.122438e-004
3.362238e-004,1.989545e-004
3.145071e-004,1.858272e-004
2.819319e-004,1.710792e-004
2.482223e-004,1.454729e-004
2.268297e-004,9.912221e-005
2.274780e-004,3.105477e-005
2.498430e-004,-4.462973e-005
2.876042e-004,-1.107524e-004
3.237448e-004,-1.530514e-004
3.451374e-004,-1.707166e-004
3.530786e-004,-1.728234e-004
3.605336e-004,-1.684476e-004
3.767402e-004,-1.660166e-004
4.028327e-004,-1.647201e-004
4.350837e-004,-1.593720e-004
4.657141e-004,-1.481895e-004
4.872688e-004,-1.324691e-004
4.987754e-004,-1.157764e-004
4.924549e-004,-1.058904e-004
4.532350e-004,-1.091317e-004
3.796573e-004,-1.220970e-004
2.791768e-004,-1.384655e-004
1.675138e-004,-1.528894e-004
5.974033e-005,-1.676373e-004
-3.409549e-005,-1.797922e-004
-1.154523e-004,-1.896782e-004
-1.924333e-004,-1.929195e-004
-2.729798e-004,-1.900023e-004
-3.613053e-004,-1.840059e-004
-4.655133e-004,-1.754164e-004
-5.945173e-004,-1.648822e-004
-7.332452e-004,-1.538618e-004
-8.463667e-004,-1.455964e-004
-8.919071e-004,-1.415448e-004
-8.557665e-004,-1.454344e-004
-7.538275e-004,-1.577513e-004
-6.133168e-004,-1.724993e-004
-4.650271e-004,-1.760647e-004
-3.423437e-004,-1.629374e-004
-2.750866e-004,-1.371690e-004
-2.703867e-004,-1.062146e-004
-3.143064e-004,-7.558420e-005
-3.831841e-004,-4.787104e-005
-4.510895e-004,-2.275091e-005
-4.987367e-004,2.855407e-006
-5.198052e-004,3.040651e-005
-5.335807e-004,5.714729e-005
-5.632387e-004,7.951231e-005
-6.128307e-004,9.912221e-005
-6.638812e-004,1.154908e-004
-6.844635e-004,1.281319e-004
-6.533470e-004,1.402868e-004
-5.700454e-004,1.573037e-004
-4.470379e-004,1.806411e-004
-3.015032e-004,2.059233e-004
-1.592099e-004,2.307193e-004
-3.944364e-005,2.556773e-004
4.531652e-005,2.819319e-004
9.426025e-005,3.067279e-004
1.239182e-004,3.276344e-004
1.535762e-004,3.446512e-004
2.007372e-004,3.550234e-004
2.752873e-004,3.556717e-004
3.741471e-004,3.477304e-004
4.773828e-004,3.347652e-004
5.600362e-004,3.243930e-004
6.076833e-004,3.208276e-004
6.195141e-004,3.258516e-004
6.012007e-004,3.347652e-004
5.556603e-004,3.409237e-004
4.841895e-004,3.394651e-004
3.984569e-004,3.289309e-004
3.164518e-004,3.119140e-004
2.496809e-004,2.960316e-004
2.005751e-004,2.895490e-004
1.611932e-004,2.921420e-004
1.247285e-004,2.953834e-004
9.182927e-005,2.910076e-004
6.557468e-005,2.765838e-004
5.034055e-005,2.524360e-004
5.163707e-005,2.234263e-004
7.529860e-005,1.932822e-004
1.237561e-004,1.645966e-004
1.910133e-004,1.363972e-004
2.619979e-004,1.090082e-004
3.201794e-004,8.356394e-005
3.581026e-004,5.828175e-005
3.806297e-004,2.927205e-005
3.948915e-004,-1.682422e-006
4.098015e-004,-3.247483e-005
4.303838e-004,-6.148453e-005
4.522626e-004,-8.660465e-005
4.694416e-004,-1.039456e-004
4.704139e-004,-1.146419e-004
4.441593e-004,-1.188556e-004
3.973225e-004,-1.211246e-004
3.555096e-004,-1.314967e-004
3.373583e-004,-1.551583e-004
3.490270e-004,-1.924333e-004
3.877606e-004,-2.425115e-004
4.598797e-004,-3.002067e-004
5.730013e-004,-3.559572e-004
7.248566e-004,-4.000390e-004
8.945392e-004,-4.287245e-004
1.062277e-003,-4.389346e-004
1.224829e-003,-4.347209e-004
1.380250e-003,-4.256453e-004
1.523354e-003,-4.175420e-004
1.638907e-003,-4.107352e-004
1.717508e-003,-3.984183e-004
1.758997e-003,-3.742705e-004
1.767263e-003,-3.386162e-004
1.734201e-003,-2.948586e-004
1.639231e-003,-2.478596e-004
1.467441e-003,-2.006986e-004
1.221588e-003,-1.592099e-004
9.271143e-004,-1.258245e-004
6.013628e-004,-9.730096e-005
2.231022e-004,-6.861539e-005
-2.548284e-004,-4.090223e-005
-8.588458e-004,-1.707863e-005
-1.576309e-003,2.531276e-006
-2.355033e-003,1.857574e-005
-3.126628e-003,3.397195e-005
-3.829994e-003,5.423012e-005
-4.416998e-003,8.226741e-005
-4.857172e-003,1.201907e-004
-4.967863e-003,1.624898e-004
-4.967702e-003,1.991165e-004
-4.967702e-003,2.216436e-004
-4.967863e-003,2.263435e-004
-4.967702e-003,2.185644e-004
-4.967702e-003,2.059233e-004
-4.872244e-003,1.947408e-004
-4.390744e-003,1.934442e-004
-3.653342e-003,2.013854e-004
-2.690995e-003,2.135403e-004
-1.601915e-003,2.245608e-004
-5.206155e-004,2.337985e-004
4.240633e-004,2.453052e-004
1.137962e-003,2.561635e-004
1.607304e-003,2.650771e-004
1.874064e-003,2.723701e-004
2.001286e-003,2.798251e-004
2.047312e-003,2.885766e-004
2.052661e-003,2.978143e-004
2.040019e-003,3.067279e-004
2.018789e-003,3.153174e-004
1.992696e-003,3.243930e-004
1.966604e-003,3.326584e-004
1.940835e-003,3.358997e-004
1.916687e-003,3.302274e-004
1.896915e-003,3.151553e-004
1.880547e-003,2.892249e-004
1.858992e-003,2.556773e-004
1.825768e-003,2.214815e-004
1.783145e-003,1.961994e-004
1.733067e-003,1.785342e-004
1.678937e-003,1.633001e-004
1.619459e-003,1.422316e-004
1.554794e-003,1.148425e-004
1.489158e-003,8.502253e-005
1.430166e-003,5.763349e-005
1.382357e-003,3.121684e-005
1.341678e-003,1.072688e-006
1.300675e-003,-3.263690e-005
1.251408e-003,-6.342931e-005
1.192740e-003,-8.498399e-005
1.130993e-003,-9.811128e-005
1.072001e-003,-1.044318e-004
1.018357e-003,-1.063766e-004
9.668204e-004,-1.055663e-004
9.141492e-004,-1.055663e-004
8.608295e-004,-1.109144e-004
8.047550e-004,-1.211246e-004
7.506250e-004,-1.313347e-004
7.089743e-004,-1.386276e-004
6.767232e-004,-1.465688e-004
6.391241e-004,-1.603444e-004
5.906665e-004,-1.815749e-004
5.370228e-004,-2.110708e-004
4.835413e-004,-2.454286e-004
4.333010e-004,-2.809209e-004
3.867882e-004,-3.146305e-004
3.465960e-004,-3.454229e-004
3.130485e-004,-3.710293e-004
2.845250e-004,-3.888564e-004
2.545429e-004,-3.942046e-004
2.169437e-004,-3.841565e-004
1.733481e-004,-3.593606e-004
1.302388e-004,-3.258130e-004
9.393612e-005,-2.932379e-004
6.541262e-005,-2.663351e-004
3.591673e-005,-2.468872e-004
1.234753e-006,-2.306807e-004
-3.652646e-005,-2.147983e-004
-7.526008e-005,-1.998883e-004
-1.101041e-004,-1.848162e-004
-1.381414e-004,-1.708786e-004
-1.613168e-004,-1.609926e-004
-1.793060e-004,-1.541859e-004
-1.888679e-004,-1.501342e-004
-1.937298e-004,-1.421931e-004
-2.006986e-004,-1.256624e-004
-2.175534e-004,-9.892161e-005
-2.407288e-004,-6.164659e-005
-2.640662e-004,-1.416145e-005
-2.840002e-004,3.915804e-005
-2.980999e-004,9.539470e-005
-3.065273e-004,1.522796e-004
-3.102548e-004,2.117576e-004
-3.128478e-004,2.725321e-004
-3.165753e-004,3.303894e-004
-3.258130e-004,3.777126e-004
-3.444506e-004,4.117463e-004
-3.723258e-004,4.329769e-004
-4.045768e-004,4.422146e-004
-4.382863e-004,4.389733e-004
-4.760476e-004,4.253598e-004
-5.186707e-004,4.096394e-004
-5.587008e-004,3.976466e-004
-5.857658e-004,3.922984e-004
-5.954896e-004,3.903536e-004
-5.938690e-004,3.897054e-004
-5.883588e-004,3.897054e-004
-5.783107e-004,3.963501e-004
-5.663179e-004,4.132049e-004
-5.590250e-004,4.352458e-004
-5.622663e-004,4.579349e-004
-5.776625e-004,4.778690e-004
-5.997034e-004,4.953720e-004
-6.142893e-004,5.109303e-004
-6.079687e-004,5.224369e-004
-5.760419e-004,5.260024e-004
-5.222362e-004,5.169268e-004
-4.553032e-004,4.888894e-004
-3.896668e-004,4.367043e-004
-3.309991e-004,3.632887e-004
-2.791382e-004,2.796630e-004
-2.321393e-004,2.030061e-004
-1.921092e-004,1.467694e-004
-1.690959e-004,1.185701e-004
-1.663408e-004,1.146805e-004
-1.836818e-004,1.221355e-004
-2.175534e-004,1.198666e-004
-2.617972e-004,9.814982e-005
-3.065273e-004,6.103686e-005
-3.394265e-004,1.355172e-005
-3.510952e-004,-3.571614e-005
-3.366714e-004,-8.141856e-005
-2.976137e-004,-1.217728e-004
-2.434839e-004,-1.519170e-004
-1.853024e-004,-1.728234e-004
-1.271210e-004,-1.846542e-004
-7.007399e-005,-1.903264e-004
-1.529591e-005,-1.950263e-004
3.850978e-005,-2.062088e-004
9.393612e-005,-2.280877e-004
1.462832e-004,-2.574215e-004
1.871237e-004,-2.857829e-004
2.124059e-004,-3.079858e-004
2.187264e-004,-3.219235e-004
2.055991e-004,-3.287302e-004
1.718896e-004,-3.300267e-004
1.244044e-004,-3.298647e-004
7.400208e-005,-3.309991e-004
2.829966e-005,-3.308371e-004
-5.247859e-006,-3.211132e-004
-2.048200e-005,-3.024756e-004
-1.205460e-005,-2.822175e-004
1.176900e-005,-2.645523e-004
3.802358e-005,-2.467252e-004
5.520250e-005,-2.305186e-004
6.055066e-005,-2.196603e-004
5.504044e-005,-2.146363e-004
5.277153e-005,-2.138259e-004
6.411610e-005,-2.151224e-004
8.680524e-005,-2.175534e-004
1.116012e-004,-2.219292e-004
1.292664e-004,-2.271153e-004
1.338042e-004,-2.295462e-004
1.274836e-004,-2.246843e-004
1.163011e-004,-2.120432e-004
1.075496e-004,-1.916230e-004
1.020394e-004,-1.692580e-004
9.636710e-005,-1.498101e-004
9.474644e-005,-1.314967e-004
9.944634e-005,-1.075111e-004
1.085220e-004,-7.250496e-005
1.172735e-004,-3.085418e-005
1.276457e-004,7.393236e-006
1.425557e-004,3.737532e-005
1.626518e-004,6.136099e-005
1.814514e-004,8.080883e-005
1.908512e-004,9.750156e-005
1.808031e-004,1.145184e-004
1.469315e-004,1.389903e-004
9.701536e-005,1.699448e-004
4.855783e-005,2.018716e-004
1.841368e-005,2.258573e-004
1.419998e-005,2.286124e-004
3.413401e-005,2.054371e-004
6.719535e-005,1.616794e-004
1.046324e-004,1.137081e-004
1.409351e-004,7.886404e-005
1.704310e-004,6.784360e-005
1.921477e-004,8.194328e-005
2.075439e-004,1.187321e-004
2.200230e-004,1.705930e-004
2.299089e-004,2.281262e-004
2.339606e-004,2.819319e-004
2.292607e-004,3.277964e-004
2.198609e-004,3.676645e-004
2.190506e-004,4.036430e-004
2.355812e-004,4.303838e-004
2.652392e-004,4.454559e-004
2.987867e-004,4.516144e-004
3.307136e-004,4.514523e-004
3.593992e-004,4.439973e-004
3.859779e-004,4.240633e-004
4.248736e-004,3.892192e-004
4.916445e-004,3.357376e-004
5.977973e-004,2.615117e-004
7.481941e-004,1.722137e-004
9.285730e-004,8.307774e-005
1.103442e-003,1.176900e-005
1.236822e-003,-3.247483e-005
1.304727e-003,-5.354332e-005
1.292896e-003,-5.921561e-005
1.196791e-003,-5.743289e-005
1.019492e-003,-5.305713e-005
7.702350e-004,-4.835724e-005
4.535592e-004,-4.641245e-005
7.546067e-005,-4.754691e-005
-3.570916e-004,-5.013995e-005
-8.236776e-004,-4.932962e-005
-1.283619e-003,-3.992984e-005
-1.691213e-003,-2.242678e-005
-2.011293e-003,-2.168618e-006
-2.215171e-003,1.549650e-005
-2.297338e-003,2.214118e-005
-2.266221e-003,1.663096e-005
-2.142404e-003,4.638125e-006
-1.959594e-003,-5.734056e-006
-1.760739e-003,-9.947754e-006
-1.588140e-003,-1.286493e-005
-1.460756e-003,-1.675450e-005
-1.370324e-003,-2.031993e-005
-1.277298e-003,-2.064406e-005
-1.130791e-003,-1.983374e-005
-9.016310e-004,-2.453363e-005
-5.953276e-004,-4.090223e-005
-2.481838e-004,-6.407757e-005
9.101894e-005,-8.449780e-005
3.796573e-004,-9.438378e-005
5.929354e-004,-9.211487e-005
7.311772e-004,-8.368748e-005
8.154513e-004,-7.688073e-005
8.713639e-004,-7.833932e-005
9.214421e-004,-9.000802e-005
9.713583e-004,-1.041077e-004
1.014143e-003,-1.120489e-004
1.045422e-003,-1.114006e-004
1.062601e-003,-9.892161e-005
1.053363e-003,-7.898758e-005
1.006202e-003,-5.338126e-005
9.232248e-004,-2.388537e-005
8.154513e-004,8.203562e-006
6.961711e-004,4.564065e-005
5.788357e-004,8.858796e-005
4.775448e-004,1.375317e-004
4.029947e-004,1.882582e-004
3.631267e-004,2.307193e-004
3.577785e-004,2.514636e-004
3.798194e-004,2.446569e-004
4.125566e-004,2.156472e-004
4.402698e-004,1.775618e-004
4.535592e-004,1.430419e-004
4.452938e-004,1.164632e-004
4.195254e-004,9.912221e-005
3.835469e-004,9.280167e-005
3.478926e-004,9.344993e-005
3.245551e-004,9.263960e-005
3.219621e-004,8.842590e-005
3.433547e-004,8.226741e-005
3.850055e-004,7.578480e-005
4.271425e-004,6.622294e-005
4.558281e-004,4.596478e-005
4.639314e-004,1.533444e-005
4.508040e-004,-1.788895e-005
4.224426e-004,-4.673658e-005
3.892192e-004,-6.764301e-005
3.587509e-004,-7.931171e-005
3.337929e-004,-8.595638e-005
3.135347e-004,-8.790117e-005
2.898731e-004,-8.303922e-005
2.600531e-004,-7.007399e-005
2.256952e-004,-5.111234e-005
1.931201e-004,-3.620233e-005
1.647587e-004,-3.685060e-005
1.404489e-004,-6.051213e-005
1.172735e-004,-1.060525e-004
9.507057e-005,-1.637477e-004
7.789165e-005,-2.227395e-004
7.497447e-005,-2.752487e-004
8.907416e-005,-3.206269e-004
1.195424e-004,-3.590364e-004
1.610312e-004,-3.885323e-004
2.057612e-004,-4.083043e-004
2.454672e-004,-4.100870e-004
2.629703e-004,-3.883702e-004
2.480603e-004,-3.373197e-004
2.030061e-004,-2.655248e-004
1.417454e-004,-1.867610e-004
8.372601e-005,-1.123730e-004
4.337174e-005,-4.835724e-005
2.327564e-005,5.610517e-006
1.679302e-005,5.487838e-005
1.160693e-005,1.000946e-004
4.476060e-006,1.399627e-004
-5.479652e-007,1.741585e-004
3.503668e-006,2.020337e-004
2.214118e-005,2.193747e-004
5.341979e-005,2.250470e-004
8.729144e-005,2.201850e-004
1.159770e-004,2.078681e-004
1.320215e-004,1.900409e-004
1.307250e-004,1.738343e-004
1.096565e-004,1.633001e-004
6.038860e-005,1.595726e-004
-3.198864e-005,1.629760e-004
-1.666649e-004,1.717275e-004
-3.267854e-004,1.850168e-004
-4.800992e-004,1.978200e-004
-6.027826e-004,2.075439e-004
-7.014804e-004,2.130541e-004
-7.969369e-004,2.151610e-004
-9.042240e-004,2.137024e-004
-1.018156e-003,2.068957e-004
-1.119447e-003,1.958752e-004
-1.187676e-003,1.859892e-004
-1.208421e-003,1.819376e-004
-1.178114e-003,1.796687e-004
-1.101458e-003,1.752929e-004
-9.919014e-004,1.678379e-004
-8.740799e-004,1.608691e-004
-7.672789e-004,1.584381e-004
-6.817085e-004,1.610312e-004
-6.185030e-004,1.633001e-004
-5.693972e-004,1.660552e-004
-5.211017e-004,1.707551e-004
-4.561135e-004,1.746447e-004
-3.585502e-004,1.786963e-004
-2.263049e-004,1.822617e-004
-7.039812e-005,1.838824e-004
8.405014e-005,1.811273e-004
2.112714e-004,1.765894e-004
2.952213e-004,1.749688e-004
3.334687e-004,1.808031e-004
3.352514e-004,1.950649e-004
3.209897e-004,2.137024e-004
3.086727e-004,2.305572e-004
3.073762e-004,2.449810e-004
3.146691e-004,2.571359e-004
3.205035e-004,2.644289e-004
3.154794e-004,2.616738e-004
2.976523e-004,2.503292e-004
2.717218e-004,2.339606e-004
2.461155e-004,2.161334e-004
2.252090e-004,1.994406e-004
2.067336e-004,1.835583e-004
1.863134e-004,1.678379e-004
1.639484e-004,1.551968e-004
1.446626e-004,1.440143e-004
1.305629e-004,1.355869e-004
1.232699e-004,1.291043e-004
1.219734e-004,1.221355e-004
1.234320e-004,1.150046e-004
1.266733e-004,1.120874e-004
1.349386e-004,1.117633e-004
1.466074e-004,1.057669e-004
1.597346e-004,9.296373e-005
1.725378e-004,7.610894e-005
1.809652e-004,5.666109e-005
1.824238e-004,3.672706e-005
1.808031e-004,1.679302e-005
1.861513e-004,-5.896120e-006
1.974959e-004,-3.069211e-005
2.148369e-004,-5.305713e-005
2.391467e-004,-7.169464e-005
2.668598e-004,-8.741498e-005
2.895490e-004,-1.016767e-004
2.984626e-004,-1.209625e-004
2.944109e-004,-1.483515e-004
2.827423e-004,-1.793060e-004
2.720459e-004,-2.063709e-004
2.668598e-004,-2.271153e-004
2.689667e-004,-2.400805e-004
2.773941e-004,-2.488320e-004
2.913317e-004,-2.554767e-004
3.094830e-004,-2.674695e-004
3.286068e-004,-2.864312e-004
3.425444e-004,-3.055549e-004
3.384927e-004,-3.152788e-004
3.030004e-004,-3.099306e-004
2.315296e-004,-2.946965e-004
1.388282e-004,-2.788141e-004
4.564065e-005,-2.734659e-004
-3.587821e-005,-2.768693e-004
-1.102662e-004,-2.812451e-004
-1.937298e-004,-2.809209e-004
-3.034480e-004,-2.744383e-004
-4.483344e-004,-2.608248e-004
-6.073205e-004,-2.391081e-004
-7.278970e-004,-2.115570e-004
-7.586894e-004,-1.801163e-004
-6.783050e-004,-1.493239e-004
-5.029504e-004,-1.261486e-004
-2.624455e-004,-1.131834e-004
8.203562e-006,-1.096179e-004
2.754493e-004,-1.164247e-004
5.107683e-004,-1.300382e-004
6.997365e-004,-1.415448e-004
8.488368e-004,-1.436516e-004
9.731410e-004,-1.300382e-004
1.082211e-003,-9.697683e-005
1.177181e-003,-4.884343e-005
1.256756e-003,3.503668e-006
1.324337e-003,5.066468e-005
1.373119e-003,8.550872e-005
1.388677e-003,1.062531e-004
1.355616e-003,1.188942e-004
1.259997e-003,1.257009e-004
1.093556e-003,1.282940e-004
8.541849e-004,1.237561e-004
5.520949e-004,1.112771e-004
2.041406e-004,9.652917e-005
-1.865989e-004,8.875003e-005
-6.290372e-004,9.912221e-005
-1.126740e-003,1.315353e-004
-1.657990e-003,1.822617e-004
-2.163958e-003,2.376881e-004
-2.574956e-003,2.843629e-004
-2.842689e-003,3.135347e-004
-2.937659e-003,3.214759e-004
-2.857275e-003,3.156415e-004
-2.638486e-003,3.042970e-004
-2.344175e-003,2.923041e-004
-2.041436e-003,2.843629e-004
-1.771922e-003,2.835526e-004
-1.551837e-003,2.892249e-004
-1.373727e-003,2.992729e-004
-1.222682e-003,3.064038e-004
-1.072448e-003,3.055935e-004
-9.017931e-004,2.929524e-004
-7.103939e-004,2.694529e-004
-5.159156e-004,2.380122e-004
-3.347266e-004,2.054371e-004
-1.645581e-004,1.746447e-004
1.014835e-005,1.495245e-004
2.007372e-004,1.312112e-004
4.018603e-004,1.169494e-004
5.974732e-004,1.023635e-004
7.658592e-004,8.567078e-005
8.938910e-004,6.622294e-005
9.778409e-004,4.385793e-005
1.024192e-003,2.214118e-005
1.045260e-003,6.907040e-006
1.047043e-003,-1.844488e-006
1.033267e-003,-5.734056e-006
1.007499e-003,-7.030578e-006
9.757340e-004,-7.840905e-006
9.384590e-004,-1.237873e-005
8.898393e-004,-2.420950e-005
8.358715e-004,-4.041603e-005
7.926000e-004,-5.500191e-005
7.773659e-004,-6.294311e-005
8.032963e-004,-6.699475e-005
8.744431e-004,-6.877746e-005
9.792994e-004,-7.282909e-005
1.087883e-003,-8.401160e-005
1.166809e-003,-1.037836e-004
1.187230e-003,-1.310105e-004
1.146551e-003,-1.569410e-004
1.062439e-003,-1.759026e-004
9.606619e-004,-1.857886e-004
8.665019e-004,-1.854645e-004
7.969757e-004,-1.768750e-004
7.577559e-004,-1.647201e-004
7.434942e-004,-1.569410e-004
7.373357e-004,-1.553203e-004
7.243705e-004,-1.593720e-004
7.003848e-004,-1.653684e-004
6.679717e-004,-1.697442e-004
6.287518e-004,-1.723372e-004
5.789978e-004,-1.767130e-004
5.203301e-004,-1.841680e-004
4.615004e-004,-1.911368e-004
4.073705e-004,-1.940539e-004
3.579406e-004,-1.916230e-004
3.099692e-004,-1.836818e-004
2.611876e-004,-1.742820e-004
2.172679e-004,-1.650443e-004
1.864754e-004,-1.603444e-004
1.697827e-004,-1.569410e-004
1.605450e-004,-1.496481e-004
1.511452e-004,-1.392759e-004
1.378558e-004,-1.224211e-004
1.169494e-004,-9.892161e-005
8.242948e-005,-7.185670e-005
3.624086e-005,-4.641245e-005
-1.448558e-005,-2.307504e-005
-5.937768e-005,-3.141010e-006
-8.887356e-005,1.338965e-005
-1.036215e-004,2.635488e-005
-1.115627e-004,4.142696e-005
-1.208004e-004,6.557468e-005
-1.386276e-004,1.044704e-004
-1.682856e-004,1.589243e-004
-2.031296e-004,2.232643e-004
-2.348944e-004,2.908455e-004
-2.588801e-004,3.595612e-004
-2.736280e-004,4.279528e-004
-2.734659e-004,4.943996e-004
-2.601766e-004,5.480433e-004
-2.405667e-004,5.786736e-004
-2.216050e-004,5.814288e-004
-2.032917e-004,5.608465e-004
-1.788198e-004,5.256782e-004
-1.374932e-004,4.838654e-004
-8.287715e-005,4.397836e-004
-1.772689e-005,3.948915e-004
5.601284e-005,3.499994e-004
1.281319e-004,3.042970e-004
1.806411e-004,2.642668e-004
1.952270e-004,2.370398e-004
1.649207e-004,2.247229e-004
8.453633e-005,2.242366e-004
-4.203669e-005,2.290986e-004
-1.997262e-004,2.386605e-004
-3.650328e-004,2.517878e-004
-5.155915e-004,2.654013e-004
-6.280648e-004,2.743149e-004
-6.860842e-004,2.782044e-004
-6.945116e-004,2.814457e-004
-6.692294e-004,2.811216e-004
-6.295234e-004,2.718839e-004
-5.888450e-004,2.464396e-004
-5.552975e-004,1.996027e-004
-5.342290e-004,1.346145e-004
-5.270981e-004,6.379197e-005
-5.295291e-004,7.485573e-007
-5.392530e-004,-4.398147e-005
-5.463839e-004,-6.829127e-005
-5.457356e-004,-7.882551e-005
-5.371462e-004,-8.595638e-005
-5.223983e-004,-9.600444e-005
-4.979264e-004,-1.070249e-004
-4.553032e-004,-1.211246e-004
-3.929081e-004,-1.391138e-004
-3.206269e-004,-1.627754e-004
-2.556388e-004,-1.968091e-004
-2.185258e-004,-2.386219e-004
-2.254946e-004,-2.767073e-004
-2.771934e-004,-3.039342e-004
-3.650328e-004,-3.193304e-004
-4.799371e-004,-3.238683e-004
-5.927345e-004,-3.222476e-004
-6.591813e-004,-3.217614e-004
-6.444334e-004,-3.209511e-004
-5.426564e-004,-3.178718e-004
-3.843186e-004,-3.151167e-004
-2.135018e-004,-3.143064e-004
-7.072225e-005,-3.102548e-004
2.619281e-005,-3.036101e-004
7.837785e-005,-2.979378e-004
1.022015e-004,-2.951827e-004
1.161391e-004,-2.932379e-004
1.328318e-004,-2.828657e-004
1.524417e-004,-2.603387e-004
1.715654e-004,-2.280877e-004
1.911753e-004,-1.909747e-004
2.102990e-004,-1.530514e-004
2.255332e-004,-1.180453e-004
2.284504e-004,-8.644259e-005
2.127300e-004,-5.872941e-005
1.833962e-004,-3.117831e-005
1.529279e-004,-1.034161e-006
1.287802e-004,3.429608e-005
1.179218e-004,8.129502e-005
1.218114e-004,1.423936e-004
1.376938e-004,2.112714e-004
1.623277e-004,2.798251e-004
1.919856e-004,3.388169e-004
2.218057e-004,3.853296e-004
2.456293e-004,4.175806e-004
2.688046e-004,4.389733e-004
2.939248e-004,4.519385e-004
3.169380e-004,4.545315e-004
3.277964e-004,4.397836e-004
3.216380e-004,4.033189e-004
2.974902e-004,3.485408e-004
2.660495e-004,2.832284e-004
2.430362e-004,2.193747e-004
2.329882e-004,1.714034e-004
2.286124e-004,1.406109e-004
2.237505e-004,1.206769e-004
2.185644e-004,1.056048e-004
2.138645e-004,9.037068e-005
2.125679e-004,7.400208e-005
2.151610e-004,5.601284e-005
2.179161e-004,3.802358e-005
2.192126e-004,2.262738e-005
2.209954e-004,1.484824e-005
2.219677e-004,1.630683e-005
2.248849e-004,2.619281e-005
2.357433e-004,4.288554e-005
2.488706e-004,6.735741e-005
2.493568e-004,9.539470e-005
2.255332e-004,1.224596e-004
1.820997e-004,1.462832e-004
1.373696e-004,1.701068e-004
1.069013e-004,1.936063e-004
9.669123e-005,2.125679e-004
1.094944e-004,2.218057e-004
1.420695e-004,2.135403e-004
1.832341e-004,1.859892e-004
2.206712e-004,1.430419e-004
2.441707e-004,9.344993e-005
2.443328e-004,4.337174e-005
2.180782e-004,4.244267e-007
1.647587e-004,-3.036798e-005
8.421220e-005,-4.932962e-005
-1.853722e-005,-5.889148e-005
-1.324691e-004,-6.375344e-005
-2.451045e-004,-6.618442e-005
-3.384541e-004,-6.991193e-005
-3.919357e-004,-7.866345e-005
-3.885323e-004,-9.470791e-005
-3.251648e-004,-1.185315e-004
-2.182017e-004,-1.498101e-004
-9.098041e-005,-1.875713e-004
3.170304e-005,-2.241981e-004
1.349386e-004,-2.517492e-004
2.164575e-004,-2.679557e-004
2.843629e-004,-2.789762e-004
3.503235e-004,-2.919414e-004
4.216323e-004,-3.089583e-004
5.010443e-004,-3.295405e-004
5.785116e-004,-3.483401e-004
6.413930e-004,-3.600088e-004
6.712130e-004,-3.630881e-004
6.477135e-004,-3.548227e-004
