7.248566e-004,-1.715269e-004
5.337815e-004,-1.793060e-004
2.318537e-004,-1.984297e-004
-2.041020e-004,-2.267911e-004
-7.614446e-004,-2.650386e-004
-1.398199e-003,-3.190063e-004
-2.035116e-003,-3.867496e-004
-2.560371e-003,-4.544929e-004
-2.850792e-003,-5.070020e-004
-2.816434e-003,-5.309877e-004
-2.447249e-003,-5.228845e-004
-1.836262e-003,-4.899852e-004
-1.139381e-003,-4.460655e-004
-5.136467e-004,-4.005251e-004
-5.840528e-005,-3.543365e-004
2.070577e-004,-3.057169e-004
3.154794e-004,-2.514251e-004
3.224483e-004,-1.919471e-004
2.877662e-004,-1.323071e-004
2.506533e-004,-7.380149e-005
2.268297e-004,-1.756482e-005
2.187264e-004,3.932010e-005
2.231022e-004,9.620504e-005
2.350950e-004,1.496866e-004
2.529222e-004,1.932822e-004
2.830664e-004,2.245608e-004
3.230965e-004,2.425500e-004
3.670162e-004,2.478982e-004
4.145014e-004,2.496809e-004
4.684692e-004,2.592428e-004
5.297299e-004,2.820940e-004
6.023352e-004,3.161277e-004
6.900126e-004,3.532407e-004
7.869278e-004,3.856538e-004
8.661778e-004,4.123946e-004
8.984288e-004,4.315182e-004
8.733086e-004,4.404318e-004
8.117238e-004,4.389733e-004
7.571077e-004,4.294114e-004
7.480320e-004,4.109360e-004
7.953551e-004,3.850055e-004
8.793051e-004,3.506476e-004
9.639032e-004,3.117519e-004
1.020626e-003,2.731804e-004
1.040722e-003,2.440086e-004
1.028892e-003,2.261814e-004
9.875648e-004,2.162954e-004
9.133389e-004,2.099749e-004
8.131823e-004,1.999268e-004
6.982779e-004,1.798307e-004
5.874252e-004,1.514693e-004
4.952099e-004,1.190562e-004
4.141773e-004,8.956036e-005
3.222862e-004,7.092284e-005
1.944166e-004,6.427817e-005
1.565857e-005,6.346784e-005
-2.173914e-004,6.184718e-005
-4.916058e-004,6.087479e-005
-7.847819e-004,6.200925e-005
-1.068882e-003,5.957827e-005
-1.303553e-003,5.212327e-005
-1.445846e-003,4.077869e-005
-1.463187e-003,2.716521e-005
-1.353145e-003,1.160693e-005
-1.144405e-003,2.045080e-006
-8.910968e-004,1.744129e-005
-6.525366e-004,7.837785e-005
-4.690787e-004,1.911753e-004
-3.491504e-004,3.469201e-004
-2.767073e-004,5.313505e-004
-2.290601e-004,7.331221e-004
-1.893541e-004,9.483449e-004
-1.506204e-004,1.167944e-003
-1.161005e-004,1.363233e-003
-8.611845e-005,1.507633e-003
-6.229485e-005,1.599849e-003
-4.462973e-005,1.649603e-003
-2.923353e-005,1.651386e-003
-9.785688e-006,1.579428e-003
1.257933e-005,1.400184e-003
2.813760e-005,1.090152e-003
3.137890e-005,6.546823e-004
2.894792e-005,1.339663e-004
3.251336e-005,-4.214316e-004
5.277153e-005,-9.615952e-004
9.247754e-005,-1.443253e-003
1.480659e-004,-1.818921e-003
2.102990e-004,-2.049216e-003
2.701012e-004,-2.127655e-003
3.222862e-004,-2.085356e-003
3.692851e-004,-1.970128e-003
4.133669e-004,-1.816490e-003
4.503179e-004,-1.643080e-003
4.743035e-004,-1.467725e-003
4.799758e-004,-1.309063e-003
4.624728e-004,-1.194483e-003
4.230909e-004,-1.162880e-003
3.647473e-004,-1.250558e-003
2.921420e-004,-1.460918e-003
2.102990e-004,-1.766412e-003
1.315353e-004,-2.144024e-003
6.606088e-005,-2.538978e-003
1.290346e-005,-2.851602e-003
-4.317115e-005,-2.983200e-003
-1.170729e-004,-2.877371e-003
-2.031296e-004,-2.564584e-003
-2.770314e-004,-2.153100e-003
-3.112272e-004,-1.766736e-003
-2.961551e-004,-1.490252e-003
-2.335979e-004,-1.322515e-003
-1.302002e-004,-1.176980e-003
-1.844488e-006,-9.547884e-004
1.276457e-004,-5.951655e-004
2.516257e-004,-1.018388e-004
3.973225e-004,4.637693e-004
6.161107e-004,1.015440e-003
9.321384e-004,1.487051e-003
1.318827e-003,1.843758e-003
1.737605e-003,2.090098e-003
2.152169e-003,2.256216e-003
2.516980e-003,2.371769e-003
2.778068e-003,2.453774e-003
2.887950e-003,2.509849e-003
2.826364e-003,2.545666e-003
2.603523e-003,2.561224e-003
2.251840e-003,2.544045e-003
1.808751e-003,2.480353e-003
1.296138e-003,2.367879e-003
7.264773e-004,2.212782e-003
1.101427e-004,2.033537e-003
-5.387668e-004,1.851213e-003
-1.211014e-003,1.683475e-003
-1.908543e-003,1.543288e-003
-2.640755e-003,1.436324e-003
-3.395171e-003,1.358047e-003
-4.120093e-003,1.300027e-003
-4.729787e-003,1.250111e-003
-4.967863e-003,1.196143e-003
-4.968025e-003,1.123052e-003
-4.968025e-003,1.025974e-003
-4.967702e-003,9.065320e-004
-4.630927e-003,7.746107e-004
-4.155910e-003,6.441481e-004
-3.582519e-003,5.294057e-004
-2.925342e-003,4.444835e-004
-2.197182e-003,3.934329e-004
-1.423157e-003,3.634508e-004
-6.578848e-004,3.368721e-004
2.392390e-005,2.986247e-004
5.561466e-004,2.474120e-004
9.162560e-004,1.842065e-004
1.130182e-003,1.083599e-004
1.248815e-003,1.922400e-005
1.325471e-003,-7.590833e-005
1.393053e-003,-1.624512e-004
1.459500e-003,-2.326255e-004
1.517033e-003,-2.851347e-004
1.554794e-003,-3.180339e-004
1.562574e-003,-3.287302e-004
1.537940e-003,-3.211132e-004
1.482027e-003,-3.052308e-004
1.407153e-003,-2.959930e-004
1.326120e-003,-3.037722e-004
1.249463e-003,-3.329439e-004
1.184150e-003,-3.797808e-004
1.129696e-003,-4.457413e-004
1.078159e-003,-5.397392e-004
1.025488e-003,-6.564262e-004
9.750858e-004,-7.726270e-004
9.266282e-004,-8.593319e-004
8.694191e-004,-8.863969e-004
7.964896e-004,-8.334015e-004
7.067053e-004,-7.146077e-004
6.068730e-004,-5.982448e-004
5.080132e-004,-5.541630e-004
4.334631e-004,-5.922483e-004
4.128807e-004,-6.664743e-004
4.592314e-004,-7.076389e-004
5.603603e-004,-6.646916e-004
6.861230e-004,-5.235327e-004
8.015137e-004,-3.081479e-004
8.721742e-004,-6.326724e-005
8.896773e-004,1.676758e-004
8.676364e-004,3.642611e-004
8.569400e-004,5.144958e-004
9.264661e-004,6.078454e-004
1.097283e-003,6.284277e-004
1.316720e-003,5.702463e-004
1.501151e-003,4.370285e-004
1.593852e-003,2.444948e-004
1.588504e-003,2.052053e-005
1.518168e-003,-1.942160e-004
1.413797e-003,-3.671397e-004
1.291924e-003,-4.794509e-004
1.160813e-003,-5.308256e-004
1.019168e-003,-5.308256e-004
8.332785e-004,-4.992229e-004
5.509604e-004,-4.624341e-004
1.409351e-004,-4.376381e-004
-3.812394e-004,-4.243487e-004
-9.701846e-004,-4.092767e-004
-1.561723e-003,-3.749188e-004
-2.063316e-003,-3.118754e-004
-2.363623e-003,-2.271153e-004
-2.380154e-003,-1.455964e-004
-2.089894e-003,-8.773911e-005
-1.548272e-003,-5.856735e-005
-8.823453e-004,-4.900550e-005
-2.473734e-004,-4.527799e-005
2.372019e-004,-3.668853e-005
5.200059e-004,-2.275091e-005
6.185417e-004,-9.623623e-006
5.875872e-004,-2.238346e-007
4.969927e-004,8.689758e-006
4.023465e-004,1.922400e-005
3.281205e-004,3.283749e-005
2.722080e-004,4.774750e-005
2.151610e-004,6.119892e-005
1.423936e-004,6.622294e-005
4.709924e-005,6.055066e-005
-7.882551e-005,5.050261e-005
-2.470493e-004,4.515445e-005
-4.651892e-004,4.661304e-005
-7.304901e-004,4.888196e-005
-1.022370e-003,5.017848e-005
-1.312791e-003,5.325772e-005
-1.564478e-003,5.844381e-005
-1.727030e-003,5.925414e-005
-1.747936e-003,5.293359e-005
-1.596081e-003,3.656499e-005
-1.287671e-003,9.500085e-006
-8.889899e-004,-2.858527e-005
-4.813957e-004,-7.347736e-005
-1.324691e-004,-1.169109e-004
1.185701e-004,-1.524032e-004
2.697770e-004,-1.767130e-004
3.464339e-004,-1.878955e-004
3.773884e-004,-1.869231e-004
3.898674e-004,-1.786577e-004
4.021844e-004,-1.692580e-004
4.140152e-004,-1.590478e-004
4.107739e-004,-1.506204e-004
3.759298e-004,-1.446240e-004
3.125623e-004,-1.418689e-004
2.407673e-004,-1.384655e-004
1.898788e-004,-1.306864e-004
1.835583e-004,-1.115627e-004
2.239125e-004,-6.310517e-005
2.947351e-004,1.371378e-005
3.827366e-004,1.017153e-004
4.811103e-004,1.825859e-004
5.824011e-004,2.592428e-004
6.798024e-004,3.498373e-004
7.608352e-004,4.691174e-004
8.099410e-004,6.245382e-004
8.175581e-004,8.186926e-004
7.838485e-004,1.036347e-003
7.248566e-004,1.248004e-003
6.639201e-004,1.417039e-003
6.148142e-004,1.501151e-003
5.721910e-004,1.461607e-003
5.229231e-004,1.277176e-003
4.655520e-004,9.642274e-004
4.008879e-004,5.780254e-004
3.300653e-004,2.017096e-004
2.485465e-004,-8.417367e-005
1.506590e-004,-2.295462e-004
3.705119e-005,-2.413770e-004
-8.514606e-005,-1.708786e-004
-1.972953e-004,-8.368748e-005
-2.807589e-004,-3.620233e-005
-3.327818e-004,-7.347736e-005
-3.749188e-004,-2.259808e-004
-4.316416e-004,-5.128364e-004
-5.040849e-004,-9.175134e-004
-5.783107e-004,-1.375672e-003
-6.321164e-004,-1.788128e-003
-6.385990e-004,-2.057157e-003
-5.796073e-004,-2.138190e-003
-4.681064e-004,-2.044354e-003
-3.501228e-004,-1.831886e-003
-2.791382e-004,-1.574526e-003
-2.822175e-004,-1.328673e-003
-3.392644e-004,-1.126578e-003
-3.938804e-004,-9.808809e-004
-3.925839e-004,-8.867210e-004
-3.175477e-004,-8.296740e-004
-1.943781e-004,-7.815406e-004
-7.056019e-005,-7.160662e-004
1.614476e-005,-6.186650e-004
5.698522e-005,-4.878783e-004
6.281957e-005,-3.345645e-004
4.029250e-005,-1.729855e-004
-1.432352e-005,-1.562004e-005
-1.233935e-004,1.247285e-004
-3.120375e-004,2.402811e-004
-5.742591e-004,3.261758e-004
-8.708386e-004,3.828986e-004
-1.148619e-003,4.167703e-004
-1.343745e-003,4.378388e-004
-1.396092e-003,4.555039e-004
-1.288967e-003,4.840274e-004
-1.062886e-003,5.345919e-004
-7.828371e-004,6.071971e-004
-5.100812e-004,6.903367e-004
-2.775176e-004,7.679661e-004
-9.405965e-005,8.216097e-004
5.260946e-005,8.418679e-004
1.887444e-004,8.348991e-004
3.342791e-004,8.154513e-004
4.916445e-004,7.994067e-004
6.486859e-004,7.942207e-004
7.814175e-004,7.960034e-004
8.668260e-004,7.908173e-004
8.911358e-004,7.700729e-004
8.478644e-004,7.362012e-004
7.444666e-004,6.937401e-004
6.000663e-004,6.464170e-004
4.371906e-004,5.958526e-004
2.867939e-004,5.464226e-004
1.783722e-004,5.029891e-004
1.242423e-004,4.725208e-004
1.086841e-004,4.568005e-004
1.107909e-004,4.533971e-004
1.124116e-004,4.491834e-004
1.112771e-004,4.341113e-004
1.164632e-004,4.098015e-004
1.365593e-004,3.853296e-004
1.671896e-004,3.650715e-004
1.981441e-004,3.465960e-004
2.232643e-004,3.292550e-004
2.417397e-004,3.148312e-004
2.560015e-004,3.018659e-004
2.697770e-004,2.921420e-004
2.838767e-004,2.882525e-004
2.995970e-004,2.859836e-004
3.136967e-004,2.782044e-004
3.211517e-004,2.644289e-004
3.205035e-004,2.519498e-004
3.146691e-004,2.485465e-004
3.041349e-004,2.574601e-004
2.869559e-004,2.736666e-004
2.631324e-004,2.914938e-004
2.318537e-004,3.059176e-004
1.950649e-004,3.122381e-004
1.569795e-004,3.094830e-004
1.221355e-004,2.986247e-004
9.215340e-005,2.848491e-004
6.152305e-005,2.715597e-004
2.505836e-005,2.626462e-004
-9.299493e-006,2.584324e-004
-2.096820e-005,2.650771e-004
1.209313e-005,2.793389e-004
9.652917e-005,2.900352e-004
2.216436e-004,2.882525e-004
3.589129e-004,2.728562e-004
4.773828e-004,2.522740e-004
5.477191e-004,2.323399e-004
5.647360e-004,2.132162e-004
5.439916e-004,1.893926e-004
5.044477e-004,1.607070e-004
4.527488e-004,1.321835e-004
3.900295e-004,1.090082e-004
3.211517e-004,9.020862e-005
2.491947e-004,7.319176e-005
1.680000e-004,4.871989e-005
6.557468e-005,1.403791e-005
-7.655660e-005,-3.069211e-005
-2.621213e-004,-7.590833e-005
-4.723200e-004,-1.062146e-004
-6.755499e-004,-1.112386e-004
-8.384255e-004,-9.146661e-005
-9.348544e-004,-6.083626e-005
-9.429576e-004,-3.247483e-005
-8.525252e-004,-8.327101e-006
-6.677708e-004,1.193106e-005
-4.141386e-004,2.570662e-005
-1.379794e-004,2.667901e-005
1.112771e-004,6.744974e-006
3.020280e-004,-2.971972e-005
4.269804e-004,-6.553616e-005
4.887274e-004,-9.195280e-005
4.973168e-004,-1.081593e-004
4.678209e-004,-1.190177e-004
4.172565e-004,-1.327933e-004
3.611819e-004,-1.553203e-004
3.175863e-004,-1.890299e-004
3.044590e-004,-2.329496e-004
3.295791e-004,-2.840002e-004
3.811159e-004,-3.358611e-004
4.336251e-004,-3.857772e-004
4.611762e-004,-4.279142e-004
4.559901e-004,-4.601652e-004
4.427008e-004,-4.867439e-004
4.772207e-004,-5.104054e-004
6.031455e-004,-5.311498e-004
8.037825e-004,-5.463839e-004
1.020140e-003,-5.565940e-004
1.188688e-003,-5.598353e-004
1.264697e-003,-5.535148e-004
1.237146e-003,-5.379565e-004
1.117704e-003,-5.215878e-004
9.256558e-004,-5.071641e-004
6.935780e-004,-4.956574e-004
4.568005e-004,-4.891749e-004
2.247229e-004,-4.877163e-004
-3.717473e-005,-4.878783e-004
-3.744326e-004,-4.828543e-004
-8.084435e-004,-4.685925e-004
-1.342287e-003,-4.476861e-004
-1.958459e-003,-4.222419e-004
-2.605749e-003,-3.953390e-004
-3.179948e-003,-3.705430e-004
-3.553672e-003,-3.473677e-004
-3.629033e-003,-3.256510e-004
-3.373778e-003,-3.099306e-004
-2.836692e-003,-3.000446e-004
-2.135434e-003,-2.851347e-004
-1.406627e-003,-2.514251e-004
-7.648479e-004,-2.050744e-004
-2.747625e-004,-1.622891e-004
6.087479e-005,-1.336036e-004
2.765838e-004,-1.258245e-004
4.198496e-004,-1.340898e-004
5.302161e-004,-1.506204e-004
6.311828e-004,-1.673132e-004
7.208050e-004,-1.797922e-004
7.883863e-004,-1.814128e-004
8.280924e-004,-1.647201e-004
8.439748e-004,-1.229073e-004
8.410576e-004,-6.440170e-005
8.195029e-004,-8.813297e-006
7.739625e-004,2.538249e-005
6.914712e-004,1.987227e-005
5.509604e-004,-2.664048e-005
3.454615e-004,-8.368748e-005
9.685330e-005,-1.070249e-004
-1.329553e-004,-7.023606e-005
-2.645523e-004,2.230325e-005
-2.360289e-004,1.558451e-004
-3.944364e-005,3.172622e-004
2.650771e-004,5.052580e-004
5.793219e-004,7.204809e-004
8.047550e-004,9.527208e-004
8.955116e-004,1.185933e-003
8.642329e-004,1.396942e-003
7.597008e-004,1.561763e-003
6.284277e-004,1.655923e-003
5.020167e-004,1.662082e-003
4.046154e-004,1.570515e-003
3.438409e-004,1.397267e-003
3.070520e-004,1.177992e-003
2.851732e-004,9.519104e-004
2.778803e-004,7.391184e-004
2.919800e-004,5.311884e-004
3.115899e-004,3.064038e-004
3.078624e-004,5.228533e-005
2.548670e-004,-2.271153e-004
1.500107e-004,-5.082985e-004
1.679302e-005,-7.573929e-004
-1.141558e-004,-9.483058e-004
-2.253326e-004,-1.065317e-003
-3.167374e-004,-1.104375e-003
-3.883702e-004,-1.074231e-003
-4.335865e-004,-9.909290e-004
-4.478482e-004,-8.734317e-004
-4.313175e-004,-7.361624e-004
-3.898288e-004,-5.875485e-004
-3.173856e-004,-4.339106e-004
-1.872472e-004,-2.852967e-004
2.149292e-005,-1.548341e-004
3.036487e-004,-5.824322e-005
6.182176e-004,2.531276e-006
9.068561e-004,3.786152e-005
1.113490e-003,6.265751e-005
1.205057e-003,8.826383e-005
1.184961e-003,1.195424e-004
1.078321e-003,1.545486e-004
9.216042e-004,1.840444e-004
7.446287e-004,1.955511e-004
5.699221e-004,1.825859e-004
4.226047e-004,1.487142e-004
3.389789e-004,1.075496e-004
3.420582e-004,7.335383e-005
4.221185e-004,5.179914e-005
5.344298e-004,4.320967e-005
6.269692e-004,4.515445e-005
6.657028e-004,4.969229e-005
6.418792e-004,4.466826e-005
5.707325e-004,2.473423e-005
4.849998e-004,-8.165035e-006
4.117463e-004,-4.446767e-005
3.540510e-004,-7.266703e-005
2.846870e-004,-8.417367e-005
1.833962e-004,-7.218083e-005
4.774750e-005,-3.522994e-005
-1.178833e-004,1.614476e-005
-3.094444e-004,6.492643e-005
-5.185087e-004,9.701536e-005
-7.395657e-004,1.075496e-004
-9.868774e-004,1.043083e-004
-1.275840e-003,9.750156e-005
-1.591219e-003,9.474644e-005
-1.885692e-003,9.960841e-005
-2.087463e-003,1.094944e-004
-2.124738e-003,1.151667e-004
-1.969966e-003,1.145184e-004
-1.660745e-003,1.078737e-004
-1.282160e-003,9.685330e-005
-9.298304e-004,8.761557e-005
-6.650157e-004,8.291568e-005
-5.001953e-004,8.696731e-005
-3.993907e-004,1.022015e-004
-3.027998e-004,1.269974e-004
-1.681235e-004,1.553589e-004
-2.238346e-007,1.843686e-004
1.621656e-004,2.117576e-004
2.859836e-004,2.406053e-004
3.749574e-004,2.738286e-004
4.506420e-004,3.089969e-004
5.164405e-004,3.427064e-004
5.621430e-004,3.675024e-004
5.887217e-004,3.796573e-004
6.018490e-004,3.859779e-004
6.107626e-004,3.924605e-004
6.191900e-004,4.018603e-004
6.191900e-004,4.133669e-004
5.900182e-004,4.316803e-004
5.057442e-004,4.713863e-004
3.511338e-004,5.365367e-004
1.284560e-004,6.088178e-004
-1.420310e-004,6.736440e-004
-4.329382e-004,7.318255e-004
-7.120146e-004,7.913035e-004
-9.233478e-004,8.575883e-004
-9.803947e-004,9.240351e-004
-8.184915e-004,9.694134e-004
-4.517378e-004,9.648756e-004
2.052053e-005,8.943772e-004
4.644175e-004,7.634282e-004
7.976240e-004,5.872631e-004
1.009606e-003,3.822504e-004
1.133100e-003,1.692965e-004
1.207164e-003,-3.604027e-005
1.254163e-003,-2.368392e-004
1.274421e-003,-4.468758e-004
1.242008e-003,-6.702017e-004
1.113652e-003,-8.995241e-004
8.504574e-004,-1.119447e-003
4.470765e-004,-1.307118e-003
-7.769106e-005,-1.445522e-003
-6.830050e-004,-1.525258e-003
-1.302581e-003,-1.540168e-003
-1.826700e-003,-1.493980e-003
-2.133004e-003,-1.401116e-003
-2.139810e-003,-1.279567e-003
-1.844527e-003,-1.140515e-003
-1.333697e-003,-9.891463e-004
-7.547998e-004,-8.351842e-004
-2.532078e-004,-6.917564e-004
8.259155e-005,-5.698834e-004
2.440086e-004,-4.708614e-004
2.856594e-004,-3.908012e-004
2.759355e-004,-3.209511e-004
2.660495e-004,-2.540181e-004
2.806354e-004,-1.818991e-004
3.216380e-004,-1.003802e-004
3.733368e-004,-1.448558e-005
4.159600e-004,6.946425e-005
4.425387e-004,1.451488e-004
4.589073e-004,2.059233e-004
4.764104e-004,2.524360e-004
5.028270e-004,2.934386e-004
5.420469e-004,3.363859e-004
5.947181e-004,3.783608e-004
6.507927e-004,4.169324e-004
6.875816e-004,4.517764e-004
6.892023e-004,4.838654e-004
6.622995e-004,5.183853e-004
6.235657e-004,5.574431e-004
5.937457e-004,5.960147e-004
5.817529e-004,6.271312e-004
5.856425e-004,6.465791e-004
5.906665e-004,6.519272e-004
5.773771e-004,6.391241e-004
5.407503e-004,6.013628e-004
4.846757e-004,5.438296e-004
4.170944e-004,4.824068e-004
3.435168e-004,4.334631e-004
2.673460e-004,3.986190e-004
1.926339e-004,3.741471e-004
1.192183e-004,3.595612e-004
4.418206e-005,3.569682e-004
-3.490581e-005,3.618301e-004
-1.081593e-004,3.675024e-004
-1.643960e-004,3.697714e-004
-1.971332e-004,3.657197e-004
-2.122053e-004,3.512959e-004
-2.170672e-004,3.271482e-004
-2.149604e-004,2.981384e-004
-2.063709e-004,2.650771e-004
-1.867610e-004,2.303951e-004
-1.572651e-004,1.992786e-004
-1.195039e-004,1.780480e-004
-7.704279e-005,1.725378e-004
-3.182657e-005,1.765894e-004
2.246531e-005,1.808031e-004
8.486046e-005,1.783722e-004
1.466074e-004,1.602208e-004
1.981441e-004,1.213252e-004
2.323399e-004,6.719535e-005
2.417397e-004,1.079661e-005
2.252090e-004,-3.231277e-005
1.936063e-004,-5.386745e-005
1.598967e-004,-5.743289e-005
1.357490e-004,-6.456377e-005
1.287802e-004,-9.033215e-005
1.362352e-004,-1.185315e-004
1.485521e-004,-1.311726e-004
1.487142e-004,-1.220970e-004
1.258630e-004,-9.049421e-005
7.821578e-005,-2.664048e-005
1.014835e-005,8.097089e-005
-6.812920e-005,2.365536e-004
-1.439758e-004,4.333010e-004
-2.100984e-004,6.533858e-004
-2.598524e-004,8.658536e-004
-2.912931e-004,1.026623e-003
-3.039342e-004,1.099876e-003
-3.040963e-004,1.083670e-003
-2.980999e-004,9.964785e-004
-2.888622e-004,8.509436e-004
-2.784900e-004,6.405826e-004
-2.733039e-004,3.636129e-004
-2.770314e-004,2.214118e-005
-2.870794e-004,-3.779981e-004
-2.997205e-004,-8.231914e-004
-3.128478e-004,-1.285564e-003
-3.253268e-004,-1.725085e-003
-3.254889e-004,-2.088435e-003
-2.951827e-004,-2.319055e-003
-2.332737e-004,-2.381612e-003
-1.532135e-004,-2.279025e-003
-7.363943e-005,-2.052133e-003
-7.100305e-007,-1.753608e-003
7.659513e-005,-1.428505e-003
1.808031e-004,-1.109561e-003
3.448133e-004,-8.165467e-004
5.932595e-004,-5.535148e-004
9.250075e-004,-3.151167e-004
1.285765e-003,-9.649064e-005
1.598714e-003,9.377406e-005
1.804538e-003,2.391467e-004
1.871795e-003,3.226103e-004
1.794814e-003,3.300653e-004
1.590611e-003,2.597290e-004
1.287710e-003,1.260251e-004
9.110699e-004,-5.483985e-005
4.814344e-004,-2.736280e-004
1.306552e-005,-5.212637e-004
-4.836646e-004,-7.855922e-004
-9.769914e-004,-1.043600e-003
-1.414730e-003,-1.265630e-003
-1.752150e-003,-1.416512e-003
-1.982121e-003,-1.471290e-003
-2.143052e-003,-1.427371e-003
-2.292962e-003,-1.299501e-003
-2.464590e-003,-1.101458e-003
-2.629086e-003,-8.473391e-004
-2.699585e-003,-5.536768e-004
-2.594080e-003,-2.370013e-004
-2.287776e-003,9.960841e-005
-1.823945e-003,4.629590e-004
-1.291560e-003,8.365198e-004
-7.851060e-004,1.180261e-003
-3.728119e-004,1.443941e-003
-6.974985e-005,1.593204e-003
1.506590e-004,1.625455e-003
3.281205e-004,1.570677e-003
4.841895e-004,1.468251e-003
6.117350e-004,1.350754e-003
6.943883e-004,1.236984e-003
7.206430e-004,1.133910e-003
7.007089e-004,1.032619e-003
6.738061e-004,9.253316e-004
6.909850e-004,8.104272e-004
7.729901e-004,6.913091e-004
9.005356e-004,5.647360e-004
1.027595e-003,4.261701e-004
1.102469e-003,2.861456e-004
1.080590e-003,1.741585e-004
9.551517e-004,1.218114e-004
7.561353e-004,1.479039e-004
5.358884e-004,2.466017e-004
3.449753e-004,3.927847e-004
2.081922e-004,5.491778e-004
1.297526e-004,6.854748e-004
9.685330e-005,7.867657e-004
8.777764e-005,8.571021e-004
8.210535e-005,9.112320e-004
7.157111e-005,9.582310e-004
5.844381e-005,9.940475e-004
3.510641e-005,1.008795e-003
-1.853722e-005,9.940475e-004
-1.211246e-004,9.478587e-004
-2.690902e-004,8.715259e-004
-4.288866e-004,7.775280e-004
-5.428185e-004,6.854748e-004
-5.494631e-004,6.133557e-004
-4.185144e-004,5.614947e-004
-1.720131e-004,5.119027e-004
1.260251e-004,4.472386e-004
3.927847e-004,3.611819e-004
5.550121e-004,2.611876e-004
5.836976e-004,1.696206e-004
5.008822e-004,1.320215e-004
3.639370e-004,1.864754e-004
2.331503e-004,3.161277e-004
1.462832e-004,4.600418e-004
1.124116e-004,5.587396e-004
1.219734e-004,5.845079e-004
1.500107e-004,5.379952e-004
1.738343e-004,4.383250e-004
1.811273e-004,3.059176e-004
1.728619e-004,1.566554e-004
1.560072e-004,5.124321e-006
1.425557e-004,-1.308485e-004
1.417454e-004,-2.381357e-004
1.551968e-004,-3.227338e-004
1.850168e-004,-4.110594e-004
2.393087e-004,-5.382806e-004
3.164518e-004,-7.274108e-004
4.005638e-004,-9.612711e-004
4.770586e-004,-1.189459e-003
5.428572e-004,-1.385558e-003
6.015248e-004,-1.543896e-003
6.493342e-004,-1.630601e-003
6.780197e-004,-1.600457e-003
6.883920e-004,-1.447143e-003
6.823955e-004,-1.217820e-003
6.621373e-004,-9.915773e-004
6.255105e-004,-8.309705e-004
5.741358e-004,-7.676030e-004
5.227611e-004,-7.911025e-004
4.913204e-004,-8.381014e-004
4.943996e-004,-8.126572e-004
5.324850e-004,-6.541573e-004
5.901803e-004,-3.773498e-004
6.454446e-004,-4.317115e-005
6.770474e-004,2.833905e-004
6.776956e-004,5.653843e-004
6.457687e-004,7.883863e-004
5.859666e-004,9.454277e-004
5.080132e-004,1.026136e-003
4.141773e-004,1.028243e-003
2.995970e-004,9.697376e-004
1.707551e-004,8.721742e-004
4.385793e-005,7.522457e-004
-6.132246e-005,6.232416e-004
-1.104282e-004,4.989374e-004
-7.250496e-005,3.906778e-004
4.564065e-005,3.075383e-004
1.874478e-004,2.517878e-004
2.832284e-004,2.213195e-004
2.978143e-004,2.060853e-004
2.402811e-004,1.939304e-004
1.485521e-004,1.678379e-004
5.974033e-005,1.235941e-004
-4.437533e-006,7.205730e-005
-4.625038e-005,2.910999e-005
-1.089697e-004,7.231170e-006
-2.679557e-004,5.610517e-006
-5.856037e-004,1.517237e-005
-1.081361e-003,2.019640e-005
-1.731406e-003,4.244267e-007
-2.467507e-003,-6.861539e-005
-3.180272e-003,-1.990780e-004
-3.724165e-003,-3.676259e-004
-3.948951e-003,-5.223983e-004
-3.763547e-003,-6.136410e-004
-3.170872e-003,-6.163961e-004
-2.285669e-003,-5.421702e-004
-1.287022e-003,-4.327761e-004
-3.540124e-004,-3.350507e-004
3.796573e-004,-2.711970e-004
8.595330e-004,-2.438080e-004
1.119810e-003,-2.509389e-004
1.226612e-003,-2.895104e-004
1.231798e-003,-3.501228e-004
1.168754e-003,-4.181903e-004
1.056767e-003,-4.770200e-004
9.096113e-004,-5.146191e-004
7.405770e-004,-5.238568e-004
5.661946e-004,-5.070020e-004
3.999155e-004,-4.731304e-004
2.474120e-004,-4.318037e-004
1.086841e-004,-3.919357e-004
-1.902341e-005,-3.549848e-004
-1.316588e-004,-3.175477e-004
-2.180396e-004,-2.746004e-004
-2.626076e-004,-2.308428e-004
-2.522354e-004,-1.950263e-004
-1.762268e-004,-1.747682e-004
-4.122636e-005,-1.690959e-004
1.265113e-004,-1.715269e-004
2.871180e-004,-1.726613e-004
4.145014e-004,-1.661787e-004
4.989374e-004,-1.511067e-004
5.422090e-004,-1.292278e-004
5.540397e-004,-1.026491e-004
5.397780e-004,-7.023606e-005
5.093097e-004,-3.555408e-005
4.772207e-004,-1.844488e-006
4.527488e-004,2.959619e-005
4.358940e-004,5.682316e-005
4.221185e-004,8.032264e-005
4.098015e-004,1.031738e-004
4.004017e-004,1.284560e-004
3.927847e-004,1.607070e-004
3.838710e-004,1.957132e-004
3.769022e-004,2.316917e-004
3.840331e-004,2.628082e-004
4.101256e-004,2.880904e-004
4.459421e-004,3.070520e-004
4.739794e-004,3.237448e-004
4.781931e-004,3.440029e-004
4.584211e-004,3.681507e-004
4.234150e-004,3.906778e-004
3.799815e-004,4.081808e-004
3.242310e-004,4.255218e-004
2.490327e-004,4.491834e-004
1.555210e-004,4.798138e-004
5.034055e-005,5.133613e-004
-4.997789e-005,5.417228e-004
-1.271210e-004,5.563086e-004
-1.677994e-004,5.564707e-004
-1.786577e-004,5.472330e-004
-1.812508e-004,5.350781e-004
-1.951884e-004,5.258403e-004
-2.220912e-004,5.203301e-004
-2.520733e-004,5.148199e-004
-2.794623e-004,5.020167e-004
-3.055549e-004,4.824068e-004
-3.397507e-004,4.621486e-004
-3.864254e-004,4.483731e-004
-4.343968e-004,4.399457e-004
-4.642168e-004,4.349216e-004
-4.624341e-004,4.310321e-004
-4.243487e-004,4.292493e-004
-3.591985e-004,4.281149e-004
-2.783279e-004,4.240633e-004
-1.861127e-004,4.127187e-004
-8.303922e-005,3.952156e-004
3.267542e-005,3.733368e-004
1.705930e-004,3.478926e-004
3.443271e-004,3.132105e-004
5.564707e-004,2.602152e-004
7.950310e-004,1.829100e-004
1.032295e-003,8.939829e-005
1.236497e-003,-6.544382e-006
1.377332e-003,-9.114248e-005
1.431949e-003,-1.640719e-004
1.394836e-003,-2.342462e-004
1.275393e-003,-3.091203e-004
1.092097e-003,-3.820497e-004
8.575883e-004,-4.314796e-004
5.713807e-004,-4.360174e-004
2.370398e-004,-3.903150e-004
-1.274451e-004,-3.154408e-004
-4.937127e-004,-2.407288e-004
-8.290258e-004,-1.883817e-004
-1.106806e-003,-1.632615e-004
-1.328025e-003,-1.590478e-004
-1.497545e-003,-1.643960e-004
-1.606129e-003,-1.692580e-004
-1.622498e-003,-1.660166e-004
-1.517803e-003,-1.546721e-004
-1.297881e-003,-1.394379e-004
-1.016859e-003,-1.152902e-004
-7.525309e-004,-6.537409e-005
-5.658317e-004,2.262738e-005
-4.637306e-004,1.436902e-004
-3.925839e-004,2.856594e-004
-2.700626e-004,4.316803e-004
-4.932962e-005,5.660325e-004
2.534084e-004,6.729957e-004
5.681394e-004,7.394425e-004
8.217718e-004,7.553250e-004
9.728169e-004,7.128638e-004
1.014630e-003,6.071971e-004
9.692514e-004,4.417284e-004
8.724983e-004,2.315296e-004
7.652109e-004,-9.461558e-006
6.634339e-004,-2.791382e-004
5.592257e-004,-5.734488e-004
4.475628e-004,-8.763488e-004
3.337929e-004,-1.162070e-003
2.372019e-004,-1.394148e-003
1.748067e-004,-1.541951e-003
1.394765e-004,-1.598188e-003
9.037068e-005,-1.575174e-003
-2.988179e-005,-1.487659e-003
-2.614731e-004,-1.348769e-003
-6.120203e-004,-1.169687e-003
-1.039386e-003,-9.677536e-004
-1.444550e-003,-7.599859e-004
-1.705799e-003,-5.585388e-004
-1.737888e-003,-3.718396e-004
-1.526717e-003,-2.081536e-004
-1.130467e-003,-6.683268e-005
-6.450817e-004,5.730935e-005
-1.747682e-004,1.694586e-004
1.970097e-004,2.726942e-004
4.297355e-004,3.684748e-004
5.243817e-004,4.589073e-004
5.050959e-004,5.431813e-004
4.081808e-004,6.200004e-004
2.760976e-004,6.872575e-004
1.467694e-004,7.444666e-004
5.228533e-005,7.883863e-004
1.452411e-005,8.101031e-004
4.369587e-005,8.096169e-004
1.399627e-004,7.926000e-004
2.889007e-004,7.668316e-004
4.545315e-004,7.391184e-004
5.952043e-004,7.206430e-004
6.861230e-004,7.144845e-004
7.238843e-004,7.159431e-004
7.208050e-004,7.146465e-004
6.976296e-004,6.971435e-004
6.723474e-004,6.558168e-004
6.519272e-004,5.906665e-004
6.316690e-004,5.183853e-004
6.041179e-004,4.592314e-004
5.689497e-004,4.250357e-004
5.287575e-004,4.132049e-004
4.845136e-004,3.973225e-004
4.261701e-004,3.483787e-004
3.409237e-004,2.629703e-004
2.276400e-004,1.751309e-004
1.005808e-004,1.232699e-004
-1.594417e-005,1.344524e-004
-1.060525e-004,2.287745e-004
-1.595340e-004,3.982949e-004
-1.632615e-004,5.953664e-004
-1.045939e-004,7.694247e-004
1.987227e-005,8.968081e-004
2.017096e-004,9.792994e-004
4.119083e-004,1.026299e-003
6.083316e-004,1.039264e-003
7.485182e-004,1.009606e-003
8.180443e-004,9.250075e-004
8.258235e-004,7.716935e-004
7.995688e-004,5.392918e-004
7.716935e-004,2.229401e-004
7.535422e-004,-1.689338e-004
7.297186e-004,-6.058619e-004
6.776956e-004,-1.049272e-003
5.862907e-004,-1.466429e-003
4.738173e-004,-1.828645e-003
3.939191e-004,-2.118418e-003
3.835469e-004,-2.321486e-003
4.122325e-004,-2.426828e-003
4.002396e-004,-2.426666e-003
2.803113e-004,-2.321162e-003
3.834771e-005,-2.116797e-003
-2.890242e-004,-1.840151e-003
-6.360059e-004,-1.537899e-003
-9.356647e-004,-1.264333e-003
-1.131602e-003,-1.057376e-003
-1.199183e-003,-9.243201e-004
-1.168553e-003,-8.384255e-004
-1.113774e-003,-7.650100e-004
-1.123660e-003,-6.830050e-004
-1.268871e-003,-5.928966e-004
-1.577768e-003,-5.053814e-004
-2.010968e-003,-4.298589e-004
-2.463941e-003,-3.621157e-004
-2.810600e-003,-2.895104e-004
-2.957918e-003,-1.976194e-004
-2.886771e-003,-7.850138e-005
-2.632814e-003,6.816773e-005
-2.243370e-003,2.352571e-004
-1.756688e-003,4.065602e-004
-1.206476e-003,5.673291e-004
-6.270924e-004,7.062191e-004
-5.565017e-005,8.151271e-004
4.564763e-004,8.958358e-004
8.579124e-004,9.627688e-004
1.124024e-003,1.032295e-003
1.257242e-003,1.108304e-003
1.285279e-003,1.182368e-003
1.246059e-003,1.241035e-003
1.177506e-003,1.273448e-003
1.112841e-003,1.272962e-003
1.071353e-003,1.241846e-003
1.053688e-003,1.184150e-003
1.049312e-003,1.102631e-003
1.033753e-003,1.007985e-003
9.797857e-004,9.094492e-004
8.828705e-004,8.148030e-004
7.616456e-004,7.269635e-004
6.441481e-004,6.493342e-004
5.546879e-004,5.895320e-004
5.046097e-004,5.509604e-004
4.922928e-004,5.289196e-004
5.080132e-004,5.110924e-004
5.375090e-004,4.879170e-004
5.642498e-004,4.585832e-004
5.764047e-004,4.261701e-004
5.697600e-004,3.984569e-004
5.435055e-004,3.762539e-004
5.028270e-004,3.543751e-004
4.590694e-004,3.294171e-004
4.284390e-004,3.054314e-004
4.239012e-004,2.822560e-004
4.444835e-004,2.571359e-004
4.775448e-004,2.247229e-004
5.073649e-004,1.832341e-004
5.174129e-004,1.410971e-004
4.968306e-004,1.083599e-004
4.516144e-004,8.583286e-005
3.895433e-004,6.298164e-005
3.256896e-004,3.008238e-005
2.655633e-004,-1.707863e-005
2.149989e-004,-6.958779e-005
1.731861e-004,-1.217728e-004
1.367214e-004,-1.710407e-004
1.036600e-004,-2.211189e-004
7.238143e-005,-2.687660e-004
4.888196e-005,-3.083100e-004
3.802358e-005,-3.360231e-004
3.932010e-005,-3.546606e-004
4.709924e-005,-3.692465e-004
5.147500e-005,-3.820497e-004
5.293359e-005,-3.912874e-004
5.277153e-005,-3.925839e-004
4.774750e-005,-3.823738e-004
2.878586e-005,-3.583881e-004
-1.448558e-005,-3.282440e-004
-7.882551e-005,-3.021515e-004
-1.509446e-004,-2.891863e-004
-2.146363e-004,-2.916173e-004
-2.614731e-004,-3.021515e-004
-2.921034e-004,-3.138202e-004
-3.183580e-004,-3.173856e-004
-3.457471e-004,-3.097686e-004
-3.692465e-004,-2.955068e-004
-3.754050e-004,-2.783279e-004
-3.478539e-004,-2.648765e-004
-2.805968e-004,-2.601766e-004
-1.765509e-004,-2.603387e-004
-4.657452e-005,-2.596904e-004
8.388807e-005,-2.509389e-004
1.929580e-004,-2.285739e-004
2.778803e-004,-2.000504e-004
3.548613e-004,-1.721751e-004
4.384871e-004,-1.485136e-004
5.279472e-004,-1.289037e-004
6.080075e-004,-1.092938e-004
6.551685e-004,-7.995997e-005
6.496583e-004,-1.788895e-005
5.875872e-004,8.712937e-005
4.835413e-004,2.274780e-004
3.584268e-004,3.875985e-004
2.315296e-004,5.488536e-004
1.193804e-004,6.940642e-004
3.332369e-005,8.146409e-004
-2.518189e-005,9.088010e-004
-6.796714e-005,9.783271e-004
-1.062146e-004,1.018519e-003
-1.462447e-004,1.016088e-003
-1.956746e-004,9.613102e-004
-2.532078e-004,8.533746e-004
-3.159271e-004,6.895264e-004
-3.820497e-004,4.482110e-004
-4.444448e-004,1.023635e-004
-4.932265e-004,-3.472056e-004
-5.230465e-004,-8.450702e-004
-5.358497e-004,-1.301122e-003
-5.285567e-004,-1.635787e-003
-5.091089e-004,-1.822000e-003
-5.032745e-004,-1.887475e-003
-5.296912e-004,-1.877264e-003
-5.971103e-004,-1.816814e-003
-6.941874e-004,-1.701748e-003
-8.141157e-004,-1.518938e-003
-9.580297e-004,-1.263199e-003
-1.114909e-003,-9.486300e-004
-1.242778e-003,-6.037550e-004
-1.292208e-003,-2.455907e-004
-1.234027e-003,1.448246e-004
-1.071800e-003,5.804563e-004
-8.452323e-004,1.029702e-003
-6.149375e-004,1.423359e-003
-4.332623e-004,1.683799e-003
-3.319715e-004,1.768235e-003
-3.329439e-004,1.686716e-003
-4.358554e-004,1.501151e-003
-6.026206e-004,1.293383e-003
-7.721409e-004,1.117217e-003
-8.906106e-004,9.817304e-004
-9.157307e-004,8.632605e-004
-8.210845e-004,7.266394e-004
-6.069963e-004,5.203301e-004
-3.060411e-004,2.049509e-004
2.894792e-005,-2.091260e-004
3.469201e-004,-6.606399e-004
6.097901e-004,-1.064182e-003
8.037825e-004,-1.348607e-003
9.282488e-004,-1.484418e-003
9.932371e-004,-1.477125e-003
1.014468e-003,-1.363355e-003
1.004906e-003,-1.198697e-003
9.757340e-004,-1.028204e-003
9.276005e-004,-8.713248e-004
8.593710e-004,-7.240074e-004
7.663454e-004,-5.702075e-004
6.524134e-004,-4.003631e-004
5.302161e-004,-2.151224e-004
4.201737e-004,-1.286493e-005
3.496752e-004,2.064095e-004
3.384927e-004,4.363802e-004
3.961880e-004,6.601926e-004
5.188715e-004,8.585607e-004
6.830437e-004,1.014792e-003
8.465679e-004,1.117055e-003
9.643894e-004,1.165513e-003
1.009606e-003,1.162271e-003
9.770306e-004,1.108790e-003
8.836808e-004,1.016899e-003
7.635903e-004,9.172284e-004
6.554927e-004,8.353853e-004
5.856425e-004,7.809313e-004
5.512846e-004,7.459252e-004
5.326470e-004,7.127018e-004
5.104441e-004,6.635960e-004
4.649037e-004,5.854804e-004
3.859779e-004,4.627969e-004
2.770700e-004,2.874421e-004
1.678379e-004,5.844381e-005
9.701536e-005,-2.096122e-004
9.247754e-005,-4.875542e-004
1.493625e-004,-7.413484e-004
2.383363e-004,-9.429576e-004
3.248792e-004,-1.067748e-003
3.799815e-004,-1.082172e-003
3.882468e-004,-9.713190e-004
3.493511e-004,-7.582033e-004
2.689667e-004,-4.890127e-004
1.524417e-004,-2.024813e-004
3.017472e-006,7.610894e-005
-1.783336e-004,3.196932e-004
-3.844807e-004,5.075270e-004
-5.847933e-004,6.462549e-004
-7.337314e-004,7.528940e-004
-8.035815e-004,8.361956e-004
-7.995299e-004,8.940530e-004
-7.484793e-004,9.222524e-004
-6.839773e-004,9.170663e-004
-6.262821e-004,8.773603e-004
-5.846313e-004,8.031343e-004
-5.604835e-004,6.937401e-004
-5.442770e-004,5.503122e-004
-5.164018e-004,3.754436e-004
-4.598410e-004,1.845306e-004
-3.695707e-004,8.851824e-006
-2.611490e-004,-1.263107e-004
-1.532135e-004,-2.104225e-004
-4.560212e-005,-2.523975e-004
8.405014e-005,-2.676316e-004
2.738286e-004,-2.715212e-004
5.452881e-004,-2.695764e-004
8.600192e-004,-2.627696e-004
1.141689e-003,-2.489941e-004
1.334223e-003,-2.334358e-004
1.424980e-003,-2.269532e-004
1.437135e-003,-2.391081e-004
1.408773e-003,-2.694143e-004
1.365016e-003,-3.066893e-004
1.304889e-003,-3.335922e-004
1.219805e-003,-3.376438e-004
1.095014e-003,-3.190063e-004
9.008598e-004,-2.843243e-004
6.036317e-004,-2.447804e-004
1.830721e-004,-2.039399e-004
-3.566054e-004,-1.622891e-004
-9.962771e-004,-1.204763e-004
-1.689917e-003,-8.303922e-005
-2.347092e-003,-6.002594e-005
-2.841230e-003,-5.419158e-005
-3.060343e-003,-5.467778e-005
-2.959862e-003,-4.884343e-005
-2.585005e-003,-3.344723e-005
-2.055374e-003,-1.562004e-005
-1.520234e-003,-3.303076e-006
-1.097406e-003,-2.330684e-006
-8.319429e-004,-2.031993e-005
-6.851118e-004,-5.548811e-005
-5.737729e-004,-9.665270e-005
-4.266177e-004,-1.332795e-004
-2.251705e-004,-1.579134e-004
2.207145e-006,-1.692580e-004
2.083542e-004,-1.713648e-004
3.592371e-004,-1.629374e-004
4.441593e-004,-1.389517e-004
4.807861e-004,-1.034594e-004
4.995857e-004,-6.650855e-005
5.213025e-004,-3.928157e-005
5.438296e-004,-2.988179e-005
5.623050e-004,-3.539201e-005
5.804563e-004,-4.706071e-005
6.059006e-004,-5.338126e-005
6.319932e-004,-4.381940e-005
6.480376e-004,-1.464765e-005
6.469032e-004,2.927205e-005
6.238899e-004,7.999851e-005
5.866149e-004,1.299146e-004
5.535535e-004,1.715654e-004
5.368608e-004,1.961994e-004
5.368608e-004,1.887444e-004
5.422090e-004,1.462832e-004
5.366987e-004,8.372601e-005
5.114165e-004,3.380988e-005
4.686312e-004,3.705119e-005
4.221185e-004,1.222976e-004
3.835469e-004,2.893870e-004
3.576164e-004,5.078511e-004
3.431926e-004,7.358771e-004
3.371962e-004,9.376486e-004
3.365480e-004,1.100038e-003
3.346032e-004,1.222236e-003
3.201794e-004,1.303755e-003
2.819319e-004,1.336816e-003
2.188885e-004,1.323203e-003
1.453108e-004,1.269235e-003
7.367795e-005,1.166323e-003
1.776542e-005,9.839993e-004
-1.302700e-005,6.982779e-004
-1.529591e-005,3.174242e-004
5.934648e-006,-1.109144e-004
3.721326e-005,-5.266119e-004
6.136099e-005,-8.659766e-004
6.168512e-005,-1.082496e-003
3.202716e-005,-1.174225e-003
-2.031993e-005,-1.139381e-003
-8.239095e-005,-9.494403e-004
-1.417068e-004,-5.881967e-004
-1.874093e-004,-9.535618e-005
-2.107467e-004,4.119083e-004
-2.079916e-004,7.729901e-004
-1.840059e-004,8.546711e-004
-1.546721e-004,6.329655e-004
-1.368449e-004,2.313675e-004
-1.371690e-004,-1.548341e-004
-1.470550e-004,-3.797808e-004
-1.530514e-004,-4.222419e-004
-1.436516e-004,-3.716775e-004
-1.136696e-004,-3.645466e-004
-7.542214e-005,-4.925782e-004
-4.446767e-005,-7.500999e-004
-2.307504e-005,-1.057214e-003
-2.816880e-006,-1.320570e-003
2.165498e-005,-1.490090e-003
4.596478e-005,-1.568368e-003
7.011252e-005,-1.594622e-003
1.023635e-004,-1.606777e-003
1.498487e-004,-1.606939e-003
2.109473e-004,-1.563182e-003
2.688046e-004,-1.439526e-003
2.966799e-004,-1.235486e-003
2.840388e-004,-9.844464e-004
2.457913e-004,-7.398899e-004
2.049509e-004,-5.478425e-004
1.786963e-004,-4.293727e-004
1.764274e-004,-3.851289e-004
1.976579e-004,-3.971218e-004
2.339606e-004,-4.322899e-004
2.662116e-004,-4.551412e-004
2.796630e-004,-4.405553e-004
2.684805e-004,-3.885323e-004
2.242366e-004,-3.126857e-004
1.292664e-004,-2.297083e-004
-2.745081e-005,-1.514308e-004
-2.337599e-004,-8.303922e-005
-4.442827e-004,-2.550602e-005
-5.831727e-004,2.197911e-005
-5.823624e-004,6.492643e-005
-4.214316e-004,1.140322e-004
-1.319829e-004,1.793446e-004
2.149989e-004,2.701012e-004
5.470709e-004,3.859779e-004
8.109135e-004,5.175750e-004
9.698996e-004,6.538720e-004
9.956681e-004,7.864416e-004
8.728224e-004,9.041011e-004
6.151384e-004,9.945336e-004
2.613496e-004,1.049960e-003
-1.293899e-004,1.071191e-003
-5.074882e-004,1.067301e-003
-8.492839e-004,1.048501e-003
-1.143108e-003,1.023543e-003
-1.377293e-003,9.964785e-004
-1.532713e-003,9.647136e-004
-1.600133e-003,9.271143e-004
-1.588950e-003,8.885428e-004
-1.522827e-003,8.572642e-004
-1.434502e-003,8.387887e-004
-1.339045e-003,8.272820e-004
-1.217334e-003,8.207994e-004
-1.034525e-003,8.170719e-004
-7.695478e-004,8.139926e-004
-4.381243e-004,8.130203e-004
-8.417367e-005,8.138306e-004
2.347709e-004,8.101031e-004
4.697657e-004,8.015137e-004
5.935837e-004,7.898449e-004
6.167590e-004,7.796348e-004
5.778633e-004,7.744487e-004
5.187094e-004,7.691005e-004
4.665244e-004,7.546768e-004
4.295735e-004,7.268014e-004
4.047775e-004,6.887161e-004
3.841952e-004,6.451205e-004
3.639370e-004,6.003904e-004
3.480546e-004,5.543638e-004
3.420582e-004,5.063924e-004
3.433547e-004,4.600418e-004
3.436788e-004,4.179048e-004
3.396272e-004,3.752816e-004
3.339549e-004,3.276344e-004
3.496752e-004,2.804733e-004
4.649037e-004,2.480603e-004
7.533802e-004,2.380122e-004
1.206515e-003,2.553532e-004
1.729826e-003,2.960316e-004
2.200303e-003,3.467581e-004
2.536752e-003,3.911640e-004
2.731880e-003,4.175806e-004
2.820692e-003,4.255218e-004
2.834144e-003,4.174185e-004
2.786010e-003,3.921364e-004
2.661543e-003,3.427064e-004
2.425088e-003,2.636185e-004
2.037589e-003,1.592484e-004
1.476517e-003,3.559260e-005
7.431700e-004,-1.079973e-004
-1.235555e-004,-2.817312e-004
-1.048624e-003,-4.967919e-004
-1.951166e-003,-7.428070e-004
-2.760684e-003,-1.000005e-003
-3.427098e-003,-1.247802e-003
-3.923344e-003,-1.458487e-003
-4.230136e-003,-1.603860e-003
-4.339531e-003,-1.661231e-003
-4.255743e-003,-1.623632e-003
-3.995302e-003,-1.509862e-003
-3.586085e-003,-1.353955e-003
-3.065043e-003,-1.187190e-003
-2.476258e-003,-1.031769e-003
-1.863003e-003,-8.923933e-004
-1.256068e-003,-7.676030e-004
-6.878669e-004,-6.556159e-004
-1.794681e-004,-5.543251e-004
2.579462e-004,-4.556273e-004
6.148142e-004,-3.588744e-004
8.870842e-004,-2.713591e-004
1.073622e-003,-2.036158e-004
1.178802e-003,-1.611547e-004
1.213808e-003,-1.386276e-004
1.197926e-003,-1.263107e-004
1.144768e-003,-1.149661e-004
1.065194e-003,-9.778715e-005
9.621205e-004,-8.044617e-005
8.421920e-004,-6.958779e-005
7.203188e-004,-6.342931e-005
6.170832e-004,-5.046408e-005
5.580913e-004,-2.356124e-005
5.636016e-004,1.533444e-005
6.272933e-004,5.974033e-005
7.251808e-004,1.085220e-004
8.306854e-004,1.535762e-004
9.267902e-004,1.808031e-004
1.007013e-003,1.978200e-004
1.065842e-003,2.394708e-004
1.095662e-003,3.337929e-004
1.089018e-003,4.786793e-004
1.048339e-003,6.391241e-004
1.002313e-003,7.650489e-004
9.757340e-004,8.300372e-004
9.637412e-004,8.381404e-004
9.370004e-004,8.159374e-004
8.739569e-004,7.859553e-004
7.830382e-004,7.473837e-004
6.968193e-004,6.775336e-004
6.400964e-004,5.397780e-004
6.154625e-004,3.077003e-004
6.067110e-004,-2.015787e-005
5.934216e-004,-4.087905e-004
5.563086e-004,-7.915886e-004
4.893756e-004,-1.098540e-003
4.036430e-004,-1.282971e-003
3.047831e-004,-1.337425e-003
1.897167e-004,-1.285402e-003
5.050261e-005,-1.164339e-003
-1.245279e-004,-1.008594e-003
-3.455850e-004,-8.350222e-004
-6.058619e-004,-6.496195e-004
-8.854245e-004,-4.572480e-004
-1.161584e-003,-2.687660e-004
-1.392365e-003,-1.055663e-004
-1.524934e-003,1.711715e-005
-1.524448e-003,9.263960e-005
-1.397389e-003,1.292664e-004
-1.192700e-003,1.396385e-004
-9.810430e-004,1.386662e-004
-8.299981e-004,1.321835e-004
-7.633893e-004,1.234320e-004
-7.669547e-004,1.164632e-004
-8.068228e-004,1.175977e-004
-8.515528e-004,1.271595e-004
-8.727834e-004,1.433661e-004
-8.534976e-004,1.615174e-004
-7.855922e-004,1.812893e-004
-6.611261e-004,2.060853e-004
-4.820440e-004,2.406053e-004
-2.637420e-004,2.872801e-004
-3.036798e-005,3.448133e-004
1.867996e-004,4.109360e-004
3.564820e-004,4.809482e-004
4.631210e-004,5.407503e-004
5.068787e-004,5.825632e-004
5.026649e-004,6.020110e-004
4.734932e-004,5.943940e-004
4.401077e-004,5.577672e-004
4.167703e-004,5.010443e-004
4.062361e-004,4.412422e-004
4.051016e-004,3.867882e-004
4.078567e-004,3.371962e-004
4.089912e-004,2.872801e-004
4.042913e-004,2.360674e-004
3.861400e-004,1.853410e-004
3.521062e-004,1.401247e-004
3.081865e-004,1.043083e-004
2.631324e-004,7.416415e-005
2.250470e-004,4.369587e-005
1.991165e-004,1.031041e-005
1.864754e-004,-2.420950e-005
1.848548e-004,-5.483985e-005
1.949028e-004,-7.120844e-005
2.117576e-004,-7.137051e-005
2.303951e-004,-5.662256e-005
2.490327e-004,-3.587821e-005
2.681563e-004,-1.821308e-005
2.872801e-004,-1.034161e-006
3.041349e-004,2.149292e-005
3.190449e-004,5.034055e-005
3.261758e-004,8.421220e-005
3.209897e-004,1.213252e-004
3.091589e-004,1.631380e-004
2.968419e-004,2.060853e-004
2.864697e-004,2.414156e-004
2.798251e-004,2.675081e-004
2.791768e-004,2.903593e-004
2.840388e-004,3.172622e-004
2.903593e-004,3.517821e-004
3.018659e-004,3.822504e-004
3.216380e-004,3.908399e-004
3.521062e-004,3.652335e-004
3.948915e-004,3.093210e-004
4.501558e-004,2.349330e-004
5.003960e-004,1.582761e-004
5.260024e-004,9.977047e-005
5.214646e-004,6.719535e-005
4.935893e-004,5.601284e-005
4.579349e-004,5.682316e-005
4.290873e-004,5.893001e-005
4.075326e-004,6.217132e-005
3.807918e-004,6.768154e-005
3.397893e-004,7.448828e-005
2.806354e-004,7.286763e-005
1.992786e-004,5.390598e-005
8.729144e-005,1.695509e-005
-6.245691e-005,-2.647842e-005
-2.546664e-004,-5.467778e-005
-4.843129e-004,-4.884343e-005
-7.418346e-004,-7.354709e-006
-1.021397e-003,5.406805e-005
-1.298853e-003,1.141943e-004
-1.523476e-003,1.616794e-004
-1.635625e-003,1.908512e-004
-1.604184e-003,2.046267e-004
-1.443740e-003,2.086784e-004
-1.208259e-003,2.044647e-004
-9.619193e-004,1.882582e-004
-7.447518e-004,1.589243e-004
-5.695592e-004,1.184080e-004
-4.321279e-004,7.011252e-005
-3.258130e-004,1.841368e-005
-2.462390e-004,-2.988179e-005
-1.938919e-004,-6.893953e-005
-1.661787e-004,-9.616651e-005
-1.546721e-004,-1.159385e-004
-1.457585e-004,-1.379794e-004
-1.245279e-004,-1.665028e-004
-8.125649e-005,-1.968091e-004
-1.967167e-005,-2.224154e-004
5.147500e-005,-2.405667e-004
1.185701e-004,-2.507768e-004
1.723757e-004,-2.538560e-004
2.112714e-004,-2.511010e-004
2.446569e-004,-2.462390e-004
2.782044e-004,-2.429977e-004
3.096451e-004,-2.431597e-004
3.352514e-004,-2.488320e-004
3.598854e-004,-2.575835e-004
3.919743e-004,-2.661730e-004
4.404318e-004,-2.705488e-004
4.961824e-004,-2.653627e-004
5.399400e-004,-2.506147e-004
5.483674e-004,-2.316531e-004
5.131993e-004,-2.156086e-004
4.449697e-004,-2.081536e-004
3.707437e-004,-2.060468e-004
3.136967e-004,-2.058847e-004
2.783665e-004,-2.065330e-004
2.623220e-004,-2.079916e-004
2.495189e-004,-2.083157e-004
2.305572e-004,-2.024813e-004
2.055991e-004,-1.903264e-004
1.743205e-004,-1.702304e-004
1.391524e-004,-1.464067e-004
9.199134e-005,-1.219349e-004
2.424803e-005,-1.034594e-004
-5.581224e-005,-9.892161e-005
-1.287416e-004,-1.206384e-004
-1.780095e-004,-1.746061e-004
-1.966470e-004,-2.434839e-004
-1.901644e-004,-2.961551e-004
-1.724993e-004,-3.091203e-004
-1.512687e-004,-2.731418e-004
-1.331174e-004,-1.974573e-004
-1.157764e-004,-9.211487e-005
-9.017008e-005,3.510641e-005
-5.240886e-005,1.723757e-004
3.665733e-006,2.991108e-004
7.221937e-005,3.973225e-004
1.410971e-004,4.545315e-004
2.036544e-004,4.721967e-004
2.913317e-004,4.580970e-004
4.506420e-004,4.234150e-004
6.853127e-004,3.803056e-004
9.459140e-004,3.435168e-004
1.162271e-003,3.154794e-004
1.288034e-003,2.838767e-004
1.313154e-003,2.312055e-004
1.256107e-003,1.611932e-004
1.146389e-003,9.717743e-005
1.016412e-003,6.751948e-005
8.909738e-004,9.231547e-005
7.674799e-004,1.699448e-004
6.060627e-004,2.793389e-004
3.532407e-004,3.887330e-004
-3.587821e-005,4.705760e-004
-5.736109e-004,5.120648e-004
-1.230137e-003,5.115786e-004
-1.921832e-003,4.773828e-004
-2.517747e-003,4.201737e-004
-2.885312e-003,3.563199e-004
-2.939442e-003,2.974902e-004
-2.677382e-003,2.509774e-004
-2.186323e-003,2.119197e-004
-1.603212e-003,1.722137e-004
-1.048786e-003,1.286181e-004
-5.883588e-004,8.680524e-005
-2.292221e-004,5.309566e-005
5.212327e-005,2.732727e-005
2.856594e-004,8.203562e-006
4.986133e-004,-4.761664e-006
6.992503e-004,-1.221667e-005
8.721742e-004,-6.706447e-006
9.997197e-004,1.760335e-005
1.077349e-003,6.541262e-005
1.109438e-003,1.370455e-004
1.097607e-003,2.321778e-004
1.038453e-003,3.542131e-004
9.232248e-004,5.065545e-004
7.498147e-004,6.823955e-004
5.358884e-004,8.571021e-004
3.174242e-004,1.002961e-003
1.216493e-004,1.092583e-003
-4.187462e-005,1.105386e-003
-1.713648e-004,1.035050e-003
-2.608248e-004,8.917841e-004
-3.062031e-004,6.976296e-004
-3.196545e-004,4.668485e-004
-3.165753e-004,2.052750e-004
-3.071755e-004,-7.898758e-005
-2.917793e-004,-3.685983e-004
-2.647144e-004,-6.492953e-004
-2.173914e-004,-9.168651e-004
-1.415448e-004,-1.169849e-003
-3.231277e-005,-1.401927e-003
1.081979e-004,-1.592678e-003
2.696149e-004,-1.719737e-003
4.378388e-004,-1.770787e-003
5.945560e-004,-1.753284e-003
7.130259e-004,-1.689106e-003
7.640765e-004,-1.598350e-003
7.349047e-004,-1.490576e-003
6.384758e-004,-1.365138e-003
5.070407e-004,-1.216848e-003
3.877606e-004,-1.051217e-003
3.269861e-004,-8.739179e-004
3.534027e-004,-6.945116e-004
4.496696e-004,-5.283947e-004
5.589016e-004,-3.888564e-004
6.162729e-004,-2.741142e-004
5.846701e-004,-1.890299e-004
4.715484e-004,-1.496481e-004
3.221241e-004,-1.669890e-004
1.926339e-004,-2.335979e-004
1.268354e-004,-3.272716e-004
1.346145e-004,-4.253211e-004
1.869616e-004,-4.993849e-004
2.240746e-004,-5.095950e-004
1.979821e-004,-4.227281e-004
9.750156e-005,-2.331117e-004
-5.646050e-005,3.867184e-005
-2.370013e-004,3.653956e-004
-4.186764e-004,7.156190e-004
-5.972724e-004,1.065194e-003
-7.732753e-004,1.394998e-003
-9.377715e-004,1.689633e-003
-1.078606e-003,1.926573e-003
-1.168553e-003,2.080212e-003
-1.169687e-003,2.138556e-003
-1.064182e-003,2.103063e-003
-8.779695e-004,1.983134e-003
-6.603158e-004,1.788980e-003
-4.583824e-004,1.532591e-003
-3.076617e-004,1.222074e-003
-2.235498e-004,8.637467e-004
-1.992400e-004,4.734932e-004
-2.112329e-004,8.583286e-005
-2.159328e-004,-2.564491e-004
-1.737958e-004,-5.139708e-004
-5.856735e-005,-6.635571e-004
1.328318e-004,-7.013183e-004
3.791712e-004,-6.434610e-004
6.431757e-004,-5.232086e-004
8.877325e-004,-3.747568e-004
1.086587e-003,-2.258187e-004
1.218022e-003,-8.903562e-005
1.272476e-003,3.105477e-005
1.259835e-003,1.378558e-004
1.203436e-003,2.337985e-004
1.122241e-003,3.120761e-004
1.030512e-003,3.546993e-004
9.251696e-004,3.517821e-004
7.960034e-004,3.120761e-004
6.315070e-004,2.527602e-004
4.302217e-004,1.966855e-004
1.906891e-004,1.566554e-004
-8.692878e-005,1.321835e-004
-4.003631e-004,1.167873e-004
-7.483172e-004,1.013911e-004
-1.124633e-003,7.870197e-005
-1.517965e-003,5.017848e-005
-1.887636e-003,2.327564e-005
-2.161527e-003,4.313994e-006
-2.271408e-003,-4.761664e-006
-2.171899e-003,-1.367526e-005
-1.867378e-003,-3.134038e-005
-1.404844e-003,-5.856735e-005
-8.481495e-004,-8.190475e-005
-2.642282e-004,-8.887356e-005
2.840388e-004,-7.380149e-005
7.452769e-004,-3.911951e-005
1.089504e-003,4.476060e-006
1.300838e-003,4.531652e-005
1.376036e-003,7.173317e-005
1.333251e-003,7.902610e-005
1.210081e-003,6.995045e-005
1.041371e-003,5.244739e-005
8.436506e-004,3.380988e-005
6.138419e-004,1.517237e-005
3.409237e-004,-6.868513e-006
2.910999e-005,-3.117831e-005
-2.702246e-004,-5.646050e-005
-4.789647e-004,-7.931171e-005
-5.493010e-004,-9.746302e-005
-4.997091e-004,-1.131834e-004
-3.922598e-004,-1.263107e-004
-2.851347e-004,-1.366828e-004
-2.186879e-004,-1.397621e-004
-2.147983e-004,-1.358725e-004
-2.676316e-004,-1.225832e-004
-3.365093e-004,-1.023250e-004
-3.685983e-004,-7.801519e-005
-3.280820e-004,-4.965376e-005
-2.126914e-004,-1.918548e-005
-4.381940e-005,1.047248e-005
1.407730e-004,3.510641e-005
3.052694e-004,4.969229e-005
4.294114e-004,5.552663e-005
5.153061e-004,6.006447e-005
5.777013e-004,7.108491e-005
6.256726e-004,1.020394e-004
6.603546e-004,1.597346e-004
6.755888e-004,2.221298e-004
6.686199e-004,2.561635e-004
6.396103e-004,2.414156e-004
5.903424e-004,1.812893e-004
5.297299e-004,9.993253e-005
4.717105e-004,2.133085e-005
4.237391e-004,-3.555408e-005
3.864641e-004,-5.192267e-005
3.597233e-004,-3.465141e-006
3.383307e-004,1.028497e-004
3.159656e-004,2.289366e-004
2.796630e-004,3.127243e-004
2.218057e-004,3.021901e-004
1.449867e-004,1.772377e-004
5.325772e-005,-3.522994e-005
-4.835724e-005,-2.703867e-004
-1.561307e-004,-4.653512e-004
-2.707109e-004,-5.789590e-004
-3.906392e-004,-6.076446e-004
-4.932265e-004,-5.749074e-004
-5.264499e-004,-5.076503e-004
-4.269418e-004,-4.262935e-004
-1.784957e-004,-3.360231e-004
1.564933e-004,-2.386219e-004
4.715484e-004,-1.342519e-004
6.909850e-004,-3.036798e-005
7.953551e-004,6.281957e-005
8.107513e-004,1.381800e-004
7.720177e-004,1.950649e-004
7.130259e-004,2.373639e-004
6.559788e-004,2.718839e-004
5.960147e-004,2.957075e-004
4.943996e-004,2.961937e-004
3.010556e-004,2.666978e-004
-2.275091e-005,2.033302e-004
-4.736166e-004,1.124116e-004
-1.013294e-003,9.662150e-006
-1.577930e-003,-8.547019e-005
-2.068016e-003,-1.596961e-004
-2.367999e-003,-2.055606e-004
-2.387284e-003,-2.238740e-004
-2.105291e-003,-2.267911e-004
-1.584736e-003,-2.233878e-004
-9.500885e-004,-2.190120e-004
-3.403989e-004,-2.154466e-004
1.389903e-004,-2.099363e-004
4.402698e-004,-2.018331e-004
5.749461e-004,-1.937298e-004
5.856425e-004,-1.896782e-004
5.305402e-004,-1.875713e-004
4.631210e-004,-1.809267e-004
4.226047e-004,-1.653684e-004
4.269804e-004,-1.421931e-004
4.689553e-004,-1.156143e-004
5.274609e-004,-9.017008e-005
5.809425e-004,-6.456377e-005
6.156246e-004,-3.604027e-005
6.250244e-004,-4.113403e-006
6.212969e-004,2.570662e-005
6.253485e-004,4.596478e-005
6.572754e-004,5.228533e-005
7.131880e-004,5.017848e-005
7.699109e-004,4.839576e-005
8.052412e-004,5.179914e-005
8.102651e-004,6.168512e-005
7.862795e-004,7.221937e-005
7.447907e-004,8.097089e-005
6.882299e-004,8.907416e-005
6.063868e-004,9.928428e-005
4.924549e-004,1.135460e-004
3.480546e-004,1.334801e-004
1.837203e-004,1.579519e-004
9.013889e-006,1.804790e-004
-1.710407e-004,1.945787e-004
-3.580640e-004,2.015475e-004
-5.595111e-004,2.054371e-004
-7.727891e-004,2.073819e-004
-9.703467e-004,2.083542e-004
-1.108426e-003,2.122438e-004
-1.135491e-003,2.182402e-004
-1.008432e-003,2.218057e-004
-7.180111e-004,2.248849e-004
-2.946965e-004,2.359054e-004
1.918236e-004,2.548670e-004
6.519272e-004,2.722080e-004
1.008633e-003,2.775562e-004
1.217536e-003,2.715597e-004
1.271504e-003,2.556773e-004
1.193874e-003,2.381743e-004
1.026947e-003,2.252090e-004
8.170719e-004,2.214815e-004
6.013628e-004,2.232643e-004
4.004017e-004,2.243987e-004
2.161334e-004,2.256952e-004
4.256141e-005,2.253711e-004
-1.425172e-004,2.234263e-004
-3.648708e-004,2.261814e-004
-6.564262e-004,2.423880e-004
-1.022046e-003,2.723701e-004
-1.436285e-003,3.067279e-004
-1.858627e-003,3.279585e-004
-2.238832e-003,3.263378e-004
-2.504458e-003,3.030004e-004
-2.578198e-003,2.705873e-004
-2.425532e-003,2.396328e-004
-2.077577e-003,2.141886e-004
-1.609370e-003,1.872858e-004
-1.098216e-003,1.571416e-004
-5.974344e-004,1.385041e-004
-1.386276e-004,1.539003e-004
2.561635e-004,2.051129e-004
5.695980e-004,2.882525e-004
7.997309e-004,3.986190e-004
9.496415e-004,5.326470e-004
1.022085e-003,6.781818e-004
1.030674e-003,8.126961e-004
9.979371e-004,8.985908e-004
9.470484e-004,8.896773e-004
8.875704e-004,7.561353e-004
8.138306e-004,5.182233e-004
7.141604e-004,2.290986e-004
5.755944e-004,-6.796714e-005
3.895433e-004,-3.666535e-004
1.475797e-004,-6.880290e-004
-1.520790e-004,-1.053810e-003
-4.818819e-004,-1.456705e-003
-7.883473e-004,-1.855061e-003
-1.002760e-003,-2.180489e-003
-1.073420e-003,-2.372050e-003
-9.844464e-004,-2.400898e-003
-7.658203e-004,-2.273514e-003
-4.867439e-004,-2.018585e-003
-2.194982e-004,-1.673548e-003
-1.844488e-006,-1.276812e-003
1.665414e-004,-8.624112e-004
3.085106e-004,-4.624341e-004
4.376768e-004,-1.058904e-004
5.645740e-004,1.801549e-004
6.851507e-004,3.801436e-004
7.913035e-004,4.958582e-004
8.712018e-004,5.379952e-004
9.144733e-004,5.154681e-004
9.185249e-004,4.326527e-004
8.959978e-004,2.974902e-004
8.755776e-004,1.304008e-004
8.878945e-004,-3.798505e-005
9.559621e-004,-1.749302e-004
1.073946e-003,-2.605007e-004
1.197764e-003,-2.930758e-004
1.266966e-003,-2.852967e-004
1.243628e-003,-2.509389e-004
1.128886e-003,-2.006986e-004
9.506139e-004,-1.332795e-004
7.308531e-004,-4.057810e-005
4.807861e-004,8.113296e-005
2.119197e-004,2.240746e-004
-4.641245e-005,3.704196e-004
-2.472114e-004,5.000719e-004
-3.604950e-004,6.005525e-004
-3.964735e-004,6.668373e-004
-3.878840e-004,7.023296e-004
-3.611433e-004,7.217774e-004
-3.152788e-004,7.396046e-004
-2.353806e-004,7.622938e-004
-1.083214e-004,7.879001e-004
6.411610e-005,8.099410e-004
2.543808e-004,8.203132e-004
4.167703e-004,8.126961e-004
5.188715e-004,7.895208e-004
5.480433e-004,7.593766e-004
5.081752e-004,7.268014e-004
4.114222e-004,6.955228e-004
2.788527e-004,6.661890e-004
1.347766e-004,6.371793e-004
3.179537e-006,6.086557e-004
-9.470791e-005,5.856425e-004
-1.488377e-004,5.720290e-004
-1.632615e-004,5.661946e-004
-1.515928e-004,5.626292e-004
-1.300382e-004,5.601982e-004
-1.122110e-004,5.566327e-004
-1.097800e-004,5.436675e-004
-1.255003e-004,5.200059e-004
-1.502963e-004,4.895377e-004
-1.689338e-004,4.540453e-004
-1.699062e-004,4.086671e-004
-1.520790e-004,3.542131e-004
-1.238797e-004,2.859836e-004
-9.454585e-005,2.030061e-004
-7.558420e-005,1.154908e-004
-6.991193e-005,4.418206e-005
-6.877746e-005,-7.100305e-007
-6.910160e-005,-2.518189e-005
-7.655660e-005,-4.268495e-005
-9.568031e-005,-6.197072e-005
-1.289037e-004,-8.498399e-005
-1.634236e-004,-1.122110e-004
-1.789819e-004,-1.415448e-004
-1.502963e-004,-1.741199e-004
-3.490581e-005,-2.096122e-004
1.806411e-004,-2.446183e-004
4.558281e-004,-2.723315e-004
7.164293e-004,-2.848105e-004
8.990770e-004,-2.831898e-004
9.765443e-004,-2.802727e-004
9.540173e-004,-2.864312e-004
8.502954e-004,-3.011791e-004
6.830437e-004,-3.144685e-004
4.777069e-004,-3.232200e-004
2.538946e-004,-3.271096e-004
-7.030578e-006,-3.292164e-004
-3.400748e-004,-3.316474e-004
-7.611204e-004,-3.275957e-004
-1.251368e-003,-3.076617e-004
-1.776622e-003,-2.692523e-004
-2.289883e-003,-2.191741e-004
-2.714333e-003,-1.671511e-004
-2.949490e-003,-1.188556e-004
-2.914322e-003,-7.801519e-005
-2.590677e-003,-4.365734e-005
-2.042247e-003,-1.059602e-005
-1.387503e-003,2.684107e-005
-7.624169e-004,8.550872e-005
-2.754107e-004,1.832341e-004
2.862379e-005,3.085106e-004
1.675138e-004,4.138531e-004
1.958752e-004,4.410801e-004
1.748067e-004,3.472443e-004
1.529279e-004,1.261871e-004
1.564933e-004,-1.781716e-004
1.897167e-004,-4.984126e-004
2.485465e-004,-7.706822e-004
3.261758e-004,-9.596504e-004
4.128807e-004,-1.063210e-003
5.013684e-004,-1.100485e-003
5.807805e-004,-1.094327e-003
6.371793e-004,-1.063534e-003
6.493342e-004,-1.023504e-003
6.005525e-004,-9.886600e-004
4.987754e-004,-9.596504e-004
3.723644e-004,-9.233478e-004
2.592428e-004,-8.484736e-004
1.850168e-004,-6.993735e-004
1.527658e-004,-4.647030e-004
1.542244e-004,-1.661787e-004
1.759412e-004,1.521176e-004
2.017096e-004,4.451317e-004
2.227781e-004,6.825576e-004
2.334744e-004,8.559676e-004
2.347709e-004,9.739513e-004
2.313675e-004,1.049960e-003
2.284504e-004,1.094366e-003
2.323399e-004,1.106845e-003
2.423880e-004,1.081239e-003
2.564877e-004,1.007175e-003
2.733424e-004,8.836808e-004
2.893870e-004,7.224257e-004
3.000832e-004,5.426951e-004
3.049452e-004,3.671783e-004
3.072141e-004,2.135403e-004
3.117519e-004,9.393612e-005
3.198552e-004,1.225520e-005
3.341170e-004,-3.911951e-005
3.569682e-004,-7.282909e-005
3.848434e-004,-1.003802e-004
4.051016e-004,-1.287416e-004
4.127187e-004,-1.522411e-004
4.093153e-004,-1.614788e-004
3.986190e-004,-1.477033e-004
3.867882e-004,-1.105903e-004
3.775505e-004,-5.937768e-005
3.730126e-004,-7.354709e-006
3.692851e-004,3.202716e-005
3.653956e-004,5.066468e-005
3.568061e-004,5.001642e-005
3.394651e-004,3.202716e-005
3.104554e-004,5.124321e-006
2.751252e-004,-2.453363e-005
2.409294e-004,-5.143648e-005
2.112714e-004,-7.185670e-005
1.895547e-004,-8.709085e-005
1.702689e-004,-1.013526e-004
1.406109e-004,-1.157764e-004
9.442231e-005,-1.302002e-004
4.790957e-005,-1.412206e-004
1.841368e-005,-1.418689e-004
1.614476e-005,-1.316588e-004
3.510641e-005,-1.180453e-004
5.439218e-005,-1.123730e-004
5.601284e-005,-1.164247e-004
3.559260e-005,-1.248521e-004
3.989864e-006,-1.292278e-004
1.234753e-006,-1.240417e-004
7.238143e-005,-1.110765e-004
2.320158e-004,-9.276313e-005
4.417284e-004,-7.023606e-005
6.321552e-004,-4.284701e-005
7.423597e-004,-9.137427e-006
7.468975e-004,3.186510e-005
6.712130e-004,7.691926e-005
5.632775e-004,1.239182e-004
4.689553e-004,1.665414e-004
4.136911e-004,1.992786e-004
3.992672e-004,2.214815e-004
4.177427e-004,2.321778e-004
4.616624e-004,2.344468e-004
5.204921e-004,2.337985e-004
5.742979e-004,2.337985e-004
5.879114e-004,2.372019e-004
5.221128e-004,2.456293e-004
3.553475e-004,2.563256e-004
9.377406e-005,2.683184e-004
-2.337599e-004,2.807975e-004
-5.893312e-004,2.900352e-004
-9.309648e-004,2.921420e-004
-1.215389e-003,2.851732e-004
-1.419916e-003,2.691288e-004
-1.551351e-003,2.415777e-004
-1.644701e-003,2.046267e-004
-1.746640e-003,1.641104e-004
-1.890554e-003,1.265113e-004
-2.074174e-003,9.539470e-005
-2.246287e-003,7.497447e-005
-2.331534e-003,6.832980e-005
-2.273190e-003,7.772959e-005
-2.059426e-003,1.025256e-004
-1.725085e-003,1.360731e-004
-1.331752e-003,1.663793e-004
-9.311269e-004,1.863134e-004
-5.525423e-004,1.970097e-004
-2.112329e-004,2.068957e-004
7.416415e-005,2.242366e-004
2.921420e-004,2.504913e-004
4.488593e-004,2.777182e-004
5.684635e-004,2.958695e-004
6.840162e-004,3.013798e-004
8.126961e-004,2.913317e-004
9.502898e-004,2.699391e-004
1.077673e-003,2.516257e-004
1.175237e-003,2.444948e-004
1.233742e-003,2.443328e-004
1.261942e-003,2.404432e-004
1.287062e-003,2.234263e-004
1.332602e-003,1.910133e-004
1.395970e-003,1.441764e-004
1.445724e-003,9.523264e-005
1.442969e-003,5.212327e-005
1.369715e-003,1.646890e-005
1.229205e-003,-1.448558e-005
1.035698e-003,-4.219875e-005
8.105893e-004,-6.812920e-005
5.676532e-004,-9.405965e-005
3.200173e-004,-1.186936e-004
7.157111e-005,-1.431655e-004
-1.781716e-004,-1.689338e-004
-4.259694e-004,-1.943781e-004
-6.543194e-004,-2.173914e-004
-8.334015e-004,-2.342462e-004
-9.277235e-004,-2.428356e-004
-9.108688e-004,-2.459149e-004
-7.880232e-004,-2.452666e-004
-6.061860e-004,-2.373254e-004
-4.337485e-004,-2.261429e-004
-3.262992e-004,-2.183637e-004
-2.927517e-004,-2.199844e-004
-3.006929e-004,-2.337599e-004
-3.013411e-004,-2.579077e-004
-2.485079e-004,-2.874036e-004
-1.314967e-004,-3.154408e-004
2.797553e-005,-3.337542e-004
1.934442e-004,-3.345645e-004
3.289309e-004,-3.154408e-004
4.088291e-004,-2.827037e-004
4.282770e-004,-2.464010e-004
3.978086e-004,-2.131776e-004
3.449753e-004,-1.823853e-004
2.936006e-004,-1.566169e-004
2.469258e-004,-1.373311e-004
1.976579e-004,-1.253383e-004
1.485521e-004,-1.185315e-004
1.104668e-004,-1.173971e-004
9.896015e-005,-1.242038e-004
1.321835e-004,-1.324691e-004
2.070577e-004,-1.340898e-004
2.999212e-004,-1.266348e-004
3.746333e-004,-1.092938e-004
4.114222e-004,-8.417367e-005
4.085050e-004,-4.916756e-005
3.833848e-004,4.151929e-006
3.529166e-004,7.837785e-005
3.208276e-004,1.508211e-004
2.812837e-004,1.957132e-004
2.300710e-004,2.031682e-004
1.681620e-004,1.863134e-004
9.814982e-005,1.637863e-004
2.246531e-005,1.495245e-004
-5.013995e-005,1.482280e-004
-1.125351e-004,1.574657e-004
-1.630995e-004,1.694586e-004
-2.073433e-004,1.743205e-004
-2.480217e-004,1.696206e-004
-2.846485e-004,1.564933e-004
-3.105789e-004,1.297526e-004
-3.211132e-004,8.680524e-005
-3.159271e-004,3.445814e-005
-2.935620e-004,-1.869928e-005
-2.504527e-004,-6.699475e-005
-1.880575e-004,-1.062146e-004
-1.057284e-004,-1.340898e-004
-5.734056e-006,-1.475412e-004
9.879808e-005,-1.467309e-004
1.973338e-004,-1.347380e-004
2.765838e-004,-1.110765e-004
3.287688e-004,-7.250496e-005
3.597233e-004,-1.740276e-005
3.780367e-004,4.855783e-005
3.846814e-004,1.188942e-004
3.720403e-004,1.879340e-004
3.347652e-004,2.495189e-004
2.705873e-004,2.979764e-004
1.924718e-004,3.256896e-004
1.166253e-004,3.324963e-004
5.698522e-005,3.240689e-004
2.343770e-005,3.073762e-004
1.225520e-005,2.876042e-004
4.313994e-006,2.738286e-004
-2.064406e-005,2.678322e-004
-6.683268e-005,2.629703e-004
-1.151281e-004,2.561635e-004
-1.444620e-004,2.469258e-004
-1.486757e-004,2.357433e-004
-1.394379e-004,2.255332e-004
-1.357104e-004,2.206712e-004
-1.528894e-004,2.214815e-004
-1.903264e-004,2.253711e-004
-2.366771e-004,2.350950e-004
-2.762210e-004,2.430362e-004
-2.953447e-004,2.428742e-004
-2.817312e-004,2.362295e-004
-2.287359e-004,2.287745e-004
-1.483515e-004,2.224539e-004
-5.613637e-005,2.109473e-004
3.121684e-005,1.872858e-004
9.814982e-005,1.545486e-004
1.373696e-004,1.325077e-004
1.482280e-004,1.433661e-004
1.383420e-004,1.968476e-004
1.103047e-004,2.889007e-004
7.027458e-005,4.052637e-004
2.311357e-005,5.237334e-004
-2.826114e-005,6.232416e-004
-7.671866e-005,7.016813e-004
-1.122110e-004,7.668316e-004
-1.227452e-004,8.146409e-004
-1.018388e-004,8.229063e-004
-4.932962e-005,7.703970e-004
5.115087e-005,6.572754e-004
2.219677e-004,5.000719e-004
4.511282e-004,3.101313e-004
6.919574e-004,8.631905e-005
8.922703e-004,-1.773612e-004
1.014630e-003,-4.757234e-004
1.058712e-003,-7.885094e-004
1.055956e-003,-1.078282e-003
1.036347e-003,-1.309874e-003
1.006040e-003,-1.462377e-003
9.562862e-004,-1.533362e-003
8.606675e-004,-1.546165e-003
6.652166e-004,-1.544706e-003
3.154794e-004,-1.562857e-003
-2.052365e-004,-1.601267e-003
-8.528493e-004,-1.630763e-003
-1.544058e-003,-1.613746e-003
-2.165903e-003,-1.529472e-003
-2.598618e-003,-1.379399e-003
-2.732484e-003,-1.169849e-003
-2.509968e-003,-8.974173e-004
-1.962024e-003,-5.582146e-004
-1.205990e-003,-1.838438e-004
-4.134903e-004,1.590864e-004
2.368777e-004,3.992672e-004
6.209727e-004,5.047718e-004
7.191843e-004,5.054200e-004
5.859666e-004,4.683071e-004
3.101313e-004,4.553419e-004
-2.258885e-005,4.990995e-004
-3.614674e-004,5.956905e-004
-6.904599e-004,7.141604e-004
-9.912532e-004,8.110755e-004
-1.217496e-003,8.519160e-004
-1.315708e-003,8.217718e-004
-1.254609e-003,7.313393e-004
-1.034200e-003,6.083316e-004
-6.890013e-004,4.802999e-004
-2.865932e-004,3.704196e-004
9.199134e-005,2.989488e-004
3.838710e-004,2.731804e-004
5.666808e-004,2.900352e-004
6.532237e-004,3.371962e-004
6.739681e-004,3.961880e-004
6.635960e-004,4.427008e-004
6.624615e-004,4.535592e-004
7.107570e-004,4.204978e-004
8.263097e-004,3.566440e-004
9.886993e-004,2.853353e-004
1.149144e-003,2.260194e-004
1.244439e-003,1.911753e-004
1.236822e-003,1.798307e-004
1.122079e-003,1.801549e-004
9.279247e-004,1.806411e-004
6.986021e-004,1.777239e-004
4.814344e-004,1.697827e-004
3.023522e-004,1.581140e-004
1.629760e-004,1.501728e-004
5.147500e-005,1.496866e-004
-3.360929e-005,1.568175e-004
-9.081835e-005,1.678379e-004
-1.279313e-004,1.772377e-004
-1.592099e-004,1.822617e-004
-2.053985e-004,1.832341e-004
-2.950206e-004,1.798307e-004
-4.386105e-004,1.710792e-004
-6.176926e-004,1.542244e-004
-7.977472e-004,1.315353e-004
-9.364750e-004,1.099806e-004
-9.829877e-004,9.426025e-005
-9.077895e-004,8.356394e-005
-7.150938e-004,7.821578e-005
-4.381243e-004,7.967438e-005
-1.279313e-004,8.534666e-005
1.597346e-004,9.101894e-005
3.828986e-004,9.620504e-005
5.290816e-004,9.733949e-005
6.112488e-004,9.507057e-005
6.545202e-004,8.907416e-005
6.903367e-004,7.756752e-005
7.407391e-004,6.379197e-005
8.102651e-004,5.260946e-005
8.901635e-004,4.596478e-005
9.724927e-004,3.899597e-005
1.045746e-003,2.457216e-005
1.104738e-003,-1.844488e-006
1.143796e-003,-3.604027e-005
1.148334e-003,-6.991193e-005
1.103442e-003,-9.454585e-005
1.000854e-003,-1.097800e-004
8.413817e-004,-1.209625e-004
6.462549e-004,-1.321450e-004
4.611762e-004,-1.433275e-004
3.430306e-004,-1.480274e-004
3.269861e-004,-1.433275e-004
4.004017e-004,-1.290658e-004
5.029891e-004,-1.083214e-004
5.571189e-004,-8.579432e-005
5.065545e-004,-6.180866e-005
3.357376e-004,-3.668853e-005
6.687121e-005,-1.740276e-005
-2.535319e-004,-1.092015e-005
-5.872243e-004,-1.740276e-005
-9.199444e-004,-2.437157e-005
-1.218793e-003,-2.210265e-005
-1.422995e-003,-8.327101e-006
-1.456705e-003,1.436204e-005
-1.279891e-003,4.110282e-005
-9.230236e-004,6.654708e-005
-4.747511e-004,9.312580e-005
-3.895745e-005,1.222976e-004
3.033245e-004,1.496866e-004
5.086614e-004,1.707551e-004
5.730013e-004,1.835583e-004
5.131993e-004,1.940925e-004
3.605336e-004,2.043026e-004
1.605450e-004,2.130541e-004
-4.787104e-005,2.166196e-004
-2.523975e-004,2.146748e-004
-4.497930e-004,2.059233e-004
-6.350336e-004,1.908512e-004
-7.958024e-004,1.726999e-004
-9.123273e-004,1.558451e-004
-9.692122e-004,1.414213e-004
-9.593263e-004,1.312112e-004
-8.857486e-004,1.239182e-004
-7.590136e-004,1.133840e-004
-5.928966e-004,9.426025e-005
-4.044147e-004,6.508849e-005
-2.157707e-004,3.186510e-005
-4.803310e-005,2.693341e-006
8.486046e-005,-1.675450e-005
1.801549e-004,-2.712668e-005
2.423880e-004,-3.441962e-005
2.806354e-004,-4.155049e-005
3.012177e-004,-4.916756e-005
3.094830e-004,-5.775702e-005
3.112658e-004,-6.504996e-005
3.081865e-004,-6.764301e-005
2.994350e-004,-6.634648e-005
2.832284e-004,-6.342931e-005
2.561635e-004,-6.359137e-005
2.133783e-004,-6.764301e-005
1.608691e-004,-7.461182e-005
1.171115e-004,-8.093236e-005
1.057669e-004,-8.433573e-005
1.376938e-004,-8.871149e-005
2.154851e-004,-9.503204e-005
3.229345e-004,-1.045939e-004
4.295735e-004,-1.162626e-004
5.059062e-004,-1.323071e-004
5.358884e-004,-1.595340e-004
5.266506e-004,-1.987538e-004
4.973168e-004,-2.417012e-004
4.649037e-004,-2.721694e-004
4.345975e-004,-2.825416e-004
3.997535e-004,-2.723315e-004
3.519442e-004,-2.483458e-004
2.927903e-004,-2.182017e-004
2.245608e-004,-1.890299e-004
1.501728e-004,-1.686097e-004
7.497447e-005,-1.588858e-004
5.448452e-006,-1.588858e-004
-5.678463e-005,-1.660166e-004
-1.133454e-004,-1.723372e-004
-1.647201e-004,-1.720131e-004
-2.188499e-004,-1.634236e-004
-2.773555e-004,-1.506204e-004
-3.352128e-004,-1.316588e-004
-3.700569e-004,-1.083214e-004
-3.538503e-004,-8.790117e-005
-2.780038e-004,-7.590833e-005
-1.608306e-004,-7.671866e-005
-3.830919e-005,-8.303922e-005
5.698522e-005,-8.854943e-005
1.161391e-004,-8.725291e-005
1.441764e-004,-7.331530e-005
1.469315e-004,-4.657452e-005
1.347766e-004,-1.286493e-005
1.088461e-004,2.019640e-005
6.557468e-005,5.228533e-005
3.665733e-006,7.772959e-005
-7.153257e-005,9.377406e-005
-1.512687e-004,1.049566e-004
-2.301945e-004,1.167873e-004
-3.045825e-004,1.329939e-004
-3.707051e-004,1.556830e-004
-4.228902e-004,1.824238e-004
-4.554653e-004,2.094887e-004
-4.638926e-004,2.312055e-004
-4.392588e-004,2.464396e-004
-3.854531e-004,2.590807e-004
-3.146305e-004,2.710735e-004
-2.400805e-004,2.816078e-004
-1.596961e-004,2.898731e-004
-6.407757e-005,2.908455e-004
5.504044e-005,2.861456e-004
1.997648e-004,2.783665e-004
3.623164e-004,2.715597e-004
5.225990e-004,2.658874e-004
6.548444e-004,2.623220e-004
7.409012e-004,2.631324e-004
7.767176e-004,2.675081e-004
7.691005e-004,2.683184e-004
7.172396e-004,2.603772e-004
6.140039e-004,2.425500e-004
4.465904e-004,2.195368e-004
2.122438e-004,2.002510e-004
-8.352541e-005,1.879340e-004
-4.181903e-004,1.817755e-004
-7.677651e-004,1.775618e-004
-1.094975e-003,1.688103e-004
-1.355090e-003,1.508211e-004
-1.507269e-003,1.260251e-004
-1.526555e-003,1.018773e-004
-1.411975e-003,8.875003e-005
-1.188325e-003,9.960841e-005
-9.061688e-004,1.318594e-004
-6.167202e-004,1.629760e-004
-3.647087e-004,1.775618e-004
-1.768750e-004,1.911753e-004
-4.706071e-005,2.331503e-004
5.260946e-005,3.211517e-004
1.480659e-004,4.485351e-004
2.459534e-004,5.914768e-004
3.376824e-004,7.232360e-004
4.057499e-004,8.206373e-004
4.410801e-004,8.757396e-004
4.423766e-004,8.831946e-004
4.164462e-004,8.363577e-004
3.778746e-004,7.280980e-004
3.469201e-004,5.587396e-004
3.363859e-004,3.339549e-004
3.474063e-004,7.059871e-005
3.699334e-004,-2.073433e-004
3.913261e-004,-4.904714e-004
3.929467e-004,-7.768407e-004
3.652335e-004,-1.062562e-003
3.193690e-004,-1.333373e-003
2.752873e-004,-1.558968e-003
2.525981e-004,-1.710013e-003
2.553532e-004,-1.777432e-003
2.720459e-004,-1.768194e-003
2.939248e-004,-1.694941e-003
3.221241e-004,-1.567882e-003
3.561579e-004,-1.393337e-003
3.905157e-004,-1.184111e-003
4.187151e-004,-9.638641e-004
4.342734e-004,-7.533412e-004
4.368664e-004,-5.668041e-004
4.298976e-004,-4.141386e-004
4.123946e-004,-2.932379e-004
3.892192e-004,-1.904885e-004
3.722023e-004,-8.871149e-005
3.717161e-004,2.197911e-005
3.872744e-004,1.383420e-004
4.193634e-004,2.566497e-004
4.733311e-004,3.679886e-004
5.512846e-004,4.650658e-004
6.637580e-004,5.363746e-004
8.154513e-004,5.697600e-004
9.917786e-004,5.739738e-004
1.161299e-003,5.893700e-004
1.283821e-003,6.571133e-004
1.319151e-003,7.901691e-004
1.236984e-003,9.588792e-004
1.023868e-003,1.110411e-003
6.843403e-004,1.205057e-003
2.564877e-004,1.233256e-003
-1.859507e-004,1.204895e-003
-5.614560e-004,1.126779e-003
-8.133054e-004,9.950198e-004
-9.246443e-004,8.133444e-004
-9.150825e-004,5.943940e-004
-8.356704e-004,3.577785e-004
-7.471828e-004,1.237561e-004
-7.107180e-004,-9.438378e-005
-7.674409e-004,-2.883759e-004
-9.267511e-004,-4.395829e-004
-1.163042e-003,-5.269361e-004
-1.428181e-003,-5.399013e-004
-1.666255e-003,-4.841508e-004
-1.805793e-003,-3.899909e-004
-1.774839e-003,-2.930758e-004
-1.555402e-003,-2.130156e-004
-1.205666e-003,-1.480274e-004
-8.280533e-004,-8.255302e-005
-5.134846e-004,-1.682422e-006
-3.031239e-004,9.426025e-005
-1.804405e-004,1.903650e-004
-9.649064e-005,2.710735e-004
-8.327101e-006,3.279585e-004
9.377406e-005,3.623164e-004
1.987924e-004,3.756057e-004
2.903593e-004,3.717161e-004
3.543751e-004,3.611819e-004
3.803056e-004,3.611819e-004
3.804677e-004,3.820883e-004
3.767402e-004,4.203358e-004
3.828986e-004,4.658761e-004
3.961880e-004,5.089855e-004
4.049396e-004,5.433434e-004
4.000776e-004,5.626292e-004
3.806297e-004,5.712186e-004
3.587509e-004,5.760806e-004
3.511338e-004,5.801322e-004
3.637749e-004,5.866149e-004
3.900295e-004,6.128695e-004
4.123946e-004,6.639201e-004
4.112601e-004,7.199947e-004
3.777126e-004,7.470596e-004
3.315239e-004,7.097846e-004
3.104554e-004,5.916389e-004
3.551855e-004,3.984569e-004
5.109303e-004,1.537382e-004
7.825520e-004,-1.067007e-004
1.113004e-003,-3.561192e-004
1.411366e-003,-5.903036e-004
1.607466e-003,-8.158985e-004
1.678613e-003,-1.054621e-003
1.645713e-003,-1.329483e-003
1.542964e-003,-1.638056e-003
1.397105e-003,-1.940956e-003
1.220129e-003,-2.174330e-003
1.002637e-003,-2.281456e-003
7.198326e-004,-2.239481e-003
3.422202e-004,-2.066719e-003
-1.434896e-004,-1.806442e-003
-7.184973e-004,-1.503380e-003
-1.347311e-003,-1.186056e-003
-1.981634e-003,-8.700282e-004
-2.543029e-003,-5.569181e-004
-2.934904e-003,-2.472114e-004
-3.071040e-003,4.758544e-005
-2.921291e-003,3.033245e-004
-2.522609e-003,4.963444e-004
-1.970290e-003,6.165970e-004
-1.387665e-003,6.776956e-004
-8.792660e-004,7.139983e-004
-5.008436e-004,7.561353e-004
-2.464010e-004,8.143168e-004
-6.634648e-005,8.737948e-004
8.972242e-005,9.041011e-004
2.443328e-004,8.780085e-004
3.955397e-004,7.879001e-004
5.284334e-004,6.494962e-004
6.242140e-004,4.909963e-004
6.715371e-004,3.386548e-004
6.759129e-004,2.026820e-004
6.582477e-004,8.437427e-005
6.386379e-004,-1.027188e-005
6.290760e-004,-6.553616e-005
6.329655e-004,-7.088431e-005
6.506307e-004,-2.177852e-005
6.689441e-004,7.173317e-005
6.747784e-004,1.869616e-004
6.575995e-004,3.020280e-004
6.112488e-004,4.054258e-004
5.399400e-004,4.919686e-004
4.559901e-004,5.579292e-004
3.785229e-004,6.052523e-004
3.234207e-004,6.394482e-004
2.981384e-004,6.668373e-004
2.966799e-004,6.882299e-004
3.059176e-004,6.963331e-004
3.167760e-004,6.736440e-004
3.268240e-004,5.986077e-004
3.376824e-004,4.752759e-004
3.440029e-004,3.396272e-004
3.414099e-004,2.407673e-004
3.295791e-004,2.111094e-004
3.067279e-004,2.496809e-004
2.728562e-004,3.258516e-004
2.373639e-004,4.008879e-004
2.206712e-004,4.394595e-004
2.299089e-004,4.198496e-004
2.495189e-004,3.478926e-004
2.639427e-004,2.498430e-004
2.704253e-004,1.581140e-004
2.765838e-004,9.296373e-005
2.905214e-004,6.022653e-005
3.127243e-004,5.617490e-005
3.391410e-004,7.254349e-005
3.623164e-004,1.005808e-004
3.663680e-004,1.291043e-004
3.350894e-004,1.370455e-004
2.634565e-004,9.896015e-005
1.501728e-004,6.096713e-006
-7.030578e-006,-1.126972e-004
-1.989159e-004,-2.011848e-004
-4.078181e-004,-2.191741e-004
-6.180168e-004,-1.650443e-004
-8.222190e-004,-6.812920e-005
-1.025773e-003,2.959619e-005
-1.228517e-003,9.182927e-005
-1.413919e-003,1.023635e-004
-1.545192e-003,6.298164e-005
-1.581333e-003,-9.623623e-006
-1.493332e-003,-9.373552e-005
-1.285078e-003,-1.760647e-004
-9.949806e-004,-2.501286e-004
-6.774947e-004,-3.141443e-004
-3.841565e-004,-3.648708e-004
-1.425172e-004,-4.036044e-004
3.996837e-005,-4.337485e-004
1.624898e-004,-4.522240e-004
2.394708e-004,-4.562756e-004
2.908455e-004,-4.475241e-004
3.339549e-004,-4.321279e-004
3.785229e-004,-4.094387e-004
4.290873e-004,-3.809152e-004
4.926169e-004,-3.510952e-004
5.692738e-004,-3.259751e-004
6.481997e-004,-3.055549e-004
7.214533e-004,-2.864312e-004
7.919518e-004,-2.645523e-004
8.689329e-004,-2.413770e-004
9.585551e-004,-2.165810e-004
1.053850e-003,-1.895161e-004
1.144282e-003,-1.606685e-004
1.206191e-003,-1.274451e-004
1.219643e-003,-9.243900e-005
1.169078e-003,-6.229485e-005
1.043153e-003,-3.928157e-005
8.446231e-004,-2.015787e-005
5.969870e-004,-5.571990e-006
3.226103e-004,6.744974e-006
3.089271e-005,2.165498e-005
-2.755728e-004,4.353380e-005
-5.826865e-004,7.205730e-005
-8.677593e-004,1.018773e-004
-1.110047e-003,1.263492e-004
-1.281836e-003,1.419075e-004
-1.348931e-003,1.490383e-004
-1.288157e-003,1.516314e-004
-1.121067e-003,1.539003e-004
-9.102205e-004,1.605450e-004
-7.078009e-004,1.699448e-004
-5.245051e-004,1.796687e-004
-3.525538e-004,1.856651e-004
-1.827094e-004,1.872858e-004
-2.015787e-005,1.856651e-004
1.219734e-004,1.829100e-004
2.337985e-004,1.801549e-004
3.102934e-004,1.786963e-004
3.553475e-004,1.782101e-004
3.728506e-004,1.801549e-004
3.705817e-004,1.824238e-004
3.623164e-004,1.843686e-004
3.527545e-004,1.876099e-004
3.292550e-004,1.902029e-004
2.717218e-004,1.908512e-004
1.586002e-004,1.842065e-004
-1.659243e-005,1.678379e-004
-2.436459e-004,1.462832e-004
-5.035987e-004,1.248906e-004
-7.708443e-004,1.054428e-004
-1.017508e-003,8.664318e-005
-1.218307e-003,7.043665e-005
-1.355576e-003,5.552663e-005
-1.409382e-003,3.915804e-005
-1.354117e-003,2.133085e-005
-1.175359e-003,5.864920e-007
-8.870451e-004,-1.918548e-005
-5.347152e-004,-3.312309e-005
-1.807646e-004,-4.381940e-005
1.218114e-004,-5.824322e-005
3.475684e-004,-7.769106e-005
5.018546e-004,-1.003802e-004
5.943940e-004,-1.237176e-004
6.422033e-004,-1.457585e-004
6.610029e-004,-1.660166e-004
6.613270e-004,-1.807646e-004
6.499824e-004,-1.888679e-004
6.319932e-004,-1.925954e-004
6.131936e-004,-1.951884e-004
5.987698e-004,-1.971332e-004
5.858046e-004,-1.997262e-004
5.652222e-004,-2.015090e-004
5.366987e-004,-2.000504e-004
5.042856e-004,-1.968091e-004
4.759242e-004,-1.959987e-004
4.571246e-004,-2.013469e-004
4.433490e-004,-2.133397e-004
4.279528e-004,-2.274394e-004
4.080188e-004,-2.408908e-004
3.875985e-004,-2.485079e-004
3.736609e-004,-2.438080e-004
3.663680e-004,-2.251705e-004
3.621543e-004,-1.994021e-004
3.559958e-004,-1.731475e-004
3.499994e-004,-1.502963e-004
3.449753e-004,-1.285796e-004
3.370341e-004,-1.007043e-004
3.156415e-004,-5.856735e-005
2.798251e-004,-6.220252e-006
2.517878e-004,3.721326e-005
2.715597e-004,6.492643e-005
3.966742e-004,8.793970e-005
6.410689e-004,1.239182e-004
9.519104e-004,1.811273e-004
1.249301e-003,2.547049e-004
1.478624e-003,3.320101e-004
1.618486e-003,4.031568e-004
1.679261e-003,4.692795e-004
1.671644e-003,5.386435e-004
1.601145e-003,6.188659e-004
1.480244e-003,7.118915e-004
1.328875e-003,8.099410e-004
1.144768e-003,8.984288e-004
8.810877e-004,9.562862e-004
4.709002e-004,9.739513e-004
-1.173971e-004,9.460760e-004
-8.526873e-004,8.689329e-004
-1.659773e-003,7.428459e-004
-2.431690e-003,5.751082e-004
-3.050457e-003,3.812780e-004
-3.413971e-003,1.759412e-004
-3.463725e-003,-3.652646e-005
-3.204095e-003,-2.559629e-004
-2.687268e-003,-4.836646e-004
-2.007079e-003,-7.149318e-004
-1.290912e-003,-9.295062e-004
-6.655019e-004,-1.094651e-003
-2.178775e-004,-1.187514e-003
3.559260e-005,-1.207610e-003
1.410971e-004,-1.167904e-003
1.767515e-004,-1.081523e-003
2.145127e-004,-9.604607e-004
2.934386e-004,-8.141157e-004
4.039671e-004,-6.496195e-004
5.041235e-004,-4.770200e-004
5.392918e-004,-3.026377e-004
4.639314e-004,-1.353863e-004
2.796630e-004,1.663096e-005
3.121684e-005,1.472556e-004
-2.104225e-004,2.556773e-004
-3.716775e-004,3.483787e-004
-4.123559e-004,4.303838e-004
-3.386162e-004,5.036374e-004
-1.906506e-004,5.629533e-004
-1.707863e-005,6.034696e-004
1.381800e-004,6.298863e-004
2.393087e-004,6.498204e-004
2.749631e-004,6.663511e-004
2.658874e-004,6.773715e-004
2.451431e-004,6.772094e-004
2.443328e-004,6.592202e-004
2.798251e-004,6.222692e-004
3.516200e-004,5.733255e-004
4.407560e-004,5.227611e-004
5.172509e-004,4.765725e-004
5.546879e-004,4.376768e-004
5.436675e-004,4.029947e-004
4.973168e-004,3.660439e-004
4.504799e-004,3.211517e-004
4.449697e-004,2.694529e-004
5.010443e-004,2.214815e-004
6.042800e-004,1.837203e-004
7.201568e-004,1.560072e-004
8.049170e-004,1.291043e-004
8.201511e-004,9.555677e-005
7.511112e-004,5.390598e-005
6.094660e-004,4.800190e-006
4.153117e-004,-4.462973e-005
1.850168e-004,-8.595638e-005
-6.958779e-005,-1.144799e-004
-3.230579e-004,-1.297140e-004
-5.476804e-004,-1.376552e-004
-7.129870e-004,-1.449482e-004
-7.962886e-004,-1.575893e-004
-7.880232e-004,-1.710407e-004
-6.953219e-004,-1.838438e-004
-5.352014e-004,-1.904885e-004
-3.369955e-004,-1.865989e-004
-1.371690e-004,-1.742820e-004
2.684107e-005,-1.559686e-004
1.263492e-004,-1.355484e-004
1.542244e-004,-1.165867e-004
1.263492e-004,-9.405965e-005
7.724339e-005,-6.245691e-005
3.786152e-005,-1.902341e-005
3.218923e-005,2.943412e-005
6.719535e-005,6.962632e-005
1.258630e-004,9.571884e-005
1.782101e-004,1.174356e-004
2.013854e-004,1.457970e-004
1.958752e-004,1.838824e-004
1.749688e-004,2.294227e-004
1.548727e-004,2.782044e-004
1.461212e-004,3.273102e-004
1.529279e-004,3.767402e-004
1.699448e-004,4.286011e-004
1.887444e-004,4.760863e-004
1.989545e-004,5.013684e-004
1.961994e-004,4.903480e-004
1.780480e-004,4.407560e-004
1.483901e-004,3.618301e-004
1.122495e-004,2.556773e-004
7.011252e-005,1.185701e-004
2.684107e-005,-4.641245e-005
-1.643037e-005,-2.297083e-004
-5.856735e-005,-4.185144e-004
-9.276313e-005,-5.928966e-004
-1.151281e-004,-7.283832e-004
-1.310105e-004,-8.063366e-004
-1.499722e-004,-8.228673e-004
-1.713648e-004,-7.914266e-004
-1.833576e-004,-7.285453e-004
-1.765509e-004,-6.457299e-004
-1.472171e-004,-5.525423e-004
-1.024871e-004,-4.580583e-004
-5.694670e-005,-3.707051e-004
-2.210265e-005,-2.985861e-004
-7.516774e-006,-2.436459e-004
-1.562004e-005,-1.948643e-004
-3.166451e-005,-1.428413e-004
-3.506788e-005,-8.093236e-005
-1.335113e-005,-1.270286e-005
2.910999e-005,5.439218e-005
8.615699e-005,1.083599e-004
1.483901e-004,1.393144e-004
2.025199e-004,1.430419e-004
2.407673e-004,1.244044e-004
2.618358e-004,9.798775e-005
2.720459e-004,8.161915e-005
2.775562e-004,8.453633e-005
2.783665e-004,1.047945e-004
2.689667e-004,1.318594e-004
2.470879e-004,1.555210e-004
2.209954e-004,1.717275e-004
1.921477e-004,1.803169e-004
1.540623e-004,1.801549e-004
9.879808e-005,1.749688e-004
2.424803e-005,1.681620e-004
-5.743289e-005,1.595726e-004
-1.347380e-004,1.479039e-004
-2.002124e-004,1.346145e-004
-2.489941e-004,1.201907e-004
-2.796244e-004,9.928428e-005
-2.968033e-004,7.238143e-005
-3.066893e-004,3.705119e-005
-3.128478e-004,-1.010982e-005
-3.115513e-004,-6.812920e-005
-2.942103e-004,-1.321450e-004
-2.546664e-004,-1.955125e-004
-1.981056e-004,-2.488320e-004
-1.358725e-004,-2.849726e-004
-8.757704e-005,-3.027998e-004
-7.153257e-005,-3.024756e-004
-9.292520e-005,-2.888622e-004
-1.396000e-004,-2.645523e-004
-1.797922e-004,-2.334358e-004
-1.898403e-004,-1.935677e-004
-1.663408e-004,-1.449482e-004
-1.188556e-004,-9.243900e-005
-6.051213e-005,-3.409549e-005
-7.678839e-006,3.380988e-005
2.651694e-005,1.158149e-004
3.964424e-005,2.177540e-004
4.256141e-005,3.428685e-004
4.726130e-005,4.858102e-004
5.698522e-005,6.289139e-004
7.140904e-005,7.520836e-004
8.664318e-005,8.408955e-004
9.896015e-005,8.951875e-004
1.051186e-004,9.222524e-004
1.002567e-004,9.360280e-004
7.967438e-005,9.454277e-004
4.483033e-005,9.499656e-004
5.448452e-006,9.420244e-004
-2.453363e-005,9.063699e-004
-3.441962e-005,8.243649e-004
-2.599222e-005,6.793162e-004
-6.544382e-006,4.610142e-004
2.084466e-005,1.757791e-004
5.536457e-005,-1.373311e-004
8.907416e-005,-4.198109e-004
1.206769e-004,-6.220684e-004
1.513072e-004,-7.235213e-004
1.804790e-004,-7.335693e-004
2.109473e-004,-6.823567e-004
2.453052e-004,-6.013241e-004
2.775562e-004,-5.107295e-004
3.017039e-004,-4.217557e-004
3.162898e-004,-3.403989e-004
3.141829e-004,-2.676316e-004
2.918179e-004,-2.047502e-004
2.487085e-004,-1.512687e-004
1.900409e-004,-1.084835e-004
1.182459e-004,-7.995997e-005
3.867184e-005,-6.440170e-005
-3.263690e-005,-5.743289e-005
-6.910160e-005,-5.986387e-005
-3.863332e-005,-7.363943e-005
6.038860e-005,-9.470791e-005
1.931201e-004,-1.169109e-004
3.012177e-004,-1.379794e-004
3.227724e-004,-1.587237e-004
2.205092e-004,-1.831956e-004
-2.168618e-006,-2.120432e-004
-2.870794e-004,-2.428356e-004
-5.196431e-004,-2.666592e-004
-5.917621e-004,-2.780038e-004
-4.705373e-004,-2.689281e-004
-2.066950e-004,-2.374874e-004
1.107909e-004,-1.874093e-004
3.922984e-004,-1.267968e-004
5.911527e-004,-6.667062e-005
7.102708e-004,-1.610624e-005
7.765555e-004,1.987227e-005
7.990826e-004,4.110282e-005
7.533802e-004,5.277153e-005
6.112488e-004,6.508849e-005
3.657197e-004,7.999851e-005
3.607880e-005,9.571884e-005
-3.264613e-004,1.085220e-004
-6.541573e-004,1.175977e-004
-8.985517e-004,1.201907e-004
-1.057052e-003,1.156529e-004
-1.174225e-003,1.047945e-004
-1.305174e-003,8.842590e-005
-1.483121e-003,6.849186e-005
-1.704827e-003,4.855783e-005
-1.910812e-003,3.575467e-005
-2.004324e-003,3.105477e-005
-1.905302e-003,3.316162e-005
-1.584898e-003,3.753739e-005
-1.080389e-003,4.094075e-005
-4.778303e-004,4.337174e-005
1.235941e-004,4.888196e-005
6.311828e-004,5.974033e-005
9.927510e-004,7.286763e-005
1.196305e-003,8.275361e-005
1.254811e-003,8.858796e-005
1.205219e-003,9.442231e-005
1.087073e-003,1.033359e-004
9.261420e-004,1.159770e-004
7.436562e-004,1.329939e-004
5.652222e-004,1.513072e-004
4.180668e-004,1.649207e-004
3.195311e-004,1.723757e-004
2.691288e-004,1.788584e-004
2.597290e-004,1.911753e-004
2.824181e-004,2.268297e-004
3.247172e-004,3.023522e-004
3.694472e-004,4.213082e-004
4.016982e-004,5.642498e-004
4.133669e-004,7.114052e-004
4.106118e-004,8.596951e-004
4.047775e-004,9.972887e-004
4.059119e-004,1.088370e-003
4.161220e-004,1.102469e-003
4.308700e-004,1.032295e-003
4.441593e-004,8.968081e-004
4.496696e-004,7.321496e-004
4.490213e-004,5.720290e-004
4.451317e-004,4.266563e-004
4.475628e-004,2.866318e-004
4.569625e-004,1.282940e-004
4.705760e-004,-7.736692e-005
4.801379e-004,-3.237062e-004
4.747897e-004,-5.593491e-004
4.486972e-004,-7.246558e-004
4.065602e-004,-7.902921e-004
3.618301e-004,-7.622549e-004
3.256896e-004,-6.692294e-004
2.989488e-004,-5.392530e-004
2.757735e-004,-4.037664e-004
2.538946e-004,-2.919414e-004
2.302331e-004,-2.246843e-004
2.000889e-004,-2.084778e-004
1.676758e-004,-2.261429e-004
1.394765e-004,-2.559629e-004
1.130598e-004,-2.801106e-004
8.615699e-005,-2.946965e-004
5.568870e-005,-3.159271e-004
2.262738e-005,-3.660052e-004
-1.189254e-005,-4.588687e-004
-4.252288e-005,-5.930586e-004
-6.375344e-005,-7.445897e-004
-8.012204e-005,-8.761868e-004
-9.551824e-005,-9.560849e-004
-1.013526e-004,-9.672674e-004
-8.384954e-005,-9.123273e-004
-4.041603e-005,-8.060125e-004
1.095867e-005,-6.702017e-004
4.466826e-005,-5.285567e-004
4.402000e-005,-4.078181e-004
1.954813e-005,-3.209511e-004
-6.176923e-008,-2.658489e-004
-2.330684e-006,-2.306807e-004
7.717366e-006,-2.029675e-004
1.176900e-005,-1.695821e-004
-7.516774e-006,-1.178833e-004
-5.759496e-005,-4.300908e-005
-1.282554e-004,5.017848e-005
-2.002124e-004,1.527658e-004
-2.559629e-004,2.563256e-004
-2.916173e-004,3.522683e-004
-3.096065e-004,4.303838e-004
-3.180339e-004,4.832171e-004
-3.282440e-004,5.120648e-004
-3.489884e-004,5.204921e-004
-3.830221e-004,5.125510e-004
-4.318037e-004,4.935893e-004
-4.998712e-004,4.697657e-004
-5.846313e-004,4.470765e-004
-6.789533e-004,4.281149e-004
-7.635514e-004,4.156358e-004
-8.137916e-004,4.148255e-004
-8.082814e-004,4.239012e-004
-7.366485e-004,4.383250e-004
-6.073205e-004,4.443214e-004
-4.421759e-004,4.376768e-004
-2.639041e-004,4.206599e-004
-8.709085e-005,3.978086e-004
8.032264e-005,3.713920e-004
2.412535e-004,3.446512e-004
3.971604e-004,3.224483e-004
5.506363e-004,3.004074e-004
6.932539e-004,2.717218e-004
7.995688e-004,2.365536e-004
8.412196e-004,2.010613e-004
7.998930e-004,1.754550e-004
6.799645e-004,1.636242e-004
5.075270e-004,1.631380e-004
3.276344e-004,1.722137e-004
1.864754e-004,1.882582e-004
1.046324e-004,2.099749e-004
7.335383e-005,2.329882e-004
6.557468e-005,2.480603e-004
5.196120e-005,2.525981e-004
1.808955e-005,2.495189e-004
-3.166451e-005,2.441707e-004
-8.482193e-005,2.415777e-004
-1.253383e-004,2.430362e-004
-1.431655e-004,2.436845e-004
-1.329553e-004,2.391467e-004
-1.042698e-004,2.286124e-004
-8.287715e-005,2.167816e-004
-9.081835e-005,2.080301e-004
-1.284175e-004,2.028440e-004
-1.767130e-004,1.999268e-004
-2.088019e-004,1.983062e-004
-2.055606e-004,1.963614e-004
-1.677994e-004,1.908512e-004
-1.086455e-004,1.772377e-004
-4.851930e-005,1.550348e-004
-3.303076e-006,1.294284e-004
1.695509e-005,1.060910e-004
1.079661e-005,8.761557e-005
-1.367526e-005,7.627100e-005
-4.333321e-005,7.140904e-005
-6.618442e-005,6.800567e-005
-7.963584e-005,6.119892e-005
-8.498399e-005,4.839576e-005
-8.384954e-005,3.056858e-005
-7.444975e-005,8.689758e-006
-5.889148e-005,-1.318906e-005
-4.138842e-005,-3.053005e-005
-2.356124e-005,-4.317115e-005
-4.599598e-006,-5.565017e-005
1.517237e-005,-7.201877e-005
3.332369e-005,-9.422172e-005
5.034055e-005,-1.191798e-004
6.395404e-005,-1.447861e-004
6.946425e-005,-1.674752e-004
6.962632e-005,-1.854645e-004
6.508849e-005,-1.951884e-004
5.893001e-005,-1.969711e-004
5.244739e-005,-1.927574e-004
4.499239e-005,-1.921092e-004
3.753739e-005,-2.052365e-004
3.235129e-005,-2.253326e-004
3.056858e-005,-2.308428e-004
3.348575e-005,-2.083157e-004
5.050261e-005,-1.686097e-004
8.469840e-005,-1.280934e-004
1.365593e-004,-9.146661e-005
2.049509e-004,-4.997789e-005
2.890628e-004,4.476060e-006
3.884089e-004,7.124698e-005
4.911583e-004,1.287802e-004
5.814288e-004,1.482280e-004
6.415551e-004,1.153287e-004
6.635960e-004,4.142696e-005
6.522514e-004,-5.386745e-005
6.128695e-004,-1.551583e-004
5.511225e-004,-2.580697e-004
4.725208e-004,-3.779981e-004
3.838710e-004,-5.361738e-004
2.843629e-004,-7.322728e-004
1.623277e-004,-9.369612e-004
6.582909e-006,-1.099027e-003
-1.885437e-004,-1.178763e-003
-4.151110e-004,-1.169039e-003
-6.611261e-004,-1.091409e-003
-8.953104e-004,-9.778016e-004
-1.055107e-003,-8.530114e-004
-1.083468e-003,-7.277349e-004
-9.658089e-004,-6.031067e-004
-7.402140e-004,-4.797751e-004
-4.828543e-004,-3.595226e-004
-2.770314e-004,-2.459149e-004
-1.729855e-004,-1.444620e-004
-1.789819e-004,-6.278104e-005
-2.647144e-004,9.106227e-007
-3.779981e-004,5.325772e-005
-4.494688e-004,1.043083e-004
-4.040906e-004,1.620036e-004
-2.191741e-004,2.252090e-004
5.520250e-005,2.842008e-004
3.253654e-004,3.305515e-004
5.112545e-004,3.613439e-004
5.751082e-004,3.812780e-004
5.190336e-004,4.004017e-004
3.705817e-004,4.256839e-004
1.741585e-004,4.629590e-004
-1.237873e-005,5.120648e-004
-1.438137e-004,5.673291e-004
-2.055606e-004,6.248623e-004
-2.169052e-004,6.819093e-004
-2.156086e-004,7.371737e-004
-2.442942e-004,7.848209e-004
-3.407231e-004,8.172340e-004
-5.256396e-004,8.301992e-004
-7.894818e-004,8.219338e-004
-1.057052e-003,7.917897e-004
-1.218793e-003,7.417115e-004
-1.198697e-003,6.778577e-004
-1.003570e-003,6.054144e-004
-7.053699e-004,5.332953e-004
-4.027940e-004,4.645796e-004
-1.737958e-004,4.000776e-004
-4.900550e-005,3.334687e-004
-1.302700e-005,2.615117e-004
-1.643037e-005,1.853410e-004
-1.034161e-006,1.096565e-004
6.784360e-005,4.077869e-005
1.916615e-004,-1.756482e-005
3.543751e-004,-6.099833e-005
5.342677e-004,-8.547019e-005
7.076777e-004,-9.422172e-005
8.585607e-004,-9.486997e-005
9.791374e-004,-9.195280e-005
1.073946e-003,-8.741498e-005
1.147686e-003,-8.644259e-005
1.195171e-003,-9.227693e-005
1.208298e-003,-1.070249e-004
1.179937e-003,-1.316588e-004
1.109924e-003,-1.595340e-004
1.012361e-003,-1.776853e-004
9.115561e-004,-1.781716e-004
8.207994e-004,-1.590478e-004
7.459252e-004,-1.274451e-004
6.867713e-004,-9.746302e-005
6.349103e-004,-8.352541e-005
5.772150e-004,-8.352541e-005
5.065545e-004,-8.547019e-005
4.237391e-004,-8.077030e-005
3.365480e-004,-6.845333e-005
2.540567e-004,-5.273300e-005
1.850168e-004,-3.814712e-005
1.300767e-004,-2.680255e-005
8.502253e-005,-2.031993e-005
4.774750e-005,-1.886135e-005
1.922400e-005,-2.372331e-005
-4.113403e-006,-3.441962e-005
-2.647842e-005,-5.143648e-005
-3.798505e-005,-7.120844e-005
-2.664048e-005,-8.919769e-005
1.193106e-005,-9.989401e-005
6.654708e-005,-1.020008e-004
1.182459e-004,-9.665270e-005
1.532520e-004,-8.433573e-005
1.663793e-004,-6.667062e-005
1.571416e-004,-4.544006e-005
1.333180e-004,-2.258885e-005
1.051186e-004,7.485573e-007
7.837785e-005,2.635488e-005
5.860588e-005,5.730935e-005
5.471631e-005,8.777764e-005
7.173317e-005,1.143563e-004
1.077117e-004,1.338042e-004
1.508211e-004,1.438522e-004
1.890685e-004,1.483901e-004
2.145127e-004,1.571416e-004
2.224539e-004,1.743205e-004
2.120818e-004,1.996027e-004
1.853410e-004,2.274780e-004
1.466074e-004,2.579462e-004
1.030118e-004,3.030004e-004
5.714729e-005,3.699334e-004
1.209313e-005,4.485351e-004
-2.177852e-005,5.101200e-004
-3.944364e-005,5.294057e-004
-4.544006e-005,4.997478e-004
-4.527799e-005,4.357320e-004
-4.203669e-005,3.558337e-004
-4.738484e-005,2.718839e-004
-7.995997e-005,1.856651e-004
-1.493239e-004,1.030118e-004
-2.519113e-004,3.850978e-005
-3.650328e-004,4.962256e-006
-4.578962e-004,5.772582e-006
-5.055434e-004,3.316162e-005
-4.972781e-004,6.476436e-005
-4.387725e-004,7.335383e-005
-3.460712e-004,4.029250e-005
-2.441321e-004,-3.069211e-005
-1.618029e-004,-1.115627e-004
-1.208004e-004,-1.652063e-004
-1.295519e-004,-1.752544e-004
-1.856265e-004,-1.467309e-004
-2.835140e-004,-9.503204e-005
-4.058733e-004,-4.106429e-005
-5.280706e-004,-3.858999e-007
-6.217443e-004,2.246531e-005
-6.569124e-004,2.878586e-005
-6.094273e-004,2.376183e-005
-4.800992e-004,1.355172e-005
-3.039342e-004,2.207145e-006
-1.324691e-004,-6.220252e-006
-1.140634e-005,-4.437533e-006
4.677511e-005,2.149292e-005
6.476436e-005,7.951231e-005
7.108491e-005,1.707551e-004
7.238143e-005,2.936006e-004
5.131294e-005,4.412422e-004
-7.354709e-006,6.037938e-004
-8.757704e-005,7.668316e-004
-1.498101e-004,9.151215e-004
-1.643960e-004,1.032295e-003
-1.289037e-004,1.097445e-003
-5.516398e-005,1.086425e-003
2.894792e-005,9.854579e-004
9.733949e-005,8.013516e-004
1.357490e-004,5.532294e-004
1.407730e-004,2.566497e-004
1.133840e-004,-8.190475e-005
5.925414e-005,-4.549791e-004
-1.270286e-005,-8.510666e-004
-9.681477e-005,-1.255582e-003
-1.947022e-004,-1.652966e-003
-3.055549e-004,-2.018424e-003
-4.138145e-004,-2.312572e-003
-4.825302e-004,-2.510454e-003
-4.747511e-004,-2.604290e-003
-3.810773e-004,-2.599914e-003
-2.295462e-004,-2.505592e-003
-8.919769e-005,-2.332344e-003
-4.090223e-005,-2.095567e-003
-1.302002e-004,-1.810493e-003
-3.262992e-004,-1.496249e-003
-5.382806e-004,-1.169849e-003
-6.718224e-004,-8.457185e-004
-6.791154e-004,-5.330946e-004
-5.664800e-004,-2.436459e-004
-3.781601e-004,1.257933e-005
-1.759026e-004,2.346088e-004
-1.367526e-005,4.324906e-004
8.680524e-005,6.169211e-004
1.326697e-004,7.888725e-004
1.504969e-004,9.373245e-004
1.553589e-004,1.050932e-003
1.475797e-004,1.126617e-003
1.109530e-004,1.167782e-003
2.765140e-005,1.185123e-003
-1.067007e-004,1.193226e-003
-2.726556e-004,1.204408e-003
-4.488206e-004,1.223046e-003
-6.296854e-004,1.240225e-003
-8.196260e-004,1.246546e-003
-1.007460e-003,1.235849e-003
-1.165149e-003,1.201815e-003
-1.253637e-003,1.143472e-003
-1.228193e-003,1.070056e-003
-1.053486e-003,9.932371e-004
-7.316245e-004,9.224145e-004
-3.086341e-004,8.554814e-004
1.414213e-004,7.891966e-004
5.435055e-004,7.235601e-004
8.457575e-004,6.644063e-004
1.034888e-003,6.153004e-004
1.131479e-003,5.676532e-004
1.164540e-003,5.138475e-004
1.158706e-003,4.540453e-004
1.140555e-003,3.935950e-004
1.127427e-003,3.381686e-004
1.119324e-003,2.910076e-004
1.106035e-003,2.500050e-004
1.079456e-003,2.128921e-004
1.036184e-003,1.780480e-004
9.809202e-004,1.488763e-004
9.245213e-004,1.214872e-004
8.767120e-004,9.328786e-005
8.361956e-004,5.909208e-005
7.984344e-004,1.355172e-005
7.609973e-004,-3.782299e-005
7.238843e-004,-8.401160e-005
6.893643e-004,-1.157764e-004
6.563030e-004,-1.319829e-004
6.224313e-004,-1.345760e-004
5.869390e-004,-1.310105e-004
5.488536e-004,-1.310105e-004
5.044477e-004,-1.418689e-004
4.546936e-004,-1.639098e-004
4.119083e-004,-1.921092e-004
3.822504e-004,-2.235498e-004
3.628026e-004,-2.541802e-004
3.485408e-004,-2.827037e-004
3.358997e-004,-3.097686e-004
3.196932e-004,-3.358611e-004
2.968419e-004,-3.556330e-004
2.730183e-004,-3.679500e-004
2.504913e-004,-3.747568e-004
2.305572e-004,-3.760533e-004
2.081922e-004,-3.661673e-004
1.856651e-004,-3.405610e-004
1.675138e-004,-2.989102e-004
1.547106e-004,-2.442942e-004
1.457970e-004,-1.797922e-004
1.417454e-004,-1.063766e-004
1.389903e-004,-1.594417e-005
1.312112e-004,9.539470e-005
1.138702e-004,2.240746e-004
9.118101e-005,3.584268e-004
7.465034e-005,4.893756e-004
6.573675e-005,6.063868e-004
5.941620e-005,6.945504e-004
4.726130e-005,7.486803e-004
2.943412e-005,7.781762e-004
1.582063e-005,7.895208e-004
1.079661e-005,7.733142e-004
7.555301e-006,7.007089e-004
-2.492749e-006,5.394538e-004
-2.177852e-005,2.744769e-004
-4.868137e-005,-8.222889e-005
-8.141856e-005,-4.859335e-004
-1.238797e-004,-8.834797e-004
-1.802784e-004,-1.233379e-003
-2.507768e-004,-1.511321e-003
-3.316474e-004,-1.707744e-003
-4.136524e-004,-1.818597e-003
-4.872300e-004,-1.848417e-003
-5.536768e-004,-1.803525e-003
-6.157478e-004,-1.689268e-003
-6.749016e-004,-1.513914e-003
-7.291936e-004,-1.285239e-003
-7.742477e-004,-1.024801e-003
-8.060125e-004,-7.619307e-004
-8.241638e-004,-5.198052e-004
-8.312946e-004,-3.131719e-004
-8.240017e-004,-1.446240e-004
-7.938576e-004,-1.270286e-005
-7.337314e-004,9.231547e-005
-6.424887e-004,1.775618e-004
-5.206155e-004,2.441707e-004
-3.783222e-004,2.921420e-004
-2.240360e-004,3.182346e-004
-6.213279e-005,3.290929e-004
1.013911e-004,3.333067e-004
2.608634e-004,3.412479e-004
4.169324e-004,3.602095e-004
5.665187e-004,3.908399e-004
7.003848e-004,4.260080e-004
8.016757e-004,4.546936e-004
8.562917e-004,4.738173e-004
8.619640e-004,4.887274e-004
8.253373e-004,5.091476e-004
7.567836e-004,5.413986e-004
6.663511e-004,5.877494e-004
5.550121e-004,6.415551e-004
4.245494e-004,6.898505e-004
2.790148e-004,7.216153e-004
1.253768e-004,7.302048e-004
-2.194059e-005,7.174017e-004
-1.528894e-004,6.890402e-004
-2.608248e-004,6.514410e-004
-3.429920e-004,6.055765e-004
-3.993907e-004,5.488536e-004
-4.293727e-004,4.798138e-004
-4.356933e-004,4.005638e-004
-4.258073e-004,3.198552e-004
-4.115456e-004,2.530843e-004
-4.052250e-004,2.143507e-004
-4.123559e-004,1.974959e-004
-4.293727e-004,1.846927e-004
-4.462276e-004,1.642725e-004
-4.512515e-004,1.297526e-004
-4.366657e-004,8.226741e-005
-4.019837e-004,2.295151e-005
-3.546606e-004,-6.116039e-005
-3.042584e-004,-1.729855e-004
-2.588801e-004,-2.801106e-004
-2.214430e-004,-3.246786e-004
-1.929195e-004,-2.694143e-004
-1.737958e-004,-1.272830e-004
-1.608306e-004,4.742337e-005
-1.475412e-004,1.936063e-004
-1.342519e-004,2.710735e-004
-1.238797e-004,2.746390e-004
-1.164247e-004,2.216436e-004
-1.128592e-004,1.367214e-004
-1.191798e-004,4.304761e-005
-1.381414e-004,-4.916756e-005
-1.606685e-004,-1.373311e-004
-1.689338e-004,-2.139880e-004
-1.491618e-004,-2.668213e-004
-9.940781e-005,-2.861070e-004
-2.745081e-005,-2.677937e-004
5.455425e-005,-2.177155e-004
1.376938e-004,-1.488377e-004
2.062474e-004,-8.109443e-005
2.474120e-004,-3.328516e-005
2.597290e-004,-9.785688e-006
2.543808e-004,9.106227e-007
2.422259e-004,1.047248e-005
2.331503e-004,2.943412e-005
2.372019e-004,5.990240e-005
2.534084e-004,9.733949e-005
2.701012e-004,1.315353e-004
2.760976e-004,1.517934e-004
2.654013e-004,1.462832e-004
2.333123e-004,1.145184e-004
1.775618e-004,6.184718e-005
1.009049e-004,8.689758e-006
1.095867e-005,-1.480971e-005
-8.206682e-005,1.112074e-005
-1.660166e-004,8.810177e-005
-2.258187e-004,1.949028e-004
-2.489941e-004,3.026763e-004
-2.271153e-004,3.929467e-004
-1.606685e-004,4.587452e-004
-5.905355e-005,5.023408e-004
6.589881e-005,5.232473e-004
2.015475e-004,5.255162e-004
3.341170e-004,5.127130e-004
4.568005e-004,4.875929e-004
5.639257e-004,4.542074e-004
6.569512e-004,4.183910e-004
7.396046e-004,3.840331e-004
8.136685e-004,3.532407e-004
8.760638e-004,3.252034e-004
9.193352e-004,2.963557e-004
9.295454e-004,2.652392e-004
8.930806e-004,2.354192e-004
7.938966e-004,2.268297e-004
6.208107e-004,2.581083e-004
3.679886e-004,3.307136e-004
4.175109e-005,4.339493e-004
-3.305129e-004,5.522569e-004
-7.092595e-004,6.671614e-004
-1.047490e-003,7.648868e-004
-1.290102e-003,8.327923e-004
-1.390582e-003,8.616399e-004
-1.337263e-003,8.433265e-004
-1.160935e-003,7.648868e-004
-9.173513e-004,6.148142e-004
-6.507540e-004,3.906778e-004
-3.779981e-004,1.059290e-004
-1.081593e-004,-2.173914e-004
1.393144e-004,-5.525423e-004
3.378445e-004,-8.791040e-004
4.563143e-004,-1.177952e-003
4.804620e-004,-1.429640e-003
4.200116e-004,-1.619742e-003
3.030004e-004,-1.739347e-003
1.581140e-004,-1.786508e-003
5.286387e-006,-1.766898e-003
-1.566169e-004,-1.690079e-003
-3.439643e-004,-1.567719e-003
-5.708557e-004,-1.414730e-003
-8.204363e-004,-1.243751e-003
-1.051055e-003,-1.068072e-003
-1.214741e-003,-9.000103e-004
-1.272112e-003,-7.439415e-004
-1.195131e-003,-6.000275e-004
-9.815291e-004,-4.627582e-004
-6.603158e-004,-3.293785e-004
-2.859450e-004,-2.081536e-004
7.448828e-005,-1.026491e-004
3.691231e-004,-1.788895e-005
5.783495e-004,4.304761e-005
7.016813e-004,8.178122e-005
7.577559e-004,1.049566e-004
7.747728e-004,1.245665e-004
7.770417e-004,1.456350e-004
7.729901e-004,1.660552e-004
7.603490e-004,1.801549e-004
7.365254e-004,1.893926e-004
7.044364e-004,1.945787e-004
6.676476e-004,2.020337e-004
6.300483e-004,2.172679e-004
5.942319e-004,2.422259e-004
5.629533e-004,2.741528e-004
5.417228e-004,3.081865e-004
5.303781e-004,3.350894e-004
5.266506e-004,3.512959e-004
5.229231e-004,3.571303e-004
5.149820e-004,3.556717e-004
5.010443e-004,3.496752e-004
4.832171e-004,3.397893e-004
4.668485e-004,3.235827e-004
4.660382e-004,3.020280e-004
5.080132e-004,2.762596e-004
6.238899e-004,2.522740e-004
8.073480e-004,2.370398e-004
1.012037e-003,2.337985e-004
1.174102e-003,2.427121e-004
1.240873e-003,2.550291e-004
1.194360e-003,2.660495e-004
1.056929e-003,2.803113e-004
8.703915e-004,3.034866e-004
6.770474e-004,3.440029e-004
5.046097e-004,4.099636e-004
3.571303e-004,4.990995e-004
2.227781e-004,5.961767e-004
9.215340e-005,6.853127e-004
-3.312309e-005,7.572698e-004
-1.420310e-004,8.120479e-004
-2.287359e-004,8.465679e-004
-3.058790e-004,8.566159e-004
-4.044147e-004,8.473782e-004
-5.567560e-004,8.233925e-004
-7.757063e-004,7.908173e-004
-1.057700e-003,7.443045e-004
-1.383451e-003,6.738061e-004
-1.697210e-003,5.684635e-004
-1.922156e-003,4.188772e-004
-1.993465e-003,2.289366e-004
-1.891850e-003,1.257933e-005
-1.633194e-003,-2.107467e-004
-1.261902e-003,-4.199730e-004
-8.381014e-004,-5.932208e-004
-4.284004e-004,-7.141214e-004
-8.773911e-005,-7.716547e-004
1.553589e-004,-7.684134e-004
2.974902e-004,-7.175248e-004
3.647473e-004,-6.421645e-004
3.914881e-004,-5.593491e-004
4.110980e-004,-4.810716e-004
4.431870e-004,-4.096008e-004
4.901859e-004,-3.425058e-004
5.402642e-004,-2.818933e-004
5.760806e-004,-2.326255e-004
5.856425e-004,-1.961608e-004
5.658705e-004,-1.802784e-004
5.190336e-004,-1.875713e-004
4.566384e-004,-2.138259e-004
3.905157e-004,-2.462390e-004
3.284447e-004,-2.682799e-004
2.752873e-004,-2.658489e-004
2.372019e-004,-2.379736e-004
2.187264e-004,-1.896782e-004
2.190506e-004,-1.374932e-004
2.302331e-004,-9.146661e-005
2.393087e-004,-5.176061e-005
2.362295e-004,-1.237873e-005
2.130541e-004,3.348575e-005
1.714034e-004,8.064677e-005
1.218114e-004,1.070634e-004
7.432621e-005,9.717743e-005
3.834771e-005,5.893001e-005
1.727922e-005,1.403791e-005
7.069105e-006,-1.691656e-005
-1.034161e-006,-2.988179e-005
-1.140634e-005,-3.134038e-005
-2.356124e-005,-3.020592e-005
-3.685060e-005,-3.863332e-005
-4.317115e-005,-5.905355e-005
-3.766092e-005,-8.303922e-005
-2.599222e-005,-9.486997e-005
-1.902341e-005,-8.368748e-005
-2.339918e-005,-4.738484e-005
-4.009191e-005,5.772582e-006
-6.083626e-005,6.541262e-005
-7.866345e-005,1.240803e-004
-8.903562e-005,1.757791e-004
-9.098041e-005,2.206712e-004
-8.725291e-005,2.705873e-004
-8.401160e-005,3.503235e-004
-8.384954e-005,4.712243e-004
-8.644259e-005,6.188659e-004
-9.017008e-005,7.639144e-004
-9.341139e-005,8.775223e-004
-9.227693e-005,9.438071e-004
-8.660465e-005,9.635791e-004
-8.141856e-005,9.520725e-004
-7.833932e-005,9.284109e-004
-7.509801e-005,8.927565e-004
-7.056019e-005,8.305234e-004
-5.937768e-005,7.271256e-004
-4.803310e-005,5.838597e-004
-4.576419e-005,4.075326e-004
-5.759496e-005,2.075439e-004
-8.271508e-005,-7.516774e-006
-1.130213e-004,-2.298704e-004
-1.379794e-004,-4.457413e-004
-1.524032e-004,-6.389232e-004
-1.598582e-004,-7.891576e-004
-1.618029e-004,-8.768350e-004
-1.567789e-004,-8.967691e-004
-1.447861e-004,-8.607905e-004
-1.279313e-004,-7.953162e-004
-1.065387e-004,-7.236833e-004
-8.935975e-005,-6.544815e-004
-8.303922e-005,-5.834968e-004
-8.628052e-005,-5.010056e-004
-8.935975e-005,-4.055492e-004
-8.417367e-005,-3.032860e-004
-5.921561e-005,-2.089640e-004
-8.975362e-006,-1.339277e-004
6.103686e-005,-8.141856e-005
1.294284e-004,-4.722278e-005
1.722137e-004,-2.664048e-005
1.765894e-004,-1.545797e-005
1.472556e-004,-9.947754e-006
9.377406e-005,-1.318906e-005
2.797553e-005,-2.534396e-005
-3.393342e-005,-4.268495e-005
-7.963584e-005,-5.759496e-005
-1.044318e-004,-6.569822e-005
-1.089697e-004,-6.310517e-005
-9.389759e-005,-4.997789e-005
-5.937768e-005,-2.712668e-005
-1.108221e-005,5.864920e-007
4.110282e-005,2.975825e-005
8.729144e-005,5.520250e-005
1.242423e-004,7.497447e-005
1.561692e-004,9.020862e-005
1.869616e-004,1.039842e-004
2.151610e-004,1.171115e-004
2.388225e-004,1.286181e-004
2.485465e-004,1.376938e-004
2.412535e-004,1.433661e-004
2.175920e-004,1.425557e-004
1.877720e-004,1.336421e-004
1.688103e-004,1.180839e-004
1.728619e-004,1.012291e-004
2.051129e-004,8.648112e-005
2.592428e-004,7.124698e-005
3.179104e-004,5.439218e-005
3.652335e-004,3.818565e-005
3.960259e-004,2.473423e-005
4.120704e-004,1.695509e-005
4.164462e-004,1.290346e-005
4.044533e-004,1.322759e-005
3.728506e-004,1.582063e-005
3.200173e-004,1.711715e-005
2.517878e-004,1.582063e-005
1.707551e-004,1.565857e-005
7.594687e-005,2.197911e-005
-3.814712e-005,3.850978e-005
-1.726613e-004,6.152305e-005
-3.185201e-004,8.599492e-005
-4.742648e-004,1.086841e-004
-6.369784e-004,1.282940e-004
-8.052022e-004,1.428799e-004
-9.881739e-004,1.576278e-004
-1.182004e-003,1.718896e-004
-1.355576e-003,1.812893e-004
-1.452977e-003,1.840444e-004
-1.418457e-003,1.825859e-004
-1.229327e-003,1.846927e-004
-9.158928e-004,1.898788e-004
-5.480045e-004,1.950649e-004
-1.972953e-004,2.020337e-004
9.215340e-005,2.109473e-004
3.030004e-004,2.188885e-004
4.397836e-004,2.237505e-004
5.209784e-004,2.242366e-004
5.666808e-004,2.229401e-004
5.900182e-004,2.222919e-004
5.892079e-004,2.250470e-004
5.600362e-004,2.297469e-004
5.076890e-004,2.354192e-004
4.396215e-004,2.389846e-004
3.626405e-004,2.378501e-004
2.864697e-004,2.268297e-004
2.198609e-004,2.034923e-004
1.688103e-004,1.754550e-004
1.331559e-004,1.500107e-004
1.093323e-004,1.333180e-004
8.372601e-005,1.258630e-004
3.494434e-005,1.242423e-004
-4.462973e-005,1.253768e-004
-1.404103e-004,1.260251e-004
-2.144742e-004,1.239182e-004
-2.350565e-004,1.195424e-004
-1.878955e-004,1.109530e-004
-7.801519e-005,1.013911e-004
9.020862e-005,9.442231e-005
3.230965e-004,8.712937e-005
6.287518e-004,7.935024e-005
9.958302e-004,7.205730e-005
1.371336e-003,6.411610e-005
1.676506e-003,5.115087e-005
1.843434e-003,3.202716e-005
1.843758e-003,6.907040e-006
1.689633e-003,-2.113026e-005
1.422711e-003,-4.803310e-005
1.102145e-003,-7.137051e-005
7.744487e-004,-8.871149e-005
4.511282e-004,-9.762509e-005
1.229458e-004,-9.794922e-005
-2.190120e-004,-9.503204e-005
-5.752315e-004,-9.308726e-005
-9.461989e-004,-9.649064e-005
-1.313277e-003,-1.105903e-004
-1.627684e-003,-1.349001e-004
-1.829293e-003,-1.624512e-004
-1.871592e-003,-1.887058e-004
-1.727030e-003,-2.078295e-004
-1.411489e-003,-2.191741e-004
-9.956289e-004,-2.237119e-004
-5.753936e-004,-2.282497e-004
-2.358668e-004,-2.361909e-004
-3.053005e-005,-2.488320e-004
2.959619e-005,-2.632558e-004
-1.189254e-005,-2.710350e-004
-8.935975e-005,-2.663351e-004
-1.374932e-004,-2.489941e-004
-1.000561e-004,-2.246843e-004
4.126489e-005,-1.989159e-004
2.543808e-004,-1.673132e-004
4.864584e-004,-1.182074e-004
6.862851e-004,-3.652646e-005
8.165857e-004,7.789165e-005
8.509436e-004,2.127300e-004
7.742866e-004,3.550234e-004
5.819149e-004,4.916445e-004
2.838767e-004,6.162729e-004
-8.206682e-005,7.229118e-004
-4.543308e-004,8.026481e-004
-7.701961e-004,8.339267e-004
-9.632158e-004,7.916276e-004
-9.803947e-004,6.650545e-004
-8.099020e-004,4.665244e-004
-4.898231e-004,2.240746e-004
-1.021629e-004,-3.555408e-005
2.555152e-004,-3.013411e-004
5.096338e-004,-5.728005e-004
6.353966e-004,-8.376152e-004
6.418792e-004,-1.066613e-003
5.475571e-004,-1.221062e-003
3.866261e-004,-1.273733e-003
2.083542e-004,-1.220900e-003
6.670914e-005,-1.079741e-003
-4.437533e-006,-8.692179e-004
-8.720959e-007,-6.136410e-004
5.293359e-005,-3.416954e-004
1.260251e-004,-7.833932e-005
1.898788e-004,1.628139e-004
2.310434e-004,3.736609e-004
2.504913e-004,5.451261e-004
2.571359e-004,6.715371e-004
2.616738e-004,7.456010e-004
2.712356e-004,7.580801e-004
2.863077e-004,7.050846e-004
2.968419e-004,5.919630e-004
2.981384e-004,4.378388e-004
2.887387e-004,2.662116e-004
2.681563e-004,9.199134e-005
2.431983e-004,-7.363943e-005
2.184023e-004,-2.079916e-004
1.892305e-004,-2.791382e-004
1.472556e-004,-2.684419e-004
9.199134e-005,-1.908126e-004
3.397195e-005,-1.003802e-004
-1.254080e-005,-6.877746e-005
-3.490581e-005,-1.407345e-004
-3.296103e-005,-3.011791e-004
-1.124428e-005,-4.945230e-004
2.343770e-005,-6.572366e-004
6.557468e-005,-7.476690e-004
1.107909e-004,-7.512344e-004
1.516314e-004,-6.797637e-004
1.806411e-004,-5.637249e-004
1.994406e-004,-4.363416e-004
2.093267e-004,-3.211132e-004
2.119197e-004,-2.251705e-004
2.094887e-004,-1.464067e-004
2.020337e-004,-7.347736e-005
1.882582e-004,-1.844488e-006
1.697827e-004,7.270556e-005
1.526038e-004,1.508211e-004
1.441764e-004,2.255332e-004
1.467694e-004,2.867939e-004
1.509831e-004,3.303894e-004
1.430419e-004,3.602095e-004
1.103047e-004,3.803056e-004
4.888196e-005,3.997535e-004
-2.453363e-005,4.290873e-004
-7.817725e-005,4.676588e-004
-8.854943e-005,5.059062e-004
-5.435365e-005,5.347540e-004
1.063454e-005,5.441537e-004
9.344993e-005,5.313505e-004
1.811273e-004,4.963444e-004
2.624841e-004,4.431870e-004
3.315239e-004,3.751195e-004
3.812780e-004,3.039728e-004
4.041292e-004,2.487085e-004
3.984569e-004,2.253711e-004
3.718782e-004,2.347709e-004
3.380065e-004,2.675081e-004
3.012177e-004,3.077003e-004
2.566497e-004,3.430306e-004
1.926339e-004,3.670162e-004
9.118101e-005,3.734989e-004
-5.597430e-005,3.673404e-004
-2.522354e-004,3.564820e-004
-4.958195e-004,3.410858e-004
-7.768407e-004,3.203414e-004
-1.077634e-003,3.049452e-004
-1.362221e-003,3.060797e-004
-1.576309e-003,3.235827e-004
-1.661717e-003,3.482167e-004
-1.583440e-003,3.644232e-004
-1.343583e-003,3.624784e-004
-9.985460e-004,3.451374e-004
-6.274165e-004,3.198552e-004
-2.958309e-004,2.974902e-004
-3.166451e-005,2.798251e-004
1.655690e-004,2.639427e-004
3.091589e-004,2.443328e-004
4.081808e-004,2.242366e-004
4.718725e-004,2.065715e-004
5.072028e-004,1.945787e-004
5.169268e-004,1.861513e-004
4.935893e-004,1.749688e-004
4.290873e-004,1.563313e-004
3.253654e-004,1.313732e-004
1.936063e-004,1.059290e-004
4.839576e-005,8.972242e-005
-9.341139e-005,9.312580e-005
-2.172293e-004,1.177597e-004
-3.173856e-004,1.511452e-004
-3.920977e-004,1.785342e-004
-4.387725e-004,1.934442e-004
-4.499550e-004,1.947408e-004
-4.118697e-004,1.840444e-004
-3.117133e-004,1.655690e-004
-1.515928e-004,1.420695e-004
4.158902e-005,1.182459e-004
2.302331e-004,1.004187e-004
3.830607e-004,1.028497e-004
4.777069e-004,1.339663e-004
5.054200e-004,1.848548e-004
4.801379e-004,2.381743e-004
4.284390e-004,2.735045e-004
3.747954e-004,2.837146e-004
3.305515e-004,2.795009e-004
2.976523e-004,2.786906e-004
2.720459e-004,2.901973e-004
2.480603e-004,3.028383e-004
2.235884e-004,2.979764e-004
2.012234e-004,2.657254e-004
1.799928e-004,2.226160e-004
1.584381e-004,1.976579e-004
1.307250e-004,2.026820e-004
9.004655e-005,2.287745e-004
3.656499e-005,2.438466e-004
-2.485776e-005,2.002510e-004
-7.833932e-005,6.444023e-005
-9.681477e-005,-1.639098e-004
-6.164659e-005,-4.506033e-004
2.116879e-005,-7.447518e-004
1.268354e-004,-9.969254e-004
2.256952e-004,-1.174387e-003
2.974902e-004,-1.259957e-003
3.344411e-004,-1.264009e-003
3.415720e-004,-1.222034e-003
3.310377e-004,-1.175197e-003
3.145071e-004,-1.150401e-003
2.999212e-004,-1.142784e-003
2.880904e-004,-1.116530e-003
2.731804e-004,-1.026583e-003
2.509774e-004,-8.525252e-004
2.184023e-004,-6.180168e-004
1.751309e-004,-3.775118e-004
1.219734e-004,-1.891920e-004
6.525056e-005,-8.806324e-005
9.662150e-006,-8.822530e-005
-4.398147e-005,-1.796301e-004
-1.021629e-004,-3.382920e-004
-1.726613e-004,-5.319601e-004
-2.587180e-004,-7.277349e-004
-3.540124e-004,-8.969311e-004
-4.470379e-004,-1.023018e-003
-5.309877e-004,-1.099027e-003
-5.997034e-004,-1.122364e-003
-6.342233e-004,-1.092220e-003
-6.133168e-004,-1.011187e-003
-5.282326e-004,-8.844521e-004
-3.924218e-004,-7.180111e-004
-2.371633e-004,-5.249913e-004
-9.600444e-005,-3.245165e-004
6.096713e-006,-1.339277e-004
6.346784e-005,3.073064e-005
8.923623e-005,1.628139e-004
1.038221e-004,2.632944e-004
1.154908e-004,3.401134e-004
1.258630e-004,3.973225e-004
1.372076e-004,4.373526e-004
1.474177e-004,4.652279e-004
1.482280e-004,4.927790e-004
1.386662e-004,5.289196e-004
1.252147e-004,5.765668e-004
1.106288e-004,6.306967e-004
9.604298e-005,6.770474e-004
8.469840e-005,7.060571e-004
7.935024e-005,7.229118e-004
8.680524e-005,7.413874e-004
1.132219e-004,7.684522e-004
1.587623e-004,8.039447e-004
2.227781e-004,8.405714e-004
2.929524e-004,8.681226e-004
3.491891e-004,8.825464e-004
3.715541e-004,8.838429e-004
3.474063e-004,8.692570e-004
2.850112e-004,8.452713e-004
2.026820e-004,8.207994e-004
1.166253e-004,8.015137e-004
3.753739e-005,7.853071e-004
-2.226472e-005,7.671557e-004
-5.516398e-005,7.444666e-004
-6.278104e-005,7.152948e-004
-5.500191e-005,6.785059e-004
-4.155049e-005,6.349103e-004
-3.150244e-005,5.903424e-004
-2.680255e-005,5.483674e-004
-2.583016e-005,5.065545e-004
-2.988179e-005,4.618245e-004
-3.409549e-005,4.154738e-004
-3.490581e-005,3.715541e-004
-3.377136e-005,3.324963e-004
-3.166451e-005,2.979764e-004
-2.680255e-005,2.671840e-004
-1.805102e-005,2.383363e-004
-8.327101e-006,2.085163e-004
2.693341e-006,1.783722e-004
2.100672e-005,1.487142e-004
4.304761e-005,1.218114e-004
6.281957e-005,9.507057e-005
7.724339e-005,6.427817e-005
9.231547e-005,2.684107e-005
1.109530e-004,-1.918548e-005
1.338042e-004,-7.509801e-005
1.624898e-004,-1.339277e-004
2.010613e-004,-1.849783e-004
2.550291e-004,-2.217671e-004
3.363859e-004,-2.455907e-004
4.521006e-004,-2.575835e-004
5.905044e-004,-2.598524e-004
7.204809e-004,-2.567732e-004
8.139926e-004,-2.528836e-004
8.536987e-004,-2.522354e-004
8.348991e-004,-2.562870e-004
7.671557e-004,-2.614731e-004
6.637580e-004,-2.679557e-004
5.496639e-004,-2.729798e-004
4.438352e-004,-2.747625e-004
3.472443e-004,-2.721694e-004
2.534084e-004,-2.664971e-004
1.540623e-004,-2.605007e-004
4.191315e-005,-2.551526e-004
-8.028410e-005,-2.488320e-004
-2.133397e-004,-2.374874e-004
-3.616295e-004,-2.188499e-004
-5.245051e-004,-1.971332e-004
-6.877048e-004,-1.797922e-004
-8.366429e-004,-1.676373e-004
-9.645124e-004,-1.569410e-004
-1.054621e-003,-1.404103e-004
-1.060941e-003,-1.148040e-004
-9.364750e-004,-8.482193e-005
-6.667984e-004,-5.840528e-005
-2.878898e-004,-4.090223e-005
1.279698e-004,-3.020592e-005
5.050959e-004,-2.583016e-005
7.929241e-004,-2.550602e-005
9.661721e-004,-2.728874e-005
1.022895e-003,-2.793700e-005
9.728169e-004,-2.566809e-005
8.160995e-004,-1.691656e-005
5.576051e-004,-4.923729e-006
2.182402e-004,6.258778e-006
-1.750923e-004,1.371378e-005
-5.940311e-004,1.889987e-005
-1.011511e-003,2.197911e-005
-1.407113e-003,2.732727e-005
-1.766412e-003,3.624086e-005
-2.070284e-003,5.001642e-005
-2.282914e-003,6.314371e-005
-2.356006e-003,7.108491e-005
-2.255687e-003,7.254349e-005
-1.986496e-003,7.173317e-005
-1.604022e-003,7.157111e-005
-1.191242e-003,7.302970e-005
-8.193018e-004,7.448828e-005
-5.209396e-004,7.756752e-005
-2.898345e-004,8.194328e-005
-9.535618e-005,8.534666e-005
8.664318e-005,8.696731e-005
2.642668e-004,8.907416e-005
4.365423e-004,9.231547e-005
5.906665e-004,9.669123e-005
7.105949e-004,1.018773e-004
7.788245e-004,1.073875e-004
7.888725e-004,1.106288e-004
7.564594e-004,1.103047e-004
7.102708e-004,1.044704e-004
6.733199e-004,9.377406e-005
6.635960e-004,8.032264e-005
6.875816e-004,6.914012e-005
7.329599e-004,6.735741e-005
7.783383e-004,8.080883e-005
8.075100e-004,1.197045e-004
8.139926e-004,1.859892e-004
8.037825e-004,2.692908e-004
7.872519e-004,3.529166e-004
7.679661e-004,4.192013e-004
7.431700e-004,4.525868e-004
7.078398e-004,4.461041e-004
6.624615e-004,4.054258e-004
6.148142e-004,3.454615e-004
5.828873e-004,2.748010e-004
5.900182e-004,1.944166e-004
6.436619e-004,9.993253e-005
7.235601e-004,-1.124428e-005
7.911414e-004,-1.332795e-004
8.109135e-004,-2.614731e-004
7.770417e-004,-3.904771e-004
7.047605e-004,-5.138087e-004
6.191900e-004,-6.275786e-004
5.451261e-004,-7.285453e-004
5.059062e-004,-8.116848e-004
5.180612e-004,-8.680834e-004
5.759185e-004,-8.891520e-004
6.522514e-004,-8.708386e-004
7.193465e-004,-8.171950e-004
7.545147e-004,-7.353520e-004
7.389564e-004,-6.342233e-004
6.541961e-004,-5.266119e-004
4.952099e-004,-4.235384e-004
2.778803e-004,-3.274337e-004
3.121684e-005,-2.399184e-004
-2.224154e-004,-1.569410e-004
-4.685925e-004,-8.401160e-005
-7.115284e-004,-2.793700e-005
-9.620814e-004,7.879432e-006
-1.225600e-003,2.586868e-005
-1.495114e-003,3.624086e-005
-1.743236e-003,4.596478e-005
-1.920374e-003,6.152305e-005
