1.005808e-004,1.208390e-004
9.986281e-006,-2.388537e-005
9.338019e-006,-2.071812e-004
7.837785e-005,-3.828600e-004
1.741585e-004,-4.920920e-004
2.522740e-004,-5.016539e-004
2.840388e-004,-4.214316e-004
2.652392e-004,-2.953447e-004
2.077060e-004,-1.695821e-004
1.260251e-004,-7.380149e-005
2.846173e-005,-1.562004e-005
-7.169464e-005,1.387585e-005
-1.587237e-004,3.429608e-005
-2.198223e-004,5.990240e-005
-2.551526e-004,9.604298e-005
-2.700626e-004,1.365593e-004
-2.715212e-004,1.741585e-004
-2.687660e-004,2.060853e-004
-2.713591e-004,2.333123e-004
-2.848105e-004,2.525981e-004
-3.024756e-004,2.631324e-004
-3.112272e-004,2.666978e-004
-3.002067e-004,2.649151e-004
-2.733039e-004,2.629703e-004
-2.423494e-004,2.602152e-004
-2.147983e-004,2.500050e-004
-1.880575e-004,2.279642e-004
-1.551583e-004,1.942546e-004
-1.159385e-004,1.558451e-004
-7.850138e-005,1.231079e-004
-5.224680e-005,1.028497e-004
-4.673658e-005,9.717743e-005
-6.359137e-005,1.002567e-004
-9.000802e-005,1.056048e-004
-1.091317e-004,1.112771e-004
-1.071869e-004,1.210010e-004
-8.012204e-005,1.388282e-004
-3.814712e-005,1.637863e-004
4.800190e-006,1.919856e-004
3.559260e-005,2.182402e-004
5.358185e-005,2.355812e-004
6.136099e-005,2.388225e-004
6.071273e-005,2.300710e-004
4.726130e-005,2.099749e-004
2.149292e-005,1.782101e-004
-1.189254e-005,1.402868e-004
-4.657452e-005,1.039842e-004
-7.623246e-005,7.335383e-005
-8.919769e-005,4.823370e-005
-7.866345e-005,2.408596e-005
-5.143648e-005,-2.654814e-006
-2.096820e-005,-3.490581e-005
2.369211e-006,-6.586029e-005
1.711715e-005,-8.871149e-005
3.316162e-005,-9.989401e-005
6.055066e-005,-1.018388e-004
9.571884e-005,-1.008664e-004
1.289422e-004,-9.956988e-005
1.454729e-004,-9.373552e-005
1.394765e-004,-7.963584e-005
1.166253e-004,-5.840528e-005
8.388807e-005,-3.360929e-005
4.547859e-005,-1.399939e-005
-4.275467e-006,-2.816880e-006
-7.477388e-005,1.396819e-006
-1.650443e-004,-3.627206e-006
-2.660110e-004,-1.950961e-005
-3.606571e-004,-4.349527e-005
-4.321279e-004,-6.861539e-005
-4.671340e-004,-9.211487e-005
-4.621100e-004,-1.128592e-004
-4.292107e-004,-1.297140e-004
-3.885323e-004,-1.467309e-004
-3.554710e-004,-1.665028e-004
-3.316474e-004,-1.895161e-004
-3.021515e-004,-2.147983e-004
-2.420253e-004,-2.382978e-004
-1.417068e-004,-2.543422e-004
-1.821308e-005,-2.574215e-004
1.051186e-004,-2.452666e-004
2.093267e-004,-2.203085e-004
2.850112e-004,-1.908126e-004
3.303894e-004,-1.663408e-004
3.522683e-004,-1.541859e-004
3.602095e-004,-1.451102e-004
3.702575e-004,-1.151281e-004
3.919743e-004,-4.511593e-005
4.169324e-004,7.708133e-005
4.303838e-004,2.571359e-004
4.247115e-004,4.814344e-004
4.021844e-004,7.305289e-004
3.730126e-004,9.809202e-004
3.415720e-004,1.207812e-003
3.021901e-004,1.389163e-003
2.545429e-004,1.502933e-003
2.021958e-004,1.527729e-003
1.509831e-004,1.457231e-003
1.093323e-004,1.296138e-003
8.388807e-005,1.057901e-003
7.254349e-005,7.507871e-004
6.962632e-005,3.796573e-004
7.270556e-005,-5.694670e-005
7.659513e-005,-5.561078e-004
6.670914e-005,-1.099513e-003
2.894792e-005,-1.643404e-003
-3.604027e-005,-2.127493e-003
-1.086455e-004,-2.494734e-003
-1.603444e-004,-2.718060e-003
-1.705545e-004,-2.790828e-003
-1.374932e-004,-2.712388e-003
-7.234290e-005,-2.476745e-003
7.069105e-006,-2.091839e-003
8.486046e-005,-1.597053e-003
1.466074e-004,-1.056079e-003
1.861513e-004,-5.418460e-004
2.125679e-004,-1.172350e-004
2.362295e-004,1.751309e-004
2.618358e-004,3.208276e-004
2.937627e-004,3.380065e-004
3.281205e-004,2.642668e-004
3.598854e-004,1.490383e-004
3.838710e-004,4.904402e-005
3.885709e-004,9.175954e-006
3.628026e-004,4.272347e-005
3.018659e-004,1.438522e-004
2.169437e-004,3.030004e-004
1.351007e-004,4.999099e-004
1.031738e-004,7.028158e-004
1.692965e-004,8.687708e-004
3.380065e-004,9.548276e-004
5.559844e-004,9.564483e-004
7.436562e-004,9.159319e-004
8.298751e-004,8.883807e-004
7.929241e-004,9.024804e-004
6.605167e-004,9.340832e-004
4.835413e-004,9.295454e-004
3.073762e-004,8.404093e-004
1.579519e-004,6.452826e-004
2.943412e-005,3.637749e-004
-1.000561e-004,5.423012e-005
-2.391081e-004,-2.107467e-004
-3.758912e-004,-3.836704e-004
-4.935506e-004,-4.651892e-004
-5.830107e-004,-4.959816e-004
-6.371404e-004,-5.136467e-004
-6.261200e-004,-5.141329e-004
-5.311498e-004,-4.601652e-004
-3.804291e-004,-3.248407e-004
-2.373254e-004,-1.217728e-004
-1.543479e-004,1.081979e-004
-1.292278e-004,3.209897e-004
-1.020008e-004,4.835413e-004
-2.031993e-005,5.877494e-004
1.154908e-004,6.464170e-004
2.582704e-004,6.828817e-004
3.534027e-004,7.180499e-004
3.540510e-004,7.605111e-004
2.196988e-004,7.992447e-004
-6.391550e-005,8.133444e-004
-4.741028e-004,7.840106e-004
-9.564091e-004,7.016813e-004
-1.460108e-003,5.684635e-004
-1.942901e-003,4.049396e-004
-2.349037e-003,2.423880e-004
-2.600077e-003,1.047945e-004
-2.630221e-003,-2.978945e-006
-2.420832e-003,-9.098041e-005
-2.023771e-003,-1.718510e-004
-1.542599e-003,-2.532078e-004
-1.082820e-003,-3.334301e-004
-7.280591e-004,-4.134903e-004
-5.123502e-004,-4.933886e-004
-4.070078e-004,-5.655076e-004
-3.457471e-004,-6.173685e-004
-2.671454e-004,-6.379507e-004
-1.386276e-004,-6.256338e-004
5.034055e-005,-5.859278e-004
2.858215e-004,-5.223983e-004
5.334574e-004,-4.412035e-004
7.566215e-004,-3.548227e-004
9.300316e-004,-2.692523e-004
1.033429e-003,-1.833576e-004
1.057253e-003,-9.000802e-005
1.005878e-003,1.825161e-005
9.081527e-004,1.445005e-004
8.076721e-004,2.887387e-004
7.389564e-004,4.533971e-004
7.127018e-004,6.349103e-004
7.196706e-004,8.190167e-004
7.546768e-004,9.906441e-004
8.165857e-004,1.137475e-003
9.086389e-004,1.253190e-003
1.024678e-003,1.334871e-003
1.148334e-003,1.387867e-003
1.252218e-003,1.409908e-003
1.306510e-003,1.386732e-003
1.299703e-003,1.298407e-003
1.244763e-003,1.139420e-003
1.174913e-003,9.334349e-004
1.124348e-003,7.120535e-004
1.113004e-003,4.958582e-004
1.134882e-003,2.924662e-004
1.157247e-003,9.944634e-005
1.131155e-003,-8.628052e-005
1.027919e-003,-2.650386e-004
8.511057e-004,-4.261314e-004
6.306967e-004,-5.540010e-004
4.076947e-004,-6.515643e-004
2.172679e-004,-7.465345e-004
7.837785e-005,-8.569010e-004
-8.975362e-006,-9.661330e-004
-5.678463e-005,-1.036956e-003
-7.526008e-005,-1.041655e-003
-6.780507e-005,-9.735880e-004
-3.766092e-005,-8.432875e-004
2.693341e-006,-6.770085e-004
1.257933e-005,-5.082985e-004
-6.586029e-005,-3.614674e-004
-2.699005e-004,-2.468872e-004
-5.831727e-004,-1.624512e-004
-9.382577e-004,-9.357346e-005
-1.253637e-003,-1.967167e-005
-1.465132e-003,7.918817e-005
-1.540168e-003,2.172679e-004
-1.469670e-003,3.869503e-004
-1.265306e-003,5.655463e-004
-9.598124e-004,7.246946e-004
-6.058619e-004,8.305234e-004
-2.690902e-004,8.674743e-004
3.989864e-006,8.462437e-004
2.031682e-004,7.977861e-004
3.417340e-004,7.480320e-004
4.277907e-004,7.104329e-004
4.726828e-004,6.788301e-004
4.861343e-004,6.409068e-004
4.791655e-004,5.849942e-004
4.532350e-004,5.127130e-004
4.028327e-004,4.294114e-004
3.303894e-004,3.326584e-004
2.456293e-004,2.206712e-004
1.516314e-004,9.636710e-005
4.499239e-005,-3.020592e-005
-7.931171e-005,-1.498101e-004
-2.169052e-004,-2.527216e-004
-3.556330e-004,-3.361852e-004
-4.781544e-004,-3.985804e-004
-5.676145e-004,-4.373140e-004
-6.073205e-004,-4.554653e-004
-5.959758e-004,-4.596790e-004
-5.366600e-004,-4.595169e-004
-4.290486e-004,-4.616237e-004
-2.804347e-004,-4.674581e-004
-1.054042e-004,-4.765338e-004
7.059871e-005,-4.865818e-004
2.315296e-004,-4.898231e-004
3.718782e-004,-4.826922e-004
4.885653e-004,-4.643789e-004
5.765668e-004,-4.365036e-004
6.277795e-004,-4.016596e-004
6.399344e-004,-3.653570e-004
6.167590e-004,-3.284061e-004
5.668429e-004,-2.921034e-004
5.042856e-004,-2.566112e-004
4.436732e-004,-2.237119e-004
3.960259e-004,-1.958367e-004
3.678266e-004,-1.788198e-004
3.603715e-004,-1.755785e-004
3.632887e-004,-1.806025e-004
3.623164e-004,-1.856265e-004
3.461098e-004,-1.836818e-004
3.112658e-004,-1.700683e-004
2.579462e-004,-1.457585e-004
1.882582e-004,-1.126972e-004
1.085220e-004,-7.704279e-005
2.732727e-005,-4.754691e-005
-5.013995e-005,-2.939559e-005
-1.285796e-004,-2.129233e-005
-2.107467e-004,-2.031993e-005
-2.916173e-004,-2.291298e-005
-3.567675e-004,-2.971972e-005
-3.951770e-004,-4.155049e-005
-4.042526e-004,-5.386745e-005
-3.909633e-004,-6.002594e-005
-3.598467e-004,-5.727083e-005
-3.092824e-004,-5.062615e-005
-2.429977e-004,-4.252288e-005
-1.592099e-004,-3.539201e-005
-6.213279e-005,-3.085418e-005
4.288554e-005,-2.728874e-005
1.482280e-004,-2.113026e-005
2.425500e-004,-1.173047e-005
3.175863e-004,-4.113403e-006
3.710679e-004,-2.168618e-006
4.029947e-004,-4.275467e-006
4.063981e-004,1.558884e-006
3.772264e-004,2.035846e-005
3.179104e-004,4.580272e-005
2.312055e-004,6.832980e-005
1.099806e-004,7.740546e-005
-5.532604e-005,6.200925e-005
-2.583939e-004,2.311357e-005
-4.762096e-004,-2.858527e-005
-6.771705e-004,-7.688073e-005
-8.390738e-004,-1.075111e-004
-9.530057e-004,-1.173971e-004
-1.013618e-003,-1.097800e-004
-1.024639e-003,-9.211487e-005
-9.931979e-004,-7.752899e-005
-9.299924e-004,-7.526008e-005
-8.457185e-004,-8.790117e-005
-7.496137e-004,-1.101041e-004
-6.479988e-004,-1.340898e-004
-5.329325e-004,-1.532135e-004
-3.972838e-004,-1.608306e-004
-2.520733e-004,-1.535376e-004
-1.201522e-004,-1.381414e-004
-2.453363e-005,-1.206384e-004
2.667901e-005,-1.042698e-004
4.564065e-005,-9.081835e-005
5.277153e-005,-7.947377e-005
5.536457e-005,-6.893953e-005
5.828175e-005,-5.791909e-005
7.465034e-005,-4.657452e-005
1.359110e-004,-3.296103e-005
2.631324e-004,-1.740276e-005
4.451317e-004,-2.654814e-006
6.375034e-004,9.175954e-006
7.877381e-004,1.419998e-005
8.673123e-004,1.663096e-005
8.734707e-004,1.906194e-005
8.188546e-004,2.619281e-005
7.248566e-004,4.045456e-005
6.143281e-004,5.730935e-005
4.979651e-004,7.497447e-005
3.796573e-004,9.296373e-005
2.696149e-004,1.132219e-004
1.801549e-004,1.355869e-004
1.227837e-004,1.571416e-004
1.018773e-004,1.769136e-004
1.060910e-004,1.965235e-004
9.896015e-005,2.161334e-004
2.651694e-005,2.326641e-004
-1.491618e-004,2.449810e-004
-4.211074e-004,2.555152e-004
-7.325969e-004,2.645909e-004
-9.941703e-004,2.715597e-004
-1.116692e-003,2.798251e-004
-1.050569e-003,2.923041e-004
-8.100641e-004,3.049452e-004
-4.635685e-004,3.140208e-004
-9.924574e-005,3.166139e-004
2.067336e-004,3.122381e-004
4.135290e-004,3.057555e-004
5.242196e-004,3.025142e-004
5.736496e-004,3.051073e-004
6.084936e-004,3.115899e-004
6.561409e-004,3.185587e-004
7.070294e-004,3.230965e-004
7.326358e-004,3.227724e-004
7.175637e-004,3.172622e-004
6.671614e-004,3.091589e-004
5.926113e-004,3.031625e-004
4.989374e-004,3.010556e-004
3.809539e-004,3.038107e-004
2.279642e-004,3.117519e-004
4.434413e-005,3.268240e-004
-1.468929e-004,3.483787e-004
-3.091203e-004,3.707437e-004
-4.209454e-004,3.837090e-004
-4.788027e-004,3.783608e-004
-5.045711e-004,3.579406e-004
-5.270981e-004,3.318480e-004
-5.702075e-004,3.085106e-004
-6.437852e-004,2.898731e-004
-7.470207e-004,2.783665e-004
-8.630594e-004,2.678322e-004
-9.612711e-004,2.537325e-004
-1.005839e-003,2.376881e-004
-9.656468e-004,2.187264e-004
-8.295119e-004,1.987924e-004
-6.102377e-004,1.851789e-004
-3.454229e-004,1.879340e-004
-8.984595e-005,2.161334e-004
1.009049e-004,2.814457e-004
1.944166e-004,3.924605e-004
1.963614e-004,5.415607e-004
1.482280e-004,7.049226e-004
1.052807e-004,8.567779e-004
1.164632e-004,9.805959e-004
2.041406e-004,1.070056e-003
3.611819e-004,1.119972e-003
5.550121e-004,1.122241e-003
7.381460e-004,1.066815e-003
8.702294e-004,9.408899e-004
9.266282e-004,7.319876e-004
9.052355e-004,4.368664e-004
8.253373e-004,6.735741e-005
7.199947e-004,-3.596847e-004
6.279415e-004,-8.265948e-004
5.807805e-004,-1.308091e-003
5.880735e-004,-1.774677e-003
6.387999e-004,-2.196857e-003
7.120535e-004,-2.541409e-003
7.810934e-004,-2.784021e-003
8.211235e-004,-2.911567e-003
8.164236e-004,-2.924046e-003
7.713694e-004,-2.826806e-003
7.044364e-004,-2.634759e-003
6.302104e-004,-2.370592e-003
5.554983e-004,-2.058615e-003
4.734932e-004,-1.721844e-003
3.718782e-004,-1.375024e-003
2.469258e-004,-1.030311e-003
1.039842e-004,-7.016424e-004
-4.803310e-005,-4.063595e-004
-1.950263e-004,-1.674752e-004
-3.282440e-004,-6.220252e-006
-4.382863e-004,7.886404e-005
-5.115399e-004,1.174356e-004
-5.389289e-004,1.472556e-004
-5.183466e-004,1.939304e-004
-4.557894e-004,2.701012e-004
-3.736223e-004,3.734989e-004
-3.021515e-004,4.909963e-004
-2.611490e-004,6.099523e-004
-2.459149e-004,7.172396e-004
-2.429977e-004,8.131823e-004
-2.408908e-004,9.036149e-004
-2.308428e-004,9.924268e-004
-2.100984e-004,1.080753e-003
-1.789819e-004,1.166647e-003
-1.439758e-004,1.248815e-003
-1.136696e-004,1.330820e-003
-9.649064e-005,1.413635e-003
-8.547019e-005,1.490292e-003
-7.201877e-005,1.546043e-003
-4.851930e-005,1.564843e-003
-1.740276e-005,1.538264e-003
1.987227e-005,1.474734e-003
5.974033e-005,1.385112e-003
1.002567e-004,1.270693e-003
1.372076e-004,1.112355e-003
1.652449e-004,8.930806e-004
1.906891e-004,6.287518e-004
2.266676e-004,3.676645e-004
2.759355e-004,1.592484e-004
3.341170e-004,2.570662e-005
3.906778e-004,-3.571614e-005
4.331389e-004,-4.203669e-005
4.493454e-004,-1.999580e-005
4.318424e-004,7.393236e-006
3.822504e-004,3.380988e-005
3.068900e-004,6.962632e-005
2.148369e-004,1.295905e-004
1.193804e-004,2.276400e-004
3.559260e-005,3.699334e-004
-2.161646e-005,5.540397e-004
-4.430560e-005,7.632662e-004
-3.782299e-005,9.645515e-004
-1.999580e-005,1.122079e-003
-6.544382e-006,1.216887e-003
-8.651231e-006,1.256107e-003
-3.279896e-005,1.254001e-003
-8.206682e-005,1.220453e-003
-1.598582e-004,1.150441e-003
-2.601766e-004,1.031971e-003
-3.770257e-004,8.587227e-004
-5.065158e-004,6.323173e-004
-6.332509e-004,3.673404e-004
-7.290315e-004,7.432621e-005
-7.667927e-004,-2.467252e-004
-7.313004e-004,-5.977586e-004
-6.301716e-004,-9.743983e-004
-4.844750e-004,-1.362221e-003
-3.248407e-004,-1.729137e-003
-1.799543e-004,-2.029120e-003
-6.910160e-005,-2.216954e-003
1.883015e-006,-2.267842e-003
3.672706e-005,-2.190213e-003
4.839576e-005,-2.020530e-003
4.434413e-005,-1.805469e-003
2.959619e-005,-1.583116e-003
1.128280e-005,-1.379724e-003
-4.599598e-006,-1.210041e-003
-1.302700e-005,-1.075365e-003
-1.562004e-005,-9.666192e-004
-1.383732e-005,-8.765109e-004
-2.006553e-006,-7.959644e-004
3.105477e-005,-7.186593e-004
9.442231e-005,-6.418404e-004
1.798307e-004,-5.664800e-004
2.689667e-004,-4.937127e-004
3.480546e-004,-4.280762e-004
4.073705e-004,-3.663294e-004
4.454559e-004,-3.053928e-004
4.600418e-004,-2.438080e-004
4.461041e-004,-1.827094e-004
4.072085e-004,-1.230693e-004
3.566440e-004,-6.148453e-005
3.086727e-004,5.772582e-006
2.697770e-004,7.870197e-005
2.407673e-004,1.524417e-004
2.158093e-004,2.221298e-004
1.812893e-004,2.850112e-004
1.163011e-004,3.417340e-004
1.322759e-005,3.931088e-004
-1.230693e-004,4.371906e-004
-2.767073e-004,4.744656e-004
-4.335865e-004,5.060683e-004
-5.893312e-004,5.354022e-004
-7.410243e-004,5.627912e-004
-8.710006e-004,5.827253e-004
-9.442542e-004,5.966629e-004
-9.316131e-004,6.010387e-004
-8.212466e-004,5.953664e-004
-6.322784e-004,5.777013e-004
-4.036044e-004,5.532294e-004
-1.804405e-004,5.316747e-004
-2.168618e-006,5.166026e-004
1.075496e-004,5.057442e-004
1.487142e-004,4.934272e-004
1.316974e-004,4.775448e-004
7.805372e-005,4.644175e-004
1.744129e-005,4.587452e-004
-2.631635e-005,4.577728e-004
-3.814712e-005,4.587452e-004
-5.734056e-006,4.579349e-004
7.027458e-005,4.538833e-004
1.707551e-004,4.415663e-004
2.731804e-004,4.190393e-004
3.611819e-004,3.887330e-004
4.258460e-004,3.542131e-004
4.687933e-004,3.193690e-004
4.950479e-004,2.876042e-004
5.162785e-004,2.589186e-004
5.378332e-004,2.243987e-004
5.550121e-004,1.676758e-004
5.543638e-004,8.680524e-005
5.235714e-004,-3.141010e-006
4.611762e-004,-7.898758e-005
3.666921e-004,-1.212866e-004
2.394708e-004,-1.251762e-004
8.340187e-005,-1.016767e-004
-8.790117e-005,-6.780507e-005
-2.617972e-004,-3.766092e-005
-4.225660e-004,-1.659243e-005
-5.505976e-004,-5.479652e-007
-6.267683e-004,1.355172e-005
-6.462161e-004,3.218923e-005
-6.142893e-004,7.610894e-005
-5.288809e-004,1.556830e-004
-3.820497e-004,2.611876e-004
-1.765509e-004,3.610198e-004
6.411610e-005,4.260080e-004
3.042970e-004,4.410801e-004
5.060683e-004,4.127187e-004
6.527375e-004,3.566440e-004
7.460872e-004,2.833905e-004
8.019998e-004,1.974959e-004
8.404093e-004,1.028497e-004
8.778464e-004,1.290346e-005
9.130147e-004,-6.667062e-005
9.334349e-004,-1.425172e-004
9.201455e-004,-2.246843e-004
8.491609e-004,-3.159271e-004
7.041123e-004,-4.084663e-004
4.872688e-004,-4.825302e-004
2.122438e-004,-5.261258e-004
-9.794922e-005,-5.381186e-004
-4.097628e-004,-5.228845e-004
-6.599916e-004,-4.888507e-004
-7.766787e-004,-4.460655e-004
-7.231971e-004,-4.036044e-004
-5.120260e-004,-3.664914e-004
-1.911368e-004,-3.347266e-004
1.867996e-004,-3.049066e-004
5.777013e-004,-2.770314e-004
9.483449e-004,-2.536940e-004
1.285603e-003,-2.298704e-004
1.590287e-003,-2.031296e-004
1.854454e-003,-1.695821e-004
2.043909e-003,-1.332795e-004
2.091394e-003,-9.973194e-005
1.923332e-003,-7.153257e-005
1.513144e-003,-4.527799e-005
8.981046e-004,-2.356124e-005
1.574657e-004,-1.189254e-005
-6.170443e-004,-3.858999e-007
-1.342935e-003,2.359977e-005
-1.939011e-003,6.508849e-005
-2.324403e-003,1.177597e-004
-2.450652e-003,1.636242e-004
-2.321972e-003,1.855030e-004
-2.008700e-003,1.752929e-004
-1.630925e-003,1.427178e-004
-1.322839e-003,1.007429e-004
-1.190431e-003,6.946425e-005
-1.280216e-003,7.027458e-005
-1.559778e-003,1.281319e-004
-1.931070e-003,2.572980e-004
-2.269625e-003,4.443214e-004
-2.455190e-003,6.686199e-004
-2.408839e-003,9.141492e-004
-2.113394e-003,1.185285e-003
-1.624118e-003,1.502609e-003
-1.038576e-003,1.861585e-003
-4.669719e-004,2.214889e-003
7.069105e-006,2.492184e-003
3.506476e-004,2.624754e-003
5.777013e-004,2.574027e-003
7.233981e-004,2.342921e-003
8.222580e-004,1.960445e-003
8.934048e-004,1.460796e-003
9.465622e-004,8.767120e-004
9.791374e-004,2.414156e-004
9.899958e-004,-4.055492e-004
9.883752e-004,-1.027556e-003
9.789753e-004,-1.603860e-003
9.613102e-004,-2.130897e-003
9.313281e-004,-2.608666e-003
8.916220e-004,-3.025661e-003
8.501333e-004,-3.357572e-003
8.162616e-004,-3.574902e-003
7.932483e-004,-3.655449e-003
7.676419e-004,-3.599375e-003
7.178878e-004,-3.418509e-003
6.334517e-004,-3.130193e-003
5.153061e-004,-2.753066e-003
3.803056e-004,-2.311438e-003
2.483844e-004,-1.838369e-003
1.273216e-004,-1.370486e-003
2.035846e-005,-9.390680e-004
-5.467778e-005,-5.646973e-004
-6.893953e-005,-2.559629e-004
-4.275467e-006,-1.173047e-005
1.258630e-004,1.835583e-004
2.900352e-004,3.529166e-004
4.569625e-004,5.080132e-004
6.018490e-004,6.405826e-004
7.135121e-004,7.345806e-004
7.943827e-004,7.763935e-004
8.468920e-004,7.671557e-004
8.809257e-004,7.178878e-004
9.075044e-004,6.527375e-004
9.300316e-004,5.976353e-004
9.491552e-004,5.673291e-004
9.603378e-004,5.624671e-004
9.655239e-004,5.760806e-004
9.669825e-004,6.007145e-004
9.527208e-004,6.277795e-004
9.060458e-004,6.546823e-004
8.079963e-004,6.828817e-004
6.540340e-004,7.188602e-004
4.569625e-004,7.598628e-004
2.396328e-004,7.895208e-004
3.656499e-005,7.998930e-004
-1.128592e-004,7.958413e-004
-1.838438e-004,7.904932e-004
-1.750923e-004,7.966516e-004
-1.071869e-004,8.138306e-004
-2.145439e-005,8.327923e-004
3.267542e-005,8.405714e-004
2.586868e-005,8.277682e-004
-4.560212e-005,7.911414e-004
-1.580754e-004,7.357151e-004
-2.737901e-004,6.729957e-004
-3.566054e-004,6.204865e-004
-3.895047e-004,5.875872e-004
-3.760533e-004,5.754323e-004
-3.384541e-004,5.772150e-004
-3.040963e-004,5.890459e-004
-2.885380e-004,6.055765e-004
-2.989102e-004,6.170832e-004
-3.305129e-004,6.175694e-004
-3.741085e-004,6.060627e-004
-4.191627e-004,5.854804e-004
-4.502792e-004,5.613327e-004
-4.600031e-004,5.379952e-004
-4.551412e-004,5.164405e-004
-4.455793e-004,4.984512e-004
-4.395829e-004,4.798138e-004
-4.369898e-004,4.618245e-004
-4.361795e-004,4.401077e-004
-4.352071e-004,4.177427e-004
-4.348830e-004,4.008879e-004
-4.382863e-004,3.901916e-004
-4.484965e-004,3.825745e-004
-4.637306e-004,3.746333e-004
-4.682684e-004,3.640991e-004
-4.413656e-004,3.488649e-004
-3.838324e-004,3.268240e-004
-3.175477e-004,2.931144e-004
-2.669833e-004,2.485465e-004
-2.465631e-004,1.981441e-004
-2.517492e-004,1.459591e-004
-2.658489e-004,9.863601e-005
-2.699005e-004,6.006447e-005
-2.548284e-004,2.586868e-005
-2.290601e-004,-2.501983e-005
-2.136638e-004,-1.109144e-004
-2.238740e-004,-2.245222e-004
-2.569353e-004,-3.402368e-004
-3.023136e-004,-4.305072e-004
-3.514194e-004,-4.826922e-004
-3.966356e-004,-5.024642e-004
-4.272659e-004,-4.995471e-004
-4.246728e-004,-4.920920e-004
-3.765395e-004,-4.967919e-004
-2.849726e-004,-5.131605e-004
-1.624512e-004,-5.330946e-004
-2.664048e-005,-5.493010e-004
1.044704e-004,-5.588629e-004
2.124059e-004,-5.557837e-004
2.947351e-004,-5.254775e-004
3.582647e-004,-4.645409e-004
4.063981e-004,-3.792946e-004
4.402698e-004,-2.830278e-004
4.626348e-004,-1.891920e-004
4.728449e-004,-1.086455e-004
4.634451e-004,-4.770897e-005
4.183910e-004,-7.516774e-006
3.247172e-004,1.176900e-005
1.853410e-004,1.695509e-005
1.711715e-005,1.403791e-005
-1.538618e-004,1.883015e-006
-3.045825e-004,-1.869928e-005
-4.279142e-004,-4.219875e-005
-5.363359e-004,-6.764301e-005
-6.421645e-004,-9.632857e-005
-7.306521e-004,-1.295519e-004
-7.617687e-004,-1.697442e-004
-6.982391e-004,-2.206326e-004
-5.308256e-004,-2.780038e-004
-2.846485e-004,-3.319715e-004
-7.192643e-006,-3.731361e-004
2.548670e-004,-3.977700e-004
4.655520e-004,-4.023079e-004
6.109247e-004,-3.901529e-004
6.919574e-004,-3.658432e-004
7.191843e-004,-3.352128e-004
7.092984e-004,-3.066893e-004
6.796404e-004,-2.852967e-004
6.417171e-004,-2.681178e-004
6.029835e-004,-2.520733e-004
5.674912e-004,-2.306807e-004
5.363746e-004,-2.029675e-004
5.049339e-004,-1.713648e-004
4.728449e-004,-1.439758e-004
4.475628e-004,-1.193418e-004
4.360561e-004,-9.276313e-005
4.397836e-004,-6.359137e-005
4.559901e-004,-3.198864e-005
4.760863e-004,-2.330684e-006
4.888894e-004,2.376183e-005
4.798138e-004,4.531652e-005
4.313562e-004,5.844381e-005
3.349273e-004,6.379197e-005
1.989545e-004,6.687121e-005
4.483033e-005,7.643307e-005
-1.070249e-004,9.750156e-005
-2.421874e-004,1.231079e-004
-3.557951e-004,1.479039e-004
-4.506033e-004,1.681620e-004
-5.245051e-004,1.806411e-004
-5.794452e-004,1.876099e-004
-6.170443e-004,1.903650e-004
-6.356818e-004,1.929580e-004
-6.326026e-004,1.944166e-004
-6.009999e-004,1.937684e-004
-5.407116e-004,1.898788e-004
-4.645409e-004,1.824238e-004
-3.896668e-004,1.720516e-004
-3.251648e-004,1.607070e-004
-2.697385e-004,1.508211e-004
-2.204706e-004,1.425557e-004
-1.728234e-004,1.342904e-004
-1.216107e-004,1.253768e-004
-6.099833e-005,1.124116e-004
6.420843e-006,9.344993e-005
7.416415e-005,7.367795e-005
1.420695e-004,5.876794e-005
2.112714e-004,4.969229e-005
2.777182e-004,4.304761e-005
3.328204e-004,3.850978e-005
3.699334e-004,3.948217e-005
3.874365e-004,5.568870e-005
3.961880e-004,9.701536e-005
4.214702e-004,1.615174e-004
4.798138e-004,2.352571e-004
5.705704e-004,3.067279e-004
6.770474e-004,3.700955e-004
7.762314e-004,4.256839e-004
8.473782e-004,4.741415e-004
8.780085e-004,5.141716e-004
8.611537e-004,5.355643e-004
7.961654e-004,5.295678e-004
6.930918e-004,4.900239e-004
5.692738e-004,4.180668e-004
4.503179e-004,3.154794e-004
3.589129e-004,1.900409e-004
3.000832e-004,4.774750e-005
2.555152e-004,-1.079973e-004
1.931201e-004,-2.778417e-004
9.458438e-005,-4.502792e-004
-4.333321e-005,-6.120203e-004
-2.128535e-004,-7.560964e-004
-3.993907e-004,-8.815349e-004
-5.872243e-004,-9.794224e-004
-7.536653e-004,-1.037928e-003
-8.792660e-004,-1.044573e-003
-9.487920e-004,-9.933600e-004
-9.552746e-004,-8.910968e-004
-9.084377e-004,-7.588515e-004
-8.199501e-004,-6.206098e-004
-7.110422e-004,-4.980884e-004
-5.990551e-004,-3.992286e-004
-4.907955e-004,-3.237062e-004
-3.870737e-004,-2.671454e-004
-2.747625e-004,-2.216050e-004
-1.357104e-004,-1.776853e-004
3.348575e-005,-1.313347e-004
2.096508e-004,-8.368748e-005
3.618301e-004,-3.441962e-005
4.752759e-004,1.290346e-005
5.504743e-004,5.682316e-005
5.984457e-004,9.993253e-005
6.331276e-004,1.446626e-004
6.657028e-004,1.876099e-004
6.994124e-004,2.268297e-004
7.297186e-004,2.623220e-004
7.467355e-004,2.973281e-004
7.371737e-004,3.354135e-004
6.934160e-004,3.777126e-004
6.154625e-004,4.226047e-004
5.101200e-004,4.707381e-004
3.905157e-004,5.217887e-004
2.670219e-004,5.710566e-004
1.435281e-004,6.133557e-004
1.938607e-005,6.465791e-004
-1.092938e-004,6.705648e-004
-2.423494e-004,6.851507e-004
-3.742705e-004,6.924436e-004
-5.019780e-004,6.950366e-004
-6.272545e-004,6.892023e-004
-7.486413e-004,6.744543e-004
-8.479874e-004,6.520892e-004
-8.969311e-004,6.266450e-004
-8.753765e-004,5.994180e-004
-7.786234e-004,5.697600e-004
-6.193133e-004,5.394538e-004
-4.237005e-004,5.149820e-004
-2.316531e-004,4.999099e-004
-8.465986e-005,4.974789e-004
-7.354709e-006,5.144958e-004
-3.303076e-006,5.639257e-004
-5.370539e-005,6.639201e-004
-1.279313e-004,8.235546e-004
-2.016710e-004,1.032295e-003
-2.605007e-004,1.262428e-003
-2.951827e-004,1.483324e-003
-3.008550e-004,1.678289e-003
-2.749245e-004,1.832737e-003
-2.173914e-004,1.932732e-003
-1.347380e-004,1.957042e-003
-3.879538e-005,1.885895e-003
5.763349e-005,1.700492e-003
1.482280e-004,1.392891e-003
2.292607e-004,9.703859e-004
2.958695e-004,4.452938e-004
3.503235e-004,-1.723372e-004
4.010500e-004,-8.580354e-004
4.553419e-004,-1.569502e-003
5.104441e-004,-2.248232e-003
5.606844e-004,-2.824375e-003
5.995801e-004,-3.237967e-003
6.229175e-004,-3.463725e-003
6.271312e-004,-3.521096e-003
6.156246e-004,-3.460322e-003
5.940699e-004,-3.340231e-003
5.614947e-004,-3.197937e-003
5.106062e-004,-3.033926e-003
4.446456e-004,-2.823241e-003
3.744712e-004,-2.543192e-003
3.062417e-004,-2.192482e-003
2.401191e-004,-1.789101e-003
1.790204e-004,-1.363031e-003
1.203528e-004,-9.432817e-004
6.395404e-005,-5.502735e-004
2.165498e-005,-1.969711e-004
1.338965e-005,1.114392e-004
4.450620e-005,3.709058e-004
9.782569e-005,5.827253e-004
1.487142e-004,7.465734e-004
1.816135e-004,8.551573e-004
1.955511e-004,9.023183e-004
1.965235e-004,8.924323e-004
1.989545e-004,8.483506e-004
2.260194e-004,8.054032e-004
3.023522e-004,7.966516e-004
4.334631e-004,8.402473e-004
5.898562e-004,9.379727e-004
7.198326e-004,1.078808e-003
7.738004e-004,1.242170e-003
7.274497e-004,1.401967e-003
5.898562e-004,1.535347e-003
3.837090e-004,1.620917e-003
1.349386e-004,1.643606e-003
-1.355484e-004,1.597580e-003
-4.104111e-004,1.497099e-003
-6.659881e-004,1.363881e-003
-8.794281e-004,1.221749e-003
-1.027232e-003,1.084804e-003
-1.083792e-003,9.564483e-004
-1.029825e-003,8.305234e-004
-8.748902e-004,7.020054e-004
-6.624226e-004,5.742979e-004
-4.705373e-004,4.529109e-004
-3.788084e-004,3.457857e-004
-4.180282e-004,2.603772e-004
-5.564319e-004,2.005751e-004
-7.290315e-004,1.615174e-004
-8.569010e-004,1.321835e-004
-8.750523e-004,1.064152e-004
-7.651721e-004,8.097089e-005
-5.572423e-004,5.730935e-005
-3.112272e-004,4.077869e-005
-9.276313e-005,3.526847e-005
5.552663e-005,4.061663e-005
1.250527e-004,4.969229e-005
1.347766e-004,5.552663e-005
1.109530e-004,5.860588e-005
7.529860e-005,5.925414e-005
3.769945e-005,5.212327e-005
-1.682422e-006,3.867184e-005
-4.009191e-005,2.505836e-005
-7.315322e-005,1.825161e-005
-9.243900e-005,1.582063e-005
-8.368748e-005,1.241726e-005
-3.571614e-005,-2.238346e-007
4.807163e-005,-2.226472e-005
1.453108e-004,-5.176061e-005
2.245608e-004,-8.547019e-005
2.699391e-004,-1.173971e-004
2.819319e-004,-1.408965e-004
2.736666e-004,-1.556445e-004
2.508154e-004,-1.640719e-004
2.205092e-004,-1.721751e-004
1.916615e-004,-1.804405e-004
1.714034e-004,-1.872472e-004
1.615174e-004,-1.964849e-004
1.628139e-004,-2.112329e-004
1.723757e-004,-2.329496e-004
1.817755e-004,-2.626076e-004
1.842065e-004,-2.959930e-004
1.754550e-004,-3.275957e-004
1.590864e-004,-3.532020e-004
1.436902e-004,-3.648708e-004
1.415833e-004,-3.603330e-004
1.590864e-004,-3.557951e-004
1.953890e-004,-3.839945e-004
2.469258e-004,-4.465517e-004
3.081865e-004,-5.095950e-004
3.713920e-004,-5.193190e-004
4.258460e-004,-4.408794e-004
4.610142e-004,-2.927517e-004
4.631210e-004,-1.318209e-004
4.256839e-004,-1.788895e-005
3.467581e-004,8.851824e-006
2.352571e-004,-5.581224e-005
1.031738e-004,-1.812508e-004
-2.745081e-005,-3.256510e-004
-1.352242e-004,-4.572480e-004
-2.167431e-004,-5.554595e-004
-2.812451e-004,-6.105618e-004
-3.363473e-004,-6.180168e-004
-3.747568e-004,-5.826865e-004
-3.856151e-004,-5.125122e-004
-3.585502e-004,-4.110594e-004
-2.971275e-004,-2.802727e-004
-2.185258e-004,-1.321450e-004
-1.378173e-004,9.824215e-006
-6.764301e-005,1.221355e-004
-1.983374e-005,1.910133e-004
-2.654814e-006,2.185644e-004
-1.643037e-005,2.214815e-004
-5.224680e-005,2.263435e-004
-9.843541e-005,2.553532e-004
-1.480274e-004,3.114278e-004
-1.977815e-004,3.756057e-004
-2.499665e-004,4.230909e-004
-3.070135e-004,4.392974e-004
-3.707051e-004,4.255218e-004
-4.350450e-004,3.882468e-004
-4.823681e-004,3.350894e-004
-4.979264e-004,2.704253e-004
-4.809095e-004,2.057612e-004
-4.384484e-004,1.556830e-004
-3.784843e-004,1.338042e-004
-3.062031e-004,1.427178e-004
-2.233878e-004,1.752929e-004
-1.203142e-004,2.128921e-004
1.501031e-005,2.380122e-004
1.782101e-004,2.384984e-004
3.525924e-004,2.184023e-004
5.204921e-004,1.923098e-004
6.695924e-004,1.728619e-004
7.924379e-004,1.650828e-004
8.801154e-004,1.688103e-004
9.224145e-004,1.791825e-004
9.267902e-004,1.887444e-004
9.180387e-004,1.895547e-004
9.149595e-004,1.796687e-004
9.162560e-004,1.618415e-004
9.045873e-004,1.409351e-004
8.674743e-004,1.213252e-004
7.956792e-004,1.005808e-004
6.785059e-004,7.497447e-005
5.067165e-004,4.094075e-005
2.777182e-004,5.864920e-007
-5.571990e-006,-4.187462e-005
-3.237062e-004,-7.931171e-005
-6.505919e-004,-1.041077e-004
-9.554367e-004,-1.136696e-004
-1.200966e-003,-1.086455e-004
-1.351848e-003,-9.600444e-005
-1.380210e-003,-8.206682e-005
-1.286860e-003,-7.558420e-005
-1.099675e-003,-8.093236e-005
-8.604664e-004,-9.438378e-005
-6.136410e-004,-1.117248e-004
-3.937184e-004,-1.298761e-004
-2.240360e-004,-1.430034e-004
-1.128592e-004,-1.502963e-004
-4.932962e-005,-1.511067e-004
-1.124428e-005,-1.477033e-004
2.748934e-005,-1.470550e-004
8.858796e-005,-1.536997e-004
1.808031e-004,-1.627754e-004
2.921420e-004,-1.700683e-004
4.041292e-004,-1.724993e-004
4.926169e-004,-1.697442e-004
5.389676e-004,-1.629374e-004
5.430193e-004,-1.512687e-004
5.206542e-004,-1.376552e-004
4.884033e-004,-1.233935e-004
4.600418e-004,-1.123730e-004
4.389733e-004,-1.071869e-004
4.235771e-004,-1.076731e-004
4.107739e-004,-1.123730e-004
3.997535e-004,-1.182074e-004
3.926226e-004,-1.186936e-004
3.856538e-004,-1.057284e-004
3.781987e-004,-7.688073e-005
3.678266e-004,-3.587821e-005
3.584268e-004,2.100672e-005
3.499994e-004,9.766362e-005
3.430306e-004,1.889064e-004
3.394651e-004,2.842008e-004
3.349273e-004,3.775505e-004
3.221241e-004,4.662003e-004
3.030004e-004,5.516087e-004
2.825802e-004,6.318311e-004
2.658874e-004,7.007089e-004
2.538946e-004,7.475458e-004
2.391467e-004,7.626179e-004
2.192126e-004,7.402529e-004
1.945787e-004,6.815852e-004
1.607070e-004,5.922872e-004
1.051186e-004,4.764104e-004
1.128280e-005,3.336308e-004
-1.290658e-004,1.654069e-004
-2.979378e-004,-2.048200e-005
-4.591928e-004,-2.092881e-004
-5.812279e-004,-3.752429e-004
-6.467023e-004,-4.878783e-004
-6.552918e-004,-5.176983e-004
-6.173685e-004,-4.614617e-004
-5.517320e-004,-3.386162e-004
-4.791268e-004,-1.746061e-004
-4.021458e-004,1.209313e-005
-2.971275e-004,2.049509e-004
-1.242038e-004,3.853296e-004
1.362352e-004,5.371849e-004
4.571246e-004,6.430136e-004
7.783383e-004,6.853127e-004
1.046395e-003,6.584098e-004
1.235201e-003,5.637637e-004
1.349133e-003,4.099636e-004
1.397915e-003,2.060853e-004
1.390460e-003,-3.717473e-005
1.338275e-003,-3.036101e-004
1.245897e-003,-5.797693e-004
1.116407e-003,-8.484736e-004
9.527208e-004,-1.083792e-003
7.584042e-004,-1.259471e-003
5.373470e-004,-1.364165e-003
2.903593e-004,-1.398037e-003
2.376183e-005,-1.365948e-003
-2.476975e-004,-1.270168e-003
-5.079744e-004,-1.114909e-003
-7.413484e-004,-9.094102e-004
-9.387439e-004,-6.721465e-004
-1.095137e-003,-4.282383e-004
-1.210852e-003,-1.969711e-004
-1.293181e-003,1.063454e-005
-1.352335e-003,1.897167e-004
-1.393661e-003,3.360618e-004
-1.410678e-003,4.496696e-004
-1.388313e-003,5.292437e-004
-1.317004e-003,5.778633e-004
-1.191404e-003,6.020110e-004
-1.020425e-003,6.118971e-004
-8.295119e-004,6.110868e-004
-6.452437e-004,5.987698e-004
-4.875542e-004,5.757565e-004
-3.692465e-004,5.465847e-004
-2.969654e-004,5.052580e-004
-2.582318e-004,4.410801e-004
-2.334358e-004,3.538890e-004
-2.092881e-004,2.662116e-004
-1.806025e-004,2.054371e-004
-1.459206e-004,1.825859e-004
-9.681477e-005,1.908512e-004
-1.075808e-005,2.172679e-004
1.315353e-004,2.485465e-004
3.156415e-004,2.673460e-004
4.978030e-004,2.650771e-004
6.357207e-004,2.436845e-004
7.117294e-004,2.099749e-004
7.282600e-004,1.701068e-004
7.008709e-004,1.307250e-004
6.470652e-004,9.620504e-005
5.919630e-004,6.946425e-005
5.472330e-004,5.212327e-005
5.076890e-004,4.320967e-005
4.598797e-004,4.061663e-005
4.010500e-004,4.515445e-005
3.451374e-004,6.103686e-005
3.099692e-004,8.745350e-005
2.973281e-004,1.197045e-004
2.887387e-004,1.581140e-004
2.490327e-004,1.974959e-004
1.466074e-004,2.305572e-004
-2.890940e-005,2.525981e-004
-2.559629e-004,2.647530e-004
-4.951713e-004,2.707494e-004
-6.865704e-004,2.769079e-004
-7.791097e-004,2.851732e-004
-7.489655e-004,2.898731e-004
-6.029447e-004,2.851732e-004
-3.694086e-004,2.715597e-004
-1.028112e-004,2.517878e-004
1.360731e-004,2.341226e-004
3.026763e-004,2.218057e-004
3.828986e-004,2.138645e-004
3.814401e-004,2.114335e-004
3.158036e-004,2.112714e-004
2.162954e-004,2.059233e-004
1.049566e-004,1.916615e-004
-4.275467e-006,1.691344e-004
-1.032974e-004,1.440143e-004
-1.877334e-004,1.195424e-004
-2.543422e-004,1.000946e-004
-3.006929e-004,9.053275e-005
-3.262992e-004,9.377406e-005
-3.290543e-004,1.091703e-004
-3.006929e-004,1.286181e-004
-2.344082e-004,1.443384e-004
-1.319829e-004,1.498487e-004
-1.399939e-005,1.430419e-004
9.717743e-005,1.273216e-004
1.859892e-004,1.077117e-004
2.451431e-004,8.356394e-005
2.775562e-004,5.601284e-005
2.880904e-004,3.073064e-005
2.824181e-004,2.068259e-005
2.713977e-004,3.705119e-005
2.718839e-004,8.226741e-005
2.947351e-004,1.513072e-004
3.354135e-004,2.321778e-004
3.739850e-004,3.089969e-004
3.867882e-004,3.668542e-004
3.623164e-004,4.007258e-004
3.038107e-004,4.107739e-004
2.303951e-004,4.015361e-004
1.615174e-004,3.751195e-004
1.070634e-004,3.289309e-004
6.589881e-005,2.598910e-004
3.380988e-005,1.634622e-004
1.031041e-005,3.996837e-005
-2.492749e-006,-1.107524e-004
-6.220252e-006,-2.851347e-004
-4.437533e-006,-4.732924e-004
-1.358292e-006,-6.577228e-004
-7.678839e-006,-8.265948e-004
-3.134038e-005,-9.727777e-004
-6.796714e-005,-1.087844e-003
-1.023250e-004,-1.166122e-003
-1.264727e-004,-1.204045e-003
-1.378173e-004,-1.201452e-003
-1.355484e-004,-1.161098e-003
-1.232314e-004,-1.087682e-003
-9.989401e-005,-9.909290e-004
-6.618442e-005,-8.829935e-004
-2.599222e-005,-7.734374e-004
1.614476e-005,-6.640433e-004
6.055066e-005,-5.611319e-004
1.065772e-004,-4.719959e-004
1.511452e-004,-4.011734e-004
1.858272e-004,-3.459091e-004
2.052750e-004,-2.958309e-004
2.088404e-004,-2.436459e-004
2.030061e-004,-1.893541e-004
1.974959e-004,-1.327933e-004
1.984683e-004,-7.542214e-005
2.043026e-004,-1.740276e-005
2.102990e-004,3.980630e-005
2.073819e-004,9.344993e-005
1.880961e-004,1.393144e-004
1.485521e-004,1.743205e-004
9.101894e-005,1.986303e-004
2.035846e-005,2.158093e-004
-5.402952e-005,2.297469e-004
-1.267968e-004,2.451431e-004
-1.943781e-004,2.676702e-004
-2.528836e-004,3.002453e-004
-3.034480e-004,3.412479e-004
-3.447747e-004,3.846814e-004
-3.755671e-004,4.239012e-004
-3.911253e-004,4.530729e-004
-3.873979e-004,4.704139e-004
-3.608192e-004,4.785172e-004
-3.078238e-004,4.832171e-004
-2.382978e-004,4.888894e-004
-1.577513e-004,4.926169e-004
-6.893953e-005,4.919686e-004
1.971020e-005,4.853240e-004
9.588091e-005,4.710622e-004
1.445005e-004,4.498317e-004
1.607070e-004,4.240633e-004
1.587623e-004,3.937570e-004
1.598967e-004,3.581026e-004
1.759412e-004,3.185587e-004
2.038164e-004,2.845250e-004
2.302331e-004,2.592428e-004
2.449810e-004,2.334744e-004
2.491947e-004,1.994406e-004
2.524360e-004,1.545486e-004
2.678322e-004,1.038221e-004
3.021901e-004,5.406805e-005
3.472443e-004,1.193106e-005
3.840331e-004,-2.161646e-005
4.016982e-004,-4.738484e-005
3.987811e-004,-6.132246e-005
3.746333e-004,-5.208474e-005
3.344411e-004,-1.156841e-005
2.885766e-004,4.904402e-005
2.469258e-004,1.146805e-004
2.055991e-004,1.710792e-004
1.547106e-004,2.055991e-004
8.388807e-005,2.143507e-004
-7.840905e-006,1.960373e-004
-1.021629e-004,1.597346e-004
-1.716889e-004,1.200286e-004
-1.959987e-004,8.988449e-005
-1.707166e-004,7.384002e-005
-1.023250e-004,5.520250e-005
-1.318906e-005,9.338019e-006
6.800567e-005,-6.423963e-005
1.221355e-004,-1.379794e-004
1.467694e-004,-1.791439e-004
1.436902e-004,-1.712027e-004
1.156529e-004,-1.143178e-004
8.437427e-005,-1.237873e-005
6.849186e-005,1.357490e-004
7.448828e-005,3.167760e-004
9.896015e-005,5.012064e-004
1.329939e-004,6.528996e-004
1.641104e-004,7.464114e-004
1.808031e-004,7.788245e-004
1.739964e-004,7.613214e-004
1.457970e-004,7.084881e-004
1.094944e-004,6.256726e-004
7.481241e-005,5.042856e-004
3.883391e-005,3.363859e-004
-2.168618e-006,1.326697e-004
-5.127441e-005,-7.558420e-005
-1.073490e-004,-2.634179e-004
-1.682856e-004,-4.423380e-004
-2.266291e-004,-6.400577e-004
-2.705488e-004,-8.590078e-004
-2.927517e-004,-1.068396e-003
-2.869174e-004,-1.223979e-003
-2.530457e-004,-1.281674e-003
-2.039399e-004,-1.223169e-003
-1.626133e-004,-1.058996e-003
-1.420310e-004,-8.129813e-004
-1.515928e-004,-5.134846e-004
-1.848162e-004,-1.968091e-004
-2.193361e-004,1.002567e-004
-2.371633e-004,3.537269e-004
-2.282497e-004,5.592257e-004
-1.981056e-004,7.177258e-004
-1.545100e-004,8.162616e-004
-1.028112e-004,8.365198e-004
-5.030202e-005,7.703970e-004
-5.571990e-006,6.328035e-004
2.748934e-005,4.589073e-004
4.904402e-005,2.822560e-004
6.103686e-005,1.172735e-004
6.978839e-005,-3.377136e-005
8.340187e-005,-1.780095e-004
1.080358e-004,-3.279199e-004
1.469315e-004,-4.985746e-004
1.992786e-004,-6.899738e-004
2.569738e-004,-8.865589e-004
3.158036e-004,-1.065641e-003
3.747954e-004,-1.203559e-003
4.341113e-004,-1.282971e-003
4.884033e-004,-1.300798e-003
5.332953e-004,-1.262064e-003
5.687877e-004,-1.180059e-003
5.864528e-004,-1.065155e-003
5.755944e-004,-9.272373e-004
5.331332e-004,-7.747339e-004
4.640934e-004,-6.129927e-004
3.699334e-004,-4.454172e-004
2.472499e-004,-2.760590e-004
9.652917e-005,-1.081593e-004
-6.699475e-005,5.568870e-005
-2.092881e-004,2.122438e-004
-2.901587e-004,3.577785e-004
-2.903207e-004,4.905101e-004
-2.243602e-004,6.063868e-004
-1.256624e-004,6.994124e-004
-2.858527e-005,7.650489e-004
4.434413e-005,8.083204e-004
8.502253e-005,8.366818e-004
1.000946e-004,8.595330e-004
1.005808e-004,8.804395e-004
9.928428e-005,9.003736e-004
9.701536e-005,9.131767e-004
7.594687e-005,9.133389e-004
8.851824e-006,8.969702e-004
-1.154523e-004,8.648812e-004
-2.914552e-004,8.178822e-004
-5.095950e-004,7.622938e-004
-7.539895e-004,7.083260e-004
-1.008918e-003,6.624615e-004
-1.248613e-003,6.263209e-004
-1.439850e-003,5.935837e-004
-1.540654e-003,5.572810e-004
-1.517155e-003,5.136854e-004
-1.359303e-003,4.626348e-004
-1.095785e-003,4.076947e-004
-7.826751e-004,3.524304e-004
-4.741028e-004,3.002453e-004
-2.122053e-004,2.688046e-004
-2.583016e-005,2.879283e-004
7.546067e-005,3.668542e-004
1.073875e-004,4.825689e-004
1.004187e-004,5.864528e-004
8.939829e-005,6.349103e-004
1.059290e-004,6.075213e-004
1.696206e-004,5.135234e-004
2.829043e-004,3.773884e-004
4.281149e-004,2.247229e-004
5.695980e-004,7.108491e-005
6.828817e-004,-7.671866e-005
7.605111e-004,-2.194982e-004
8.058894e-004,-3.617915e-004
8.198270e-004,-5.005194e-004
8.073480e-004,-6.175305e-004
7.767176e-004,-6.902979e-004
7.316634e-004,-7.089354e-004
6.700786e-004,-6.760361e-004
5.892079e-004,-6.019723e-004
4.835413e-004,-4.964678e-004
3.516200e-004,-3.656811e-004
2.021958e-004,-2.175534e-004
4.337174e-005,-5.986387e-005
-1.131834e-004,9.490851e-005
-2.528836e-004,2.373639e-004
-3.614674e-004,3.593992e-004
-4.308313e-004,4.556660e-004
-4.604893e-004,5.182233e-004
-4.587066e-004,5.418848e-004
-4.287245e-004,5.277851e-004
-3.679500e-004,4.757621e-004
-2.741142e-004,3.838710e-004
-1.473791e-004,2.503292e-004
6.420843e-006,8.664318e-005
1.709172e-004,-8.465986e-005
3.174242e-004,-2.462390e-004
4.148255e-004,-3.914495e-004
4.537212e-004,-5.227224e-004
4.456179e-004,-6.445955e-004
4.091532e-004,-7.554481e-004
3.619922e-004,-8.466908e-004
3.195311e-004,-9.069791e-004
2.911697e-004,-9.238339e-004
2.793389e-004,-8.972552e-004
2.775562e-004,-8.338877e-004
2.751252e-004,-7.444277e-004
2.637806e-004,-6.381128e-004
2.584324e-004,-5.228845e-004
2.905214e-004,-4.039285e-004
3.715541e-004,-2.849726e-004
4.809482e-004,-1.749302e-004
5.799701e-004,-7.931171e-005
6.370172e-004,1.720949e-006
6.412309e-004,7.124698e-005
6.021731e-004,1.304008e-004
5.423710e-004,1.816135e-004
4.830550e-004,2.250470e-004
4.271425e-004,2.608634e-004
3.618301e-004,2.885766e-004
2.764217e-004,3.051073e-004
1.710792e-004,3.145071e-004
5.828175e-005,3.201794e-004
-3.782299e-005,3.190449e-004
-1.042698e-004,3.091589e-004
-1.481895e-004,2.913317e-004
-1.951884e-004,2.712356e-004
-2.760590e-004,2.555152e-004
-4.063595e-004,2.472499e-004
-5.765280e-004,2.428742e-004
-7.640376e-004,2.417397e-004
-9.239960e-004,2.428742e-004
-9.930359e-004,2.446569e-004
-9.366371e-004,2.431983e-004
-7.612825e-004,2.336365e-004
-5.126743e-004,2.154851e-004
-2.459149e-004,1.911753e-004
-1.140634e-005,1.637863e-004
1.545486e-004,1.321835e-004
2.384984e-004,9.539470e-005
2.503292e-004,5.617490e-005
2.161334e-004,1.776542e-005
1.611932e-004,-1.821308e-005
1.018773e-004,-5.111234e-005
4.790957e-005,-7.833932e-005
3.989864e-006,-9.843541e-005
-2.096820e-005,-1.091317e-004
-1.983374e-005,-1.125351e-004
4.476060e-006,-1.177212e-004
4.256141e-005,-1.289037e-004
8.210535e-005,-1.430034e-004
1.093323e-004,-1.525652e-004
1.213252e-004,-1.551583e-004
1.185701e-004,-1.499722e-004
1.081979e-004,-1.378173e-004
9.798775e-005,-1.217728e-004
9.896015e-005,-1.078352e-004
1.130598e-004,-9.908367e-005
1.294284e-004,-9.568031e-005
1.360731e-004,-8.903562e-005
1.265113e-004,-7.056019e-005
1.017153e-004,-3.895745e-005
6.897806e-005,-4.275467e-006
3.413401e-005,2.570662e-005
-7.100305e-007,4.596478e-005
-3.069211e-005,6.119892e-005
-5.257093e-005,7.675720e-005
-6.893953e-005,9.555677e-005
-8.271508e-005,1.211631e-004
-8.935975e-005,1.464453e-004
-8.303922e-005,1.548727e-004
-6.602235e-005,1.404489e-004
-4.900550e-005,1.185701e-004
-5.289507e-005,1.107909e-004
-8.676672e-005,1.216493e-004
-1.446240e-004,1.399627e-004
-2.003745e-004,1.506590e-004
-2.276015e-004,1.454729e-004
-2.201465e-004,1.252147e-004
-1.921092e-004,9.604298e-005
-1.588858e-004,6.751948e-005
-1.258245e-004,5.082674e-005
-9.486997e-005,5.666109e-005
-7.104638e-005,9.215340e-005
-5.240886e-005,1.545486e-004
-3.782299e-005,2.292607e-004
-1.950961e-005,2.945730e-004
6.907040e-006,3.380065e-004
3.883391e-005,3.662059e-004
7.481241e-005,3.884089e-004
1.201907e-004,4.067223e-004
1.801549e-004,4.187151e-004
2.480603e-004,4.185530e-004
3.102934e-004,4.042913e-004
3.490270e-004,3.746333e-004
3.517821e-004,3.331446e-004
3.146691e-004,2.859836e-004
2.477361e-004,2.372019e-004
1.668655e-004,1.903650e-004
9.037068e-005,1.467694e-004
3.802358e-005,1.057669e-004
3.008238e-005,6.362991e-005
7.578480e-005,1.938607e-005
1.573037e-004,-3.150244e-005
2.490327e-004,-8.887356e-005
3.255275e-004,-1.481895e-004
3.725265e-004,-2.018331e-004
3.866261e-004,-2.412149e-004
3.726885e-004,-2.635799e-004
3.370341e-004,-2.687660e-004
2.806354e-004,-2.616352e-004
2.036544e-004,-2.455907e-004
1.030118e-004,-2.253326e-004
-2.210265e-005,-2.084778e-004
-1.692580e-004,-1.987538e-004
-3.298647e-004,-1.971332e-004
-4.857715e-004,-1.992400e-004
-6.129927e-004,-2.011848e-004
-6.930530e-004,-1.989159e-004
-7.170386e-004,-1.908126e-004
-6.891634e-004,-1.828714e-004
-6.249856e-004,-1.802784e-004
-5.424943e-004,-1.848162e-004
-4.582204e-004,-1.940539e-004
-3.713534e-004,-2.089640e-004
-2.731418e-004,-2.264670e-004
-1.569410e-004,-2.421874e-004
-2.955766e-005,-2.504527e-004
8.761557e-005,-2.452666e-004
1.710792e-004,-2.290601e-004
2.133783e-004,-2.078295e-004
2.208333e-004,-1.838438e-004
2.106232e-004,-1.574272e-004
1.979821e-004,-1.232314e-004
1.949028e-004,-7.623246e-005
2.007372e-004,-1.691656e-005
2.064095e-004,4.126489e-005
2.028440e-004,8.259155e-005
1.874478e-004,1.005808e-004
1.641104e-004,9.182927e-005
1.402868e-004,6.525056e-005
1.192183e-004,3.737532e-005
1.083599e-004,2.748934e-005
1.104668e-004,3.170304e-005
1.224596e-004,4.790957e-005
1.368834e-004,9.604298e-005
1.500107e-004,1.940925e-004
1.498487e-004,3.344411e-004
1.237561e-004,4.931031e-004
7.254349e-005,6.550064e-004
9.500085e-006,8.165857e-004
-4.722278e-005,9.637412e-004
-8.433573e-005,1.079456e-003
-9.324933e-005,1.151251e-003
-7.331530e-005,1.169564e-003
-3.360929e-005,1.124834e-003
1.193106e-005,1.000530e-003
4.790957e-005,7.783383e-004
6.379197e-005,4.516144e-004
5.730935e-005,4.142696e-005
3.478228e-005,-3.961493e-004
1.436204e-005,-7.988816e-004
1.144487e-005,-1.123823e-003
2.862379e-005,-1.348283e-003
5.601284e-005,-1.463511e-003
8.826383e-005,-1.474532e-003
1.226217e-004,-1.401602e-003
1.577899e-004,-1.274057e-003
1.966855e-004,-1.120581e-003
2.384984e-004,-9.624055e-004
2.765838e-004,-8.103882e-004
3.013798e-004,-6.739292e-004
3.068900e-004,-5.578905e-004
2.914938e-004,-4.596790e-004
2.650771e-004,-3.705430e-004
2.342847e-004,-2.830278e-004
2.081922e-004,-1.927574e-004
1.945787e-004,-1.029732e-004
2.034923e-004,-1.399939e-005
2.352571e-004,6.914012e-005
2.717218e-004,1.372076e-004
2.961937e-004,1.851789e-004
3.030004e-004,2.149989e-004
2.905214e-004,2.354192e-004
2.608634e-004,2.493568e-004
2.083542e-004,2.613496e-004
1.252147e-004,2.782044e-004
1.679302e-005,3.051073e-004
-1.028112e-004,3.448133e-004
-2.198223e-004,3.960259e-004
-3.198166e-004,4.566384e-004
-3.698948e-004,5.227611e-004
-3.425058e-004,5.858046e-004
-2.297083e-004,6.329655e-004
-4.268495e-005,6.593822e-004
1.905271e-004,6.676476e-004
4.320045e-004,6.634339e-004
6.619753e-004,6.504686e-004
8.656915e-004,6.315070e-004
1.028243e-003,6.050903e-004
1.135531e-003,5.704083e-004
1.178316e-003,5.260024e-004
1.158706e-003,4.689553e-004
1.088856e-003,3.989431e-004
9.749237e-004,3.269861e-004
8.032963e-004,2.654013e-004
5.590637e-004,2.184023e-004
2.419018e-004,1.838824e-004
-1.332795e-004,1.548727e-004
-5.421702e-004,1.269974e-004
-9.565711e-004,1.000946e-004
-1.352497e-003,7.076078e-005
-1.719575e-003,4.077869e-005
-2.041923e-003,1.679302e-005
-2.279187e-003,6.258778e-006
-2.373833e-003,7.717366e-006
-2.276269e-003,1.987227e-005
-1.986820e-003,3.867184e-005
-1.570961e-003,5.779555e-005
-1.122040e-003,7.043665e-005
-7.246558e-004,7.140904e-005
-4.327761e-004,6.281957e-005
-2.562870e-004,4.758544e-005
-1.671511e-004,3.186510e-005
-1.242038e-004,2.343770e-005
-9.324933e-005,2.408596e-005
-5.532604e-005,3.202716e-005
-1.196227e-006,4.045456e-005
6.703327e-005,4.677511e-005
1.354248e-004,5.098881e-005
1.833962e-004,5.293359e-005
1.976579e-004,5.536457e-005
1.780480e-004,6.152305e-005
1.378558e-004,7.059871e-005
9.296373e-005,8.016057e-005
5.649903e-005,8.826383e-005
3.656499e-005,9.134307e-005
4.402000e-005,9.458438e-005
9.588091e-005,1.020394e-004
1.961994e-004,1.120874e-004
3.371962e-004,1.216493e-004
4.960203e-004,1.269974e-004
6.459308e-004,1.274836e-004
7.593766e-004,1.247285e-004
8.323060e-004,1.179218e-004
8.818981e-004,1.022015e-004
9.194973e-004,7.756752e-005
9.405658e-004,5.293359e-005
9.225765e-004,3.429608e-005
8.374922e-004,2.343770e-005
6.820714e-004,2.376183e-005
4.874308e-004,4.077869e-005
3.034866e-004,7.610894e-005
1.723757e-004,1.352628e-004
1.151667e-004,2.172679e-004
1.201907e-004,3.138588e-004
1.526038e-004,4.149876e-004
1.697827e-004,5.204921e-004
1.402868e-004,6.319932e-004
6.184718e-005,7.433321e-004
-3.976777e-005,8.323060e-004
-1.327933e-004,8.692570e-004
-1.961608e-004,8.324682e-004
-2.191741e-004,7.211292e-004
-1.942160e-004,5.540397e-004
-1.230693e-004,3.631267e-004
-1.821308e-005,1.777239e-004
9.831188e-005,1.079661e-005
2.013854e-004,-1.459206e-004
2.778803e-004,-3.123616e-004
3.352514e-004,-4.977643e-004
3.887330e-004,-6.998597e-004
4.465904e-004,-9.089239e-004
5.096338e-004,-1.106157e-003
5.674912e-004,-1.271626e-003
6.020110e-004,-1.392041e-003
5.958526e-004,-1.459298e-003
5.418848e-004,-1.475666e-003
4.397836e-004,-1.448277e-003
2.955454e-004,-1.384586e-003
1.237561e-004,-1.291236e-003
-5.224680e-005,-1.172118e-003
-2.149604e-004,-1.028852e-003
-3.519055e-004,-8.667869e-004
-4.553032e-004,-6.980770e-004
-5.198052e-004,-5.350393e-004
-5.467080e-004,-3.864254e-004
-5.455735e-004,-2.472114e-004
-5.251534e-004,-1.159385e-004
-4.849611e-004,2.693341e-006
-4.097628e-004,9.750156e-005
-2.908069e-004,1.475797e-004
-1.397621e-004,1.446626e-004
1.176900e-005,1.034980e-004
1.300767e-004,4.888196e-005
1.936063e-004,5.772582e-006
1.979821e-004,-1.059602e-005
1.495245e-004,-3.858999e-007
6.362991e-005,2.619281e-005
-3.344723e-005,5.504044e-005
-1.136696e-004,7.254349e-005
-1.627754e-004,7.189524e-005
-1.781716e-004,6.136099e-005
-1.653684e-004,5.325772e-005
-1.383035e-004,5.649903e-005
-1.130213e-004,7.011252e-005
-9.794922e-005,9.085688e-005
-9.389759e-005,1.127357e-004
-8.595638e-005,1.286181e-004
-6.602235e-005,1.320215e-004
-3.911951e-005,1.195424e-004
-1.853722e-005,9.263960e-005
-7.030578e-006,5.811968e-005
1.234753e-006,2.927205e-005
1.630683e-005,2.165498e-005
4.531652e-005,4.515445e-005
8.502253e-005,9.474644e-005
1.210010e-004,1.592484e-004
1.412592e-004,2.271538e-004
1.513072e-004,2.890628e-004
1.723757e-004,3.346032e-004
2.167816e-004,3.621543e-004
2.798251e-004,3.790091e-004
3.440029e-004,4.002396e-004
3.926226e-004,4.417284e-004
4.182289e-004,5.013684e-004
4.334631e-004,5.514466e-004
4.702519e-004,5.733255e-004
5.426951e-004,5.710566e-004
6.334517e-004,5.556603e-004
7.011951e-004,5.435055e-004
7.039502e-004,5.537156e-004
6.177314e-004,5.968250e-004
4.452938e-004,6.616511e-004
2.127300e-004,7.287462e-004
-4.106429e-005,7.938966e-004
-2.715212e-004,8.609917e-004
-4.408794e-004,9.282488e-004
-5.305015e-004,9.760582e-004
-5.429805e-004,9.690893e-004
-5.079744e-004,8.796292e-004
-4.596790e-004,7.080019e-004
-4.188385e-004,4.858102e-004
-3.989045e-004,2.683184e-004
-4.092767e-004,1.075496e-004
-4.629203e-004,1.938607e-005
-5.710179e-004,-2.145439e-005
-7.235213e-004,-5.613637e-005
-8.873693e-004,-1.135075e-004
-1.021559e-003,-2.006986e-004
-1.070503e-003,-3.073376e-004
-9.797465e-004,-4.157593e-004
-7.369727e-004,-5.139708e-004
-3.802670e-004,-5.993792e-004
1.257933e-005,-6.721465e-004
3.613439e-004,-7.275729e-004
6.059006e-004,-7.572309e-004
7.233981e-004,-7.543136e-004
7.263153e-004,-7.225489e-004
6.396103e-004,-6.666363e-004
4.956961e-004,-5.886829e-004
3.172622e-004,-4.901472e-004
1.213252e-004,-3.823738e-004
-8.206682e-005,-2.835140e-004
-2.797865e-004,-2.084778e-004
-4.541688e-004,-1.590478e-004
-5.797693e-004,-1.305243e-004
-6.394094e-004,-1.133454e-004
-6.324406e-004,-9.956988e-005
-5.697213e-004,-8.433573e-005
-4.697270e-004,-6.910160e-005
-3.536883e-004,-5.451572e-005
-2.381357e-004,-4.284701e-005
-1.310105e-004,-3.377136e-005
-3.539201e-005,-3.020592e-005
5.471631e-005,-3.020592e-005
1.407730e-004,-3.101625e-005
2.198609e-004,-2.647842e-005
2.892249e-004,-1.335113e-005
3.425444e-004,8.203562e-006
3.723644e-004,3.996837e-005
3.796573e-004,8.194328e-005
3.715541e-004,1.331559e-004
3.568061e-004,1.820997e-004
3.422202e-004,2.219677e-004
3.318480e-004,2.504913e-004
3.224483e-004,2.726942e-004
3.112658e-004,2.973281e-004
3.000832e-004,3.242310e-004
2.940868e-004,3.459477e-004
2.973281e-004,3.527545e-004
3.065659e-004,3.396272e-004
3.143450e-004,3.132105e-004
3.096451e-004,2.853353e-004
2.892249e-004,2.626462e-004
2.619979e-004,2.521119e-004
2.422259e-004,2.516257e-004
2.399570e-004,2.540567e-004
2.534084e-004,2.540567e-004
2.710735e-004,2.501671e-004
2.798251e-004,2.419018e-004
2.720459e-004,2.279642e-004
2.487085e-004,2.159713e-004
2.198609e-004,2.088404e-004
1.950649e-004,2.072198e-004
1.788584e-004,2.075439e-004
1.705930e-004,2.099749e-004
1.668655e-004,2.252090e-004
1.633001e-004,2.582704e-004
1.608691e-004,3.021901e-004
1.590864e-004,3.401134e-004
1.560072e-004,3.524304e-004
1.496866e-004,3.318480e-004
1.415833e-004,2.851732e-004
1.347766e-004,2.266676e-004
1.279698e-004,1.717275e-004
1.210010e-004,1.307250e-004
1.145184e-004,1.093323e-004
1.124116e-004,1.099806e-004
1.080358e-004,1.316974e-004
9.409818e-005,1.673517e-004
7.189524e-005,2.073819e-004
4.969229e-005,2.451431e-004
2.975825e-005,2.822560e-004
1.031041e-005,3.205035e-004
-8.489166e-006,3.558337e-004
-3.020592e-005,3.796573e-004
-5.727083e-005,3.835469e-004
-8.563225e-005,3.558337e-004
-1.028112e-004,2.819319e-004
-9.081835e-005,1.568175e-004
-3.944364e-005,-6.058186e-006
4.628891e-005,-1.781716e-004
1.517934e-004,-3.379679e-004
2.564877e-004,-4.823681e-004
3.404375e-004,-6.193133e-004
3.986190e-004,-7.559343e-004
4.352458e-004,-8.852624e-004
4.555039e-004,-9.896324e-004
4.589073e-004,-1.052514e-003
4.448076e-004,-1.067262e-003
4.138531e-004,-1.036469e-003
3.752816e-004,-9.662951e-004
3.313618e-004,-8.692179e-004
2.702632e-004,-7.656582e-004
1.722137e-004,-6.750637e-004
2.473423e-005,-6.066722e-004
-1.640719e-004,-5.601594e-004
-3.754050e-004,-5.314739e-004
-5.943552e-004,-5.149432e-004
-8.082814e-004,-5.014918e-004
-1.006487e-003,-4.805854e-004
-1.176656e-003,-4.480103e-004
-1.295126e-003,-4.014975e-004
-1.334670e-003,-3.412093e-004
-1.275354e-003,-2.734659e-004
-1.115395e-003,-2.031296e-004
-8.776453e-004,-1.357104e-004
-6.040792e-004,-7.153257e-005
-3.452609e-004,-1.140634e-005
-1.355484e-004,4.531652e-005
1.290346e-005,1.030118e-004
1.054428e-004,1.644345e-004
1.555210e-004,2.269918e-004
1.757791e-004,2.840388e-004
1.748067e-004,3.362238e-004
1.603829e-004,3.845193e-004
1.445005e-004,4.313562e-004
1.355869e-004,4.762483e-004
1.316974e-004,5.149820e-004
1.281319e-004,5.409124e-004
1.253768e-004,5.524190e-004
1.169494e-004,5.538776e-004
8.534666e-005,5.482053e-004
1.954813e-005,5.354022e-004
-7.266703e-005,5.156302e-004
-1.571031e-004,4.872688e-004
-2.013469e-004,4.477248e-004
-1.896782e-004,4.036430e-004
-1.243659e-004,3.610198e-004
-2.664048e-005,3.282826e-004
7.562274e-005,3.127243e-004
1.629760e-004,3.148312e-004
2.300710e-004,3.274723e-004
2.790148e-004,3.414099e-004
3.179104e-004,3.459477e-004
3.521062e-004,3.342791e-004
3.853296e-004,3.093210e-004
4.222805e-004,2.798251e-004
4.655520e-004,2.569738e-004
5.075270e-004,2.466017e-004
5.337815e-004,2.474120e-004
5.315126e-004,2.508154e-004
5.003960e-004,2.480603e-004
4.495075e-004,2.349330e-004
3.935950e-004,2.075439e-004
3.495132e-004,1.650828e-004
3.282826e-004,1.107909e-004
3.284447e-004,4.790957e-005
3.248792e-004,-1.691656e-005
2.905214e-004,-7.218083e-005
2.171058e-004,-1.000561e-004
1.159770e-004,-9.422172e-005
8.527692e-006,-6.099833e-005
-7.995997e-005,-1.513384e-005
-1.387897e-004,2.748934e-005
-1.702304e-004,5.309566e-005
-1.835197e-004,5.925414e-005
-1.864369e-004,4.936815e-005
-1.833576e-004,3.380988e-005
-1.721751e-004,1.987227e-005
-1.596961e-004,9.338019e-006
-1.488377e-004,3.017472e-006
-1.384655e-004,-2.006553e-006
-1.266348e-004,-1.286493e-005
-1.099421e-004,-3.360929e-005
-8.433573e-005,-6.326724e-005
-5.257093e-005,-9.519411e-005
-2.145439e-005,-1.208004e-004
4.476060e-006,-1.345760e-004
2.278944e-005,-1.373311e-004
3.721326e-005,-1.319829e-004
5.001642e-005,-1.242038e-004
6.249545e-005,-1.169109e-004
7.675720e-005,-1.117248e-004
9.571884e-005,-1.109144e-004
1.120874e-004,-1.139937e-004
1.148425e-004,-1.169109e-004
9.847395e-005,-1.178833e-004
7.108491e-005,-1.173971e-004
4.013043e-005,-1.191798e-004
1.355172e-005,-1.235555e-004
-1.358292e-006,-1.316588e-004
-9.461558e-006,-1.415448e-004
-1.756482e-005,-1.472171e-004
-3.522994e-005,-1.365208e-004
-6.278104e-005,-8.190475e-005
-8.822530e-005,4.564065e-005
-1.021629e-004,2.373639e-004
-9.260107e-005,4.540453e-004
-2.566809e-005,6.418792e-004
1.534141e-004,7.627800e-004
4.613383e-004,8.070238e-004
8.477023e-004,7.909794e-004
1.215753e-003,7.360392e-004
1.466307e-003,6.538720e-004
1.543774e-003,5.533914e-004
1.460958e-003,4.396215e-004
1.278310e-003,3.164518e-004
1.065356e-003,1.851789e-004
8.754155e-004,4.580272e-005
7.235601e-004,-1.042698e-004
5.890459e-004,-2.642282e-004
4.357320e-004,-4.280762e-004
2.347709e-004,-5.864140e-004
-2.712668e-005,-7.291936e-004
-3.527159e-004,-8.507425e-004
-7.444277e-004,-9.500885e-004
-1.202910e-003,-1.025449e-003
-1.722816e-003,-1.068882e-003
-2.276594e-003,-1.067586e-003
-2.802010e-003,-1.019452e-003
-3.225002e-003,-9.322613e-004
-3.478149e-003,-8.173570e-004
-3.502459e-003,-6.894876e-004
-3.255957e-003,-5.570802e-004
-2.751446e-003,-4.296969e-004
-2.064936e-003,-3.177098e-004
-1.306146e-003,-2.251705e-004
-5.872243e-004,-1.491618e-004
5.864920e-007,-7.833932e-005
4.106118e-004,-4.113403e-006
6.457687e-004,7.610894e-005
7.446287e-004,1.563313e-004
7.595387e-004,2.313675e-004
7.394425e-004,2.978143e-004
7.208050e-004,3.535648e-004
7.221015e-004,3.979707e-004
7.407391e-004,4.320045e-004
7.653730e-004,4.566384e-004
7.853071e-004,4.746277e-004
7.938966e-004,4.885653e-004
7.903311e-004,5.000719e-004
7.770417e-004,5.122268e-004
7.585663e-004,5.290816e-004
7.392805e-004,5.517708e-004
7.178878e-004,5.747841e-004
6.893643e-004,5.908285e-004
6.584098e-004,5.974732e-004
6.324793e-004,5.956905e-004
6.165970e-004,5.973112e-004
6.063868e-004,6.349103e-004
5.947181e-004,7.457631e-004
5.760806e-004,9.288971e-004
5.457744e-004,1.136503e-003
5.026649e-004,1.311372e-003
4.558281e-004,1.403587e-003
4.141773e-004,1.392567e-003
3.820883e-004,1.302782e-003
3.566440e-004,1.177019e-003
3.389789e-004,1.045260e-003
3.274723e-004,9.115561e-004
3.167760e-004,7.606731e-004
3.028383e-004,5.718669e-004
2.880904e-004,3.271482e-004
2.741528e-004,9.013889e-006
2.594049e-004,-3.841565e-004
2.444948e-004,-8.293499e-004
2.278021e-004,-1.283457e-003
2.154851e-004,-1.697372e-003
2.188885e-004,-2.026851e-003
2.466017e-004,-2.240777e-003
3.070520e-004,-2.326672e-003
4.046154e-004,-2.290369e-003
5.243817e-004,-2.152289e-003
6.365310e-004,-1.945170e-003
7.131880e-004,-1.697210e-003
7.362012e-004,-1.426074e-003
7.034640e-004,-1.146998e-003
6.269692e-004,-8.752144e-004
5.268127e-004,-6.204477e-004
4.264942e-004,-3.920977e-004
3.443271e-004,-2.019951e-004
2.848491e-004,-5.727083e-005
2.376881e-004,4.369587e-005
1.803169e-004,1.085220e-004
9.231547e-005,1.477418e-004
-3.360929e-005,1.714034e-004
-1.916230e-004,1.939304e-004
-3.575778e-004,2.224539e-004
-4.987367e-004,2.530843e-004
-5.932208e-004,2.790148e-004
-6.411921e-004,2.970040e-004
-6.638812e-004,3.122381e-004
-6.935392e-004,3.383307e-004
-7.622549e-004,3.869503e-004
-8.800763e-004,4.606900e-004
-1.026907e-003,5.503122e-004
-1.167904e-003,6.410689e-004
-1.261578e-003,7.214533e-004
-1.274705e-003,7.836864e-004
-1.197724e-003,8.237166e-004
-1.045221e-003,8.444610e-004
-8.445840e-004,8.519160e-004
-6.280648e-004,8.506195e-004
-4.211074e-004,8.468920e-004
-2.404046e-004,8.412196e-004
-9.341139e-005,8.276062e-004
2.019640e-005,7.985964e-004
1.022015e-004,7.580801e-004
1.551968e-004,7.107570e-004
1.858272e-004,6.618132e-004
2.049509e-004,6.114109e-004
2.247229e-004,5.621430e-004
2.475741e-004,5.123889e-004
2.735045e-004,4.572867e-004
3.026763e-004,4.008879e-004
3.431926e-004,3.454615e-004
3.984569e-004,2.913317e-004
4.629590e-004,2.389846e-004
5.227611e-004,1.913374e-004
5.623050e-004,1.514693e-004
5.708945e-004,1.219734e-004
5.545259e-004,1.009049e-004
5.332953e-004,8.567078e-005
5.209784e-004,7.092284e-005
5.156302e-004,5.228533e-005
5.101200e-004,2.684107e-005
4.995857e-004,-2.816880e-006
4.833792e-004,-3.425755e-005
4.756001e-004,-6.375344e-005
4.856481e-004,-8.790117e-005
5.057442e-004,-1.057284e-004
5.269747e-004,-1.208004e-004
5.542018e-004,-1.373311e-004
5.945560e-004,-1.551583e-004
6.465791e-004,-1.744440e-004
6.947125e-004,-1.979435e-004
7.050846e-004,-2.259808e-004
6.366931e-004,-2.523975e-004
4.568005e-004,-2.724935e-004
1.650828e-004,-2.852967e-004
-2.112329e-004,-2.924276e-004
-6.291993e-004,-2.968033e-004
-1.035659e-003,-3.036101e-004
-1.392203e-003,-3.109030e-004
-1.674359e-003,-3.134961e-004
-1.865596e-003,-3.096065e-004
-1.947601e-003,-3.006929e-004
-1.910812e-003,-2.882139e-004
-1.766087e-003,-2.783279e-004
-1.539034e-003,-2.807589e-004
-1.264009e-003,-2.953447e-004
-9.672674e-004,-3.117133e-004
-6.624226e-004,-3.165753e-004
-3.687603e-004,-3.053928e-004
-1.096179e-004,-2.799486e-004
9.831188e-005,-2.499665e-004
2.490327e-004,-2.204706e-004
3.525924e-004,-1.927574e-004
4.274666e-004,-1.674752e-004
4.880791e-004,-1.455964e-004
5.365367e-004,-1.250141e-004
5.673291e-004,-1.026491e-004
5.764047e-004,-8.109443e-005
5.679773e-004,-5.905355e-005
5.564707e-004,-3.944364e-005
5.503122e-004,-2.469570e-005
5.563086e-004,-1.205460e-005
5.715428e-004,-1.844488e-006
5.846701e-004,3.827799e-006
5.922872e-004,5.448452e-006
5.958526e-004,5.448452e-006
5.924492e-004,7.555301e-006
5.791598e-004,1.582063e-005
5.548500e-004,3.332369e-005
5.204921e-004,5.957827e-005
4.785172e-004,8.939829e-005
4.333010e-004,1.179218e-004
3.858158e-004,1.432040e-004
3.383307e-004,1.637863e-004
2.991108e-004,1.814514e-004
2.812837e-004,1.923098e-004
2.851732e-004,1.926339e-004
2.903593e-004,1.863134e-004
2.760976e-004,1.788584e-004
2.328261e-004,1.754550e-004
1.670276e-004,1.785342e-004
9.263960e-005,1.833962e-004
2.829966e-005,1.851789e-004
-7.354709e-006,1.801549e-004
-7.840905e-006,1.702689e-004
2.084466e-005,1.620036e-004
6.103686e-005,1.618415e-004
9.555677e-005,1.717275e-004
1.154908e-004,1.957132e-004
1.216493e-004,2.354192e-004
1.167873e-004,2.845250e-004
1.031738e-004,3.352514e-004
8.080883e-005,3.843572e-004
4.158902e-005,4.211461e-004
-2.258885e-005,4.320045e-004
-1.092938e-004,4.135290e-004
-2.016710e-004,3.772264e-004
-2.736280e-004,3.394651e-004
-3.074997e-004,3.124002e-004
-3.034480e-004,3.023522e-004
-2.755728e-004,3.073762e-004
-2.488320e-004,3.183966e-004
-2.441321e-004,3.171001e-004
-2.639041e-004,2.884145e-004
-2.953447e-004,2.245608e-004
-3.177098e-004,1.203528e-004
-3.160891e-004,-2.664048e-005
-2.817312e-004,-2.141500e-004
-2.047502e-004,-4.264556e-004
-8.514606e-005,-6.353577e-004
6.330578e-005,-8.115227e-004
2.133783e-004,-9.312889e-004
3.308757e-004,-9.872015e-004
4.000776e-004,-9.906049e-004
4.248736e-004,-9.619193e-004
4.174185e-004,-9.142721e-004
3.877606e-004,-8.517149e-004
3.474063e-004,-7.693857e-004
3.111037e-004,-6.698776e-004
2.961937e-004,-5.672903e-004
3.020280e-004,-4.779923e-004
3.042970e-004,-4.151110e-004
2.754493e-004,-3.805911e-004
1.932822e-004,-3.663294e-004
5.601284e-005,-3.583881e-004
-1.126972e-004,-3.356990e-004
-2.854588e-004,-2.911311e-004
-4.399070e-004,-2.282497e-004
-5.531906e-004,-1.593720e-004
-5.898174e-004,-9.762509e-005
-5.126743e-004,-4.803310e-005
-3.262992e-004,-8.327101e-006
-7.671866e-005,3.170304e-005
1.759412e-004,7.789165e-005
3.879227e-004,1.304008e-004
5.368608e-004,1.822617e-004
6.298863e-004,2.286124e-004
6.804507e-004,2.725321e-004
6.968193e-004,3.198552e-004
6.733199e-004,3.749574e-004
5.982835e-004,4.334631e-004
4.673347e-004,4.909963e-004
2.936006e-004,5.415607e-004
1.073875e-004,5.759185e-004
-6.504996e-005,5.909906e-004
-2.147983e-004,5.877494e-004
-3.509331e-004,5.692738e-004
-4.912817e-004,5.444778e-004
-6.595054e-004,5.206542e-004
-8.745661e-004,4.990995e-004
-1.135329e-003,4.767345e-004
-1.416026e-003,4.568005e-004
-1.672738e-003,4.427008e-004
-1.847120e-003,4.334631e-004
-1.886664e-003,4.221185e-004
-1.776460e-003,4.052637e-004
-1.545030e-003,3.848434e-004
-1.240834e-003,3.681507e-004
-9.113550e-004,3.657197e-004
-5.950035e-004,3.838710e-004
-3.139823e-004,4.298976e-004
-7.931171e-005,5.091476e-004
1.077117e-004,6.123833e-004
2.446569e-004,7.209671e-004
3.334687e-004,8.133444e-004
3.845193e-004,8.781706e-004
4.109360e-004,9.144733e-004
4.253598e-004,9.250075e-004
4.396215e-004,9.126905e-004
4.592314e-004,8.783326e-004
4.835413e-004,8.154513e-004
5.059062e-004,7.172396e-004
5.234093e-004,5.843459e-004
5.303781e-004,4.213082e-004
5.247059e-004,2.341226e-004
5.104441e-004,2.748934e-005
5.016926e-004,-1.908126e-004
5.047718e-004,-4.167317e-004
5.135234e-004,-6.296854e-004
5.130371e-004,-7.961266e-004
4.963444e-004,-8.860728e-004
4.692795e-004,-8.867210e-004
4.443214e-004,-8.043919e-004
4.263322e-004,-6.504298e-004
4.123946e-004,-4.373140e-004
3.866261e-004,-1.867610e-004
3.409237e-004,6.622294e-005
2.756114e-004,2.830664e-004
2.047888e-004,4.329769e-004
1.482280e-004,4.984512e-004
1.177597e-004,4.696036e-004
1.111150e-004,3.396272e-004
1.180839e-004,1.135460e-004
1.292664e-004,-1.891920e-004
1.454729e-004,-5.335807e-004
1.694586e-004,-8.838038e-004
2.028440e-004,-1.211986e-003
2.478982e-004,-1.493494e-003
3.025142e-004,-1.712444e-003
3.610198e-004,-1.861706e-003
4.094774e-004,-1.942577e-003
4.336251e-004,-1.951977e-003
4.211461e-004,-1.881640e-003
3.697714e-004,-1.726219e-003
2.957075e-004,-1.494466e-003
2.355812e-004,-1.205503e-003
2.292607e-004,-8.860728e-004
2.981384e-004,-5.637249e-004
4.311941e-004,-2.673075e-004
5.929354e-004,-2.015787e-005
7.373357e-004,1.654069e-004
8.235546e-004,2.887387e-004
8.323060e-004,3.629646e-004
7.653730e-004,4.153117e-004
6.311828e-004,4.721967e-004
4.467524e-004,5.396159e-004
2.423880e-004,6.071971e-004
5.666109e-005,6.563030e-004
-7.995997e-005,6.806127e-004
-1.569410e-004,6.848265e-004
-1.835197e-004,6.776956e-004
-1.869231e-004,6.627856e-004
-1.880575e-004,6.410689e-004
-1.900023e-004,6.164349e-004
-1.916230e-004,5.960147e-004
-1.966470e-004,5.841838e-004
-2.122053e-004,5.819149e-004
-2.374874e-004,5.905044e-004
-2.613110e-004,6.109247e-004
-2.653627e-004,6.423654e-004
-2.339220e-004,6.778577e-004
-1.658546e-004,7.054088e-004
-8.012204e-005,7.143224e-004
-8.165035e-006,7.021675e-004
2.635488e-005,6.741302e-004
1.468618e-005,6.404206e-004
-3.182657e-005,6.057385e-004
-9.357346e-005,5.691118e-004
-1.532135e-004,5.266506e-004
-1.974573e-004,4.802999e-004
-2.229016e-004,4.320045e-004
-2.366771e-004,3.835469e-004
-2.470493e-004,3.401134e-004
-2.590421e-004,3.033245e-004
-2.713591e-004,2.783665e-004
-2.747625e-004,2.675081e-004
-2.660110e-004,2.636185e-004
-2.493182e-004,2.537325e-004
-2.298704e-004,2.307193e-004
-2.146363e-004,1.963614e-004
-2.070192e-004,1.551968e-004
-2.126914e-004,1.111150e-004
-2.335979e-004,6.541262e-005
-2.629317e-004,1.906194e-005
-2.899966e-004,-2.161646e-005
-3.058790e-004,-4.868137e-005
-3.050687e-004,-5.662256e-005
-2.840002e-004,-5.402952e-005
-2.491561e-004,-4.997789e-005
-2.165810e-004,-5.078821e-005
-1.985918e-004,-5.856735e-005
-1.989159e-004,-7.056019e-005
-2.156086e-004,-8.352541e-005
-2.357047e-004,-9.470791e-005
-2.460769e-004,-1.005423e-004
-2.382978e-004,-1.023250e-004
-2.070192e-004,-1.034594e-004
-1.579134e-004,-1.079973e-004
-1.050801e-004,-1.195039e-004
-5.402952e-005,-1.387897e-004
5.934648e-006,-1.621271e-004
8.226741e-005,-1.825473e-004
1.686482e-004,-1.971332e-004
2.524360e-004,-2.063709e-004
3.198552e-004,-2.078295e-004
3.611819e-004,-2.039399e-004
3.775505e-004,-2.005366e-004
3.827366e-004,-1.989159e-004
3.822504e-004,-1.987538e-004
3.790091e-004,-1.974573e-004
3.697714e-004,-1.924333e-004
3.543751e-004,-1.859507e-004
3.386548e-004,-1.838438e-004
3.253654e-004,-1.888679e-004
3.143450e-004,-1.979435e-004
2.906835e-004,-2.113949e-004
2.344468e-004,-2.311669e-004
1.279698e-004,-2.551526e-004
-3.652646e-005,-2.820554e-004
-2.470493e-004,-3.070135e-004
-4.852853e-004,-3.245165e-004
-7.262764e-004,-3.280820e-004
-9.382577e-004,-3.170615e-004
-1.083468e-003,-2.974516e-004
-1.128198e-003,-2.758969e-004
-1.063534e-003,-2.567732e-004
-9.105446e-004,-2.441321e-004
-7.071526e-004,-2.365151e-004
-4.912817e-004,-2.287359e-004
-2.929138e-004,-2.167431e-004
-1.345760e-004,-1.994021e-004
-2.534396e-005,-1.755785e-004
4.450620e-005,-1.499722e-004
8.875003e-005,-1.246900e-004
1.248906e-004,-1.002181e-004
1.636242e-004,-7.104638e-005
1.999268e-004,-3.571614e-005
2.219677e-004,4.638125e-006
2.258573e-004,5.082674e-005
2.154851e-004,1.041462e-004
1.987924e-004,1.579519e-004
1.791825e-004,2.036544e-004
1.566554e-004,2.389846e-004
1.336421e-004,2.658874e-004
1.201907e-004,2.893870e-004
1.281319e-004,3.119140e-004
1.616794e-004,3.334687e-004
2.151610e-004,3.491891e-004
2.752873e-004,3.551855e-004
3.292550e-004,3.496752e-004
3.697714e-004,3.333067e-004
3.939191e-004,3.125623e-004
4.052637e-004,2.936006e-004
4.117463e-004,2.796630e-004
4.209840e-004,2.717218e-004
4.331389e-004,2.668598e-004
4.399457e-004,2.642668e-004
4.302217e-004,2.637806e-004
3.979707e-004,2.611876e-004
3.559958e-004,2.517878e-004
3.243930e-004,2.365536e-004
3.183966e-004,2.211574e-004
3.420582e-004,2.088404e-004
3.820883e-004,1.970097e-004
4.175806e-004,1.795066e-004
4.320045e-004,1.569795e-004
4.196875e-004,1.352628e-004
3.874365e-004,1.169494e-004
3.438409e-004,1.013911e-004
2.952213e-004,8.826383e-005
2.427121e-004,7.659513e-005
1.817755e-004,6.654708e-005
1.070634e-004,6.217132e-005
2.667901e-005,6.930219e-005
-4.932962e-005,9.085688e-005
-1.144799e-004,1.229458e-004
-1.637477e-004,1.534141e-004
-2.049123e-004,1.534141e-004
-2.449425e-004,9.620504e-005
-2.887001e-004,-2.161646e-005
-3.366714e-004,-1.791439e-004
-3.826980e-004,-3.412093e-004
-4.248349e-004,-4.742648e-004
-4.621100e-004,-5.527044e-004
-4.826922e-004,-5.661559e-004
-4.721580e-004,-5.189948e-004
-4.272659e-004,-4.269418e-004
-3.416954e-004,-3.078238e-004
-2.141500e-004,-1.765509e-004
-5.224680e-005,-4.284701e-005
1.304008e-004,8.178122e-005
3.161277e-004,1.910133e-004
4.892136e-004,2.796630e-004
6.329655e-004,3.469201e-004
7.327979e-004,3.895433e-004
7.815796e-004,4.096394e-004
7.874139e-004,4.104497e-004
7.694247e-004,4.044533e-004
7.423597e-004,4.081808e-004
7.167534e-004,4.311941e-004
6.951987e-004,4.820827e-004
6.661890e-004,5.592257e-004
6.138419e-004,6.410689e-004
5.272989e-004,6.976296e-004
4.149876e-004,7.028158e-004
2.885766e-004,6.394482e-004
1.534141e-004,5.127130e-004
1.322759e-005,3.530786e-004
-1.206384e-004,2.033302e-004
-2.246843e-004,8.712937e-005
-2.707109e-004,2.531276e-006
-2.501286e-004,-6.180866e-005
-1.755785e-004,-1.164247e-004
-7.282909e-005,-1.712027e-004
3.867184e-005,-2.323013e-004
1.504969e-004,-2.964792e-004
2.530843e-004,-3.553089e-004
3.334687e-004,-4.013355e-004
3.804677e-004,-4.311555e-004
3.942432e-004,-4.515757e-004
3.822504e-004,-4.797751e-004
3.568061e-004,-5.446012e-004
3.218000e-004,-6.702017e-004
2.778803e-004,-8.588458e-004
2.229401e-004,-1.094003e-003
1.579519e-004,-1.341152e-003
8.080883e-005,-1.551027e-003
-1.724069e-005,-1.676789e-003
-1.451102e-004,-1.696724e-003
-3.068514e-004,-1.620229e-003
-4.969540e-004,-1.472425e-003
-7.115284e-004,-1.279567e-003
-9.457127e-004,-1.061265e-003
-1.189297e-003,-8.304843e-004
-1.423481e-003,-6.006758e-004
-1.621687e-003,-3.862634e-004
-1.748746e-003,-1.969711e-004
-1.777918e-003,-3.847125e-005
-1.700127e-003,8.777764e-005
-1.522179e-003,1.866375e-004
-1.259147e-003,2.795009e-004
-9.384198e-004,3.919743e-004
-5.943552e-004,5.323229e-004
-2.621213e-004,6.937401e-004
2.538249e-005,8.601813e-004
2.355812e-004,1.017061e-003
3.524304e-004,1.157572e-003
3.816021e-004,1.280579e-003
3.490270e-004,1.385598e-003
2.876042e-004,1.469062e-003
2.308813e-004,1.516061e-003
2.012234e-004,1.508606e-003
2.020337e-004,1.436649e-003
2.224539e-004,1.302134e-003
2.451431e-004,1.112841e-003
2.561635e-004,8.789809e-004
2.453052e-004,6.081695e-004
2.205092e-004,3.077003e-004
1.937684e-004,-7.354709e-006
1.704310e-004,-3.084721e-004
1.534141e-004,-5.659938e-004
1.436902e-004,-7.607963e-004
1.488763e-004,-8.776453e-004
1.704310e-004,-9.108688e-004
2.075439e-004,-8.692179e-004
2.555152e-004,-7.710064e-004
3.104554e-004,-6.413542e-004
3.615060e-004,-5.005194e-004
3.908399e-004,-3.601709e-004
3.869503e-004,-2.256567e-004
3.632887e-004,-9.859748e-005
3.631267e-004,1.987227e-005
4.195254e-004,1.226217e-004
5.234093e-004,1.949028e-004
6.350724e-004,2.192126e-004
7.091364e-004,2.017096e-004
7.182120e-004,1.688103e-004
6.622995e-004,1.456350e-004
5.639257e-004,1.320215e-004
4.559901e-004,1.109530e-004
3.675024e-004,7.027458e-005
3.081865e-004,1.922400e-005
2.686426e-004,-1.788895e-005
2.287745e-004,-1.254080e-005
1.790204e-004,5.617490e-005
1.124116e-004,1.850168e-004
2.732727e-005,3.514580e-004
-7.898758e-005,5.238955e-004
-2.037779e-004,6.755888e-004
-3.493125e-004,7.956792e-004
-5.183466e-004,8.810877e-004
-7.031010e-004,9.300316e-004
-8.838038e-004,9.480208e-004
-1.034362e-003,9.402417e-004
-1.118636e-003,9.118802e-004
-1.093030e-003,8.686088e-004
-9.387439e-004,8.185305e-004
-6.821946e-004,7.671557e-004
-3.767015e-004,7.133500e-004
-8.060823e-005,6.519272e-004
1.566554e-004,5.861287e-004
3.078624e-004,5.225990e-004
3.790091e-004,4.631210e-004
3.947294e-004,4.034809e-004
3.796573e-004,3.389789e-004
3.592371e-004,2.658874e-004
3.465960e-004,1.884202e-004
3.381686e-004,1.132219e-004
3.237448e-004,5.066468e-005
2.979764e-004,9.013889e-006
2.568118e-004,-1.124428e-005
2.077060e-004,-1.432352e-005
1.571416e-004,-8.002969e-006
1.080358e-004,5.610517e-006
6.703327e-005,2.116879e-005
4.564065e-005,3.348575e-005
4.774750e-005,3.996837e-005
6.670914e-005,4.175109e-005
9.669123e-005,4.029250e-005
1.312112e-004,3.915804e-005
1.597346e-004,4.158902e-005
1.741585e-004,4.564065e-005
1.696206e-004,4.677511e-005
1.496866e-004,4.077869e-005
1.266733e-004,2.554455e-005
1.171115e-004,3.503668e-006
1.326697e-004,-2.550602e-005
1.692965e-004,-7.104638e-005
2.109473e-004,-1.357104e-004
2.422259e-004,-2.125294e-004
2.548670e-004,-2.827037e-004
2.516257e-004,-3.306750e-004
2.414156e-004,-3.535262e-004
2.315296e-004,-3.616295e-004
2.185644e-004,-3.692465e-004
1.947408e-004,-3.841565e-004
1.595726e-004,-4.044147e-004
1.174356e-004,-4.243487e-004
8.032264e-005,-4.343968e-004
5.730935e-005,-4.332623e-004
4.758544e-005,-4.272659e-004
4.045456e-005,-4.243487e-004
3.154097e-005,-4.279142e-004
2.116879e-005,-4.368278e-004
1.484824e-005,-4.441207e-004
2.781346e-005,-4.476861e-004
8.064677e-005,-4.455793e-004
1.704310e-004,-4.416897e-004
2.749631e-004,-4.373140e-004
3.691231e-004,-4.331002e-004
4.378388e-004,-4.296969e-004
4.843516e-004,-4.290486e-004
5.258403e-004,-4.314796e-004
5.652222e-004,-4.355313e-004
5.953664e-004,-4.397449e-004
6.070351e-004,-4.410415e-004
5.905044e-004,-4.340726e-004
5.363746e-004,-4.193247e-004
4.525868e-004,-3.998769e-004
3.488649e-004,-3.767015e-004
2.276400e-004,-3.536883e-004
7.675720e-005,-3.366714e-004
-1.206384e-004,-3.248407e-004
-3.676259e-004,-3.149546e-004
-6.526987e-004,-2.997205e-004
-9.458748e-004,-2.734659e-004
-1.217172e-003,-2.326255e-004
-1.445198e-003,-1.853024e-004
-1.611801e-003,-1.389517e-004
-1.689268e-003,-9.746302e-005
-1.658476e-003,-6.359137e-005
-1.513752e-003,-3.782299e-005
-1.268547e-003,-2.323711e-005
-9.612711e-004,-1.805102e-005
-6.471885e-004,-1.221667e-005
-3.745947e-004,3.017472e-006
-1.684476e-004,3.105477e-005
-2.809907e-005,7.092284e-005
5.601284e-005,1.184080e-004
9.312580e-005,1.645966e-004
9.247754e-005,2.054371e-004
6.849186e-005,2.406053e-004
4.191315e-005,2.713977e-004
2.910999e-005,2.976523e-004
3.494434e-005,3.205035e-004
5.795762e-005,3.399513e-004
9.085688e-005,3.559958e-004
1.312112e-004,3.653956e-004
1.739964e-004,3.652335e-004
2.137024e-004,3.598854e-004
2.516257e-004,3.538890e-004
2.866318e-004,3.534027e-004
3.164518e-004,3.629646e-004
3.428685e-004,3.811159e-004
3.660439e-004,4.010500e-004
3.838710e-004,4.164462e-004
3.960259e-004,4.277907e-004
4.016982e-004,4.307079e-004
3.986190e-004,4.183910e-004
3.929467e-004,3.931088e-004
3.911640e-004,3.642611e-004
3.942432e-004,3.433547e-004
3.960259e-004,3.294171e-004
3.827366e-004,3.149933e-004
3.436788e-004,2.869559e-004
2.867939e-004,2.415777e-004
2.299089e-004,1.887444e-004
1.872858e-004,1.398006e-004
1.576278e-004,1.052807e-004
1.328318e-004,8.680524e-005
1.049566e-004,7.918817e-005
6.946425e-005,7.659513e-005
2.586868e-005,7.319176e-005
-2.761287e-005,6.152305e-005
-9.486997e-005,3.688912e-005
-1.716889e-004,2.531276e-006
-2.389460e-004,-3.344723e-005
-2.682799e-004,-5.937768e-005
-2.387840e-004,-6.650855e-005
-1.408965e-004,-5.759496e-005
1.031041e-005,-4.171256e-005
1.871237e-004,-2.712668e-005
3.548613e-004,-2.242678e-005
4.867825e-004,-3.101625e-005
5.670050e-004,-5.159854e-005
5.939078e-004,-7.590833e-005
5.835356e-004,-9.503204e-005
5.605224e-004,-1.068628e-004
5.490156e-004,-1.149661e-004
5.679773e-004,-1.232314e-004
6.182176e-004,-1.313347e-004
6.804507e-004,-1.423551e-004
7.255049e-004,-1.596961e-004
7.327979e-004,-1.870851e-004
6.916333e-004,-2.238740e-004
6.049282e-004,-2.629317e-004
4.700898e-004,-2.987481e-004
2.827423e-004,-3.201407e-004
3.818565e-005,-3.246786e-004
-2.473734e-004,-3.149546e-004
-5.392530e-004,-2.977757e-004
-8.014747e-004,-2.752487e-004
-1.002598e-003,-2.467252e-004
-1.121878e-003,-2.091260e-004
-1.152670e-003,-1.634236e-004
-1.094651e-003,-1.118868e-004
-9.520333e-004,-6.083626e-005
-7.437794e-004,-1.740276e-005
-5.079744e-004,1.679302e-005
-2.888622e-004,4.661304e-005
-1.255003e-004,7.708133e-005
-3.733679e-005,1.106288e-004
-1.416145e-005,1.456350e-004
-2.518189e-005,1.816135e-004
-3.166451e-005,2.153231e-004
-9.785688e-006,2.427121e-004
3.316162e-005,2.597290e-004
7.205730e-005,2.691288e-004
9.182927e-005,2.743149e-004
9.231547e-005,2.851732e-004
7.983644e-005,3.057555e-004
6.541262e-005,3.276344e-004
5.439218e-005,3.431926e-004
4.499239e-005,3.538890e-004
3.251336e-005,3.645853e-004
2.246531e-005,3.788470e-004
2.197911e-005,4.002396e-004
3.121684e-005,4.242253e-004
4.839576e-005,4.478869e-004
6.849186e-005,4.707381e-004
8.194328e-005,4.871067e-004
8.891209e-005,4.862963e-004
1.031738e-004,4.640934e-004
1.352628e-004,4.258460e-004
1.830721e-004,3.804677e-004
2.350950e-004,3.402755e-004
2.807975e-004,3.124002e-004
3.122381e-004,2.948972e-004
3.269861e-004,2.840388e-004
3.308757e-004,2.705873e-004
3.342791e-004,2.519498e-004
3.449753e-004,2.289366e-004
3.619922e-004,2.052750e-004
3.762539e-004,1.812893e-004
3.812780e-004,1.576278e-004
3.830607e-004,1.313732e-004
3.853296e-004,9.928428e-005
3.848434e-004,6.573675e-005
3.786850e-004,3.932010e-005
3.621543e-004,3.105477e-005
3.229345e-004,5.876794e-005
2.534084e-004,1.415833e-004
1.595726e-004,2.783665e-004
4.871989e-005,4.568005e-004
-6.342931e-005,6.674855e-004
-1.642339e-004,8.917841e-004
-2.449425e-004,1.096311e-003
-2.925897e-004,1.257242e-003
-3.003688e-004,1.366798e-003
-2.771934e-004,1.419956e-003
-2.428356e-004,1.407801e-003
-2.126914e-004,1.319475e-003
-1.911368e-004,1.151899e-003
-1.815749e-004,9.063699e-004
-1.791439e-004,5.809425e-004
-1.828714e-004,1.739964e-004
-1.864369e-004,-2.997205e-004
-1.882196e-004,-8.197880e-004
-1.861127e-004,-1.373565e-003
-1.731475e-004,-1.945008e-003
-1.468929e-004,-2.497327e-003
-1.118868e-004,-2.971531e-003
-7.801519e-005,-3.318514e-003
-5.662256e-005,-3.524176e-003
-5.289507e-005,-3.599212e-003
-6.229485e-005,-3.565827e-003
-6.423963e-005,-3.441846e-003
-4.317115e-005,-3.246395e-003
3.341602e-006,-2.999568e-003
7.902610e-005,-2.715791e-003
1.872858e-004,-2.397494e-003
3.143450e-004,-2.038357e-003
4.331389e-004,-1.628170e-003
5.180612e-004,-1.172766e-003
5.496639e-004,-6.988873e-004
5.178991e-004,-2.425115e-004
4.311941e-004,1.634622e-004
3.172622e-004,4.982892e-004
2.064095e-004,7.543526e-004
1.166253e-004,9.366762e-004
4.515445e-005,1.058712e-003
-2.339918e-005,1.134882e-003
-1.047560e-004,1.183502e-003
-2.081536e-004,1.224018e-003
-3.391024e-004,1.263887e-003
-4.967919e-004,1.304403e-003
-6.692294e-004,1.343623e-003
-8.372911e-004,1.380250e-003
-9.802326e-004,1.415742e-003
-1.092868e-003,1.446372e-003
-1.178925e-003,1.460148e-003
-1.232244e-003,1.451721e-003
-1.242454e-003,1.423845e-003
-1.200966e-003,1.387056e-003
-1.105833e-003,1.353509e-003
-9.568953e-004,1.331630e-003
-7.513965e-004,1.322068e-003
-4.992229e-004,1.315910e-003
-2.301945e-004,1.296138e-003
2.489629e-005,1.255459e-003
2.409294e-004,1.195495e-003
4.146635e-004,1.126293e-003
5.668429e-004,1.056929e-003
7.180499e-004,9.901578e-004
8.694191e-004,9.220903e-004
9.955061e-004,8.462437e-004
1.068273e-003,7.626179e-004
1.073784e-003,6.778577e-004
1.018519e-003,5.973112e-004
9.256558e-004,5.260024e-004
8.227442e-004,4.649037e-004
7.240463e-004,4.153117e-004
6.336138e-004,3.707437e-004
5.465847e-004,3.264999e-004
4.707381e-004,2.759355e-004
4.352458e-004,2.180782e-004
4.600418e-004,1.615174e-004
5.349160e-004,1.088461e-004
6.306967e-004,6.314371e-005
7.050846e-004,2.392390e-005
7.225877e-004,-1.140634e-005
6.655407e-004,-4.430560e-005
5.409124e-004,-7.347736e-005
3.699334e-004,-9.794922e-005
1.780480e-004,-1.183694e-004
2.531276e-006,-1.376552e-004
-1.170729e-004,-1.553203e-004
-1.703924e-004,-1.736337e-004
-1.856265e-004,-1.940539e-004
-2.123673e-004,-2.186879e-004
-2.992343e-004,-2.476975e-004
-4.846370e-004,-2.765452e-004
-7.854302e-004,-2.992343e-004
-1.183300e-003,-3.168994e-004
-1.629628e-003,-3.311612e-004
-2.062829e-003,-3.421817e-004
-2.428935e-003,-3.497987e-004
-2.688402e-003,-3.546606e-004
-2.797472e-003,-3.579019e-004
-2.710767e-003,-3.583881e-004
-2.399926e-003,-3.548227e-004
-1.883585e-003,-3.499608e-004
-1.223817e-003,-3.470436e-004
-5.207775e-004,-3.473677e-004
1.203528e-004,-3.483401e-004
6.225934e-004,-3.480160e-004
9.741134e-004,-3.480160e-004
1.209919e-003,-3.551469e-004
1.380574e-003,-3.710293e-004
1.520112e-003,-3.904771e-004
1.633234e-003,-4.036044e-004
1.712322e-003,-4.053871e-004
1.742791e-003,-3.966356e-004
1.711512e-003,-3.804291e-004
1.614759e-003,-3.562813e-004
1.471655e-003,-3.253268e-004
1.316882e-003,-2.898345e-004
1.168106e-003,-2.523975e-004
1.028081e-003,-2.177155e-004
9.047493e-004,-1.904885e-004
8.042688e-004,-1.723372e-004
7.227498e-004,-1.643960e-004
6.543582e-004,-1.622891e-004
5.979594e-004,-1.571031e-004
5.501501e-004,-1.439758e-004
5.054200e-004,-1.224211e-004
4.623107e-004,-9.811128e-005
4.175806e-004,-7.412562e-005
3.699334e-004,-4.868137e-005
3.255275e-004,-2.177852e-005
2.914938e-004,9.013889e-006
2.688046e-004,4.142696e-005
2.456293e-004,7.254349e-005
2.112714e-004,9.523264e-005
1.699448e-004,1.081979e-004
1.313732e-004,1.145184e-004
1.034980e-004,1.184080e-004
8.453633e-005,1.213252e-004
6.703327e-005,1.227837e-004
4.758544e-005,1.257009e-004
2.667901e-005,1.295905e-004
9.662150e-006,1.351007e-004
1.883015e-006,1.425557e-004
4.476060e-006,1.503349e-004
2.068259e-005,1.560072e-004
5.017848e-005,1.581140e-004
8.453633e-005,1.568175e-004
1.171115e-004,1.539003e-004
1.398006e-004,1.501728e-004
1.503349e-004,1.445005e-004
1.550348e-004,1.370455e-004
1.613553e-004,1.273216e-004
1.681620e-004,1.137081e-004
1.665414e-004,9.782569e-005
1.438522e-004,8.161915e-005
9.150514e-005,6.719535e-005
2.019640e-005,4.596478e-005
-5.062615e-005,1.549650e-005
-1.010285e-004,-2.064406e-005
-1.344139e-004,-4.706071e-005
-1.721751e-004,-5.354332e-005
-2.344082e-004,-4.057810e-005
-3.193304e-004,-1.837515e-005
-4.040906e-004,3.017472e-006
-4.666478e-004,1.452411e-005
-5.029504e-004,1.679302e-005
-5.196431e-004,1.306552e-005
-5.327704e-004,5.124321e-006
-5.616181e-004,-9.947754e-006
-6.219063e-004,-3.474375e-005
-7.204420e-004,-6.488790e-005
-8.421530e-004,-9.357346e-005
-9.578677e-004,-1.126972e-004
-1.038252e-003,-1.196660e-004
-1.067586e-003,-1.165867e-004
-1.037604e-003,-1.068628e-004
-9.473335e-004,-9.551824e-005
-7.980713e-004,-9.098041e-005
-5.987309e-004,-9.649064e-005
-3.707051e-004,-1.049180e-004
-1.397621e-004,-1.068628e-004
7.432621e-005,-1.000561e-004
2.543808e-004,-8.871149e-005
3.843572e-004,-7.574627e-005
4.572867e-004,-6.667062e-005
4.756001e-004,-6.294311e-005
4.535592e-004,-6.391550e-005
4.067223e-004,-6.229485e-005
3.407616e-004,-4.965376e-005
2.662116e-004,-2.566809e-005
1.957132e-004,-1.358292e-006
1.417454e-004,1.112074e-005
1.132219e-004,3.503668e-006
1.056048e-004,-2.113026e-005
1.080358e-004,-4.981582e-005
1.120874e-004,-7.250496e-005
1.090082e-004,-7.898758e-005
9.588091e-005,-6.667062e-005
6.930219e-005,-4.365734e-005
4.175109e-005,-2.501983e-005
3.154097e-005,-2.323711e-005
5.196120e-005,-3.425755e-005
1.015532e-004,-4.608832e-005
1.678379e-004,-4.787104e-005
2.294227e-004,-3.198864e-005
2.673460e-004,4.800190e-006
2.816078e-004,5.341979e-005
2.772320e-004,1.038221e-004
2.535705e-004,1.479039e-004
2.096508e-004,1.830721e-004
1.553589e-004,2.088404e-004
1.005808e-004,2.237505e-004
5.406805e-005,2.253711e-004
1.646890e-005,2.156472e-004
-1.707863e-005,1.984683e-004
-5.095028e-005,1.798307e-004
-8.579432e-005,1.678379e-004
-1.198280e-004,1.678379e-004
-1.511067e-004,1.786963e-004
-1.820611e-004,1.952270e-004
-2.190120e-004,2.124059e-004
-2.585559e-004,2.242366e-004
-2.880518e-004,2.266676e-004
-2.908069e-004,2.187264e-004
-2.507768e-004,2.114335e-004
-1.648822e-004,2.148369e-004
-5.062615e-005,2.297469e-004
6.444023e-005,2.483844e-004
1.574657e-004,2.662116e-004
2.140265e-004,2.812837e-004
2.336365e-004,2.971661e-004
2.315296e-004,3.161277e-004
2.287745e-004,3.347652e-004
2.370398e-004,3.499994e-004
2.521119e-004,3.558337e-004
2.537325e-004,3.491891e-004
2.229401e-004,3.349273e-004
1.564933e-004,3.158036e-004
6.914012e-005,2.919800e-004
-1.853722e-005,2.628082e-004
-9.179074e-005,2.308813e-004
-1.451102e-004,1.961994e-004
-1.857886e-004,1.577899e-004
-2.300324e-004,1.172735e-004
-2.896725e-004,7.513654e-005
-3.640605e-004,3.688912e-005
-4.378002e-004,5.448452e-006
-4.849611e-004,-2.080613e-005
-4.804233e-004,-4.560212e-005
-4.130042e-004,-7.153257e-005
-2.810830e-004,-1.000561e-004
-1.034594e-004,-1.300382e-004
7.902610e-005,-1.624512e-004
2.281262e-004,-1.977815e-004
3.245551e-004,-2.324634e-004
3.662059e-004,-2.614731e-004
3.697714e-004,-2.789762e-004
3.590750e-004,-2.867553e-004
3.579406e-004,-2.887001e-004
3.816021e-004,-2.883759e-004
4.339493e-004,-2.864312e-004
5.110924e-004,-2.827037e-004
6.057385e-004,-2.736280e-004
6.977918e-004,-2.545043e-004
7.554871e-004,-2.287359e-004
7.525698e-004,-1.974573e-004
6.741302e-004,-1.653684e-004
5.195198e-004,-1.434896e-004
3.077003e-004,-1.360346e-004
6.978839e-005,-1.391138e-004
-1.588858e-004,-1.425172e-004
-3.433161e-004,-1.373311e-004
-4.647030e-004,-1.193418e-004
-5.261258e-004,-9.227693e-005
-5.467080e-004,-6.067420e-005
-5.458977e-004,-2.583016e-005
-5.287188e-004,1.112074e-005
-4.927403e-004,4.855783e-005
-4.360174e-004,8.664318e-005
-3.585502e-004,1.239182e-004
-2.700626e-004,1.560072e-004
-1.869231e-004,1.799928e-004
-1.284175e-004,1.952270e-004
-9.973194e-005,2.028440e-004
-9.422172e-005,2.067336e-004
-1.052422e-004,2.106232e-004
-1.303623e-004,2.140265e-004
-1.715269e-004,2.143507e-004
-2.201465e-004,2.151610e-004
-2.532078e-004,2.221298e-004
-2.562870e-004,2.384984e-004
-2.207947e-004,2.642668e-004
-1.535376e-004,2.937627e-004
-7.088431e-005,3.132105e-004
1.128280e-005,3.161277e-004
8.210535e-005,3.068900e-004
1.414213e-004,2.927903e-004
1.898788e-004,2.817699e-004
2.256952e-004,2.785285e-004
2.532463e-004,2.785285e-004
2.757735e-004,2.842008e-004
2.893870e-004,2.991108e-004
2.979764e-004,3.393030e-004
3.172622e-004,4.266563e-004
3.649094e-004,5.708945e-004
4.392974e-004,7.622938e-004
5.162785e-004,9.784892e-004
5.720290e-004,1.194036e-003
5.926113e-004,1.396294e-003
5.814288e-004,1.584452e-003
5.517708e-004,1.761590e-003
5.224369e-004,1.910043e-003
5.072028e-004,1.995289e-003
5.084993e-004,1.978272e-003
5.151440e-004,1.835492e-003
5.026649e-004,1.575539e-003
4.524247e-004,1.219805e-003
3.613439e-004,7.801210e-004
2.472499e-004,2.563256e-004
1.462832e-004,-3.297026e-004
8.956036e-005,-9.241581e-004
7.221937e-005,-1.462215e-003
6.168512e-005,-1.895740e-003
1.371378e-005,-2.219060e-003
-1.167488e-004,-2.460214e-003
-3.280820e-004,-2.647724e-003
-5.596732e-004,-2.795690e-003
-7.322728e-004,-2.908001e-003
-7.821888e-004,-2.979472e-003
-6.969426e-004,-2.998596e-003
-5.167259e-004,-2.952245e-003
-3.070135e-004,-2.829562e-003
-1.143178e-004,-2.634434e-003
3.170304e-005,-2.380477e-003
1.177597e-004,-2.085519e-003
1.409351e-004,-1.770301e-003
1.065772e-004,-1.450870e-003
2.052053e-005,-1.137922e-003
-1.154523e-004,-8.340498e-004
-3.010170e-004,-5.400634e-004
-5.251534e-004,-2.596904e-004
-7.627411e-004,-4.923729e-006
-9.630537e-004,2.120818e-004
-1.049272e-003,3.786850e-004
-9.682399e-004,4.919686e-004
-7.248178e-004,5.627912e-004
-3.799429e-004,6.083316e-004
-2.437157e-005,6.464170e-004
2.598910e-004,6.817472e-004
4.357320e-004,7.065432e-004
5.096338e-004,7.159431e-004
5.167646e-004,7.139983e-004
5.012064e-004,7.052467e-004
4.940755e-004,6.948746e-004
5.013684e-004,6.906608e-004
5.169268e-004,6.984400e-004
5.358884e-004,7.182120e-004
5.592257e-004,7.499768e-004
5.835356e-004,7.924379e-004
6.033076e-004,8.383025e-004
6.120591e-004,8.799533e-004
6.026593e-004,9.099355e-004
5.657084e-004,9.240351e-004
4.982892e-004,9.207938e-004
4.106118e-004,9.057217e-004
3.156415e-004,8.836808e-004
2.273159e-004,8.558056e-004
1.610312e-004,8.207994e-004
1.224596e-004,7.843347e-004
1.049566e-004,7.512733e-004
9.831188e-005,7.250187e-004
9.263960e-005,7.042743e-004
8.502253e-005,6.819093e-004
7.319176e-005,6.554927e-004
5.649903e-005,6.253485e-004
3.397195e-005,5.940699e-004
6.744974e-006,5.626292e-004
-2.550602e-005,5.324850e-004
-6.261898e-005,5.041235e-004
-9.584238e-005,4.791655e-004
-1.177212e-004,4.572867e-004
-1.259865e-004,4.388112e-004
-1.196660e-004,4.255218e-004
-1.036215e-004,4.146635e-004
-8.725291e-005,4.029947e-004
-7.526008e-005,3.880847e-004
-6.780507e-005,3.715541e-004
-6.294311e-005,3.559958e-004
-5.872941e-005,3.422202e-004
-6.132246e-005,3.290929e-004
-7.720486e-005,3.135347e-004
-1.075111e-004,2.937627e-004
-1.498101e-004,2.694529e-004
-1.929195e-004,2.410915e-004
-2.251705e-004,2.101370e-004
-2.366771e-004,1.761032e-004
-2.253326e-004,1.357490e-004
-1.992400e-004,9.004655e-005
-1.666649e-004,4.499239e-005
-1.339277e-004,6.420843e-006
-1.067007e-004,-2.793700e-005
-8.935975e-005,-5.889148e-005
-8.352541e-005,-8.595638e-005
-8.336335e-005,-1.045939e-004
-9.081835e-005,-1.164247e-004
-1.076731e-004,-1.233935e-004
-1.280934e-004,-1.261486e-004
-1.407345e-004,-1.248521e-004
-1.426792e-004,-1.272830e-004
-1.339277e-004,-1.407345e-004
-1.148040e-004,-1.666649e-004
-9.000802e-005,-2.047502e-004
-6.877746e-005,-2.467252e-004
-5.872941e-005,-2.823795e-004
-5.889148e-005,-3.092824e-004
-6.359137e-005,-3.413713e-004
-6.650855e-005,-3.903150e-004
-6.569822e-005,-4.514136e-004
-6.132246e-005,-5.066779e-004
-5.354332e-005,-5.381186e-004
-4.446767e-005,-5.364979e-004
-3.749886e-005,-5.081365e-004
-3.474375e-005,-4.676201e-004
-4.333321e-005,-4.269418e-004
-7.444975e-005,-3.922598e-004
-1.357104e-004,-3.650328e-004
-2.130156e-004,-3.429920e-004
-2.734659e-004,-3.220855e-004
-2.864312e-004,-3.078238e-004
-2.451045e-004,-3.102548e-004
-1.634236e-004,-3.368335e-004
-5.791909e-005,-3.796187e-004
6.022653e-005,-4.157593e-004
1.796687e-004,-4.164075e-004
2.835526e-004,-3.613053e-004
3.616681e-004,-2.545043e-004
4.224426e-004,-1.222590e-004
4.791655e-004,2.531276e-006
5.321609e-004,9.685330e-005
5.760806e-004,1.524417e-004
6.099523e-004,1.749688e-004
6.313449e-004,1.812893e-004
6.334517e-004,1.866375e-004
6.099523e-004,1.961994e-004
5.585775e-004,2.031682e-004
4.822447e-004,1.987924e-004
3.846814e-004,1.798307e-004
2.689667e-004,1.453108e-004
1.475797e-004,1.075496e-004
2.619281e-005,7.886404e-005
-1.023250e-004,6.573675e-005
-2.491561e-004,6.476436e-005
-4.089525e-004,6.865393e-005
-5.611319e-004,7.465034e-005
-6.833291e-004,7.756752e-005
-7.588515e-004,7.465034e-005
-7.718167e-004,6.768154e-005
-7.155800e-004,5.698522e-005
-5.977586e-004,3.802358e-005
-4.421759e-004,1.257933e-005
-2.749245e-004,-1.513384e-005
-1.251762e-004,-3.798505e-005
-1.643037e-005,-4.608832e-005
4.077869e-005,-3.198864e-005
5.406805e-005,1.234753e-006
4.239934e-005,4.531652e-005
2.116879e-005,8.534666e-005
-1.844488e-006,1.132219e-004
-1.950961e-005,1.235941e-004
-2.874733e-005,1.197045e-004
-3.279896e-005,1.054428e-004
-3.539201e-005,9.328786e-005
-3.312309e-005,9.004655e-005
-2.339918e-005,9.247754e-005
-1.043395e-005,9.393612e-005
2.045080e-006,8.696731e-005
1.727922e-005,6.897806e-005
3.559260e-005,4.774750e-005
5.293359e-005,2.943412e-005
6.751948e-005,1.403791e-005
7.465034e-005,-1.682422e-006
7.173317e-005,-1.788895e-005
6.346784e-005,-3.328516e-005
5.293359e-005,-4.414354e-005
4.126489e-005,-4.770897e-005
2.586868e-005,-4.284701e-005
8.365628e-006,-3.328516e-005
-5.896120e-006,-2.615429e-005
-8.002969e-006,-2.696461e-005
1.565857e-005,-3.701266e-005
6.995045e-005,-5.257093e-005
1.430419e-004,-6.699475e-005
2.125679e-004,-7.218083e-005
2.619979e-004,-5.759496e-005
2.987867e-004,-2.388537e-005
3.417340e-004,2.408596e-005
4.062361e-004,8.275361e-005
5.050959e-004,1.517934e-004
6.520892e-004,2.305572e-004
8.407335e-004,3.201794e-004
1.044774e-003,4.159600e-004
1.216401e-003,5.101200e-004
1.308779e-003,5.924492e-004
1.288196e-003,6.595443e-004
1.147037e-003,7.086502e-004
9.018321e-004,7.405770e-004
5.832114e-004,7.486803e-004
2.256952e-004,7.245325e-004
-1.442999e-004,6.611650e-004
-5.052193e-004,5.535535e-004
-8.324291e-004,4.033189e-004
-1.089303e-003,2.185644e-004
-1.240672e-003,9.175954e-006
-1.261416e-003,-2.225774e-004
-1.151374e-003,-4.723200e-004
-9.426335e-004,-7.340555e-004
-6.971046e-004,-9.893083e-004
-4.792889e-004,-1.216848e-003
-3.340784e-004,-1.401765e-003
-2.695764e-004,-1.540493e-003
-2.639041e-004,-1.629304e-003
-2.825416e-004,-1.661879e-003
-2.987481e-004,-1.634652e-003
-2.924276e-004,-1.549082e-003
-2.441321e-004,-1.412137e-003
-1.410586e-004,-1.241320e-003
1.128280e-005,-1.057700e-003
1.952270e-004,-8.804005e-004
3.914881e-004,-7.165525e-004
5.820770e-004,-5.634008e-004
7.634282e-004,-4.152731e-004
9.501277e-004,-2.734659e-004
1.158220e-003,-1.423551e-004
1.374578e-003,-2.745081e-005
1.552201e-003,7.189524e-005
1.625941e-003,1.589243e-004
1.537940e-003,2.362295e-004
1.266318e-003,3.081865e-004
8.397611e-004,3.794953e-004
3.273102e-004,4.504799e-004
-1.925954e-004,5.193577e-004
-6.630709e-004,5.828873e-004
-1.066776e-003,6.426895e-004
-1.397713e-003,7.026537e-004
-1.627522e-003,7.640765e-004
-1.722654e-003,8.235546e-004
-1.670469e-003,8.817361e-004
-1.492683e-003,9.374866e-004
-1.245534e-003,9.830269e-004
-1.000653e-003,1.012847e-003
-8.282154e-004,1.026461e-003
-7.614446e-004,1.029216e-003
-7.857543e-004,1.024678e-003
-8.539838e-004,1.007661e-003
-9.004966e-004,9.726548e-004
-8.653284e-004,9.191732e-004
-7.206041e-004,8.520781e-004
-4.839888e-004,7.841726e-004
-1.956746e-004,7.418735e-004
9.782569e-005,7.421977e-004
3.527545e-004,7.849830e-004
5.384815e-004,8.574262e-004
6.457687e-004,9.431589e-004
6.810990e-004,1.027109e-003
6.674855e-004,1.099390e-003
6.300483e-004,1.153682e-003
5.914768e-004,1.181071e-003
5.640878e-004,1.171671e-003
5.550121e-004,1.109924e-003
5.582534e-004,9.833511e-004
5.566327e-004,7.887104e-004
5.420469e-004,5.383193e-004
5.157923e-004,2.503292e-004
4.846757e-004,-6.261898e-005
4.587452e-004,-3.882082e-004
4.435111e-004,-7.121767e-004
4.375147e-004,-1.019128e-003
4.350837e-004,-1.290264e-003
4.315182e-004,-1.505810e-003
4.284390e-004,-1.648752e-003
4.237391e-004,-1.711471e-003
4.149876e-004,-1.693644e-003
4.062361e-004,-1.608074e-003
4.112601e-004,-1.475180e-003
4.337872e-004,-1.315222e-003
4.734932e-004,-1.142136e-003
5.208163e-004,-9.627296e-004
5.631154e-004,-7.849440e-004
5.913147e-004,-6.125065e-004
5.986077e-004,-4.543308e-004
5.825632e-004,-3.151167e-004
5.436675e-004,-1.959987e-004
4.846757e-004,-9.405965e-005
4.106118e-004,-3.951337e-006
3.305515e-004,7.724339e-005
2.558394e-004,1.485521e-004
1.864754e-004,2.125679e-004
1.175977e-004,2.744769e-004
4.466826e-005,3.376824e-004
-3.928157e-005,3.955397e-004
-1.319829e-004,4.427008e-004
-2.235498e-004,4.756001e-004
-3.027998e-004,4.969927e-004
-3.747568e-004,5.122268e-004
-4.484965e-004,5.253541e-004
-5.269361e-004,5.378332e-004
-6.066722e-004,5.473950e-004
-6.836532e-004,5.486915e-004
-7.601480e-004,5.433434e-004
-8.345360e-004,5.350781e-004
-8.951484e-004,5.269747e-004
-9.165410e-004,5.200059e-004
-8.789418e-004,5.130371e-004
-7.744097e-004,5.037994e-004
-6.185030e-004,4.877550e-004
-4.373140e-004,4.577728e-004
-2.592042e-004,4.136911e-004
-1.054042e-004,3.589129e-004
9.824215e-006,2.978143e-004
8.307774e-005,2.346088e-004
1.224596e-004,1.772377e-004
1.380179e-004,1.328318e-004
1.363972e-004,1.026876e-004
1.284560e-004,8.161915e-005
1.363972e-004,6.962632e-005
1.812893e-004,6.184718e-005
2.608634e-004,5.487838e-005
3.514580e-004,4.466826e-005
4.279528e-004,2.878586e-005
4.702519e-004,7.717366e-006
4.645796e-004,-1.140634e-005
4.109360e-004,-2.615429e-005
3.337929e-004,-3.409549e-005
2.626462e-004,-3.458168e-005
2.187264e-004,-3.490581e-005
2.081922e-004,-4.219875e-005
2.195368e-004,-5.694670e-005
2.350950e-004,-7.461182e-005
2.341226e-004,-8.903562e-005
1.999268e-004,-9.989401e-005
1.305629e-004,-1.094559e-004
4.304761e-005,-1.167488e-004
-4.381940e-005,-1.251762e-004
-1.195039e-004,-1.389517e-004
-1.804405e-004,-1.554824e-004
-2.276015e-004,-1.702304e-004
-2.592042e-004,-1.780095e-004
-2.786520e-004,-1.801163e-004
-2.870794e-004,-1.841680e-004
-2.778417e-004,-1.964849e-004
-2.455907e-004,-2.180396e-004
-1.857886e-004,-2.478596e-004
-1.041077e-004,-2.809209e-004
-1.562004e-005,-3.096065e-004
5.779555e-005,-3.329439e-004
1.017153e-004,-3.476919e-004
1.122495e-004,-3.551469e-004
9.814982e-005,-3.540124e-004
7.432621e-005,-3.459091e-004
5.666109e-005,-3.326198e-004
5.017848e-005,-3.193304e-004
5.633696e-005,-3.092824e-004
7.076078e-005,-3.019894e-004
8.761557e-005,-2.942103e-004
9.896015e-005,-2.869174e-004
1.026876e-004,-2.810830e-004
9.523264e-005,-2.771934e-004
7.756752e-005,-2.750866e-004
5.228533e-005,-2.728177e-004
2.441009e-005,-2.669833e-004
1.072688e-006,-2.549905e-004
-9.623623e-006,-2.344082e-004
-4.761664e-006,-2.055606e-004
1.160693e-005,-1.737958e-004
2.748934e-005,-1.444620e-004
3.267542e-005,-1.138316e-004
2.068259e-005,-8.206682e-005
-9.623623e-006,-5.354332e-005
-5.500191e-005,-2.809907e-005
-1.034594e-004,-2.006553e-006
-1.371690e-004,2.862379e-005
-1.396000e-004,5.860588e-005
-1.125351e-004,8.631905e-005
-7.056019e-005,1.185701e-004
-2.615429e-005,1.607070e-004
1.290346e-005,2.151610e-004
4.564065e-005,2.748010e-004
6.735741e-005,3.255275e-004
7.999851e-005,3.456236e-004
8.534666e-005,3.138588e-004
7.983644e-005,2.292607e-004
6.265751e-005,1.182459e-004
2.522042e-005,1.322759e-005
-4.155049e-005,-6.472583e-005
-1.334415e-004,-1.068628e-004
-2.314910e-004,-1.190177e-004
-3.087962e-004,-1.164247e-004
-3.444506e-004,-1.092938e-004
-3.342404e-004,-9.713889e-005
-2.917793e-004,-7.493595e-005
-2.410529e-004,-4.462973e-005
-2.005366e-004,-1.480971e-005
-1.781716e-004,7.485573e-007
-1.695821e-004,1.031041e-005
-1.561307e-004,4.320967e-005
-1.220970e-004,1.294284e-004
-5.905355e-005,2.717218e-004
2.603075e-005,4.488593e-004
1.260251e-004,6.268070e-004
2.368777e-004,7.746107e-004
3.543751e-004,8.760638e-004
4.637693e-004,9.310039e-004
5.404262e-004,9.522345e-004
5.558224e-004,9.533690e-004
5.020167e-004,9.350556e-004
4.034809e-004,8.964840e-004
2.968419e-004,8.465679e-004
2.038164e-004,8.028102e-004
1.273216e-004,7.676419e-004
5.957827e-005,7.329599e-004
-3.303076e-006,6.929298e-004
-5.548811e-005,6.459308e-004
-8.871149e-005,5.932595e-004
-9.908367e-005,5.404262e-004
-9.081835e-005,4.918066e-004
-6.748094e-005,4.467524e-004
-2.955766e-005,3.982949e-004
2.214118e-005,3.346032e-004
8.340187e-005,2.451431e-004
1.451488e-004,1.279698e-004
2.012234e-004,-1.756482e-005
2.472499e-004,-1.909747e-004
2.824181e-004,-3.831841e-004
3.020280e-004,-5.807417e-004
3.057555e-004,-7.619307e-004
2.931144e-004,-9.022792e-004
2.735045e-004,-9.896324e-004
2.547049e-004,-1.024963e-003
2.359054e-004,-1.019128e-003
2.088404e-004,-9.831499e-004
1.667035e-004,-9.226995e-004
1.057669e-004,-8.419910e-004
2.181705e-005,-7.452380e-004
-7.736692e-005,-6.371404e-004
-1.776853e-004,-5.152673e-004
-2.626076e-004,-3.767015e-004
-3.194925e-004,-2.402425e-004
-3.412093e-004,-1.361966e-004
-3.322956e-004,-9.746302e-005
-3.057169e-004,-1.397621e-004
-2.710350e-004,-2.577456e-004
-2.334358e-004,-4.287245e-004
-1.995642e-004,-6.279027e-004
-1.765509e-004,-8.369670e-004
-1.692580e-004,-1.036145e-003
-1.757406e-004,-1.205017e-003
-1.848162e-004,-1.324459e-003
-1.875713e-004,-1.379886e-003
-1.810887e-004,-1.371944e-003
-1.705545e-004,-1.308091e-003
-1.583996e-004,-1.193835e-003
-1.379794e-004,-1.035821e-003
-1.037836e-004,-8.429634e-004
-5.775702e-005,-6.280648e-004
2.045080e-006,-4.076560e-004
7.367795e-005,-1.990780e-004
1.472556e-004,-1.335113e-005
2.083542e-004,1.459591e-004
2.440086e-004,2.833905e-004
2.451431e-004,4.109360e-004
2.124059e-004,5.352402e-004
1.527658e-004,6.554927e-004
8.210535e-005,7.650489e-004
2.538249e-005,8.575883e-004
9.500085e-006,9.211180e-004
5.763349e-005,9.491552e-004
1.718896e-004,9.446174e-004
3.248792e-004,9.214421e-004
4.720346e-004,8.984288e-004
5.752703e-004,8.898393e-004
6.216210e-004,8.985908e-004
6.148142e-004,9.156077e-004
5.694359e-004,9.321384e-004
5.070407e-004,9.438071e-004
4.482110e-004,9.511001e-004
4.000776e-004,9.504518e-004
3.568061e-004,9.240351e-004
3.149933e-004,8.558056e-004
2.762596e-004,7.533802e-004
2.334744e-004,6.439860e-004
1.864754e-004,5.535535e-004
1.469315e-004,5.005581e-004
1.205148e-004,4.966686e-004
1.002567e-004,5.490156e-004
7.335383e-005,6.527375e-004
2.943412e-005,7.840106e-004
-3.847125e-005,9.182008e-004
-1.360346e-004,1.040236e-003
-2.624455e-004,1.151575e-003
-3.984183e-004,1.253839e-003
-5.018159e-004,1.342651e-003
-5.308256e-004,1.401480e-003
-4.702132e-004,1.405856e-003
-3.493125e-004,1.335195e-003
-2.204706e-004,1.187067e-003
-1.314967e-004,9.762202e-004
-1.105903e-004,7.212912e-004
-1.661787e-004,4.344354e-004
-2.943724e-004,1.166253e-004
-4.812336e-004,-2.303566e-004
-6.890013e-004,-5.885208e-004
-8.698662e-004,-9.248063e-004
-9.752086e-004,-1.204531e-003
-9.632158e-004,-1.401602e-003
-8.045539e-004,-1.510835e-003
-5.024642e-004,-1.544706e-003
-1.031353e-004,-1.523638e-003
3.187208e-004,-1.468049e-003
7.033019e-004,-1.390258e-003
1.025326e-003,-1.292533e-003
1.282038e-003,-1.175035e-003
1.472627e-003,-1.040521e-003
1.582346e-003,-8.962828e-004
1.590287e-003,-7.507482e-004
1.479920e-003,-6.146134e-004
1.252218e-003,-4.961436e-004
9.272764e-004,-3.963114e-004
5.396159e-004,-3.104168e-004
1.325077e-004,-2.316531e-004
-2.564491e-004,-1.559686e-004
-6.180168e-004,-7.979791e-005
-9.669433e-004,2.855407e-006
-1.316842e-003,8.323981e-005
-1.670631e-003,1.480659e-004
-2.014858e-003,1.867996e-004
-2.315652e-003,1.991165e-004
-2.532981e-003,1.994406e-004
-2.619038e-003,2.023578e-004
-2.528768e-003,2.172679e-004
-2.248556e-003,2.422259e-004
-1.819731e-003,2.673460e-004
-1.319922e-003,2.790148e-004
-8.218948e-004,2.644289e-004
-3.729740e-004,2.242366e-004
-2.168618e-006,1.709172e-004
2.814457e-004,1.274836e-004
4.801379e-004,1.101427e-004
6.042800e-004,1.257009e-004
6.671614e-004,1.680000e-004
6.877437e-004,2.208333e-004
6.898505e-004,2.649151e-004
6.943883e-004,2.854973e-004
7.067053e-004,2.837146e-004
7.229118e-004,2.675081e-004
7.349047e-004,2.488706e-004
7.376599e-004,2.359054e-004
7.381460e-004,2.289366e-004
7.499768e-004,2.224539e-004
7.794728e-004,2.130541e-004
8.237166e-004,1.978200e-004
8.731466e-004,1.791825e-004
9.175525e-004,1.620036e-004
9.485070e-004,1.482280e-004
9.637412e-004,1.368834e-004
9.664963e-004,1.278078e-004
9.559621e-004,1.197045e-004
9.258178e-004,1.122495e-004
8.689329e-004,1.038221e-004
7.919518e-004,9.377406e-005
7.144845e-004,8.097089e-005
6.582477e-004,6.719535e-005
6.290760e-004,5.163707e-005
6.167590e-004,3.348575e-005
6.016869e-004,1.160693e-005
5.739738e-004,-1.302700e-005
5.358884e-004,-3.911951e-005
4.872688e-004,-6.569822e-005
4.216323e-004,-9.503204e-005
3.303894e-004,-1.263107e-004
2.149989e-004,-1.546721e-004
8.826383e-005,-1.746061e-004
-3.247483e-005,-1.856265e-004
-1.255003e-004,-1.908126e-004
-1.793060e-004,-1.911368e-004
-1.995642e-004,-1.867610e-004
-1.951884e-004,-1.793060e-004
-1.760647e-004,-1.673132e-004
-1.404103e-004,-1.527273e-004
-8.676672e-005,-1.423551e-004
-1.610624e-005,-1.381414e-004
6.735741e-005,-1.361966e-004
1.556830e-004,-1.340898e-004
2.357433e-004,-1.344139e-004
2.926282e-004,-1.412206e-004
3.185587e-004,-1.517549e-004
3.175863e-004,-1.624512e-004
3.091589e-004,-1.715269e-004
3.127243e-004,-1.768750e-004
3.373583e-004,-1.771992e-004
3.861400e-004,-1.742820e-004
4.511282e-004,-1.687718e-004
5.148199e-004,-1.611547e-004
5.566327e-004,-1.522411e-004
5.665187e-004,-1.441378e-004
5.446399e-004,-1.368449e-004
4.984512e-004,-1.298761e-004
4.384871e-004,-1.229073e-004
3.775505e-004,-1.157764e-004
3.255275e-004,-1.065387e-004
2.811216e-004,-9.616651e-005
2.375260e-004,-8.465986e-005
1.846927e-004,-7.201877e-005
1.179218e-004,-5.791909e-005
3.883391e-005,-4.430560e-005
-4.527799e-005,-3.215070e-005
-1.233935e-004,-2.145439e-005
-1.851404e-004,-1.173047e-005
-2.259808e-004,2.045080e-006
-2.556388e-004,2.262738e-005
-2.908069e-004,4.758544e-005
-3.415334e-004,7.238143e-005
-4.076560e-004,9.523264e-005
-4.797751e-004,1.185701e-004
-5.442770e-004,1.412592e-004
-5.860899e-004,1.624898e-004
-5.982448e-004,1.811273e-004
-5.873864e-004,1.961994e-004
-5.684248e-004,2.080301e-004
-5.587008e-004,2.187264e-004
-5.650214e-004,2.346088e-004
-5.838210e-004,2.548670e-004
-6.061860e-004,2.757735e-004
-6.256338e-004,2.908455e-004
-6.392473e-004,2.968419e-004
-6.505919e-004,2.936006e-004
-6.625847e-004,2.859836e-004
-6.757120e-004,2.842008e-004
-6.804119e-004,2.942489e-004
-6.625847e-004,3.104554e-004
-6.142893e-004,3.196932e-004
-5.431426e-004,3.072141e-004
-4.647030e-004,2.694529e-004
-3.933943e-004,2.182402e-004
-3.378059e-004,1.681620e-004
-3.005308e-004,1.291043e-004
-2.786520e-004,1.033359e-004
-2.690902e-004,9.020862e-005
-2.643903e-004,8.534666e-005
-2.548284e-004,8.421220e-005
-2.381357e-004,9.490851e-005
-2.180396e-004,1.316974e-004
-1.984297e-004,1.983062e-004
-1.775233e-004,2.777182e-004
-1.575893e-004,3.401134e-004
-1.439758e-004,3.649094e-004
-1.360346e-004,3.431926e-004
-1.300382e-004,2.825802e-004
-1.212866e-004,2.002510e-004
-1.117248e-004,1.101427e-004
-1.039456e-004,7.879432e-006
-9.616651e-005,-1.159385e-004
-8.465986e-005,-2.545043e-004
-7.331530e-005,-3.927460e-004
-6.504996e-005,-5.133225e-004
-5.662256e-005,-6.050515e-004
-4.592625e-005,-6.624226e-004
-3.377136e-005,-6.834911e-004
-2.501983e-005,-6.750637e-004
-1.950961e-005,-6.510781e-004
-1.286493e-005,-6.194753e-004
-3.141010e-006,-5.849554e-004
1.501031e-005,-5.447632e-004
3.948217e-005,-4.860956e-004
6.589881e-005,-3.995528e-004
8.777764e-005,-2.820554e-004
1.030118e-004,-1.405724e-004
1.103047e-004,8.689758e-006
1.116012e-004,1.466074e-004
1.107909e-004,2.571359e-004
1.133840e-004,3.360618e-004
1.193804e-004,3.854917e-004
1.307250e-004,4.125566e-004
1.425557e-004,4.242253e-004
1.508211e-004,4.261701e-004
1.560072e-004,4.243874e-004
1.607070e-004,4.261701e-004
1.681620e-004,4.318424e-004
1.778860e-004,4.371906e-004
1.879340e-004,4.320045e-004
1.963614e-004,4.070464e-004
2.057612e-004,3.589129e-004
2.179161e-004,2.908455e-004
2.328261e-004,2.174299e-004
2.456293e-004,1.736723e-004
2.530843e-004,1.949028e-004
2.592428e-004,2.927903e-004
2.662116e-004,4.459421e-004
2.736666e-004,6.211348e-004
2.793389e-004,7.844968e-004
2.819319e-004,9.207938e-004
2.877662e-004,1.038291e-003
2.978143e-004,1.147848e-003
3.093210e-004,1.257242e-003
3.122381e-004,1.372795e-003
2.976523e-004,1.480244e-003
2.631324e-004,1.551067e-003
2.127300e-004,1.565005e-003
1.545486e-004,1.516871e-003
9.847395e-005,1.406666e-003
5.066468e-005,1.224181e-003
1.646890e-005,9.572586e-004
1.558884e-006,6.068730e-004
7.069105e-006,1.890685e-004
3.575467e-005,-2.724935e-004
8.421220e-005,-7.415105e-004
1.472556e-004,-1.183463e-003
2.174299e-004,-1.582792e-003
2.785285e-004,-1.939822e-003
3.162898e-004,-2.259253e-003
3.260137e-004,-2.539302e-003
3.164518e-004,-2.764411e-003
2.932765e-004,-2.913512e-003
2.686426e-004,-2.969911e-003
2.504913e-004,-2.931177e-003
2.347709e-004,-2.805576e-003
2.187264e-004,-2.611583e-003
1.997648e-004,-2.367674e-003
1.816135e-004,-2.095891e-003
1.689724e-004,-1.815031e-003
1.597346e-004,-1.533038e-003
1.425557e-004,-1.253151e-003
1.086841e-004,-9.836360e-004
6.200925e-005,-7.421587e-004
1.501031e-005,-5.405495e-004
-2.599222e-005,-3.802670e-004
-6.586029e-005,-2.506147e-004
-1.058904e-004,-1.326312e-004
-1.417068e-004,-3.465141e-006
-1.687718e-004,1.472556e-004
-1.919471e-004,3.169380e-004
-2.203085e-004,4.971547e-004
-2.535319e-004,6.712130e-004
-2.888622e-004,8.233925e-004
-3.128478e-004,9.444554e-004
-3.091203e-004,1.035212e-003
-2.656868e-004,1.106035e-003
-1.828714e-004,1.164216e-003
-7.250496e-005,1.212350e-003
5.390598e-005,1.254163e-003
1.872858e-004,1.285765e-003
3.263378e-004,1.303268e-003
4.671726e-004,1.302134e-003
6.033076e-004,1.279283e-003
7.199947e-004,1.230339e-003
8.019998e-004,1.158868e-003
8.470541e-004,1.075566e-003
8.558056e-004,9.942095e-004
8.395990e-004,9.237110e-004
8.019998e-004,8.621261e-004
7.362012e-004,7.977861e-004
6.407447e-004,7.279359e-004
5.240576e-004,6.597064e-004
3.952156e-004,5.986077e-004
2.660495e-004,5.444778e-004
1.469315e-004,4.968306e-004
3.834771e-005,4.553419e-004
-7.639453e-005,4.240633e-004
-2.229016e-004,4.028327e-004
-4.199730e-004,3.866261e-004
-6.643674e-004,3.704196e-004
-9.350164e-004,3.530786e-004
-1.210365e-003,3.334687e-004
-1.470642e-003,3.112658e-004
-1.677762e-003,2.879283e-004
-1.788128e-003,2.663737e-004
-1.764143e-003,2.504913e-004
-1.592353e-003,2.453052e-004
-1.294153e-003,2.459534e-004
-9.207547e-004,2.428742e-004
-5.238568e-004,2.321778e-004
-1.334415e-004,2.149989e-004
2.312055e-004,1.983062e-004
5.454503e-004,1.884202e-004
7.926000e-004,1.856651e-004
9.676307e-004,1.861513e-004
1.068922e-003,1.822617e-004
1.094204e-003,1.699448e-004
1.045260e-003,1.522796e-004
9.246834e-004,1.368834e-004
7.352289e-004,1.325077e-004
4.861343e-004,1.402868e-004
2.041406e-004,1.561692e-004
-6.537409e-005,1.761032e-004
-2.827037e-004,1.940925e-004
-4.316416e-004,2.093267e-004
-5.241810e-004,2.179161e-004
-5.890070e-004,2.185644e-004
-6.421645e-004,2.102990e-004
-6.833291e-004,1.940925e-004
-7.047217e-004,1.746447e-004
-6.958081e-004,1.534141e-004
-6.561021e-004,1.282940e-004
-5.907898e-004,9.928428e-005
-5.042469e-004,7.011252e-005
-4.019837e-004,4.969229e-005
-2.823795e-004,4.337174e-005
-1.373311e-004,4.823370e-005
3.267542e-005,5.487838e-005
2.227781e-004,5.050261e-005
4.292493e-004,3.024445e-005
6.376655e-004,-5.409925e-006
8.177201e-004,-5.176061e-005
9.426727e-004,-9.973194e-005
1.001827e-003,-1.391138e-004
9.946957e-004,-1.640719e-004
9.376486e-004,-1.791439e-004
8.525642e-004,-1.916230e-004
7.572698e-004,-2.055606e-004
6.624615e-004,-2.233878e-004
5.658705e-004,-2.476975e-004
4.657141e-004,-2.750866e-004
3.658818e-004,-3.024756e-004
2.777182e-004,-3.280820e-004
1.992786e-004,-3.506090e-004
1.205148e-004,-3.674638e-004
3.494434e-005,-3.784843e-004
-5.970181e-005,-3.859393e-004
-1.676373e-004,-3.908012e-004
-3.013411e-004,-3.922598e-004
-4.562756e-004,-3.945287e-004
-6.092652e-004,-4.016596e-004
-7.319486e-004,-4.138145e-004
-7.829992e-004,-4.309934e-004
-7.120146e-004,-4.478482e-004
-5.006815e-004,-4.541688e-004
-1.825473e-004,-4.423380e-004
1.647587e-004,-4.149489e-004
4.561522e-004,-3.791325e-004
6.389620e-004,-3.476919e-004
7.020054e-004,-3.254889e-004
6.713751e-004,-3.121996e-004
5.952043e-004,-3.027998e-004
5.204921e-004,-2.932379e-004
4.731691e-004,-2.833519e-004
4.559901e-004,-2.702246e-004
4.602039e-004,-2.543422e-004
4.754380e-004,-2.363530e-004
4.913204e-004,-2.164190e-004
4.953720e-004,-1.979435e-004
4.796517e-004,-1.883817e-004
4.412422e-004,-1.908126e-004
3.804677e-004,-2.036158e-004
2.999212e-004,-2.245222e-004
2.039785e-004,-2.472114e-004
1.111150e-004,-2.637420e-004
3.656499e-005,-2.716832e-004
-1.886135e-005,-2.707109e-004
-6.213279e-005,-2.677937e-004
-1.016767e-004,-2.703867e-004
-1.425172e-004,-2.815692e-004
-1.865989e-004,-2.917793e-004
-2.412149e-004,-2.893484e-004
-3.086341e-004,-2.671454e-004
-3.802670e-004,-2.211189e-004
-4.387725e-004,-1.541859e-004
-4.697270e-004,-7.979791e-005
-4.729683e-004,-1.464765e-005
-4.596790e-004,3.137890e-005
-4.408794e-004,5.925414e-005
-4.175420e-004,7.740546e-005
-3.817256e-004,9.458438e-005
-3.256510e-004,1.174356e-004
-2.475355e-004,1.445005e-004
-1.608306e-004,1.726999e-004
-8.530812e-005,1.976579e-004
-3.522994e-005,2.159713e-004
-1.156841e-005,2.265056e-004
-7.030578e-006,2.320158e-004
-9.299493e-006,2.373639e-004
-1.237873e-005,2.459534e-004
-1.578211e-005,2.579462e-004
-2.469570e-005,2.757735e-004
-3.879538e-005,2.948972e-004
-5.305713e-005,3.075383e-004
-6.116039e-005,3.133726e-004
-6.310517e-005,3.179104e-004
-6.553616e-005,3.261758e-004
-7.282909e-005,3.401134e-004
-7.882551e-005,3.553475e-004
-7.963584e-005,3.639370e-004
-7.088431e-005,3.613439e-004
-5.240886e-005,3.496752e-004
-2.923353e-005,3.334687e-004
-1.092015e-005,3.172622e-004
-5.571990e-006,3.039728e-004
-1.448558e-005,2.919800e-004
-3.134038e-005,2.760976e-004
-4.560212e-005,2.551911e-004
-5.808115e-005,2.316917e-004
-7.720486e-005,2.055991e-004
-1.015147e-004,1.722137e-004
-1.269589e-004,1.187321e-004
-1.498101e-004,4.094075e-005
-1.686097e-004,-4.738484e-005
-1.804405e-004,-1.261486e-004
-1.831956e-004,-1.741199e-004
-1.827094e-004,-1.817370e-004
-1.849783e-004,-1.507825e-004
-1.906506e-004,-9.665270e-005
-1.963229e-004,-3.766092e-005
-1.951884e-004,9.013889e-006
-1.864369e-004,3.915804e-005
-1.773612e-004,5.909208e-005
-1.679614e-004,7.756752e-005
-1.468929e-004,9.652917e-005
-1.058904e-004,1.153287e-004
-4.446767e-005,1.370455e-004
2.603075e-005,1.620036e-004
9.863601e-005,1.895547e-004
1.621656e-004,2.137024e-004
2.067336e-004,2.336365e-004
2.300710e-004,2.472499e-004
2.501671e-004,2.529222e-004
2.838767e-004,2.504913e-004
3.393030e-004,2.402811e-004
4.188772e-004,2.273159e-004
5.097958e-004,2.162954e-004
5.916389e-004,2.072198e-004
6.387999e-004,2.028440e-004
6.407447e-004,2.005751e-004
6.070351e-004,1.902029e-004
5.580913e-004,1.629760e-004
5.096338e-004,1.161391e-004
4.725208e-004,5.115087e-005
4.483731e-004,-2.210265e-005
4.232529e-004,-9.276313e-005
3.712299e-004,-1.504584e-004
2.639427e-004,-1.875713e-004
8.826383e-005,-2.023193e-004
-1.347380e-004,-2.006986e-004
-3.611433e-004,-1.942160e-004
-5.522182e-004,-1.903264e-004
-6.885151e-004,-1.849783e-004
-7.664686e-004,-1.729855e-004
-7.911025e-004,-1.496481e-004
-7.674409e-004,-1.208004e-004
-7.006701e-004,-9.146661e-005
-6.014861e-004,-6.148453e-005
-4.810716e-004,-2.826114e-005
-3.488263e-004,9.175954e-006
-2.139880e-004,5.115087e-005
-9.470791e-005,9.571884e-005
-2.330684e-006,1.412592e-004
6.346784e-005,1.811273e-004
1.085220e-004,2.111094e-004
1.423936e-004,2.286124e-004
1.730240e-004,2.333123e-004
2.021958e-004,2.310434e-004
2.245608e-004,2.329882e-004
2.357433e-004,2.443328e-004
2.339606e-004,2.603772e-004
2.232643e-004,2.671840e-004
2.094887e-004,2.590807e-004
1.961994e-004,2.372019e-004
1.837203e-004,2.107852e-004
1.709172e-004,1.859892e-004
1.584381e-004,1.649207e-004
1.459591e-004,1.482280e-004
1.338042e-004,1.378558e-004
1.258630e-004,1.357490e-004
1.219734e-004,1.376938e-004
1.201907e-004,1.386662e-004
1.146805e-004,1.331559e-004
1.067393e-004,1.205148e-004
9.766362e-005,1.039842e-004
9.150514e-005,9.118101e-005
8.793970e-005,8.080883e-005
8.972242e-005,7.108491e-005
9.620504e-005,5.957827e-005
1.015532e-004,4.531652e-005
1.070634e-004,2.959619e-005
1.125736e-004,1.160693e-005
1.133840e-004,-8.813297e-006
1.085220e-004,-2.874733e-005
1.002567e-004,-4.544006e-005
9.053275e-005,-6.067420e-005
8.291568e-005,-7.266703e-005
8.048470e-005,-8.077030e-005
8.178122e-005,-8.384954e-005
8.405014e-005,-8.725291e-005
8.405014e-005,-9.616651e-005
7.951231e-005,-1.122110e-004
6.914012e-005,-1.337657e-004
5.423012e-005,-1.562927e-004
3.802358e-005,-1.755785e-004
2.829966e-005,-1.880575e-004
3.137890e-005,-1.924333e-004
4.580272e-005,-1.919471e-004
6.103686e-005,-1.934057e-004
6.897806e-005,-1.966470e-004
6.816773e-005,-2.021572e-004
6.314371e-005,-2.115570e-004
5.341979e-005,-2.238740e-004
4.045456e-005,-2.334358e-004
2.684107e-005,-2.363530e-004
1.533444e-005,-2.310048e-004
9.986281e-006,-2.212809e-004
1.663096e-005,-2.126914e-004
2.846173e-005,-2.062088e-004
3.526847e-005,-2.006986e-004
3.445814e-005,-1.930815e-004
2.651694e-005,-1.865989e-004
1.808955e-005,-1.948643e-004
8.689758e-006,-2.285739e-004
5.864920e-007,-2.843243e-004
-3.951337e-006,-3.444506e-004
-4.923729e-006,-3.885323e-004
-8.975362e-006,-3.995528e-004
