2.181705e-005,4.483033e-005
2.226160e-004,6.281957e-005
3.730126e-004,7.789165e-005
4.871067e-004,8.988449e-005
5.862907e-004,9.944634e-005
6.846645e-004,1.051186e-004
7.786624e-004,1.091703e-004
8.558056e-004,1.146805e-004
9.032908e-004,1.261871e-004
9.104217e-004,1.466074e-004
8.734707e-004,1.746447e-004
7.966516e-004,2.043026e-004
6.979538e-004,2.273159e-004
6.036317e-004,2.384984e-004
5.308643e-004,2.381743e-004
4.840274e-004,2.302331e-004
4.610142e-004,2.203471e-004
4.602039e-004,2.159713e-004
4.778690e-004,2.206712e-004
5.041235e-004,2.273159e-004
5.256782e-004,2.310434e-004
5.261644e-004,2.258573e-004
4.978030e-004,2.132162e-004
4.409181e-004,1.961994e-004
3.717161e-004,1.819376e-004
3.073762e-004,1.748067e-004
2.572980e-004,1.756171e-004
2.208333e-004,1.785342e-004
1.918236e-004,1.804790e-004
1.678379e-004,1.767515e-004
1.551968e-004,1.692965e-004
1.603829e-004,1.602208e-004
1.822617e-004,1.524417e-004
2.120818e-004,1.440143e-004
2.414156e-004,1.326697e-004
2.613496e-004,1.187321e-004
2.699391e-004,1.020394e-004
2.675081e-004,8.307774e-005
2.511395e-004,6.233338e-005
2.211574e-004,4.385793e-005
1.855030e-004,2.943412e-005
1.509831e-004,1.744129e-005
1.211631e-004,3.503668e-006
9.944634e-005,-1.254080e-005
8.550872e-005,-2.728874e-005
7.416415e-005,-3.668853e-005
6.800567e-005,-3.960571e-005
7.432621e-005,-3.717473e-005
9.620504e-005,-3.506788e-005
1.271595e-004,-4.187462e-005
1.543865e-004,-6.504996e-005
1.650828e-004,-1.010285e-004
1.558451e-004,-1.361966e-004
1.292664e-004,-1.630995e-004
9.118101e-005,-1.807646e-004
5.179914e-005,-1.916230e-004
1.711715e-005,-1.979435e-004
-8.975362e-006,-1.998883e-004
-2.647842e-005,-1.987538e-004
-4.300908e-005,-1.938919e-004
-5.791909e-005,-1.856265e-004
-6.974985e-005,-1.796301e-004
-8.222889e-005,-1.812508e-004
-9.713889e-005,-1.862748e-004
-1.130213e-004,-1.908126e-004
-1.208004e-004,-1.914609e-004
-1.126972e-004,-1.883817e-004
-9.081835e-005,-1.794681e-004
-6.391550e-005,-1.647201e-004
-4.706071e-005,-1.478653e-004
-4.689865e-005,-1.332795e-004
-6.099833e-005,-1.216107e-004
-8.158062e-005,-1.112386e-004
-1.000561e-004,-9.956988e-005
-1.122110e-004,-8.628052e-005
-1.203142e-004,-7.234290e-005
-1.276072e-004,-5.597430e-005
-1.340898e-004,-3.701266e-005
-1.426792e-004,-1.626830e-005
-1.538618e-004,3.989864e-006
-1.715269e-004,2.214118e-005
-1.937298e-004,3.672706e-005
-2.167431e-004,4.888196e-005
-2.293842e-004,6.119892e-005
-2.233878e-004,7.675720e-005
-1.977815e-004,9.588091e-005
-1.582375e-004,1.145184e-004
-1.167488e-004,1.304008e-004
-8.984595e-005,1.451488e-004
-8.644259e-005,1.623277e-004
-1.036215e-004,1.846927e-004
-1.255003e-004,2.099749e-004
-1.360346e-004,2.328261e-004
-1.277692e-004,2.503292e-004
-1.050801e-004,2.592428e-004
-7.655660e-005,2.608634e-004
-5.062615e-005,2.618358e-004
-2.971972e-005,2.658874e-004
-1.302700e-005,2.699391e-004
-5.247859e-006,2.709115e-004
-8.975362e-006,2.688046e-004
-1.610624e-005,2.666978e-004
-1.302700e-005,2.649151e-004
3.341602e-006,2.650771e-004
2.797553e-005,2.663737e-004
4.953022e-005,2.637806e-004
6.006447e-005,2.563256e-004
5.909208e-005,2.425500e-004
5.212327e-005,2.255332e-004
4.207521e-005,2.073819e-004
3.040651e-005,1.889064e-004
1.808955e-005,1.715654e-004
4.313994e-006,1.586002e-004
-9.299493e-006,1.474177e-004
-1.853722e-005,1.338042e-004
-1.464765e-005,1.124116e-004
1.193106e-005,8.178122e-005
6.152305e-005,4.547859e-005
1.226217e-004,9.175954e-006
1.811273e-004,-1.610624e-005
2.268297e-004,-2.566809e-005
2.530843e-004,-2.307504e-005
2.571359e-004,-1.788895e-005
2.381743e-004,-1.983374e-005
1.973338e-004,-3.053005e-005
1.393144e-004,-4.770897e-005
6.638502e-005,-6.715681e-005
-2.469570e-005,-8.336335e-005
-1.431655e-004,-9.762509e-005
-3.000446e-004,-1.154523e-004
-4.826922e-004,-1.420310e-004
-6.478368e-004,-1.755785e-004
-7.442656e-004,-2.081536e-004
-7.374589e-004,-2.352185e-004
-6.329267e-004,-2.522354e-004
-4.729683e-004,-2.598524e-004
-3.081479e-004,-2.624455e-004
-1.729855e-004,-2.617972e-004
-7.914964e-005,-2.583939e-004
-2.210265e-005,-2.483458e-004
1.112074e-005,-2.345703e-004
3.753739e-005,-2.191741e-004
6.800567e-005,-2.076674e-004
1.073875e-004,-1.987538e-004
1.498487e-004,-1.872472e-004
1.893926e-004,-1.746061e-004
2.281262e-004,-1.642339e-004
2.688046e-004,-1.611547e-004
3.109416e-004,-1.645581e-004
3.477304e-004,-1.720131e-004
3.697714e-004,-1.747682e-004
3.723644e-004,-1.681235e-004
3.548613e-004,-1.514308e-004
3.224483e-004,-1.289037e-004
2.824181e-004,-1.028112e-004
2.415777e-004,-7.250496e-005
2.077060e-004,-3.992984e-005
1.861513e-004,-8.813297e-006
1.735102e-004,1.954813e-005
1.615174e-004,4.304761e-005
1.449867e-004,6.103686e-005
1.265113e-004,7.448828e-005
1.078737e-004,8.340187e-005
8.875003e-005,9.134307e-005
7.335383e-005,1.007429e-004
6.687121e-005,1.133840e-004
6.832980e-005,1.281319e-004
6.865393e-005,1.449867e-004
5.747142e-005,1.626518e-004
3.899597e-005,1.819376e-004
2.181705e-005,2.031682e-004
1.468618e-005,2.219677e-004
2.246531e-005,2.325020e-004
4.029250e-005,2.346088e-004
5.471631e-005,2.295848e-004
6.022653e-005,2.235884e-004
5.860588e-005,2.240746e-004
5.649903e-005,2.341226e-004
5.828175e-005,2.464396e-004
6.865393e-005,2.538946e-004
8.210535e-005,2.542187e-004
9.280167e-005,2.480603e-004
1.052807e-004,2.360674e-004
1.260251e-004,2.227781e-004
1.500107e-004,2.135403e-004
1.636242e-004,2.104611e-004
1.608691e-004,2.137024e-004
1.485521e-004,2.190506e-004
1.346145e-004,2.226160e-004
1.242423e-004,2.188885e-004
1.174356e-004,2.083542e-004
1.125736e-004,1.939304e-004
1.049566e-004,1.796687e-004
9.280167e-005,1.670276e-004
8.048470e-005,1.566554e-004
7.400208e-005,1.488763e-004
7.627100e-005,1.401247e-004
8.712937e-005,1.263492e-004
1.127357e-004,1.065772e-004
1.586002e-004,8.405014e-005
2.213195e-004,6.281957e-005
2.864697e-004,4.369587e-005
3.342791e-004,2.505836e-005
3.467581e-004,1.095867e-005
3.175863e-004,3.179537e-006
2.577842e-004,2.855407e-006
1.855030e-004,8.365628e-006
1.218114e-004,1.614476e-005
7.789165e-005,2.052053e-005
4.580272e-005,1.533444e-005
8.365628e-006,-1.844488e-006
-4.009191e-005,-3.328516e-005
-9.405965e-005,-7.299116e-005
-1.425172e-004,-1.079973e-004
-1.810887e-004,-1.319829e-004
-2.019951e-004,-1.434896e-004
-1.966470e-004,-1.467309e-004
-1.579134e-004,-1.498101e-004
-9.049421e-005,-1.562927e-004
-1.351319e-005,-1.653684e-004
4.531652e-005,-1.721751e-004
6.897806e-005,-1.742820e-004
5.552663e-005,-1.723372e-004
9.013889e-006,-1.699062e-004
-6.310517e-005,-1.700683e-004
-1.379794e-004,-1.733096e-004
-1.882196e-004,-1.807646e-004
-2.006986e-004,-1.883817e-004
-1.806025e-004,-1.909747e-004
-1.462447e-004,-1.903264e-004
-1.107524e-004,-1.853024e-004
-8.287715e-005,-1.759026e-004
-7.396356e-005,-1.621271e-004
-1.034594e-004,-1.451102e-004
-1.872472e-004,-1.300382e-004
-3.172236e-004,-1.185315e-004
-4.643789e-004,-1.091317e-004
-5.928966e-004,-9.535618e-005
-6.813843e-004,-7.250496e-005
-7.432932e-004,-4.236082e-005
-8.095779e-004,-9.623623e-006
-8.891520e-004,1.825161e-005
-9.544643e-004,3.737532e-005
-9.714811e-004,5.131294e-005
-9.272373e-004,6.346784e-005
-8.382635e-004,7.400208e-005
-7.374589e-004,8.372601e-005
-6.423265e-004,9.620504e-005
-5.462218e-004,1.111150e-004
-4.245108e-004,1.289422e-004
-2.577456e-004,1.493625e-004
-4.868137e-005,1.718896e-004
1.809652e-004,1.902029e-004
4.062361e-004,1.989545e-004
6.118971e-004,1.968476e-004
7.827141e-004,1.895547e-004
8.997253e-004,1.816135e-004
9.525587e-004,1.812893e-004
9.428347e-004,1.895547e-004
8.904876e-004,2.020337e-004
8.204753e-004,2.112714e-004
7.545147e-004,2.132162e-004
6.998986e-004,2.107852e-004
6.572754e-004,2.070577e-004
6.261588e-004,2.025199e-004
6.099523e-004,1.950649e-004
6.128695e-004,1.877720e-004
6.379896e-004,1.814514e-004
6.827196e-004,1.761032e-004
7.297186e-004,1.736723e-004
7.519216e-004,1.699448e-004
7.258290e-004,1.610312e-004
6.337758e-004,1.472556e-004
4.660382e-004,1.354248e-004
2.268297e-004,1.274836e-004
-6.018800e-005,1.198666e-004
-3.598467e-004,1.080358e-004
-6.249856e-004,8.939829e-005
-7.812165e-004,6.330578e-005
-7.666306e-004,3.607880e-005
-5.703696e-004,1.193106e-005
-2.455907e-004,-3.141010e-006
1.167873e-004,-9.299493e-006
4.284390e-004,-1.075808e-005
6.404206e-004,-1.237873e-005
7.433321e-004,-1.626830e-005
7.541905e-004,-2.307504e-005
7.028158e-004,-2.923353e-005
5.974732e-004,-3.474375e-005
4.316803e-004,-4.122636e-005
2.077060e-004,-5.046408e-005
-4.074016e-005,-6.294311e-005
-2.556388e-004,-7.607040e-005
-3.925839e-004,-9.033215e-005
-4.522240e-004,-1.070249e-004
-4.728062e-004,-1.277692e-004
-5.037607e-004,-1.477033e-004
-5.825245e-004,-1.648822e-004
-7.193076e-004,-1.739578e-004
-8.996862e-004,-1.723372e-004
-1.097568e-003,-1.626133e-004
-1.273085e-003,-1.535376e-004
-1.376482e-003,-1.522411e-004
-1.355090e-003,-1.590478e-004
-1.185731e-003,-1.699062e-004
-9.001724e-004,-1.812508e-004
-5.731247e-004,-1.917850e-004
-2.799486e-004,-1.956746e-004
-6.132246e-005,-1.867610e-004
7.918817e-005,-1.676373e-004
1.633001e-004,-1.459206e-004
2.253711e-004,-1.285796e-004
2.936006e-004,-1.188556e-004
3.785229e-004,-1.133454e-004
4.762483e-004,-1.094559e-004
5.679773e-004,-1.049180e-004
6.339379e-004,-9.551824e-005
6.746164e-004,-7.736692e-005
7.083260e-004,-5.030202e-005
7.452769e-004,-1.869928e-005
7.797969e-004,1.209313e-005
7.971379e-004,3.721326e-005
7.872519e-004,5.390598e-005
7.509492e-004,6.670914e-005
7.002227e-004,7.902610e-005
6.503066e-004,9.166720e-005
6.165970e-004,1.041462e-004
6.037938e-004,1.135460e-004
6.055765e-004,1.197045e-004
5.966629e-004,1.248906e-004
5.495019e-004,1.347766e-004
4.514523e-004,1.530900e-004
3.012177e-004,1.762653e-004
9.863601e-005,2.008992e-004
-1.569410e-004,2.208333e-004
-4.428242e-004,2.328261e-004
-7.094215e-004,2.410915e-004
-9.027654e-004,2.483844e-004
-9.917393e-004,2.513016e-004
-9.790981e-004,2.467637e-004
-8.922312e-004,2.370398e-004
-7.711684e-004,2.292607e-004
-6.518884e-004,2.292607e-004
-5.535148e-004,2.321778e-004
-4.694029e-004,2.346088e-004
-3.792946e-004,2.359054e-004
-2.687660e-004,2.318537e-004
-1.417068e-004,2.205092e-004
-1.140634e-005,2.039785e-004
1.099806e-004,1.890685e-004
2.124059e-004,1.785342e-004
2.942489e-004,1.733481e-004
3.623164e-004,1.707551e-004
4.222805e-004,1.689724e-004
4.712243e-004,1.660552e-004
4.958582e-004,1.566554e-004
4.882411e-004,1.399627e-004
4.488593e-004,1.156529e-004
3.908399e-004,8.923623e-005
3.303894e-004,6.411610e-005
2.856594e-004,4.434413e-005
2.666978e-004,2.894792e-005
2.726942e-004,1.338965e-005
2.897111e-004,-7.030578e-006
2.957075e-004,-3.150244e-005
2.701012e-004,-5.872941e-005
2.059233e-004,-8.239095e-005
1.174356e-004,-9.632857e-005
3.283749e-005,-1.032974e-004
-2.664048e-005,-1.105903e-004
-5.273300e-005,-1.220970e-004
-5.419158e-005,-1.392759e-004
-5.030202e-005,-1.572651e-004
-6.488790e-005,-1.713648e-004
-1.078352e-004,-1.809267e-004
-1.686097e-004,-1.870851e-004
-2.203085e-004,-1.875713e-004
-2.400805e-004,-1.854645e-004
-2.188499e-004,-1.802784e-004
-1.598582e-004,-1.763888e-004
-7.995997e-005,-1.780095e-004
5.864920e-007,-1.864369e-004
5.828175e-005,-1.969711e-004
8.405014e-005,-2.060468e-004
8.421220e-005,-2.146363e-004
6.946425e-005,-2.227395e-004
4.969229e-005,-2.263049e-004
3.170304e-005,-2.216050e-004
2.165498e-005,-2.076674e-004
2.311357e-005,-1.853024e-004
3.154097e-005,-1.601823e-004
4.029250e-005,-1.387897e-004
4.013043e-005,-1.227452e-004
2.846173e-005,-1.133454e-004
3.989864e-006,-1.052422e-004
-3.150244e-005,-9.065628e-005
-7.137051e-005,-6.488790e-005
-1.083214e-004,-3.555408e-005
-1.321450e-004,-8.975362e-006
-1.439758e-004,1.355172e-005
-1.574272e-004,3.218923e-005
-1.844921e-004,4.693717e-005
-2.196603e-004,6.168512e-005
-2.480217e-004,7.805372e-005
-2.588801e-004,9.669123e-005
-2.488320e-004,1.161391e-004
-2.177155e-004,1.351007e-004
-1.622891e-004,1.547106e-004
-7.542214e-005,1.754550e-004
4.337174e-005,1.968476e-004
1.790204e-004,2.201850e-004
3.067279e-004,2.415777e-004
4.046154e-004,2.577842e-004
4.621486e-004,2.670219e-004
4.790034e-004,2.676702e-004
4.626348e-004,2.621599e-004
4.247115e-004,2.566497e-004
3.730126e-004,2.566497e-004
3.136967e-004,2.564877e-004
2.530843e-004,2.538946e-004
1.978200e-004,2.495189e-004
1.480659e-004,2.414156e-004
1.023635e-004,2.266676e-004
5.471631e-005,2.101370e-004
2.693341e-006,1.976579e-004
-5.953974e-005,1.932822e-004
-1.417068e-004,1.957132e-004
-2.395943e-004,2.021958e-004
-3.355370e-004,2.101370e-004
-4.172179e-004,2.166196e-004
-4.877163e-004,2.164575e-004
-5.638869e-004,2.120818e-004
-6.612882e-004,2.077060e-004
-7.904542e-004,2.102990e-004
-9.270753e-004,2.148369e-004
-1.010053e-003,2.125679e-004
-9.823395e-004,1.973338e-004
-8.256224e-004,1.709172e-004
-5.760419e-004,1.406109e-004
-2.956689e-004,1.081979e-004
-4.057810e-005,7.335383e-005
1.511452e-004,3.607880e-005
2.655633e-004,-3.951337e-006
3.132105e-004,-4.268495e-005
3.174242e-004,-7.428769e-005
3.042970e-004,-9.260107e-005
2.885766e-004,-9.681477e-005
2.738286e-004,-9.535618e-005
2.587566e-004,-9.746302e-005
2.490327e-004,-1.086455e-004
2.535705e-004,-1.280934e-004
2.748010e-004,-1.511067e-004
3.042970e-004,-1.705545e-004
3.305515e-004,-1.844921e-004
3.440029e-004,-1.929195e-004
3.399513e-004,-1.966470e-004
3.218000e-004,-1.964849e-004
3.025142e-004,-1.971332e-004
2.948972e-004,-2.006986e-004
3.051073e-004,-2.060468e-004
3.281205e-004,-2.086398e-004
3.525924e-004,-2.053985e-004
3.691231e-004,-1.969711e-004
3.731747e-004,-1.851404e-004
3.691231e-004,-1.742820e-004
3.548613e-004,-1.700683e-004
3.286068e-004,-1.720131e-004
2.929524e-004,-1.747682e-004
2.488706e-004,-1.731475e-004
1.929580e-004,-1.643960e-004
1.263492e-004,-1.519170e-004
6.136099e-005,-1.389517e-004
1.322759e-005,-1.258245e-004
-1.043395e-005,-1.146419e-004
-1.464765e-005,-1.015147e-004
-1.594417e-005,-8.579432e-005
-2.890940e-005,-6.407757e-005
-6.942573e-005,-4.057810e-005
-1.386276e-004,-1.837515e-005
-2.060468e-004,2.531276e-006
-2.344082e-004,2.570662e-005
-1.989159e-004,4.726130e-005
-9.940781e-005,6.200925e-005
4.434413e-005,7.043665e-005
1.939304e-004,7.416415e-005
3.153174e-004,7.691926e-005
3.995914e-004,8.372601e-005
4.553419e-004,9.652917e-005
4.947237e-004,1.146805e-004
5.242196e-004,1.336421e-004
5.376711e-004,1.540623e-004
5.159543e-004,1.770756e-004
4.441593e-004,1.999268e-004
3.211517e-004,2.159713e-004
1.496866e-004,2.231022e-004
-7.380149e-005,2.274780e-004
-3.431540e-004,2.331503e-004
-6.415162e-004,2.376881e-004
-9.329096e-004,2.391467e-004
-1.160611e-003,2.388225e-004
-1.263685e-003,2.337985e-004
-1.202910e-003,2.245608e-004
-9.884980e-004,2.115956e-004
-6.739292e-004,1.978200e-004
-3.353749e-004,1.855030e-004
-4.203669e-005,1.765894e-004
1.641104e-004,1.718896e-004
2.785285e-004,1.697827e-004
3.175863e-004,1.705930e-004
2.973281e-004,1.744826e-004
2.235884e-004,1.749688e-004
1.116012e-004,1.688103e-004
7.393236e-006,1.584381e-004
-3.636440e-005,1.485521e-004
4.151929e-006,1.423936e-004
1.167873e-004,1.365593e-004
2.611876e-004,1.266733e-004
3.869503e-004,1.104668e-004
4.624728e-004,9.118101e-005
4.817585e-004,6.816773e-005
4.618245e-004,4.320967e-005
4.227667e-004,2.035846e-005
3.694472e-004,5.864920e-007
2.952213e-004,-1.480971e-005
2.012234e-004,-2.583016e-005
1.031738e-004,-2.939559e-005
2.133085e-005,-2.712668e-005
-3.101625e-005,-2.307504e-005
-5.095028e-005,-2.664048e-005
-4.576419e-005,-4.446767e-005
-2.664048e-005,-7.444975e-005
-5.571990e-006,-1.104282e-004
7.717366e-006,-1.460826e-004
1.112074e-005,-1.765509e-004
4.476060e-006,-1.981056e-004
-1.221667e-005,-2.107467e-004
-3.814712e-005,-2.175534e-004
-6.294311e-005,-2.175534e-004
-7.477388e-005,-2.107467e-004
-7.509801e-005,-1.963229e-004
-8.060823e-005,-1.806025e-004
-1.107524e-004,-1.718510e-004
-1.781716e-004,-1.705545e-004
-2.760590e-004,-1.736337e-004
-3.744326e-004,-1.731475e-004
-4.347209e-004,-1.656925e-004
-4.162455e-004,-1.553203e-004
-2.893484e-004,-1.472171e-004
-6.942573e-005,-1.399241e-004
1.858272e-004,-1.313347e-004
4.107739e-004,-1.170729e-004
5.593878e-004,-9.794922e-005
6.212969e-004,-7.785312e-005
6.185417e-004,-5.921561e-005
5.924492e-004,-4.673658e-005
5.765668e-004,-4.106429e-005
5.757565e-004,-3.604027e-005
5.762426e-004,-2.793700e-005
5.551741e-004,-1.351319e-005
4.838654e-004,5.610517e-006
3.355756e-004,2.829966e-005
1.075496e-004,5.455425e-005
-1.721751e-004,8.437427e-005
-4.603272e-004,1.127357e-004
-7.241695e-004,1.321835e-004
-9.468472e-004,1.423936e-004
-1.129333e-003,1.500107e-004
-1.280702e-003,1.613553e-004
-1.393499e-003,1.803169e-004
-1.428992e-003,2.017096e-004
-1.342611e-003,2.205092e-004
-1.118961e-003,2.357433e-004
-8.013126e-004,2.449810e-004
-4.703753e-004,2.461155e-004
-1.989159e-004,2.420638e-004
-1.610624e-005,2.396328e-004
8.664318e-005,2.427121e-004
1.402868e-004,2.514636e-004
1.741585e-004,2.610255e-004
2.093267e-004,2.654013e-004
2.530843e-004,2.579462e-004
3.086727e-004,2.401191e-004
3.718782e-004,2.193747e-004
4.342734e-004,2.010613e-004
4.866205e-004,1.913374e-004
5.149820e-004,1.910133e-004
5.127130e-004,1.934442e-004
4.835413e-004,1.936063e-004
4.422146e-004,1.874478e-004
4.089912e-004,1.754550e-004
4.115842e-004,1.573037e-004
4.717105e-004,1.344524e-004
5.866149e-004,1.103047e-004
7.242084e-004,9.263960e-005
8.452713e-004,8.194328e-005
9.264661e-004,7.076078e-005
9.645515e-004,4.985435e-005
9.655239e-004,2.068259e-005
9.426727e-004,-9.461558e-006
9.032908e-004,-3.441962e-005
8.494850e-004,-4.916756e-005
7.755831e-004,-5.483985e-005
6.691061e-004,-6.051213e-005
5.222749e-004,-7.477388e-005
3.311998e-004,-9.762509e-005
1.051186e-004,-1.238797e-004
-1.323071e-004,-1.451102e-004
-3.496366e-004,-1.524032e-004
-5.241810e-004,-1.446240e-004
-6.546435e-004,-1.326312e-004
-7.536653e-004,-1.279313e-004
-8.368049e-004,-1.323071e-004
-9.267511e-004,-1.413827e-004
-1.040197e-003,-1.511067e-004
-1.174549e-003,-1.613168e-004
-1.305336e-003,-1.692580e-004
-1.394634e-003,-1.746061e-004
-1.399496e-003,-1.767130e-004
-1.284591e-003,-1.773612e-004
-1.044086e-003,-1.776853e-004
-7.157421e-004,-1.760647e-004
-3.643846e-004,-1.724993e-004
-5.192267e-005,-1.692580e-004
1.832341e-004,-1.668270e-004
3.328204e-004,-1.653684e-004
4.096394e-004,-1.668270e-004
4.368664e-004,-1.695821e-004
4.402698e-004,-1.705545e-004
4.414042e-004,-1.665028e-004
4.490213e-004,-1.598582e-004
4.566384e-004,-1.517549e-004
4.574487e-004,-1.412206e-004
4.509661e-004,-1.264727e-004
4.384871e-004,-1.114006e-004
4.242253e-004,-9.649064e-005
4.070464e-004,-7.801519e-005
3.827366e-004,-5.224680e-005
3.490270e-004,-2.113026e-005
3.034866e-004,1.176900e-005
2.503292e-004,4.175109e-005
2.033302e-004,6.606088e-005
1.783722e-004,8.567078e-005
1.786963e-004,1.046324e-004
1.961994e-004,1.237561e-004
2.159713e-004,1.378558e-004
2.216436e-004,1.436902e-004
2.052750e-004,1.428799e-004
1.715654e-004,1.425557e-004
1.323456e-004,1.483901e-004
1.017153e-004,1.660552e-004
9.053275e-005,1.921477e-004
1.000946e-004,2.200230e-004
1.216493e-004,2.435224e-004
1.425557e-004,2.582704e-004
1.508211e-004,2.628082e-004
1.425557e-004,2.589186e-004
1.187321e-004,2.508154e-004
8.242948e-005,2.427121e-004
4.564065e-005,2.388225e-004
2.586868e-005,2.381743e-004
3.283749e-005,2.380122e-004
6.962632e-005,2.352571e-004
1.312112e-004,2.342847e-004
2.044647e-004,2.321778e-004
2.712356e-004,2.284504e-004
3.172622e-004,2.247229e-004
3.328204e-004,2.260194e-004
3.146691e-004,2.326641e-004
2.681563e-004,2.365536e-004
2.094887e-004,2.328261e-004
1.581140e-004,2.218057e-004
1.305629e-004,2.068957e-004
1.302388e-004,1.913374e-004
1.490383e-004,1.788584e-004
1.808031e-004,1.736723e-004
2.148369e-004,1.728619e-004
2.420638e-004,1.694586e-004
2.466017e-004,1.586002e-004
2.106232e-004,1.386662e-004
1.234320e-004,1.153287e-004
-6.382317e-006,8.777764e-005
-1.498101e-004,5.682316e-005
-2.830278e-004,2.651694e-005
-3.878840e-004,1.720949e-006
-4.557894e-004,-1.950961e-005
-4.938748e-004,-3.911951e-005
-5.240189e-004,-6.148453e-005
-5.527044e-004,-8.611845e-005
-5.646973e-004,-1.135075e-004
-5.324463e-004,-1.394379e-004
-4.460655e-004,-1.562927e-004
-3.316474e-004,-1.632615e-004
-2.326255e-004,-1.642339e-004
-1.690959e-004,-1.601823e-004
-1.334415e-004,-1.549962e-004
-1.099421e-004,-1.524032e-004
-8.968389e-005,-1.559686e-004
-7.736692e-005,-1.640719e-004
-9.195280e-005,-1.708786e-004
-1.546721e-004,-1.713648e-004
-2.746004e-004,-1.668270e-004
-4.463896e-004,-1.639098e-004
-6.439472e-004,-1.703924e-004
-8.089297e-004,-1.849783e-004
-8.781315e-004,-2.000504e-004
-8.167088e-004,-2.086398e-004
-6.274165e-004,-2.076674e-004
-3.475298e-004,-2.021572e-004
-4.252288e-005,-1.937298e-004
2.235884e-004,-1.802784e-004
4.089912e-004,-1.634236e-004
5.078511e-004,-1.457585e-004
5.334574e-004,-1.326312e-004
5.166026e-004,-1.269589e-004
4.911583e-004,-1.219349e-004
4.756001e-004,-1.092938e-004
4.707381e-004,-8.449780e-005
4.619866e-004,-5.111234e-005
4.397836e-004,-1.643037e-005
4.042913e-004,1.160693e-005
3.595612e-004,2.943412e-005
3.068900e-004,3.899597e-005
2.500050e-004,4.272347e-005
1.968476e-004,4.337174e-005
1.568175e-004,4.369587e-005
1.346145e-004,4.596478e-005
1.339663e-004,5.066468e-005
1.438522e-004,5.957827e-005
1.479039e-004,7.481241e-005
1.378558e-004,9.766362e-005
1.127357e-004,1.265113e-004
7.983644e-005,1.568175e-004
5.098881e-005,1.816135e-004
3.850978e-005,1.966855e-004
5.179914e-005,2.031682e-004
9.118101e-005,2.062474e-004
1.427178e-004,2.109473e-004
1.869616e-004,2.209954e-004
2.120818e-004,2.333123e-004
2.132162e-004,2.443328e-004
1.936063e-004,2.537325e-004
1.561692e-004,2.632944e-004
1.000946e-004,2.759355e-004
1.954813e-005,2.939248e-004
-8.547019e-005,3.117519e-004
-1.968091e-004,3.219621e-004
-2.899966e-004,3.177483e-004
-3.442885e-004,3.007315e-004
-3.512573e-004,2.738286e-004
-3.217614e-004,2.410915e-004
-2.831898e-004,2.047888e-004
-2.530457e-004,1.699448e-004
-2.318152e-004,1.385041e-004
-2.102605e-004,1.107909e-004
-1.796301e-004,8.696731e-005
-1.378173e-004,6.930219e-005
-8.498399e-005,5.585077e-005
-2.826114e-005,3.932010e-005
1.695509e-005,2.116879e-005
4.369587e-005,2.369211e-006
5.066468e-005,-9.947754e-006
3.818565e-005,-1.140634e-005
1.160693e-005,-7.192643e-006
-1.934754e-005,-3.627206e-006
-4.074016e-005,-7.030578e-006
-5.176061e-005,-1.821308e-005
-5.451572e-005,-3.490581e-005
-4.916756e-005,-5.273300e-005
-2.939559e-005,-7.299116e-005
8.203562e-006,-9.908367e-005
5.876794e-005,-1.329553e-004
1.119254e-004,-1.681235e-004
1.514693e-004,-1.953505e-004
1.663793e-004,-2.100984e-004
1.590864e-004,-2.123673e-004
1.415833e-004,-2.084778e-004
1.357490e-004,-2.058847e-004
1.524417e-004,-2.079916e-004
1.855030e-004,-2.115570e-004
2.177540e-004,-2.147983e-004
2.347709e-004,-2.159328e-004
2.214815e-004,-2.133397e-004
1.694586e-004,-2.073433e-004
7.302970e-005,-1.943781e-004
-6.132246e-005,-1.750923e-004
-2.016710e-004,-1.605064e-004
-3.066893e-004,-1.532135e-004
-3.475298e-004,-1.502963e-004
-3.219235e-004,-1.494860e-004
-2.462390e-004,-1.488377e-004
-1.527273e-004,-1.436516e-004
-7.347736e-005,-1.310105e-004
-2.161646e-005,-1.122110e-004
1.014835e-005,-9.162867e-005
3.364782e-005,-7.185670e-005
5.795762e-005,-5.435365e-005
9.053275e-005,-3.685060e-005
1.339663e-004,-1.399939e-005
1.845306e-004,1.355172e-005
2.321778e-004,3.721326e-005
2.615117e-004,5.163707e-005
2.619979e-004,5.957827e-005
2.359054e-004,6.541262e-005
2.036544e-004,7.497447e-005
1.905271e-004,9.523264e-005
2.091646e-004,1.224596e-004
2.550291e-004,1.488763e-004
3.065659e-004,1.696206e-004
3.422202e-004,1.843686e-004
3.495132e-004,1.983062e-004
3.253654e-004,2.149989e-004
2.769079e-004,2.320158e-004
2.171058e-004,2.414156e-004
1.568175e-004,2.394708e-004
9.798775e-005,2.310434e-004
4.094075e-005,2.218057e-004
-7.192643e-006,2.175920e-004
-4.025397e-005,2.213195e-004
-5.743289e-005,2.292607e-004
-6.245691e-005,2.360674e-004
-6.035007e-005,2.375260e-004
-5.013995e-005,2.365536e-004
-3.620233e-005,2.375260e-004
-2.842320e-005,2.420638e-004
-4.673658e-005,2.440086e-004
-1.126972e-004,2.406053e-004
-2.303566e-004,2.303951e-004
-3.861013e-004,2.120818e-004
-5.530285e-004,1.882582e-004
-6.890013e-004,1.658931e-004
-7.509103e-004,1.495245e-004
-7.235213e-004,1.402868e-004
-6.207718e-004,1.323456e-004
-4.784786e-004,1.257009e-004
-3.366714e-004,1.184080e-004
-2.269532e-004,1.127357e-004
-1.637477e-004,1.086841e-004
-1.462447e-004,1.017153e-004
-1.556445e-004,8.696731e-005
-1.629374e-004,6.573675e-005
-1.506204e-004,4.353380e-005
-1.162626e-004,2.700314e-005
-6.893953e-005,1.484824e-005
-1.950961e-005,3.017472e-006
2.846173e-005,-8.975362e-006
7.740546e-005,-2.064406e-005
1.291043e-004,-3.312309e-005
1.885823e-004,-4.592625e-005
2.550291e-004,-6.099833e-005
3.216380e-004,-8.012204e-005
3.756057e-004,-1.039456e-004
4.059119e-004,-1.284175e-004
4.172565e-004,-1.489998e-004
4.180668e-004,-1.601823e-004
4.164462e-004,-1.663408e-004
4.106118e-004,-1.724993e-004
3.979707e-004,-1.807646e-004
3.785229e-004,-1.912988e-004
3.585888e-004,-2.005366e-004
3.435168e-004,-2.037779e-004
3.331446e-004,-2.011848e-004
3.268240e-004,-1.930815e-004
3.277964e-004,-1.815749e-004
3.409237e-004,-1.760647e-004
3.649094e-004,-1.786577e-004
3.919743e-004,-1.890299e-004
4.117463e-004,-2.029675e-004
4.170944e-004,-2.164190e-004
4.012120e-004,-2.224154e-004
3.595612e-004,-2.203085e-004
2.921420e-004,-2.066950e-004
2.025199e-004,-1.822232e-004
9.296373e-005,-1.506204e-004
-3.377136e-005,-1.161005e-004
-1.762268e-004,-8.563225e-005
-3.110651e-004,-6.197072e-005
-3.886944e-004,-4.074016e-005
-3.687603e-004,-1.724069e-005
-2.582318e-004,7.069105e-006
-1.000561e-004,2.862379e-005
4.985435e-005,4.661304e-005
1.466074e-004,6.314371e-005
1.757791e-004,8.145709e-005
1.511452e-004,9.750156e-005
9.782569e-005,1.049566e-004
4.369587e-005,1.033359e-004
8.203562e-006,9.814982e-005
-8.651231e-006,9.782569e-005
-1.853722e-005,1.093323e-004
-2.907146e-005,1.365593e-004
-4.657452e-005,1.759412e-004
-8.141856e-005,2.175920e-004
-1.509446e-004,2.524360e-004
-2.699005e-004,2.733424e-004
-4.254832e-004,2.778803e-004
-5.687489e-004,2.736666e-004
-6.342233e-004,2.725321e-004
-5.825245e-004,2.809595e-004
-4.227281e-004,2.955454e-004
-2.065330e-004,3.083486e-004
2.693341e-006,3.127243e-004
1.621656e-004,3.051073e-004
2.602152e-004,2.876042e-004
3.049452e-004,2.626462e-004
3.086727e-004,2.388225e-004
2.835526e-004,2.268297e-004
2.467637e-004,2.263435e-004
2.093267e-004,2.286124e-004
1.785342e-004,2.234263e-004
1.611932e-004,2.086784e-004
1.526038e-004,1.864754e-004
1.404489e-004,1.628139e-004
1.266733e-004,1.438522e-004
1.316974e-004,1.273216e-004
1.743205e-004,1.096565e-004
2.516257e-004,8.956036e-005
3.303894e-004,6.751948e-005
3.647473e-004,4.596478e-005
3.264999e-004,2.878586e-005
2.193747e-004,1.906194e-005
7.140904e-005,1.193106e-005
-7.542214e-005,1.883015e-006
-1.807646e-004,-1.351319e-005
-2.151224e-004,-3.377136e-005
-1.737958e-004,-5.402952e-005
-8.384954e-005,-6.974985e-005
1.322759e-005,-7.963584e-005
8.323981e-005,-8.449780e-005
1.124116e-004,-8.644259e-005
9.863601e-005,-8.984595e-005
5.374392e-005,-9.859748e-005
2.531276e-006,-1.157764e-004
-3.798505e-005,-1.360346e-004
-6.991193e-005,-1.520790e-004
-9.114248e-005,-1.632615e-004
-8.806324e-005,-1.749302e-004
-4.965376e-005,-1.904885e-004
2.035846e-005,-2.057227e-004
1.057669e-004,-2.185258e-004
1.829100e-004,-2.238740e-004
2.300710e-004,-2.237119e-004
2.344468e-004,-2.180396e-004
1.923098e-004,-2.097743e-004
1.111150e-004,-1.985918e-004
6.744974e-006,-1.882196e-004
-1.067007e-004,-1.809267e-004
-2.198223e-004,-1.741199e-004
-3.305129e-004,-1.650443e-004
-4.321279e-004,-1.532135e-004
-5.095950e-004,-1.396000e-004
-5.512458e-004,-1.271210e-004
-5.577285e-004,-1.165867e-004
-5.410357e-004,-1.070249e-004
-5.178604e-004,-1.008664e-004
-4.972781e-004,-9.632857e-005
-4.830164e-004,-8.919769e-005
-4.690787e-004,-7.817725e-005
-4.494688e-004,-6.294311e-005
-4.228902e-004,-4.479180e-005
-3.906392e-004,-2.485776e-005
-3.457471e-004,-6.220252e-006
-2.817312e-004,9.824215e-006
-2.031296e-004,2.311357e-005
-1.120489e-004,3.510641e-005
-1.464765e-005,4.823370e-005
7.967438e-005,6.638502e-005
1.589243e-004,9.037068e-005
2.090025e-004,1.179218e-004
2.331503e-004,1.456350e-004
2.402811e-004,1.697827e-004
2.412535e-004,1.882582e-004
2.451431e-004,2.033302e-004
2.572980e-004,2.127300e-004
2.748010e-004,2.153231e-004
2.889007e-004,2.104611e-004
2.932765e-004,2.015475e-004
2.799871e-004,1.929580e-004
2.388225e-004,1.853410e-004
1.581140e-004,1.769136e-004
4.596478e-005,1.684862e-004
-6.148453e-005,1.631380e-004
-1.196660e-004,1.654069e-004
-1.028112e-004,1.743205e-004
-1.367526e-005,1.851789e-004
1.221355e-004,1.916615e-004
2.704253e-004,1.934442e-004
4.119083e-004,1.958752e-004
5.373470e-004,1.989545e-004
6.465791e-004,2.012234e-004
7.410632e-004,2.007372e-004
8.191788e-004,1.978200e-004
8.804395e-004,1.952270e-004
9.258178e-004,1.932822e-004
9.554758e-004,1.905271e-004
9.609861e-004,1.833962e-004
9.292212e-004,1.694586e-004
8.481885e-004,1.506590e-004
6.979538e-004,1.321835e-004
4.508040e-004,1.179218e-004
9.879808e-005,1.072255e-004
-3.358611e-004,1.015532e-004
-7.985575e-004,9.717743e-005
-1.206314e-003,9.053275e-005
-1.481987e-003,8.032264e-005
-1.603374e-003,6.719535e-005
-1.602563e-003,5.163707e-005
-1.537089e-003,3.494434e-005
-1.462215e-003,1.452411e-005
-1.396741e-003,-1.432352e-005
-1.304363e-003,-5.273300e-005
-1.126254e-003,-9.422172e-005
-8.466908e-004,-1.342519e-004
-5.071641e-004,-1.673132e-004
-1.763888e-004,-1.914609e-004
8.875003e-005,-2.065330e-004
2.671840e-004,-2.160948e-004
3.587509e-004,-2.246843e-004
3.623164e-004,-2.298704e-004
2.961937e-004,-2.284118e-004
2.052750e-004,-2.216050e-004
1.461212e-004,-2.109087e-004
1.616794e-004,-1.959987e-004
2.743149e-004,-1.767130e-004
4.770586e-004,-1.536997e-004
7.245325e-004,-1.298761e-004
9.549896e-004,-1.136696e-004
1.117217e-003,-1.101041e-004
1.187392e-003,-1.151281e-004
1.173778e-003,-1.224211e-004
1.101821e-003,-1.261486e-004
1.003609e-003,-1.209625e-004
9.060458e-004,-1.107524e-004
8.193408e-004,-9.697683e-005
7.468975e-004,-8.417367e-005
6.964952e-004,-7.218083e-005
6.652166e-004,-5.710876e-005
6.234037e-004,-3.960571e-005
5.332953e-004,-2.080613e-005
3.803056e-004,-7.516774e-006
1.694586e-004,-2.168618e-006
-8.563225e-005,-4.599598e-006
-3.679500e-004,-7.354709e-006
-6.486471e-004,-4.275467e-006
-8.873693e-004,1.209313e-005
-1.046841e-003,3.721326e-005
-1.108426e-003,6.265751e-005
-1.087520e-003,8.194328e-005
-1.023180e-003,9.328786e-005
-9.654847e-004,1.028497e-004
-9.411749e-004,1.140322e-004
-9.251304e-004,1.326697e-004
-8.575493e-004,1.590864e-004
-6.990494e-004,1.851789e-004
-4.557894e-004,2.031682e-004
-1.838438e-004,2.101370e-004
5.568870e-005,2.112714e-004
2.308813e-004,2.114335e-004
3.415720e-004,2.119197e-004
4.054258e-004,2.138645e-004
4.461041e-004,2.174299e-004
4.814344e-004,2.226160e-004
5.153061e-004,2.299089e-004
5.454503e-004,2.394708e-004
5.653843e-004,2.469258e-004
5.679773e-004,2.461155e-004
5.480433e-004,2.372019e-004
5.052580e-004,2.258573e-004
4.524247e-004,2.153231e-004
4.025085e-004,2.064095e-004
3.658818e-004,1.974959e-004
3.436788e-004,1.840444e-004
3.367100e-004,1.662173e-004
3.401134e-004,1.501728e-004
3.383307e-004,1.406109e-004
3.140208e-004,1.357490e-004
2.713977e-004,1.281319e-004
2.287745e-004,1.112771e-004
1.987924e-004,8.550872e-005
1.804790e-004,5.504044e-005
1.636242e-004,2.748934e-005
1.414213e-004,1.209313e-005
1.135460e-004,1.144487e-005
8.729144e-005,1.825161e-005
6.492643e-005,1.808955e-005
4.320967e-005,3.503668e-006
2.878586e-005,-2.161646e-005
2.651694e-005,-5.046408e-005
2.992031e-005,-7.558420e-005
3.024445e-005,-9.227693e-005
2.457216e-005,-9.811128e-005
2.149292e-005,-9.730096e-005
2.619281e-005,-9.827335e-005
3.980630e-005,-1.042698e-004
6.379197e-005,-1.154523e-004
9.896015e-005,-1.284175e-004
1.375317e-004,-1.391138e-004
1.633001e-004,-1.468929e-004
1.603829e-004,-1.520790e-004
1.219734e-004,-1.541859e-004
5.601284e-005,-1.498101e-004
-1.950961e-005,-1.400862e-004
-8.384954e-005,-1.316588e-004
-1.170729e-004,-1.284175e-004
-1.122110e-004,-1.306864e-004
-7.720486e-005,-1.389517e-004
-2.372331e-005,-1.509446e-004
3.932010e-005,-1.627754e-004
1.205148e-004,-1.703924e-004
2.239125e-004,-1.724993e-004
3.350894e-004,-1.703924e-004
4.260080e-004,-1.669890e-004
4.710622e-004,-1.624512e-004
4.610142e-004,-1.566169e-004
4.068843e-004,-1.477033e-004
3.286068e-004,-1.340898e-004
2.370398e-004,-1.178833e-004
1.359110e-004,-1.003802e-004
2.927205e-005,-8.141856e-005
-7.817725e-005,-6.148453e-005
-1.932436e-004,-4.317115e-005
-3.241924e-004,-2.566809e-005
-4.736166e-004,-4.599598e-006
-6.376266e-004,2.262738e-005
-8.076332e-004,5.520250e-005
-9.693743e-004,8.826383e-005
-1.113126e-003,1.218114e-004
-1.233379e-003,1.495245e-004
-1.332401e-003,1.684862e-004
-1.410354e-003,1.791825e-004
-1.457515e-003,1.879340e-004
-1.446008e-003,1.999268e-004
-1.354928e-003,2.151610e-004
-1.172604e-003,2.287745e-004
-9.034137e-004,2.381743e-004
-5.723144e-004,2.451431e-004
-2.279256e-004,2.509774e-004
7.497447e-005,2.542187e-004
2.971661e-004,2.524360e-004
4.308700e-004,2.428742e-004
4.903480e-004,2.271538e-004
5.015305e-004,2.098128e-004
4.887274e-004,1.966855e-004
4.627969e-004,1.931201e-004
4.239012e-004,1.996027e-004
3.777126e-004,2.112714e-004
3.337929e-004,2.221298e-004
2.937627e-004,2.274780e-004
2.529222e-004,2.235884e-004
2.138645e-004,2.138645e-004
1.820997e-004,2.007372e-004
1.618415e-004,1.822617e-004
1.561692e-004,1.624898e-004
1.598967e-004,1.438522e-004
1.645966e-004,1.269974e-004
1.650828e-004,1.104668e-004
1.598967e-004,9.182927e-005
1.615174e-004,6.946425e-005
1.851789e-004,4.790957e-005
2.328261e-004,3.121684e-005
2.854973e-004,2.019640e-005
3.114278e-004,1.306552e-005
2.801492e-004,6.907040e-006
1.889064e-004,-6.176923e-008
6.638502e-005,-8.489166e-006
-4.414354e-005,-2.031993e-005
-1.062146e-004,-3.668853e-005
-1.050801e-004,-5.678463e-005
-4.997789e-005,-7.931171e-005
3.769945e-005,-1.039456e-004
1.307250e-004,-1.303623e-004
2.028440e-004,-1.574272e-004
2.490327e-004,-1.786577e-004
2.859836e-004,-1.896782e-004
3.266619e-004,-1.888679e-004
3.767402e-004,-1.801163e-004
4.303838e-004,-1.721751e-004
4.734932e-004,-1.737958e-004
4.947237e-004,-1.841680e-004
4.992616e-004,-1.955125e-004
4.973168e-004,-2.003745e-004
4.937514e-004,-1.963229e-004
4.924549e-004,-1.848162e-004
4.948858e-004,-1.690959e-004
5.020167e-004,-1.507825e-004
5.070407e-004,-1.311726e-004
4.947237e-004,-1.131834e-004
4.420525e-004,-1.005423e-004
3.329825e-004,-9.697683e-005
1.678379e-004,-1.032974e-004
-4.122636e-005,-1.149661e-004
-2.613110e-004,-1.263107e-004
-4.658375e-004,-1.306864e-004
-6.450817e-004,-1.263107e-004
-7.836475e-004,-1.143178e-004
-8.512287e-004,-9.746302e-005
-8.241638e-004,-7.866345e-005
-7.063423e-004,-5.905355e-005
-5.269361e-004,-4.236082e-005
-3.308371e-004,-2.842320e-005
-1.532135e-004,-1.529591e-005
-1.448558e-005,-2.978945e-006
7.594687e-005,1.047248e-005
1.235941e-004,2.781346e-005
1.373696e-004,4.953022e-005
1.240803e-004,7.205730e-005
8.826383e-005,9.101894e-005
3.867184e-005,1.030118e-004
-1.383732e-005,1.093323e-004
-5.419158e-005,1.167873e-004
-7.412562e-005,1.328318e-004
-7.882551e-005,1.600588e-004
-8.968389e-005,1.955511e-004
-1.345760e-004,2.300710e-004
-2.295462e-004,2.550291e-004
-3.681121e-004,2.642668e-004
-5.100812e-004,2.610255e-004
-5.916001e-004,2.538946e-004
-5.637249e-004,2.491947e-004
-4.188385e-004,2.498430e-004
-1.956746e-004,2.508154e-004
4.158902e-005,2.478982e-004
2.344468e-004,2.391467e-004
3.577785e-004,2.239125e-004
4.214702e-004,2.059233e-004
4.475628e-004,1.916615e-004
4.512903e-004,1.872858e-004
4.357320e-004,1.937684e-004
3.994293e-004,2.054371e-004
3.459477e-004,2.135403e-004
2.837146e-004,2.138645e-004
2.239125e-004,2.065715e-004
1.814514e-004,1.953890e-004
1.673517e-004,1.824238e-004
1.798307e-004,1.673517e-004
2.081922e-004,1.474177e-004
2.367157e-004,1.250527e-004
2.527602e-004,1.018773e-004
2.535705e-004,7.886404e-005
2.422259e-004,5.536457e-005
2.208333e-004,3.137890e-005
1.932822e-004,9.175954e-006
1.636242e-004,-6.544382e-006
1.435281e-004,-1.205460e-005
1.492004e-004,-7.516774e-006
2.007372e-004,-5.479652e-007
3.013798e-004,1.002961e-007
4.279528e-004,-7.678839e-006
5.423710e-004,-2.323711e-005
6.073592e-004,-4.138842e-005
6.101143e-004,-5.662256e-005
5.605224e-004,-6.586029e-005
4.820827e-004,-7.153257e-005
4.041292e-004,-7.234290e-005
3.499994e-004,-7.218083e-005
3.182346e-004,-7.785312e-005
2.931144e-004,-9.243900e-005
2.530843e-004,-1.114006e-004
1.822617e-004,-1.303623e-004
7.351589e-005,-1.442999e-004
-6.861539e-005,-1.528894e-004
-2.295462e-004,-1.566169e-004
-4.002010e-004,-1.556445e-004
-5.792832e-004,-1.532135e-004
-7.718167e-004,-1.549962e-004
-9.870394e-004,-1.598582e-004
-1.215551e-003,-1.635857e-004
-1.414406e-003,-1.614788e-004
-1.509376e-003,-1.535376e-004
-1.432881e-003,-1.428413e-004
-1.174873e-003,-1.302002e-004
-7.985575e-004,-1.177212e-004
-4.097628e-004,-1.067007e-004
-1.003802e-004,-9.827335e-005
8.080883e-005,-9.211487e-005
1.430419e-004,-8.611845e-005
1.300767e-004,-7.785312e-005
9.490851e-005,-6.634648e-005
7.529860e-005,-5.386745e-005
8.097089e-005,-3.992984e-005
1.023635e-004,-2.307504e-005
1.222976e-004,-6.706447e-006
1.325077e-004,7.231170e-006
1.368834e-004,1.938607e-005
1.407730e-004,3.332369e-005
1.501728e-004,4.823370e-005
1.701068e-004,5.941620e-005
1.979821e-004,6.622294e-005
2.282883e-004,7.189524e-005
2.521119e-004,7.951231e-005
2.683184e-004,9.020862e-005
2.887387e-004,1.043083e-004
3.232586e-004,1.213252e-004
3.642611e-004,1.393144e-004
3.947294e-004,1.555210e-004
4.018603e-004,1.715654e-004
3.908399e-004,1.851789e-004
3.749574e-004,1.926339e-004
3.605336e-004,1.945787e-004
3.431926e-004,1.918236e-004
3.200173e-004,1.880961e-004
2.991108e-004,1.861513e-004
2.944109e-004,1.858272e-004
3.112658e-004,1.830721e-004
3.402755e-004,1.777239e-004
3.675024e-004,1.736723e-004
3.811159e-004,1.772377e-004
3.775505e-004,1.861513e-004
3.558337e-004,1.971717e-004
3.185587e-004,2.033302e-004
2.710735e-004,2.018716e-004
2.141886e-004,1.911753e-004
1.386662e-004,1.741585e-004
4.304761e-005,1.530900e-004
-6.926366e-005,1.333180e-004
-1.776853e-004,1.179218e-004
-2.499665e-004,1.022015e-004
-2.579077e-004,8.113296e-005
-2.088019e-004,5.358185e-005
-1.417068e-004,2.408596e-005
-9.730096e-005,1.234753e-006
-9.179074e-005,-8.002969e-006
-1.256624e-004,-6.706447e-006
-1.825473e-004,-5.734056e-006
-2.444563e-004,-1.124428e-005
-2.945344e-004,-2.485776e-005
-3.235441e-004,-3.960571e-005
-3.308371e-004,-4.689865e-005
-3.131719e-004,-4.754691e-005
-2.713591e-004,-4.770897e-005
-2.092881e-004,-5.257093e-005
-1.387897e-004,-6.423963e-005
-7.299116e-005,-8.141856e-005
-2.015787e-005,-1.007043e-004
1.063454e-005,-1.212866e-004
1.014835e-005,-1.426792e-004
-2.583016e-005,-1.648822e-004
-1.003802e-004,-1.830335e-004
-2.126914e-004,-1.942160e-004
-3.305129e-004,-1.955125e-004
-3.955011e-004,-1.862748e-004
-3.614674e-004,-1.726613e-004
-2.235498e-004,-1.614788e-004
-2.647842e-005,-1.562927e-004
1.576278e-004,-1.561307e-004
2.712356e-004,-1.590478e-004
2.942489e-004,-1.616409e-004
2.428742e-004,-1.606685e-004
1.513072e-004,-1.562927e-004
4.888196e-005,-1.477033e-004
-4.722278e-005,-1.326312e-004
-1.255003e-004,-1.096179e-004
-1.770371e-004,-8.465986e-005
-2.011848e-004,-6.602235e-005
-2.000504e-004,-5.613637e-005
-1.807646e-004,-5.159854e-005
-1.548341e-004,-4.641245e-005
-1.314967e-004,-3.571614e-005
-1.151281e-004,-2.339918e-005
-1.062146e-004,-1.173047e-005
-1.008664e-004,1.002961e-007
-9.211487e-005,1.403791e-005
-7.153257e-005,3.445814e-005
-3.895745e-005,5.957827e-005
-2.654814e-006,8.226741e-005
3.056858e-005,9.571884e-005
5.601284e-005,9.426025e-005
6.881599e-005,8.291568e-005
6.751948e-005,6.995045e-005
5.309566e-005,6.897806e-005
3.316162e-005,8.664318e-005
1.987227e-005,1.193804e-004
1.954813e-005,1.605450e-004
3.089271e-005,2.013854e-004
4.871989e-005,2.362295e-004
6.768154e-005,2.594049e-004
8.307774e-005,2.699391e-004
9.588091e-005,2.720459e-004
1.057669e-004,2.710735e-004
1.132219e-004,2.684805e-004
1.179218e-004,2.624841e-004
1.187321e-004,2.558394e-004
1.188942e-004,2.482223e-004
1.208390e-004,2.388225e-004
1.222976e-004,2.295848e-004
1.193804e-004,2.281262e-004
1.127357e-004,2.336365e-004
1.094944e-004,2.419018e-004
1.154908e-004,2.467637e-004
1.257009e-004,2.412535e-004
1.333180e-004,2.245608e-004
1.351007e-004,2.013854e-004
1.323456e-004,1.820997e-004
1.240803e-004,1.707551e-004
1.057669e-004,1.647587e-004
8.388807e-005,1.605450e-004
6.832980e-005,1.506590e-004
6.346784e-005,1.336421e-004
6.768154e-005,1.114392e-004
7.481241e-005,8.777764e-005
7.740546e-005,6.703327e-005
7.659513e-005,4.645098e-005
7.351589e-005,2.295151e-005
7.173317e-005,-2.330684e-006
7.124698e-005,-2.518189e-005
7.513654e-005,-4.171256e-005
8.810177e-005,-5.176061e-005
1.119254e-004,-5.872941e-005
1.631380e-004,-6.764301e-005
2.595669e-004,-8.287715e-005
3.897054e-004,-1.018388e-004
5.260024e-004,-1.240417e-004
6.511169e-004,-1.489998e-004
7.585663e-004,-1.712027e-004
8.446231e-004,-1.822232e-004
9.062079e-004,-1.820611e-004
9.337591e-004,-1.780095e-004
9.190111e-004,-1.754164e-004
8.674743e-004,-1.763888e-004
7.857933e-004,-1.807646e-004
6.888782e-004,-1.820611e-004
6.075213e-004,-1.786577e-004
5.610085e-004,-1.710407e-004
5.423710e-004,-1.592099e-004
5.277851e-004,-1.488377e-004
4.905101e-004,-1.431655e-004
3.916502e-004,-1.431655e-004
2.018716e-004,-1.449482e-004
-8.628052e-005,-1.486757e-004
-4.731304e-004,-1.540238e-004
-9.696984e-004,-1.553203e-004
-1.573230e-003,-1.478653e-004
-2.237698e-003,-1.302002e-004
-2.840744e-003,-1.097800e-004
-3.221112e-003,-9.162867e-005
-3.263412e-003,-7.299116e-005
-2.949652e-003,-4.754691e-005
-2.365892e-003,-1.383732e-005
-1.657666e-003,2.262738e-005
-9.701846e-004,5.293359e-005
-4.183523e-004,6.865393e-005
-6.796714e-005,7.319176e-005
8.097089e-005,7.481241e-005
7.837785e-005,7.351589e-005
-4.275467e-006,6.946425e-005
-1.002181e-004,6.768154e-005
-1.579134e-004,7.059871e-005
-1.522411e-004,7.902610e-005
-8.012204e-005,9.344993e-005
4.499239e-005,1.146805e-004
1.979821e-004,1.391524e-004
3.538890e-004,1.639484e-004
4.931031e-004,1.889064e-004
5.999042e-004,2.106232e-004
6.657028e-004,2.243987e-004
7.008709e-004,2.243987e-004
7.253428e-004,2.148369e-004
7.410632e-004,2.047888e-004
7.358771e-004,1.979821e-004
6.994124e-004,1.929580e-004
6.363689e-004,1.889064e-004
5.665187e-004,1.825859e-004
5.133613e-004,1.725378e-004
4.871067e-004,1.620036e-004
4.848378e-004,1.527658e-004
4.968306e-004,1.480659e-004
5.120648e-004,1.508211e-004
5.203301e-004,1.566554e-004
5.131993e-004,1.589243e-004
4.926169e-004,1.547106e-004
4.660382e-004,1.470936e-004
4.414042e-004,1.432040e-004
4.258460e-004,1.414213e-004
4.185530e-004,1.376938e-004
4.187151e-004,1.271595e-004
4.209840e-004,1.101427e-004
4.162841e-004,8.826383e-005
4.015361e-004,6.233338e-005
3.811159e-004,3.380988e-005
3.616681e-004,5.448452e-006
3.459477e-004,-2.226472e-005
3.373583e-004,-4.122636e-005
3.308757e-004,-4.851930e-005
3.162898e-004,-4.527799e-005
2.905214e-004,-3.992984e-005
2.639427e-004,-4.057810e-005
2.433604e-004,-5.127441e-005
2.274780e-004,-6.974985e-005
2.222919e-004,-9.357346e-005
2.282883e-004,-1.199901e-004
2.380122e-004,-1.462447e-004
2.401191e-004,-1.699062e-004
2.245608e-004,-1.906506e-004
1.923098e-004,-2.039399e-004
1.522796e-004,-2.068571e-004
1.114392e-004,-2.016710e-004
6.525056e-005,-1.924333e-004
1.128280e-005,-1.806025e-004
-4.544006e-005,-1.640719e-004
-9.665270e-005,-1.449482e-004
-1.344139e-004,-1.284175e-004
-1.566169e-004,-1.161005e-004
-1.590478e-004,-1.089697e-004
-1.400862e-004,-1.045939e-004
-1.045939e-004,-1.005423e-004
-6.051213e-005,-9.762509e-005
-1.853722e-005,-9.568031e-005
1.257933e-005,-9.454585e-005
3.445814e-005,-9.114248e-005
5.163707e-005,-8.433573e-005
6.914012e-005,-7.688073e-005
8.372601e-005,-7.056019e-005
8.486046e-005,-6.488790e-005
6.541262e-005,-6.002594e-005
2.473423e-005,-5.937768e-005
-2.939559e-005,-6.035007e-005
-8.919769e-005,-5.597430e-005
-1.486757e-004,-4.155049e-005
-2.047502e-004,-2.129233e-005
-2.606628e-004,-2.238346e-007
-3.183580e-004,1.808955e-005
-3.674638e-004,3.478228e-005
-3.724878e-004,4.985435e-005
-3.031239e-004,6.281957e-005
-1.710407e-004,7.481241e-005
-2.258885e-005,8.599492e-005
9.053275e-005,9.409818e-005
1.577899e-004,9.669123e-005
2.039785e-004,9.879808e-005
2.715597e-004,1.034980e-004
3.780367e-004,1.133840e-004
5.117406e-004,1.295905e-004
6.481997e-004,1.496866e-004
7.655351e-004,1.678379e-004
8.478644e-004,1.846927e-004
8.786568e-004,1.986303e-004
8.342508e-004,2.091646e-004
6.974676e-004,2.172679e-004
4.676588e-004,2.247229e-004
1.620036e-004,2.346088e-004
-2.036158e-004,2.453052e-004
-6.173685e-004,2.543808e-004
-1.052028e-003,2.613496e-004
-1.452329e-003,2.652392e-004
-1.740805e-003,2.605393e-004
-1.842258e-003,2.517878e-004
-1.722654e-003,2.444948e-004
-1.417161e-003,2.440086e-004
-1.025611e-003,2.469258e-004
-6.637191e-004,2.462775e-004
-4.151110e-004,2.370398e-004
-3.096065e-004,2.198609e-004
-3.292164e-004,2.028440e-004
-4.261314e-004,1.914995e-004
-5.468701e-004,1.848548e-004
-6.395715e-004,1.788584e-004
-6.734431e-004,1.663793e-004
-6.385990e-004,1.399627e-004
-5.381186e-004,1.017153e-004
-3.872358e-004,6.168512e-005
-2.118811e-004,2.781346e-005
-5.451572e-005,3.503668e-006
4.207521e-005,-9.137427e-006
5.309566e-005,-1.675450e-005
-2.566809e-005,-2.388537e-005
-1.731475e-004,-2.664048e-005
-3.275957e-004,-2.404744e-005
-4.057112e-004,-2.242678e-005
-3.569296e-004,-2.939559e-005
-1.929195e-004,-4.446767e-005
2.311357e-005,-6.748094e-005
2.196988e-004,-9.713889e-005
3.493511e-004,-1.264727e-004
4.060740e-004,-1.493239e-004
4.128807e-004,-1.635857e-004
4.034809e-004,-1.712027e-004
3.935950e-004,-1.755785e-004
3.875985e-004,-1.781716e-004
3.798194e-004,-1.793060e-004
3.700955e-004,-1.773612e-004
3.598854e-004,-1.716889e-004
3.553475e-004,-1.655305e-004
3.603715e-004,-1.632615e-004
3.731747e-004,-1.652063e-004
3.875985e-004,-1.668270e-004
3.982949e-004,-1.663408e-004
4.038051e-004,-1.639098e-004
4.013741e-004,-1.622891e-004
3.850055e-004,-1.637477e-004
3.540510e-004,-1.690959e-004
3.162898e-004,-1.783336e-004
2.812837e-004,-1.882196e-004
2.542187e-004,-1.932436e-004
2.368777e-004,-1.893541e-004
2.261814e-004,-1.746061e-004
2.137024e-004,-1.527273e-004
1.965235e-004,-1.329553e-004
1.806411e-004,-1.188556e-004
1.808031e-004,-1.060525e-004
2.033302e-004,-8.790117e-005
2.475741e-004,-6.553616e-005
3.102934e-004,-4.430560e-005
3.781987e-004,-2.404744e-005
4.365423e-004,-4.113403e-006
4.751139e-004,1.582063e-005
4.901859e-004,3.721326e-005
4.846757e-004,6.119892e-005
4.725208e-004,8.567078e-005
4.757621e-004,1.106288e-004
5.123889e-004,1.372076e-004
5.751082e-004,1.654069e-004
6.285898e-004,1.961994e-004
6.269692e-004,2.300710e-004
5.404262e-004,2.608634e-004
3.811159e-004,2.825802e-004
1.987924e-004,2.944109e-004
5.552663e-005,3.005694e-004
-4.437533e-006,3.042970e-004
2.684107e-005,3.052694e-004
1.138702e-004,3.012177e-004
2.043026e-004,2.897111e-004
2.571359e-004,2.707494e-004
2.488706e-004,2.466017e-004
1.786963e-004,2.219677e-004
6.006447e-005,2.055991e-004
-9.260107e-005,1.997648e-004
-2.710350e-004,2.033302e-004
-4.728062e-004,2.106232e-004
-7.076389e-004,2.153231e-004
-9.837981e-004,2.158093e-004
-1.273571e-003,2.125679e-004
-1.513103e-003,2.077060e-004
-1.642432e-003,2.034923e-004
-1.637732e-003,2.010613e-004
-1.512293e-003,1.968476e-004
-1.297557e-003,1.876099e-004
-1.021397e-003,1.714034e-004
-7.120146e-004,1.462832e-004
-3.974459e-004,1.116012e-004
-1.081593e-004,7.448828e-005
1.302388e-004,3.996837e-005
3.030004e-004,7.393236e-006
4.120704e-004,-1.821308e-005
4.627969e-004,-3.393342e-005
4.618245e-004,-3.879538e-005
4.255218e-004,-3.798505e-005
3.769022e-004,-3.604027e-005
3.358997e-004,-3.636440e-005
3.136967e-004,-4.041603e-005
3.136967e-004,-4.965376e-005
3.284447e-004,-6.602235e-005
3.438409e-004,-8.806324e-005
3.516200e-004,-1.122110e-004
3.488649e-004,-1.357104e-004
3.339549e-004,-1.566169e-004
3.102934e-004,-1.724993e-004
2.905214e-004,-1.802784e-004
2.978143e-004,-1.806025e-004
3.514580e-004,-1.799543e-004
4.391353e-004,-1.848162e-004
5.297299e-004,-1.921092e-004
5.924492e-004,-1.956746e-004
6.167590e-004,-1.935677e-004
6.021731e-004,-1.882196e-004
5.626292e-004,-1.810887e-004
5.117406e-004,-1.757406e-004
4.580970e-004,-1.750923e-004
4.080188e-004,-1.778474e-004
3.624784e-004,-1.846542e-004
3.169380e-004,-1.932436e-004
2.689667e-004,-2.000504e-004
2.104611e-004,-1.963229e-004
1.300767e-004,-1.781716e-004
2.473423e-005,-1.475412e-004
-9.973194e-005,-1.125351e-004
-2.339220e-004,-7.736692e-005
-3.677880e-004,-4.641245e-005
-4.799371e-004,-2.129233e-005
-5.463839e-004,-7.516774e-006
-5.565940e-004,7.485573e-007
-5.246671e-004,9.013889e-006
-4.655133e-004,2.295151e-005
-3.788084e-004,4.223728e-005
-2.669833e-004,6.427817e-005
-1.483515e-004,8.680524e-005
-4.398147e-005,1.083599e-004
4.207521e-005,1.274836e-004
1.145184e-004,1.420695e-004
1.704310e-004,1.509831e-004
1.992786e-004,1.553589e-004
1.859892e-004,1.584381e-004
1.273216e-004,1.628139e-004
4.029250e-005,1.717275e-004
-3.863332e-005,1.845306e-004
-8.239095e-005,2.000889e-004
-9.276313e-005,2.171058e-004
-9.146661e-005,2.313675e-004
-1.023250e-004,2.370398e-004
-1.361966e-004,2.333123e-004
-1.869231e-004,2.216436e-004
-2.376495e-004,2.083542e-004
-2.655248e-004,1.971717e-004
-2.652006e-004,1.923098e-004
-2.509389e-004,1.921477e-004
-2.433218e-004,1.960373e-004
-2.543422e-004,2.018716e-004
-2.729798e-004,2.081922e-004
-2.734659e-004,2.162954e-004
-2.342462e-004,2.243987e-004
-1.496481e-004,2.331503e-004
-2.647842e-005,2.425500e-004
1.117633e-004,2.440086e-004
2.320158e-004,2.347709e-004
3.044590e-004,2.167816e-004
3.143450e-004,1.929580e-004
2.728562e-004,1.657311e-004
2.088404e-004,1.375317e-004
1.573037e-004,1.090082e-004
1.373696e-004,8.129502e-005
1.524417e-004,5.212327e-005
1.906891e-004,2.197911e-005
2.357433e-004,-7.192643e-006
2.709115e-004,-3.150244e-005
2.820940e-004,-4.916756e-005
2.610255e-004,-6.359137e-005
2.093267e-004,-7.558420e-005
1.383420e-004,-8.498399e-005
6.914012e-005,-8.968389e-005
2.100672e-005,-9.389759e-005
2.369211e-006,-1.034594e-004
1.403791e-005,-1.208004e-004
4.661304e-005,-1.428413e-004
8.696731e-005,-1.655305e-004
1.242423e-004,-1.822232e-004
1.503349e-004,-1.888679e-004
1.671896e-004,-1.877334e-004
1.801549e-004,-1.828714e-004
1.897167e-004,-1.781716e-004
1.929580e-004,-1.762268e-004
1.895547e-004,-1.794681e-004
1.746447e-004,-1.848162e-004
1.432040e-004,-1.865989e-004
9.215340e-005,-1.801163e-004
3.040651e-005,-1.705545e-004
-3.101625e-005,-1.624512e-004
-7.882551e-005,-1.598582e-004
-1.008664e-004,-1.645581e-004
-9.033215e-005,-1.749302e-004
-4.884343e-005,-1.857886e-004
1.047248e-005,-1.934057e-004
7.011252e-005,-1.950263e-004
1.138702e-004,-1.882196e-004
1.378558e-004,-1.754164e-004
1.445005e-004,-1.583996e-004
1.448246e-004,-1.402483e-004
1.445005e-004,-1.242038e-004
1.378558e-004,-1.063766e-004
1.137081e-004,-8.320128e-005
6.152305e-005,-5.370539e-005
-2.113026e-005,-1.918548e-005
-1.267968e-004,1.695509e-005
-2.384598e-004,4.969229e-005
-3.237062e-004,7.724339e-005
-3.497987e-004,1.018773e-004
-3.083100e-004,1.229458e-004
-2.214430e-004,1.443384e-004
-1.261486e-004,1.641104e-004
-5.289507e-005,1.762653e-004
-2.031993e-005,1.830721e-004
-3.247483e-005,1.927960e-004
-7.542214e-005,2.133783e-004
-1.292278e-004,2.451431e-004
-1.797922e-004,2.832284e-004
-2.235498e-004,3.156415e-004
-2.559629e-004,3.337929e-004
-2.660110e-004,3.308757e-004
-2.408908e-004,3.120761e-004
-1.861127e-004,2.846870e-004
-1.225832e-004,2.577842e-004
-7.104638e-005,2.373639e-004
-3.928157e-005,2.261814e-004
-2.566809e-005,2.221298e-004
-2.420950e-005,2.206712e-004
-3.231277e-005,2.162954e-004
-5.224680e-005,2.057612e-004
-8.563225e-005,1.892305e-004
-1.245279e-004,1.720516e-004
-1.493239e-004,1.626518e-004
-1.438137e-004,1.657311e-004
-1.018388e-004,1.739964e-004
-3.555408e-005,1.757791e-004
3.154097e-005,1.629760e-004
8.194328e-005,1.368834e-004
1.093323e-004,1.062531e-004
1.111150e-004,8.048470e-005
9.361199e-005,6.330578e-005
6.541262e-005,5.520250e-005
4.288554e-005,5.601284e-005
3.445814e-005,6.006447e-005
4.126489e-005,6.006447e-005
6.022653e-005,5.050261e-005
8.599492e-005,3.137890e-005
1.128978e-004,7.717366e-006
1.477418e-004,-1.545797e-005
1.979821e-004,-3.555408e-005
2.666978e-004,-5.208474e-005
3.535648e-004,-6.278104e-005
4.704139e-004,-6.812920e-005
6.206486e-004,-7.072225e-005
7.849830e-004,-7.461182e-005
9.407279e-004,-8.465986e-005
1.070704e-003,-1.013526e-004
1.172482e-003,-1.243659e-004
1.250921e-003,-1.472171e-004
1.304565e-003,-1.669890e-004
1.319475e-003,-1.814128e-004
1.280903e-003,-1.895161e-004
1.180585e-003,-1.903264e-004
1.016737e-003,-1.883817e-004
7.835244e-004,-1.841680e-004
4.694416e-004,-1.768750e-004
6.881599e-005,-1.653684e-004
-3.933943e-004,-1.538618e-004
-8.745661e-004,-1.457585e-004
-1.339532e-003,-1.407345e-004
-1.776622e-003,-1.392759e-004
-2.204150e-003,-1.423551e-004
-2.646751e-003,-1.480274e-004
-3.090650e-003,-1.527273e-004
-3.432608e-003,-1.524032e-004
-3.511859e-003,-1.452723e-004
-3.231161e-003,-1.326312e-004
-2.627628e-003,-1.190177e-004
-1.850361e-003,-1.081593e-004
-1.080065e-003,-1.028112e-004
-4.509274e-004,-1.021629e-004
-1.318906e-005,-9.940781e-005
2.592428e-004,-8.854943e-005
4.266563e-004,-6.926366e-005
5.389676e-004,-4.511593e-005
6.211348e-004,-1.756482e-005
6.794783e-004,1.047248e-005
7.157810e-004,3.607880e-005
7.334462e-004,5.390598e-005
7.465734e-004,6.168512e-005
7.655351e-004,6.541262e-005
7.940586e-004,7.270556e-005
8.274441e-004,8.631905e-005
8.538608e-004,1.013911e-004
8.626123e-004,1.172735e-004
8.524022e-004,1.388282e-004
8.258235e-004,1.654069e-004
7.896828e-004,1.932822e-004
7.553250e-004,2.164575e-004
7.396046e-004,2.342847e-004
7.491665e-004,2.451431e-004
7.757452e-004,2.509774e-004
7.940586e-004,2.534084e-004
7.768797e-004,2.543808e-004
7.080019e-004,2.516257e-004
5.827253e-004,2.448189e-004
4.026706e-004,2.344468e-004
1.791825e-004,2.227781e-004
-7.655660e-005,2.141886e-004
-3.497987e-004,2.090025e-004
-6.034309e-004,2.065715e-004
-7.690616e-004,2.101370e-004
-7.880232e-004,2.193747e-004
-6.473506e-004,2.284504e-004
-3.882082e-004,2.339606e-004
-8.141856e-005,2.328261e-004
2.002510e-004,2.224539e-004
4.065602e-004,2.055991e-004
5.237334e-004,1.876099e-004
5.546879e-004,1.681620e-004
5.153061e-004,1.474177e-004
4.363802e-004,1.266733e-004
3.582647e-004,1.078737e-004
3.085106e-004,8.939829e-005
2.931144e-004,6.670914e-005
3.033245e-004,4.175109e-005
3.311998e-004,2.230325e-005
3.709058e-004,1.031041e-005
4.119083e-004,3.017472e-006
4.452938e-004,-4.923729e-006
4.652279e-004,-1.610624e-005
4.608521e-004,-2.939559e-005
4.175806e-004,-3.960571e-005
3.323342e-004,-4.479180e-005
2.164575e-004,-4.884343e-005
1.038221e-004,-5.840528e-005
2.554455e-005,-7.526008e-005
-8.489166e-006,-9.859748e-005
-6.544382e-006,-1.209625e-004
1.371378e-005,-1.396000e-004
2.829966e-005,-1.545100e-004
1.711715e-005,-1.629374e-004
-2.437157e-005,-1.609926e-004
-8.012204e-005,-1.522411e-004
-1.277692e-004,-1.415448e-004
-1.480274e-004,-1.350622e-004
-1.306864e-004,-1.353863e-004
-7.801519e-005,-1.379794e-004
-2.816880e-006,-1.386276e-004
7.967438e-005,-1.366828e-004
1.532520e-004,-1.370070e-004
2.059233e-004,-1.426792e-004
2.297469e-004,-1.520790e-004
2.252090e-004,-1.624512e-004
2.044647e-004,-1.681235e-004
1.830721e-004,-1.665028e-004
1.684862e-004,-1.585616e-004
1.618415e-004,-1.483515e-004
1.594105e-004,-1.410586e-004
1.564933e-004,-1.378173e-004
1.406109e-004,-1.374932e-004
9.344993e-005,-1.339277e-004
1.760335e-005,-1.201522e-004
-5.532604e-005,-9.470791e-005
-8.530812e-005,-6.035007e-005
-5.808115e-005,-2.420950e-005
6.582909e-006,9.500085e-006
7.983644e-005,3.883391e-005
1.445005e-004,6.233338e-005
1.924718e-004,8.048470e-005
2.274780e-004,9.442231e-005
2.665357e-004,1.044704e-004
3.242310e-004,1.047945e-004
3.892192e-004,9.944634e-005
4.284390e-004,9.798775e-005
4.008879e-004,1.080358e-004
2.945730e-004,1.304008e-004
1.282940e-004,1.574657e-004
-6.553616e-005,1.825859e-004
-2.575835e-004,1.992786e-004
-4.352071e-004,2.072198e-004
-6.011620e-004,2.099749e-004
-7.465345e-004,2.162954e-004
-8.470150e-004,2.250470e-004
-8.881796e-004,2.312055e-004
-8.760247e-004,2.297469e-004
-8.293499e-004,2.232643e-004
-7.671168e-004,2.171058e-004
-6.932151e-004,2.138645e-004
-6.027826e-004,2.141886e-004
-4.941989e-004,2.161334e-004
-3.732982e-004,2.175920e-004
-2.596904e-004,2.192126e-004
-1.712027e-004,2.188885e-004
-1.123730e-004,2.158093e-004
-8.384954e-005,2.068957e-004
-7.850138e-005,1.923098e-004
-7.736692e-005,1.730240e-004
-6.116039e-005,1.527658e-004
-2.437157e-005,1.372076e-004
2.716521e-005,1.292664e-004
8.486046e-005,1.234320e-004
1.496866e-004,1.143563e-004
2.180782e-004,9.928428e-005
2.777182e-004,7.999851e-005
3.119140e-004,5.730935e-005
3.115899e-004,3.672706e-005
2.720459e-004,2.327564e-005
1.973338e-004,1.760335e-005
1.031738e-004,1.873781e-005
1.598270e-005,2.165498e-005
-3.911951e-005,2.230325e-005
-5.095028e-005,1.679302e-005
-2.664048e-005,2.369211e-006
1.549650e-005,-2.194059e-005
5.325772e-005,-5.500191e-005
7.643307e-005,-9.017008e-005
7.821578e-005,-1.186936e-004
5.925414e-005,-1.371690e-004
2.765140e-005,-1.468929e-004
-5.896120e-006,-1.499722e-004
-3.490581e-005,-1.530514e-004
-5.240886e-005,-1.622891e-004
-5.402952e-005,-1.778474e-004
-4.349527e-005,-1.947022e-004
-2.955766e-005,-2.045882e-004
-1.886135e-005,-2.026434e-004
-1.351319e-005,-1.909747e-004
-1.772689e-005,-1.781716e-004
-3.409549e-005,-1.708786e-004
-5.646050e-005,-1.713648e-004
-6.910160e-005,-1.810887e-004
-5.451572e-005,-1.938919e-004
-9.785688e-006,-2.015090e-004
5.925414e-005,-1.977815e-004
1.389903e-004,-1.840059e-004
2.028440e-004,-1.635857e-004
2.316917e-004,-1.428413e-004
2.222919e-004,-1.285796e-004
1.804790e-004,-1.222590e-004
1.175977e-004,-1.196660e-004
4.904402e-005,-1.164247e-004
-1.270286e-005,-1.086455e-004
-5.889148e-005,-9.146661e-005
-8.498399e-005,-6.440170e-005
-8.935975e-005,-3.312309e-005
-7.850138e-005,-4.113403e-006
-6.132246e-005,1.922400e-005
-4.381940e-005,3.850978e-005
-3.263690e-005,5.617490e-005
-2.858527e-005,7.351589e-005
-3.085418e-005,9.020862e-005
-3.798505e-005,1.046324e-004
-5.143648e-005,1.179218e-004
-7.623246e-005,1.305629e-004
-1.146419e-004,1.449867e-004
-1.595340e-004,1.615174e-004
-1.885437e-004,1.769136e-004
-1.864369e-004,1.910133e-004
-1.493239e-004,2.025199e-004
-9.179074e-005,2.145127e-004
-3.069211e-005,2.261814e-004
1.614476e-005,2.349330e-004
3.543054e-005,2.431983e-004
2.538249e-005,2.521119e-004
-6.706447e-006,2.608634e-004
-5.273300e-005,2.660495e-004
-9.065628e-005,2.645909e-004
-9.713889e-005,2.551911e-004
-5.727083e-005,2.419018e-004
2.635488e-005,2.302331e-004
1.367214e-004,2.252090e-004
2.448189e-004,2.279642e-004
3.192070e-004,2.347709e-004
3.389789e-004,2.389846e-004
3.052694e-004,2.359054e-004
2.410915e-004,2.222919e-004
1.793446e-004,2.013854e-004
1.373696e-004,1.775618e-004
1.130598e-004,1.566554e-004
9.069481e-005,1.398006e-004
5.439218e-005,1.226217e-004
-5.734056e-006,9.993253e-005
-9.859748e-005,7.157111e-005
-2.271153e-004,3.753739e-005
-3.656811e-004,7.485573e-007
-4.658375e-004,-3.198864e-005
-4.833405e-004,-5.127441e-005
-4.018217e-004,-5.338126e-005
-2.486699e-004,-4.365734e-005
-8.125649e-005,-3.085418e-005
4.483033e-005,-1.950961e-005
1.111150e-004,-1.205460e-005
1.513072e-004,-1.205460e-005
2.339606e-004,-2.015787e-005
4.041292e-004,-3.798505e-005
6.530617e-004,-6.877746e-005
9.311661e-004,-1.105903e-004
1.177668e-003,-1.554824e-004
1.345244e-003,-1.930815e-004
1.412663e-003,-2.165810e-004
1.383005e-003,-2.245222e-004
1.274907e-003,-2.207947e-004
1.111221e-003,-2.100984e-004
9.075044e-004,-1.968091e-004
6.765611e-004,-1.851404e-004
4.464283e-004,-1.768750e-004
2.464396e-004,-1.746061e-004
8.129502e-005,-1.793060e-004
-6.634648e-005,-1.875713e-004
-2.241981e-004,-1.929195e-004
-4.219178e-004,-1.914609e-004
-6.737672e-004,-1.861127e-004
-9.732639e-004,-1.812508e-004
-1.307929e-003,-1.765509e-004
-1.651183e-003,-1.721751e-004
-1.943549e-003,-1.648822e-004
-2.109342e-003,-1.530514e-004
-2.089084e-003,-1.371690e-004
-1.871592e-003,-1.131834e-004
-1.498680e-003,-7.947377e-005
-1.051541e-003,-3.992984e-005
-6.097514e-004,-1.844488e-006
-2.345703e-004,3.267542e-005
4.013043e-005,5.941620e-005
2.057612e-004,7.319176e-005
2.803113e-004,7.756752e-005
2.934386e-004,7.983644e-005
2.765838e-004,8.372601e-005
2.581083e-004,9.037068e-005
2.616738e-004,9.944634e-005
3.049452e-004,1.098185e-004
3.866261e-004,1.198666e-004
4.861343e-004,1.282940e-004
5.704083e-004,1.372076e-004
6.122212e-004,1.495245e-004
5.979594e-004,1.667035e-004
5.389676e-004,1.867996e-004
4.611762e-004,2.059233e-004
3.968363e-004,2.205092e-004
3.686369e-004,2.290986e-004
3.791712e-004,2.344468e-004
4.123946e-004,2.363916e-004
4.446456e-004,2.370398e-004
4.506420e-004,2.381743e-004
4.073705e-004,2.407673e-004
3.044590e-004,2.401191e-004
1.407730e-004,2.381743e-004
-6.683268e-005,2.375260e-004
-2.818933e-004,2.376881e-004
-4.324520e-004,2.331503e-004
-4.496309e-004,2.226160e-004
-3.113892e-004,2.086784e-004
-5.856735e-005,1.971717e-004
2.231022e-004,1.926339e-004
4.427008e-004,1.916615e-004
5.483674e-004,1.923098e-004
5.404262e-004,1.952270e-004
4.521006e-004,1.970097e-004
3.310377e-004,1.970097e-004
2.231022e-004,1.926339e-004
1.558451e-004,1.788584e-004
1.407730e-004,1.553589e-004
1.668655e-004,1.255389e-004
2.128921e-004,9.312580e-005
2.585945e-004,6.087479e-005
2.910076e-004,3.073064e-005
3.115899e-004,3.503668e-006
3.383307e-004,-2.210265e-005
3.987811e-004,-4.592625e-005
5.055821e-004,-6.877746e-005
6.404206e-004,-8.725291e-005
7.666696e-004,-1.013526e-004
8.549952e-004,-1.120489e-004
9.016701e-004,-1.233935e-004
9.261420e-004,-1.366828e-004
9.371624e-004,-1.491618e-004
9.303557e-004,-1.577513e-004
8.955116e-004,-1.642339e-004
8.235546e-004,-1.694200e-004
7.036261e-004,-1.770371e-004
5.264886e-004,-1.880575e-004
2.872801e-004,-1.985918e-004
-5.896120e-006,-2.032917e-004
-3.361852e-004,-2.023193e-004
-6.855980e-004,-1.987538e-004
-1.029987e-003,-1.940539e-004
-1.341962e-003,-1.840059e-004
-1.602401e-003,-1.695821e-004
-1.805145e-003,-1.582375e-004
-1.929125e-003,-1.535376e-004
-1.938039e-003,-1.540238e-004
-1.800607e-003,-1.593720e-004
-1.522503e-003,-1.666649e-004
-1.153318e-003,-1.707166e-004
-7.667927e-004,-1.671511e-004
-4.309934e-004,-1.583996e-004
-1.900023e-004,-1.439758e-004
-5.078821e-005,-1.250141e-004
4.476060e-006,-1.063766e-004
1.209313e-005,-9.033215e-005
1.112074e-005,-7.201877e-005
2.878586e-005,-5.046408e-005
7.562274e-005,-2.485776e-005
1.482280e-004,2.693341e-006
2.289366e-004,2.538249e-005
3.015418e-004,3.688912e-005
3.592371e-004,3.996837e-005
4.028327e-004,4.077869e-005
4.273046e-004,4.677511e-005
4.261701e-004,6.152305e-005
3.978086e-004,7.951231e-005
3.436788e-004,9.669123e-005
2.743149e-004,1.125736e-004
2.067336e-004,1.307250e-004
1.493625e-004,1.534141e-004
1.039842e-004,1.749688e-004
6.784360e-005,1.921477e-004
4.142696e-005,2.028440e-004
2.667901e-005,2.046267e-004
2.716521e-005,2.028440e-004
3.494434e-005,2.049509e-004
4.142696e-005,2.106232e-004
3.218923e-005,2.172679e-004
-8.165035e-006,2.193747e-004
-7.428769e-005,2.190506e-004
-1.352242e-004,2.203471e-004
-1.606685e-004,2.229401e-004
-1.316588e-004,2.281262e-004
-4.641245e-005,2.365536e-004
7.627100e-005,2.461155e-004
2.046267e-004,2.538946e-004
3.064038e-004,2.555152e-004
3.692851e-004,2.504913e-004
3.961880e-004,2.435224e-004
3.982949e-004,2.341226e-004
3.867882e-004,2.247229e-004
3.590750e-004,2.145127e-004
3.052694e-004,2.020337e-004
2.218057e-004,1.879340e-004
1.195424e-004,1.718896e-004
2.133085e-005,1.514693e-004
-4.949169e-005,1.240803e-004
-8.044617e-005,9.182927e-005
-6.618442e-005,5.974033e-005
-1.237873e-005,2.894792e-005
5.633696e-005,4.638125e-006
1.091703e-004,-1.059602e-005
1.307250e-004,-2.113026e-005
1.216493e-004,-3.198864e-005
9.912221e-005,-4.689865e-005
8.486046e-005,-6.407757e-005
9.361199e-005,-7.704279e-005
1.300767e-004,-8.287715e-005
1.765894e-004,-8.401160e-005
2.054371e-004,-8.644259e-005
1.939304e-004,-9.389759e-005
1.329939e-004,-1.109144e-004
2.376183e-005,-1.357104e-004
-1.248521e-004,-1.630995e-004
-2.903207e-004,-1.857886e-004
-4.374760e-004,-1.987538e-004
-5.301774e-004,-2.002124e-004
-5.478425e-004,-1.919471e-004
-4.995471e-004,-1.815749e-004
-4.201350e-004,-1.746061e-004
-3.426678e-004,-1.724993e-004
-2.831898e-004,-1.760647e-004
-2.413770e-004,-1.848162e-004
-2.102605e-004,-1.972953e-004
-1.791439e-004,-2.078295e-004
-1.481895e-004,-2.125294e-004
-1.208004e-004,-2.089640e-004
-1.015147e-004,-1.977815e-004
-9.065628e-005,-1.828714e-004
-8.871149e-005,-1.669890e-004
-9.179074e-005,-1.522411e-004
-9.130454e-005,-1.402483e-004
-8.012204e-005,-1.306864e-004
-5.532604e-005,-1.199901e-004
-2.096820e-005,-1.052422e-004
1.954813e-005,-8.547019e-005
6.476436e-005,-6.067420e-005
1.185701e-004,-3.344723e-005
1.887444e-004,-7.354709e-006
2.752873e-004,1.419998e-005
3.644232e-004,3.056858e-005
4.365423e-004,4.418206e-005
4.888894e-004,6.087479e-005
5.386435e-004,8.648112e-005
5.986077e-004,1.156529e-004
6.731578e-004,1.372076e-004
7.480320e-004,1.443384e-004
7.974620e-004,1.428799e-004
8.005413e-004,1.445005e-004
7.488423e-004,1.553589e-004
6.535479e-004,1.751309e-004
5.352402e-004,1.992786e-004
4.146635e-004,2.201850e-004
3.023522e-004,2.318537e-004
2.041406e-004,2.342847e-004
1.182459e-004,2.331503e-004
4.175109e-005,2.342847e-004
-2.518189e-005,2.370398e-004
-8.190475e-005,2.386605e-004
-1.470550e-004,2.401191e-004
-2.630937e-004,2.419018e-004
-4.784786e-004,2.456293e-004
-8.184915e-004,2.538946e-004
-1.254123e-003,2.642668e-004
-1.682624e-003,2.717218e-004
-1.966724e-003,2.715597e-004
-2.004648e-003,2.645909e-004
-1.778567e-003,2.560015e-004
-1.355090e-003,2.493568e-004
-8.554424e-004,2.431983e-004
-4.021458e-004,2.341226e-004
-6.083626e-005,2.179161e-004
1.590864e-004,1.932822e-004
2.837146e-004,1.644345e-004
3.516200e-004,1.396385e-004
3.910019e-004,1.239182e-004
4.151496e-004,1.163011e-004
4.242253e-004,1.090082e-004
4.200116e-004,9.393612e-005
4.109360e-004,6.865393e-005
4.060740e-004,3.964424e-005
4.098015e-004,1.274139e-005
4.216323e-004,-9.299493e-006
4.316803e-004,-2.890940e-005
4.320045e-004,-4.819517e-005
4.198496e-004,-7.023606e-005
3.952156e-004,-9.357346e-005
3.666921e-004,-1.148040e-004
3.394651e-004,-1.292278e-004
3.219621e-004,-1.384655e-004
3.180725e-004,-1.485136e-004
3.227724e-004,-1.609926e-004
3.260137e-004,-1.712027e-004
3.201794e-004,-1.755785e-004
3.052694e-004,-1.763888e-004
2.863077e-004,-1.750923e-004
2.658874e-004,-1.723372e-004
2.441707e-004,-1.699062e-004
2.221298e-004,-1.652063e-004
1.981441e-004,-1.587237e-004
1.748067e-004,-1.543479e-004
1.582761e-004,-1.567789e-004
1.550348e-004,-1.671511e-004
1.670276e-004,-1.820611e-004
1.905271e-004,-1.966470e-004
2.161334e-004,-2.044261e-004
2.321778e-004,-2.013469e-004
2.268297e-004,-1.906506e-004
2.043026e-004,-1.767130e-004
1.748067e-004,-1.635857e-004
1.459591e-004,-1.540238e-004
1.232699e-004,-1.480274e-004
1.081979e-004,-1.421931e-004
9.490851e-005,-1.360346e-004
7.821578e-005,-1.277692e-004
6.136099e-005,-1.144799e-004
5.050261e-005,-9.438378e-005
4.207521e-005,-6.829127e-005
2.230325e-005,-4.090223e-005
-1.837515e-005,-1.399939e-005
-7.412562e-005,1.014835e-005
-1.267968e-004,3.137890e-005
-1.549962e-004,5.390598e-005
-1.483515e-004,7.772959e-005
-1.120489e-004,9.879808e-005
-6.359137e-005,1.164632e-004
-1.545797e-005,1.274836e-004
2.052053e-005,1.338042e-004
3.705119e-005,1.394765e-004
4.110282e-005,1.454729e-004
4.628891e-005,1.535762e-004
6.217132e-005,1.667035e-004
9.004655e-005,1.843686e-004
1.211631e-004,2.051129e-004
1.475797e-004,2.240746e-004
1.626518e-004,2.357433e-004
1.699448e-004,2.394708e-004
1.803169e-004,2.380122e-004
1.929580e-004,2.350950e-004
1.963614e-004,2.347709e-004
1.806411e-004,2.373639e-004
1.492004e-004,2.389846e-004
1.101427e-004,2.407673e-004
7.465034e-005,2.444948e-004
4.628891e-005,2.453052e-004
2.084466e-005,2.373639e-004
-8.327101e-006,2.229401e-004
-5.824322e-005,2.059233e-004
-1.455964e-004,1.900409e-004
-2.780038e-004,1.790204e-004
-4.512515e-004,1.705930e-004
-6.586951e-004,1.631380e-004
-8.799143e-004,1.573037e-004
-1.057052e-003,1.561692e-004
-1.118474e-003,1.584381e-004
-1.032418e-003,1.574657e-004
-8.230293e-004,1.492004e-004
-5.570802e-004,1.310491e-004
-3.102548e-004,1.030118e-004
-1.314967e-004,7.108491e-005
-2.939559e-005,4.483033e-005
1.808955e-005,2.943412e-005
4.385793e-005,2.100672e-005
7.497447e-005,1.209313e-005
1.156529e-004,2.623614e-007
1.529279e-004,-1.335113e-005
1.754550e-004,-2.696461e-005
1.830721e-004,-3.830919e-005
1.851789e-004,-4.819517e-005
1.876099e-004,-6.132246e-005
1.926339e-004,-7.817725e-005
1.961994e-004,-1.013526e-004
1.923098e-004,-1.280934e-004
1.851789e-004,-1.532135e-004
1.811273e-004,-1.742820e-004
1.825859e-004,-1.898403e-004
1.851789e-004,-1.987538e-004
1.885823e-004,-2.024813e-004
1.939304e-004,-2.028055e-004
2.004130e-004,-2.008607e-004
2.077060e-004,-1.990780e-004
2.167816e-004,-1.977815e-004
2.271538e-004,-1.972953e-004
2.312055e-004,-1.968091e-004
2.192126e-004,-1.958367e-004
1.827479e-004,-1.934057e-004
1.222976e-004,-1.874093e-004
5.439218e-005,-1.747682e-004
2.855407e-006,-1.577513e-004
-1.756482e-005,-1.404103e-004
-9.137427e-006,-1.250141e-004
1.825161e-005,-1.123730e-004
5.050261e-005,-9.924574e-005
7.221937e-005,-8.336335e-005
7.724339e-005,-6.991193e-005
6.978839e-005,-5.921561e-005
5.828175e-005,-5.192267e-005
4.871989e-005,-4.544006e-005
4.466826e-005,-3.733679e-005
4.628891e-005,-2.874733e-005
5.098881e-005,-2.015787e-005
5.568870e-005,-8.002969e-006
5.552663e-005,7.555301e-006
4.499239e-005,2.424803e-005
2.262738e-005,4.142696e-005
-1.043395e-005,6.038860e-005
-4.722278e-005,8.210535e-005
-6.796714e-005,1.065772e-004
-4.462973e-005,1.333180e-004
3.786152e-005,1.607070e-004
1.652449e-004,1.863134e-004
2.966799e-004,2.054371e-004
3.872744e-004,2.185644e-004
4.070464e-004,2.286124e-004
3.608578e-004,2.365536e-004
2.793389e-004,2.444948e-004
1.937684e-004,2.490327e-004
1.257009e-004,2.467637e-004
9.053275e-005,2.389846e-004
9.652917e-005,2.310434e-004
1.422316e-004,2.229401e-004
2.138645e-004,2.128921e-004
2.812837e-004,2.047888e-004
3.182346e-004,2.002510e-004
3.104554e-004,2.000889e-004
2.556773e-004,2.034923e-004
1.532520e-004,2.094887e-004
-2.168618e-006,2.141886e-004
-2.105846e-004,2.171058e-004
-4.575721e-004,2.099749e-004
-7.061802e-004,1.926339e-004
-9.035757e-004,1.726999e-004
-1.003894e-003,1.610312e-004
-9.880118e-004,1.566554e-004
-8.753765e-004,1.485521e-004
-7.155800e-004,1.313732e-004
-5.611319e-004,1.038221e-004
-4.449310e-004,6.849186e-005
-3.786463e-004,2.878586e-005
-3.559572e-004,-8.002969e-006
-3.564434e-004,-3.636440e-005
-3.546606e-004,-5.224680e-005
-3.267854e-004,-5.516398e-005
-2.661730e-004,-5.127441e-005
-1.801163e-004,-4.803310e-005
-8.401160e-005,-4.997789e-005
1.063454e-005,-5.710876e-005
9.960841e-005,-6.326724e-005
1.790204e-004,-6.715681e-005
2.417397e-004,-7.039812e-005
2.749631e-004,-7.574627e-005
2.725321e-004,-8.579432e-005
2.406053e-004,-9.713889e-005
1.997648e-004,-1.063766e-004
1.655690e-004,-1.149661e-004
1.524417e-004,-1.222590e-004
1.634622e-004,-1.290658e-004
1.911753e-004,-1.323071e-004
2.256952e-004,-1.284175e-004
2.634565e-004,-1.225832e-004
2.981384e-004,-1.191798e-004
3.232586e-004,-1.211246e-004
3.323342e-004,-1.248521e-004
3.230965e-004,-1.279313e-004
3.057555e-004,-1.279313e-004
2.846870e-004,-1.255003e-004
2.605393e-004,-1.199901e-004
2.295848e-004,-1.148040e-004
1.950649e-004,-1.159385e-004
1.611932e-004,-1.220970e-004
1.284560e-004,-1.300382e-004
9.701536e-005,-1.376552e-004
7.497447e-005,-1.426792e-004
6.832980e-005,-1.423551e-004
7.189524e-005,-1.340898e-004
6.946425e-005,-1.204763e-004
5.179914e-005,-1.026491e-004
2.246531e-005,-7.931171e-005
2.531276e-006,-5.046408e-005
1.954813e-005,-2.113026e-005
8.210535e-005,3.017472e-006
1.778860e-004,2.052053e-005
2.911697e-004,2.927205e-005
4.046154e-004,2.927205e-005
5.055821e-004,2.538249e-005
5.794840e-004,2.343770e-005
6.138419e-004,2.505836e-005
6.044420e-004,3.364782e-005
5.561466e-004,4.547859e-005
4.822447e-004,6.298164e-005
3.934329e-004,8.599492e-005
3.017039e-004,1.130598e-004
2.077060e-004,1.448246e-004
1.151667e-004,1.804790e-004
3.170304e-005,2.112714e-004
-3.409549e-005,2.302331e-004
-8.320128e-005,2.383363e-004
-1.253383e-004,2.412535e-004
-1.700683e-004,2.467637e-004
-2.216050e-004,2.537325e-004
-2.893484e-004,2.585945e-004
-3.773498e-004,2.572980e-004
-4.783165e-004,2.503292e-004
-5.668041e-004,2.409294e-004
-6.052136e-004,2.318537e-004
-5.625904e-004,2.237505e-004
-4.285624e-004,2.149989e-004
-2.216050e-004,2.064095e-004
9.500085e-006,1.992786e-004
2.125679e-004,1.923098e-004
3.600474e-004,1.867996e-004
4.469145e-004,1.801549e-004
4.807861e-004,1.696206e-004
4.770586e-004,1.563313e-004
4.602039e-004,1.417454e-004
4.420525e-004,1.227837e-004
4.242253e-004,1.017153e-004
4.010500e-004,8.113296e-005
3.569682e-004,6.508849e-005
2.735045e-004,5.341979e-005
1.399627e-004,4.515445e-005
-4.462973e-005,3.786152e-005
-2.707109e-004,2.992031e-005
-5.269361e-004,2.197911e-005
-7.930472e-004,1.565857e-005
-1.026907e-003,1.079661e-005
-1.167256e-003,3.827799e-006
-1.169201e-003,-8.813297e-006
-1.031607e-003,-2.615429e-005
-7.938576e-004,-4.673658e-005
-5.139708e-004,-6.667062e-005
-2.517492e-004,-8.336335e-005
-4.803310e-005,-9.713889e-005
8.372601e-005,-1.135075e-004
1.597346e-004,-1.366828e-004
2.052750e-004,-1.639098e-004
2.354192e-004,-1.877334e-004
2.576221e-004,-2.015090e-004
2.788527e-004,-2.026434e-004
3.042970e-004,-1.929195e-004
3.326584e-004,-1.775233e-004
3.527545e-004,-1.616409e-004
3.611819e-004,-1.515928e-004
3.662059e-004,-1.514308e-004
3.803056e-004,-1.590478e-004
4.102877e-004,-1.695821e-004
4.556660e-004,-1.759026e-004
5.123889e-004,-1.760647e-004
5.673291e-004,-1.669890e-004
6.033076e-004,-1.511067e-004
6.177314e-004,-1.368449e-004
6.198382e-004,-1.276072e-004
6.086557e-004,-1.222590e-004
5.757565e-004,-1.156143e-004
5.151440e-004,-1.029732e-004
4.213082e-004,-8.433573e-005
2.880904e-004,-6.083626e-005
1.213252e-004,-3.441962e-005
-6.180866e-005,-8.327101e-006
-2.473734e-004,1.257933e-005
-4.334244e-004,2.797553e-005
-6.321164e-004,3.769945e-005
-8.479874e-004,4.450620e-005
-1.068558e-003,5.034055e-005
-1.258661e-003,5.844381e-005
-1.370486e-003,7.011252e-005
-1.366758e-003,8.388807e-005
-1.247154e-003,9.782569e-005
-1.051379e-003,1.120874e-004
-8.426392e-004,1.295905e-004
-6.713362e-004,1.513072e-004
-5.462218e-004,1.785342e-004
-4.376381e-004,2.070577e-004
-3.066893e-004,2.349330e-004
-1.400862e-004,2.566497e-004
5.455425e-005,2.701012e-004
2.480603e-004,2.722080e-004
4.094774e-004,2.671840e-004
5.191956e-004,2.623220e-004
5.757565e-004,2.595669e-004
5.999042e-004,2.566497e-004
6.099523e-004,2.525981e-004
6.112488e-004,2.501671e-004
5.987698e-004,2.501671e-004
5.608465e-004,2.537325e-004
5.044477e-004,2.576221e-004
4.568005e-004,2.579462e-004
4.380009e-004,2.501671e-004
4.428628e-004,2.368777e-004
4.367043e-004,2.188885e-004
3.861400e-004,1.970097e-004
2.908455e-004,1.738343e-004
1.890685e-004,1.513072e-004
1.284560e-004,1.302388e-004
1.370455e-004,1.122495e-004
2.167816e-004,9.928428e-005
3.407616e-004,8.907416e-005
4.673347e-004,7.951231e-005
5.699221e-004,6.622294e-005
6.400964e-004,4.677511e-005
6.707268e-004,2.505836e-005
6.494962e-004,1.031041e-005
5.616568e-004,1.558884e-006
4.047775e-004,-8.165035e-006
2.060853e-004,-2.307504e-005
1.533444e-005,-3.814712e-005
-1.219349e-004,-5.111234e-005
-1.942160e-004,-6.116039e-005
-2.229016e-004,-7.153257e-005
-2.408908e-004,-8.449780e-005
-2.747625e-004,-1.055663e-004
-3.318095e-004,-1.344139e-004
-3.959873e-004,-1.661787e-004
-4.368278e-004,-1.943781e-004
-4.494688e-004,-2.141500e-004
-4.598410e-004,-2.243602e-004
-4.964678e-004,-2.237119e-004
-5.390910e-004,-2.160948e-004
-5.329325e-004,-2.071812e-004
-4.343968e-004,-1.990780e-004
-2.517492e-004,-1.927574e-004
-3.182657e-005,-1.891920e-004
1.749688e-004,-1.862748e-004
3.271482e-004,-1.833576e-004
4.068843e-004,-1.786577e-004
4.219564e-004,-1.721751e-004
3.919743e-004,-1.648822e-004
3.396272e-004,-1.595340e-004
2.728562e-004,-1.571031e-004
1.893926e-004,-1.522411e-004
7.805372e-005,-1.415448e-004
-8.012204e-005,-1.246900e-004
-2.937241e-004,-1.050801e-004
-5.533527e-004,-8.757704e-005
-8.222190e-004,-7.315322e-005
-1.052352e-003,-5.872941e-005
-1.195293e-003,-4.057810e-005
-1.208421e-003,-1.805102e-005
-1.071962e-003,5.448452e-006
-7.956403e-004,2.327564e-005
-4.318037e-004,3.202716e-005
-6.261898e-005,3.364782e-005
2.235884e-004,3.137890e-005
3.769022e-004,3.024445e-005
4.010500e-004,3.510641e-005
3.461098e-004,4.272347e-005
2.743149e-004,4.758544e-005
2.325020e-004,5.179914e-005
2.315296e-004,6.055066e-005
2.571359e-004,7.805372e-005
2.910076e-004,1.041462e-004
3.177483e-004,1.362352e-004
3.299033e-004,1.660552e-004
3.354135e-004,1.890685e-004
3.491891e-004,2.026820e-004
3.765781e-004,2.060853e-004
4.235771e-004,2.005751e-004
4.958582e-004,1.945787e-004
5.924492e-004,1.952270e-004
6.953608e-004,1.999268e-004
7.856312e-004,2.034923e-004
8.434886e-004,2.010613e-004
8.504574e-004,1.939304e-004
7.990826e-004,1.885823e-004
6.966573e-004,1.918236e-004
5.624671e-004,2.028440e-004
4.151496e-004,2.151610e-004
2.717218e-004,2.203471e-004
1.534141e-004,2.154851e-004
7.724339e-005,2.033302e-004
4.709924e-005,1.887444e-004
4.888196e-005,1.736723e-004
5.941620e-005,1.616794e-004
5.649903e-005,1.517934e-004
2.748934e-005,1.404489e-004
-3.312309e-005,1.257009e-004
-1.392759e-004,1.090082e-004
-2.990722e-004,9.296373e-005
-4.943609e-004,7.983644e-005
-6.765223e-004,6.735741e-005
-8.006644e-004,5.050261e-005
-8.426392e-004,3.267542e-005
-8.039057e-004,1.711715e-005
-7.126629e-004,4.800190e-006
-6.116962e-004,-6.706447e-006
-5.415219e-004,-1.886135e-005
-5.282326e-004,-3.020592e-005
-5.749074e-004,-4.155049e-005
-6.731189e-004,-5.581224e-005
-7.958024e-004,-7.347736e-005
-8.876934e-004,-9.098041e-005
-8.855865e-004,-1.081593e-004
-7.567446e-004,-1.220970e-004
-5.151053e-004,-1.314967e-004
-2.274394e-004,-1.365208e-004
3.154097e-005,-1.392759e-004
2.135403e-004,-1.459206e-004
3.153174e-004,-1.575893e-004
3.602095e-004,-1.703924e-004
3.775505e-004,-1.765509e-004
3.892192e-004,-1.741199e-004
4.039671e-004,-1.643960e-004
4.157979e-004,-1.512687e-004
4.211461e-004,-1.363587e-004
4.190393e-004,-1.222590e-004
4.099636e-004,-1.139937e-004
3.982949e-004,-1.143178e-004
3.879227e-004,-1.211246e-004
3.853296e-004,-1.308485e-004
3.901916e-004,-1.374932e-004
3.939191e-004,-1.357104e-004
3.950536e-004,-1.243659e-004
3.937570e-004,-1.083214e-004
3.867882e-004,-9.260107e-005
3.678266e-004,-8.141856e-005
3.363859e-004,-7.250496e-005
2.965178e-004,-6.553616e-005
2.600531e-004,-5.629844e-005
2.307193e-004,-4.138842e-005
2.104611e-004,-2.177852e-005
2.030061e-004,-1.034161e-006
2.080301e-004,2.019640e-005
2.177540e-004,4.272347e-005
2.224539e-004,6.800567e-005
2.190506e-004,9.474644e-005
2.044647e-004,1.169494e-004
1.730240e-004,1.299146e-004
1.282940e-004,1.349386e-004
8.631905e-005,1.380179e-004
6.411610e-005,1.427178e-004
6.217132e-005,1.524417e-004
6.897806e-005,1.675138e-004
7.076078e-005,1.871237e-004
6.330578e-005,2.080301e-004
4.839576e-005,2.224539e-004
3.283749e-005,2.265056e-004
2.635488e-005,2.239125e-004
3.283749e-005,2.192126e-004
4.839576e-005,2.133783e-004
6.346784e-005,2.073819e-004
6.654708e-005,2.028440e-004
5.649903e-005,2.015475e-004
3.948217e-005,2.023578e-004
2.133085e-005,2.039785e-004
5.448452e-006,2.068957e-004
-8.489166e-006,2.137024e-004
-2.323711e-005,2.239125e-004
-4.219875e-005,2.325020e-004
-6.245691e-005,2.333123e-004
-7.979791e-005,2.253711e-004
-9.584238e-005,2.128921e-004
-1.062146e-004,2.002510e-004
-1.047560e-004,1.924718e-004
-9.227693e-005,1.906891e-004
-7.526008e-005,1.905271e-004
-6.974985e-005,1.895547e-004
-7.607040e-005,1.861513e-004
-9.049421e-005,1.785342e-004
-1.049180e-004,1.641104e-004
-1.126972e-004,1.415833e-004
-1.089697e-004,1.145184e-004
-9.276313e-005,8.405014e-005
-6.310517e-005,5.325772e-005
-2.971972e-005,2.214118e-005
-1.520357e-006,-7.030578e-006
1.825161e-005,-3.117831e-005
2.700314e-005,-4.673658e-005
2.603075e-005,-5.856735e-005
1.598270e-005,-7.201877e-005
-2.168618e-006,-8.838737e-005
-2.080613e-005,-1.096179e-004
-3.587821e-005,-1.361966e-004
-4.641245e-005,-1.642339e-004
-6.018800e-005,-1.872472e-004
-8.303922e-005,-2.026434e-004
-1.131834e-004,-2.102605e-004
-1.420310e-004,-2.154466e-004
-1.600202e-004,-2.201465e-004
-1.642339e-004,-2.233878e-004
-1.535376e-004,-2.206326e-004
-1.289037e-004,-2.120432e-004
-9.470791e-005,-2.011848e-004
-6.342931e-005,-1.901644e-004
-4.171256e-005,-1.802784e-004
-3.020592e-005,-1.716889e-004
-2.615429e-005,-1.643960e-004
-2.793700e-005,-1.585616e-004
-3.490581e-005,-1.572651e-004
-4.722278e-005,-1.611547e-004
-6.375344e-005,-1.660166e-004
-7.639453e-005,-1.665028e-004
-8.271508e-005,-1.554824e-004
-8.125649e-005,-1.340898e-004
-7.347736e-005,-1.068628e-004
-6.132246e-005,-7.866345e-005
-5.143648e-005,-5.678463e-005
-5.111234e-005,-4.171256e-005
-6.083626e-005,-2.745081e-005
-7.331530e-005,-1.043395e-005
-8.174268e-005,1.112074e-005
-8.449780e-005,3.316162e-005
-8.482193e-005,4.839576e-005
-8.093236e-005,5.617490e-005
-6.974985e-005,5.795762e-005
-4.965376e-005,5.844381e-005
-1.821308e-005,6.119892e-005
2.230325e-005,6.508849e-005
6.525056e-005,6.930219e-005
9.766362e-005,7.578480e-005
1.059290e-004,8.615699e-005
8.453633e-005,1.052807e-004
4.531652e-005,1.344524e-004
6.258778e-006,1.697827e-004
-1.999580e-005,2.008992e-004
-2.988179e-005,2.196988e-004
-3.020592e-005,2.252090e-004
-2.518189e-005,2.224539e-004
-1.610624e-005,2.161334e-004
-1.520357e-006,2.117576e-004
2.019640e-005,2.099749e-004
4.564065e-005,2.072198e-004
7.157111e-005,2.036544e-004
9.685330e-005,2.065715e-004
1.164632e-004,2.149989e-004
1.252147e-004,2.229401e-004
1.216493e-004,2.229401e-004
1.098185e-004,2.111094e-004
9.118101e-005,1.940925e-004
7.173317e-005,1.796687e-004
5.747142e-005,1.746447e-004
5.131294e-005,1.778860e-004
5.309566e-005,1.814514e-004
5.844381e-005,1.773998e-004
6.751948e-005,1.642725e-004
8.064677e-005,1.469315e-004
9.782569e-005,1.292664e-004
1.169494e-004,1.059290e-004
1.328318e-004,7.935024e-005
1.396385e-004,5.552663e-005
1.385041e-004,3.688912e-005
1.307250e-004,2.522042e-005
1.172735e-004,1.533444e-005
9.977047e-005,4.800190e-006
8.194328e-005,-1.059602e-005
6.427817e-005,-2.842320e-005
4.547859e-005,-4.300908e-005
1.987227e-005,-4.949169e-005
-1.010982e-005,-5.257093e-005
-2.307504e-005,-5.662256e-005
2.045080e-006,-6.650855e-005
6.589881e-005,-8.465986e-005
1.503349e-004,-1.099421e-004
2.349330e-004,-1.350622e-004
3.025142e-004,-1.548341e-004
3.449753e-004,-1.713648e-004
3.668542e-004,-1.880575e-004
3.775505e-004,-2.047502e-004
3.786850e-004,-2.151224e-004
3.696093e-004,-2.164190e-004
3.448133e-004,-2.099363e-004
2.960316e-004,-2.019951e-004
2.232643e-004,-1.974573e-004
1.208390e-004,-1.968091e-004
-5.896120e-006,-1.979435e-004
-1.324691e-004,-1.981056e-004
-2.232257e-004,-1.891920e-004
-2.549905e-004,-1.679614e-004
-2.256567e-004,-1.405724e-004
-1.524032e-004,-1.173971e-004
-7.056019e-005,-1.034594e-004
-1.043395e-005,-9.535618e-005
1.112074e-005,-8.984595e-005
-5.247859e-006,-8.628052e-005
-4.981582e-005,-8.692878e-005
-1.045939e-004,-8.806324e-005
-1.527273e-004,-8.384954e-005
-1.815749e-004,-7.363943e-005
-1.867610e-004,-5.710876e-005
-1.721751e-004,-3.522994e-005
-1.488377e-004,-1.173047e-005
-1.289037e-004,9.662150e-006
-1.170729e-004,2.716521e-005
-1.112386e-004,4.175109e-005
-1.136696e-004,5.585077e-005
-1.350622e-004,7.546067e-005
-1.846542e-004,9.782569e-005
-2.522354e-004,1.156529e-004
-3.068514e-004,1.274836e-004
-3.185201e-004,1.355869e-004
-2.784900e-004,1.480659e-004
-1.987538e-004,1.686482e-004
-1.057284e-004,1.950649e-004
-2.534396e-005,2.221298e-004
2.619281e-005,2.423880e-004
5.244739e-005,2.496809e-004
6.978839e-005,2.464396e-004
9.798775e-005,2.352571e-004
1.448246e-004,2.222919e-004
2.093267e-004,2.146748e-004
2.835526e-004,2.137024e-004
3.605336e-004,2.196988e-004
4.347596e-004,2.302331e-004
5.049339e-004,2.393087e-004
5.668429e-004,2.430362e-004
6.131936e-004,2.441707e-004
6.360448e-004,2.491947e-004
6.345862e-004,2.582704e-004
6.216210e-004,2.637806e-004
6.167590e-004,2.641047e-004
6.420412e-004,2.561635e-004
7.026537e-004,2.380122e-004
7.741245e-004,2.111094e-004
8.162616e-004,1.835583e-004
7.930862e-004,1.613553e-004
6.877437e-004,1.464453e-004
5.033132e-004,1.373696e-004
2.389846e-004,1.263492e-004
-1.170729e-004,1.122495e-004
-5.552975e-004,9.717743e-005
-1.030311e-003,8.226741e-005
-1.455732e-003,6.784360e-005
-1.726706e-003,5.098881e-005
-1.774677e-003,3.105477e-005
-1.602563e-003,9.338019e-006
-1.288805e-003,-1.383732e-005
-9.461989e-004,-3.490581e-005
-6.684191e-004,-4.900550e-005
-5.044090e-004,-5.435365e-005
-4.554653e-004,-5.419158e-005
-4.828543e-004,-5.727083e-005
-5.356876e-004,-6.958779e-005
-5.799314e-004,-9.179074e-005
-5.988930e-004,-1.183694e-004
-5.893312e-004,-1.454344e-004
-5.353634e-004,-1.690959e-004
-4.204592e-004,-1.869231e-004
-2.574215e-004,-1.982676e-004
-7.866345e-005,-2.031296e-004
7.967438e-005,-2.019951e-004
2.002510e-004,-1.930815e-004
2.867939e-004,-1.799543e-004
3.582647e-004,-1.690959e-004
4.303838e-004,-1.648822e-004
5.050959e-004,-1.663408e-004
5.736496e-004,-1.705545e-004
6.277795e-004,-1.741199e-004
6.572754e-004,-1.767130e-004
6.494962e-004,-1.822232e-004
5.979594e-004,-1.914609e-004
5.075270e-004,-1.976194e-004
3.922984e-004,-1.950263e-004
2.607014e-004,-1.825473e-004
1.114392e-004,-1.655305e-004
-6.116039e-005,-1.485136e-004
-2.710350e-004,-1.332795e-004
-5.209396e-004,-1.173971e-004
-7.588515e-004,-9.794922e-005
-8.995241e-004,-7.898758e-005
-8.727834e-004,-5.953974e-005
-6.661501e-004,-3.879538e-005
-3.379679e-004,-1.562004e-005
1.792748e-005,1.128280e-005
3.198552e-004,3.672706e-005
5.242196e-004,5.909208e-005
6.316690e-004,7.821578e-005
6.752646e-004,9.361199e-005
7.021675e-004,1.020394e-004
7.467355e-004,1.077117e-004
8.207994e-004,1.188942e-004
9.052355e-004,1.389903e-004
9.634171e-004,1.637863e-004
9.570965e-004,1.874478e-004
8.723363e-004,2.051129e-004
7.250187e-004,2.175920e-004
5.525811e-004,2.281262e-004
3.999155e-004,2.380122e-004
2.937627e-004,2.480603e-004
2.341226e-004,2.571359e-004
2.130541e-004,2.631324e-004
2.172679e-004,2.613496e-004
2.336365e-004,2.530843e-004
2.420638e-004,2.454672e-004
2.274780e-004,2.443328e-004
1.855030e-004,2.493568e-004
1.268354e-004,2.592428e-004
7.384002e-005,2.691288e-004
5.617490e-005,2.726942e-004
9.490851e-005,2.644289e-004
1.884202e-004,2.427121e-004
3.112658e-004,2.124059e-004
4.302217e-004,1.788584e-004
5.164405e-004,1.495245e-004
5.642498e-004,1.292664e-004
5.853184e-004,1.182459e-004
5.909906e-004,1.137081e-004
5.788357e-004,1.086841e-004
5.389676e-004,9.993253e-005
4.713863e-004,8.875003e-005
3.851676e-004,7.724339e-005
2.914938e-004,6.476436e-005
1.957132e-004,4.839576e-005
1.049566e-004,2.667901e-005
1.549650e-005,3.017472e-006
-8.141856e-005,-1.643037e-005
-2.015090e-004,-2.826114e-005
-3.510952e-004,-3.312309e-005
-5.217500e-004,-3.506788e-005
-6.888393e-004,-4.187462e-005
-8.144398e-004,-5.921561e-005
-8.551183e-004,-8.336335e-005
-7.800820e-004,-1.084835e-004
-6.091032e-004,-1.324691e-004
-4.168937e-004,-1.528894e-004
-2.935620e-004,-1.674752e-004
-2.880518e-004,-1.746061e-004
-3.784843e-004,-1.726613e-004
-4.911196e-004,-1.661787e-004
-5.611319e-004,-1.598582e-004
-5.656697e-004,-1.572651e-004
-5.275843e-004,-1.558065e-004
-4.890127e-004,-1.553203e-004
-4.791268e-004,-1.564548e-004
-4.940368e-004,-1.590478e-004
-5.178604e-004,-1.635857e-004
-5.366600e-004,-1.669890e-004
-5.403875e-004,-1.702304e-004
-5.222362e-004,-1.741199e-004
-4.728062e-004,-1.771992e-004
-3.828600e-004,-1.763888e-004
-2.436459e-004,-1.690959e-004
-6.456377e-005,-1.566169e-004
1.315353e-004,-1.438137e-004
3.263378e-004,-1.293899e-004
5.159543e-004,-1.133454e-004
6.953608e-004,-9.600444e-005
8.477023e-004,-7.801519e-005
9.415382e-004,-5.856735e-005
9.465622e-004,-3.733679e-005
8.553194e-004,-1.399939e-005
6.948746e-004,1.031041e-005
5.060683e-004,3.607880e-005
3.208276e-004,6.087479e-005
1.500107e-004,8.145709e-005
-1.286493e-005,9.604298e-005
-1.647201e-004,1.023635e-004
-3.005308e-004,1.044704e-004
-4.147869e-004,1.080358e-004
-5.063537e-004,1.148425e-004
-5.831727e-004,1.240803e-004
-6.648536e-004,1.354248e-004
-7.669547e-004,1.490383e-004
-8.713248e-004,1.662173e-004
-9.476576e-004,1.827479e-004
-9.724535e-004,1.955511e-004
-9.272373e-004,2.057612e-004
-8.016367e-004,2.141886e-004
-6.063480e-004,2.240746e-004
-3.728119e-004,2.350950e-004
-1.468929e-004,2.444948e-004
2.943412e-005,2.483844e-004
1.378558e-004,2.435224e-004
1.829100e-004,2.295848e-004
1.927960e-004,2.091646e-004
1.968476e-004,1.906891e-004
2.120818e-004,1.809652e-004
2.448189e-004,1.803169e-004
2.898731e-004,1.843686e-004
3.333067e-004,1.866375e-004
3.647473e-004,1.851789e-004
3.783608e-004,1.798307e-004
3.725265e-004,1.722137e-004
3.512959e-004,1.634622e-004
3.237448e-004,1.540623e-004
2.999212e-004,1.451488e-004
2.872801e-004,1.363972e-004
2.829043e-004,1.257009e-004
2.809595e-004,1.090082e-004
2.743149e-004,8.275361e-005
2.592428e-004,5.244739e-005
2.417397e-004,2.619281e-005
2.269918e-004,7.069105e-006
2.148369e-004,-7.840905e-006
2.065715e-004,-2.080613e-005
2.070577e-004,-3.117831e-005
2.182402e-004,-3.766092e-005
2.253711e-004,-4.025397e-005
2.122438e-004,-4.138842e-005
1.748067e-004,-4.706071e-005
1.253768e-004,-6.537409e-005
8.437427e-005,-9.405965e-005
6.314371e-005,-1.282554e-004
5.795762e-005,-1.618029e-004
5.390598e-005,-1.859507e-004
4.207521e-005,-1.992400e-004
2.781346e-005,-2.052365e-004
1.971020e-005,-2.073433e-004
2.343770e-005,-2.053985e-004
3.802358e-005,-1.992400e-004
5.811968e-005,-1.912988e-004
7.594687e-005,-1.848162e-004
8.486046e-005,-1.817370e-004
8.680524e-005,-1.817370e-004
8.226741e-005,-1.827094e-004
7.351589e-005,-1.840059e-004
5.860588e-005,-1.833576e-004
4.077869e-005,-1.814128e-004
2.327564e-005,-1.786577e-004
3.503668e-006,-1.741199e-004
-1.902341e-005,-1.681235e-004
-3.636440e-005,-1.621271e-004
-4.009191e-005,-1.549962e-004
-2.842320e-005,-1.459206e-004
-8.975362e-006,-1.318209e-004
1.290346e-005,-1.149661e-004
3.218923e-005,-9.859748e-005
4.839576e-005,-8.514606e-005
6.087479e-005,-7.072225e-005
7.108491e-005,-5.095028e-005
7.886404e-005,-2.550602e-005
8.226741e-005,9.106227e-007
7.886404e-005,2.424803e-005
6.914012e-005,4.483033e-005
5.795762e-005,6.444023e-005
4.888196e-005,8.583286e-005
4.888196e-005,1.091703e-004
5.325772e-005,1.334801e-004
5.990240e-005,1.522796e-004
7.902610e-005,1.636242e-004
1.218114e-004,1.697827e-004
1.850168e-004,1.788584e-004
2.616738e-004,1.953890e-004
3.425444e-004,2.159713e-004
4.239012e-004,2.342847e-004
5.119027e-004,2.443328e-004
6.088178e-004,2.451431e-004
7.065432e-004,2.393087e-004
7.927621e-004,2.295848e-004
8.554814e-004,2.201850e-004
8.878945e-004,2.128921e-004
8.841670e-004,2.086784e-004
8.421920e-004,2.064095e-004
7.564594e-004,2.051129e-004
6.178935e-004,2.054371e-004
4.172565e-004,2.102990e-004
1.524417e-004,2.184023e-004
-1.759026e-004,2.261814e-004
-5.642111e-004,2.313675e-004
-1.013132e-003,2.305572e-004
-1.514238e-003,2.266676e-004
-2.026040e-003,2.235884e-004
-2.471072e-003,2.243987e-004
-2.752905e-003,2.273159e-004
-2.792449e-003,2.295848e-004
-2.567663e-003,2.299089e-004
-2.135111e-003,2.258573e-004
-1.610343e-003,2.141886e-004
-1.113774e-003,1.931201e-004
-7.249799e-004,1.678379e-004
-4.645409e-004,1.423936e-004
-3.031239e-004,1.182459e-004
-1.865989e-004,9.669123e-005
-6.893953e-005,7.513654e-005
7.254349e-005,5.131294e-005
2.336365e-004,2.489629e-005
3.897054e-004,-2.168618e-006
5.185474e-004,-2.647842e-005
6.071971e-004,-4.592625e-005
6.524134e-004,-6.278104e-005
6.666752e-004,-8.320128e-005
6.686199e-004,-1.099421e-004
6.708889e-004,-1.353863e-004
6.752646e-004,-1.549962e-004
6.801266e-004,-1.669890e-004
6.835299e-004,-1.723372e-004
6.796404e-004,-1.726613e-004
6.579236e-004,-1.728234e-004
6.227554e-004,-1.763888e-004
5.859666e-004,-1.830335e-004
5.603603e-004,-1.891920e-004
5.482053e-004,-1.912988e-004
5.464226e-004,-1.882196e-004
5.514466e-004,-1.810887e-004
5.546879e-004,-1.729855e-004
5.483674e-004,-1.650443e-004
5.328091e-004,-1.567789e-004
5.091476e-004,-1.502963e-004
4.770586e-004,-1.451102e-004
4.357320e-004,-1.381414e-004
3.879227e-004,-1.259865e-004
3.362238e-004,-1.118868e-004
2.872801e-004,-9.956988e-005
2.538946e-004,-9.146661e-005
2.459534e-004,-8.854943e-005
2.636185e-004,-8.968389e-005
2.947351e-004,-9.130454e-005
3.221241e-004,-8.887356e-005
3.311998e-004,-8.222889e-005
3.206656e-004,-7.347736e-005
2.983005e-004,-6.197072e-005
2.744769e-004,-4.754691e-005
2.553532e-004,-2.988179e-005
2.415777e-004,-1.124428e-005
2.206712e-004,6.420843e-006
1.809652e-004,2.408596e-005
1.240803e-004,4.110282e-005
5.941620e-005,5.406805e-005
2.369211e-006,6.298164e-005
-3.360929e-005,7.059871e-005
-4.527799e-005,8.178122e-005
-3.571614e-005,1.020394e-004
-1.869928e-005,1.297526e-004
-1.043395e-005,1.616794e-004
-1.707863e-005,1.940925e-004
-3.555408e-005,2.203471e-004
-5.662256e-005,2.368777e-004
-7.720486e-005,2.441707e-004
-9.746302e-005,2.449810e-004
-1.151281e-004,2.389846e-004
-1.300382e-004,2.315296e-004
-1.404103e-004,2.310434e-004
-1.459206e-004,2.376881e-004
-1.447861e-004,2.459534e-004
-1.425172e-004,2.490327e-004
-1.431655e-004,2.407673e-004
-1.485136e-004,2.221298e-004
-1.588858e-004,2.023578e-004
-1.707166e-004,1.853410e-004
-1.776853e-004,1.702689e-004
-1.762268e-004,1.564933e-004
-1.728234e-004,1.451488e-004
-1.731475e-004,1.401247e-004
-1.754164e-004,1.414213e-004
-1.741199e-004,1.440143e-004
-1.668270e-004,1.414213e-004
-1.566169e-004,1.328318e-004
-1.481895e-004,1.227837e-004
-1.455964e-004,1.145184e-004
-1.511067e-004,1.086841e-004
-1.579134e-004,1.023635e-004
-1.603444e-004,9.393612e-005
-1.520790e-004,7.821578e-005
-1.326312e-004,5.504044e-005
-1.057284e-004,2.408596e-005
-7.963584e-005,-1.043395e-005
-5.840528e-005,-3.798505e-005
-4.252288e-005,-5.159854e-005
-3.312309e-005,-5.467778e-005
-2.874733e-005,-5.386745e-005
-2.615429e-005,-5.824322e-005
-2.550602e-005,-7.120844e-005
-2.323711e-005,-9.211487e-005
-1.399939e-005,-1.157764e-004
1.234753e-006,-1.360346e-004
1.727922e-005,-1.511067e-004
2.700314e-005,-1.609926e-004
2.651694e-005,-1.689338e-004
1.387585e-005,-1.773612e-004
-4.599598e-006,-1.890299e-004
-1.351319e-005,-1.984297e-004
-2.816880e-006,-2.002124e-004
2.376183e-005,-1.959987e-004
5.293359e-005,-1.888679e-004
6.768154e-005,-1.817370e-004
5.633696e-005,-1.776853e-004
2.230325e-005,-1.759026e-004
-1.659243e-005,-1.759026e-004
-3.944364e-005,-1.762268e-004
-3.522994e-005,-1.744440e-004
-4.923729e-006,-1.721751e-004
4.337174e-005,-1.703924e-004
1.023635e-004,-1.699062e-004
1.641104e-004,-1.665028e-004
2.179161e-004,-1.585616e-004
2.537325e-004,-1.460826e-004
2.699391e-004,-1.302002e-004
2.668598e-004,-1.102662e-004
2.457913e-004,-8.498399e-005
1.973338e-004,-5.548811e-005
1.083599e-004,-2.566809e-005
-3.150244e-005,2.623614e-007
-2.122053e-004,2.570662e-005
-3.927460e-004,5.244739e-005
-5.254775e-004,7.983644e-005
-5.708557e-004,1.038221e-004
-5.181845e-004,1.219734e-004
-3.967976e-004,1.333180e-004
-2.561249e-004,1.372076e-004
-1.407345e-004,1.380179e-004
-7.088431e-005,1.391524e-004
-4.041603e-005,1.433661e-004
-3.036798e-005,1.503349e-004
-2.226472e-005,1.594105e-004
2.207145e-006,1.715654e-004
5.714729e-005,1.864754e-004
1.388282e-004,2.005751e-004
2.253711e-004,2.128921e-004
2.911697e-004,2.247229e-004
3.132105e-004,2.346088e-004
2.832284e-004,2.438466e-004
2.182402e-004,2.514636e-004
1.566554e-004,2.566497e-004
1.420695e-004,2.595669e-004
1.939304e-004,2.590807e-004
2.952213e-004,2.556773e-004
4.062361e-004,2.519498e-004
4.866205e-004,2.485465e-004
5.135234e-004,2.448189e-004
4.838654e-004,2.367157e-004
4.062361e-004,2.180782e-004
2.903593e-004,1.911753e-004
1.485521e-004,1.637863e-004
-3.951337e-006,1.423936e-004
-1.436516e-004,1.316974e-004
-2.502906e-004,1.282940e-004
-3.165753e-004,1.284560e-004
-3.475298e-004,1.274836e-004
-3.540124e-004,1.174356e-004
-3.546606e-004,9.490851e-005
-3.674638e-004,6.557468e-005
-4.002010e-004,3.705119e-005
-4.465517e-004,1.776542e-005
-4.976023e-004,4.962256e-006
-5.499493e-004,-4.923729e-006
-6.094273e-004,-1.578211e-005
-6.855980e-004,-2.939559e-005
-7.713305e-004,-4.495386e-005
-8.418289e-004,-5.646050e-005
-8.628974e-004,-6.083626e-005
-8.009885e-004,-5.872941e-005
-6.439472e-004,-5.889148e-005
-4.170558e-004,-6.537409e-005
-1.746061e-004,-7.833932e-005
3.056858e-005,-9.438378e-005
1.741585e-004,-1.101041e-004
2.569738e-004,-1.258245e-004
2.958695e-004,-1.433275e-004
3.096451e-004,-1.614788e-004
3.192070e-004,-1.736337e-004
3.388169e-004,-1.791439e-004
3.720403e-004,-1.804405e-004
4.117463e-004,-1.820611e-004
4.506420e-004,-1.812508e-004
4.838654e-004,-1.788198e-004
5.131993e-004,-1.739578e-004
5.431813e-004,-1.715269e-004
5.725152e-004,-1.692580e-004
5.939078e-004,-1.627754e-004
5.977973e-004,-1.527273e-004
5.781874e-004,-1.430034e-004
5.433434e-004,-1.326312e-004
5.063924e-004,-1.217728e-004
4.775448e-004,-1.139937e-004
4.632831e-004,-1.115627e-004
4.670106e-004,-1.120489e-004
4.819206e-004,-1.081593e-004
4.875929e-004,-1.021629e-004
4.754380e-004,-9.405965e-005
4.428628e-004,-7.995997e-005
3.963501e-004,-5.905355e-005
3.487029e-004,-3.555408e-005
3.052694e-004,-1.432352e-005
2.668598e-004,2.207145e-006
2.357433e-004,1.711715e-005
2.151610e-004,3.186510e-005
2.075439e-004,4.742337e-005
2.072198e-004,6.362991e-005
2.085163e-004,7.902610e-005
2.065715e-004,9.344993e-005
1.936063e-004,1.086841e-004
1.642725e-004,1.269974e-004
1.164632e-004,1.514693e-004
5.860588e-005,1.793446e-004
3.017472e-006,2.038164e-004
-3.539201e-005,2.214815e-004
-5.289507e-005,2.312055e-004
-5.872941e-005,2.359054e-004
-6.342931e-005,2.389846e-004
-7.282909e-005,2.449810e-004
-9.065628e-005,2.524360e-004
-1.217728e-004,2.589186e-004
-1.609926e-004,2.618358e-004
-1.903264e-004,2.584324e-004
-1.854645e-004,2.474120e-004
-1.342519e-004,2.308813e-004
-4.236082e-005,2.169437e-004
6.962632e-005,2.099749e-004
1.733481e-004,2.062474e-004
2.457913e-004,2.030061e-004
2.791768e-004,1.997648e-004
2.762596e-004,1.986303e-004
2.516257e-004,2.002510e-004
2.239125e-004,2.007372e-004
2.049509e-004,1.934442e-004
1.987924e-004,1.765894e-004
2.007372e-004,1.548727e-004
1.957132e-004,1.329939e-004
1.743205e-004,1.124116e-004
1.321835e-004,9.344993e-005
6.703327e-005,7.497447e-005
-3.263690e-005,5.844381e-005
-1.862748e-004,4.288554e-005
-4.073319e-004,2.797553e-005
-6.899738e-004,1.468618e-005
-9.833119e-004,1.558884e-006
-1.205828e-003,-1.335113e-005
-1.290750e-003,-3.263690e-005
-1.213607e-003,-5.483985e-005
-9.852567e-004,-7.396356e-005
-6.470265e-004,-9.033215e-005
-2.579077e-004,-1.101041e-004
1.222976e-004,-1.331174e-004
4.478869e-004,-1.562927e-004
7.010330e-004,-1.763888e-004
8.891911e-004,-1.909747e-004
1.035698e-003,-1.987538e-004
1.157572e-003,-2.010227e-004
1.251570e-003,-1.984297e-004
1.291276e-003,-1.916230e-004
1.245249e-003,-1.817370e-004
1.095987e-003,-1.724993e-004
8.374922e-004,-1.661787e-004
4.853240e-004,-1.643960e-004
7.918817e-005,-1.673132e-004
-3.344025e-004,-1.747682e-004
-7.287074e-004,-1.843300e-004
-1.104213e-003,-1.911368e-004
-1.490901e-003,-1.900023e-004
-1.924749e-003,-1.817370e-004
-2.409973e-003,-1.700683e-004
-2.892929e-003,-1.574272e-004
-3.244450e-003,-1.478653e-004
-3.323376e-003,-1.381414e-004
-3.060181e-003,-1.248521e-004
-2.501541e-003,-1.047560e-004
-1.790883e-003,-7.995997e-005
-1.089789e-003,-5.743289e-005
-5.165638e-004,-3.814712e-005
-1.167488e-004,-1.934754e-005
1.357490e-004,5.864920e-007
2.981384e-004,2.586868e-005
4.170944e-004,5.633696e-005
5.146578e-004,8.631905e-005
5.950422e-004,1.093323e-004
6.516031e-004,1.203528e-004
6.762370e-004,1.203528e-004
6.632718e-004,1.171115e-004
6.159487e-004,1.154908e-004
5.495019e-004,1.193804e-004
4.875929e-004,1.291043e-004
4.587452e-004,1.451488e-004
4.806241e-004,1.662173e-004
5.483674e-004,1.887444e-004
6.409068e-004,2.083542e-004
7.293945e-004,2.252090e-004
7.968137e-004,2.397949e-004
8.361956e-004,2.500050e-004
8.514298e-004,2.535705e-004
8.501333e-004,2.493568e-004
8.392748e-004,2.414156e-004
8.259855e-004,2.339606e-004
8.136685e-004,2.299089e-004
7.992447e-004,2.290986e-004
7.796348e-004,2.310434e-004
7.535422e-004,2.313675e-004
7.253428e-004,2.265056e-004
7.016813e-004,2.153231e-004
6.810990e-004,2.000889e-004
6.585719e-004,1.872858e-004
6.308587e-004,1.799928e-004
5.969870e-004,1.795066e-004
5.610085e-004,1.830721e-004
5.255162e-004,1.824238e-004
4.931031e-004,1.725378e-004
4.647417e-004,1.537382e-004
4.386491e-004,1.299146e-004
4.119083e-004,1.067393e-004
3.853296e-004,8.615699e-005
3.615060e-004,6.995045e-005
3.380065e-004,5.552663e-005
3.098072e-004,3.834771e-005
2.816078e-004,1.646890e-005
2.623220e-004,-3.465141e-006
2.500050e-004,-2.064406e-005
2.397949e-004,-3.506788e-005
2.318537e-004,-4.706071e-005
2.247229e-004,-5.646050e-005
2.209954e-004,-6.213279e-005
2.193747e-004,-6.278104e-005
2.166196e-004,-6.213279e-005
2.072198e-004,-6.618442e-005
1.892305e-004,-7.655660e-005
1.697827e-004,-8.984595e-005
1.589243e-004,-1.042698e-004
1.579519e-004,-1.143178e-004
1.564933e-004,-1.195039e-004
1.477418e-004,-1.214487e-004
1.355869e-004,-1.195039e-004
1.200286e-004,-1.170729e-004
9.912221e-005,-1.212866e-004
6.573675e-005,-1.334415e-004
2.068259e-005,-1.501342e-004
-2.809907e-005,-1.687718e-004
-6.667062e-005,-1.841680e-004
-8.709085e-005,-1.956746e-004
-8.563225e-005,-2.045882e-004
-7.234290e-005,-2.122053e-004
-6.423963e-005,-2.165810e-004
-7.752899e-005,-2.130156e-004
-1.243659e-004,-2.011848e-004
-2.066950e-004,-1.812508e-004
-3.177098e-004,-1.575893e-004
-4.386105e-004,-1.361966e-004
-5.507597e-004,-1.201522e-004
-6.509160e-004,-1.110765e-004
-7.434553e-004,-1.058904e-004
-8.346980e-004,-9.940781e-005
-9.199444e-004,-8.806324e-005
-9.844464e-004,-7.120844e-005
-1.008270e-003,-4.738484e-005
-9.724535e-004,-2.210265e-005
-8.731075e-004,-2.006553e-006
-7.274108e-004,1.128280e-005
-5.658317e-004,2.133085e-005
-4.157593e-004,3.591673e-005
-2.908069e-004,5.358185e-005
-1.924333e-004,7.059871e-005
-1.165867e-004,8.567078e-005
-5.386745e-005,9.361199e-005
4.962256e-006,9.766362e-005
6.476436e-005,1.031738e-004
1.263492e-004,1.141943e-004
1.880961e-004,1.336421e-004
2.491947e-004,1.634622e-004
3.060797e-004,1.973338e-004
3.527545e-004,2.227781e-004
3.790091e-004,2.365536e-004
3.803056e-004,2.419018e-004
3.587509e-004,2.415777e-004
3.175863e-004,2.383363e-004
2.621599e-004,2.372019e-004
2.075439e-004,2.399570e-004
1.642725e-004,2.441707e-004
1.313732e-004,2.482223e-004
1.018773e-004,2.478982e-004
6.735741e-005,2.428742e-004
2.586868e-005,2.346088e-004
-1.853722e-005,2.258573e-004
-5.451572e-005,2.177540e-004
-7.461182e-005,2.102990e-004
-7.931171e-005,2.046267e-004
-7.234290e-005,1.978200e-004
-5.548811e-005,1.889064e-004
-3.053005e-005,1.775618e-004
-1.034161e-006,1.655690e-004
2.505836e-005,1.535762e-004
4.029250e-005,1.399627e-004
4.191315e-005,1.244044e-004
3.202716e-005,1.046324e-004
1.387585e-005,8.518459e-005
-2.238346e-007,6.930219e-005
-5.571990e-006,5.374392e-005
-1.724069e-005,3.526847e-005
-4.787104e-005,1.646890e-005
-9.179074e-005,3.179537e-006
-1.277692e-004,-6.058186e-006
-1.383035e-004,-1.594417e-005
-1.263107e-004,-3.150244e-005
-1.031353e-004,-5.192267e-005
-7.250496e-005,-7.542214e-005
-3.620233e-005,-1.002181e-004
-3.789272e-006,-1.224211e-004
1.355172e-005,-1.387897e-004
1.598270e-005,-1.498101e-004
9.175954e-006,-1.580754e-004
-5.409925e-006,-1.656925e-004
-2.210265e-005,-1.702304e-004
-3.360929e-005,-1.715269e-004
-3.604027e-005,-1.676373e-004
-2.453363e-005,-1.624512e-004
-7.100305e-007,-1.559686e-004
2.441009e-005,-1.455964e-004
4.077869e-005,-1.285796e-004
4.790957e-005,-1.065387e-004
4.839576e-005,-8.741498e-005
4.855783e-005,-7.979791e-005
5.504044e-005,-8.417367e-005
6.768154e-005,-9.632857e-005
8.648112e-005,-1.081593e-004
1.081979e-004,-1.169109e-004
1.218114e-004,-1.212866e-004
1.235941e-004,-1.230693e-004
1.148425e-004,-1.243659e-004
9.588091e-005,-1.235555e-004
6.346784e-005,-1.173971e-004
1.889987e-005,-1.060525e-004
-2.907146e-005,-8.838737e-005
-6.991193e-005,-6.488790e-005
-8.838737e-005,-4.138842e-005
-6.796714e-005,-2.015787e-005
-4.923729e-006,-2.006553e-006
9.507057e-005,1.436204e-005
2.209954e-004,2.943412e-005
3.538890e-004,4.223728e-005
4.694416e-004,5.050261e-005
5.482053e-004,5.325772e-005
5.811046e-004,5.325772e-005
5.770530e-004,5.147500e-005
5.595500e-004,4.969229e-005
5.460985e-004,5.196120e-005
5.388056e-004,6.281957e-005
5.242196e-004,8.615699e-005
4.871067e-004,1.195424e-004
4.164462e-004,1.564933e-004
3.145071e-004,1.905271e-004
1.864754e-004,2.169437e-004
3.640293e-005,2.320158e-004
-1.410586e-004,2.342847e-004
-3.585502e-004,2.274780e-004
-6.167202e-004,2.187264e-004
-8.792660e-004,2.140265e-004
-1.075851e-003,2.128921e-004
-1.154615e-003,2.081922e-004
-1.110371e-003,1.981441e-004
-9.829877e-004,1.877720e-004
-8.343739e-004,1.811273e-004
-7.168766e-004,1.770756e-004
-6.551297e-004,1.751309e-004
-6.514022e-004,1.751309e-004
-6.902979e-004,1.751309e-004
-7.478310e-004,1.680000e-004
-7.810544e-004,1.553589e-004
-7.419967e-004,1.420695e-004
-6.053757e-004,1.334801e-004
-3.861013e-004,1.274836e-004
-1.370070e-004,1.218114e-004
8.016057e-005,1.156529e-004
2.214815e-004,1.077117e-004
2.850112e-004,9.458438e-005
2.939248e-004,7.724339e-005
2.811216e-004,5.666109e-005
2.730183e-004,3.543054e-005
2.801492e-004,1.841368e-005
3.028383e-004,8.689758e-006
3.342791e-004,2.693341e-006
3.694472e-004,-5.571990e-006
4.036430e-004,-1.853722e-005
4.345975e-004,-3.360929e-005
4.600418e-004,-5.078821e-005
4.762483e-004,-6.748094e-005
4.801379e-004,-8.417367e-005
4.744656e-004,-1.036215e-004
4.678209e-004,-1.282554e-004
4.657141e-004,-1.549962e-004
4.726828e-004,-1.763888e-004
4.869446e-004,-1.877334e-004
4.990995e-004,-1.856265e-004
5.015305e-004,-1.731475e-004
4.862963e-004,-1.590478e-004
4.499937e-004,-1.506204e-004
3.961880e-004,-1.473791e-004
3.367100e-004,-1.465688e-004
2.861456e-004,-1.475412e-004
2.501671e-004,-1.489998e-004
2.284504e-004,-1.489998e-004
2.172679e-004,-1.460826e-004
2.119197e-004,-1.392759e-004
2.091646e-004,-1.323071e-004
2.054371e-004,-1.264727e-004
2.012234e-004,-1.227452e-004
1.971717e-004,-1.182074e-004
1.955511e-004,-1.114006e-004
1.999268e-004,-1.011905e-004
2.143507e-004,-9.000802e-005
2.368777e-004,-7.963584e-005
2.623220e-004,-7.331530e-005
2.846870e-004,-6.764301e-005
2.937627e-004,-5.889148e-005
2.807975e-004,-4.608832e-005
2.462775e-004,-3.101625e-005
1.978200e-004,-1.156841e-005
1.482280e-004,1.241726e-005
1.094944e-004,3.932010e-005
9.312580e-005,6.427817e-005
9.993253e-005,8.372601e-005
1.197045e-004,9.458438e-005
1.346145e-004,1.013911e-004
1.370455e-004,1.073875e-004
1.295905e-004,1.150046e-004
1.175977e-004,1.229458e-004
1.031738e-004,1.329939e-004
8.372601e-005,1.464453e-004
5.666109e-005,1.607070e-004
1.873781e-005,1.754550e-004
-2.728874e-005,1.916615e-004
-7.590833e-005,2.096508e-004
-1.258245e-004,2.260194e-004
-1.724993e-004,2.389846e-004
-2.088019e-004,2.451431e-004
-2.233878e-004,2.438466e-004
-2.165810e-004,2.378501e-004
-1.976194e-004,2.290986e-004
-1.767130e-004,2.214815e-004
-1.566169e-004,2.203471e-004
-1.378173e-004,2.245608e-004
-1.229073e-004,2.284504e-004
-1.052422e-004,2.265056e-004
-7.380149e-005,2.177540e-004
-2.485776e-005,2.065715e-004
3.526847e-005,1.963614e-004
9.231547e-005,1.892305e-004
1.323456e-004,1.808031e-004
1.428799e-004,1.670276e-004
1.143563e-004,1.503349e-004
4.645098e-005,1.318594e-004
-6.002594e-005,1.158149e-004
-1.951884e-004,1.044704e-004
-3.462333e-004,9.750156e-005
-5.023021e-004,9.085688e-005
-6.484850e-004,8.064677e-005
-7.518827e-004,6.168512e-005
-7.700340e-004,3.526847e-005
-6.867325e-004,5.286387e-006
-5.236948e-004,-2.275091e-005
-3.238683e-004,-4.722278e-005
-1.400862e-004,-6.893953e-005
-1.351319e-005,-8.595638e-005
3.137890e-005,-9.276313e-005
-1.075808e-005,-9.195280e-005
-1.250141e-004,-9.243900e-005
-2.919414e-004,-9.892161e-005
-4.860956e-004,-1.130213e-004
-6.690673e-004,-1.344139e-004
-7.995299e-004,-1.554824e-004
-8.648421e-004,-1.689338e-004
-8.854245e-004,-1.775233e-004
-8.970932e-004,-1.849783e-004
-9.288579e-004,-1.914609e-004
-9.823395e-004,-1.937298e-004
-1.010863e-003,-1.885437e-004
-9.397164e-004,-1.729855e-004
-7.204420e-004,-1.504584e-004
-3.724878e-004,-1.264727e-004
2.278944e-005,-1.105903e-004
3.702575e-004,-1.078352e-004
6.106006e-004,-1.131834e-004
7.347427e-004,-1.182074e-004
7.710453e-004,-1.177212e-004
7.579181e-004,-1.120489e-004
7.331221e-004,-1.070249e-004
7.170775e-004,-1.039456e-004
7.092984e-004,-1.000561e-004
6.976296e-004,-9.211487e-005
6.734819e-004,-8.109443e-005
6.345862e-004,-6.861539e-005
5.841838e-004,-5.289507e-005
5.276231e-004,-3.587821e-005
4.777069e-004,-1.837515e-005
4.478869e-004,-1.520357e-006
4.422146e-004,1.565857e-005
4.537212e-004,3.218923e-005
4.645796e-004,4.547859e-005
4.589073e-004,5.341979e-005
4.316803e-004,6.038860e-005
3.879227e-004,6.832980e-005
3.326584e-004,7.740546e-005
2.730183e-004,8.615699e-005
2.171058e-004,9.280167e-005
1.741585e-004,9.993253e-005
1.498487e-004,1.094944e-004
1.393144e-004,1.214872e-004
1.338042e-004,1.376938e-004
1.339663e-004,1.566554e-004
1.415833e-004,1.773998e-004
1.577899e-004,1.942546e-004
1.770756e-004,2.033302e-004
1.900409e-004,2.054371e-004
1.927960e-004,2.054371e-004
1.880961e-004,2.080301e-004
1.798307e-004,2.158093e-004
1.735102e-004,2.245608e-004
1.712413e-004,2.286124e-004
1.683241e-004,2.243987e-004
1.560072e-004,2.140265e-004
1.292664e-004,2.039785e-004
9.053275e-005,1.945787e-004
4.223728e-005,1.838824e-004
-8.327101e-006,1.744826e-004
-4.349527e-005,1.691344e-004
-5.046408e-005,1.705930e-004
-3.101625e-005,1.748067e-004
-3.303076e-006,1.775618e-004
1.630683e-005,1.728619e-004
1.857574e-005,1.587623e-004
1.234753e-006,1.399627e-004
-2.307504e-005,1.214872e-004
-3.879538e-005,1.065772e-004
-4.138842e-005,9.150514e-005
-2.680255e-005,7.497447e-005
9.824215e-006,5.763349e-005
7.059871e-005,3.786152e-005
1.435281e-004,1.614476e-005
2.083542e-004,-4.437533e-006
2.464396e-004,-2.372331e-005
2.521119e-004,-3.960571e-005
2.260194e-004,-5.435365e-005
1.752929e-004,-6.731888e-005
1.138702e-004,-7.639453e-005
6.006447e-005,-7.947377e-005
3.316162e-005,-7.671866e-005
4.661304e-005,-7.688073e-005
1.078737e-004,-8.660465e-005
1.999268e-004,-1.063766e-004
2.804733e-004,-1.308485e-004
3.057555e-004,-1.515928e-004
2.493568e-004,-1.630995e-004
1.104668e-004,-1.658546e-004
-8.790117e-005,-1.643960e-004
-3.138202e-004,-1.632615e-004
-5.436288e-004,-1.639098e-004
-7.611204e-004,-1.655305e-004
-9.364750e-004,-1.653684e-004
-1.019452e-003,-1.627754e-004
-9.750465e-004,-1.580754e-004
-8.157364e-004,-1.515928e-004
-5.873864e-004,-1.449482e-004
-3.494746e-004,-1.410586e-004
-1.488377e-004,-1.412206e-004
-9.785688e-006,-1.425172e-004
7.157111e-005,-1.408965e-004
1.226217e-004,-1.365208e-004
1.670276e-004,-1.274451e-004
2.125679e-004,-1.133454e-004
2.500050e-004,-9.794922e-005
2.675081e-004,-8.320128e-005
2.603772e-004,-7.039812e-005
2.287745e-004,-5.937768e-005
1.780480e-004,-4.949169e-005
1.210010e-004,-3.976777e-005
7.627100e-005,-2.615429e-005
5.925414e-005,-7.030578e-006
7.302970e-005,1.792748e-005
1.065772e-004,4.223728e-005
1.462832e-004,6.217132e-005
1.850168e-004,7.772959e-005
2.169437e-004,9.199134e-005
2.265056e-004,1.072255e-004
1.992786e-004,1.255389e-004
1.399627e-004,1.464453e-004
6.541262e-005,1.660552e-004
3.341602e-006,1.835583e-004
-2.469570e-005,1.991165e-004
-1.578211e-005,2.153231e-004
1.176900e-005,2.308813e-004
3.721326e-005,2.435224e-004
4.353380e-005,2.508154e-004
2.262738e-005,2.535705e-004
-2.745081e-005,2.540567e-004
-1.047560e-004,2.527602e-004
-2.063709e-004,2.495189e-004
-3.259751e-004,2.431983e-004
-4.486585e-004,2.352571e-004
-5.413599e-004,2.282883e-004
-5.723144e-004,2.222919e-004
-5.285567e-004,2.171058e-004
-4.254832e-004,2.119197e-004
-2.959930e-004,2.077060e-004
-1.742820e-004,1.987924e-004
-8.741498e-005,1.837203e-004
-4.608832e-005,1.673517e-004
-3.798505e-005,1.553589e-004
-4.722278e-005,1.485521e-004
-6.261898e-005,1.441764e-004
-7.963584e-005,1.402868e-004
-9.454585e-005,1.354248e-004
-1.070249e-004,1.282940e-004
-1.135075e-004,1.154908e-004
-1.120489e-004,9.620504e-005
-1.042698e-004,7.286763e-005
-9.422172e-005,5.131294e-005
-7.914964e-005,3.494434e-005
-5.305713e-005,2.181705e-005
-2.372331e-005,1.193106e-005
-6.382317e-006,3.665733e-006
-1.108221e-005,-4.761664e-006
-2.307504e-005,-1.480971e-005
-4.113403e-006,-2.647842e-005
8.842590e-005,-3.668853e-005
2.655633e-004,-4.462973e-005
4.927790e-004,-5.289507e-005
7.058950e-004,-6.634648e-005
8.501333e-004,-8.854943e-005
8.943772e-004,-1.165867e-004
8.420300e-004,-1.436516e-004
7.250187e-004,-1.668270e-004
5.812666e-004,-1.848162e-004
4.324906e-004,-1.982676e-004
2.720459e-004,-2.015090e-004
9.215340e-005,-1.968091e-004
-9.713889e-005,-1.887058e-004
-2.741142e-004,-1.818991e-004
-4.196489e-004,-1.783336e-004
-5.256396e-004,-1.768750e-004
-5.950035e-004,-1.770371e-004
-6.314681e-004,-1.763888e-004
-6.350336e-004,-1.734716e-004
-6.011620e-004,-1.679614e-004
-5.249913e-004,-1.624512e-004
-4.199730e-004,-1.603444e-004
-3.131719e-004,-1.642339e-004
-2.368392e-004,-1.729855e-004
-2.083157e-004,-1.784957e-004
-2.216050e-004,-1.734716e-004
-2.475355e-004,-1.571031e-004
-2.493182e-004,-1.363587e-004
-2.079916e-004,-1.144799e-004
-1.277692e-004,-9.308726e-005
-2.599222e-005,-7.299116e-005
7.416415e-005,-5.321920e-005
1.573037e-004,-3.117831e-005
2.190506e-004,-6.706447e-006
2.657254e-004,1.614476e-005
3.065659e-004,3.640293e-005
3.495132e-004,5.682316e-005
3.958639e-004,7.367795e-005
4.391353e-004,8.680524e-005
4.713863e-004,9.620504e-005
4.872688e-004,1.036600e-004
4.856481e-004,1.122495e-004
4.663623e-004,1.197045e-004
4.292493e-004,1.265113e-004
3.801436e-004,1.359110e-004
3.316860e-004,1.519555e-004
3.020280e-004,1.731861e-004
3.020280e-004,1.970097e-004
3.271482e-004,2.206712e-004
3.585888e-004,2.410915e-004
3.762539e-004,2.592428e-004
3.707437e-004,2.731804e-004
3.422202e-004,2.799871e-004
2.989488e-004,2.775562e-004
2.564877e-004,2.683184e-004
2.269918e-004,2.534084e-004
2.067336e-004,2.397949e-004
1.829100e-004,2.347709e-004
1.527658e-004,2.394708e-004
1.218114e-004,2.469258e-004
9.215340e-005,2.509774e-004
6.314371e-005,2.509774e-004
3.478228e-005,2.491947e-004
1.614476e-005,2.459534e-004
1.711715e-005,2.384984e-004
4.191315e-005,2.235884e-004
8.923623e-005,1.996027e-004
1.490383e-004,1.718896e-004
1.997648e-004,1.482280e-004
2.286124e-004,1.323456e-004
2.310434e-004,1.205148e-004
2.096508e-004,1.044704e-004
1.686482e-004,8.437427e-005
1.130598e-004,6.006447e-005
4.839576e-005,3.380988e-005
-1.950961e-005,1.095867e-005
-8.222889e-005,-6.544382e-006
-1.339277e-004,-2.096820e-005
-1.746061e-004,-3.976777e-005
-2.039399e-004,-6.472583e-005
-2.225774e-004,-9.049421e-005
-2.371633e-004,-1.115627e-004
-2.502906e-004,-1.245279e-004
-2.541802e-004,-1.321450e-004
-2.321393e-004,-1.378173e-004
-1.741199e-004,-1.480274e-004
-8.206682e-005,-1.619650e-004
3.105477e-005,-1.768750e-004
1.378558e-004,-1.870851e-004
2.036544e-004,-1.900023e-004
1.992786e-004,-1.846542e-004
1.174356e-004,-1.760647e-004
-1.108221e-005,-1.684476e-004
-1.420310e-004,-1.645581e-004
-2.480217e-004,-1.647201e-004
-3.134961e-004,-1.681235e-004
-3.185201e-004,-1.759026e-004
-2.457528e-004,-1.815749e-004
-1.018388e-004,-1.827094e-004
8.194328e-005,-1.768750e-004
2.600531e-004,-1.681235e-004
3.919743e-004,-1.627754e-004
4.522626e-004,-1.647201e-004
4.438352e-004,-1.699062e-004
3.811159e-004,-1.715269e-004
2.837146e-004,-1.629374e-004
1.718896e-004,-1.438137e-004
5.520250e-005,-1.198280e-004
-6.942573e-005,-9.519411e-005
-2.167431e-004,-7.347736e-005
-3.982562e-004,-5.273300e-005
-6.163961e-004,-3.150244e-005
-8.654904e-004,-8.813297e-006
-1.117664e-003,1.598270e-005
-1.308415e-003,4.126489e-005
-1.372431e-003,6.444023e-005
-1.275516e-003,8.599492e-005
-1.039711e-003,1.034980e-004
-7.291936e-004,1.128978e-004
-4.159214e-004,1.138702e-004
-1.499722e-004,1.078737e-004
4.337174e-005,1.018773e-004
1.675138e-004,1.017153e-004
2.438466e-004,1.083599e-004
2.937627e-004,1.198666e-004
3.271482e-004,1.336421e-004
3.469201e-004,1.506590e-004
3.579406e-004,1.678379e-004
3.595612e-004,1.859892e-004
3.524304e-004,2.031682e-004
3.396272e-004,2.180782e-004
3.263378e-004,2.271538e-004
3.148312e-004,2.274780e-004
3.046211e-004,2.179161e-004
