3.179104e-004,-6.893953e-005
2.594049e-004,-8.611845e-005
2.162954e-004,-1.015147e-004
1.856651e-004,-1.135075e-004
1.678379e-004,-1.255003e-004
1.673517e-004,-1.402483e-004
1.851789e-004,-1.590478e-004
2.156472e-004,-1.765509e-004
2.440086e-004,-1.875713e-004
2.478982e-004,-1.924333e-004
2.101370e-004,-1.904885e-004
1.315353e-004,-1.830335e-004
3.543054e-005,-1.744440e-004
-5.775702e-005,-1.681235e-004
-1.345760e-004,-1.669890e-004
-1.909747e-004,-1.718510e-004
-2.224154e-004,-1.809267e-004
-2.282497e-004,-1.883817e-004
-2.102605e-004,-1.903264e-004
-1.857886e-004,-1.862748e-004
-1.781716e-004,-1.759026e-004
-2.029675e-004,-1.616409e-004
-2.611490e-004,-1.472171e-004
-3.246786e-004,-1.370070e-004
-3.557951e-004,-1.313347e-004
-3.335922e-004,-1.263107e-004
-2.626076e-004,-1.188556e-004
-1.613168e-004,-1.071869e-004
-5.759496e-005,-9.454585e-005
2.343770e-005,-8.352541e-005
6.930219e-005,-7.315322e-005
7.740546e-005,-6.229485e-005
4.239934e-005,-5.273300e-005
-3.296103e-005,-4.592625e-005
-1.339277e-004,-3.911951e-005
-2.376495e-004,-2.469570e-005
-3.228959e-004,1.883015e-006
-3.752429e-004,3.721326e-005
-3.919357e-004,7.384002e-005
-3.698948e-004,1.080358e-004
-3.147926e-004,1.323456e-004
-2.439701e-004,1.472556e-004
-1.806025e-004,1.571416e-004
-1.465688e-004,1.702689e-004
-1.549962e-004,1.867996e-004
-2.047502e-004,2.026820e-004
-2.830278e-004,2.169437e-004
-3.637363e-004,2.308813e-004
-4.128421e-004,2.427121e-004
-4.078181e-004,2.503292e-004
-3.496366e-004,2.483844e-004
-2.639041e-004,2.373639e-004
-1.694200e-004,2.260194e-004
-7.331530e-005,2.200230e-004
3.494434e-005,2.214815e-004
1.598967e-004,2.256952e-004
2.851732e-004,2.274780e-004
3.803056e-004,2.252090e-004
4.230909e-004,2.200230e-004
4.110980e-004,2.148369e-004
3.572923e-004,2.111094e-004
2.929524e-004,2.083542e-004
2.585945e-004,2.052750e-004
2.798251e-004,2.018716e-004
3.498373e-004,1.958752e-004
4.381629e-004,1.848548e-004
5.033132e-004,1.676758e-004
5.148199e-004,1.457970e-004
4.593935e-004,1.255389e-004
3.384927e-004,1.128978e-004
1.662173e-004,1.091703e-004
-4.673658e-005,1.086841e-004
-2.966413e-004,1.059290e-004
-5.809038e-004,9.393612e-005
-8.842900e-004,7.448828e-005
-1.176980e-003,5.131294e-005
-1.426561e-003,3.008238e-005
-1.610343e-003,1.079661e-005
-1.704016e-003,-3.465141e-006
-1.683110e-003,-1.221667e-005
-1.547623e-003,-1.691656e-005
-1.323325e-003,-1.934754e-005
-1.047976e-003,-2.307504e-005
-7.577171e-004,-3.522994e-005
-4.825302e-004,-5.646050e-005
-2.413770e-004,-8.141856e-005
-4.641245e-005,-1.088076e-004
9.993253e-005,-1.349001e-004
2.012234e-004,-1.549962e-004
2.704253e-004,-1.694200e-004
3.211517e-004,-1.801163e-004
3.686369e-004,-1.878955e-004
4.235771e-004,-1.914609e-004
4.901859e-004,-1.924333e-004
5.595500e-004,-1.942160e-004
6.187038e-004,-2.018331e-004
6.561409e-004,-2.122053e-004
6.650545e-004,-2.214430e-004
6.501445e-004,-2.266291e-004
6.308587e-004,-2.276015e-004
6.263209e-004,-2.216050e-004
6.370172e-004,-2.045882e-004
6.449584e-004,-1.804405e-004
6.328035e-004,-1.545100e-004
5.995801e-004,-1.323071e-004
5.611706e-004,-1.182074e-004
5.401021e-004,-1.143178e-004
5.477191e-004,-1.185315e-004
5.744600e-004,-1.217728e-004
6.018490e-004,-1.151281e-004
6.110868e-004,-9.503204e-005
6.018490e-004,-6.407757e-005
5.802943e-004,-2.923353e-005
5.563086e-004,3.665733e-006
5.365367e-004,2.781346e-005
5.146578e-004,4.369587e-005
4.773828e-004,5.536457e-005
4.063981e-004,6.800567e-005
2.929524e-004,8.421220e-005
1.331559e-004,1.052807e-004
-7.444975e-005,1.294284e-004
-3.168994e-004,1.550348e-004
-5.744212e-004,1.801549e-004
-8.332395e-004,2.052750e-004
-1.078768e-003,2.279642e-004
-1.281674e-003,2.487085e-004
-1.406789e-003,2.662116e-004
-1.421212e-003,2.777182e-004
-1.305498e-003,2.807975e-004
-1.060455e-003,2.785285e-004
-7.081250e-004,2.735045e-004
-2.953447e-004,2.696149e-004
1.143563e-004,2.688046e-004
4.477248e-004,2.686426e-004
6.499824e-004,2.681563e-004
6.969814e-004,2.707494e-004
6.174073e-004,2.736666e-004
4.825689e-004,2.728562e-004
3.767402e-004,2.654013e-004
3.666921e-004,2.487085e-004
4.749518e-004,2.260194e-004
6.642442e-004,1.978200e-004
8.598572e-004,1.681620e-004
9.927510e-004,1.402868e-004
1.026461e-003,1.184080e-004
9.585551e-004,1.046324e-004
8.112376e-004,9.782569e-005
6.154625e-004,9.377406e-005
4.038051e-004,8.988449e-005
1.976579e-004,7.999851e-005
-4.923729e-006,6.087479e-005
-2.230636e-004,3.607880e-005
-4.713477e-004,1.549650e-005
-7.233592e-004,2.693341e-006
-9.170272e-004,-7.516774e-006
-9.930359e-004,-1.934754e-005
-9.474955e-004,-3.150244e-005
-8.364808e-004,-3.960571e-005
-7.340555e-004,-4.333321e-005
-6.883531e-004,-4.138842e-005
-7.009942e-004,-3.636440e-005
-7.410243e-004,-3.474375e-005
-7.724650e-004,-4.300908e-005
-7.632272e-004,-6.326724e-005
-6.787913e-004,-9.308726e-005
-4.838267e-004,-1.245279e-004
-1.708786e-004,-1.524032e-004
2.184023e-004,-1.728234e-004
6.096281e-004,-1.861127e-004
9.297074e-004,-1.950263e-004
1.136665e-003,-2.019951e-004
1.225639e-003,-2.063709e-004
1.218346e-003,-2.068571e-004
1.146389e-003,-2.045882e-004
1.042505e-003,-2.002124e-004
9.295454e-004,-1.955125e-004
8.136685e-004,-1.906506e-004
6.930918e-004,-1.822232e-004
5.736496e-004,-1.699062e-004
4.645796e-004,-1.575893e-004
3.794953e-004,-1.506204e-004
3.266619e-004,-1.493239e-004
2.939248e-004,-1.522411e-004
2.558394e-004,-1.601823e-004
1.793446e-004,-1.723372e-004
2.116879e-005,-1.836818e-004
-2.434839e-004,-1.854645e-004
-5.956517e-004,-1.712027e-004
-9.753707e-004,-1.434896e-004
-1.302905e-003,-1.096179e-004
-1.499490e-003,-7.509801e-005
-1.516993e-003,-4.495386e-005
-1.361248e-003,-2.485776e-005
-1.084279e-003,-1.594417e-005
-7.476690e-004,-8.327101e-006
-4.175420e-004,5.286387e-006
-1.486757e-004,3.024445e-005
3.737532e-005,6.670914e-005
1.526038e-004,1.065772e-004
2.218057e-004,1.410971e-004
2.699391e-004,1.621656e-004
3.054314e-004,1.696206e-004
3.164518e-004,1.660552e-004
2.965178e-004,1.595726e-004
2.553532e-004,1.555210e-004
2.130541e-004,1.589243e-004
1.861513e-004,1.688103e-004
1.853410e-004,1.812893e-004
2.052750e-004,1.927960e-004
2.318537e-004,2.057612e-004
2.529222e-004,2.184023e-004
2.634565e-004,2.268297e-004
2.645909e-004,2.305572e-004
2.579462e-004,2.321778e-004
2.367157e-004,2.320158e-004
1.837203e-004,2.328261e-004
9.507057e-005,2.337985e-004
-6.382317e-006,2.344468e-004
-7.850138e-005,2.326641e-004
-8.125649e-005,2.323399e-004
-3.303076e-006,2.334744e-004
1.357490e-004,2.331503e-004
3.033245e-004,2.303951e-004
4.673347e-004,2.252090e-004
5.934216e-004,2.153231e-004
6.585719e-004,2.002510e-004
6.608408e-004,1.817755e-004
6.321552e-004,1.642725e-004
6.141660e-004,1.500107e-004
6.281036e-004,1.372076e-004
6.668373e-004,1.232699e-004
7.028158e-004,1.078737e-004
7.057329e-004,9.069481e-005
6.595443e-004,7.092284e-005
5.694359e-004,4.596478e-005
4.496696e-004,1.825161e-005
3.034866e-004,-7.840905e-006
1.177597e-004,-3.004385e-005
-1.248521e-004,-4.803310e-005
-4.086284e-004,-6.245691e-005
-6.635571e-004,-7.218083e-005
-8.095779e-004,-7.769106e-005
-8.092538e-004,-8.044617e-005
-6.841394e-004,-8.579432e-005
-4.899852e-004,-9.746302e-005
-2.909690e-004,-1.141558e-004
-1.280934e-004,-1.370070e-004
-2.113026e-005,-1.635857e-004
3.348575e-005,-1.856265e-004
5.406805e-005,-1.964849e-004
5.568870e-005,-1.958367e-004
4.077869e-005,-1.851404e-004
-5.409925e-006,-1.702304e-004
-1.130213e-004,-1.551583e-004
-3.086341e-004,-1.421931e-004
-5.841451e-004,-1.323071e-004
-8.974173e-004,-1.250141e-004
-1.178276e-003,-1.232314e-004
-1.352659e-003,-1.272830e-004
-1.366921e-003,-1.334415e-004
-1.206962e-003,-1.366828e-004
-9.120032e-004,-1.365208e-004
-5.625904e-004,-1.336036e-004
-2.439701e-004,-1.287416e-004
-2.129233e-005,-1.188556e-004
7.902610e-005,-1.047560e-004
7.238143e-005,-9.114248e-005
1.225520e-005,-8.303922e-005
-3.555408e-005,-7.995997e-005
-2.323711e-005,-7.655660e-005
5.115087e-005,-6.569822e-005
1.516314e-004,-4.608832e-005
2.397949e-004,-2.194059e-005
2.987867e-004,5.448452e-006
3.333067e-004,2.975825e-005
3.512959e-004,4.337174e-005
3.514580e-004,4.645098e-005
3.355756e-004,4.823370e-005
3.096451e-004,5.439218e-005
2.756114e-004,6.525056e-005
2.378501e-004,7.740546e-005
2.038164e-004,8.858796e-005
1.820997e-004,9.944634e-005
1.791825e-004,1.120874e-004
1.916615e-004,1.286181e-004
2.085163e-004,1.480659e-004
2.260194e-004,1.673517e-004
2.420638e-004,1.874478e-004
2.527602e-004,2.038164e-004
2.569738e-004,2.133783e-004
2.626462e-004,2.141886e-004
2.717218e-004,2.101370e-004
2.733424e-004,2.124059e-004
2.589186e-004,2.248849e-004
2.300710e-004,2.422259e-004
1.978200e-004,2.568118e-004
1.662173e-004,2.616738e-004
1.412592e-004,2.556773e-004
1.248906e-004,2.428742e-004
1.195424e-004,2.278021e-004
1.182459e-004,2.145127e-004
1.163011e-004,2.059233e-004
1.114392e-004,2.041406e-004
1.057669e-004,2.047888e-004
1.064152e-004,2.038164e-004
1.193804e-004,1.978200e-004
1.410971e-004,1.874478e-004
1.649207e-004,1.761032e-004
1.806411e-004,1.611932e-004
1.809652e-004,1.428799e-004
1.636242e-004,1.226217e-004
1.307250e-004,9.879808e-005
9.263960e-005,7.157111e-005
6.395404e-005,4.223728e-005
5.212327e-005,1.290346e-005
6.022653e-005,-1.140634e-005
8.388807e-005,-2.761287e-005
1.104668e-004,-3.506788e-005
1.226217e-004,-3.879538e-005
1.098185e-004,-4.511593e-005
7.886404e-005,-5.856735e-005
4.807163e-005,-7.769106e-005
2.019640e-005,-1.005423e-004
-8.975362e-006,-1.245279e-004
-4.300908e-005,-1.467309e-004
-7.590833e-005,-1.652063e-004
-9.616651e-005,-1.789819e-004
-9.908367e-005,-1.883817e-004
-9.081835e-005,-1.925954e-004
-8.287715e-005,-1.934057e-004
-8.692878e-005,-1.937298e-004
-1.021629e-004,-1.963229e-004
-1.203142e-004,-1.990780e-004
-1.316588e-004,-1.976194e-004
-1.370070e-004,-1.930815e-004
-1.353863e-004,-1.885437e-004
-1.177212e-004,-1.864369e-004
-8.044617e-005,-1.867610e-004
-3.101625e-005,-1.831956e-004
1.614476e-005,-1.763888e-004
4.855783e-005,-1.673132e-004
5.455425e-005,-1.554824e-004
2.522042e-005,-1.417068e-004
-3.620233e-005,-1.284175e-004
-1.126972e-004,-1.188556e-004
-1.865989e-004,-1.156143e-004
-2.391081e-004,-1.167488e-004
-2.603387e-004,-1.143178e-004
-2.502906e-004,-1.036215e-004
-2.207947e-004,-8.741498e-005
-1.862748e-004,-6.699475e-005
-1.624512e-004,-4.349527e-005
-1.559686e-004,-2.145439e-005
-1.613168e-004,-7.100305e-007
-1.632615e-004,1.922400e-005
-1.543479e-004,3.802358e-005
-1.378173e-004,5.536457e-005
-1.203142e-004,7.092284e-005
-1.078352e-004,8.615699e-005
-1.031353e-004,1.010670e-004
-9.811128e-005,1.159770e-004
-8.206682e-005,1.325077e-004
-4.916756e-005,1.482280e-004
-8.720959e-007,1.620036e-004
5.504044e-005,1.739964e-004
1.065772e-004,1.851789e-004
1.430419e-004,1.974959e-004
1.586002e-004,2.107852e-004
1.566554e-004,2.229401e-004
1.420695e-004,2.344468e-004
1.226217e-004,2.462775e-004
1.067393e-004,2.577842e-004
9.960841e-005,2.675081e-004
9.604298e-005,2.712356e-004
8.777764e-005,2.688046e-004
7.189524e-005,2.628082e-004
4.823370e-005,2.547049e-004
1.160693e-005,2.500050e-004
-3.766092e-005,2.490327e-004
-8.255302e-005,2.500050e-004
-1.065387e-004,2.496809e-004
-1.023250e-004,2.441707e-004
-7.558420e-005,2.357433e-004
-3.344723e-005,2.281262e-004
1.841368e-005,2.209954e-004
7.983644e-005,2.132162e-004
1.569795e-004,2.012234e-004
2.454672e-004,1.814514e-004
3.307136e-004,1.558451e-004
3.932708e-004,1.287802e-004
4.243874e-004,1.020394e-004
4.292493e-004,7.140904e-005
4.162841e-004,3.737532e-005
3.799815e-004,7.717366e-006
3.013798e-004,-1.367526e-005
1.636242e-004,-2.777494e-005
-1.578211e-005,-3.782299e-005
-1.822232e-004,-4.738484e-005
-2.767073e-004,-5.889148e-005
-2.705488e-004,-6.974985e-005
-1.823853e-004,-7.720486e-005
-6.958779e-005,-8.093236e-005
3.341602e-006,-8.255302e-005
4.962256e-006,-8.465986e-005
-5.127441e-005,-9.260107e-005
-1.329553e-004,-1.122110e-004
-2.104225e-004,-1.413827e-004
-2.705488e-004,-1.724993e-004
-3.065273e-004,-1.938919e-004
-3.121996e-004,-1.997262e-004
-2.862691e-004,-1.909747e-004
-2.353806e-004,-1.734716e-004
-1.789819e-004,-1.553203e-004
-1.350622e-004,-1.392759e-004
-1.021629e-004,-1.280934e-004
-6.893953e-005,-1.259865e-004
-1.869928e-005,-1.323071e-004
5.147500e-005,-1.408965e-004
1.320215e-004,-1.449482e-004
2.088404e-004,-1.451102e-004
2.772320e-004,-1.434896e-004
3.305515e-004,-1.418689e-004
3.585888e-004,-1.423551e-004
3.581026e-004,-1.452723e-004
3.344411e-004,-1.493239e-004
2.987867e-004,-1.556445e-004
2.608634e-004,-1.601823e-004
2.265056e-004,-1.587237e-004
1.989545e-004,-1.459206e-004
1.754550e-004,-1.233935e-004
1.467694e-004,-9.454585e-005
1.080358e-004,-6.407757e-005
7.108491e-005,-3.652646e-005
5.131294e-005,-1.448558e-005
5.131294e-005,1.002961e-007
5.504044e-005,1.128280e-005
4.304761e-005,2.748934e-005
1.193106e-005,4.985435e-005
-3.636440e-005,7.578480e-005
-9.098041e-005,9.993253e-005
-1.321450e-004,1.175977e-004
-1.413827e-004,1.265113e-004
-1.156143e-004,1.292664e-004
-6.586029e-005,1.318594e-004
-1.578211e-005,1.376938e-004
2.068259e-005,1.503349e-004
3.543054e-005,1.692965e-004
2.910999e-005,1.913374e-004
8.203562e-006,2.127300e-004
-1.772689e-005,2.300710e-004
-3.798505e-005,2.406053e-004
-4.868137e-005,2.457913e-004
-5.159854e-005,2.487085e-004
-5.208474e-005,2.496809e-004
-5.386745e-005,2.485465e-004
-5.127441e-005,2.469258e-004
-3.166451e-005,2.438466e-004
9.500085e-006,2.346088e-004
7.481241e-005,2.201850e-004
1.573037e-004,2.068957e-004
2.372019e-004,1.999268e-004
2.927903e-004,1.968476e-004
3.115899e-004,1.947408e-004
2.957075e-004,1.900409e-004
2.427121e-004,1.803169e-004
1.539003e-004,1.673517e-004
4.369587e-005,1.543865e-004
-5.921561e-005,1.396385e-004
-1.276072e-004,1.245665e-004
-1.477033e-004,1.116012e-004
-1.255003e-004,9.944634e-005
-7.607040e-005,8.502253e-005
-2.129233e-005,6.654708e-005
2.343770e-005,4.499239e-005
4.888196e-005,1.857574e-005
5.471631e-005,-1.124428e-005
5.196120e-005,-3.717473e-005
6.476436e-005,-5.451572e-005
1.054428e-004,-6.683268e-005
1.699448e-004,-7.639453e-005
2.423880e-004,-8.482193e-005
2.971661e-004,-9.470791e-005
3.198552e-004,-1.067007e-004
3.136967e-004,-1.162626e-004
2.940868e-004,-1.203142e-004
2.770700e-004,-1.185315e-004
2.681563e-004,-1.169109e-004
2.675081e-004,-1.177212e-004
2.670219e-004,-1.237176e-004
2.538946e-004,-1.324691e-004
2.255332e-004,-1.428413e-004
1.934442e-004,-1.536997e-004
1.697827e-004,-1.652063e-004
1.547106e-004,-1.716889e-004
1.315353e-004,-1.692580e-004
8.340187e-005,-1.621271e-004
-6.176923e-008,-1.564548e-004
-1.120489e-004,-1.558065e-004
-2.352185e-004,-1.624512e-004
-3.556330e-004,-1.728234e-004
-4.749131e-004,-1.828714e-004
-6.047274e-004,-1.885437e-004
-7.475069e-004,-1.882196e-004
-8.917450e-004,-1.776853e-004
-1.014104e-003,-1.571031e-004
-1.079255e-003,-1.324691e-004
-1.055431e-003,-1.091317e-004
-9.432817e-004,-9.341139e-005
-7.695478e-004,-8.141856e-005
-5.708557e-004,-6.877746e-005
-3.818876e-004,-5.078821e-005
-2.206326e-004,-2.534396e-005
-8.871149e-005,2.207145e-006
1.695509e-005,3.008238e-005
9.182927e-005,5.455425e-005
1.252147e-004,7.286763e-005
1.213252e-004,8.550872e-005
1.018773e-004,9.118101e-005
1.007429e-004,9.280167e-005
1.373696e-004,9.182927e-005
2.031682e-004,9.231547e-005
2.772320e-004,9.863601e-005
3.337929e-004,1.104668e-004
3.566440e-004,1.276457e-004
3.456236e-004,1.514693e-004
3.232586e-004,1.801549e-004
3.114278e-004,2.072198e-004
3.167760e-004,2.282883e-004
3.328204e-004,2.431983e-004
3.420582e-004,2.521119e-004
3.336308e-004,2.553532e-004
3.031625e-004,2.563256e-004
2.466017e-004,2.600531e-004
1.641104e-004,2.598910e-004
6.703327e-005,2.500050e-004
-2.631635e-005,2.333123e-004
-9.341139e-005,2.159713e-004
-1.141558e-004,2.041406e-004
-7.704279e-005,2.004130e-004
1.079661e-005,2.036544e-004
1.276457e-004,2.085163e-004
2.347709e-004,2.096508e-004
2.918179e-004,2.007372e-004
2.590807e-004,1.825859e-004
1.193804e-004,1.597346e-004
-1.139937e-004,1.412592e-004
-4.039285e-004,1.338042e-004
-6.941874e-004,1.370455e-004
-9.111929e-004,1.432040e-004
-9.902808e-004,1.462832e-004
-9.073032e-004,1.398006e-004
-6.875428e-004,1.205148e-004
-3.953390e-004,8.907416e-005
-1.028112e-004,5.131294e-005
1.357490e-004,1.679302e-005
2.940868e-004,-5.409925e-006
3.756057e-004,-1.351319e-005
4.073705e-004,-1.254080e-005
4.145014e-004,-9.299493e-006
4.159600e-004,-1.108221e-005
4.213082e-004,-2.145439e-005
4.358940e-004,-3.522994e-005
4.616624e-004,-4.835724e-005
4.966686e-004,-6.002594e-005
5.339436e-004,-6.991193e-005
5.598741e-004,-7.850138e-005
5.663567e-004,-8.952183e-005
5.499881e-004,-1.060525e-004
5.102821e-004,-1.285796e-004
4.537212e-004,-1.528894e-004
3.940812e-004,-1.700683e-004
3.391410e-004,-1.773612e-004
2.936006e-004,-1.789819e-004
2.671840e-004,-1.806025e-004
2.618358e-004,-1.883817e-004
2.697770e-004,-2.034537e-004
2.853353e-004,-2.191741e-004
3.012177e-004,-2.279256e-004
3.094830e-004,-2.238740e-004
3.067279e-004,-2.083157e-004
2.953834e-004,-1.896782e-004
2.793389e-004,-1.760647e-004
2.598910e-004,-1.689338e-004
2.375260e-004,-1.652063e-004
2.088404e-004,-1.639098e-004
1.665414e-004,-1.626133e-004
1.166253e-004,-1.585616e-004
6.622294e-005,-1.502963e-004
2.214118e-005,-1.376552e-004
-9.785688e-006,-1.151281e-004
-2.647842e-005,-8.384954e-005
-3.101625e-005,-4.932962e-005
-2.826114e-005,-1.886135e-005
-3.020592e-005,3.179537e-006
-4.236082e-005,1.403791e-005
-6.845333e-005,1.533444e-005
-1.047560e-004,1.387585e-005
-1.481895e-004,1.808955e-005
-1.906506e-004,2.992031e-005
-2.165810e-004,4.483033e-005
-2.144742e-004,5.536457e-005
-1.880575e-004,5.714729e-005
-1.528894e-004,5.601284e-005
-1.199901e-004,6.087479e-005
-1.032974e-004,7.351589e-005
-1.136696e-004,9.312580e-005
-1.486757e-004,1.169494e-004
-1.956746e-004,1.428799e-004
-2.374874e-004,1.697827e-004
-2.562870e-004,1.986303e-004
-2.429977e-004,2.261814e-004
-2.031296e-004,2.436845e-004
-1.499722e-004,2.470879e-004
-1.021629e-004,2.399570e-004
-6.958779e-005,2.273159e-004
-5.046408e-005,2.124059e-004
-4.300908e-005,2.017096e-004
-4.576419e-005,1.996027e-004
-5.759496e-005,2.065715e-004
-7.898758e-005,2.185644e-004
-1.052422e-004,2.294227e-004
-1.259865e-004,2.352571e-004
-1.396000e-004,2.383363e-004
-1.465688e-004,2.397949e-004
-1.340898e-004,2.384984e-004
-9.308726e-005,2.352571e-004
-2.194059e-005,2.302331e-004
7.189524e-005,2.209954e-004
1.691344e-004,2.080301e-004
2.422259e-004,1.911753e-004
2.728562e-004,1.694586e-004
2.558394e-004,1.409351e-004
1.974959e-004,1.057669e-004
1.190562e-004,6.654708e-005
4.191315e-005,3.283749e-005
-2.015787e-005,7.069105e-006
-6.553616e-005,-1.092015e-005
-9.519411e-005,-2.129233e-005
-1.070249e-004,-2.664048e-005
-1.007043e-004,-2.745081e-005
-7.266703e-005,-2.599222e-005
-2.453363e-005,-2.647842e-005
3.899597e-005,-3.134038e-005
1.078737e-004,-4.187462e-005
1.621656e-004,-6.083626e-005
1.791825e-004,-8.952183e-005
1.449867e-004,-1.209625e-004
6.022653e-005,-1.423551e-004
-5.516398e-005,-1.491618e-004
-1.689338e-004,-1.399241e-004
-2.417012e-004,-1.237176e-004
-2.493182e-004,-1.101041e-004
-1.900023e-004,-1.086455e-004
-7.655660e-005,-1.183694e-004
6.249545e-005,-1.321450e-004
1.927960e-004,-1.454344e-004
2.931144e-004,-1.558065e-004
3.543751e-004,-1.609926e-004
3.692851e-004,-1.601823e-004
3.098072e-004,-1.554824e-004
1.629760e-004,-1.504584e-004
-4.414354e-005,-1.470550e-004
-2.592042e-004,-1.447861e-004
-4.425001e-004,-1.423551e-004
-5.883588e-004,-1.407345e-004
-7.126629e-004,-1.374932e-004
-8.351842e-004,-1.318209e-004
-9.520333e-004,-1.206384e-004
-1.020587e-003,-1.031353e-004
-9.763431e-004,-8.368748e-005
-7.794338e-004,-6.423963e-005
-4.484965e-004,-4.576419e-005
-5.824322e-005,-2.583016e-005
2.921420e-004,-2.330684e-006
5.294057e-004,2.100672e-005
6.331276e-004,4.191315e-005
6.284277e-004,5.730935e-005
5.543638e-004,6.784360e-005
4.459421e-004,7.546067e-005
3.299033e-004,7.918817e-005
2.209954e-004,7.918817e-005
1.245665e-004,8.064677e-005
4.742337e-005,8.599492e-005
-1.682422e-006,1.007429e-004
-2.469570e-005,1.255389e-004
-3.117831e-005,1.556830e-004
-2.583016e-005,1.846927e-004
-1.643037e-005,2.072198e-004
-1.367526e-005,2.224539e-004
-3.198864e-005,2.287745e-004
-8.384954e-005,2.273159e-004
-1.679614e-004,2.161334e-004
-2.708729e-004,2.025199e-004
-3.710293e-004,1.897167e-004
-4.538446e-004,1.795066e-004
-5.016539e-004,1.749688e-004
-4.890127e-004,1.741585e-004
-4.031182e-004,1.735102e-004
-2.549905e-004,1.714034e-004
-7.509801e-005,1.663793e-004
9.977047e-005,1.595726e-004
2.428742e-004,1.529279e-004
3.504856e-004,1.419075e-004
4.318424e-004,1.269974e-004
4.992616e-004,1.146805e-004
5.577672e-004,1.085220e-004
6.052523e-004,1.090082e-004
6.362069e-004,1.140322e-004
6.371793e-004,1.229458e-004
6.013628e-004,1.308870e-004
5.381573e-004,1.336421e-004
4.746277e-004,1.308870e-004
4.329769e-004,1.218114e-004
4.177427e-004,1.057669e-004
4.198496e-004,8.729144e-005
4.365423e-004,7.140904e-005
4.713863e-004,6.087479e-005
5.164405e-004,5.682316e-005
5.507984e-004,5.487838e-005
5.566327e-004,4.839576e-005
5.229231e-004,3.656499e-005
4.511282e-004,2.019640e-005
3.493511e-004,6.258778e-006
2.420638e-004,-7.354709e-006
1.633001e-004,-2.275091e-005
1.313732e-004,-4.106429e-005
1.279698e-004,-5.970181e-005
1.096565e-004,-7.671866e-005
3.850978e-005,-9.357346e-005
-9.584238e-005,-1.096179e-004
-2.814071e-004,-1.292278e-004
-4.886886e-004,-1.522411e-004
-6.932151e-004,-1.734716e-004
-8.726213e-004,-1.888679e-004
-1.008756e-003,-1.979435e-004
-1.102106e-003,-2.057227e-004
-1.175359e-003,-2.138259e-004
-1.234675e-003,-2.196603e-004
-1.243265e-003,-2.209568e-004
-1.147322e-003,-2.167431e-004
-9.201065e-004,-2.097743e-004
-5.888450e-004,-2.021572e-004
-2.224154e-004,-1.956746e-004
1.088461e-004,-1.896782e-004
3.600474e-004,-1.833576e-004
5.269747e-004,-1.728234e-004
6.308587e-004,-1.588858e-004
7.021675e-004,-1.430034e-004
7.639144e-004,-1.280934e-004
8.224201e-004,-1.128592e-004
8.674743e-004,-9.551824e-005
8.755776e-004,-7.671866e-005
8.264717e-004,-5.775702e-005
7.284221e-004,-4.090223e-005
6.084936e-004,-2.339918e-005
4.867825e-004,-3.303076e-006
3.652335e-004,1.598270e-005
2.391467e-004,2.910999e-005
9.539470e-005,3.543054e-005
-7.850138e-005,3.883391e-005
-2.956689e-004,4.564065e-005
-5.661559e-004,6.136099e-005
-8.849383e-004,8.405014e-005
-1.201290e-003,1.117633e-004
-1.431098e-003,1.383420e-004
-1.495438e-003,1.607070e-004
-1.366596e-003,1.754550e-004
-1.072772e-003,1.842065e-004
-6.815463e-004,1.903650e-004
-2.817312e-004,1.983062e-004
5.374392e-005,2.088404e-004
2.913317e-004,2.214815e-004
4.334631e-004,2.326641e-004
4.961824e-004,2.414156e-004
5.010443e-004,2.438466e-004
4.741415e-004,2.372019e-004
4.383250e-004,2.245608e-004
4.112601e-004,2.107852e-004
3.960259e-004,2.025199e-004
3.843572e-004,2.020337e-004
3.616681e-004,2.060853e-004
3.219621e-004,2.107852e-004
2.739907e-004,2.141886e-004
2.294227e-004,2.198609e-004
1.992786e-004,2.237505e-004
1.934442e-004,2.234263e-004
2.122438e-004,2.159713e-004
2.475741e-004,2.052750e-004
2.795009e-004,1.945787e-004
2.934386e-004,1.851789e-004
2.893870e-004,1.772377e-004
2.699391e-004,1.645966e-004
2.389846e-004,1.451488e-004
2.043026e-004,1.187321e-004
1.720516e-004,8.761557e-005
1.475797e-004,5.423012e-005
1.308870e-004,2.441009e-005
1.235941e-004,-7.100305e-007
1.260251e-004,-2.064406e-005
1.386662e-004,-3.474375e-005
1.675138e-004,-4.203669e-005
2.151610e-004,-4.706071e-005
2.752873e-004,-5.402952e-005
3.418961e-004,-6.553616e-005
4.008879e-004,-8.336335e-005
4.410801e-004,-1.070249e-004
4.563143e-004,-1.352242e-004
4.465904e-004,-1.593720e-004
4.183910e-004,-1.739578e-004
3.786850e-004,-1.783336e-004
3.350894e-004,-1.776853e-004
2.924662e-004,-1.741199e-004
2.501671e-004,-1.676373e-004
2.093267e-004,-1.632615e-004
1.786963e-004,-1.627754e-004
1.775618e-004,-1.630995e-004
2.169437e-004,-1.661787e-004
2.820940e-004,-1.723372e-004
3.440029e-004,-1.791439e-004
3.806297e-004,-1.828714e-004
3.900295e-004,-1.835197e-004
3.783608e-004,-1.763888e-004
3.504856e-004,-1.634236e-004
3.020280e-004,-1.498101e-004
2.252090e-004,-1.415448e-004
1.182459e-004,-1.384655e-004
-7.678839e-006,-1.400862e-004
-1.387897e-004,-1.423551e-004
-2.624455e-004,-1.392759e-004
-3.739464e-004,-1.266348e-004
-4.719959e-004,-1.050801e-004
-5.578905e-004,-7.817725e-005
-6.300096e-004,-4.851930e-005
-6.825188e-004,-1.788895e-005
-7.107180e-004,1.144487e-005
-7.209282e-004,3.591673e-005
-7.215765e-004,5.552663e-005
-7.180111e-004,7.238143e-005
-7.040734e-004,8.696731e-005
-6.658260e-004,9.814982e-005
-5.903036e-004,1.062531e-004
-4.684305e-004,1.116012e-004
-3.037722e-004,1.141943e-004
-1.088076e-004,1.156529e-004
9.474644e-005,1.219734e-004
2.803113e-004,1.386662e-004
4.211461e-004,1.628139e-004
4.956961e-004,1.895547e-004
4.990995e-004,2.141886e-004
4.420525e-004,2.339606e-004
3.405996e-004,2.466017e-004
2.143507e-004,2.525981e-004
8.048470e-005,2.558394e-004
-4.446767e-005,2.626462e-004
-1.502963e-004,2.692908e-004
-2.311669e-004,2.704253e-004
-2.817312e-004,2.652392e-004
-2.992343e-004,2.577842e-004
-2.867553e-004,2.506533e-004
-2.483458e-004,2.474120e-004
-1.906506e-004,2.491947e-004
-1.240417e-004,2.501671e-004
-6.067420e-005,2.441707e-004
-1.189254e-005,2.287745e-004
1.484824e-005,2.072198e-004
2.019640e-005,1.824238e-004
2.369211e-006,1.584381e-004
-3.652646e-005,1.372076e-004
-8.125649e-005,1.174356e-004
-1.123730e-004,9.847395e-005
-1.190177e-004,8.323981e-005
-1.044318e-004,7.221937e-005
-8.044617e-005,6.395404e-005
-5.953974e-005,5.714729e-005
-4.722278e-005,4.920609e-005
-4.560212e-005,3.980630e-005
-5.613637e-005,2.927205e-005
-7.914964e-005,1.630683e-005
-1.058904e-004,-2.330684e-006
-1.216107e-004,-2.518189e-005
-1.068628e-004,-4.819517e-005
-4.932962e-005,-7.153257e-005
4.661304e-005,-9.373552e-005
1.645966e-004,-1.164247e-004
2.858215e-004,-1.379794e-004
3.908399e-004,-1.553203e-004
4.602039e-004,-1.656925e-004
4.825689e-004,-1.695821e-004
4.558281e-004,-1.715269e-004
3.958639e-004,-1.715269e-004
3.240689e-004,-1.692580e-004
2.521119e-004,-1.673132e-004
1.806411e-004,-1.648822e-004
1.062531e-004,-1.622891e-004
2.975825e-005,-1.598582e-004
-4.430560e-005,-1.569410e-004
-1.054042e-004,-1.528894e-004
-1.441378e-004,-1.485136e-004
-1.721751e-004,-1.489998e-004
-2.084778e-004,-1.548341e-004
-2.572594e-004,-1.624512e-004
-3.217614e-004,-1.684476e-004
-4.034423e-004,-1.703924e-004
-5.027883e-004,-1.656925e-004
-6.176926e-004,-1.549962e-004
-7.424829e-004,-1.415448e-004
-8.596561e-004,-1.287416e-004
-9.416611e-004,-1.180453e-004
-9.622434e-004,-1.068628e-004
-9.095722e-004,-9.227693e-005
-7.886715e-004,-7.428769e-005
-6.222305e-004,-5.581224e-005
-4.387725e-004,-3.976777e-005
-2.640662e-004,-2.485776e-005
-1.110765e-004,-7.516774e-006
1.630683e-005,1.387585e-005
1.195424e-004,3.786152e-005
2.039785e-004,6.022653e-005
2.760976e-004,7.643307e-005
3.360618e-004,8.567078e-005
3.832228e-004,9.118101e-005
4.112601e-004,9.458438e-005
4.143393e-004,9.652917e-005
3.911640e-004,9.831188e-005
3.368721e-004,1.056048e-004
2.425500e-004,1.203528e-004
1.085220e-004,1.417454e-004
-4.819517e-005,1.636242e-004
-1.830335e-004,1.808031e-004
-2.446183e-004,1.876099e-004
-2.099363e-004,1.830721e-004
-9.211487e-005,1.736723e-004
6.281957e-005,1.699448e-004
1.997648e-004,1.723757e-004
2.846870e-004,1.772377e-004
3.154794e-004,1.790204e-004
3.107795e-004,1.772377e-004
2.995970e-004,1.762653e-004
2.976523e-004,1.783722e-004
3.080245e-004,1.819376e-004
3.316860e-004,1.869616e-004
3.660439e-004,1.923098e-004
4.028327e-004,1.976579e-004
4.355699e-004,2.030061e-004
4.550177e-004,2.062474e-004
4.579349e-004,2.049509e-004
4.438352e-004,1.936063e-004
4.214702e-004,1.746447e-004
4.042913e-004,1.526038e-004
4.039671e-004,1.307250e-004
4.224426e-004,1.088461e-004
4.488593e-004,8.583286e-005
4.736553e-004,6.411610e-005
4.924549e-004,4.418206e-005
5.065545e-004,2.975825e-005
5.235714e-004,2.214118e-005
5.401021e-004,2.052053e-005
5.415607e-004,1.954813e-005
5.097958e-004,1.906194e-005
4.410801e-004,1.841368e-005
3.504856e-004,1.663096e-005
2.616738e-004,8.365628e-006
1.949028e-004,-7.516774e-006
1.628139e-004,-2.826114e-005
1.628139e-004,-4.997789e-005
1.799928e-004,-6.877746e-005
1.908512e-004,-8.660465e-005
1.801549e-004,-1.041077e-004
1.466074e-004,-1.217728e-004
9.328786e-005,-1.376552e-004
3.510641e-005,-1.520790e-004
-1.140634e-005,-1.653684e-004
-3.506788e-005,-1.757406e-004
-3.555408e-005,-1.814128e-004
-2.372331e-005,-1.815749e-004
-1.545797e-005,-1.780095e-004
-1.967167e-005,-1.746061e-004
-4.171256e-005,-1.723372e-004
-8.547019e-005,-1.687718e-004
-1.502963e-004,-1.611547e-004
-2.345703e-004,-1.525652e-004
-3.277578e-004,-1.452723e-004
-4.141386e-004,-1.420310e-004
-4.745890e-004,-1.413827e-004
-4.885266e-004,-1.407345e-004
-4.455793e-004,-1.370070e-004
-3.497987e-004,-1.285796e-004
-2.194982e-004,-1.094559e-004
-8.077030e-005,-7.866345e-005
3.267542e-005,-4.576419e-005
1.064152e-004,-1.643037e-005
1.427178e-004,6.744974e-006
1.490383e-004,2.068259e-005
1.386662e-004,2.441009e-005
1.224596e-004,2.554455e-005
1.007429e-004,2.927205e-005
7.789165e-005,3.964424e-005
7.432621e-005,5.747142e-005
1.094944e-004,7.610894e-005
1.796687e-004,9.182927e-005
2.551911e-004,1.046324e-004
3.088348e-004,1.143563e-004
3.264999e-004,1.180839e-004
3.125623e-004,1.159770e-004
2.861456e-004,1.171115e-004
2.623220e-004,1.292664e-004
2.431983e-004,1.529279e-004
2.185644e-004,1.816135e-004
1.783722e-004,2.080301e-004
1.211631e-004,2.287745e-004
5.374392e-005,2.401191e-004
-1.562004e-005,2.397949e-004
-8.838737e-005,2.292607e-004
-1.690959e-004,2.117576e-004
-2.593663e-004,1.971717e-004
-3.596847e-004,1.906891e-004
-4.779923e-004,1.898788e-004
-6.103997e-004,1.906891e-004
-7.522068e-004,1.927960e-004
-8.906106e-004,1.963614e-004
-9.996805e-004,2.031682e-004
-1.041655e-003,2.141886e-004
-9.901187e-004,2.258573e-004
-8.483115e-004,2.326641e-004
-6.408680e-004,2.303951e-004
-4.032803e-004,2.143507e-004
-1.715269e-004,1.895547e-004
2.846173e-005,1.621656e-004
1.863134e-004,1.407730e-004
2.919800e-004,1.258630e-004
3.428685e-004,1.146805e-004
3.485408e-004,1.007429e-004
3.221241e-004,8.388807e-005
2.696149e-004,6.719535e-005
1.829100e-004,5.228533e-005
4.726130e-005,3.591673e-005
-1.349001e-004,1.630683e-005
-3.486642e-004,-7.192643e-006
-5.796073e-004,-3.441962e-005
-8.064987e-004,-6.310517e-005
-9.878498e-004,-8.417367e-005
-1.065641e-003,-9.243900e-005
-9.995184e-004,-8.952183e-005
-7.906163e-004,-8.222889e-005
-4.844750e-004,-8.060823e-005
-1.556445e-004,-9.195280e-005
1.195424e-004,-1.146419e-004
2.853353e-004,-1.396000e-004
3.208276e-004,-1.627754e-004
2.425500e-004,-1.809267e-004
1.041462e-004,-1.934057e-004
-2.453363e-005,-1.981056e-004
-8.579432e-005,-1.963229e-004
-5.321920e-005,-1.911368e-004
5.374392e-005,-1.857886e-004
1.835583e-004,-1.849783e-004
2.939248e-004,-1.859507e-004
3.713920e-004,-1.869231e-004
4.290873e-004,-1.872472e-004
4.903480e-004,-1.896782e-004
5.663567e-004,-1.908126e-004
6.554927e-004,-1.870851e-004
7.402529e-004,-1.783336e-004
7.979482e-004,-1.694200e-004
8.144788e-004,-1.588858e-004
7.893587e-004,-1.449482e-004
7.374978e-004,-1.271210e-004
6.843403e-004,-1.078352e-004
6.449584e-004,-9.033215e-005
6.268070e-004,-7.526008e-005
6.315070e-004,-6.391550e-005
6.543582e-004,-5.354332e-005
6.802886e-004,-3.911951e-005
6.806127e-004,-2.356124e-005
6.245382e-004,-8.651231e-006
5.033132e-004,8.203562e-006
3.290929e-004,2.829966e-005
1.378558e-004,4.807163e-005
-3.571614e-005,6.687121e-005
-1.752544e-004,8.761557e-005
-2.927517e-004,1.122495e-004
-4.083043e-004,1.378558e-004
-5.347152e-004,1.592484e-004
-6.598296e-004,1.728619e-004
-7.478310e-004,1.791825e-004
-7.619307e-004,1.835583e-004
-6.864083e-004,1.921477e-004
-5.343911e-004,2.054371e-004
-3.212752e-004,2.243987e-004
-5.791909e-005,2.433604e-004
2.362295e-004,2.568118e-004
5.256782e-004,2.647530e-004
7.676419e-004,2.712356e-004
9.293833e-004,2.782044e-004
1.000692e-003,2.791768e-004
9.917786e-004,2.713977e-004
9.293833e-004,2.572980e-004
8.428403e-004,2.419018e-004
7.530560e-004,2.331503e-004
6.660269e-004,2.362295e-004
5.798081e-004,2.469258e-004
4.736553e-004,2.551911e-004
3.229345e-004,2.545429e-004
1.069013e-004,2.417397e-004
-1.930815e-004,2.184023e-004
-5.791211e-004,1.897167e-004
-1.021721e-003,1.636242e-004
-1.469022e-003,1.449867e-004
-1.864623e-003,1.342904e-004
-2.168010e-003,1.307250e-004
-2.356492e-003,1.282940e-004
-2.412405e-003,1.214872e-004
-2.314355e-003,1.080358e-004
-2.056509e-003,8.680524e-005
-1.665283e-003,5.666109e-005
-1.194645e-003,2.214118e-005
-7.105560e-004,-1.513384e-005
-2.660110e-004,-5.273300e-005
1.119254e-004,-8.709085e-005
4.166082e-004,-1.120489e-004
6.481997e-004,-1.246900e-004
8.029722e-004,-1.274451e-004
8.776844e-004,-1.263107e-004
8.869221e-004,-1.255003e-004
8.609917e-004,-1.233935e-004
8.233925e-004,-1.196660e-004
7.775280e-004,-1.170729e-004
7.097846e-004,-1.180453e-004
6.007145e-004,-1.220970e-004
4.430249e-004,-1.295519e-004
2.688046e-004,-1.391138e-004
1.430419e-004,-1.475412e-004
1.187321e-004,-1.536997e-004
2.025199e-004,-1.605064e-004
3.551855e-004,-1.708786e-004
5.123889e-004,-1.823853e-004
6.196762e-004,-1.919471e-004
6.532237e-004,-1.974573e-004
6.167590e-004,-1.976194e-004
5.271368e-004,-1.924333e-004
4.083429e-004,-1.870851e-004
2.897111e-004,-1.814128e-004
1.950649e-004,-1.742820e-004
1.291043e-004,-1.645581e-004
8.777764e-005,-1.540238e-004
6.995045e-005,-1.430034e-004
8.048470e-005,-1.327933e-004
1.200286e-004,-1.256624e-004
1.843686e-004,-1.190177e-004
2.634565e-004,-1.081593e-004
3.367100e-004,-9.357346e-005
3.871123e-004,-7.542214e-005
4.093153e-004,-5.338126e-005
4.033189e-004,-2.971972e-005
3.728506e-004,-4.923729e-006
3.307136e-004,1.436204e-005
2.924662e-004,2.927205e-005
2.712356e-004,4.369587e-005
2.684805e-004,6.022653e-005
2.798251e-004,7.870197e-005
2.897111e-004,9.750156e-005
2.799871e-004,1.120874e-004
2.381743e-004,1.177597e-004
1.582761e-004,1.180839e-004
4.612685e-005,1.218114e-004
-7.688073e-005,1.354248e-004
-1.807646e-004,1.581140e-004
-2.454286e-004,1.856651e-004
-2.687660e-004,2.122438e-004
-2.554767e-004,2.325020e-004
-2.157707e-004,2.423880e-004
-1.524032e-004,2.419018e-004
-7.282909e-005,2.359054e-004
6.258778e-006,2.300710e-004
6.703327e-005,2.234263e-004
1.030118e-004,2.167816e-004
1.182459e-004,2.114335e-004
1.255389e-004,2.038164e-004
1.373696e-004,1.965235e-004
1.598967e-004,1.918236e-004
1.923098e-004,1.957132e-004
2.268297e-004,2.086784e-004
2.540567e-004,2.243987e-004
2.655633e-004,2.321778e-004
2.556773e-004,2.253711e-004
2.261814e-004,2.054371e-004
1.804790e-004,1.783722e-004
1.150046e-004,1.514693e-004
2.441009e-005,1.292664e-004
-9.017008e-005,1.127357e-004
-2.175534e-004,1.002567e-004
-3.371576e-004,8.631905e-005
-4.170558e-004,6.687121e-005
-4.343968e-004,4.175109e-005
-3.912874e-004,1.128280e-005
-3.156029e-004,-1.691656e-005
-2.434839e-004,-3.328516e-005
-2.062088e-004,-3.182657e-005
-2.118811e-004,-1.805102e-005
-2.506147e-004,-5.409925e-006
-3.018274e-004,-3.465141e-006
-3.528779e-004,-1.513384e-005
-4.083043e-004,-3.296103e-005
-4.716718e-004,-5.240886e-005
-5.309877e-004,-6.845333e-005
-5.681007e-004,-7.833932e-005
-5.752315e-004,-8.887356e-005
-5.588629e-004,-1.045939e-004
-5.306636e-004,-1.243659e-004
-4.979264e-004,-1.415448e-004
-4.624341e-004,-1.543479e-004
-4.224039e-004,-1.627754e-004
-3.731361e-004,-1.669890e-004
-3.091203e-004,-1.663408e-004
-2.314910e-004,-1.622891e-004
-1.465688e-004,-1.564548e-004
-6.294311e-005,-1.498101e-004
1.079661e-005,-1.459206e-004
7.270556e-005,-1.433275e-004
1.269974e-004,-1.423551e-004
1.775618e-004,-1.434896e-004
2.297469e-004,-1.442999e-004
2.908455e-004,-1.455964e-004
3.624784e-004,-1.454344e-004
4.298976e-004,-1.417068e-004
4.773828e-004,-1.324691e-004
4.903480e-004,-1.198280e-004
4.687933e-004,-1.054042e-004
4.234150e-004,-9.114248e-005
3.694472e-004,-7.914964e-005
3.213138e-004,-6.796714e-005
2.762596e-004,-5.435365e-005
2.282883e-004,-3.944364e-005
1.733481e-004,-2.550602e-005
1.130598e-004,-9.461558e-006
5.001642e-005,9.986281e-006
-1.270286e-005,3.121684e-005
-6.715681e-005,5.309566e-005
-1.062146e-004,7.465034e-005
-1.303623e-004,9.280167e-005
-1.376552e-004,1.081979e-004
-1.280934e-004,1.195424e-004
-9.989401e-005,1.271595e-004
-4.738484e-005,1.299146e-004
3.786152e-005,1.299146e-004
1.566554e-004,1.326697e-004
2.979764e-004,1.438522e-004
4.378388e-004,1.613553e-004
5.475571e-004,1.778860e-004
6.141660e-004,1.910133e-004
6.430136e-004,2.021958e-004
6.430136e-004,2.104611e-004
6.180556e-004,2.153231e-004
5.791598e-004,2.179161e-004
5.433434e-004,2.188885e-004
5.240576e-004,2.174299e-004
5.191956e-004,2.135403e-004
5.023408e-004,2.099749e-004
4.433490e-004,2.106232e-004
3.284447e-004,2.171058e-004
1.605450e-004,2.250470e-004
-3.328516e-005,2.286124e-004
-2.279256e-004,2.271538e-004
-4.165696e-004,2.208333e-004
-6.081308e-004,2.086784e-004
-7.898060e-004,1.906891e-004
-9.265891e-004,1.725378e-004
-9.855808e-004,1.595726e-004
-9.564091e-004,1.519555e-004
-8.536596e-004,1.475797e-004
-7.125008e-004,1.420695e-004
-5.747453e-004,1.315353e-004
-4.656754e-004,1.141943e-004
-3.852910e-004,9.134307e-005
-3.212752e-004,6.589881e-005
-2.624455e-004,4.142696e-005
-2.156086e-004,1.906194e-005
-2.037779e-004,-2.168618e-006
-2.515871e-004,-2.096820e-005
-3.747568e-004,-3.733679e-005
-5.668041e-004,-4.754691e-005
-8.006644e-004,-5.483985e-005
-1.034525e-003,-6.440170e-005
-1.203721e-003,-7.817725e-005
-1.256554e-003,-9.324933e-005
-1.189135e-003,-1.071869e-004
-1.035173e-003,-1.209625e-004
-8.304843e-004,-1.392759e-004
-6.014861e-004,-1.621271e-004
-3.711913e-004,-1.812508e-004
-1.574272e-004,-1.880575e-004
3.332369e-005,-1.810887e-004
1.991165e-004,-1.692580e-004
3.389789e-004,-1.588858e-004
4.551798e-004,-1.522411e-004
5.520949e-004,-1.496481e-004
6.319932e-004,-1.477033e-004
6.892023e-004,-1.433275e-004
7.131880e-004,-1.366828e-004
7.020054e-004,-1.319829e-004
6.652166e-004,-1.293899e-004
6.157866e-004,-1.303623e-004
5.647360e-004,-1.381414e-004
5.182233e-004,-1.551583e-004
4.804620e-004,-1.731475e-004
4.564763e-004,-1.828714e-004
4.482110e-004,-1.814128e-004
4.550177e-004,-1.731475e-004
4.704139e-004,-1.590478e-004
4.851619e-004,-1.428413e-004
4.861343e-004,-1.276072e-004
4.684692e-004,-1.122110e-004
4.388112e-004,-9.341139e-005
4.187151e-004,-7.104638e-005
4.271425e-004,-5.030202e-005
4.642555e-004,-3.231277e-005
5.144958e-004,-1.529591e-005
5.637637e-004,2.207145e-006
6.028214e-004,2.343770e-005
6.204865e-004,4.418206e-005
6.131936e-004,6.136099e-005
5.892079e-004,7.286763e-005
5.631154e-004,7.999851e-005
5.460985e-004,8.858796e-005
5.389676e-004,1.009049e-004
5.316747e-004,1.190562e-004
5.177371e-004,1.414213e-004
4.973168e-004,1.678379e-004
4.751139e-004,1.947408e-004
4.491834e-004,2.169437e-004
4.192013e-004,2.295848e-004
3.843572e-004,2.303951e-004
3.441650e-004,2.252090e-004
2.952213e-004,2.229401e-004
2.355812e-004,2.255332e-004
1.697827e-004,2.305572e-004
1.047945e-004,2.341226e-004
4.855783e-005,2.334744e-004
1.257933e-005,2.290986e-004
6.420843e-006,2.187264e-004
3.056858e-005,2.034923e-004
7.043665e-005,1.885823e-004
1.043083e-004,1.790204e-004
1.135460e-004,1.773998e-004
8.518459e-005,1.827479e-004
1.695509e-005,1.900409e-004
-7.736692e-005,1.934442e-004
-1.677994e-004,1.919856e-004
-2.212809e-004,1.838824e-004
-2.266291e-004,1.731861e-004
-1.994021e-004,1.628139e-004
-1.686097e-004,1.483901e-004
-1.538618e-004,1.232699e-004
-1.624512e-004,9.150514e-005
-1.870851e-004,6.168512e-005
-2.212809e-004,3.818565e-005
-2.652006e-004,2.424803e-005
-3.138202e-004,1.922400e-005
-3.523917e-004,1.679302e-005
-3.647087e-004,7.879432e-006
-3.412093e-004,-7.192643e-006
-2.966413e-004,-2.469570e-005
-2.496423e-004,-3.668853e-005
-2.123673e-004,-4.106429e-005
-1.823853e-004,-4.025397e-005
-1.543479e-004,-4.171256e-005
-1.224211e-004,-5.013995e-005
-7.882551e-005,-7.201877e-005
-1.934754e-005,-1.018388e-004
4.450620e-005,-1.321450e-004
1.000946e-004,-1.551583e-004
1.316974e-004,-1.666649e-004
1.368834e-004,-1.684476e-004
1.266733e-004,-1.621271e-004
1.175977e-004,-1.520790e-004
1.156529e-004,-1.449482e-004
1.174356e-004,-1.439758e-004
1.153287e-004,-1.491618e-004
1.028497e-004,-1.558065e-004
8.178122e-005,-1.608306e-004
4.807163e-005,-1.618029e-004
-3.141010e-006,-1.585616e-004
-8.077030e-005,-1.507825e-004
-1.861127e-004,-1.428413e-004
-3.194925e-004,-1.337657e-004
-4.731304e-004,-1.206384e-004
-6.316302e-004,-9.746302e-005
-7.729512e-004,-6.456377e-005
-8.805625e-004,-3.555408e-005
-9.377715e-004,-2.113026e-005
-9.355026e-004,-1.853722e-005
-8.829935e-004,-1.967167e-005
-7.970989e-004,-1.691656e-005
-6.825188e-004,-7.192643e-006
-5.415219e-004,6.258778e-006
-3.807532e-004,2.100672e-005
-2.267911e-004,3.332369e-005
-1.329553e-004,4.175109e-005
-1.593720e-004,4.871989e-005
-3.254889e-004,5.763349e-005
-5.771763e-004,7.043665e-005
-8.141157e-004,8.453633e-005
-9.346923e-004,9.669123e-005
-8.826694e-004,1.031738e-004
-6.749016e-004,1.062531e-004
-3.815635e-004,1.099806e-004
-8.433573e-005,1.218114e-004
1.553589e-004,1.422316e-004
3.128864e-004,1.683241e-004
3.939191e-004,1.929580e-004
4.248736e-004,2.091646e-004
4.350837e-004,2.138645e-004
4.423766e-004,2.102990e-004
4.477248e-004,2.062474e-004
4.454559e-004,2.041406e-004
4.376768e-004,2.052750e-004
4.289252e-004,2.072198e-004
4.200116e-004,2.052750e-004
4.112601e-004,1.960373e-004
4.016982e-004,1.824238e-004
3.893813e-004,1.714034e-004
3.788470e-004,1.668655e-004
3.738230e-004,1.697827e-004
3.769022e-004,1.778860e-004
3.809539e-004,1.867996e-004
3.717161e-004,1.914995e-004
3.459477e-004,1.913374e-004
3.122381e-004,1.830721e-004
2.895490e-004,1.678379e-004
2.908455e-004,1.475797e-004
3.149933e-004,1.257009e-004
3.550234e-004,1.072255e-004
3.989431e-004,9.393612e-005
4.367043e-004,8.242948e-005
4.608521e-004,6.751948e-005
4.694416e-004,4.693717e-005
4.564763e-004,2.424803e-005
4.200116e-004,4.151929e-006
3.666921e-004,-1.302700e-005
3.122381e-004,-2.761287e-005
2.683184e-004,-4.041603e-005
2.355812e-004,-5.143648e-005
2.021958e-004,-6.132246e-005
1.556830e-004,-7.153257e-005
9.750156e-005,-8.141856e-005
4.353380e-005,-9.146661e-005
4.800190e-006,-1.047560e-004
-2.113026e-005,-1.246900e-004
-4.641245e-005,-1.485136e-004
-7.526008e-005,-1.689338e-004
-9.405965e-005,-1.807646e-004
-8.822530e-005,-1.857886e-004
-5.953974e-005,-1.874093e-004
-1.432352e-005,-1.887058e-004
3.656499e-005,-1.916230e-004
8.988449e-005,-1.937298e-004
1.511452e-004,-1.911368e-004
2.276400e-004,-1.859507e-004
3.161277e-004,-1.831956e-004
4.020224e-004,-1.841680e-004
4.692795e-004,-1.870851e-004
5.067165e-004,-1.903264e-004
5.185474e-004,-1.914609e-004
5.115786e-004,-1.916230e-004
4.906721e-004,-1.874093e-004
4.595556e-004,-1.768750e-004
4.198496e-004,-1.608306e-004
3.666921e-004,-1.410586e-004
2.919800e-004,-1.172350e-004
1.918236e-004,-9.454585e-005
6.103686e-005,-7.704279e-005
-9.357346e-005,-6.569822e-005
-2.511010e-004,-5.548811e-005
-3.946908e-004,-4.284701e-005
-5.283947e-004,-2.712668e-005
-6.729569e-004,-7.678839e-006
-8.421530e-004,1.565857e-005
-1.021397e-003,4.612685e-005
-1.161422e-003,7.935024e-005
-1.204207e-003,1.146805e-004
-1.121554e-003,1.443384e-004
-9.275614e-004,1.600588e-004
-6.784671e-004,1.639484e-004
-4.478482e-004,1.615174e-004
-2.906449e-004,1.594105e-004
-2.212809e-004,1.603829e-004
-2.196603e-004,1.636242e-004
-2.478596e-004,1.735102e-004
-2.716832e-004,1.908512e-004
-2.666592e-004,2.085163e-004
-2.175534e-004,2.171058e-004
-1.199901e-004,2.171058e-004
9.175954e-006,2.130541e-004
1.435281e-004,2.132162e-004
2.564877e-004,2.161334e-004
3.349273e-004,2.211574e-004
3.722023e-004,2.274780e-004
3.694472e-004,2.320158e-004
3.331446e-004,2.325020e-004
2.770700e-004,2.269918e-004
2.208333e-004,2.188885e-004
1.812893e-004,2.122438e-004
1.673517e-004,2.080301e-004
1.722137e-004,2.044647e-004
1.812893e-004,1.968476e-004
1.801549e-004,1.837203e-004
1.611932e-004,1.668655e-004
1.229458e-004,1.488763e-004
7.043665e-005,1.302388e-004
8.365628e-006,1.130598e-004
-5.467778e-005,1.009049e-004
-1.198280e-004,9.312580e-005
-1.919471e-004,8.696731e-005
-2.780038e-004,7.983644e-005
-3.728119e-004,6.687121e-005
-4.574101e-004,4.726130e-005
-5.045711e-004,2.068259e-005
-4.891749e-004,-7.840905e-006
-4.039285e-004,-3.344723e-005
-2.664971e-004,-5.176061e-005
-1.049180e-004,-6.229485e-005
4.839576e-005,-6.521203e-005
1.649207e-004,-6.099833e-005
2.372019e-004,-5.289507e-005
2.866318e-004,-4.738484e-005
3.506476e-004,-5.111234e-005
4.454559e-004,-6.586029e-005
5.571189e-004,-9.081835e-005
6.537099e-004,-1.190177e-004
7.164293e-004,-1.441378e-004
7.473837e-004,-1.637477e-004
7.605111e-004,-1.793060e-004
7.713694e-004,-1.916230e-004
7.938966e-004,-2.023193e-004
8.190167e-004,-2.100984e-004
8.185305e-004,-2.100984e-004
7.609973e-004,-2.011848e-004
6.371793e-004,-1.831956e-004
4.559901e-004,-1.642339e-004
2.420638e-004,-1.467309e-004
2.327564e-005,-1.347380e-004
-1.857886e-004,-1.274451e-004
-3.838324e-004,-1.243659e-004
-5.721523e-004,-1.285796e-004
-7.518827e-004,-1.389517e-004
-9.196203e-004,-1.498101e-004
-1.053162e-003,-1.532135e-004
-1.117178e-003,-1.452723e-004
-1.076824e-003,-1.261486e-004
-9.179996e-004,-1.016767e-004
-6.661501e-004,-7.866345e-005
-3.728119e-004,-6.197072e-005
-9.179074e-005,-4.868137e-005
1.410971e-004,-3.344723e-005
3.127243e-004,-1.189254e-005
4.232529e-004,1.403791e-005
4.807861e-004,3.721326e-005
4.931031e-004,5.277153e-005
4.660382e-004,6.314371e-005
4.135290e-004,7.254349e-005
3.577785e-004,8.421220e-005
3.183966e-004,9.636710e-005
3.099692e-004,1.054428e-004
3.290929e-004,1.117633e-004
3.532407e-004,1.169494e-004
3.537269e-004,1.294284e-004
3.132105e-004,1.550348e-004
2.337985e-004,1.887444e-004
1.342904e-004,2.190506e-004
3.478228e-005,2.407673e-004
-4.673658e-005,2.514636e-004
-1.002181e-004,2.519498e-004
-1.193418e-004,2.441707e-004
-1.188556e-004,2.350950e-004
-1.287416e-004,2.284504e-004
-1.746061e-004,2.261814e-004
-2.556388e-004,2.260194e-004
-3.418575e-004,2.268297e-004
-3.880461e-004,2.282883e-004
-3.608192e-004,2.290986e-004
-2.488320e-004,2.266676e-004
-6.926366e-005,2.237505e-004
1.297526e-004,2.239125e-004
2.929524e-004,2.260194e-004
3.773884e-004,2.261814e-004
3.618301e-004,2.214815e-004
2.410915e-004,2.109473e-004
3.656499e-005,1.992786e-004
-1.966470e-004,1.885823e-004
-3.802670e-004,1.796687e-004
-4.494688e-004,1.726999e-004
-3.796187e-004,1.621656e-004
-2.023193e-004,1.448246e-004
1.306552e-005,1.197045e-004
1.919856e-004,9.037068e-005
2.950592e-004,6.314371e-005
3.269861e-004,4.045456e-005
3.247172e-004,2.035846e-005
3.218000e-004,2.045080e-006
3.302274e-004,-1.659243e-005
3.477304e-004,-3.441962e-005
3.649094e-004,-4.949169e-005
3.713920e-004,-5.937768e-005
3.619922e-004,-6.488790e-005
3.323342e-004,-7.299116e-005
2.830664e-004,-8.741498e-005
2.216436e-004,-1.086455e-004
1.644345e-004,-1.340898e-004
1.300767e-004,-1.577513e-004
1.252147e-004,-1.765509e-004
1.441764e-004,-1.898403e-004
1.712413e-004,-1.981056e-004
1.863134e-004,-2.016710e-004
1.663793e-004,-2.011848e-004
9.393612e-005,-1.959987e-004
-4.155049e-005,-1.883817e-004
-2.360289e-004,-1.836818e-004
-4.677822e-004,-1.844921e-004
-6.825188e-004,-1.877334e-004
-8.011505e-004,-1.940539e-004
-7.651721e-004,-2.023193e-004
-5.818762e-004,-2.073433e-004
-3.215994e-004,-2.073433e-004
-7.947377e-005,-2.021572e-004
7.546067e-005,-1.874093e-004
1.266733e-004,-1.603444e-004
1.062531e-004,-1.266348e-004
5.860588e-005,-9.454585e-005
2.149292e-005,-6.974985e-005
1.290346e-005,-5.565017e-005
2.165498e-005,-4.868137e-005
2.311357e-005,-4.414354e-005
-3.303076e-006,-3.490581e-005
-6.278104e-005,-1.934754e-005
-1.415448e-004,-8.720959e-007
-2.149604e-004,1.225520e-005
-2.650386e-004,1.419998e-005
-2.852967e-004,9.338019e-006
-2.767073e-004,6.744974e-006
-2.446183e-004,1.322759e-005
-1.987538e-004,2.910999e-005
-1.465688e-004,5.001642e-005
-9.568031e-005,7.173317e-005
-5.678463e-005,8.956036e-005
-3.636440e-005,1.046324e-004
-3.134038e-005,1.197045e-004
-3.490581e-005,1.381800e-004
-3.798505e-005,1.624898e-004
-3.036798e-005,1.885823e-004
-6.220252e-006,2.119197e-004
3.235129e-005,2.287745e-004
7.740546e-005,2.372019e-004
1.200286e-004,2.384984e-004
1.594105e-004,2.376881e-004
1.952270e-004,2.372019e-004
2.239125e-004,2.370398e-004
2.397949e-004,2.372019e-004
2.341226e-004,2.375260e-004
1.997648e-004,2.359054e-004
1.378558e-004,2.331503e-004
5.487838e-005,2.273159e-004
-3.069211e-005,2.190506e-004
-9.697683e-005,2.072198e-004
-1.266348e-004,1.934442e-004
-1.186936e-004,1.833962e-004
-9.049421e-005,1.777239e-004
-6.148453e-005,1.723757e-004
-4.527799e-005,1.610312e-004
-4.657452e-005,1.407730e-004
-4.868137e-005,1.137081e-004
-2.874733e-005,8.923623e-005
2.392390e-005,6.995045e-005
9.977047e-005,5.633696e-005
1.791825e-004,4.434413e-005
2.524360e-004,3.154097e-005
3.224483e-004,1.776542e-005
3.906778e-004,5.286387e-006
4.553419e-004,-4.923729e-006
5.089855e-004,-1.529591e-005
5.396159e-004,-3.101625e-005
5.405883e-004,-4.884343e-005
5.054200e-004,-6.375344e-005
4.279528e-004,-7.056019e-005
3.141829e-004,-7.234290e-005
1.761032e-004,-7.704279e-005
2.927205e-005,-9.179074e-005
-1.125351e-004,-1.135075e-004
-2.412149e-004,-1.371690e-004
-3.548227e-004,-1.549962e-004
-4.585445e-004,-1.595340e-004
-5.481666e-004,-1.522411e-004
-6.068342e-004,-1.408965e-004
-6.074825e-004,-1.305243e-004
-5.330946e-004,-1.271210e-004
-3.828600e-004,-1.345760e-004
-1.814128e-004,-1.498101e-004
3.494434e-005,-1.634236e-004
2.260194e-004,-1.689338e-004
3.702575e-004,-1.643960e-004
4.734932e-004,-1.562927e-004
5.529052e-004,-1.528894e-004
6.148142e-004,-1.538618e-004
6.564650e-004,-1.554824e-004
6.796404e-004,-1.556445e-004
6.861230e-004,-1.511067e-004
6.739681e-004,-1.430034e-004
6.366931e-004,-1.334415e-004
5.751082e-004,-1.219349e-004
5.012064e-004,-1.097800e-004
4.290873e-004,-9.908367e-005
3.668542e-004,-8.903562e-005
3.106175e-004,-8.028410e-005
2.474120e-004,-6.861539e-005
1.529279e-004,-4.787104e-005
2.207145e-006,-1.967167e-005
-2.071812e-004,1.663096e-005
-4.719959e-004,5.714729e-005
-7.744097e-004,9.263960e-005
-1.078444e-003,1.177597e-004
-1.346176e-003,1.308870e-004
-1.546813e-003,1.325077e-004
-1.650049e-003,1.258630e-004
-1.629466e-003,1.156529e-004
-1.471939e-003,1.096565e-004
-1.190756e-003,1.114392e-004
-8.377773e-004,1.229458e-004
-4.914437e-004,1.446626e-004
-2.397564e-004,1.710792e-004
-1.285796e-004,1.979821e-004
-1.353863e-004,2.216436e-004
-1.878955e-004,2.436845e-004
-2.135018e-004,2.649151e-004
-1.600202e-004,2.859836e-004
-1.302700e-005,3.026763e-004
1.945787e-004,3.117519e-004
4.033189e-004,3.120761e-004
5.559844e-004,2.979764e-004
6.175694e-004,2.744769e-004
5.895320e-004,2.485465e-004
5.047718e-004,2.248849e-004
4.083429e-004,2.036544e-004
3.368721e-004,1.845306e-004
3.060797e-004,1.684862e-004
3.107795e-004,1.584381e-004
3.367100e-004,1.543865e-004
3.679886e-004,1.529279e-004
3.968363e-004,1.511452e-004
4.174185e-004,1.479039e-004
4.297355e-004,1.430419e-004
4.341113e-004,1.376938e-004
4.298976e-004,1.333180e-004
4.114222e-004,1.269974e-004
3.794953e-004,1.133840e-004
3.363859e-004,9.085688e-005
2.940868e-004,6.265751e-005
2.702632e-004,3.105477e-005
2.726942e-004,3.017472e-006
2.916559e-004,-1.594417e-005
3.081865e-004,-2.177852e-005
3.065659e-004,-1.659243e-005
2.856594e-004,-9.623623e-006
2.543808e-004,-7.840905e-006
2.268297e-004,-1.367526e-005
2.120818e-004,-2.745081e-005
2.114335e-004,-4.592625e-005
2.209954e-004,-6.780507e-005
2.315296e-004,-9.195280e-005
2.344468e-004,-1.159385e-004
2.245608e-004,-1.376552e-004
2.028440e-004,-1.575893e-004
1.767515e-004,-1.749302e-004
1.571416e-004,-1.887058e-004
1.547106e-004,-1.992400e-004
1.639484e-004,-2.097743e-004
1.681620e-004,-2.199844e-004
1.534141e-004,-2.271153e-004
1.172735e-004,-2.284118e-004
6.719535e-005,-2.245222e-004
1.468618e-005,-2.188499e-004
-3.312309e-005,-2.105846e-004
-7.072225e-005,-1.994021e-004
-9.568031e-005,-1.885437e-004
-1.089697e-004,-1.818991e-004
-1.126972e-004,-1.789819e-004
-1.091317e-004,-1.784957e-004
-1.013526e-004,-1.762268e-004
-8.935975e-005,-1.692580e-004
-7.558420e-005,-1.600202e-004
-5.937768e-005,-1.515928e-004
-4.171256e-005,-1.477033e-004
-2.680255e-005,-1.430034e-004
-2.534396e-005,-1.280934e-004
-5.321920e-005,-1.003802e-004
-1.039456e-004,-6.537409e-005
-1.562927e-004,-3.101625e-005
-1.927574e-004,-8.720959e-007
-2.086398e-004,2.278944e-005
-2.023193e-004,4.094075e-005
-1.707166e-004,5.406805e-005
-1.109144e-004,6.508849e-005
-2.291298e-005,7.173317e-005
8.388807e-005,7.367795e-005
1.893926e-004,7.140904e-005
2.720459e-004,6.897806e-005
3.260137e-004,7.432621e-005
3.516200e-004,9.166720e-005
3.490270e-004,1.205148e-004
3.135347e-004,1.535762e-004
2.383363e-004,1.827479e-004
1.180839e-004,2.051129e-004
-5.727083e-005,2.208333e-004
-2.812451e-004,2.362295e-004
-5.261258e-004,2.517878e-004
-7.475069e-004,2.679943e-004
-8.985517e-004,2.786906e-004
-9.481438e-004,2.764217e-004
-8.962828e-004,2.618358e-004
-7.748959e-004,2.435224e-004
-6.279027e-004,2.284504e-004
-4.830164e-004,2.219677e-004
-3.489884e-004,2.234263e-004
-2.303566e-004,2.300710e-004
-1.319829e-004,2.386605e-004
-5.500191e-005,2.431983e-004
2.207145e-006,2.414156e-004
5.163707e-005,2.362295e-004
1.122495e-004,2.307193e-004
1.996027e-004,2.250470e-004
3.104554e-004,2.192126e-004
4.198496e-004,2.128921e-004
5.020167e-004,2.047888e-004
5.420469e-004,1.924718e-004
5.480433e-004,1.746447e-004
5.365367e-004,1.485521e-004
5.225990e-004,1.156529e-004
5.046097e-004,8.113296e-005
4.704139e-004,4.888196e-005
4.070464e-004,2.230325e-005
3.030004e-004,2.855407e-006
1.551968e-004,-8.327101e-006
-2.113026e-005,-1.335113e-005
-1.989159e-004,-1.788895e-005
-3.600088e-004,-2.485776e-005
-4.988988e-004,-3.328516e-005
-6.126686e-004,-3.992984e-005
-7.063423e-004,-4.673658e-005
-7.907783e-004,-5.694670e-005
-8.705144e-004,-7.444975e-005
-9.312889e-004,-9.616651e-005
-9.384198e-004,-1.173971e-004
-8.432875e-004,-1.370070e-004
-6.246614e-004,-1.546721e-004
-3.159271e-004,-1.655305e-004
1.630683e-005,-1.689338e-004
3.033245e-004,-1.707166e-004
5.015305e-004,-1.737958e-004
6.146522e-004,-1.770371e-004
6.806127e-004,-1.794681e-004
7.415494e-004,-1.794681e-004
8.157754e-004,-1.781716e-004
8.912979e-004,-1.765509e-004
9.318143e-004,-1.742820e-004
9.005356e-004,-1.750923e-004
7.713694e-004,-1.793060e-004
5.412365e-004,-1.812508e-004
2.286124e-004,-1.770371e-004
-1.261486e-004,-1.682856e-004
-4.595169e-004,-1.588858e-004
-6.928909e-004,-1.455964e-004
-7.570688e-004,-1.266348e-004
-6.398956e-004,-1.073490e-004
-4.006872e-004,-9.243900e-005
-1.352242e-004,-8.044617e-005
7.594687e-005,-6.780507e-005
2.004130e-004,-5.078821e-005
2.521119e-004,-2.890940e-005
2.621599e-004,-4.761664e-006
2.551911e-004,1.695509e-005
2.454672e-004,3.235129e-005
2.346088e-004,4.110282e-005
2.156472e-004,4.612685e-005
1.764274e-004,5.260946e-005
1.112771e-004,6.281957e-005
2.149292e-005,7.837785e-005
-8.660465e-005,9.636710e-005
-1.995642e-004,1.124116e-004
-3.018274e-004,1.284560e-004
-3.820497e-004,1.508211e-004
-4.259694e-004,1.782101e-004
-4.240246e-004,2.039785e-004
-3.804291e-004,2.234263e-004
-3.146305e-004,2.389846e-004
-2.470493e-004,2.509774e-004
-1.797922e-004,2.572980e-004
-1.050801e-004,2.551911e-004
-1.886135e-005,2.470879e-004
7.497447e-005,2.347709e-004
1.626518e-004,2.219677e-004
2.297469e-004,2.115956e-004
2.675081e-004,2.031682e-004
2.762596e-004,1.976579e-004
2.621599e-004,1.960373e-004
2.388225e-004,1.945787e-004
2.162954e-004,1.879340e-004
2.033302e-004,1.739964e-004
2.039785e-004,1.571416e-004
2.193747e-004,1.423936e-004
2.475741e-004,1.323456e-004
2.874421e-004,1.279698e-004
3.427064e-004,1.261871e-004
4.059119e-004,1.227837e-004
4.608521e-004,1.141943e-004
4.934272e-004,9.993253e-005
5.010443e-004,8.032264e-005
4.835413e-004,5.698522e-005
4.477248e-004,3.445814e-005
4.125566e-004,1.646890e-005
4.007258e-004,6.907040e-006
4.281149e-004,1.883015e-006
4.872688e-004,-3.465141e-006
5.451261e-004,-9.785688e-006
5.681394e-004,-1.740276e-005
5.420469e-004,-2.307504e-005
4.777069e-004,-2.907146e-005
3.971604e-004,-3.814712e-005
3.135347e-004,-5.224680e-005
2.312055e-004,-7.315322e-005
1.493625e-004,-9.405965e-005
6.541262e-005,-1.079973e-004
-2.242678e-005,-1.186936e-004
-1.136696e-004,-1.282554e-004
-2.109087e-004,-1.387897e-004
-3.175477e-004,-1.491618e-004
-4.454172e-004,-1.606685e-004
-6.107238e-004,-1.708786e-004
-8.191398e-004,-1.757406e-004
-1.048948e-003,-1.737958e-004
-1.267574e-003,-1.656925e-004
-1.451519e-003,-1.546721e-004
-1.578416e-003,-1.472171e-004
-1.616663e-003,-1.485136e-004
-1.535792e-003,-1.583996e-004
-1.329159e-003,-1.707166e-004
-1.028204e-003,-1.773612e-004
-6.914323e-004,-1.744440e-004
-3.810773e-004,-1.642339e-004
-1.358725e-004,-1.475412e-004
3.559260e-005,-1.258245e-004
1.435281e-004,-1.023250e-004
2.020337e-004,-8.044617e-005
2.325020e-004,-6.002594e-005
2.644289e-004,-4.138842e-005
3.216380e-004,-2.842320e-005
4.086671e-004,-1.886135e-005
5.072028e-004,-1.254080e-005
5.927734e-004,-9.137427e-006
6.436619e-004,-5.896120e-006
6.532237e-004,3.179537e-006
6.345862e-004,1.792748e-005
6.078454e-004,3.218923e-005
5.888838e-004,4.628891e-005
5.715428e-004,6.038860e-005
5.418848e-004,7.335383e-005
4.953720e-004,8.421220e-005
4.367043e-004,9.555677e-005
3.726885e-004,1.127357e-004
3.067279e-004,1.342904e-004
2.373639e-004,1.610312e-004
1.641104e-004,1.910133e-004
9.733949e-005,2.198609e-004
4.888196e-005,2.417397e-004
2.684107e-005,2.547049e-004
2.975825e-005,2.623220e-004
5.277153e-005,2.654013e-004
9.247754e-005,2.624841e-004
1.428799e-004,2.538946e-004
2.000889e-004,2.438466e-004
2.568118e-004,2.316917e-004
3.049452e-004,2.209954e-004
3.418961e-004,2.140265e-004
3.645853e-004,2.143507e-004
3.686369e-004,2.206712e-004
3.472443e-004,2.294227e-004
3.064038e-004,2.357433e-004
2.551911e-004,2.368777e-004
2.043026e-004,2.313675e-004
1.590864e-004,2.213195e-004
1.184080e-004,2.086784e-004
7.902610e-005,1.944166e-004
3.899597e-005,1.757791e-004
3.665733e-006,1.555210e-004
-1.432352e-005,1.334801e-004
-2.978945e-006,1.090082e-004
3.413401e-005,8.259155e-005
7.416415e-005,5.666109e-005
9.263960e-005,3.348575e-005
8.388807e-005,9.662150e-006
5.358185e-005,-1.448558e-005
9.013889e-006,-3.555408e-005
-3.960571e-005,-5.143648e-005
-7.688073e-005,-6.229485e-005
-8.660465e-005,-7.023606e-005
-6.683268e-005,-7.850138e-005
-2.988179e-005,-8.579432e-005
4.313994e-006,-9.081835e-005
2.603075e-005,-9.405965e-005
3.202716e-005,-9.859748e-005
1.954813e-005,-1.076731e-004
-1.529591e-005,-1.185315e-004
-7.250496e-005,-1.298761e-004
-1.408965e-004,-1.425172e-004
-1.981056e-004,-1.546721e-004
-2.233878e-004,-1.645581e-004
-2.073433e-004,-1.721751e-004
-1.536997e-004,-1.752544e-004
-7.947377e-005,-1.724993e-004
-2.015787e-005,-1.697442e-004
-1.805102e-005,-1.716889e-004
-8.854943e-005,-1.767130e-004
-2.160948e-004,-1.775233e-004
-3.786463e-004,-1.746061e-004
-5.548113e-004,-1.731475e-004
-7.222248e-004,-1.759026e-004
-8.510666e-004,-1.797922e-004
-9.079515e-004,-1.783336e-004
-8.708386e-004,-1.707166e-004
-7.340555e-004,-1.621271e-004
-5.164018e-004,-1.538618e-004
-2.619593e-004,-1.446240e-004
-2.485776e-005,-1.311726e-004
1.519555e-004,-1.143178e-004
2.461155e-004,-9.486997e-005
2.666978e-004,-7.493595e-005
2.488706e-004,-5.500191e-005
2.260194e-004,-3.377136e-005
2.213195e-004,-1.189254e-005
2.346088e-004,1.063454e-005
2.553532e-004,3.380988e-005
2.662116e-004,5.763349e-005
2.514636e-004,7.789165e-005
2.068957e-004,8.972242e-005
1.334801e-004,9.118101e-005
4.612685e-005,9.053275e-005
-2.599222e-005,9.182927e-005
-5.743289e-005,9.588091e-005
-3.652646e-005,1.039842e-004
1.776542e-005,1.185701e-004
7.189524e-005,1.386662e-004
9.215340e-005,1.633001e-004
6.962632e-005,1.866375e-004
2.197911e-005,2.041406e-004
-2.745081e-005,2.140265e-004
-6.456377e-005,2.188885e-004
-8.806324e-005,2.234263e-004
-1.055663e-004,2.292607e-004
-1.164247e-004,2.326641e-004
-1.156143e-004,2.310434e-004
-9.973194e-005,2.242366e-004
-6.683268e-005,2.137024e-004
-2.291298e-005,2.033302e-004
2.214118e-005,1.996027e-004
5.876794e-005,2.025199e-004
8.048470e-005,2.099749e-004
9.004655e-005,2.193747e-004
9.393612e-005,2.263435e-004
1.033359e-004,2.229401e-004
1.222976e-004,2.057612e-004
1.427178e-004,1.767515e-004
1.547106e-004,1.441764e-004
1.517934e-004,1.195424e-004
1.321835e-004,1.090082e-004
9.847395e-005,1.049566e-004
6.249545e-005,9.766362e-005
3.462021e-005,8.226741e-005
2.197911e-005,6.055066e-005
3.559260e-005,3.218923e-005
7.853991e-005,3.017472e-006
1.388282e-004,-2.129233e-005
1.958752e-004,-3.636440e-005
2.376881e-004,-4.284701e-005
2.598910e-004,-5.013995e-005
2.681563e-004,-6.229485e-005
2.715597e-004,-7.331530e-005
2.770700e-004,-7.801519e-005
2.825802e-004,-7.866345e-005
2.744769e-004,-7.898758e-005
2.363916e-004,-8.384954e-005
1.629760e-004,-9.794922e-005
7.416415e-005,-1.156143e-004
5.772582e-006,-1.266348e-004
-1.756482e-005,-1.279313e-004
1.234753e-006,-1.235555e-004
3.883391e-005,-1.177212e-004
6.768154e-005,-1.130213e-004
7.367795e-005,-1.123730e-004
5.828175e-005,-1.172350e-004
2.522042e-005,-1.261486e-004
-2.226472e-005,-1.368449e-004
-7.590833e-005,-1.459206e-004
-1.331174e-004,-1.509446e-004
-2.019951e-004,-1.477033e-004
-2.804347e-004,-1.374932e-004
-3.548227e-004,-1.256624e-004
-4.094387e-004,-1.157764e-004
-4.371519e-004,-1.097800e-004
-4.313175e-004,-1.021629e-004
-3.917736e-004,-9.162867e-005
-3.157650e-004,-8.190475e-005
-2.053985e-004,-7.882551e-005
-7.720486e-005,-8.222889e-005
4.693717e-005,-8.660465e-005
1.628139e-004,-8.822530e-005
2.782044e-004,-8.368748e-005
4.010500e-004,-7.299116e-005
5.261644e-004,-5.856735e-005
6.318311e-004,-4.236082e-005
6.909850e-004,-2.712668e-005
6.846645e-004,-1.108221e-005
6.063868e-004,6.907040e-006
4.650658e-004,2.813760e-005
2.851732e-004,4.871989e-005
1.022015e-004,6.525056e-005
-5.176061e-005,7.448828e-005
-1.574272e-004,8.097089e-005
-2.120432e-004,9.296373e-005
-2.274394e-004,1.167873e-004
-2.222533e-004,1.503349e-004
-2.113949e-004,1.851789e-004
-2.057227e-004,2.117576e-004
-2.091260e-004,2.290986e-004
-2.263049e-004,2.381743e-004
-2.656868e-004,2.433604e-004
-3.363473e-004,2.487085e-004
-4.378002e-004,2.558394e-004
-5.489769e-004,2.637806e-004
-6.360059e-004,2.710735e-004
-6.541573e-004,2.709115e-004
-5.719902e-004,2.619979e-004
-3.804291e-004,2.462775e-004
-9.940781e-005,2.299089e-004
2.258573e-004,2.167816e-004
5.388056e-004,2.081922e-004
7.901691e-004,2.052750e-004
9.514242e-004,2.070577e-004
1.012685e-003,2.117576e-004
9.854579e-004,2.135403e-004
8.937289e-004,2.093267e-004
7.691005e-004,1.958752e-004
6.383138e-004,1.751309e-004
5.127130e-004,1.516314e-004
3.875985e-004,1.313732e-004
2.444948e-004,1.154908e-004
5.374392e-005,1.046324e-004
-2.076674e-004,9.766362e-005
-5.439529e-004,8.907416e-005
-9.387439e-004,7.935024e-005
-1.363355e-003,6.995045e-005
-1.774515e-003,5.698522e-005
-2.105291e-003,3.591673e-005
-2.284373e-003,8.851824e-006
-2.250339e-003,-1.464765e-005
-1.986658e-003,-3.085418e-005
-1.533362e-003,-4.365734e-005
-9.748845e-004,-5.905355e-005
-4.061974e-004,-7.833932e-005
9.409818e-005,-1.010285e-004
4.762483e-004,-1.224211e-004
7.284221e-004,-1.396000e-004
8.640709e-004,-1.496481e-004
9.131767e-004,-1.545100e-004
9.060458e-004,-1.579134e-004
8.640709e-004,-1.653684e-004
8.028102e-004,-1.775233e-004
7.318255e-004,-1.906506e-004
6.653786e-004,-2.055606e-004
6.222692e-004,-2.167431e-004
6.127074e-004,-2.204706e-004
6.316690e-004,-2.177155e-004
6.571133e-004,-2.117191e-004
6.734819e-004,-2.053985e-004
6.791542e-004,-2.018331e-004
6.796404e-004,-1.998883e-004
6.846645e-004,-1.930815e-004
7.039502e-004,-1.775233e-004
7.324737e-004,-1.592099e-004
7.592146e-004,-1.408965e-004
7.700729e-004,-1.245279e-004
7.498147e-004,-1.122110e-004
6.926056e-004,-1.041077e-004
6.110868e-004,-9.665270e-005
5.256782e-004,-8.854943e-005
4.514523e-004,-7.914964e-005
3.939191e-004,-6.618442e-005
3.514580e-004,-5.013995e-005
3.177483e-004,-3.539201e-005
2.853353e-004,-2.356124e-005
2.482223e-004,-1.416145e-005
2.070577e-004,-4.923729e-006
1.628139e-004,7.069105e-006
1.175977e-004,2.424803e-005
6.946425e-005,4.450620e-005
1.160693e-005,6.427817e-005
-5.273300e-005,7.951231e-005
-1.159385e-004,9.393612e-005
-1.656925e-004,1.104668e-004
-1.864369e-004,1.308870e-004
-1.697442e-004,1.561692e-004
-1.191798e-004,1.829100e-004
-5.062615e-005,2.068957e-004
1.468618e-005,2.239125e-004
6.654708e-005,2.316917e-004
1.080358e-004,2.344468e-004
1.517934e-004,2.368777e-004
2.041406e-004,2.368777e-004
2.600531e-004,2.308813e-004
3.070520e-004,2.208333e-004
3.269861e-004,2.109473e-004
3.072141e-004,2.036544e-004
2.558394e-004,1.992786e-004
1.916615e-004,1.989545e-004
1.274836e-004,2.046267e-004
6.508849e-005,2.161334e-004
5.124321e-006,2.258573e-004
-4.236082e-005,2.279642e-004
-6.650855e-005,2.239125e-004
-6.051213e-005,2.158093e-004
-3.069211e-005,2.093267e-004
2.531276e-006,2.047888e-004
9.824215e-006,1.970097e-004
-3.490581e-005,1.840444e-004
-1.434896e-004,1.671896e-004
-3.055549e-004,1.479039e-004
-5.014918e-004,1.292664e-004
-7.014804e-004,1.137081e-004
-8.872072e-004,1.002567e-004
-1.058510e-003,8.518459e-005
-1.217172e-003,6.703327e-005
-1.364003e-003,4.418206e-005
-1.493169e-003,1.906194e-005
-1.578740e-003,-6.382317e-006
-1.579388e-003,-2.971972e-005
-1.455084e-003,-4.657452e-005
-1.195293e-003,-6.067420e-005
-8.486357e-004,-7.444975e-005
-4.971161e-004,-9.065628e-005
-2.211189e-004,-1.079973e-004
-5.840528e-005,-1.253383e-004
-8.002969e-006,-1.410586e-004
-2.761287e-005,-1.559686e-004
-6.472583e-005,-1.660166e-004
-7.785312e-005,-1.668270e-004
-5.095028e-005,-1.618029e-004
1.517237e-005,-1.549962e-004
1.067393e-004,-1.515928e-004
2.017096e-004,-1.528894e-004
2.854973e-004,-1.569410e-004
3.504856e-004,-1.595340e-004
3.978086e-004,-1.595340e-004
4.294114e-004,-1.590478e-004
4.538833e-004,-1.600202e-004
4.815964e-004,-1.648822e-004
5.119027e-004,-1.731475e-004
5.294057e-004,-1.809267e-004
5.135234e-004,-1.818991e-004
4.412422e-004,-1.747682e-004
2.923041e-004,-1.585616e-004
7.367795e-005,-1.349001e-004
-1.600202e-004,-1.105903e-004
-3.321336e-004,-9.114248e-005
-3.869116e-004,-7.752899e-005
-3.178718e-004,-7.039812e-005
-1.665028e-004,-6.667062e-005
1.436204e-005,-6.164659e-005
1.790204e-004,-5.419158e-005
3.000832e-004,-4.090223e-005
3.702575e-004,-2.210265e-005
3.922984e-004,3.179537e-006
3.725265e-004,3.170304e-005
3.243930e-004,5.811968e-005
2.654013e-004,7.870197e-005
2.153231e-004,9.328786e-005
1.790204e-004,1.052807e-004
1.517934e-004,1.145184e-004
1.321835e-004,1.265113e-004
1.174356e-004,1.432040e-004
1.052807e-004,1.624898e-004
9.588091e-005,1.812893e-004
9.685330e-005,1.957132e-004
1.127357e-004,2.068957e-004
1.342904e-004,2.175920e-004
1.496866e-004,2.295848e-004
1.475797e-004,2.409294e-004
1.265113e-004,2.482223e-004
9.442231e-005,2.519498e-004
6.265751e-005,2.474120e-004
4.288554e-005,2.336365e-004
4.385793e-005,2.133783e-004
6.541262e-005,1.914995e-004
1.069013e-004,1.710792e-004
1.611932e-004,1.524417e-004
2.159713e-004,1.373696e-004
2.556773e-004,1.329939e-004
2.663737e-004,1.370455e-004
2.414156e-004,1.443384e-004
1.822617e-004,1.521176e-004
1.073875e-004,1.568175e-004
4.158902e-005,1.587623e-004
1.387585e-005,1.560072e-004
3.332369e-005,1.470936e-004
9.426025e-005,1.339663e-004
1.799928e-004,1.193804e-004
2.619979e-004,1.047945e-004
3.175863e-004,9.231547e-005
3.412479e-004,8.194328e-005
3.440029e-004,7.092284e-005
3.371962e-004,5.455425e-005
3.224483e-004,3.380988e-005
2.994350e-004,1.322759e-005
2.738286e-004,-4.275467e-006
2.480603e-004,-1.318906e-005
2.205092e-004,-1.124428e-005
1.929580e-004,-2.816880e-006
1.603829e-004,6.744974e-006
1.112771e-004,1.031041e-005
3.445814e-005,4.962256e-006
-5.921561e-005,-1.221667e-005
-1.470550e-004,-4.090223e-005
-2.102605e-004,-7.607040e-005
-2.417012e-004,-1.114006e-004
-2.421874e-004,-1.392759e-004
-2.146363e-004,-1.579134e-004
-1.621271e-004,-1.694200e-004
-9.389759e-005,-1.797922e-004
-1.821308e-005,-1.893541e-004
5.649903e-005,-1.987538e-004
1.250527e-004,-2.039399e-004
1.811273e-004,-2.045882e-004
2.162954e-004,-1.963229e-004
2.255332e-004,-1.802784e-004
2.072198e-004,-1.639098e-004
1.662173e-004,-1.499722e-004
1.154908e-004,-1.417068e-004
7.092284e-005,-1.376552e-004
3.769945e-005,-1.350622e-004
1.501031e-005,-1.303623e-004
-1.682422e-006,-1.233935e-004
-2.210265e-005,-1.204763e-004
-5.078821e-005,-1.248521e-004
-8.465986e-005,-1.342519e-004
-1.284175e-004,-1.447861e-004
-1.961608e-004,-1.541859e-004
-3.065273e-004,-1.558065e-004
-4.676201e-004,-1.454344e-004
-6.703638e-004,-1.219349e-004
-8.792660e-004,-8.838737e-005
-1.039062e-003,-5.548811e-005
-1.096433e-003,-3.312309e-005
-1.031769e-003,-2.113026e-005
-8.703524e-004,-1.173047e-005
-6.637191e-004,-6.176923e-008
-4.588687e-004,1.792748e-005
-2.789762e-004,4.142696e-005
-1.240417e-004,6.411610e-005
1.906194e-005,8.080883e-005
1.508211e-004,9.636710e-005
2.641047e-004,1.175977e-004
3.438409e-004,1.446626e-004
3.777126e-004,1.718896e-004
3.699334e-004,1.986303e-004
3.248792e-004,2.242366e-004
2.496809e-004,2.448189e-004
1.658931e-004,2.538946e-004
1.056048e-004,2.524360e-004
8.469840e-005,2.478982e-004
9.328786e-005,2.474120e-004
1.072255e-004,2.508154e-004
1.046324e-004,2.535705e-004
7.497447e-005,2.516257e-004
2.100672e-005,2.451431e-004
-5.159854e-005,2.388225e-004
-1.332795e-004,2.354192e-004
-2.258187e-004,2.350950e-004
-3.365093e-004,2.368777e-004
-4.476861e-004,2.376881e-004
-5.108916e-004,2.342847e-004
-4.843129e-004,2.252090e-004
-3.556330e-004,2.102990e-004
-1.478653e-004,1.927960e-004
1.000946e-004,1.743205e-004
3.420582e-004,1.542244e-004
5.441537e-004,1.331559e-004
6.909850e-004,1.111150e-004
7.789865e-004,9.134307e-005
8.058894e-004,7.254349e-005
7.673178e-004,5.504044e-005
6.684579e-004,4.158902e-005
5.279472e-004,3.348575e-005
3.589129e-004,3.089271e-005
1.751309e-004,2.959619e-005
1.720949e-006,2.473423e-005
-1.292278e-004,1.419998e-005
-1.882196e-004,7.485573e-007
-1.647201e-004,-1.189254e-005
-7.947377e-005,-2.404744e-005
3.073064e-005,-3.604027e-005
1.316974e-004,-5.013995e-005
1.949028e-004,-6.586029e-005
2.007372e-004,-8.271508e-005
1.318594e-004,-1.026491e-004
-2.064406e-005,-1.233935e-004
-2.350565e-004,-1.402483e-004
-4.462276e-004,-1.511067e-004
-5.719902e-004,-1.554824e-004
-5.540010e-004,-1.575893e-004
-4.014975e-004,-1.592099e-004
-1.882196e-004,-1.588858e-004
-3.303076e-006,-1.532135e-004
1.034980e-004,-1.417068e-004
1.320215e-004,-1.284175e-004
1.171115e-004,-1.204763e-004
9.296373e-005,-1.203142e-004
8.016057e-005,-1.282554e-004
8.631905e-005,-1.402483e-004
1.116012e-004,-1.499722e-004
1.514693e-004,-1.540238e-004
1.950649e-004,-1.501342e-004
2.284504e-004,-1.421931e-004
2.474120e-004,-1.347380e-004
2.603772e-004,-1.295519e-004
2.712356e-004,-1.225832e-004
2.811216e-004,-1.115627e-004
2.931144e-004,-9.535618e-005
3.067279e-004,-7.493595e-005
3.271482e-004,-4.932962e-005
3.619922e-004,-2.048200e-005
4.109360e-004,5.934648e-006
4.662003e-004,2.862379e-005
5.172509e-004,4.774750e-005
5.525811e-004,6.314371e-005
5.660325e-004,7.319176e-005
5.571189e-004,7.513654e-005
5.305402e-004,6.995045e-005
4.974789e-004,6.217132e-005
4.691174e-004,6.087479e-005
4.415663e-004,6.914012e-005
4.106118e-004,8.923623e-005
3.770643e-004,1.197045e-004
3.448133e-004,1.521176e-004
3.128864e-004,1.798307e-004
2.772320e-004,1.981441e-004
2.346088e-004,2.090025e-004
1.830721e-004,2.128921e-004
1.203528e-004,2.109473e-004
5.034055e-005,2.062474e-004
-1.594417e-005,2.013854e-004
-6.083626e-005,1.984683e-004
-8.012204e-005,1.973338e-004
-7.704279e-005,1.994406e-004
-5.970181e-005,2.023578e-004
-3.490581e-005,2.070577e-004
-9.461558e-006,2.107852e-004
5.286387e-006,2.137024e-004
1.002961e-007,2.164575e-004
-3.198864e-005,2.179161e-004
-9.649064e-005,2.154851e-004
-1.887058e-004,2.068957e-004
-2.989102e-004,1.931201e-004
-4.225660e-004,1.749688e-004
-5.651835e-004,1.542244e-004
-7.295177e-004,1.320215e-004
-9.047102e-004,1.116012e-004
-1.055269e-003,9.620504e-005
-1.135167e-003,8.550872e-005
-1.115233e-003,7.886404e-005
-1.000977e-003,7.059871e-005
-8.233535e-004,5.666109e-005
-6.296854e-004,4.029250e-005
-4.606514e-004,2.538249e-005
-3.361852e-004,1.144487e-005
-2.530457e-004,-4.923729e-006
-1.940539e-004,-2.258885e-005
-1.428413e-004,-4.025397e-005
-9.179074e-005,-5.662256e-005
-4.155049e-005,-6.569822e-005
-3.951337e-006,-6.650855e-005
1.711715e-005,-6.440170e-005
2.894792e-005,-6.634648e-005
4.256141e-005,-7.509801e-005
6.330578e-005,-8.644259e-005
8.567078e-005,-9.908367e-005
1.038221e-004,-1.154523e-004
1.195424e-004,-1.352242e-004
1.399627e-004,-1.532135e-004
1.668655e-004,-1.648822e-004
1.934442e-004,-1.674752e-004
2.154851e-004,-1.656925e-004
2.255332e-004,-1.643960e-004
2.235884e-004,-1.640719e-004
2.125679e-004,-1.674752e-004
1.994406e-004,-1.721751e-004
1.872858e-004,-1.742820e-004
1.707551e-004,-1.721751e-004
1.394765e-004,-1.676373e-004
8.907416e-005,-1.643960e-004
1.922400e-005,-1.609926e-004
-6.067420e-005,-1.585616e-004
-1.279313e-004,-1.569410e-004
-1.582375e-004,-1.561307e-004
-1.454344e-004,-1.554824e-004
-1.049180e-004,-1.541859e-004
-6.099833e-005,-1.481895e-004
-3.522994e-005,-1.350622e-004
-3.571614e-005,-1.133454e-004
-5.678463e-005,-8.352541e-005
-7.850138e-005,-5.046408e-005
-7.785312e-005,-1.529591e-005
-4.041603e-005,1.695509e-005
3.154097e-005,4.320967e-005
1.195424e-004,6.314371e-005
2.025199e-004,7.594687e-005
2.730183e-004,8.372601e-005
3.328204e-004,9.085688e-005
3.872744e-004,9.458438e-005
4.360561e-004,9.296373e-005
4.696036e-004,8.615699e-005
4.723587e-004,8.032264e-005
4.380009e-004,8.194328e-005
3.846814e-004,9.733949e-005
3.405996e-004,1.255389e-004
3.195311e-004,1.633001e-004
3.218000e-004,2.028440e-004
3.373583e-004,2.378501e-004
3.498373e-004,2.589186e-004
3.410858e-004,2.652392e-004
3.004074e-004,2.610255e-004
2.350950e-004,2.517878e-004
1.611932e-004,2.433604e-004
9.263960e-005,2.425500e-004
3.802358e-005,2.493568e-004
-2.816880e-006,2.569738e-004
-4.009191e-005,2.566497e-004
-9.519411e-005,2.474120e-004
-1.891920e-004,2.350950e-004
-3.175477e-004,2.242366e-004
-4.541688e-004,2.185644e-004
-5.611319e-004,2.171058e-004
-6.152617e-004,2.146748e-004
-6.215822e-004,2.052750e-004
-6.073205e-004,1.882582e-004
-6.068342e-004,1.689724e-004
-6.392473e-004,1.530900e-004
-7.050458e-004,1.432040e-004
-7.697099e-004,1.357490e-004
-7.727891e-004,1.263492e-004
-6.655019e-004,1.096565e-004
-4.486585e-004,8.453633e-005
-1.781716e-004,5.730935e-005
7.789165e-005,3.024445e-005
2.762596e-004,6.582909e-006
4.143393e-004,-1.318906e-005
5.122268e-004,-2.988179e-005
5.872631e-004,-4.754691e-005
6.520892e-004,-6.472583e-005
7.067053e-004,-8.158062e-005
7.378219e-004,-9.632857e-005
7.295565e-004,-1.092938e-004
6.739681e-004,-1.227452e-004
5.733255e-004,-1.383035e-004
4.401077e-004,-1.582375e-004
2.932765e-004,-1.828714e-004
1.432040e-004,-2.075054e-004
-8.002969e-006,-2.237119e-004
-1.653684e-004,-2.259808e-004
-3.277578e-004,-2.169052e-004
-4.864197e-004,-2.042641e-004
-6.288751e-004,-1.945401e-004
-7.371347e-004,-1.909747e-004
-7.958024e-004,-1.929195e-004
-8.215707e-004,-1.958367e-004
-8.400462e-004,-1.971332e-004
-8.530114e-004,-1.925954e-004
-8.269189e-004,-1.833576e-004
-7.231971e-004,-1.702304e-004
-5.225603e-004,-1.524032e-004
-2.337599e-004,-1.344139e-004
1.015532e-004,-1.233935e-004
4.209840e-004,-1.169109e-004
6.658648e-004,-1.107524e-004
8.013516e-004,-1.005423e-004
8.240407e-004,-8.822530e-005
7.644006e-004,-7.720486e-005
6.642442e-004,-6.699475e-005
5.623050e-004,-5.402952e-005
4.843516e-004,-3.490581e-005
4.415663e-004,-1.010982e-005
4.287631e-004,1.630683e-005
4.260080e-004,3.883391e-005
4.143393e-004,5.552663e-005
3.811159e-004,6.816773e-005
3.294171e-004,7.918817e-005
2.759355e-004,9.150514e-005
2.339606e-004,1.025256e-004
2.137024e-004,1.101427e-004
2.166196e-004,1.128978e-004
2.370398e-004,1.151667e-004
2.639427e-004,1.237561e-004
2.859836e-004,1.414213e-004
2.947351e-004,1.636242e-004
2.856594e-004,1.848548e-004
2.636185e-004,1.976579e-004
2.396328e-004,2.021958e-004
2.161334e-004,2.023578e-004
1.921477e-004,2.010613e-004
1.644345e-004,2.000889e-004
1.349386e-004,2.038164e-004
1.036600e-004,2.125679e-004
7.076078e-005,2.234263e-004
3.688912e-005,2.302331e-004
8.365628e-006,2.274780e-004
-8.489166e-006,2.177540e-004
-1.173047e-005,2.088404e-004
-3.789272e-006,2.080301e-004
8.203562e-006,2.159713e-004
2.100672e-005,2.282883e-004
3.186510e-005,2.344468e-004
3.721326e-005,2.337985e-004
2.797553e-005,2.256952e-004
-2.654814e-006,2.101370e-004
-5.240886e-005,1.892305e-004
-1.083214e-004,1.649207e-004
-1.580754e-004,1.406109e-004
-1.950263e-004,1.175977e-004
-2.135018e-004,9.831188e-005
-2.076674e-004,8.388807e-005
-1.814128e-004,7.400208e-005
-1.473791e-004,6.751948e-005
-1.139937e-004,6.281957e-005
-7.979791e-005,5.633696e-005
-3.685060e-005,4.077869e-005
2.975825e-005,1.630683e-005
1.273216e-004,-1.480971e-005
2.417397e-004,-4.868137e-005
3.389789e-004,-7.704279e-005
3.908399e-004,-9.227693e-005
3.880847e-004,-9.584238e-005
3.474063e-004,-9.357346e-005
2.997591e-004,-9.486997e-005
2.645909e-004,-1.062146e-004
2.493568e-004,-1.271210e-004
2.477361e-004,-1.485136e-004
2.457913e-004,-1.598582e-004
2.274780e-004,-1.603444e-004
1.814514e-004,-1.522411e-004
1.005808e-004,-1.420310e-004
-1.983374e-005,-1.342519e-004
-1.818991e-004,-1.327933e-004
-3.723258e-004,-1.410586e-004
-5.711799e-004,-1.574272e-004
-7.515585e-004,-1.757406e-004
-8.810487e-004,-1.859507e-004
-9.337199e-004,-1.854645e-004
-9.027654e-004,-1.775233e-004
-8.061745e-004,-1.668270e-004
-6.760361e-004,-1.561307e-004
-5.397392e-004,-1.473791e-004
-4.125180e-004,-1.394379e-004
-3.078238e-004,-1.303623e-004
-2.370013e-004,-1.217728e-004
-1.943781e-004,-1.157764e-004
-1.653684e-004,-1.157764e-004
-1.342519e-004,-1.198280e-004
-9.292520e-005,-1.196660e-004
-4.916756e-005,-1.110765e-004
-8.165035e-006,-9.081835e-005
2.910999e-005,-5.937768e-005
6.184718e-005,-2.323711e-005
8.810177e-005,9.013889e-006
1.085220e-004,3.332369e-005
1.244044e-004,4.871989e-005
1.320215e-004,6.136099e-005
1.336421e-004,7.448828e-005
1.355869e-004,8.988449e-005
1.406109e-004,1.051186e-004
1.459591e-004,1.198666e-004
1.432040e-004,1.380179e-004
1.253768e-004,1.639484e-004
8.858796e-005,1.919856e-004
3.445814e-005,2.143507e-004
-2.566809e-005,2.242366e-004
-7.639453e-005,2.231022e-004
-1.005423e-004,2.172679e-004
-9.341139e-005,2.135403e-004
-6.180866e-005,2.107852e-004
-1.805102e-005,2.099749e-004
2.959619e-005,2.137024e-004
8.032264e-005,2.226160e-004
1.365593e-004,2.333123e-004
1.926339e-004,2.370398e-004
2.344468e-004,2.342847e-004
2.504913e-004,2.286124e-004
2.440086e-004,2.239125e-004
2.292607e-004,2.185644e-004
2.179161e-004,2.081922e-004
2.138645e-004,1.950649e-004
2.148369e-004,1.806411e-004
2.135403e-004,1.652449e-004
2.013854e-004,1.506590e-004
1.806411e-004,1.410971e-004
1.577899e-004,1.388282e-004
1.375317e-004,1.399627e-004
1.218114e-004,1.419075e-004
1.086841e-004,1.389903e-004
9.863601e-005,1.299146e-004
9.134307e-005,1.161391e-004
8.453633e-005,1.000946e-004
7.562274e-005,8.097089e-005
6.379197e-005,5.828175e-005
4.596478e-005,3.494434e-005
2.489629e-005,1.436204e-005
9.824215e-006,-8.720959e-007
5.772582e-006,-1.156841e-005
1.063454e-005,-2.129233e-005
2.116879e-005,-3.198864e-005
3.543054e-005,-4.300908e-005
5.341979e-005,-5.500191e-005
7.627100e-005,-7.039812e-005
1.018773e-004,-8.871149e-005
1.258630e-004,-1.102662e-004
1.490383e-004,-1.332795e-004
1.707551e-004,-1.579134e-004
1.913374e-004,-1.854645e-004
2.107852e-004,-2.136638e-004
2.295848e-004,-2.365151e-004
2.440086e-004,-2.475355e-004
2.493568e-004,-2.452666e-004
2.441707e-004,-2.350565e-004
2.299089e-004,-2.237119e-004
2.135403e-004,-2.175534e-004
1.978200e-004,-2.170672e-004
1.890685e-004,-2.165810e-004
1.924718e-004,-2.120432e-004
2.034923e-004,-2.041020e-004
2.221298e-004,-1.947022e-004
2.553532e-004,-1.895161e-004
3.125623e-004,-1.854645e-004
3.756057e-004,-1.752544e-004
4.047775e-004,-1.601823e-004
3.613439e-004,-1.439758e-004
2.248849e-004,-1.287416e-004
-2.006553e-006,-1.156143e-004
-2.827037e-004,-1.011905e-004
-5.499493e-004,-8.174268e-005
-7.431312e-004,-5.872941e-005
-8.457185e-004,-3.490581e-005
-8.805625e-004,-1.092015e-005
-8.800763e-004,1.047248e-005
-8.575493e-004,2.846173e-005
-8.071469e-004,4.596478e-005
-7.204420e-004,6.427817e-005
-6.050515e-004,8.323981e-005
-4.885266e-004,1.000946e-004
-3.997148e-004,1.112771e-004
-3.570916e-004,1.145184e-004
-3.603330e-004,1.088461e-004
-4.045768e-004,9.782569e-005
-4.784786e-004,9.312580e-005
-5.716661e-004,1.036600e-004
-6.667984e-004,1.299146e-004
-7.421587e-004,1.631380e-004
-7.620928e-004,1.929580e-004
-6.953219e-004,2.175920e-004
-5.356876e-004,2.331503e-004
-3.071755e-004,2.396328e-004
-5.500191e-005,2.373639e-004
1.796687e-004,2.307193e-004
3.694472e-004,2.248849e-004
5.109303e-004,2.232643e-004
6.104385e-004,2.260194e-004
6.699165e-004,2.320158e-004
6.851507e-004,2.373639e-004
6.541961e-004,2.428742e-004
5.827253e-004,2.482223e-004
4.911583e-004,2.478982e-004
4.088291e-004,2.404432e-004
3.563199e-004,2.290986e-004
3.367100e-004,2.169437e-004
3.414099e-004,2.057612e-004
3.582647e-004,1.984683e-004
3.819262e-004,1.911753e-004
4.119083e-004,1.806411e-004
4.477248e-004,1.658931e-004
4.882411e-004,1.445005e-004
5.224369e-004,1.185701e-004
5.355643e-004,9.166720e-005
5.247059e-004,6.897806e-005
4.916445e-004,5.115087e-005
4.371906e-004,3.964424e-005
3.676645e-004,3.559260e-005
2.973281e-004,3.656499e-005
2.482223e-004,3.672706e-005
2.372019e-004,2.927205e-005
2.655633e-004,1.338965e-005
3.201794e-004,-3.951337e-006
3.848434e-004,-2.048200e-005
4.456179e-004,-3.409549e-005
4.905101e-004,-4.689865e-005
5.117406e-004,-6.326724e-005
5.156302e-004,-8.563225e-005
5.206542e-004,-1.148040e-004
5.342677e-004,-1.467309e-004
5.420469e-004,-1.737958e-004
5.200059e-004,-1.908126e-004
4.551798e-004,-1.958367e-004
3.477304e-004,-1.953505e-004
2.111094e-004,-1.956746e-004
6.849186e-005,-1.977815e-004
-6.067420e-005,-2.005366e-004
-1.671511e-004,-2.044261e-004
-2.472114e-004,-2.135018e-004
-3.047445e-004,-2.238740e-004
-3.491504e-004,-2.295462e-004
-3.930701e-004,-2.284118e-004
-4.497930e-004,-2.245222e-004
-5.298533e-004,-2.190120e-004
-6.343853e-004,-2.104225e-004
-7.570688e-004,-1.959987e-004
-8.876934e-004,-1.752544e-004
-1.026745e-003,-1.494860e-004
-1.181680e-003,-1.245279e-004
-1.345852e-003,-1.037836e-004
-1.475342e-003,-8.968389e-005
-1.507269e-003,-7.801519e-005
-1.399658e-003,-6.407757e-005
-1.155749e-003,-4.495386e-005
-8.205983e-004,-2.064406e-005
-4.617858e-004,4.638125e-006
-1.313347e-004,3.056858e-005
1.440143e-004,5.568870e-005
3.606957e-004,7.513654e-005
5.253541e-004,9.053275e-005
6.460929e-004,1.025256e-004
7.248566e-004,1.133840e-004
7.566215e-004,1.237561e-004
7.426839e-004,1.370455e-004
6.919574e-004,1.566554e-004
6.172452e-004,1.799928e-004
5.430193e-004,2.012234e-004
4.952099e-004,2.172679e-004
4.864584e-004,2.278021e-004
5.109303e-004,2.321778e-004
5.428572e-004,2.334744e-004
5.571189e-004,2.346088e-004
5.501501e-004,2.375260e-004
5.282713e-004,2.393087e-004
4.986133e-004,2.394708e-004
4.684692e-004,2.375260e-004
4.370285e-004,2.318537e-004
4.008879e-004,2.239125e-004
3.555096e-004,2.162954e-004
2.958695e-004,2.102990e-004
2.224539e-004,2.078681e-004
1.425557e-004,2.073819e-004
6.444023e-005,2.078681e-004
2.207145e-006,2.075439e-004
-3.960571e-005,2.052750e-004
-5.937768e-005,1.970097e-004
-5.565017e-005,1.827479e-004
-2.939559e-005,1.645966e-004
2.693341e-006,1.472556e-004
2.100672e-005,1.365593e-004
1.079661e-005,1.328318e-004
-2.566809e-005,1.287802e-004
-7.023606e-005,1.190562e-004
-1.018388e-004,1.031738e-004
-1.125351e-004,8.550872e-005
-1.167488e-004,6.946425e-005
-1.314967e-004,5.341979e-005
-1.635857e-004,3.494434e-005
-2.078295e-004,1.193106e-005
-2.574215e-004,-1.399939e-005
-3.057169e-004,-3.620233e-005
-3.444506e-004,-4.900550e-005
-3.739464e-004,-5.451572e-005
-3.883702e-004,-5.808115e-005
-3.812394e-004,-6.261898e-005
-3.496366e-004,-7.234290e-005
-2.953447e-004,-8.725291e-005
-2.241981e-004,-1.042698e-004
-1.425172e-004,-1.211246e-004
-5.953974e-005,-1.340898e-004
1.274139e-005,-1.433275e-004
6.346784e-005,-1.488377e-004
8.518459e-005,-1.506204e-004
6.589881e-005,-1.501342e-004
4.800190e-006,-1.498101e-004
-8.174268e-005,-1.540238e-004
-1.562927e-004,-1.609926e-004
-1.746061e-004,-1.684476e-004
-1.208004e-004,-1.754164e-004
-2.096820e-005,-1.809267e-004
8.567078e-005,-1.853024e-004
1.869616e-004,-1.875713e-004
2.992729e-004,-1.874093e-004
4.315182e-004,-1.869231e-004
5.584154e-004,-1.848162e-004
6.407447e-004,-1.776853e-004
6.564650e-004,-1.668270e-004
6.183797e-004,-1.564548e-004
5.616568e-004,-1.477033e-004
5.206542e-004,-1.389517e-004
5.018546e-004,-1.280934e-004
4.799758e-004,-1.167488e-004
4.232529e-004,-1.041077e-004
3.247172e-004,-8.935975e-005
1.931201e-004,-7.558420e-005
4.142696e-005,-6.180866e-005
-1.170729e-004,-4.576419e-005
-2.781658e-004,-2.745081e-005
-4.387725e-004,-5.571990e-006
-6.050515e-004,1.760335e-005
-7.983954e-004,3.688912e-005
-1.042142e-003,5.017848e-005
-1.339532e-003,5.763349e-005
-1.637894e-003,6.525056e-005
-1.844203e-003,7.416415e-005
-1.868351e-003,8.875003e-005
-1.681976e-003,1.120874e-004
-1.338721e-003,1.399627e-004
-9.405267e-004,1.676758e-004
-5.753936e-004,1.942546e-004
-2.797865e-004,2.187264e-004
-3.976777e-005,2.397949e-004
1.795066e-004,2.556773e-004
3.961880e-004,2.641047e-004
5.986077e-004,2.660495e-004
7.571077e-004,2.637806e-004
8.486747e-004,2.624841e-004
8.731466e-004,2.660495e-004
8.491609e-004,2.718839e-004
8.016757e-004,2.723701e-004
7.454390e-004,2.644289e-004
6.814231e-004,2.529222e-004
6.151384e-004,2.420638e-004
5.574431e-004,2.368777e-004
5.191956e-004,2.368777e-004
5.031512e-004,2.354192e-004
5.059062e-004,2.231022e-004
5.153061e-004,1.957132e-004
5.091476e-004,1.613553e-004
4.666864e-004,1.329939e-004
3.658818e-004,1.166253e-004
1.936063e-004,1.107909e-004
-4.819517e-005,1.101427e-004
-3.308371e-004,1.104668e-004
-6.019723e-004,1.099806e-004
-8.150881e-004,1.051186e-004
-9.356647e-004,9.604298e-005
-9.330717e-004,7.870197e-005
-7.949921e-004,5.212327e-005
-5.442770e-004,2.214118e-005
-2.412149e-004,-4.599598e-006
4.272347e-005,-2.534396e-005
2.532463e-004,-4.057810e-005
3.765781e-004,-5.143648e-005
4.261701e-004,-6.051213e-005
4.290873e-004,-6.877746e-005
4.127187e-004,-7.833932e-005
3.979707e-004,-8.773911e-005
3.905157e-004,-9.794922e-005
3.877606e-004,-1.130213e-004
3.858158e-004,-1.331174e-004
3.850055e-004,-1.574272e-004
3.863020e-004,-1.809267e-004
3.906778e-004,-1.995642e-004
3.918123e-004,-2.126914e-004
3.911640e-004,-2.222533e-004
3.932708e-004,-2.248464e-004
4.063981e-004,-2.225774e-004
4.357320e-004,-2.152845e-004
4.788414e-004,-2.058847e-004
5.198439e-004,-1.934057e-004
5.392918e-004,-1.809267e-004
5.255162e-004,-1.724993e-004
4.709002e-004,-1.733096e-004
3.819262e-004,-1.783336e-004
2.769079e-004,-1.786577e-004
1.806411e-004,-1.689338e-004
1.153287e-004,-1.481895e-004
8.793970e-005,-1.245279e-004
8.453633e-005,-1.058904e-004
7.076078e-005,-9.438378e-005
8.689758e-006,-8.628052e-005
-1.243659e-004,-7.833932e-005
-3.300267e-004,-6.748094e-005
-5.755557e-004,-5.483985e-005
-8.165467e-004,-4.268495e-005
-1.021559e-003,-2.890940e-005
-1.174225e-003,-1.318906e-005
-1.256878e-003,1.002961e-007
-1.237430e-003,1.144487e-005
-1.096109e-003,2.829966e-005
-8.449082e-004,5.439218e-005
-5.350393e-004,8.599492e-005
-2.332737e-004,1.150046e-004
3.827799e-006,1.333180e-004
1.517934e-004,1.430419e-004
2.248849e-004,1.466074e-004
2.501671e-004,1.474177e-004
2.540567e-004,1.526038e-004
2.543808e-004,1.671896e-004
2.467637e-004,1.908512e-004
2.149989e-004,2.175920e-004
1.571416e-004,2.386605e-004
9.409818e-005,2.514636e-004
5.779555e-005,2.558394e-004
6.914012e-005,2.550291e-004
1.222976e-004,2.521119e-004
1.939304e-004,2.482223e-004
2.610255e-004,2.407673e-004
3.102934e-004,2.286124e-004
3.329825e-004,2.114335e-004
3.266619e-004,1.952270e-004
2.944109e-004,1.867996e-004
2.508154e-004,1.905271e-004
2.175920e-004,2.062474e-004
2.141886e-004,2.261814e-004
2.396328e-004,2.388225e-004
2.760976e-004,2.378501e-004
3.026763e-004,2.227781e-004
3.101313e-004,1.983062e-004
3.085106e-004,1.731861e-004
3.000832e-004,1.509831e-004
2.816078e-004,1.334801e-004
2.543808e-004,1.177597e-004
2.256952e-004,1.009049e-004
2.018716e-004,7.967438e-005
1.814514e-004,5.763349e-005
1.579519e-004,3.737532e-005
1.252147e-004,2.068259e-005
8.113296e-005,6.907040e-006
2.230325e-005,-4.923729e-006
-3.863332e-005,-1.626830e-005
-7.461182e-005,-2.842320e-005
-5.840528e-005,-3.976777e-005
1.744129e-005,-5.111234e-005
1.370455e-004,-6.553616e-005
2.645909e-004,-8.222889e-005
3.660439e-004,-1.024871e-004
4.198496e-004,-1.237176e-004
4.240633e-004,-1.438137e-004
3.914881e-004,-1.605064e-004
3.417340e-004,-1.712027e-004
2.958695e-004,-1.796301e-004
2.652392e-004,-1.882196e-004
2.516257e-004,-1.958367e-004
2.457913e-004,-2.006986e-004
2.266676e-004,-2.002124e-004
1.744826e-004,-1.968091e-004
7.967438e-005,-1.922712e-004
-5.856735e-005,-1.896782e-004
-2.376495e-004,-1.903264e-004
-4.523860e-004,-1.914609e-004
-6.920806e-004,-1.895161e-004
-9.445783e-004,-1.804405e-004
-1.182814e-003,-1.621271e-004
-1.351848e-003,-1.417068e-004
-1.394634e-003,-1.219349e-004
-1.287671e-003,-1.065387e-004
-1.057862e-003,-9.956988e-005
-7.682513e-004,-1.020008e-004
-4.878783e-004,-1.031353e-004
-2.661730e-004,-9.616651e-005
-1.225832e-004,-7.655660e-005
-4.689865e-005,-4.657452e-005
-9.623623e-006,-8.327101e-006
1.971020e-005,3.121684e-005
6.200925e-005,6.346784e-005
1.166253e-004,8.145709e-005
1.709172e-004,8.745350e-005
2.112714e-004,8.615699e-005
2.256952e-004,8.032264e-005
2.162954e-004,7.546067e-005
1.921477e-004,7.902610e-005
1.615174e-004,9.166720e-005
1.372076e-004,1.101427e-004
1.274836e-004,1.339663e-004
1.263492e-004,1.600588e-004
1.216493e-004,1.820997e-004
1.119254e-004,2.015475e-004
1.038221e-004,2.206712e-004
1.043083e-004,2.370398e-004
1.132219e-004,2.485465e-004
1.321835e-004,2.569738e-004
1.598967e-004,2.632944e-004
1.921477e-004,2.684805e-004
2.190506e-004,2.735045e-004
2.292607e-004,2.752873e-004
2.145127e-004,2.723701e-004
1.718896e-004,2.618358e-004
1.104668e-004,2.454672e-004
5.001642e-005,2.294227e-004
1.419998e-005,2.196988e-004
1.371378e-005,2.177540e-004
3.996837e-005,2.200230e-004
7.772959e-005,2.229401e-004
1.120874e-004,2.224539e-004
1.326697e-004,2.112714e-004
1.372076e-004,1.882582e-004
1.315353e-004,1.579519e-004
1.252147e-004,1.304008e-004
1.263492e-004,1.114392e-004
1.338042e-004,9.831188e-005
1.367214e-004,8.810177e-005
1.302388e-004,7.578480e-005
1.190562e-004,6.217132e-005
1.112771e-004,4.920609e-005
1.077117e-004,3.494434e-005
1.083599e-004,2.181705e-005
1.109530e-004,1.225520e-005
1.143563e-004,5.610517e-006
1.159770e-004,4.244267e-007
1.151667e-004,-7.030578e-006
1.117633e-004,-2.420950e-005
1.051186e-004,-4.997789e-005
9.361199e-005,-8.109443e-005
7.902610e-005,-1.131834e-004
6.298164e-005,-1.425172e-004
4.920609e-005,-1.676373e-004
4.110282e-005,-1.880575e-004
5.017848e-005,-2.044261e-004
1.015532e-004,-2.165810e-004
2.068957e-004,-2.250084e-004
3.504856e-004,-2.287359e-004
4.924549e-004,-2.279256e-004
5.929354e-004,-2.284118e-004
6.306967e-004,-2.321393e-004
6.110868e-004,-2.347323e-004
5.504743e-004,-2.318152e-004
4.603659e-004,-2.240360e-004
3.540510e-004,-2.123673e-004
2.367157e-004,-2.000504e-004
1.044704e-004,-1.916230e-004
-4.057810e-005,-1.877334e-004
-1.870851e-004,-1.849783e-004
-3.143064e-004,-1.796301e-004
-4.036044e-004,-1.700683e-004
-4.437966e-004,-1.562927e-004
-4.413656e-004,-1.374932e-004
-4.113835e-004,-1.135075e-004
-3.802670e-004,-9.081835e-005
-3.765395e-004,-7.185670e-005
-4.196489e-004,-5.613637e-005
-5.108916e-004,-4.009191e-005
-6.309819e-004,-2.372331e-005
-7.564205e-004,-9.299493e-006
-8.638698e-004,1.558884e-006
-9.256167e-004,1.355172e-005
-9.120032e-004,2.910999e-005
-8.118468e-004,4.628891e-005
-6.416783e-004,6.071273e-005
-4.421759e-004,6.897806e-005
-2.517492e-004,7.108491e-005
-8.530812e-005,6.897806e-005
5.876794e-005,6.606088e-005
1.846927e-004,6.719535e-005
2.854973e-004,7.562274e-005
3.493511e-004,9.101894e-005
3.671783e-004,1.124116e-004
3.444891e-004,1.376938e-004
3.080245e-004,1.623277e-004
2.901973e-004,1.842065e-004
3.248792e-004,1.996027e-004
4.311941e-004,2.059233e-004
5.958526e-004,2.070577e-004
7.786624e-004,2.104611e-004
9.287350e-004,2.209954e-004
1.005230e-003,2.347709e-004
9.993956e-004,2.466017e-004
9.324626e-004,2.521119e-004
8.337647e-004,2.543808e-004
7.198326e-004,2.519498e-004
5.914768e-004,2.441707e-004
4.454559e-004,2.303951e-004
2.893870e-004,2.151610e-004
1.376938e-004,2.012234e-004
4.962256e-006,1.900409e-004
-1.013526e-004,1.824238e-004
-1.878955e-004,1.773998e-004
-2.726556e-004,1.748067e-004
-3.715154e-004,1.723757e-004
-4.982505e-004,1.668655e-004
-6.535091e-004,1.564933e-004
-8.321049e-004,1.449867e-004
-1.028204e-003,1.333180e-004
-1.232406e-003,1.203528e-004
-1.400630e-003,1.060910e-004
-1.467077e-003,9.280167e-005
-1.377941e-003,7.837785e-005
-1.128360e-003,6.136099e-005
-7.714926e-004,4.239934e-005
-3.989045e-004,2.359977e-005
-9.616651e-005,9.338019e-006
8.793970e-005,3.989864e-006
1.600588e-004,5.124321e-006
1.598967e-004,6.258778e-006
1.312112e-004,-2.816880e-006
1.112771e-004,-2.453363e-005
1.175977e-004,-5.629844e-005
1.540623e-004,-9.098041e-005
2.132162e-004,-1.214487e-004
2.814457e-004,-1.436516e-004
3.490270e-004,-1.567789e-004
4.044533e-004,-1.635857e-004
4.404318e-004,-1.656925e-004
4.527488e-004,-1.653684e-004
4.446456e-004,-1.643960e-004
4.282770e-004,-1.630995e-004
4.128807e-004,-1.627754e-004
4.078567e-004,-1.658546e-004
4.157979e-004,-1.713648e-004
4.255218e-004,-1.759026e-004
4.240633e-004,-1.781716e-004
4.086671e-004,-1.793060e-004
3.888950e-004,-1.804405e-004
3.778746e-004,-1.833576e-004
3.780367e-004,-1.838438e-004
3.788470e-004,-1.786577e-004
3.608578e-004,-1.668270e-004
3.154794e-004,-1.494860e-004
2.466017e-004,-1.326312e-004
1.598967e-004,-1.214487e-004
4.758544e-005,-1.201522e-004
-1.000561e-004,-1.224211e-004
-2.739521e-004,-1.196660e-004
-4.389346e-004,-1.052422e-004
-5.533527e-004,-8.222889e-005
-5.881967e-004,-5.791909e-005
-5.272602e-004,-3.441962e-005
-3.716775e-004,-7.192643e-006
-1.528894e-004,2.165498e-005
7.853991e-005,4.531652e-005
2.798251e-004,6.200925e-005
4.203358e-004,7.448828e-005
4.896998e-004,8.421220e-005
4.961824e-004,8.972242e-005
4.546936e-004,9.604298e-005
3.918123e-004,1.130598e-004
3.389789e-004,1.443384e-004
3.229345e-004,1.812893e-004
3.491891e-004,2.166196e-004
4.096394e-004,2.448189e-004
4.772207e-004,2.602152e-004
5.175750e-004,2.631324e-004
5.057442e-004,2.595669e-004
4.329769e-004,2.563256e-004
2.953834e-004,2.540567e-004
9.620504e-005,2.482223e-004
-1.546721e-004,2.384984e-004
-4.421759e-004,2.287745e-004
-7.340555e-004,2.213195e-004
-9.735880e-004,2.162954e-004
-1.098054e-003,2.125679e-004
-1.070503e-003,2.124059e-004
-8.990379e-004,2.146748e-004
-6.202856e-004,2.161334e-004
-2.938862e-004,2.104611e-004
2.392390e-005,1.991165e-004
2.983005e-004,1.842065e-004
5.175750e-004,1.654069e-004
6.757508e-004,1.456350e-004
7.619697e-004,1.295905e-004
7.817416e-004,1.208390e-004
7.567836e-004,1.169494e-004
7.156190e-004,1.122495e-004
6.799645e-004,1.020394e-004
6.606788e-004,8.372601e-005
6.511169e-004,5.811968e-005
6.415551e-004,2.992031e-005
6.191900e-004,6.096713e-006
5.725152e-004,-1.205460e-005
4.892136e-004,-2.793700e-005
3.589129e-004,-4.122636e-005
1.717275e-004,-4.900550e-005
-7.931171e-005,-5.062615e-005
-3.899909e-004,-4.706071e-005
-7.424829e-004,-4.252288e-005
-1.111343e-003,-4.414354e-005
-1.463187e-003,-5.775702e-005
-1.753608e-003,-8.174268e-005
-1.918429e-003,-1.112386e-004
-1.886016e-003,-1.444620e-004
-1.627035e-003,-1.723372e-004
-1.193024e-003,-1.865989e-004
-6.971046e-004,-1.854645e-004
-2.606628e-004,-1.702304e-004
3.251336e-005,-1.473791e-004
1.673517e-004,-1.264727e-004
1.856651e-004,-1.151281e-004
1.537382e-004,-1.152902e-004
1.271595e-004,-1.235555e-004
1.313732e-004,-1.349001e-004
1.633001e-004,-1.480274e-004
2.023578e-004,-1.593720e-004
2.299089e-004,-1.663408e-004
2.438466e-004,-1.681235e-004
2.524360e-004,-1.616409e-004
2.650771e-004,-1.525652e-004
2.837146e-004,-1.446240e-004
3.031625e-004,-1.392759e-004
3.183966e-004,-1.373311e-004
3.247172e-004,-1.358725e-004
3.205035e-004,-1.318209e-004
2.987867e-004,-1.219349e-004
2.532463e-004,-1.034594e-004
1.902029e-004,-7.623246e-005
1.269974e-004,-4.576419e-005
8.129502e-005,-1.918548e-005
6.330578e-005,1.558884e-006
6.995045e-005,1.971020e-005
9.166720e-005,3.688912e-005
1.185701e-004,5.260946e-005
1.457970e-004,6.703327e-005
1.673517e-004,7.902610e-005
1.762653e-004,8.680524e-005
1.665414e-004,9.296373e-005
1.398006e-004,1.010670e-004
1.057669e-004,1.146805e-004
8.080883e-005,1.362352e-004
7.675720e-005,1.649207e-004
9.101894e-005,1.942546e-004
1.135460e-004,2.158093e-004
1.355869e-004,2.297469e-004
1.492004e-004,2.360674e-004
1.519555e-004,2.365536e-004
1.453108e-004,2.344468e-004
1.453108e-004,2.329882e-004
1.688103e-004,2.323399e-004
2.325020e-004,2.289366e-004
3.362238e-004,2.216436e-004
4.626348e-004,2.122438e-004
5.819149e-004,2.059233e-004
6.666752e-004,2.083542e-004
7.000606e-004,2.206712e-004
6.809369e-004,2.341226e-004
6.204865e-004,2.393087e-004
5.389676e-004,2.346088e-004
4.470765e-004,2.242366e-004
3.478926e-004,2.137024e-004
2.444948e-004,2.008992e-004
1.480659e-004,1.851789e-004
7.140904e-005,1.663793e-004
2.116879e-005,1.449867e-004
-5.409925e-006,1.205148e-004
-2.275091e-005,9.474644e-005
-4.835724e-005,6.832980e-005
-9.373552e-005,4.369587e-005
-1.660166e-004,2.570662e-005
-2.637420e-004,1.549650e-005
-3.768636e-004,9.662150e-006
-4.938748e-004,5.448452e-006
-5.995413e-004,-1.682422e-006
-6.703638e-004,-1.173047e-005
-6.792775e-004,-2.372331e-005
-6.112100e-004,-3.733679e-005
-4.753993e-004,-4.916756e-005
-3.029619e-004,-5.710876e-005
-1.331174e-004,-6.180866e-005
3.989864e-006,-6.926366e-005
9.215340e-005,-8.595638e-005
1.234320e-004,-1.081593e-004
9.344993e-005,-1.279313e-004
1.322759e-005,-1.417068e-004
-9.486997e-005,-1.524032e-004
-2.112329e-004,-1.614788e-004
-3.206269e-004,-1.681235e-004
-4.120317e-004,-1.718510e-004
-4.755614e-004,-1.737958e-004
-5.070020e-004,-1.752544e-004
-5.053814e-004,-1.767130e-004
-4.703753e-004,-1.783336e-004
-4.031182e-004,-1.840059e-004
-3.089583e-004,-1.922712e-004
-2.096122e-004,-1.984297e-004
-1.263107e-004,-1.981056e-004
-6.715681e-005,-1.914609e-004
-2.826114e-005,-1.783336e-004
-3.858999e-007,-1.600202e-004
1.873781e-005,-1.365208e-004
3.267542e-005,-1.101041e-004
5.131294e-005,-8.790117e-005
8.259155e-005,-7.282909e-005
1.242423e-004,-6.229485e-005
1.616794e-004,-5.467778e-005
1.843686e-004,-4.511593e-005
1.898788e-004,-2.664048e-005
1.790204e-004,-6.176923e-008
1.582761e-004,2.635488e-005
1.438522e-004,4.645098e-005
1.454729e-004,5.730935e-005
1.605450e-004,6.411610e-005
1.751309e-004,7.351589e-005
1.795066e-004,8.631905e-005
1.684862e-004,1.000946e-004
1.425557e-004,1.090082e-004
1.005808e-004,1.127357e-004
4.839576e-005,1.163011e-004
-2.238346e-007,1.252147e-004
-3.377136e-005,1.427178e-004
-4.770897e-005,1.660552e-004
-3.782299e-005,1.892305e-004
3.989864e-006,2.051129e-004
8.745350e-005,2.119197e-004
2.059233e-004,2.124059e-004
3.370341e-004,2.127300e-004
4.509661e-004,2.135403e-004
5.237334e-004,2.124059e-004
5.470709e-004,2.109473e-004
5.373470e-004,2.081922e-004
5.292437e-004,2.055991e-004
5.435055e-004,2.052750e-004
5.695980e-004,2.077060e-004
5.827253e-004,2.119197e-004
5.569569e-004,2.122438e-004
4.817585e-004,2.047888e-004
3.621543e-004,1.937684e-004
1.958752e-004,1.853410e-004
-2.242678e-005,1.814514e-004
-2.812451e-004,1.765894e-004
-5.424943e-004,1.671896e-004
-7.593377e-004,1.511452e-004
-9.001724e-004,1.323456e-004
-9.581918e-004,1.158149e-004
-9.491161e-004,1.030118e-004
-8.996862e-004,9.263960e-005
-8.350222e-004,8.048470e-005
-7.684134e-004,6.476436e-005
-7.013183e-004,4.353380e-005
-6.317923e-004,1.971020e-005
-5.640491e-004,-2.006553e-006
-5.044090e-004,-1.967167e-005
-4.553032e-004,-3.134038e-005
-4.165696e-004,-3.944364e-005
-3.744326e-004,-4.446767e-005
-3.117133e-004,-4.673658e-005
-2.146363e-004,-4.965376e-005
-8.077030e-005,-5.840528e-005
7.853991e-005,-7.493595e-005
2.389846e-004,-9.892161e-005
3.726885e-004,-1.264727e-004
4.624728e-004,-1.524032e-004
4.987754e-004,-1.741199e-004
4.838654e-004,-1.869231e-004
4.371906e-004,-1.896782e-004
3.851676e-004,-1.835197e-004
3.461098e-004,-1.737958e-004
3.237448e-004,-1.665028e-004
3.073762e-004,-1.635857e-004
2.895490e-004,-1.626133e-004
2.694529e-004,-1.622891e-004
2.529222e-004,-1.619650e-004
2.461155e-004,-1.661787e-004
2.577842e-004,-1.799543e-004
2.884145e-004,-1.981056e-004
3.295791e-004,-2.104225e-004
3.668542e-004,-2.117191e-004
3.903536e-004,-2.000504e-004
3.991052e-004,-1.784957e-004
3.955397e-004,-1.475412e-004
3.854917e-004,-1.114006e-004
3.712299e-004,-7.493595e-005
3.558337e-004,-4.349527e-005
3.409237e-004,-2.323711e-005
3.286068e-004,-1.383732e-005
3.235827e-004,-1.367526e-005
3.316860e-004,-1.675450e-005
3.499994e-004,-1.383732e-005
3.637749e-004,-5.247859e-006
3.521062e-004,6.907040e-006
2.976523e-004,1.906194e-005
2.078681e-004,3.202716e-005
1.036600e-004,4.823370e-005
1.274139e-005,6.654708e-005
-4.074016e-005,8.291568e-005
-4.689865e-005,9.750156e-005
-1.594417e-005,1.114392e-004
3.316162e-005,1.229458e-004
7.967438e-005,1.304008e-004
1.067393e-004,1.391524e-004
1.067393e-004,1.574657e-004
8.064677e-005,1.842065e-004
4.077869e-005,2.080301e-004
2.207145e-006,2.193747e-004
-3.085418e-005,2.185644e-004
-6.440170e-005,2.135403e-004
-9.859748e-005,2.138645e-004
-1.135075e-004,2.237505e-004
-8.676672e-005,2.362295e-004
-1.270286e-005,2.444948e-004
9.426025e-005,2.433604e-004
2.068957e-004,2.355812e-004
2.952213e-004,2.239125e-004
3.397893e-004,2.128921e-004
3.360618e-004,2.062474e-004
3.012177e-004,2.030061e-004
2.592428e-004,2.008992e-004
2.156472e-004,1.973338e-004
1.641104e-004,1.906891e-004
1.086841e-004,1.803169e-004
5.196120e-005,1.681620e-004
-9.461558e-006,1.584381e-004
-8.563225e-005,1.516314e-004
-1.844921e-004,1.451488e-004
-3.117133e-004,1.349386e-004
-4.685925e-004,1.200286e-004
-6.595054e-004,1.030118e-004
-8.829935e-004,8.583286e-005
-1.115233e-003,6.881599e-005
-1.294639e-003,4.985435e-005
-1.348931e-003,2.862379e-005
-1.239213e-003,9.175954e-006
-9.847705e-004,-6.868513e-006
-6.492953e-004,-2.015787e-005
-3.167374e-004,-3.069211e-005
-5.889148e-005,-3.652646e-005
8.826383e-005,-4.122636e-005
1.385041e-004,-5.046408e-005
1.375317e-004,-6.780507e-005
1.398006e-004,-9.130454e-005
1.777239e-004,-1.165867e-004
2.469258e-004,-1.399241e-004
3.214759e-004,-1.583996e-004
3.675024e-004,-1.721751e-004
3.675024e-004,-1.835197e-004
3.185587e-004,-1.955125e-004
2.329882e-004,-2.062088e-004
1.354248e-004,-2.097743e-004
5.034055e-005,-2.044261e-004
-1.075808e-005,-1.940539e-004
-5.305713e-005,-1.830335e-004
-8.547019e-005,-1.737958e-004
-1.164247e-004,-1.666649e-004
-1.493239e-004,-1.630995e-004
-1.781716e-004,-1.634236e-004
-1.935677e-004,-1.639098e-004
-1.859507e-004,-1.634236e-004
-1.420310e-004,-1.600202e-004
-5.159854e-005,-1.540238e-004
8.161915e-005,-1.470550e-004
2.396328e-004,-1.378173e-004
3.916502e-004,-1.238797e-004
5.041235e-004,-1.083214e-004
5.595500e-004,-9.308726e-005
5.571189e-004,-7.850138e-005
5.086614e-004,-6.342931e-005
4.318424e-004,-4.706071e-005
3.485408e-004,-2.680255e-005
2.775562e-004,2.045080e-006
2.247229e-004,4.077869e-005
1.856651e-004,8.453633e-005
1.582761e-004,1.229458e-004
1.398006e-004,1.501728e-004
1.265113e-004,1.637863e-004
1.184080e-004,1.645966e-004
1.140322e-004,1.560072e-004
1.039842e-004,1.420695e-004
7.367795e-005,1.274836e-004
1.727922e-005,1.198666e-004
-5.970181e-005,1.234320e-004
-1.392759e-004,1.380179e-004
-2.036158e-004,1.579519e-004
-2.400805e-004,1.795066e-004
-2.425115e-004,1.987924e-004
-2.196603e-004,2.145127e-004
-1.797922e-004,2.247229e-004
-1.248521e-004,2.287745e-004
-5.273300e-005,2.290986e-004
2.846173e-005,2.286124e-004
9.685330e-005,2.302331e-004
1.281319e-004,2.326641e-004
1.018773e-004,2.321778e-004
1.419998e-005,2.260194e-004
-1.054042e-004,2.114335e-004
-2.149604e-004,1.936063e-004
-2.985861e-004,1.817755e-004
-3.682741e-004,1.773998e-004
-4.428242e-004,1.808031e-004
-5.214258e-004,1.832341e-004
-5.653456e-004,1.759412e-004
-5.236948e-004,1.566554e-004
-3.854531e-004,1.328318e-004
-2.006986e-004,1.132219e-004
-4.349527e-005,1.010670e-004
4.337174e-005,9.393612e-005
7.805372e-005,8.939829e-005
1.171115e-004,8.437427e-005
2.018716e-004,7.643307e-005
3.347652e-004,6.281957e-005
4.898618e-004,4.142696e-005
6.232416e-004,1.760335e-005
6.997365e-004,-7.100305e-007
7.193465e-004,-1.448558e-005
7.075156e-004,-2.210265e-005
6.932539e-004,-2.501983e-005
6.893643e-004,-2.550602e-005
7.005468e-004,-2.745081e-005
7.188602e-004,-3.425755e-005
7.271256e-004,-4.868137e-005
7.049226e-004,-7.039812e-005
6.331276e-004,-9.778715e-005
4.854860e-004,-1.272830e-004
2.414156e-004,-1.541859e-004
-9.227693e-005,-1.729855e-004
-4.765338e-004,-1.815749e-004
-8.714869e-004,-1.799543e-004
-1.247965e-003,-1.699062e-004
-1.564802e-003,-1.564548e-004
-1.762522e-003,-1.442999e-004
-1.787966e-003,-1.345760e-004
-1.629304e-003,-1.313347e-004
-1.323325e-003,-1.327933e-004
-9.355026e-004,-1.353863e-004
-5.405495e-004,-1.396000e-004
-1.909747e-004,-1.489998e-004
8.307774e-005,-1.673132e-004
2.712356e-004,-1.901644e-004
3.773884e-004,-2.122053e-004
4.125566e-004,-2.216050e-004
3.991052e-004,-2.122053e-004
3.637749e-004,-1.851404e-004
3.399513e-004,-1.522411e-004
3.443271e-004,-1.232314e-004
3.739850e-004,-9.989401e-005
4.145014e-004,-8.271508e-005
4.436732e-004,-7.396356e-005
4.529109e-004,-6.812920e-005
4.464283e-004,-6.132246e-005
4.344354e-004,-5.095028e-005
4.240633e-004,-4.074016e-005
4.217943e-004,-2.923353e-005
4.251977e-004,-1.464765e-005
4.269804e-004,5.934648e-006
4.209840e-004,3.073064e-005
4.110980e-004,5.617490e-005
4.013741e-004,7.756752e-005
3.927847e-004,9.393612e-005
3.875985e-004,1.085220e-004
3.838710e-004,1.237561e-004
3.796573e-004,1.430419e-004
3.696093e-004,1.678379e-004
3.428685e-004,1.950649e-004
2.971661e-004,2.180782e-004
2.350950e-004,2.336365e-004
1.650828e-004,2.414156e-004
9.555677e-005,2.449810e-004
3.137890e-005,2.493568e-004
-2.566809e-005,2.534084e-004
-7.137051e-005,2.556773e-004
-1.005423e-004,2.563256e-004
-1.159385e-004,2.551911e-004
-1.175591e-004,2.490327e-004
-1.023250e-004,2.349330e-004
-7.282909e-005,2.148369e-004
-3.522994e-005,1.976579e-004
6.258778e-006,1.911753e-004
4.742337e-005,1.936063e-004
8.226741e-005,1.963614e-004
1.090082e-004,1.936063e-004
1.221355e-004,1.848548e-004
1.250527e-004,1.754550e-004
1.368834e-004,1.694586e-004
1.778860e-004,1.667035e-004
2.493568e-004,1.623277e-004
3.329825e-004,1.547106e-004
4.059119e-004,1.433661e-004
4.496696e-004,1.282940e-004
4.558281e-004,1.103047e-004
4.302217e-004,9.101894e-005
3.867882e-004,6.670914e-005
3.433547e-004,3.964424e-005
3.089969e-004,1.582063e-005
2.809595e-004,-3.141010e-006
2.542187e-004,-1.869928e-005
2.146748e-004,-2.826114e-005
1.443384e-004,-3.036798e-005
3.380988e-005,-2.485776e-005
-1.188556e-004,-1.967167e-005
-3.212752e-004,-2.615429e-005
-5.692351e-004,-4.608832e-005
-8.463667e-004,-7.558420e-005
-1.128684e-003,-1.041077e-004
-1.367569e-003,-1.271210e-004
-1.496411e-003,-1.421931e-004
-1.467887e-003,-1.489998e-004
-1.281026e-003,-1.535376e-004
-9.863912e-004,-1.613168e-004
-6.552918e-004,-1.796301e-004
-3.574158e-004,-2.063709e-004
-1.428413e-004,-2.316531e-004
-2.518189e-005,-2.438080e-004
1.646890e-005,-2.407288e-004
1.971020e-005,-2.271153e-004
1.419998e-005,-2.117191e-004
1.419998e-005,-1.972953e-004
2.813760e-005,-1.854645e-004
5.147500e-005,-1.749302e-004
7.627100e-005,-1.658546e-004
8.858796e-005,-1.609926e-004
7.870197e-005,-1.592099e-004
4.564065e-005,-1.579134e-004
-1.358292e-006,-1.538618e-004
-5.030202e-005,-1.444620e-004
-8.854943e-005,-1.289037e-004
-1.091317e-004,-1.081593e-004
-1.044318e-004,-8.725291e-005
-7.785312e-005,-6.958779e-005
-3.798505e-005,-5.321920e-005
1.002961e-007,-3.717473e-005
3.137890e-005,-2.015787e-005
5.585077e-005,4.244267e-007
7.821578e-005,2.813760e-005
1.013911e-004,6.071273e-005
1.265113e-004,8.907416e-005
1.543865e-004,1.091703e-004
1.808031e-004,1.232699e-004
2.008992e-004,1.389903e-004
2.125679e-004,1.566554e-004
2.188885e-004,1.744826e-004
2.232643e-004,1.923098e-004
2.279642e-004,2.124059e-004
2.305572e-004,2.328261e-004
2.260194e-004,2.496809e-004
2.124059e-004,2.569738e-004
1.968476e-004,2.525981e-004
1.884202e-004,2.425500e-004
1.906891e-004,2.286124e-004
1.984683e-004,2.128921e-004
2.055991e-004,1.963614e-004
2.051129e-004,1.850168e-004
1.897167e-004,1.799928e-004
1.545486e-004,1.764274e-004
1.036600e-004,1.726999e-004
5.714729e-005,1.663793e-004
3.786152e-005,1.631380e-004
6.622294e-005,1.636242e-004
1.412592e-004,1.689724e-004
2.376881e-004,1.764274e-004
3.308757e-004,1.817755e-004
4.060740e-004,1.829100e-004
4.580970e-004,1.790204e-004
4.838654e-004,1.701068e-004
4.832171e-004,1.584381e-004
4.649037e-004,1.464453e-004
4.355699e-004,1.349386e-004
3.979707e-004,1.227837e-004
3.496752e-004,1.075496e-004
2.914938e-004,9.669123e-005
2.378501e-004,9.182927e-005
2.055991e-004,8.923623e-005
2.073819e-004,8.340187e-005
2.415777e-004,6.995045e-005
2.960316e-004,4.790957e-005
3.422202e-004,2.343770e-005
3.495132e-004,1.883015e-006
2.914938e-004,-1.254080e-005
1.594105e-004,-2.048200e-005
-3.182657e-005,-2.826114e-005
-2.517492e-004,-4.090223e-005
-4.663236e-004,-5.856735e-005
-6.377887e-004,-7.526008e-005
-7.345417e-004,-8.725291e-005
-7.473448e-004,-9.584238e-005
-6.972667e-004,-1.079973e-004
-6.269303e-004,-1.253383e-004
-5.789590e-004,-1.423551e-004
-5.787970e-004,-1.530514e-004
-6.421645e-004,-1.528894e-004
-7.499378e-004,-1.451102e-004
-8.382635e-004,-1.366828e-004
-8.415048e-004,-1.308485e-004
-7.311383e-004,-1.285796e-004
-5.309877e-004,-1.319829e-004
-2.940482e-004,-1.394379e-004
-6.893953e-005,-1.452723e-004
1.085220e-004,-1.468929e-004
2.273159e-004,-1.485136e-004
2.948972e-004,-1.524032e-004
3.208276e-004,-1.567789e-004
3.161277e-004,-1.515928e-004
2.931144e-004,-1.374932e-004
2.618358e-004,-1.169109e-004
2.243987e-004,-9.260107e-005
1.795066e-004,-6.845333e-005
1.367214e-004,-4.819517e-005
1.075496e-004,-3.150244e-005
9.879808e-005,-1.967167e-005
1.073875e-004,-1.205460e-005
1.201907e-004,-5.085794e-006
1.226217e-004,4.313994e-006
1.154908e-004,1.825161e-005
1.101427e-004,3.494434e-005
1.171115e-004,5.374392e-005
1.365593e-004,7.157111e-005
1.584381e-004,8.259155e-005
1.678379e-004,8.323981e-005
1.644345e-004,7.853991e-005
1.597346e-004,7.724339e-005
1.689724e-004,8.356394e-005
2.000889e-004,9.652917e-005
2.509774e-004,1.148425e-004
3.046211e-004,1.318594e-004
3.404375e-004,1.417454e-004
3.430306e-004,1.438522e-004
3.091589e-004,1.435281e-004
2.461155e-004,1.472556e-004
1.757791e-004,1.568175e-004
1.195424e-004,1.726999e-004
8.615699e-005,1.910133e-004
7.351589e-005,2.072198e-004
6.832980e-005,2.177540e-004
5.633696e-005,2.175920e-004
2.441009e-005,2.070577e-004
-3.749886e-005,1.903650e-004
-1.421931e-004,1.767515e-004
-2.893484e-004,1.718896e-004
-4.460655e-004,1.728619e-004
-5.611319e-004,1.759412e-004
-5.916001e-004,1.772377e-004
-5.227224e-004,1.743205e-004
-3.833462e-004,1.657311e-004
-2.243602e-004,1.542244e-004
-9.179074e-005,1.428799e-004
-6.868513e-006,1.329939e-004
3.267542e-005,1.240803e-004
4.450620e-005,1.127357e-004
4.774750e-005,9.571884e-005
6.022653e-005,7.319176e-005
9.004655e-005,4.839576e-005
1.398006e-004,2.586868e-005
2.141886e-004,5.124321e-006
3.195311e-004,-1.464765e-005
4.512903e-004,-3.279896e-005
5.939078e-004,-4.608832e-005
7.230740e-004,-5.143648e-005
8.120479e-004,-5.013995e-005
8.438127e-004,-4.560212e-005
8.250132e-004,-4.349527e-005
7.692626e-004,-4.333321e-005
7.021675e-004,-4.900550e-005
6.417171e-004,-6.440170e-005
5.924492e-004,-8.676672e-005
5.405883e-004,-1.152902e-004
4.660382e-004,-1.491618e-004
3.501615e-004,-1.802784e-004
1.893926e-004,-2.018331e-004
-3.465141e-006,-2.096122e-004
-2.092881e-004,-2.076674e-004
-4.099249e-004,-1.985918e-004
-5.959758e-004,-1.856265e-004
-7.622549e-004,-1.703924e-004
-8.993621e-004,-1.558065e-004
-9.962771e-004,-1.455964e-004
-1.042466e-003,-1.449482e-004
-1.029176e-003,-1.530514e-004
-9.534919e-004,-1.645581e-004
-8.264327e-004,-1.744440e-004
-6.679329e-004,-1.765509e-004
-4.945230e-004,-1.697442e-004
-3.154408e-004,-1.569410e-004
-1.327933e-004,-1.368449e-004
4.045456e-005,-1.122110e-004
1.806411e-004,-8.741498e-005
2.634565e-004,-6.812920e-005
2.892249e-004,-5.419158e-005
2.686426e-004,-4.527799e-005
2.265056e-004,-3.782299e-005
1.829100e-004,-2.534396e-005
1.545486e-004,-7.516774e-006
1.479039e-004,1.031041e-005
1.597346e-004,2.765140e-005
1.767515e-004,4.223728e-005
1.890685e-004,5.374392e-005
1.825859e-004,6.184718e-005
1.459591e-004,6.525056e-005
7.011252e-005,6.687121e-005
-3.717473e-005,7.238143e-005
-1.533756e-004,8.340187e-005
-2.511010e-004,1.007429e-004
-3.076617e-004,1.235941e-004
-3.091203e-004,1.482280e-004
-2.650386e-004,1.692965e-004
-2.053985e-004,1.820997e-004
-1.679614e-004,1.882582e-004
-1.695821e-004,1.934442e-004
-1.885437e-004,1.997648e-004
-1.827094e-004,2.072198e-004
-1.165867e-004,2.146748e-004
1.549650e-005,2.216436e-004
1.885823e-004,2.245608e-004
3.585888e-004,2.226160e-004
4.866205e-004,2.175920e-004
5.592257e-004,2.130541e-004
5.811046e-004,2.067336e-004
5.559844e-004,2.007372e-004
4.854860e-004,1.945787e-004
3.762539e-004,1.910133e-004
2.373639e-004,1.880961e-004
7.351589e-005,1.851789e-004
-1.172350e-004,1.838824e-004
-3.423437e-004,1.861513e-004
-5.964621e-004,1.911753e-004
-8.520390e-004,1.971717e-004
-1.043438e-003,2.005751e-004
-1.109237e-003,1.996027e-004
-1.023990e-003,1.887444e-004
-8.063366e-004,1.657311e-004
-5.108916e-004,1.349386e-004
-2.070192e-004,1.046324e-004
4.888196e-005,7.902610e-005
2.255332e-004,6.200925e-005
3.182346e-004,4.920609e-005
3.409237e-004,3.883391e-005
3.166139e-004,2.424803e-005
2.809595e-004,5.610517e-006
2.663737e-004,-1.124428e-005
2.858215e-004,-2.064406e-005
3.331446e-004,-2.583016e-005
3.874365e-004,-3.409549e-005
4.195254e-004,-5.500191e-005
4.085050e-004,-8.757704e-005
3.480546e-004,-1.222590e-004
2.509774e-004,-1.540238e-004
1.508211e-004,-1.809267e-004
8.388807e-005,-2.002124e-004
6.071273e-005,-2.079916e-004
6.622294e-005,-2.062088e-004
8.145709e-005,-1.959987e-004
9.733949e-005,-1.812508e-004
1.146805e-004,-1.705545e-004
1.365593e-004,-1.674752e-004
1.631380e-004,-1.718510e-004
1.867996e-004,-1.793060e-004
2.038164e-004,-1.856265e-004
2.206712e-004,-1.880575e-004
2.483844e-004,-1.877334e-004
2.856594e-004,-1.853024e-004
3.226103e-004,-1.789819e-004
3.522683e-004,-1.707166e-004
3.709058e-004,-1.611547e-004
3.827366e-004,-1.493239e-004
3.910019e-004,-1.349001e-004
3.974845e-004,-1.164247e-004
3.948915e-004,-9.324933e-005
3.772264e-004,-6.926366e-005
3.396272e-004,-4.949169e-005
2.856594e-004,-3.522994e-005
2.302331e-004,-2.550602e-005
1.855030e-004,-1.643037e-005
1.573037e-004,-6.868513e-006
1.508211e-004,4.800190e-006
1.642725e-004,2.052053e-005
1.827479e-004,3.964424e-005
1.861513e-004,6.103686e-005
1.574657e-004,8.178122e-005
9.539470e-005,9.604298e-005
1.322759e-005,1.009049e-004
-6.699475e-005,1.038221e-004
-1.267968e-004,1.143563e-004
-1.606685e-004,1.365593e-004
-1.726613e-004,1.670276e-004
-1.681235e-004,1.992786e-004
-1.512687e-004,2.265056e-004
-1.303623e-004,2.441707e-004
-1.139937e-004,2.521119e-004
-1.073490e-004,2.509774e-004
-1.052422e-004,2.477361e-004
-9.956988e-005,2.466017e-004
-8.336335e-005,2.485465e-004
-5.759496e-005,2.513016e-004
-2.939559e-005,2.543808e-004
-9.461558e-006,2.551911e-004
-5.896120e-006,2.504913e-004
-1.205460e-005,2.396328e-004
-1.902341e-005,2.234263e-004
-2.242678e-005,2.085163e-004
-1.805102e-005,1.999268e-004
-8.720959e-007,2.005751e-004
2.538249e-005,2.031682e-004
4.985435e-005,1.999268e-004
6.087479e-005,1.887444e-004
5.439218e-005,1.697827e-004
3.753739e-005,1.509831e-004
3.089271e-005,1.370455e-004
5.341979e-005,1.299146e-004
1.004187e-004,1.245665e-004
1.480659e-004,1.166253e-004
1.676758e-004,1.064152e-004
1.385041e-004,9.150514e-005
6.103686e-005,7.448828e-005
-3.830919e-005,5.779555e-005
-1.214487e-004,4.061663e-005
-1.595340e-004,2.197911e-005
-1.509446e-004,1.396819e-006
-1.125351e-004,-1.902341e-005
-6.521203e-005,-3.798505e-005
-3.215070e-005,-5.565017e-005
-2.761287e-005,-6.974985e-005
-5.565017e-005,-8.141856e-005
-1.020008e-004,-9.389759e-005
-1.481895e-004,-1.088076e-004
-1.812508e-004,-1.230693e-004
-1.982676e-004,-1.376552e-004
-2.058847e-004,-1.559686e-004
-2.238740e-004,-1.755785e-004
-2.684419e-004,-1.934057e-004
-3.459091e-004,-2.083157e-004
-4.512515e-004,-2.201465e-004
-5.650214e-004,-2.256567e-004
-6.595054e-004,-2.222533e-004
-7.022907e-004,-2.089640e-004
