-4.763717e-004,2.472499e-004
-3.233821e-004,1.911753e-004
-1.937298e-004,1.362352e-004
-1.519170e-004,9.669123e-005
-2.034537e-004,8.048470e-005
-2.684419e-004,8.648112e-005
-2.254946e-004,1.043083e-004
-3.789272e-006,1.247285e-004
3.616681e-004,1.388282e-004
7.574318e-004,1.406109e-004
1.073460e-003,1.300767e-004
1.256918e-003,1.119254e-004
1.318503e-003,9.426025e-005
1.303755e-003,7.740546e-005
1.260483e-003,6.022653e-005
1.219643e-003,4.223728e-005
1.189498e-003,2.554455e-005
1.155627e-003,1.193106e-005
1.100038e-003,2.693341e-006
1.022895e-003,-5.247859e-006
9.230627e-004,-1.497178e-005
7.707212e-004,-2.518189e-005
5.093097e-004,-3.004385e-005
9.555677e-005,-2.793700e-005
-4.598410e-004,-2.420950e-005
-1.106482e-003,-2.874733e-005
-1.750691e-003,-4.657452e-005
-2.220033e-003,-7.720486e-005
-2.317110e-003,-1.138316e-004
-1.976124e-003,-1.473791e-004
-1.312629e-003,-1.754164e-004
-5.619422e-004,-1.976194e-004
4.288554e-005,-2.118811e-004
3.624784e-004,-2.175534e-004
3.853296e-004,-2.203085e-004
1.843686e-004,-2.259808e-004
-1.313347e-004,-2.397564e-004
-4.575721e-004,-2.596904e-004
-7.392416e-004,-2.833519e-004
-9.701846e-004,-3.002067e-004
-1.165473e-003,-3.053928e-004
-1.349255e-003,-2.959930e-004
-1.583764e-003,-2.695764e-004
-1.966886e-003,-2.360289e-004
-2.579656e-003,-2.083157e-004
-3.441198e-003,-1.924333e-004
-4.467888e-003,-1.851404e-004
-4.968188e-003,-1.802784e-004
-4.968512e-003,-1.720131e-004
-4.968350e-003,-1.590478e-004
-4.968350e-003,-1.425172e-004
-4.968188e-003,-1.248521e-004
-3.976178e-003,-1.099421e-004
-2.451624e-003,-9.956988e-005
-9.565711e-004,-9.389759e-005
2.216436e-004,-9.017008e-005
8.849773e-004,-8.935975e-005
1.047691e-003,-9.033215e-005
8.773603e-004,-8.887356e-005
6.251864e-004,-8.044617e-005
5.099580e-004,-6.310517e-005
6.214589e-004,-3.620233e-005
9.075044e-004,1.558884e-006
1.244115e-003,5.179914e-005
1.517519e-003,1.101427e-004
1.670185e-003,1.689724e-004
1.699681e-003,2.205092e-004
1.633234e-003,2.576221e-004
1.509416e-003,2.738286e-004
1.372308e-003,2.713977e-004
1.269883e-003,2.569738e-004
1.246384e-003,2.370398e-004
1.329037e-003,2.159713e-004
1.505364e-003,1.976579e-004
1.731608e-003,1.855030e-004
1.960769e-003,1.799928e-004
2.153790e-003,1.817755e-004
2.270964e-003,1.911753e-004
2.282146e-003,2.031682e-004
2.188958e-003,2.128921e-004
2.041964e-003,2.214815e-004
1.904694e-003,2.286124e-004
1.806158e-003,2.339606e-004
1.733229e-003,2.381743e-004
1.653492e-003,2.427121e-004
1.547663e-003,2.453052e-004
1.406342e-003,2.435224e-004
1.216077e-003,2.370398e-004
9.626067e-004,2.273159e-004
6.561409e-004,2.167816e-004
3.459477e-004,2.072198e-004
9.620504e-005,1.953890e-004
-4.187462e-005,1.767515e-004
-4.446767e-005,1.513072e-004
8.648112e-005,1.229458e-004
3.209897e-004,9.490851e-005
5.916389e-004,6.670914e-005
8.141547e-004,3.996837e-005
9.237110e-004,1.646890e-005
9.039390e-004,-2.978945e-006
7.877381e-004,-1.740276e-005
6.281036e-004,-2.874733e-005
4.757621e-004,-3.652646e-005
3.613439e-004,-4.203669e-005
2.877662e-004,-4.673658e-005
2.308813e-004,-5.192267e-005
1.594105e-004,-6.067420e-005
6.573675e-005,-7.218083e-005
-3.247483e-005,-8.449780e-005
-1.073490e-004,-9.616651e-005
-1.400862e-004,-1.044318e-004
-1.314967e-004,-1.071869e-004
-9.600444e-005,-1.060525e-004
-4.916756e-005,-1.028112e-004
-8.720959e-007,-9.778715e-005
3.915804e-005,-9.146661e-005
7.546067e-005,-8.303922e-005
1.127357e-004,-7.072225e-005
1.495245e-004,-4.851930e-005
1.759412e-004,-1.156841e-005
1.871237e-004,3.915804e-005
2.028440e-004,9.588091e-005
2.534084e-004,1.474177e-004
3.469201e-004,1.832341e-004
4.608521e-004,1.994406e-004
5.589016e-004,1.953890e-004
5.966629e-004,1.714034e-004
5.543638e-004,1.274836e-004
4.674968e-004,6.703327e-005
3.995914e-004,-2.816880e-006
3.851676e-004,-7.477388e-005
4.083429e-004,-1.344139e-004
4.292493e-004,-1.687718e-004
3.897054e-004,-1.731475e-004
2.368777e-004,-1.507825e-004
-1.886135e-005,-1.135075e-004
-3.076617e-004,-7.866345e-005
-5.261258e-004,-5.597430e-005
-5.684248e-004,-4.835724e-005
-4.050630e-004,-5.192267e-005
-1.149661e-004,-5.743289e-005
1.628139e-004,-5.548811e-005
3.007315e-004,-4.365734e-005
2.626462e-004,-2.242678e-005
1.334801e-004,5.286387e-006
5.406805e-005,3.024445e-005
8.016057e-005,4.110282e-005
9.928428e-005,3.186510e-005
-7.331530e-005,4.638125e-006
-5.279084e-004,-3.555408e-005
-1.157532e-003,-8.028410e-005
-1.702072e-003,-1.224211e-004
-1.922156e-003,-1.551583e-004
-1.721844e-003,-1.728234e-004
-1.177304e-003,-1.728234e-004
-4.672960e-004,-1.533756e-004
2.044647e-004,-1.170729e-004
6.413930e-004,-7.137051e-005
7.195085e-004,-2.339918e-005
3.965121e-004,2.116879e-005
-2.775176e-004,5.585077e-005
-1.233055e-003,7.999851e-005
-2.479176e-003,9.361199e-005
-4.070825e-003,9.733949e-005
-4.968512e-003,9.458438e-005
-4.968350e-003,9.004655e-005
-4.968350e-003,8.648112e-005
-4.968350e-003,8.340187e-005
-4.968512e-003,7.756752e-005
-4.968350e-003,6.784360e-005
-4.260118e-003,5.909208e-005
-2.473017e-003,6.265751e-005
-1.023990e-003,8.453633e-005
1.889987e-005,1.255389e-004
7.039502e-004,1.790204e-004
1.148658e-003,2.347709e-004
1.449128e-003,2.829043e-004
1.653979e-003,3.190449e-004
1.784604e-003,3.436788e-004
1.860288e-003,3.637749e-004
1.897402e-003,3.841952e-004
1.904857e-003,4.133669e-004
1.895619e-003,4.532350e-004
1.888164e-003,4.974789e-004
1.897726e-003,5.307022e-004
1.923494e-003,5.412365e-004
1.952504e-003,5.169268e-004
1.974869e-003,4.521006e-004
1.989617e-003,3.501615e-004
1.994965e-003,2.276400e-004
1.985403e-003,1.020394e-004
1.955421e-003,-8.813297e-006
1.901129e-003,-8.838737e-005
1.823661e-003,-1.360346e-004
1.731770e-003,-1.590478e-004
1.628696e-003,-1.669890e-004
1.507471e-003,-1.703924e-004
1.360640e-003,-1.767130e-004
1.198250e-003,-1.893541e-004
1.050932e-003,-2.076674e-004
9.705480e-004,-2.246843e-004
1.017709e-003,-2.366771e-004
1.216563e-003,-2.459149e-004
1.523516e-003,-2.593663e-004
1.846513e-003,-2.840002e-004
2.097391e-003,-3.206269e-004
2.233688e-003,-3.660052e-004
2.250705e-003,-4.102490e-004
2.170645e-003,-4.454172e-004
2.021544e-003,-4.684305e-004
1.828362e-003,-4.757234e-004
1.613948e-003,-4.677822e-004
1.393377e-003,-4.515757e-004
1.169402e-003,-4.360174e-004
9.324626e-004,-4.240246e-004
6.598685e-004,-4.117076e-004
3.167760e-004,-3.959873e-004
-1.212866e-004,-3.758912e-004
-6.356818e-004,-3.525538e-004
-1.172928e-003,-3.271096e-004
-1.658152e-003,-2.963172e-004
-1.998813e-003,-2.619593e-004
-2.110801e-003,-2.298704e-004
-1.945170e-003,-2.018331e-004
-1.508079e-003,-1.760647e-004
-8.844521e-004,-1.486757e-004
-2.224154e-004,-1.178833e-004
3.294171e-004,-8.368748e-005
6.968193e-004,-4.770897e-005
8.951875e-004,-1.578211e-005
9.770306e-004,1.047248e-005
1.009282e-003,3.218923e-005
1.059684e-003,4.920609e-005
1.164378e-003,6.411610e-005
1.297920e-003,8.129502e-005
1.386732e-003,1.065772e-004
1.373119e-003,1.415833e-004
1.240549e-003,1.843686e-004
1.033916e-003,2.227781e-004
8.799533e-004,2.478982e-004
9.313281e-004,2.572980e-004
1.250273e-003,2.532463e-004
1.773421e-003,2.462775e-004
2.356210e-003,2.490327e-004
2.846136e-003,2.655633e-004
3.135263e-003,2.919800e-004
3.180317e-003,3.188828e-004
2.997668e-003,3.433547e-004
2.637233e-003,3.636129e-004
2.167566e-003,3.799815e-004
1.634207e-003,3.932708e-004
1.006202e-003,4.021844e-004
1.720516e-004,4.068843e-004
-1.009080e-003,4.076947e-004
-2.612880e-003,4.057499e-004
-4.596568e-003,4.057499e-004
-4.968512e-003,4.049396e-004
-4.968350e-003,4.004017e-004
-4.968350e-003,3.940812e-004
-4.968512e-003,3.880847e-004
-4.968350e-003,3.817642e-004
-4.968350e-003,3.713920e-004
-4.634492e-003,3.543751e-004
-3.125007e-003,3.274723e-004
-2.042895e-003,2.887387e-004
-1.276002e-003,2.425500e-004
-6.486471e-004,1.947408e-004
-5.305713e-005,1.472556e-004
5.110924e-004,9.960841e-005
9.783271e-004,5.504044e-005
1.292896e-003,2.019640e-005
1.439080e-003,1.002961e-007
1.441186e-003,-6.868513e-006
1.351240e-003,-1.140634e-005
1.230825e-003,-2.210265e-005
1.131155e-003,-3.960571e-005
1.076539e-003,-6.359137e-005
1.060332e-003,-9.454585e-005
1.045260e-003,-1.289037e-004
9.733030e-004,-1.619650e-004
7.974620e-004,-1.882196e-004
5.274609e-004,-2.079916e-004
2.383363e-004,-2.235498e-004
2.781346e-005,-2.376495e-004
-3.928157e-005,-2.509389e-004
4.045456e-005,-2.598524e-004
2.172679e-004,-2.640662e-004
4.094774e-004,-2.653627e-004
5.373470e-004,-2.668213e-004
5.671670e-004,-2.681178e-004
5.300540e-004,-2.684419e-004
4.971547e-004,-2.697385e-004
5.224369e-004,-2.762210e-004
6.255105e-004,-2.877277e-004
7.979482e-004,-2.961551e-004
1.013495e-003,-2.969654e-004
1.244763e-003,-2.880518e-004
1.465658e-003,-2.750866e-004
1.658841e-003,-2.640662e-004
1.818475e-003,-2.558008e-004
1.947642e-003,-2.478596e-004
2.028675e-003,-2.347323e-004
2.022841e-003,-2.139880e-004
1.875198e-003,-1.857886e-004
1.515250e-003,-1.532135e-004
8.810877e-004,-1.146419e-004
3.665733e-006,-6.893953e-005
-9.178375e-004,-2.031993e-005
-1.603536e-003,2.376183e-005
-1.868351e-003,6.184718e-005
-1.704827e-003,9.490851e-005
-1.266440e-003,1.213252e-004
-7.831613e-004,1.432040e-004
-4.775062e-004,1.608691e-004
-4.859335e-004,1.757791e-004
-8.008264e-004,1.919856e-004
-1.257526e-003,2.138645e-004
-1.606615e-003,2.419018e-004
-1.635463e-003,2.757735e-004
-1.276812e-003,3.149933e-004
-6.458920e-004,3.537269e-004
3.202716e-005,3.898674e-004
5.532294e-004,4.209840e-004
8.444610e-004,4.444835e-004
9.562862e-004,4.576108e-004
9.882130e-004,4.608521e-004
1.024030e-003,4.542074e-004
1.088694e-003,4.399457e-004
1.153196e-003,4.185530e-004
1.168268e-003,3.926226e-004
1.095500e-003,3.658818e-004
9.207938e-004,3.405996e-004
6.480376e-004,3.156415e-004
2.799871e-004,2.892249e-004
-1.822232e-004,2.576221e-004
-7.172007e-004,2.206712e-004
-1.279729e-003,1.837203e-004
-1.790235e-003,1.555210e-004
-2.141917e-003,1.354248e-004
-2.249853e-003,1.185701e-004
-2.095891e-003,9.993253e-005
-1.720709e-003,7.772959e-005
-1.206962e-003,5.341979e-005
-6.551297e-004,2.700314e-005
-1.569410e-004,-3.141010e-006
2.219677e-004,-3.749886e-005
4.623107e-004,-7.688073e-005
5.828873e-004,-1.177212e-004
6.216210e-004,-1.553203e-004
6.331276e-004,-1.887058e-004
6.747784e-004,-2.165810e-004
7.703970e-004,-2.332737e-004
9.018321e-004,-2.400805e-004
1.027109e-003,-2.426735e-004
1.104738e-003,-2.483458e-004
1.113490e-003,-2.600145e-004
1.055146e-003,-2.788141e-004
9.514242e-004,-3.021515e-004
8.336026e-004,-3.287302e-004
7.313393e-004,-3.543365e-004
6.614891e-004,-3.739464e-004
6.198382e-004,-3.781601e-004
5.885597e-004,-3.651949e-004
5.522569e-004,-3.423437e-004
4.981271e-004,-3.173856e-004
4.049396e-004,-2.987481e-004
2.325020e-004,-2.854588e-004
-5.289507e-005,-2.711970e-004
-4.081422e-004,-2.460769e-004
-7.082871e-004,-2.042641e-004
-8.327533e-004,-1.485136e-004
-7.360002e-004,-8.336335e-005
-4.593548e-004,-1.367526e-005
-6.748094e-005,5.649903e-005
3.973225e-004,1.227837e-004
8.669881e-004,1.728619e-004
1.226612e-003,1.945787e-004
1.376522e-003,1.856651e-004
1.326444e-003,1.543865e-004
1.212512e-003,1.090082e-004
1.197440e-003,5.714729e-005
1.371822e-003,7.393236e-006
1.728529e-003,-3.441962e-005
2.171617e-003,-6.521203e-005
2.553931e-003,-8.255302e-005
2.725235e-003,-8.806324e-005
2.584075e-003,-8.417367e-005
2.070812e-003,-6.780507e-005
1.103117e-003,-4.155049e-005
-3.951770e-004,-7.678839e-006
-2.235753e-003,3.251336e-005
-4.000164e-003,7.659513e-005
-4.968350e-003,1.213252e-004
-4.968350e-003,1.675138e-004
-4.968512e-003,2.106232e-004
-3.909083e-003,2.478982e-004
-2.596835e-003,2.793389e-004
-1.542599e-003,3.034866e-004
-1.025287e-003,3.182346e-004
-1.088654e-003,3.263378e-004
-1.566909e-003,3.323342e-004
-2.193940e-003,3.346032e-004
-2.702340e-003,3.289309e-004
-2.901519e-003,3.143450e-004
-2.722922e-003,2.921420e-004
-2.218250e-003,2.642668e-004
-1.499004e-003,2.320158e-004
-6.943495e-004,1.976579e-004
5.536457e-005,1.628139e-004
6.130316e-004,1.321835e-004
8.932427e-004,1.073875e-004
8.914600e-004,8.583286e-005
6.721854e-004,6.670914e-005
3.649094e-004,5.179914e-005
1.308870e-004,4.256141e-005
8.340187e-005,4.061663e-005
2.380122e-004,4.823370e-005
5.240576e-004,5.909208e-005
8.395990e-004,6.541262e-005
1.099390e-003,6.330578e-005
1.257566e-003,5.536457e-005
1.307320e-003,4.661304e-005
1.273935e-003,3.802358e-005
1.202464e-003,2.489629e-005
1.140879e-003,2.531276e-006
1.108628e-003,-2.664048e-005
1.098256e-003,-5.240886e-005
1.086425e-003,-6.958779e-005
1.083021e-003,-7.752899e-005
1.124996e-003,-7.785312e-005
1.235363e-003,-7.331530e-005
1.395160e-003,-6.958779e-005
1.557874e-003,-7.039812e-005
1.674723e-003,-7.607040e-005
1.723829e-003,-8.449780e-005
1.716860e-003,-9.227693e-005
1.679423e-003,-9.762509e-005
1.625941e-003,-1.047560e-004
1.552201e-003,-1.208004e-004
1.442159e-003,-1.438137e-004
1.266318e-003,-1.682856e-004
9.993956e-004,-1.895161e-004
6.271312e-004,-2.008607e-004
1.752929e-004,-2.018331e-004
-2.715212e-004,-1.968091e-004
-6.136410e-004,-1.901644e-004
-8.188156e-004,-1.825473e-004
-9.380957e-004,-1.700683e-004
-1.025611e-003,-1.522411e-004
-1.056079e-003,-1.302002e-004
-9.379336e-004,-1.086455e-004
-6.058619e-004,-9.017008e-005
-1.054042e-004,-7.817725e-005
4.221185e-004,-7.704279e-005
8.128582e-004,-8.741498e-005
9.700617e-004,-1.037836e-004
8.903255e-004,-1.157764e-004
6.306967e-004,-1.173971e-004
2.530843e-004,-1.094559e-004
-2.284118e-004,-9.584238e-005
-8.359946e-004,-8.206682e-005
-1.556051e-003,-7.493595e-005
-2.262818e-003,-7.688073e-005
-2.738805e-003,-8.417367e-005
-2.788073e-003,-9.098041e-005
-2.355681e-003,-9.308726e-005
-1.565289e-003,-8.725291e-005
-6.408680e-004,-7.153257e-005
1.968476e-004,-4.689865e-005
8.028102e-004,-1.756482e-005
1.136827e-003,1.711715e-005
1.227098e-003,5.925414e-005
1.142175e-003,1.038221e-004
9.653618e-004,1.449867e-004
7.705591e-004,1.804790e-004
6.096281e-004,2.115956e-004
5.020167e-004,2.457913e-004
4.405939e-004,2.856594e-004
4.021844e-004,3.286068e-004
3.649094e-004,3.697714e-004
3.211517e-004,4.036430e-004
2.743149e-004,4.229288e-004
2.318537e-004,4.200116e-004
2.018716e-004,3.937570e-004
1.827479e-004,3.469201e-004
1.692965e-004,2.840388e-004
1.597346e-004,2.114335e-004
1.526038e-004,1.432040e-004
1.573037e-004,8.939829e-005
1.882582e-004,5.504044e-005
2.414156e-004,4.126489e-005
3.106175e-004,4.434413e-005
3.994293e-004,5.698522e-005
5.170888e-004,7.238143e-005
6.697544e-004,8.259155e-005
8.763879e-004,8.567078e-005
1.195333e-003,8.421220e-005
1.666782e-003,8.340187e-005
2.235309e-003,8.307774e-005
2.773693e-003,8.405014e-005
3.167028e-003,8.745350e-005
3.369611e-003,8.988449e-005
3.387438e-003,8.405014e-005
3.247089e-003,6.362991e-005
2.943376e-003,3.056858e-005
2.389434e-003,-7.840905e-006
1.459500e-003,-4.819517e-005
1.258630e-004,-8.660465e-005
-1.406140e-003,-1.183694e-004
-2.839772e-003,-1.420310e-004
-4.018801e-003,-1.562927e-004
-4.909682e-003,-1.593720e-004
-4.968350e-003,-1.475412e-004
-4.968512e-003,-1.224211e-004
-4.968512e-003,-9.243900e-005
-4.968350e-003,-6.634648e-005
-4.968350e-003,-4.868137e-005
-4.968350e-003,-3.701266e-005
-4.968512e-003,-2.826114e-005
-4.606293e-003,-2.080613e-005
-3.487711e-003,-1.464765e-005
-2.256822e-003,-3.789272e-006
-9.671054e-004,2.019640e-005
2.961937e-004,5.844381e-005
1.398725e-003,1.020394e-004
2.239523e-003,1.407730e-004
2.757324e-003,1.684862e-004
2.954235e-003,1.895547e-004
2.909018e-003,2.070577e-004
2.723776e-003,2.205092e-004
2.479218e-003,2.171058e-004
2.214564e-003,1.861513e-004
1.919280e-003,1.289422e-004
1.574080e-003,6.038860e-005
1.165351e-003,1.234753e-006
6.825576e-004,-3.328516e-005
1.073875e-004,-3.863332e-005
-5.682627e-004,-2.226472e-005
-1.277136e-003,8.689758e-006
-1.875320e-003,4.320967e-005
-2.189078e-003,7.481241e-005
-2.077739e-003,9.896015e-005
-1.494466e-003,1.106288e-004
-5.439529e-004,1.030118e-004
5.410745e-004,7.286763e-005
1.477651e-003,1.501031e-005
2.100632e-003,-6.861539e-005
2.377279e-003,-1.707166e-004
2.378413e-003,-2.788141e-004
2.204841e-003,-3.763774e-004
1.925925e-003,-4.462276e-004
1.577322e-003,-4.766958e-004
1.236011e-003,-4.694029e-004
1.032781e-003,-4.395829e-004
1.059522e-003,-4.002010e-004
1.249463e-003,-3.557951e-004
1.421252e-003,-3.029619e-004
1.410556e-003,-2.384598e-004
1.161623e-003,-1.666649e-004
7.519216e-004,-9.875954e-005
3.381686e-004,-4.787104e-005
5.747142e-005,-2.226472e-005
-4.819517e-005,-1.853722e-005
-3.976777e-005,-2.518189e-005
-4.414354e-005,-2.485776e-005
-1.851404e-004,-5.571990e-006
-4.894990e-004,3.445814e-005
-8.442599e-004,8.956036e-005
-1.081199e-003,1.485521e-004
-1.110371e-003,2.026820e-004
-9.810430e-004,2.474120e-004
-8.455564e-004,2.819319e-004
-8.476633e-004,3.094830e-004
-9.894704e-004,3.344411e-004
-1.098540e-003,3.587509e-004
-9.288579e-004,3.812780e-004
-3.436402e-004,3.978086e-004
5.525811e-004,4.068843e-004
1.439080e-003,4.023465e-004
1.985727e-003,3.827366e-004
1.962714e-003,3.508097e-004
1.306348e-003,3.133726e-004
1.430419e-004,2.731804e-004
-1.192214e-003,2.315296e-004
-2.265249e-003,1.911753e-004
-2.785480e-003,1.540623e-004
-2.659230e-003,1.242423e-004
-2.013561e-003,1.060910e-004
-1.107940e-003,9.960841e-005
-2.023193e-004,9.782569e-005
5.185474e-004,9.539470e-005
9.760582e-004,8.680524e-005
1.191767e-003,7.286763e-005
1.240225e-003,5.714729e-005
1.224018e-003,4.320967e-005
1.224991e-003,2.716521e-005
1.269235e-003,1.002961e-007
1.335682e-003,-4.333321e-005
1.386732e-003,-1.013526e-004
1.392567e-003,-1.634236e-004
1.341840e-003,-2.217671e-004
1.249625e-003,-2.720074e-004
1.144768e-003,-3.097686e-004
1.050446e-003,-3.314853e-004
9.749237e-004,-3.382920e-004
9.053976e-004,-3.335922e-004
8.324682e-004,-3.245165e-004
7.575939e-004,-3.143064e-004
6.924436e-004,-3.060411e-004
6.347483e-004,-3.010170e-004
5.533914e-004,-2.951827e-004
4.240633e-004,-2.836761e-004
2.824181e-004,-2.596904e-004
2.132162e-004,-2.185258e-004
2.780424e-004,-1.611547e-004
4.621486e-004,-9.438378e-005
6.943883e-004,-2.761287e-005
8.734707e-004,2.959619e-005
9.175525e-004,7.319176e-005
8.008654e-004,1.077117e-004
5.666808e-004,1.393144e-004
3.247172e-004,1.696206e-004
1.874478e-004,1.974959e-004
1.981441e-004,2.172679e-004
3.018659e-004,2.196988e-004
3.788470e-004,2.052750e-004
3.099692e-004,1.756171e-004
4.337174e-005,1.373696e-004
-3.660052e-004,9.944634e-005
-7.980713e-004,7.627100e-005
-1.149105e-003,7.740546e-005
-1.426885e-003,1.009049e-004
-1.762522e-003,1.376938e-004
-2.282752e-003,1.730240e-004
-2.977527e-003,1.937684e-004
-3.700828e-003,1.927960e-004
-4.237105e-003,1.704310e-004
-4.387665e-003,1.328318e-004
-4.082493e-003,8.858796e-005
-3.421912e-003,5.115087e-005
-2.607208e-003,3.056858e-005
-1.817300e-003,3.121684e-005
-1.145701e-003,5.277153e-005
-6.157478e-004,8.988449e-005
-2.138259e-004,1.308870e-004
8.534666e-005,1.629760e-004
3.115899e-004,1.775618e-004
4.859722e-004,1.743205e-004
6.165970e-004,1.608691e-004
7.052467e-004,1.477418e-004
7.522457e-004,1.423936e-004
7.572698e-004,1.409351e-004
7.133500e-004,1.409351e-004
6.224313e-004,1.398006e-004
5.097958e-004,1.368834e-004
4.174185e-004,1.326697e-004
3.806297e-004,1.269974e-004
4.141773e-004,1.169494e-004
5.029891e-004,1.026876e-004
6.118971e-004,8.599492e-005
7.101087e-004,6.735741e-005
7.788245e-004,4.450620e-005
8.076721e-004,1.582063e-005
7.982723e-004,-1.675450e-005
7.640765e-004,-4.981582e-005
7.133500e-004,-7.671866e-005
6.528996e-004,-9.503204e-005
5.942319e-004,-1.060525e-004
5.378332e-004,-1.114006e-004
4.835413e-004,-1.138316e-004
4.305459e-004,-1.136696e-004
3.746333e-004,-1.092938e-004
3.125623e-004,-1.000561e-004
2.584324e-004,-8.530812e-005
2.359054e-004,-6.537409e-005
2.574601e-004,-4.625038e-005
3.260137e-004,-3.198864e-005
4.313562e-004,-2.194059e-005
5.507984e-004,-1.124428e-005
6.496583e-004,2.531276e-006
6.958470e-004,1.436204e-005
6.791542e-004,1.484824e-005
6.133557e-004,2.623614e-007
5.295678e-004,-3.117831e-005
4.828930e-004,-7.218083e-005
5.386435e-004,-1.144799e-004
7.141604e-004,-1.517549e-004
9.617964e-004,-1.823853e-004
1.218346e-003,-2.070192e-004
1.452207e-003,-2.288980e-004
1.686716e-003,-2.434839e-004
1.943752e-003,-2.462390e-004
2.183610e-003,-2.371633e-004
2.326066e-003,-2.162569e-004
2.314397e-003,-1.895161e-004
2.131911e-003,-1.630995e-004
1.780066e-003,-1.446240e-004
1.278635e-003,-1.353863e-004
6.655407e-004,-1.365208e-004
3.665733e-006,-1.444620e-004
-6.131548e-004,-1.517549e-004
-1.114747e-003,-1.535376e-004
-1.533038e-003,-1.467309e-004
-1.979528e-003,-1.263107e-004
-2.552591e-003,-9.568031e-005
-3.226461e-003,-5.921561e-005
-3.806495e-003,-1.999580e-005
-4.035332e-003,1.614476e-005
-3.765816e-003,4.677511e-005
-3.066826e-003,7.481241e-005
-2.166551e-003,1.065772e-004
-1.320894e-003,1.451488e-004
-7.047217e-004,1.895547e-004
-3.812394e-004,2.354192e-004
-3.368335e-004,2.736666e-004
-5.170500e-004,3.028383e-004
-8.230293e-004,3.258516e-004
-1.122364e-003,3.433547e-004
-1.278919e-003,3.504856e-004
-1.221548e-003,3.409237e-004
-9.768293e-004,3.149933e-004
-6.335750e-004,2.786906e-004
-2.689281e-004,2.412535e-004
9.182927e-005,2.083542e-004
4.464283e-004,1.843686e-004
7.770417e-004,1.678379e-004
1.050608e-003,1.574657e-004
1.245897e-003,1.490383e-004
1.358371e-003,1.398006e-004
1.377981e-003,1.297526e-004
1.277338e-003,1.195424e-004
1.016737e-003,1.119254e-004
5.747841e-004,1.065772e-004
-4.437533e-006,1.020394e-004
-6.157478e-004,1.000946e-004
-1.144567e-003,1.023635e-004
-1.487011e-003,1.080358e-004
-1.555565e-003,1.164632e-004
-1.335642e-003,1.255389e-004
-9.129756e-004,1.376938e-004
-4.016596e-004,1.475797e-004
1.394765e-004,1.479039e-004
7.073536e-004,1.342904e-004
1.298245e-003,1.075496e-004
1.881519e-003,7.189524e-005
2.413744e-003,3.769945e-005
2.829119e-003,1.501031e-005
3.040292e-003,2.369211e-006
2.965255e-003,-6.544382e-006
2.563655e-003,-1.659243e-005
1.850240e-003,-2.809907e-005
8.916220e-004,-4.252288e-005
-1.831956e-004,-5.840528e-005
-1.154291e-003,-7.590833e-005
-1.805145e-003,-9.081835e-005
-2.011779e-003,-1.031353e-004
-1.790559e-003,-1.133454e-004
-1.287995e-003,-1.193418e-004
-7.238454e-004,-1.185315e-004
-3.097686e-004,-1.096179e-004
-1.992400e-004,-9.535618e-005
-4.313175e-004,-7.639453e-005
-8.885037e-004,-5.759496e-005
-1.348121e-003,-4.495386e-005
-1.597540e-003,-4.446767e-005
-1.511807e-003,-5.872941e-005
-1.103240e-003,-9.000802e-005
-5.063537e-004,-1.371690e-004
1.007429e-004,-1.924333e-004
5.830494e-004,-2.444563e-004
9.032908e-004,-2.852967e-004
1.090638e-003,-3.060411e-004
1.195171e-003,-3.006929e-004
1.257728e-003,-2.695764e-004
1.275069e-003,-2.219292e-004
1.199222e-003,-1.684476e-004
1.015116e-003,-1.146419e-004
7.958413e-004,-6.521203e-005
6.577615e-004,-2.518189e-005
6.776956e-004,-2.654814e-006
8.465679e-004,-2.168618e-006
1.077349e-003,-2.664048e-005
1.268586e-003,-6.974985e-005
1.358371e-003,-1.135075e-004
1.318827e-003,-1.392759e-004
1.131803e-003,-1.357104e-004
8.037825e-004,-1.054042e-004
3.926226e-004,-6.067420e-005
-4.437533e-006,-9.461558e-006
-3.029619e-004,4.402000e-005
-4.796130e-004,9.750156e-005
-5.877105e-004,1.443384e-004
-7.123387e-004,1.811273e-004
-8.902864e-004,1.994406e-004
-1.070017e-003,1.994406e-004
-1.155749e-003,1.872858e-004
-1.090923e-003,1.715654e-004
-8.838038e-004,1.607070e-004
-5.799314e-004,1.598967e-004
-2.428356e-004,1.689724e-004
5.196120e-005,1.833962e-004
2.331503e-004,1.968476e-004
2.532463e-004,2.049509e-004
1.307250e-004,2.062474e-004
-4.641245e-005,2.043026e-004
-1.656925e-004,2.020337e-004
-1.793060e-004,1.992786e-004
-1.627754e-004,1.945787e-004
-2.567732e-004,1.905271e-004
-5.288809e-004,1.926339e-004
-9.076274e-004,2.004130e-004
-1.240347e-003,2.099749e-004
-1.381992e-003,2.158093e-004
-1.270168e-003,2.201850e-004
-9.280476e-004,2.278021e-004
-4.292107e-004,2.367157e-004
1.218114e-004,2.410915e-004
6.135177e-004,2.389846e-004
9.674687e-004,2.278021e-004
1.152872e-003,2.028440e-004
1.184961e-003,1.654069e-004
1.117217e-003,1.211631e-004
1.012037e-003,8.048470e-005
9.107458e-004,5.098881e-005
8.222580e-004,3.121684e-005
7.358771e-004,1.322759e-005
6.392861e-004,-9.137427e-006
5.365367e-004,-3.636440e-005
4.448076e-004,-6.407757e-005
3.757678e-004,-8.644259e-005
3.271482e-004,-9.827335e-005
2.893870e-004,-9.859748e-005
2.538946e-004,-9.195280e-005
2.192126e-004,-8.303922e-005
1.903650e-004,-7.590833e-005
1.668655e-004,-7.331530e-005
1.477418e-004,-7.801519e-005
1.339663e-004,-8.595638e-005
1.201907e-004,-8.968389e-005
1.039842e-004,-8.822530e-005
8.777764e-005,-8.579432e-005
7.092284e-005,-8.757704e-005
5.358185e-005,-9.697683e-005
3.380988e-005,-1.156143e-004
1.079661e-005,-1.391138e-004
-1.205460e-005,-1.605064e-004
-3.620233e-005,-1.716889e-004
-6.634648e-005,-1.660166e-004
-1.008664e-004,-1.439758e-004
-1.337657e-004,-1.118868e-004
-1.580754e-004,-8.028410e-005
-1.765509e-004,-5.759496e-005
-1.943781e-004,-4.479180e-005
-2.125294e-004,-4.122636e-005
-2.274394e-004,-5.127441e-005
-2.342462e-004,-7.688073e-005
-2.376495e-004,-1.135075e-004
-2.444563e-004,-1.548341e-004
-2.481838e-004,-1.908126e-004
-2.441321e-004,-2.131776e-004
-2.276015e-004,-2.217671e-004
-1.903264e-004,-2.173914e-004
-1.242038e-004,-2.029675e-004
-2.793700e-005,-1.827094e-004
1.156529e-004,-1.587237e-004
3.328204e-004,-1.347380e-004
6.212969e-004,-1.136696e-004
9.444554e-004,-9.649064e-005
1.259835e-003,-8.012204e-005
1.519950e-003,-6.278104e-005
1.679747e-003,-3.928157e-005
1.705516e-003,-9.461558e-006
1.593690e-003,1.987227e-005
1.370202e-003,4.256141e-005
1.050284e-003,5.666109e-005
6.198382e-004,6.249545e-005
4.628891e-005,6.897806e-005
-6.990494e-004,8.080883e-005
-1.589436e-003,1.000946e-004
-2.519692e-003,1.266733e-004
-3.299066e-003,1.548727e-004
-3.724651e-003,1.804790e-004
-3.682514e-003,2.007372e-004
-3.197775e-003,2.093267e-004
-2.418239e-003,2.070577e-004
-1.549244e-003,2.005751e-004
-7.437794e-004,1.932822e-004
-6.051213e-005,1.926339e-004
4.927790e-004,2.008992e-004
8.985908e-004,2.145127e-004
1.124834e-003,2.258573e-004
1.166323e-003,2.315296e-004
1.057091e-003,2.326641e-004
8.407335e-004,2.308813e-004
5.378332e-004,2.263435e-004
1.490383e-004,2.171058e-004
-3.168994e-004,2.067336e-004
-8.134675e-004,1.934442e-004
-1.302581e-003,1.775618e-004
-1.798501e-003,1.634622e-004
-2.347578e-003,1.527658e-004
-2.901843e-003,1.396385e-004
-3.249312e-003,1.234320e-004
-3.133597e-003,1.056048e-004
-2.417429e-003,8.891209e-005
-1.165960e-003,7.400208e-005
3.961880e-004,6.200925e-005
1.899184e-003,5.131294e-005
3.082267e-003,3.915804e-005
3.819833e-003,2.716521e-005
4.065040e-003,2.100672e-005
3.855326e-003,2.052053e-005
3.324071e-003,2.376183e-005
2.636261e-003,2.975825e-005
1.900967e-003,3.462021e-005
1.117704e-003,3.316162e-005
1.979821e-004,1.695509e-005
-9.077895e-004,-1.594417e-005
-2.086653e-003,-6.116039e-005
-3.134569e-003,-1.057284e-004
-3.841501e-003,-1.408965e-004
-4.097241e-003,-1.561307e-004
-3.911676e-003,-1.535376e-004
-3.371023e-003,-1.436516e-004
-2.608990e-003,-1.358725e-004
-1.771274e-003,-1.342519e-004
-9.867153e-004,-1.323071e-004
-3.480160e-004,-1.214487e-004
1.127357e-004,-1.015147e-004
4.333010e-004,-8.125649e-005
7.152948e-004,-6.796714e-005
1.065680e-003,-6.391550e-005
1.517195e-003,-6.586029e-005
2.000313e-003,-6.521203e-005
2.400616e-003,-5.694670e-005
2.643554e-003,-4.090223e-005
2.697360e-003,-2.339918e-005
2.537400e-003,-6.544382e-006
2.150386e-003,4.638125e-006
1.545881e-003,1.112074e-005
7.926000e-004,1.387585e-005
5.747142e-005,1.371378e-005
-4.471999e-004,1.193106e-005
-6.220684e-004,1.387585e-005
-5.236948e-004,2.165498e-005
-3.026377e-004,3.640293e-005
-1.298761e-004,5.957827e-005
-1.373311e-004,8.858796e-005
-3.590364e-004,1.166253e-004
-6.820326e-004,1.347766e-004
-9.042240e-004,1.436902e-004
-8.590078e-004,1.422316e-004
-5.120260e-004,1.316974e-004
2.943412e-005,1.124116e-004
5.851563e-004,8.145709e-005
1.009120e-003,4.450620e-005
1.234229e-003,9.500085e-006
1.274421e-003,-1.821308e-005
1.195333e-003,-3.604027e-005
1.073297e-003,-4.462973e-005
9.647136e-004,-4.884343e-005
8.934048e-004,-4.673658e-005
8.561297e-004,-3.798505e-005
8.405714e-004,-1.643037e-005
8.342508e-004,1.711715e-005
8.301992e-004,5.779555e-005
8.198270e-004,9.750156e-005
7.982723e-004,1.291043e-004
7.699109e-004,1.500107e-004
7.430080e-004,1.603829e-004
7.263153e-004,1.587623e-004
7.246946e-004,1.461212e-004
7.418735e-004,1.282940e-004
8.019998e-004,1.159770e-004
9.541793e-004,1.175977e-004
1.224018e-003,1.312112e-004
1.574404e-003,1.504969e-004
1.911663e-003,1.692965e-004
2.134342e-003,1.811273e-004
2.161731e-003,1.801549e-004
1.973410e-003,1.620036e-004
1.630479e-003,1.310491e-004
1.237470e-003,9.328786e-005
8.721742e-004,5.552663e-005
5.485295e-004,2.003433e-005
2.205092e-004,-9.299493e-006
-1.990780e-004,-2.923353e-005
-7.842957e-004,-3.992984e-005
-1.522017e-003,-4.381940e-005
-2.255687e-003,-4.236082e-005
-2.763115e-003,-3.587821e-005
-2.914808e-003,-2.485776e-005
-2.734429e-003,-9.299493e-006
-2.361030e-003,9.013889e-006
-1.953273e-003,2.813760e-005
-1.588464e-003,4.936815e-005
-1.260282e-003,7.708133e-005
-9.442542e-004,1.124116e-004
-6.308199e-004,1.449867e-004
-3.324577e-004,1.615174e-004
-7.542214e-005,1.556830e-004
1.261871e-004,1.292664e-004
2.736666e-004,8.388807e-005
3.623164e-004,2.538249e-005
3.581026e-004,-3.944364e-005
2.120818e-004,-1.010285e-004
-9.405965e-005,-1.575893e-004
-5.037607e-004,-2.088019e-004
-8.753765e-004,-2.559629e-004
-1.033876e-003,-2.985861e-004
-8.724593e-004,-3.337542e-004
-4.313175e-004,-3.595226e-004
1.227837e-004,-3.775118e-004
5.825632e-004,-3.904771e-004
8.049170e-004,-3.987424e-004
7.451148e-004,-4.024699e-004
4.736553e-004,-3.980942e-004
1.539003e-004,-3.831841e-004
-4.300908e-005,-3.590364e-004
-4.398147e-005,-3.356990e-004
8.631905e-005,-3.204649e-004
1.960373e-004,-3.141443e-004
1.467694e-004,-3.099306e-004
-8.271508e-005,-2.987481e-004
-3.643846e-004,-2.765452e-004
-5.254775e-004,-2.502906e-004
-4.732924e-004,-2.253326e-004
-2.319772e-004,-2.011848e-004
8.518459e-005,-1.737958e-004
3.444891e-004,-1.436516e-004
4.580970e-004,-1.117248e-004
4.140152e-004,-7.979791e-005
2.898731e-004,-5.030202e-005
2.297469e-004,-1.918548e-005
3.603715e-004,1.517237e-005
6.974676e-004,5.471631e-005
1.137638e-003,9.766362e-005
1.530485e-003,1.407730e-004
1.765480e-003,1.811273e-004
1.811182e-003,2.172679e-004
1.707622e-003,2.509774e-004
1.528540e-003,2.843629e-004
1.328389e-003,3.195311e-004
1.106035e-003,3.563199e-004
8.289027e-004,3.950536e-004
4.517764e-004,4.326527e-004
-7.882551e-005,4.627969e-004
-8.102262e-004,4.807861e-004
-1.762198e-003,4.901859e-004
-2.873157e-003,4.945617e-004
-3.964023e-003,4.955341e-004
-4.776949e-003,4.939134e-004
-4.968512e-003,4.927790e-004
-4.806931e-003,4.940755e-004
-4.023664e-003,4.987754e-004
-2.954028e-003,5.020167e-004
-1.835938e-003,4.981271e-004
-8.698662e-004,4.875929e-004
-1.794681e-004,4.717105e-004
1.945787e-004,4.493454e-004
3.023522e-004,4.208219e-004
2.346088e-004,3.830607e-004
7.789165e-005,3.315239e-004
-9.438378e-005,2.644289e-004
-2.425115e-004,1.863134e-004
-3.559572e-004,1.078737e-004
-4.322899e-004,3.575467e-005
-4.575721e-004,-2.307504e-005
-4.186764e-004,-6.812920e-005
-3.087962e-004,-9.681477e-005
-1.410586e-004,-1.102662e-004
5.779555e-005,-1.135075e-004
2.576221e-004,-1.104282e-004
4.386491e-004,-1.054042e-004
5.858046e-004,-1.002181e-004
6.953608e-004,-9.665270e-005
7.707212e-004,-9.486997e-005
8.191788e-004,-9.341139e-005
8.426782e-004,-9.405965e-005
8.319819e-004,-9.486997e-005
7.772038e-004,-9.616651e-005
6.943883e-004,-9.859748e-005
6.308587e-004,-1.065387e-004
6.434998e-004,-1.227452e-004
7.473837e-004,-1.477033e-004
9.088010e-004,-1.760647e-004
1.065356e-003,-2.026434e-004
1.179612e-003,-2.212809e-004
1.257890e-003,-2.264670e-004
1.336654e-003,-2.217671e-004
1.444104e-003,-2.131776e-004
1.582994e-003,-2.057227e-004
1.730960e-003,-2.031296e-004
1.868230e-003,-2.016710e-004
1.982486e-003,-1.981056e-004
2.025596e-003,-1.919471e-004
1.899184e-003,-1.825473e-004
1.497909e-003,-1.677994e-004
8.028102e-004,-1.485136e-004
-5.143648e-005,-1.267968e-004
-7.711684e-004,-1.052422e-004
-1.094165e-003,-8.644259e-005
-9.285338e-004,-7.623246e-005
-3.715154e-004,-7.655660e-005
3.462718e-004,-8.384954e-005
9.721686e-004,-9.341139e-005
1.345568e-003,-1.031353e-004
1.365340e-003,-1.133454e-004
9.781651e-004,-1.224211e-004
2.213195e-004,-1.258245e-004
-7.886715e-004,-1.208004e-004
-1.893471e-003,-1.018388e-004
-2.941873e-003,-7.007399e-005
-3.758523e-003,-3.036798e-005
-4.170009e-003,8.365628e-006
-4.078604e-003,3.996837e-005
-3.511210e-003,6.038860e-005
-2.600887e-003,6.865393e-005
-1.534982e-003,6.638502e-005
-5.167259e-004,6.103686e-005
2.830664e-004,6.411610e-005
7.705591e-004,8.502253e-005
9.538552e-004,1.229458e-004
8.885428e-004,1.688103e-004
6.475514e-004,2.117576e-004
3.034866e-004,2.449810e-004
-5.435365e-005,2.666978e-004
-3.042584e-004,2.790148e-004
-3.272716e-004,2.785285e-004
-8.822530e-005,2.644289e-004
3.106175e-004,2.420638e-004
6.785059e-004,2.211574e-004
8.378163e-004,2.090025e-004
7.186982e-004,2.137024e-004
3.981328e-004,2.378501e-004
4.547859e-005,2.726942e-004
-1.626133e-004,3.125623e-004
-1.271210e-004,3.548613e-004
1.423936e-004,3.952156e-004
5.460985e-004,4.274666e-004
9.449415e-004,4.418904e-004
1.209271e-003,4.297355e-004
1.242008e-003,3.856538e-004
1.023868e-003,3.104554e-004
6.507927e-004,2.177540e-004
3.192070e-004,1.295905e-004
2.318537e-004,6.168512e-005
4.652279e-004,1.663096e-005
9.347314e-004,-1.092015e-005
1.471006e-003,-2.615429e-005
1.935973e-003,-3.798505e-005
2.263995e-003,-5.419158e-005
2.454909e-003,-8.060823e-005
2.537400e-003,-1.118868e-004
2.533997e-003,-1.489998e-004
2.440971e-003,-1.916230e-004
2.222019e-003,-2.355427e-004
1.832089e-003,-2.733039e-004
1.238118e-003,-2.993964e-004
4.279528e-004,-3.076617e-004
-5.557837e-004,-2.985861e-004
-1.601267e-003,-2.814071e-004
-2.605911e-003,-2.661730e-004
-3.450274e-003,-2.566112e-004
-3.963213e-003,-2.535319e-004
-3.963699e-003,-2.558008e-004
-3.377506e-003,-2.606628e-004
-2.323431e-003,-2.676316e-004
-1.065965e-003,-2.741142e-004
9.652917e-005,-2.737901e-004
9.335970e-004,-2.666592e-004
1.405046e-003,-2.554767e-004
1.606331e-003,-2.439701e-004
1.688985e-003,-2.298704e-004
1.803565e-003,-2.126914e-004
2.017654e-003,-1.953505e-004
2.294463e-003,-1.784957e-004
2.540641e-003,-1.593720e-004
2.671267e-003,-1.352242e-004
2.631885e-003,-1.060525e-004
2.399482e-003,-7.574627e-005
1.972276e-003,-4.787104e-005
1.380250e-003,-2.583016e-005
6.755888e-004,-1.189254e-005
-9.956988e-005,-4.599598e-006
-9.089239e-004,2.623614e-007
-1.740319e-003,3.989864e-006
-2.575929e-003,7.717366e-006
-3.323376e-003,9.338019e-006
-3.829184e-003,8.203562e-006
-3.988981e-003,3.179537e-006
-3.794988e-003,-4.599598e-006
-3.308628e-003,-1.626830e-005
-2.629573e-003,-2.745081e-005
-1.860734e-003,-3.215070e-005
-1.092706e-003,-2.534396e-005
-3.775118e-004,-6.058186e-006
2.574601e-004,2.619281e-005
7.671557e-004,6.411610e-005
1.093718e-003,9.896015e-005
1.165351e-003,1.244044e-004
9.102596e-004,1.370455e-004
3.057555e-004,1.389903e-004
-5.559457e-004,1.385041e-004
-1.419592e-003,1.417454e-004
-1.980824e-003,1.498487e-004
-2.038519e-003,1.598967e-004
-1.598350e-003,1.709172e-004
-8.470150e-004,1.850168e-004
-5.500191e-005,2.083542e-004
5.436675e-004,2.441707e-004
8.707156e-004,2.861456e-004
9.849718e-004,3.258516e-004
9.940475e-004,3.555096e-004
9.807581e-004,3.713920e-004
9.810822e-004,3.699334e-004
9.953440e-004,3.517821e-004
1.023381e-003,3.172622e-004
1.045908e-003,2.696149e-004
1.042829e-003,2.190506e-004
1.018843e-003,1.752929e-004
9.877268e-004,1.436902e-004
9.447795e-004,1.255389e-004
8.692570e-004,1.177597e-004
7.669937e-004,1.172735e-004
6.754267e-004,1.232699e-004
6.394482e-004,1.347766e-004
6.707268e-004,1.514693e-004
7.404150e-004,1.704310e-004
7.926000e-004,1.837203e-004
7.801210e-004,1.910133e-004
6.785059e-004,1.944166e-004
4.943996e-004,1.947408e-004
2.603772e-004,1.906891e-004
1.889987e-005,1.780480e-004
-1.909747e-004,1.550348e-004
-3.434782e-004,1.211631e-004
-4.392588e-004,7.886404e-005
-4.966299e-004,3.494434e-005
-5.256396e-004,-6.220252e-006
-5.165638e-004,-4.592625e-005
-4.437966e-004,-8.741498e-005
-2.968033e-004,-1.272830e-004
-1.024871e-004,-1.619650e-004
9.652917e-005,-1.909747e-004
2.516257e-004,-2.135018e-004
2.893870e-004,-2.293842e-004
1.091703e-004,-2.376495e-004
-3.504470e-004,-2.363530e-004
-9.956289e-004,-2.316531e-004
-1.580523e-003,-2.297083e-004
-1.843879e-003,-2.331117e-004
-1.653290e-003,-2.417012e-004
-1.068396e-003,-2.511010e-004
-2.849726e-004,-2.554767e-004
4.652279e-004,-2.512630e-004
1.004582e-003,-2.405667e-004
1.277014e-003,-2.250084e-004
1.293383e-003,-2.099363e-004
1.055956e-003,-1.979435e-004
5.250300e-004,-1.875713e-004
-2.914552e-004,-1.752544e-004
-1.203883e-003,-1.575893e-004
-1.926370e-003,-1.379794e-004
-2.237050e-003,-1.198280e-004
-2.091191e-003,-1.024871e-004
-1.621525e-003,-8.530812e-005
-1.014590e-003,-6.731888e-005
-4.016596e-004,-4.916756e-005
1.472556e-004,-3.117831e-005
5.867769e-004,-1.205460e-005
8.885428e-004,1.014835e-005
1.029216e-003,3.591673e-005
9.886993e-004,6.200925e-005
7.665075e-004,8.550872e-005
3.916502e-004,1.062531e-004
-8.239095e-005,1.287802e-004
-5.773384e-004,1.516314e-004
-9.889842e-004,1.671896e-004
-1.224465e-003,1.725378e-004
-1.223817e-003,1.702689e-004
-9.941703e-004,1.628139e-004
-5.979206e-004,1.522796e-004
-1.233935e-004,1.399627e-004
3.329825e-004,1.297526e-004
7.023296e-004,1.247285e-004
9.629308e-004,1.227837e-004
1.113328e-003,1.211631e-004
1.170213e-003,1.174356e-004
1.159840e-003,1.101427e-004
1.111059e-003,9.717743e-005
1.042181e-003,8.242948e-005
9.613102e-004,7.205730e-005
8.734707e-004,7.011252e-005
7.851450e-004,7.238143e-005
7.033019e-004,7.708133e-005
6.175694e-004,8.405014e-005
4.686312e-004,9.361199e-005
1.680000e-004,1.041462e-004
-2.810830e-004,1.164632e-004
-7.308142e-004,1.286181e-004
-9.823395e-004,1.367214e-004
-8.974173e-004,1.375317e-004
-4.763717e-004,1.320215e-004
1.187321e-004,1.247285e-004
6.517651e-004,1.208390e-004
9.632549e-004,1.224596e-004
1.088045e-003,1.263492e-004
1.212512e-003,1.300767e-004
1.455934e-003,1.318594e-004
1.734525e-003,1.325077e-004
1.855913e-003,1.286181e-004
1.662730e-003,1.078737e-004
1.133910e-003,6.427817e-005
4.065602e-004,5.864920e-007
-2.987481e-004,-7.039812e-005
-8.287016e-004,-1.287416e-004
-1.199021e-003,-1.606685e-004
-1.541141e-003,-1.624512e-004
-1.977259e-003,-1.387897e-004
-2.531199e-003,-9.908367e-005
-3.147210e-003,-4.851930e-005
-3.736968e-003,1.047248e-005
-4.160772e-003,7.578480e-005
-4.289290e-003,1.470936e-004
-4.056725e-003,2.205092e-004
-3.454163e-003,2.900352e-004
-2.530388e-003,3.516200e-004
-1.409706e-003,3.978086e-004
-3.141443e-004,4.230909e-004
4.788414e-004,4.258460e-004
8.240407e-004,4.104497e-004
8.029722e-004,3.793332e-004
6.332897e-004,3.260137e-004
5.464226e-004,2.470879e-004
6.575995e-004,1.454729e-004
9.417002e-004,3.267542e-005
1.288845e-003,-7.363943e-005
1.579590e-003,-1.621271e-004
1.732419e-003,-2.310048e-004
1.727394e-003,-2.869174e-004
1.587694e-003,-3.381300e-004
1.345081e-003,-3.888564e-004
1.024840e-003,-4.331002e-004
6.804507e-004,-4.608134e-004
4.294114e-004,-4.621100e-004
4.109360e-004,-4.368278e-004
6.802886e-004,-3.942046e-004
1.164378e-003,-3.449367e-004
1.723829e-003,-3.015032e-004
2.226557e-003,-2.658489e-004
2.587317e-003,-2.365151e-004
2.763483e-003,-2.091260e-004
2.756838e-003,-1.807646e-004
2.600768e-003,-1.488377e-004
2.343407e-003,-1.133454e-004
2.026406e-003,-7.866345e-005
1.686878e-003,-4.479180e-005
1.342813e-003,-8.489166e-006
9.827028e-004,2.684107e-005
5.524190e-004,5.795762e-005
-1.205460e-005,8.453633e-005
-6.948357e-004,1.043083e-004
-1.347311e-003,1.146805e-004
-1.756850e-003,1.206769e-004
-1.775001e-003,1.248906e-004
-1.413109e-003,1.287802e-004
-8.246500e-004,1.308870e-004
-1.977815e-004,1.315353e-004
3.435168e-004,1.352628e-004
7.739625e-004,1.425557e-004
1.114624e-003,1.535762e-004
1.372146e-003,1.650828e-004
1.545395e-003,1.770756e-004
1.638096e-003,1.879340e-004
1.659813e-003,1.936063e-004
1.607790e-003,1.906891e-004
1.477165e-003,1.786963e-004
1.271666e-003,1.620036e-004
1.009282e-003,1.433661e-004
7.107570e-004,1.258630e-004
3.777126e-004,1.085220e-004
-2.096820e-005,9.393612e-005
-5.360117e-004,8.275361e-005
-1.213283e-003,7.578480e-005
-2.055212e-003,7.076078e-005
-2.982714e-003,6.638502e-005
-3.821243e-003,6.006447e-005
-4.341314e-003,4.936815e-005
-4.357520e-003,3.834771e-005
-3.813788e-003,3.202716e-005
-2.821296e-003,2.781346e-005
-1.606615e-003,2.246531e-005
-4.292107e-004,1.711715e-005
4.966686e-004,1.338965e-005
1.070218e-003,6.420843e-006
1.335682e-003,-6.058186e-006
1.406342e-003,-2.550602e-005
1.399860e-003,-4.803310e-005
1.381222e-003,-6.845333e-005
1.345892e-003,-8.352541e-005
1.250921e-003,-9.422172e-005
1.015764e-003,-1.021629e-004
5.710566e-004,-1.107524e-004
-6.067420e-005,-1.248521e-004
-7.829992e-004,-1.433275e-004
-1.484256e-003,-1.575893e-004
-2.023285e-003,-1.587237e-004
-2.248232e-003,-1.493239e-004
-2.083736e-003,-1.387897e-004
-1.560751e-003,-1.347380e-004
-8.094159e-004,-1.400862e-004
-1.869928e-005,-1.509446e-004
6.302104e-004,-1.601823e-004
1.052229e-003,-1.616409e-004
1.300838e-003,-1.556445e-004
1.483161e-003,-1.425172e-004
1.649603e-003,-1.258245e-004
1.763697e-003,-1.099421e-004
1.745060e-003,-9.519411e-005
1.515250e-003,-8.174268e-005
9.937233e-004,-7.169464e-005
9.377406e-005,-6.618442e-005
-1.178601e-003,-6.132246e-005
-2.599752e-003,-5.062615e-005
-3.779592e-003,-3.182657e-005
-4.307442e-003,-8.489166e-006
-3.955596e-003,1.549650e-005
-2.820648e-003,3.624086e-005
-1.298853e-003,5.260946e-005
9.993253e-005,6.492643e-005
9.590413e-004,7.481241e-005
1.250597e-003,7.983644e-005
1.250273e-003,8.064677e-005
1.251894e-003,8.129502e-005
1.352861e-003,9.037068e-005
1.411204e-003,1.122495e-004
1.148496e-003,1.456350e-004
3.613439e-004,1.837203e-004
-8.173570e-004,2.252090e-004
-1.900278e-003,2.650771e-004
-2.422453e-003,3.012177e-004
-2.190537e-003,3.266619e-004
-1.367569e-003,3.393030e-004
-3.603330e-004,3.431926e-004
3.987811e-004,3.399513e-004
6.682958e-004,3.273102e-004
4.584211e-004,3.060797e-004
-7.493595e-005,2.799871e-004
-7.295177e-004,2.545429e-004
-1.310684e-003,2.346088e-004
-1.641783e-003,2.237505e-004
-1.602563e-003,2.211574e-004
-1.189621e-003,2.231022e-004
-5.384427e-004,2.218057e-004
1.493625e-004,2.164575e-004
6.935780e-004,2.072198e-004
1.017547e-003,1.970097e-004
1.141851e-003,1.910133e-004
1.143148e-003,1.945787e-004
1.104252e-003,2.068957e-004
1.082859e-003,2.253711e-004
1.083994e-003,2.485465e-004
1.077511e-003,2.676702e-004
1.042829e-003,2.678322e-004
9.870786e-004,2.444948e-004
9.357039e-004,2.025199e-004
9.136630e-004,1.542244e-004
9.285730e-004,1.064152e-004
9.773547e-004,5.990240e-005
1.042667e-003,1.355172e-005
1.100849e-003,-3.182657e-005
1.136503e-003,-7.704279e-005
1.144120e-003,-1.204763e-004
1.129210e-003,-1.608306e-004
1.104738e-003,-1.948643e-004
1.089342e-003,-2.193361e-004
1.095014e-003,-2.340841e-004
1.123862e-003,-2.407288e-004
1.165837e-003,-2.470493e-004
1.206029e-003,-2.635799e-004
1.220453e-003,-2.875656e-004
1.176857e-003,-3.152788e-004
1.038291e-003,-3.438023e-004
8.104272e-004,-3.694086e-004
5.417228e-004,-3.885323e-004
2.945730e-004,-3.953390e-004
9.539470e-005,-3.885323e-004
-6.067420e-005,-3.698948e-004
-1.898403e-004,-3.485022e-004
-3.032860e-004,-3.327818e-004
-3.933943e-004,-3.230579e-004
-4.382863e-004,-3.154408e-004
-4.303451e-004,-3.052308e-004
-3.784843e-004,-2.917793e-004
-3.084721e-004,-2.791382e-004
-2.402425e-004,-2.676316e-004
-1.838438e-004,-2.533699e-004
-1.365208e-004,-2.324634e-004
-8.628052e-005,-2.088019e-004
-2.096820e-005,-1.841680e-004
5.925414e-005,-1.593720e-004
1.360731e-004,-1.334415e-004
1.811273e-004,-1.029732e-004
1.799928e-004,-6.845333e-005
1.305629e-004,-3.474375e-005
3.834771e-005,-4.599598e-006
-7.558420e-005,1.695509e-005
-1.807646e-004,2.878586e-005
-2.509389e-004,3.769945e-005
-2.833519e-004,5.066468e-005
-2.791382e-004,7.157111e-005
-2.274394e-004,1.018773e-004
-8.174268e-005,1.385041e-004
1.984683e-004,1.765894e-004
5.799701e-004,2.120818e-004
9.650377e-004,2.378501e-004
1.260321e-003,2.490327e-004
1.425304e-003,2.509774e-004
1.469548e-003,2.540567e-004
1.406342e-003,2.655633e-004
1.226449e-003,2.882525e-004
9.789753e-004,3.164518e-004
8.102651e-004,3.435168e-004
8.705535e-004,3.662059e-004
1.163892e-003,3.851676e-004
1.513792e-003,3.979707e-004
1.693847e-003,3.973225e-004
1.552688e-003,3.798194e-004
1.068111e-003,3.506476e-004
3.516200e-004,3.172622e-004
-3.969597e-004,2.848491e-004
-9.758569e-004,2.556773e-004
-1.329483e-003,2.310434e-004
-1.588788e-003,2.141886e-004
-2.007565e-003,2.060853e-004
-2.794879e-003,2.036544e-004
-3.920914e-003,2.033302e-004
-4.968350e-003,2.007372e-004
-4.968512e-003,1.960373e-004
-4.968350e-003,1.890685e-004
-4.968512e-003,1.816135e-004
-4.968350e-003,1.767515e-004
-4.968512e-003,1.730240e-004
-4.587168e-003,1.636242e-004
-3.753175e-003,1.501728e-004
-2.946411e-003,1.352628e-004
-2.164282e-003,1.200286e-004
-1.427047e-003,1.017153e-004
-7.763545e-004,8.048470e-005
-2.478596e-004,6.071273e-005
1.498487e-004,4.709924e-005
4.404318e-004,4.288554e-005
6.676476e-004,4.175109e-005
8.652053e-004,3.186510e-005
1.035212e-003,5.286387e-006
1.158058e-003,-4.041603e-005
1.218022e-003,-1.000561e-004
1.220129e-003,-1.611547e-004
1.189661e-003,-2.107467e-004
1.157247e-003,-2.405667e-004
1.140231e-003,-2.502906e-004
1.142986e-003,-2.475355e-004
1.171347e-003,-2.420253e-004
1.245087e-003,-2.373254e-004
1.383491e-003,-2.345703e-004
1.592232e-003,-2.327876e-004
1.851861e-003,-2.314910e-004
2.124618e-003,-2.285739e-004
2.363989e-003,-2.216050e-004
2.534969e-003,-2.136638e-004
2.616650e-003,-2.073433e-004
2.597527e-003,-2.070192e-004
2.461877e-003,-2.143121e-004
2.202248e-003,-2.272773e-004
1.837437e-003,-2.386219e-004
1.439890e-003,-2.449425e-004
1.123376e-003,-2.452666e-004
9.718445e-004,-2.386219e-004
9.942095e-004,-2.288980e-004
1.140393e-003,-2.209568e-004
1.336168e-003,-2.172293e-004
1.522219e-003,-2.102605e-004
1.678289e-003,-1.916230e-004
1.800810e-003,-1.566169e-004
1.874226e-003,-1.042698e-004
1.867743e-003,-4.138842e-005
1.759321e-003,2.473423e-005
1.560143e-003,8.858796e-005
1.297434e-003,1.420695e-004
9.856200e-004,1.820997e-004
6.165970e-004,2.078681e-004
1.908512e-004,2.214815e-004
-2.452666e-004,2.245608e-004
-6.126686e-004,2.224539e-004
-8.710006e-004,2.240746e-004
-1.061589e-003,2.360674e-004
-1.288805e-003,2.592428e-004
-1.612125e-003,2.848491e-004
-1.964618e-003,3.057555e-004
-2.190213e-003,3.179104e-004
-2.146941e-003,3.237448e-004
-1.805145e-003,3.208276e-004
-1.264333e-003,3.073762e-004
-6.805740e-004,2.846870e-004
-1.956746e-004,2.553532e-004
1.143563e-004,2.190506e-004
2.522740e-004,1.780480e-004
2.671840e-004,1.363972e-004
2.067336e-004,1.017153e-004
1.046324e-004,7.708133e-005
-1.821308e-005,5.941620e-005
-1.336036e-004,4.596478e-005
-2.139880e-004,3.429608e-005
-2.404046e-004,1.971020e-005
-1.987538e-004,7.717366e-006
-9.470791e-005,1.002961e-007
4.547859e-005,-2.978945e-006
1.795066e-004,-4.599598e-006
2.903593e-004,-5.571990e-006
4.174185e-004,-8.651231e-006
6.123833e-004,-1.383732e-005
8.849773e-004,-2.307504e-005
1.190633e-003,-3.215070e-005
1.466793e-003,-3.782299e-005
1.685744e-003,-4.074016e-005
1.866447e-003,-4.009191e-005
2.049905e-003,-3.652646e-005
2.245033e-003,-3.150244e-005
2.399320e-003,-2.923353e-005
2.445185e-003,-3.296103e-005
2.349890e-003,-4.025397e-005
2.124780e-003,-4.592625e-005
1.780714e-003,-4.770897e-005
1.264211e-003,-4.706071e-005
4.373526e-004,-4.738484e-005
-7.979092e-004,-4.965376e-005
-2.303334e-003,-5.629844e-005
-3.778295e-003,-6.537409e-005
-4.891530e-003,-7.088431e-005
-4.968512e-003,-6.488790e-005
-4.968512e-003,-4.916756e-005
-4.858630e-003,-2.437157e-005
-4.092055e-003,6.258778e-006
-3.324673e-003,3.656499e-005
-2.697964e-003,6.103686e-005
-2.197182e-003,7.124698e-005
-1.723140e-003,6.200925e-005
-1.193673e-003,3.705119e-005
-5.975965e-004,2.693341e-006
1.938607e-005,-3.360929e-005
5.679773e-004,-6.796714e-005
9.426727e-004,-9.308726e-005
1.084480e-003,-1.024871e-004
1.000692e-003,-9.973194e-005
7.415494e-004,-9.276313e-005
4.055878e-004,-8.676672e-005
1.263492e-004,-8.255302e-005
1.338965e-005,-8.044617e-005
9.312580e-005,-8.417367e-005
3.099692e-004,-9.519411e-005
5.747841e-004,-1.146419e-004
7.985964e-004,-1.378173e-004
9.329488e-004,-1.517549e-004
9.784892e-004,-1.532135e-004
9.404037e-004,-1.457585e-004
7.956792e-004,-1.363587e-004
5.295678e-004,-1.256624e-004
1.927960e-004,-1.089697e-004
-1.118868e-004,-8.384954e-005
-2.765452e-004,-5.402952e-005
-2.345703e-004,-2.809907e-005
-4.437533e-006,-1.189254e-005
3.146691e-004,-2.238346e-007
5.856425e-004,1.338965e-005
6.564650e-004,3.154097e-005
3.948915e-004,5.487838e-005
-2.258187e-004,8.259155e-005
-1.017021e-003,1.153287e-004
-1.647132e-003,1.457970e-004
-1.826700e-003,1.663793e-004
-1.435150e-003,1.725378e-004
-5.614560e-004,1.676758e-004
5.373470e-004,1.628139e-004
1.528864e-003,1.673517e-004
2.175182e-003,1.848548e-004
2.377279e-003,2.111094e-004
2.220399e-003,2.360674e-004
1.884274e-003,2.558394e-004
1.506337e-003,2.691288e-004
1.148334e-003,2.782044e-004
8.368439e-004,2.825802e-004
5.739738e-004,2.850112e-004
3.537269e-004,2.897111e-004
1.676758e-004,2.950592e-004
2.619281e-005,2.937627e-004
-5.013995e-005,2.799871e-004
-5.370539e-005,2.556773e-004
-2.194059e-005,2.248849e-004
-5.305713e-005,1.936063e-004
-3.039342e-004,1.663793e-004
-9.001724e-004,1.487142e-004
-1.805956e-003,1.419075e-004
-2.760359e-003,1.415833e-004
-3.386906e-003,1.459591e-004
-3.411540e-003,1.550348e-004
-2.834099e-003,1.620036e-004
-1.912271e-003,1.555210e-004
-9.789361e-004,1.278078e-004
-2.744383e-004,7.789165e-005
1.407730e-004,1.306552e-005
3.537269e-004,-5.743289e-005
4.893756e-004,-1.209625e-004
6.183797e-004,-1.737958e-004
7.632662e-004,-2.169052e-004
9.188490e-004,-2.546664e-004
1.061305e-003,-2.883759e-004
1.156923e-003,-3.147926e-004
1.184312e-003,-3.280820e-004
1.147686e-003,-3.271096e-004
1.070866e-003,-3.168994e-004
9.848097e-004,-3.015032e-004
9.144733e-004,-2.865932e-004
8.673123e-004,-2.778417e-004
8.316578e-004,-2.844864e-004
7.869278e-004,-3.071755e-004
7.222636e-004,-3.371576e-004
6.494962e-004,-3.627639e-004
6.060627e-004,-3.666535e-004
6.248623e-004,-3.373197e-004
6.984400e-004,-2.793003e-004
7.911414e-004,-2.055606e-004
8.762258e-004,-1.261486e-004
9.465622e-004,-4.965376e-005
1.002637e-003,1.079661e-005
1.045098e-003,4.272347e-005
1.073460e-003,4.320967e-005
1.060170e-003,2.019640e-005
9.580689e-004,-1.675450e-005
7.493285e-004,-5.532604e-005
4.767345e-004,-8.611845e-005
2.119197e-004,-1.011905e-004
-1.270286e-005,-9.924574e-005
-2.365151e-004,-8.077030e-005
-5.211017e-004,-5.483985e-005
-8.833176e-004,-3.036798e-005
-1.264495e-003,-1.156841e-005
-1.566261e-003,3.179537e-006
-1.702072e-003,1.355172e-005
-1.660421e-003,2.262738e-005
-1.505810e-003,3.218923e-005
-1.292370e-003,4.288554e-005
-1.007784e-003,5.893001e-005
-5.935449e-004,8.113296e-005
-1.740276e-005,1.057669e-004
6.707268e-004,1.297526e-004
1.355778e-003,1.480659e-004
1.923656e-003,1.624898e-004
2.323473e-003,1.770756e-004
2.541128e-003,1.945787e-004
2.560575e-003,2.138645e-004
2.345190e-003,2.350950e-004
1.854130e-003,2.613496e-004
1.067139e-003,2.929524e-004
1.128280e-005,3.242310e-004
-1.170821e-003,3.519442e-004
-2.233970e-003,3.751195e-004
-2.936525e-003,3.935950e-004
-3.141376e-003,4.109360e-004
-2.895846e-003,4.290873e-004
-2.428611e-003,4.512903e-004
-2.008375e-003,4.814344e-004
-1.761388e-003,5.213025e-004
-1.641621e-003,5.665187e-004
-1.530444e-003,6.052523e-004
-1.336776e-003,6.294001e-004
-1.033228e-003,6.323173e-004
-6.588572e-004,6.123833e-004
-2.895104e-004,5.713807e-004
6.907040e-006,5.096338e-004
1.983062e-004,4.271425e-004
2.973281e-004,3.277964e-004
3.417340e-004,2.188885e-004
3.733368e-004,1.135460e-004
4.145014e-004,2.392390e-005
4.640934e-004,-4.625038e-005
5.324850e-004,-9.503204e-005
6.554927e-004,-1.290658e-004
8.446231e-004,-1.553203e-004
1.057577e-003,-1.749302e-004
1.225963e-003,-1.874093e-004
1.298569e-003,-1.984297e-004
1.280741e-003,-2.104225e-004
1.210891e-003,-2.233878e-004
1.140231e-003,-2.389460e-004
1.087883e-003,-2.545043e-004
1.020140e-003,-2.671454e-004
8.901635e-004,-2.781658e-004
7.067053e-004,-2.888622e-004
5.373470e-004,-2.968033e-004
4.422146e-004,-3.015032e-004
4.065602e-004,-3.045825e-004
3.337929e-004,-3.032860e-004
1.289422e-004,-3.003688e-004
-2.026434e-004,-3.002067e-004
-5.301774e-004,-3.031239e-004
-7.008321e-004,-3.060411e-004
-6.645294e-004,-3.079858e-004
-5.112157e-004,-3.040963e-004
-3.924218e-004,-2.895104e-004
-4.118697e-004,-2.648765e-004
-5.682627e-004,-2.376495e-004
-7.851060e-004,-2.138259e-004
-9.716432e-004,-1.940539e-004
-1.070503e-003,-1.690959e-004
-1.079093e-003,-1.303623e-004
-1.031283e-003,-8.320128e-005
-9.562470e-004,-4.041603e-005
-8.494460e-004,-1.513384e-005
-7.035872e-004,-1.108221e-005
-5.348772e-004,-2.307504e-005
-3.760533e-004,-4.155049e-005
-2.570974e-004,-5.986387e-005
-1.878955e-004,-7.315322e-005
-1.449482e-004,-7.914964e-005
-8.028410e-005,-7.947377e-005
4.158902e-005,-7.931171e-005
2.159713e-004,-7.995997e-005
4.130428e-004,-7.671866e-005
6.148142e-004,-6.910160e-005
8.169098e-004,-5.597430e-005
1.017709e-003,-4.025397e-005
1.215591e-003,-2.680255e-005
1.414121e-003,-1.869928e-005
1.603414e-003,-1.335113e-005
1.765804e-003,-5.896120e-006
1.890595e-003,1.014835e-005
1.976490e-003,3.543054e-005
2.020572e-003,6.622294e-005
1.998855e-003,9.588091e-005
1.833223e-003,1.171115e-004
1.398239e-003,1.299146e-004
6.149763e-004,1.349386e-004
-4.087905e-004,1.352628e-004
-1.358655e-003,1.347766e-004
-1.949221e-003,1.394765e-004
-2.056671e-003,1.495245e-004
-1.750205e-003,1.644345e-004
-1.232730e-003,1.816135e-004
-7.410243e-004,1.989545e-004
-4.507654e-004,2.188885e-004
-4.238625e-004,2.435224e-004
-6.222305e-004,2.696149e-004
-9.580297e-004,2.897111e-004
-1.345690e-003,2.973281e-004
-1.708716e-003,2.882525e-004
-1.989414e-003,2.616738e-004
-2.148238e-003,2.201850e-004
-2.148238e-003,1.718896e-004
-1.946466e-003,1.286181e-004
-1.533524e-003,9.847395e-005
-9.675916e-004,8.388807e-005
-3.695707e-004,7.837785e-005
1.373696e-004,7.432621e-005
4.811103e-004,6.557468e-005
6.577615e-004,5.131294e-005
7.008709e-004,3.251336e-005
6.585719e-004,1.387585e-005
5.786736e-004,-1.682422e-006
4.956961e-004,-1.513384e-005
4.341113e-004,-2.939559e-005
4.081808e-004,-4.592625e-005
4.339493e-004,-6.294311e-005
5.316747e-004,-7.833932e-005
6.945504e-004,-9.227693e-005
8.746051e-004,-1.037836e-004
1.014468e-003,-1.115627e-004
1.079456e-003,-1.180453e-004
1.071515e-003,-1.214487e-004
1.020464e-003,-1.209625e-004
9.517483e-004,-1.172350e-004
8.689329e-004,-1.122110e-004
7.648868e-004,-1.049180e-004
6.436619e-004,-9.422172e-005
5.175750e-004,-8.060823e-005
3.848434e-004,-6.504996e-005
2.096508e-004,-4.511593e-005
-6.893953e-005,-2.031993e-005
-4.695649e-004,8.041497e-006
-8.945001e-004,3.559260e-005
-1.147484e-003,5.893001e-005
-1.032904e-003,7.740546e-005
-4.919299e-004,9.247754e-005
3.412479e-004,1.049566e-004
1.205219e-003,1.107909e-004
1.871633e-003,1.078737e-004
2.228178e-003,9.069481e-005
2.270964e-003,5.682316e-005
2.054281e-003,5.286387e-006
1.653817e-003,-5.451572e-005
1.151413e-003,-1.076731e-004
6.324793e-004,-1.434896e-004
1.738343e-004,-1.595340e-004
-2.070192e-004,-1.609926e-004
-5.416840e-004,-1.496481e-004
-8.779695e-004,-1.279313e-004
-1.214903e-003,-9.973194e-005
-1.455246e-003,-7.282909e-005
-1.454436e-003,-5.305713e-005
-1.130467e-003,-4.560212e-005
-5.337428e-004,-4.835724e-005
2.038164e-004,-5.565017e-005
9.506139e-004,-6.342931e-005
1.619459e-003,-6.991193e-005
2.145524e-003,-7.380149e-005
2.446157e-003,-7.120844e-005
2.419578e-003,-6.148453e-005
1.966604e-003,-5.127441e-005
1.020464e-003,-4.576419e-005
-3.966356e-004,-4.446767e-005
-2.085842e-003,-3.668853e-005
-3.768409e-003,-9.947754e-006
-4.968350e-003,3.705119e-005
-4.968512e-003,8.891209e-005
-4.968188e-003,1.333180e-004
-4.968512e-003,1.701068e-004
-4.457029e-003,2.017096e-004
-3.296959e-003,2.300710e-004
-2.209823e-003,2.527602e-004
-1.318301e-003,2.684805e-004
-6.520505e-004,2.760976e-004
-1.653684e-004,2.777182e-004
2.299089e-004,2.765838e-004
6.182176e-004,2.739907e-004
1.039588e-003,2.736666e-004
1.469062e-003,2.819319e-004
1.819286e-003,2.986247e-004
1.979731e-003,3.219621e-004
1.918308e-003,3.516200e-004
1.725936e-003,3.850055e-004
1.545557e-003,4.167703e-004
1.468576e-003,4.410801e-004
1.499368e-003,4.519385e-004
1.586073e-003,4.446456e-004
1.661110e-003,4.132049e-004
1.669051e-003,3.545372e-004
1.603090e-003,2.736666e-004
1.502609e-003,1.827479e-004
1.415094e-003,9.507057e-005
1.360802e-003,2.019640e-005
1.321744e-003,-3.717473e-005
1.243142e-003,-7.639453e-005
1.079294e-003,-1.029732e-004
8.509436e-004,-1.240417e-004
6.426895e-004,-1.452723e-004
5.258403e-004,-1.728234e-004
5.397780e-004,-2.062088e-004
7.344186e-004,-2.412149e-004
1.143148e-003,-2.721694e-004
1.730474e-003,-2.980999e-004
2.369338e-003,-3.168994e-004
2.903832e-003,-3.311612e-004
3.203493e-003,-3.381300e-004
3.185504e-003,-3.356990e-004
2.844192e-003,-3.251648e-004
2.226882e-003,-3.109030e-004
1.383977e-003,-2.995585e-004
3.389789e-004,-2.890242e-004
-8.894761e-004,-2.746004e-004
-2.229757e-003,-2.554767e-004
-3.552051e-003,-2.324634e-004
-4.669661e-003,-2.063709e-004
-4.968512e-003,-1.801163e-004
-4.968512e-003,-1.574272e-004
-4.968350e-003,-1.368449e-004
-4.256715e-003,-1.177212e-004
-2.982065e-003,-9.940781e-005
-1.669659e-003,-8.514606e-005
-6.262821e-004,-7.444975e-005
-1.049180e-004,-6.407757e-005
-2.233878e-004,-4.949169e-005
-8.505805e-004,-2.437157e-005
-1.602077e-003,1.241726e-005
-2.050836e-003,5.714729e-005
-1.954083e-003,1.030118e-004
-1.329483e-003,1.504969e-004
-3.835083e-004,1.968476e-004
5.958526e-004,2.352571e-004
1.356750e-003,2.558394e-004
1.791086e-003,2.556773e-004
1.914094e-003,2.370398e-004
1.829658e-003,2.023578e-004
1.656248e-003,1.550348e-004
1.476355e-003,1.060910e-004
1.320285e-003,6.816773e-005
1.175399e-003,5.017848e-005
1.018519e-003,4.888196e-005
8.426782e-004,5.601284e-005
6.608408e-004,6.735741e-005
4.953720e-004,7.983644e-005
3.576164e-004,8.923623e-005
2.543808e-004,9.231547e-005
2.190506e-004,9.004655e-005
3.279585e-004,8.615699e-005
6.337758e-004,8.016057e-005
1.101173e-003,7.432621e-005
1.647172e-003,7.043665e-005
2.193982e-003,6.800567e-005
2.683422e-003,6.800567e-005
3.092315e-003,6.832980e-005
3.412721e-003,6.395404e-005
3.619680e-003,5.504044e-005
3.642856e-003,4.774750e-005
3.389545e-003,4.596478e-005
2.785686e-003,4.985435e-005
1.780876e-003,5.990240e-005
3.574544e-004,7.951231e-005
-1.340666e-003,1.117633e-004
-2.978500e-003,1.490383e-004
-4.275191e-003,1.827479e-004
-4.968350e-003,2.078681e-004
-4.968350e-003,2.256952e-004
-4.968512e-003,2.375260e-004
-4.968512e-003,2.417397e-004
-4.968350e-003,2.334744e-004
-4.753935e-003,2.077060e-004
-4.190430e-003,1.671896e-004
-3.414133e-003,1.210010e-004
-2.514182e-003,8.178122e-005
-1.602239e-003,5.747142e-005
-7.838095e-004,4.677511e-005
-1.300382e-004,4.175109e-005
3.308757e-004,3.462021e-005
6.195141e-004,2.100672e-005
7.908173e-004,-2.654814e-006
8.930806e-004,-3.652646e-005
9.491552e-004,-7.720486e-005
9.643894e-004,-1.256624e-004
9.446174e-004,-1.763888e-004
9.055596e-004,-2.217671e-004
8.572642e-004,-2.527216e-004
8.049170e-004,-2.663351e-004
7.554871e-004,-2.652006e-004
7.159431e-004,-2.562870e-004
6.968193e-004,-2.478596e-004
7.049226e-004,-2.441321e-004
7.384702e-004,-2.454286e-004
7.906552e-004,-2.475355e-004
8.668260e-004,-2.439701e-004
9.814063e-004,-2.323013e-004
1.131641e-003,-2.193361e-004
1.298893e-003,-2.096122e-004
1.483161e-003,-2.032917e-004
1.706326e-003,-1.948643e-004
1.973410e-003,-1.794681e-004
2.246654e-003,-1.575893e-004
2.457502e-003,-1.349001e-004
2.542262e-003,-1.164247e-004
2.466577e-003,-1.034594e-004
2.232716e-003,-9.697683e-005
1.866771e-003,-1.023250e-004
1.408935e-003,-1.149661e-004
8.937289e-004,-1.261486e-004
3.341170e-004,-1.266348e-004
-2.767073e-004,-1.115627e-004
-9.371233e-004,-8.530812e-005
-1.622822e-003,-5.451572e-005
-2.279187e-003,-2.566809e-005
-2.828103e-003,7.485573e-007
-3.172169e-003,2.684107e-005
-3.198423e-003,5.455425e-005
-2.837989e-003,8.323981e-005
-2.147103e-003,1.163011e-004
-1.311170e-003,1.537382e-004
-5.437909e-004,1.924718e-004
8.689758e-006,2.265056e-004
3.138588e-004,2.548670e-004
4.383250e-004,2.795009e-004
4.900239e-004,3.065659e-004
5.478812e-004,3.388169e-004
6.467411e-004,3.704196e-004
7.729901e-004,3.905157e-004
8.903255e-004,3.888950e-004
9.622826e-004,3.606957e-004
9.629308e-004,3.098072e-004
8.904876e-004,2.472499e-004
7.665075e-004,1.874478e-004
6.277795e-004,1.425557e-004
5.093097e-004,1.179218e-004
4.349216e-004,1.145184e-004
4.062361e-004,1.300767e-004
4.021844e-004,1.576278e-004
3.979707e-004,1.923098e-004
3.780367e-004,2.312055e-004
3.378445e-004,2.713977e-004
2.851732e-004,3.091589e-004
2.282883e-004,3.401134e-004
1.752929e-004,3.595612e-004
1.239182e-004,3.679886e-004
6.832980e-005,3.705817e-004
7.717366e-006,3.676645e-004
-5.127441e-005,3.540510e-004
-1.003802e-004,3.243930e-004
-1.370070e-004,2.712356e-004
-1.647201e-004,1.934442e-004
-1.828714e-004,9.215340e-005
-1.882196e-004,-2.080613e-005
-1.823853e-004,-1.243659e-004
-1.643960e-004,-1.958367e-004
-1.211246e-004,-2.280877e-004
-3.506788e-005,-2.324634e-004
1.002567e-004,-2.277635e-004
2.678322e-004,-2.284118e-004
4.247115e-004,-2.381357e-004
5.203301e-004,-2.533699e-004
5.272989e-004,-2.697385e-004
4.512903e-004,-2.865932e-004
3.239069e-004,-3.052308e-004
1.974959e-004,-3.293785e-004
1.534141e-004,-3.538503e-004
2.652392e-004,-3.695707e-004
5.315126e-004,-3.650328e-004
8.669881e-004,-3.415334e-004
1.175885e-003,-3.107410e-004
1.406342e-003,-2.859450e-004
1.527568e-003,-2.713591e-004
1.500665e-003,-2.613110e-004
1.307158e-003,-2.514251e-004
9.695755e-004,-2.397564e-004
5.169268e-004,-2.272773e-004
-5.030202e-005,-2.183637e-004
-7.361624e-004,-2.146363e-004
-1.505000e-003,-2.079916e-004
-2.271570e-003,-1.900023e-004
-2.935228e-003,-1.585616e-004
-3.469235e-003,-1.219349e-004
-3.936634e-003,-8.644259e-005
-4.417485e-003,-5.127441e-005
-4.881320e-003,-1.173047e-005
-4.968512e-003,3.024445e-005
-4.908385e-003,7.238143e-005
-4.087518e-003,1.164632e-004
-2.760522e-003,1.634622e-004
-1.196266e-003,2.117576e-004
2.709115e-004,2.597290e-004
1.338599e-003,3.080245e-004
1.920415e-003,3.482167e-004
2.090422e-003,3.720403e-004
1.999665e-003,3.807918e-004
1.803727e-003,3.786850e-004
1.609735e-003,3.673404e-004
1.471331e-003,3.467581e-004
1.397591e-003,3.146691e-004
1.364691e-003,2.726942e-004
1.332602e-003,2.214815e-004
1.265183e-003,1.689724e-004
1.150116e-003,1.226217e-004
9.963163e-004,8.599492e-005
8.230684e-004,6.152305e-005
6.584098e-004,4.855783e-005
5.402642e-004,4.434413e-005
5.162785e-004,4.515445e-005
6.238899e-004,4.920609e-005
8.499712e-004,5.876794e-005
1.123376e-003,7.254349e-005
1.353185e-003,9.231547e-005
1.490779e-003,1.177597e-004
1.550905e-003,1.477418e-004
1.557874e-003,1.791825e-004
1.531457e-003,2.156472e-004
1.502933e-003,2.584324e-004
1.517681e-003,2.997591e-004
1.595959e-003,3.303894e-004
1.693361e-003,3.412479e-004
1.704057e-003,3.263378e-004
1.493858e-003,2.877662e-004
9.415382e-004,2.378501e-004
2.846173e-005,1.892305e-004
-1.106968e-003,1.487142e-004
-2.228622e-003,1.169494e-004
-3.106208e-003,8.939829e-005
-3.599050e-003,6.087479e-005
-3.722058e-003,3.073064e-005
-3.629194e-003,1.234753e-006
-3.485442e-003,-2.388537e-005
-3.330345e-003,-4.381940e-005
-3.060181e-003,-6.002594e-005
-2.551133e-003,-7.396356e-005
-1.795421e-003,-8.709085e-005
-9.199444e-004,-9.956988e-005
-1.441378e-004,-1.125351e-004
3.277964e-004,-1.203142e-004
4.699278e-004,-1.198280e-004
4.354078e-004,-1.123730e-004
4.182289e-004,-1.057284e-004
5.203301e-004,-1.083214e-004
7.258290e-004,-1.256624e-004
9.558000e-004,-1.556445e-004
1.130020e-003,-1.903264e-004
1.213484e-003,-2.230636e-004
1.215915e-003,-2.457528e-004
1.172806e-003,-2.582318e-004
1.118028e-003,-2.611490e-004
1.067301e-003,-2.592042e-004
1.036833e-003,-2.564491e-004
1.040398e-003,-2.566112e-004
1.071515e-003,-2.587180e-004
1.084318e-003,-2.580697e-004
1.003285e-003,-2.562870e-004
7.781762e-004,-2.535319e-004
4.185530e-004,-2.515871e-004
1.565857e-005,-2.543422e-004
-2.929138e-004,-2.617972e-004
-4.073319e-004,-2.671454e-004
-3.134961e-004,-2.630937e-004
-6.407757e-005,-2.454286e-004
2.632944e-004,-2.191741e-004
5.981215e-004,-1.891920e-004
8.943772e-004,-1.585616e-004
1.120945e-003,-1.259865e-004
1.264697e-003,-9.260107e-005
1.322554e-003,-6.067420e-005
1.293545e-003,-3.522994e-005
1.182692e-003,-1.675450e-005
1.012685e-003,1.558884e-006
8.188546e-004,2.505836e-005
6.279415e-004,4.985435e-005
4.530729e-004,7.011252e-005
2.898731e-004,8.405014e-005
1.184080e-004,8.956036e-005
-8.482193e-005,8.923623e-005
-3.369955e-004,8.956036e-005
-6.223925e-004,9.636710e-005
-8.847762e-004,1.098185e-004
-1.047652e-003,1.268354e-004
-1.036793e-003,1.445005e-004
-8.154123e-004,1.611932e-004
-4.134903e-004,1.759412e-004
7.027458e-005,1.884202e-004
5.151440e-004,1.989545e-004
8.441369e-004,2.064095e-004
1.041695e-003,2.122438e-004
1.148334e-003,2.185644e-004
1.211377e-003,2.279642e-004
1.228556e-003,2.367157e-004
1.147523e-003,2.396328e-004
9.122044e-004,2.349330e-004
4.649037e-004,2.219677e-004
-2.519113e-004,2.039785e-004
-1.188973e-003,1.840444e-004
-2.122145e-003,1.673517e-004
-2.728757e-003,1.569795e-004
-2.767328e-003,1.535762e-004
-2.211605e-003,1.542244e-004
-1.243589e-003,1.551968e-004
-1.412206e-004,1.513072e-004
7.827141e-004,1.415833e-004
1.267614e-003,1.284560e-004
1.222074e-003,1.111150e-004
7.760693e-004,9.053275e-005
2.521119e-004,6.865393e-005
-4.592625e-005,4.888196e-005
3.017472e-006,3.932010e-005
3.192070e-004,4.418206e-005
6.973055e-004,5.779555e-005
9.209559e-004,7.254349e-005
8.285785e-004,8.388807e-005
3.393030e-004,9.150514e-005
-5.191569e-004,9.344993e-005
-1.612936e-003,8.875003e-005
-2.727460e-003,7.935024e-005
-3.601643e-003,6.606088e-005
-4.048622e-003,5.212327e-005
-4.032253e-003,4.207521e-005
-3.631139e-003,3.818565e-005
-2.968614e-003,3.316162e-005
-2.155207e-003,2.424803e-005
-1.286050e-003,7.393236e-006
-4.565997e-004,-1.707863e-005
2.378501e-004,-4.511593e-005
7.352289e-004,-6.877746e-005
1.057415e-003,-8.239095e-005
1.255459e-003,-8.465986e-005
1.367933e-003,-7.963584e-005
1.427087e-003,-7.331530e-005
1.449938e-003,-6.991193e-005
1.435190e-003,-6.310517e-005
1.388353e-003,-4.965376e-005
1.306996e-003,-3.134038e-005
1.173940e-003,-1.059602e-005
9.655239e-004,9.013889e-006
6.712130e-004,2.084466e-005
3.132105e-004,2.035846e-005
-3.652646e-005,8.203562e-006
-3.092824e-004,-9.137427e-006
-5.209396e-004,-2.777494e-005
-6.962943e-004,-4.819517e-005
-7.881853e-004,-7.056019e-005
-6.953219e-004,-9.195280e-005
-3.540124e-004,-1.091317e-004
2.193747e-004,-1.167488e-004
9.194973e-004,-1.151281e-004
1.603738e-003,-1.073490e-004
2.156707e-003,-9.616651e-005
2.513576e-003,-8.352541e-005
2.653115e-003,-7.039812e-005
2.573703e-003,-5.678463e-005
2.277608e-003,-4.414354e-005
1.785576e-003,-3.490581e-005
1.140069e-003,-2.890940e-005
3.824125e-004,-2.583016e-005
-4.402311e-004,-2.469570e-005
-1.258013e-003,-2.291298e-005
-1.980986e-003,-1.562004e-005
-2.493113e-003,-4.923729e-006
-2.714171e-003,5.934648e-006
-2.649669e-003,1.598270e-005
-2.395226e-003,2.538249e-005
-2.078225e-003,3.883391e-005
-1.762846e-003,5.909208e-005
-1.434826e-003,8.810177e-005
-1.054297e-003,1.232699e-004
-6.021344e-004,1.582761e-004
-9.875954e-005,1.911753e-004
4.018603e-004,2.190506e-004
8.392748e-004,2.389846e-004
1.172968e-003,2.487085e-004
1.374578e-003,2.482223e-004
1.438593e-003,2.425500e-004
1.388353e-003,2.336365e-004
1.268262e-003,2.177540e-004
1.129048e-003,1.931201e-004
1.018033e-003,1.631380e-004
9.856200e-004,1.300767e-004
1.072811e-003,9.669123e-005
1.255945e-003,6.492643e-005
1.424980e-003,4.045456e-005
1.456745e-003,2.408596e-005
1.295652e-003,1.549650e-005
9.993956e-004,1.403791e-005
7.438183e-004,2.068259e-005
7.425218e-004,3.283749e-005
1.087397e-003,4.499239e-005
1.664513e-003,4.969229e-005
2.237578e-003,4.709924e-005
2.599147e-003,4.094075e-005
2.654250e-003,3.364782e-005
2.443888e-003,2.505836e-005
2.085074e-003,1.679302e-005
1.650575e-003,1.031041e-005
1.132127e-003,4.962256e-006
5.214646e-004,-1.358292e-006
-1.360346e-004,-6.868513e-006
-7.985575e-004,-9.785688e-006
-1.506621e-003,-6.220252e-006
-2.305765e-003,3.827799e-006
-3.120307e-003,1.014835e-005
-3.753013e-003,1.720949e-006
-3.986875e-003,-2.339918e-005
-3.713793e-003,-6.083626e-005
-3.019665e-003,-1.010285e-004
-2.153262e-003,-1.373311e-004
-1.401116e-003,-1.639098e-004
-9.672674e-004,-1.796301e-004
-8.945001e-004,-1.851404e-004
-1.069044e-003,-1.833576e-004
-1.324297e-003,-1.783336e-004
-1.532389e-003,-1.768750e-004
-1.627522e-003,-1.801163e-004
-1.580847e-003,-1.822232e-004
-1.401278e-003,-1.760647e-004
-1.140029e-003,-1.603444e-004
-8.685697e-004,-1.400862e-004
-6.434610e-004,-1.248521e-004
-4.744269e-004,-1.195039e-004
-3.358611e-004,-1.220970e-004
-1.912988e-004,-1.266348e-004
-1.156841e-005,-1.310105e-004
2.153231e-004,-1.329553e-004
4.710622e-004,-1.334415e-004
7.141604e-004,-1.316588e-004
9.021563e-004,-1.267968e-004
1.026461e-003,-1.146419e-004
1.094204e-003,-9.324933e-005
1.105549e-003,-6.375344e-005
1.062925e-003,-3.085418e-005
9.895095e-004,1.883015e-006
9.122044e-004,2.878586e-005
8.428403e-004,4.774750e-005
7.854691e-004,5.974033e-005
7.491665e-004,6.654708e-005
7.302048e-004,7.627100e-005
6.903367e-004,9.361199e-005
5.872631e-004,1.172735e-004
4.360561e-004,1.420695e-004
3.051073e-004,1.633001e-004
2.673460e-004,1.816135e-004
3.444891e-004,1.999268e-004
4.817585e-004,2.175920e-004
5.833735e-004,2.320158e-004
5.887217e-004,2.430362e-004
5.059062e-004,2.538946e-004
3.851676e-004,2.662116e-004
2.796630e-004,2.811216e-004
2.232643e-004,2.966799e-004
2.145127e-004,3.085106e-004
2.226160e-004,3.117519e-004
2.156472e-004,3.064038e-004
1.827479e-004,2.965178e-004
1.433661e-004,2.829043e-004
1.351007e-004,2.624841e-004
1.851789e-004,2.336365e-004
2.908455e-004,2.007372e-004
4.159600e-004,1.673517e-004
5.203301e-004,1.389903e-004
5.772150e-004,1.203528e-004
5.801322e-004,1.078737e-004
5.401021e-004,9.863601e-005
4.770586e-004,8.356394e-005
4.007258e-004,6.055066e-005
3.182346e-004,3.008238e-005
2.420638e-004,-6.176923e-008
1.877720e-004,-2.550602e-005
1.634622e-004,-4.430560e-005
1.680000e-004,-5.986387e-005
1.900409e-004,-7.882551e-005
2.179161e-004,-1.032974e-004
2.543808e-004,-1.306864e-004
3.049452e-004,-1.551583e-004
3.697714e-004,-1.731475e-004
4.373526e-004,-1.818991e-004
4.887274e-004,-1.794681e-004
4.978030e-004,-1.676373e-004
4.221185e-004,-1.524032e-004
2.101370e-004,-1.360346e-004
-1.739578e-004,-1.219349e-004
-6.888393e-004,-1.107524e-004
-1.192538e-003,-1.029732e-004
-1.494304e-003,-9.665270e-005
-1.452815e-003,-8.838737e-005
-1.057538e-003,-7.752899e-005
-4.343968e-004,-6.780507e-005
2.198609e-004,-6.359137e-005
7.221015e-004,-6.634648e-005
1.000206e-003,-7.542214e-005
1.075728e-003,-8.611845e-005
1.002475e-003,-9.292520e-005
8.047550e-004,-9.389759e-005
4.781931e-004,-8.790117e-005
4.142696e-005,-7.639453e-005
-4.298589e-004,-6.650855e-005
-8.413427e-004,-6.326724e-005
-1.148132e-003,-6.440170e-005
-1.391392e-003,-6.537409e-005
-1.658152e-003,-6.278104e-005
-2.033496e-003,-5.516398e-005
-2.529902e-003,-4.171256e-005
-3.046568e-003,-2.291298e-005
-3.435688e-003,7.485573e-007
-3.586085e-003,2.684107e-005
-3.463077e-003,5.212327e-005
-3.101832e-003,7.157111e-005
-2.583546e-003,8.242948e-005
-2.000110e-003,8.323981e-005
-1.422833e-003,7.513654e-005
-8.993621e-004,6.152305e-005
-4.384484e-004,4.531652e-005
-1.545797e-005,2.992031e-005
3.982949e-004,2.684107e-005
8.057273e-004,3.883391e-005
1.181881e-003,6.751948e-005
1.485917e-003,1.012291e-004
1.662244e-003,1.282940e-004
1.677478e-003,1.449867e-004
1.555605e-003,1.501728e-004
1.364205e-003,1.475797e-004
1.198736e-003,1.456350e-004
1.135531e-003,1.492004e-004
1.192902e-003,1.556830e-004
1.320123e-003,1.611932e-004
1.416390e-003,1.660552e-004
1.348485e-003,1.738343e-004
9.789753e-004,1.869616e-004
2.978143e-004,2.039785e-004
-4.697270e-004,2.224539e-004
-9.902808e-004,2.393087e-004
-1.061752e-003,2.506533e-004
-6.962943e-004,2.548670e-004
-8.514606e-005,2.529222e-004
5.224369e-004,2.461155e-004
9.378107e-004,2.350950e-004
1.098904e-003,2.227781e-004
1.060818e-003,2.119197e-004
9.690893e-004,2.020337e-004
9.799477e-004,1.856651e-004
1.164540e-003,1.615174e-004
1.469386e-003,1.329939e-004
1.776500e-003,1.054428e-004
2.014899e-003,7.837785e-005
2.189768e-003,5.098881e-005
2.308563e-003,2.165498e-005
2.340004e-003,-4.761664e-006
2.237740e-003,-2.437157e-005
1.975679e-003,-3.814712e-005
1.572622e-003,-4.965376e-005
1.083670e-003,-5.727083e-005
5.783495e-004,-6.083626e-005
9.199134e-005,-6.375344e-005
-3.958252e-004,-6.731888e-005
-9.400405e-004,-7.201877e-005
-1.556699e-003,-8.012204e-005
-2.170603e-003,-9.227693e-005
-2.648210e-003,-1.047560e-004
-2.868133e-003,-1.138316e-004
-2.739291e-003,-1.233935e-004
-2.189565e-003,-1.386276e-004
-1.220251e-003,-1.579134e-004
6.258778e-006,-1.775233e-004
1.168592e-003,-1.914609e-004
1.971141e-003,-1.964849e-004
2.241954e-003,-1.935677e-004
1.902426e-003,-1.836818e-004
1.018843e-003,-1.692580e-004
-1.396000e-004,-1.501342e-004
-1.164339e-003,-1.271210e-004
-1.784887e-003,-9.908367e-005
-1.994113e-003,-6.569822e-005
-1.983903e-003,-3.166451e-005
-1.993627e-003,2.623614e-007
-2.108856e-003,2.554455e-005
-2.207068e-003,4.223728e-005
-2.102535e-003,4.693717e-005
-1.708716e-003,3.640293e-005
-1.109723e-003,5.772582e-006
-5.018159e-004,-4.365734e-005
-8.012204e-005,-1.079973e-004
6.476436e-005,-1.721751e-004
-1.124428e-005,-2.186879e-004
-1.535376e-004,-2.350565e-004
-2.259808e-004,-2.230636e-004
-1.867610e-004,-1.882196e-004
-6.780507e-005,-1.431655e-004
1.081979e-004,-9.308726e-005
3.341170e-004,-4.317115e-005
6.094660e-004,-1.358292e-006
9.133389e-004,2.716521e-005
1.200843e-003,4.013043e-005
1.431462e-003,4.077869e-005
1.577970e-003,2.992031e-005
1.632262e-003,1.274139e-005
1.608438e-003,-9.299493e-006
1.518330e-003,-3.393342e-005
1.334061e-003,-6.359137e-005
1.012523e-003,-9.875954e-005
5.491778e-004,-1.344139e-004
2.230325e-005,-1.588858e-004
-4.018217e-004,-1.618029e-004
-5.718282e-004,-1.410586e-004
-4.583824e-004,-9.989401e-005
-1.927574e-004,-4.997789e-005
1.711715e-005,-5.896120e-006
2.700314e-005,2.570662e-005
-1.532135e-004,4.499239e-005
-3.679500e-004,5.196120e-005
-4.335865e-004,5.293359e-005
-2.574215e-004,5.325772e-005
1.422316e-004,5.909208e-005
6.710509e-004,7.448828e-005
1.199222e-003,9.896015e-005
1.611841e-003,1.274836e-004
1.846351e-003,1.553589e-004
1.896429e-003,1.772377e-004
1.794976e-003,1.952270e-004
1.591583e-003,2.088404e-004
1.329685e-003,2.167816e-004
1.035860e-003,2.188885e-004
7.112432e-004,2.156472e-004
3.444891e-004,2.090025e-004
-9.065628e-005,1.984683e-004
-6.078067e-004,1.867996e-004
-1.196104e-003,1.820997e-004
-1.814869e-003,1.858272e-004
-2.368647e-003,1.950649e-004
-2.698936e-003,2.091646e-004
-2.634434e-003,2.248849e-004
-2.091353e-003,2.415777e-004
-1.138408e-003,2.579462e-004
3.413401e-005,2.728562e-004
1.159030e-003,2.812837e-004
2.014899e-003,2.830664e-004
2.497370e-003,2.741528e-004
2.593961e-003,2.500050e-004
2.358965e-003,2.036544e-004
1.889298e-003,1.362352e-004
1.277338e-003,5.682316e-005
5.731634e-004,-1.610624e-005
-2.006986e-004,-6.748094e-005
-9.752086e-004,-9.616651e-005
-1.614881e-003,-1.101041e-004
-1.983093e-003,-1.169109e-004
-2.024258e-003,-1.182074e-004
-1.770949e-003,-1.144799e-004
-1.270978e-003,-1.045939e-004
-5.940311e-004,-8.919769e-005
1.222976e-004,-7.137051e-005
6.780197e-004,-5.532604e-005
9.293833e-004,-4.284701e-005
8.418679e-004,-3.652646e-005
4.809482e-004,-3.490581e-005
-1.691656e-005,-3.749886e-005
-5.136467e-004,-4.365734e-005
-9.296683e-004,-5.678463e-005
-1.247965e-003,-7.833932e-005
-1.501597e-003,-1.052422e-004
-1.751177e-003,-1.321450e-004
-2.031064e-003,-1.535376e-004
-2.298310e-003,-1.658546e-004
-2.436066e-003,-1.681235e-004
-2.335262e-003,-1.622891e-004
-1.970290e-003,-1.532135e-004
-1.425588e-003,-1.410586e-004
-8.447461e-004,-1.238797e-004
-3.488263e-004,-1.054042e-004
8.203562e-006,-8.692878e-005
2.326641e-004,-7.201877e-005
3.534027e-004,-6.067420e-005
4.041292e-004,-5.257093e-005
4.289252e-004,-4.689865e-005
4.700898e-004,-3.895745e-005
5.456123e-004,-2.307504e-005
6.478756e-004,5.934648e-006
7.590525e-004,4.904402e-005
8.616399e-004,1.010670e-004
9.451036e-004,1.532520e-004
1.010902e-003,1.957132e-004
1.061629e-003,2.235884e-004
1.101011e-003,2.394708e-004
1.122241e-003,2.483844e-004
1.109600e-003,2.498430e-004
1.044612e-003,2.428742e-004
9.144733e-004,2.248849e-004
7.439804e-004,1.978200e-004
6.200004e-004,1.670276e-004
6.394482e-004,1.454729e-004
8.392748e-004,1.441764e-004
1.166647e-003,1.689724e-004
1.502285e-003,2.184023e-004
1.720264e-003,2.801492e-004
1.731122e-003,3.380065e-004
1.518168e-003,3.749574e-004
1.154330e-003,3.769022e-004
7.707212e-004,3.399513e-004
4.785172e-004,2.777182e-004
2.775562e-004,2.081922e-004
6.930219e-005,1.457970e-004
-2.332737e-004,9.912221e-005
-6.183409e-004,7.124698e-005
-9.977358e-004,6.103686e-005
-1.267250e-003,6.038860e-005
-1.372593e-003,6.200925e-005
-1.320570e-003,5.698522e-005
-1.153480e-003,4.612685e-005
-9.372854e-004,3.364782e-005
-7.330831e-004,2.116879e-005
-5.718282e-004,1.063454e-005
-4.399070e-004,1.558884e-006
-2.788141e-004,-7.678839e-006
-1.853722e-005,-1.837515e-005
3.712299e-004,-3.328516e-005
8.491609e-004,-5.435365e-005
1.321096e-003,-7.623246e-005
1.681206e-003,-9.195280e-005
1.855913e-003,-9.875954e-005
1.831279e-003,-1.010285e-004
1.637934e-003,-1.050801e-004
1.333089e-003,-1.151281e-004
9.799477e-004,-1.381414e-004
6.512789e-004,-1.729855e-004
4.096394e-004,-2.125294e-004
2.590807e-004,-2.493182e-004
1.227837e-004,-2.796244e-004
-1.246900e-004,-3.023136e-004
-5.997034e-004,-3.117133e-004
-1.336776e-003,-3.062031e-004
-2.237536e-003,-2.891863e-004
-3.117714e-003,-2.707109e-004
-3.770030e-003,-2.543422e-004
-4.012805e-003,-2.426735e-004
-3.758037e-003,-2.360289e-004
-3.058885e-003,-2.348944e-004
-2.109180e-003,-2.366771e-004
-1.193024e-003,-2.339220e-004
-5.768522e-004,-2.229016e-004
-3.835083e-004,-2.026434e-004
-5.050572e-004,-1.796301e-004
-6.620985e-004,-1.579134e-004
-6.061860e-004,-1.415448e-004
-2.710350e-004,-1.297140e-004
2.303951e-004,-1.195039e-004
7.204809e-004,-1.042698e-004
1.070704e-003,-8.109443e-005
1.244763e-003,-5.435365e-005
1.271828e-003,-2.728874e-005
1.207164e-003,-2.654814e-006
1.096635e-003,1.922400e-005
9.587171e-004,4.094075e-005
7.844968e-004,6.444023e-005
5.514466e-004,8.712937e-005
2.629703e-004,1.041462e-004
-3.587821e-005,1.137081e-004
-2.707109e-004,1.161391e-004
-3.830221e-004,1.130598e-004
-3.577399e-004,1.036600e-004
-2.264670e-004,9.101894e-005
-3.458168e-005,7.675720e-005
1.657311e-004,6.654708e-005
3.239069e-004,6.233338e-005
4.107739e-004,6.265751e-005
4.320045e-004,6.492643e-005
4.136911e-004,7.011252e-005
3.877606e-004,7.886404e-005
3.812780e-004,9.231547e-005
4.068843e-004,1.098185e-004
4.537212e-004,1.308870e-004
4.982892e-004,1.563313e-004
5.182233e-004,1.820997e-004
5.081752e-004,2.034923e-004
4.846757e-004,2.213195e-004
4.679830e-004,2.342847e-004
4.702519e-004,2.399570e-004
4.845136e-004,2.344468e-004
4.976409e-004,2.184023e-004
4.995857e-004,1.976579e-004
4.869446e-004,1.811273e-004
4.631210e-004,1.725378e-004
4.311941e-004,1.725378e-004
3.910019e-004,1.767515e-004
3.501615e-004,1.824238e-004
3.138588e-004,1.885823e-004
2.863077e-004,1.950649e-004
2.628082e-004,2.010613e-004
2.357433e-004,2.023578e-004
2.010613e-004,1.945787e-004
1.600588e-004,1.811273e-004
1.226217e-004,1.658931e-004
9.798775e-005,1.514693e-004
8.486046e-005,1.362352e-004
7.319176e-005,1.208390e-004
5.601284e-005,1.075496e-004
3.559260e-005,1.007429e-004
2.181705e-005,1.020394e-004
1.971020e-005,1.085220e-004
3.591673e-005,1.137081e-004
1.044704e-004,1.093323e-004
2.760976e-004,8.842590e-005
5.504743e-004,4.985435e-005
8.567779e-004,-3.858999e-007
1.105873e-003,-4.738484e-005
1.243790e-003,-8.498399e-005
1.262428e-003,-1.105903e-004
1.201491e-003,-1.240417e-004
1.116245e-003,-1.274451e-004
1.024516e-003,-1.175591e-004
8.922703e-004,-9.454585e-005
6.532237e-004,-6.667062e-005
2.427121e-004,-4.349527e-005
-3.567675e-004,-3.150244e-005
-1.089465e-003,-3.425755e-005
-1.764629e-003,-5.224680e-005
-2.092487e-003,-9.227693e-005
-1.866244e-003,-1.533756e-004
-1.108264e-003,-2.230636e-004
-1.383732e-005,-2.831898e-004
1.148010e-003,-3.191683e-004
2.140176e-003,-3.254889e-004
2.809834e-003,-3.066893e-004
3.068167e-003,-2.713591e-004
2.914690e-003,-2.280877e-004
2.415688e-003,-1.831956e-004
1.626103e-003,-1.423551e-004
4.733311e-004,-1.105903e-004
-1.148619e-003,-8.530812e-005
-3.091136e-003,-5.516398e-005
-4.968188e-003,-1.578211e-005
-4.968512e-003,2.943412e-005
-4.968512e-003,7.205730e-005
-4.968025e-003,1.060910e-004
-4.968512e-003,1.328318e-004
-4.968512e-003,1.539003e-004
-3.916538e-003,1.670276e-004
-2.432339e-003,1.725378e-004
-1.238079e-003,1.723757e-004
-4.977643e-004,1.671896e-004
-2.360289e-004,1.592484e-004
-3.415334e-004,1.529279e-004
-6.058619e-004,1.529279e-004
-8.077952e-004,1.574657e-004
-7.946679e-004,1.613553e-004
-5.227224e-004,1.616794e-004
-5.824322e-005,1.584381e-004
4.717105e-004,1.539003e-004
9.478587e-004,1.480659e-004
1.302458e-003,1.393144e-004
1.518492e-003,1.279698e-004
1.622538e-003,1.159770e-004
1.659327e-003,1.067393e-004
1.667916e-003,9.863601e-005
1.671320e-003,9.150514e-005
1.688175e-003,8.729144e-005
1.731284e-003,8.534666e-005
1.793679e-003,8.210535e-005
1.852023e-003,7.853991e-005
1.885571e-003,7.691926e-005
1.886219e-003,8.032264e-005
1.854292e-003,9.101894e-005
1.789952e-003,1.069013e-004
1.700329e-003,1.216493e-004
1.600497e-003,1.279698e-004
1.503744e-003,1.229458e-004
1.409584e-003,1.107909e-004
1.309913e-003,9.863601e-005
1.198088e-003,8.875003e-005
1.067139e-003,8.259155e-005
9.149595e-004,7.853991e-005
7.374978e-004,7.254349e-005
5.370228e-004,6.184718e-005
3.239069e-004,4.774750e-005
1.158149e-004,3.121684e-005
-6.213279e-005,1.112074e-005
-1.775233e-004,-1.416145e-005
-1.930815e-004,-4.219875e-005
-9.308726e-005,-7.623246e-005
9.782569e-005,-1.122110e-004
3.250413e-004,-1.408965e-004
5.284334e-004,-1.558065e-004
6.605167e-004,-1.606685e-004
7.000606e-004,-1.606685e-004
6.512789e-004,-1.605064e-004
5.323229e-004,-1.635857e-004
3.783608e-004,-1.676373e-004
2.341226e-004,-1.703924e-004
1.432040e-004,-1.734716e-004
1.172735e-004,-1.762268e-004
1.300767e-004,-1.754164e-004
1.432040e-004,-1.710407e-004
1.321835e-004,-1.645581e-004
9.831188e-005,-1.590478e-004
5.212327e-005,-1.595340e-004
5.448452e-006,-1.687718e-004
-2.631635e-005,-1.815749e-004
-3.085418e-005,-1.885437e-004
-6.220252e-006,-1.875713e-004
3.915804e-005,-1.796301e-004
8.810177e-005,-1.681235e-004
1.258630e-004,-1.540238e-004
1.428799e-004,-1.421931e-004
1.663793e-004,-1.358725e-004
2.344468e-004,-1.363587e-004
3.556717e-004,-1.394379e-004
5.083373e-004,-1.384655e-004
6.953608e-004,-1.297140e-004
9.447795e-004,-1.130213e-004
1.249787e-003,-9.081835e-005
1.555929e-003,-6.326724e-005
1.792707e-003,-2.988179e-005
1.892378e-003,3.665733e-006
1.806483e-003,3.154097e-005
1.499044e-003,4.612685e-005
9.311661e-004,4.726130e-005
7.659513e-005,4.385793e-005
-9.969254e-004,4.661304e-005
-2.077577e-003,6.233338e-005
-2.929556e-003,8.388807e-005
-3.386095e-003,1.036600e-004
-3.409271e-003,1.171115e-004
-3.087570e-003,1.273216e-004
-2.591487e-003,1.414213e-004
-2.085032e-003,1.649207e-004
-1.657017e-003,1.944166e-004
-1.305174e-003,2.222919e-004
-9.805568e-004,2.399570e-004
-6.496195e-004,2.462775e-004
-3.230579e-004,2.438466e-004
-3.895745e-005,2.380122e-004
1.641104e-004,2.352571e-004
2.710735e-004,2.393087e-004
2.908455e-004,2.488706e-004
2.500050e-004,2.592428e-004
1.801549e-004,2.662116e-004
1.091703e-004,2.670219e-004
5.066468e-005,2.639427e-004
8.041497e-006,2.597290e-004
-2.420950e-005,2.529222e-004
-5.872941e-005,2.414156e-004
-1.039456e-004,2.255332e-004
-1.580754e-004,2.083542e-004
-2.094502e-004,1.976579e-004
-2.433218e-004,1.927960e-004
-2.431597e-004,1.911753e-004
-1.972953e-004,1.900409e-004
-1.131834e-004,1.866375e-004
-1.432352e-005,1.795066e-004
7.335383e-005,1.689724e-004
1.354248e-004,1.611932e-004
1.714034e-004,1.610312e-004
1.856651e-004,1.654069e-004
1.817755e-004,1.735102e-004
1.644345e-004,1.842065e-004
1.432040e-004,1.961994e-004
1.291043e-004,2.096508e-004
1.273216e-004,2.279642e-004
1.399627e-004,2.493568e-004
1.683241e-004,2.657254e-004
2.020337e-004,2.660495e-004
2.234263e-004,2.446569e-004
2.117576e-004,1.996027e-004
1.556830e-004,1.333180e-004
7.043665e-005,5.131294e-005
-1.270286e-005,-3.733679e-005
-7.995997e-005,-1.250141e-004
-1.449482e-004,-2.039399e-004
-2.237119e-004,-2.640662e-004
-3.071755e-004,-3.053928e-004
-3.758912e-004,-3.326198e-004
-4.121938e-004,-3.481781e-004
-4.164075e-004,-3.532020e-004
-4.164075e-004,-3.468815e-004
-4.462276e-004,-3.282440e-004
-5.048952e-004,-3.024756e-004
-5.358497e-004,-2.802727e-004
-4.612996e-004,-2.650386e-004
-2.418632e-004,-2.551526e-004
7.302970e-005,-2.507768e-004
3.837090e-004,-2.527216e-004
6.187038e-004,-2.585559e-004
7.558112e-004,-2.648765e-004
8.151271e-004,-2.652006e-004
8.485126e-004,-2.533699e-004
8.992391e-004,-2.246843e-004
9.679549e-004,-1.806025e-004
1.002961e-003,-1.329553e-004
9.146354e-004,-9.033215e-005
6.005525e-004,-5.889148e-005
-3.789272e-006,-4.122636e-005
-8.387497e-004,-3.522994e-005
-1.696561e-003,-3.587821e-005
-2.326834e-003,-3.701266e-005
-2.577225e-003,-3.636440e-005
-2.454379e-003,-3.490581e-005
-2.081953e-003,-3.166451e-005
-1.614394e-003,-2.323711e-005
-1.168553e-003,-1.059602e-005
-8.073090e-004,1.396819e-006
-5.403875e-004,1.014835e-005
-3.413713e-004,1.533444e-005
-1.618029e-004,1.808955e-005
3.526847e-005,1.938607e-005
2.623220e-004,2.230325e-005
5.091476e-004,2.505836e-005
7.574318e-004,2.813760e-005
9.828649e-004,3.105477e-005
1.158544e-003,3.850978e-005
1.267452e-003,5.131294e-005
1.309427e-003,6.816773e-005
1.300027e-003,8.486046e-005
1.246546e-003,9.863601e-005
1.138286e-003,1.096565e-004
9.651998e-004,1.222976e-004
7.511112e-004,1.398006e-004
5.543638e-004,1.602208e-004
4.368664e-004,1.822617e-004
4.232529e-004,2.028440e-004
4.778690e-004,2.172679e-004
5.251921e-004,2.235884e-004
4.875929e-004,2.196988e-004
3.195311e-004,2.081922e-004
3.186510e-005,1.936063e-004
-3.062031e-004,1.780480e-004
-6.069963e-004,1.649207e-004
-7.902921e-004,1.542244e-004
-8.026091e-004,1.456350e-004
-6.287131e-004,1.376938e-004
-3.073376e-004,1.295905e-004
8.712937e-005,1.219734e-004
4.451317e-004,1.135460e-004
6.433378e-004,1.065772e-004
6.219451e-004,1.044704e-004
4.593935e-004,1.132219e-004
3.060797e-004,1.351007e-004
2.712356e-004,1.655690e-004
3.662059e-004,1.950649e-004
5.240576e-004,2.159713e-004
6.713751e-004,2.255332e-004
7.773659e-004,2.295848e-004
8.512677e-004,2.279642e-004
9.240351e-004,2.158093e-004
1.007499e-003,1.889064e-004
1.082697e-003,1.467694e-004
1.121917e-003,9.426025e-005
1.113652e-003,3.996837e-005
1.088208e-003,-1.221667e-005
1.112031e-003,-6.180866e-005
1.221588e-003,-1.083214e-004
1.384301e-003,-1.515928e-004
1.528216e-003,-1.908126e-004
1.620593e-003,-2.248464e-004
1.670185e-003,-2.533699e-004
1.667430e-003,-2.724935e-004
1.540533e-003,-2.784900e-004
1.162596e-003,-2.724935e-004
4.580970e-004,-2.598524e-004
-4.823681e-004,-2.452666e-004
-1.432557e-003,-2.319772e-004
-2.203502e-003,-2.186879e-004
-2.713684e-003,-2.023193e-004
-2.957918e-003,-1.812508e-004
-2.927611e-003,-1.572651e-004
-2.616769e-003,-1.345760e-004
-2.076929e-003,-1.173971e-004
-1.422185e-003,-1.084835e-004
-7.878611e-004,-1.084835e-004
-3.068514e-004,-1.114006e-004
-8.368748e-005,-1.105903e-004
-1.256624e-004,-1.042698e-004
-2.797865e-004,-9.081835e-005
-3.266234e-004,-6.731888e-005
-1.438137e-004,-3.312309e-005
2.482223e-004,1.095867e-005
7.410632e-004,5.666109e-005
1.201653e-003,9.312580e-005
1.497261e-003,1.120874e-004
1.508768e-003,1.117633e-004
1.159354e-003,9.798775e-005
5.052580e-004,8.307774e-005
-2.796244e-004,8.113296e-005
-1.023180e-003,1.041462e-004
-1.710013e-003,1.526038e-004
-2.457783e-003,2.149989e-004
-3.339258e-003,2.749631e-004
-4.209230e-003,3.124002e-004
-4.774842e-003,3.190449e-004
-4.781162e-003,2.974902e-004
-4.155099e-003,2.547049e-004
-3.027606e-003,2.036544e-004
-1.660421e-003,1.598967e-004
-3.420196e-004,1.302388e-004
6.778577e-004,1.145184e-004
1.252542e-003,1.099806e-004
1.391432e-003,1.107909e-004
1.182206e-003,1.101427e-004
7.553250e-004,1.064152e-004
2.801492e-004,9.896015e-005
-7.331530e-005,9.004655e-005
-2.008607e-004,7.740546e-005
-9.065628e-005,6.233338e-005
1.978200e-004,5.309566e-005
5.671670e-004,5.147500e-005
9.261420e-004,5.439218e-005
1.213322e-003,5.811968e-005
1.401804e-003,6.022653e-005
1.494182e-003,6.136099e-005
1.505689e-003,6.233338e-005
1.460958e-003,5.957827e-005
1.393053e-003,4.790957e-005
1.333413e-003,2.424803e-005
1.297272e-003,-7.354709e-006
1.286414e-003,-3.911951e-005
1.292734e-003,-6.553616e-005
1.312344e-003,-8.449780e-005
1.344595e-003,-9.859748e-005
1.387381e-003,-1.152902e-004
1.438431e-003,-1.363587e-004
1.493047e-003,-1.653684e-004
1.545395e-003,-2.008607e-004
1.584128e-003,-2.370013e-004
1.591259e-003,-2.632558e-004
1.551229e-003,-2.773555e-004
1.452207e-003,-2.827037e-004
1.291276e-003,-2.862691e-004
1.073622e-003,-2.911311e-004
8.058894e-004,-2.925897e-004
4.785172e-004,-2.844864e-004
7.027458e-005,-2.652006e-004
-4.047388e-004,-2.357047e-004
-8.551183e-004,-2.018331e-004
-1.171632e-003,-1.684476e-004
-1.288967e-003,-1.373311e-004
-1.217982e-003,-1.092938e-004
-1.026259e-003,-8.255302e-005
-7.979092e-004,-5.953974e-005
-5.928966e-004,-4.722278e-005
-4.326141e-004,-4.835724e-005
-3.128478e-004,-5.305713e-005
-2.177155e-004,-5.500191e-005
-1.402483e-004,-5.062615e-005
-8.271508e-005,-4.495386e-005
-4.219875e-005,-4.365734e-005
-6.176923e-008,-4.252288e-005
7.335383e-005,-3.717473e-005
1.929580e-004,-2.388537e-005
3.375204e-004,-3.465141e-006
4.603659e-004,1.727922e-005
5.225990e-004,3.445814e-005
5.216266e-004,4.969229e-005
4.777069e-004,6.395404e-005
4.224426e-004,7.497447e-005
3.867882e-004,8.340187e-005
3.841952e-004,9.442231e-005
3.944053e-004,1.112771e-004
3.786850e-004,1.312112e-004
3.080245e-004,1.469315e-004
1.876099e-004,1.550348e-004
3.494434e-005,1.569795e-004
-1.535376e-004,1.589243e-004
-3.946908e-004,1.658931e-004
-6.902979e-004,1.793446e-004
-1.011835e-003,2.004130e-004
-1.294801e-003,2.269918e-004
-1.449412e-003,2.564877e-004
-1.405168e-003,2.837146e-004
-1.151860e-003,3.020280e-004
-7.492896e-004,3.070520e-004
-3.002067e-004,3.021901e-004
1.065772e-004,2.919800e-004
4.258460e-004,2.790148e-004
6.496583e-004,2.673460e-004
7.833623e-004,2.603772e-004
8.331164e-004,2.568118e-004
8.005413e-004,2.556773e-004
6.605167e-004,2.548670e-004
3.780367e-004,2.538946e-004
-7.354709e-006,2.532463e-004
-3.867496e-004,2.530843e-004
-6.567503e-004,2.517878e-004
-7.771649e-004,2.503292e-004
-7.656582e-004,2.493568e-004
-6.603158e-004,2.464396e-004
-4.995471e-004,2.362295e-004
-3.272716e-004,2.171058e-004
-1.846542e-004,1.947408e-004
-9.956988e-005,1.782101e-004
-7.574627e-005,1.697827e-004
-1.071869e-004,1.615174e-004
-1.844921e-004,1.493625e-004
-2.924276e-004,1.318594e-004
-4.052250e-004,1.106288e-004
-4.925782e-004,8.502253e-005
-5.087847e-004,5.536457e-005
-3.946908e-004,2.408596e-005
-1.280934e-004,-2.492749e-006
2.383363e-004,-2.356124e-005
6.044420e-004,-3.879538e-005
8.793051e-004,-5.305713e-005
1.015926e-003,-6.715681e-005
1.014792e-003,-7.947377e-005
9.157698e-004,-9.033215e-005
7.674799e-004,-1.011905e-004
5.921251e-004,-1.161005e-004
3.824125e-004,-1.371690e-004
1.151667e-004,-1.609926e-004
-2.562870e-004,-1.793060e-004
-7.795958e-004,-1.867610e-004
-1.447953e-003,-1.844921e-004
-2.108694e-003,-1.796301e-004
-2.507699e-003,-1.793060e-004
-2.398629e-003,-1.864369e-004
-1.666093e-003,-1.981056e-004
-4.254832e-004,-2.073433e-004
1.006202e-003,-2.055606e-004
2.238388e-003,-1.955125e-004
3.062981e-003,-1.833576e-004
3.433303e-003,-1.755785e-004
3.420014e-003,-1.733096e-004
3.139314e-003,-1.726613e-004
2.699628e-003,-1.656925e-004
2.166107e-003,-1.499722e-004
1.567273e-003,-1.313347e-004
9.169042e-004,-1.149661e-004
2.214815e-004,-1.088076e-004
-5.590250e-004,-1.162626e-004
-1.507431e-003,-1.339277e-004
-2.682082e-003,-1.504584e-004
-3.996599e-003,-1.543479e-004
-4.968512e-003,-1.425172e-004
-4.968674e-003,-1.162626e-004
-4.968350e-003,-8.125649e-005
-4.968512e-003,-4.511593e-005
-4.968674e-003,-1.545797e-005
-4.266115e-003,4.313994e-006
-3.090487e-003,1.549650e-005
-1.892661e-003,2.100672e-005
-8.107124e-004,2.327564e-005
3.818565e-005,2.376183e-005
5.896941e-004,2.522042e-005
8.545090e-004,2.829966e-005
9.031286e-004,3.316162e-005
8.308475e-004,3.753739e-005
7.295565e-004,4.029250e-005
6.618132e-004,4.418206e-005
6.598685e-004,5.050261e-005
7.276118e-004,5.666109e-005
8.457575e-004,6.249545e-005
9.922647e-004,6.978839e-005
1.159192e-003,7.935024e-005
1.346378e-003,9.263960e-005
1.537129e-003,1.103047e-004
1.696116e-003,1.284560e-004
1.787035e-003,1.448246e-004
1.788817e-003,1.582761e-004
1.709729e-003,1.738343e-004
1.580401e-003,1.861513e-004
1.444266e-003,1.931201e-004
1.337464e-003,1.936063e-004
1.270855e-003,1.903650e-004
1.239090e-003,1.846927e-004
1.227746e-003,1.780480e-004
1.221101e-003,1.715654e-004
1.204246e-003,1.641104e-004
1.172644e-003,1.553589e-004
1.133586e-003,1.446626e-004
1.086263e-003,1.341283e-004
1.024354e-003,1.234320e-004
9.465622e-004,1.156529e-004
8.635847e-004,1.128978e-004
8.011895e-004,1.174356e-004
7.796348e-004,1.242423e-004
7.958413e-004,1.261871e-004
8.245269e-004,1.190562e-004
8.323060e-004,1.018773e-004
8.037825e-004,7.837785e-005
7.499768e-004,5.034055e-005
6.989262e-004,2.230325e-005
6.845024e-004,-2.168618e-006
7.263153e-004,-1.902341e-005
8.110755e-004,-3.069211e-005
8.945392e-004,-4.317115e-005
9.177146e-004,-6.229485e-005
8.178822e-004,-8.854943e-005
5.648981e-004,-1.169109e-004
1.910133e-004,-1.421931e-004
-2.264670e-004,-1.583996e-004
-6.055377e-004,-1.640719e-004
-8.919071e-004,-1.621271e-004
-1.056890e-003,-1.566169e-004
-1.088168e-003,-1.520790e-004
-9.721294e-004,-1.464067e-004
-7.180111e-004,-1.371690e-004
-3.788084e-004,-1.243659e-004
-4.932962e-005,-1.109144e-004
1.628139e-004,-9.940781e-005
1.929580e-004,-9.049421e-005
6.119892e-005,-8.190475e-005
-1.475412e-004,-7.704279e-005
-3.489884e-004,-7.769106e-005
-4.898231e-004,-8.174268e-005
-5.604835e-004,-8.871149e-005
-5.826865e-004,-1.015147e-004
-5.812279e-004,-1.175591e-004
-5.488148e-004,-1.306864e-004
-4.465517e-004,-1.353863e-004
-2.556388e-004,-1.319829e-004
1.403791e-005,-1.232314e-004
3.644232e-004,-1.092938e-004
7.981102e-004,-9.065628e-005
1.271504e-003,-7.056019e-005
1.694171e-003,-4.592625e-005
1.989617e-003,-1.399939e-005
2.128021e-003,2.359977e-005
2.112301e-003,5.795762e-005
1.980703e-003,8.291568e-005
1.810858e-003,1.010670e-004
1.692550e-003,1.211631e-004
1.657220e-003,1.470936e-004
1.634693e-003,1.767515e-004
1.503906e-003,2.055991e-004
1.196629e-003,2.276400e-004
7.418735e-004,2.380122e-004
2.482223e-004,2.352571e-004
-1.750923e-004,2.235884e-004
-4.715097e-004,2.051129e-004
-6.601537e-004,1.796687e-004
-7.940196e-004,1.522796e-004
-8.901244e-004,1.312112e-004
-9.590021e-004,1.218114e-004
-1.071313e-003,1.247285e-004
-1.379075e-003,1.372076e-004
-2.059588e-003,1.530900e-004
-3.227919e-003,1.699448e-004
-4.786348e-003,1.859892e-004
-4.968188e-003,2.033302e-004
-4.968512e-003,2.198609e-004
-4.968512e-003,2.370398e-004
-4.968350e-003,2.530843e-004
-4.968512e-003,2.701012e-004
-4.922647e-003,2.889007e-004
-3.745396e-003,3.114278e-004
-2.710281e-003,3.370341e-004
-1.787966e-003,3.605336e-004
-9.137859e-004,3.746333e-004
-7.493595e-005,3.717161e-004
6.661890e-004,3.527545e-004
1.225801e-003,3.273102e-004
1.557388e-003,2.978143e-004
1.674237e-003,2.597290e-004
1.640527e-003,2.085163e-004
1.540857e-003,1.435281e-004
1.448155e-003,6.978839e-005
1.398725e-003,-6.868513e-006
1.392567e-003,-8.109443e-005
1.410718e-003,-1.493239e-004
1.439080e-003,-2.097743e-004
1.467279e-003,-2.616352e-004
1.480893e-003,-3.032860e-004
1.470358e-003,-3.319715e-004
1.435028e-003,-3.485022e-004
1.380898e-003,-3.556330e-004
1.317368e-003,-3.566054e-004
1.250597e-003,-3.559572e-004
1.183016e-003,-3.557951e-004
1.124996e-003,-3.561192e-004
1.089180e-003,-3.561192e-004
1.078159e-003,-3.553089e-004
1.082373e-003,-3.519055e-004
1.087073e-003,-3.481781e-004
1.083670e-003,-3.462333e-004
1.064384e-003,-3.485022e-004
1.027271e-003,-3.533641e-004
9.771927e-004,-3.583881e-004
9.261420e-004,-3.577399e-004
8.841670e-004,-3.476919e-004
8.545090e-004,-3.288923e-004
8.316578e-004,-3.037722e-004
8.102651e-004,-2.710350e-004
7.982723e-004,-2.293842e-004
8.089686e-004,-1.802784e-004
8.507816e-004,-1.240417e-004
9.229007e-004,-5.872941e-005
1.010902e-003,1.128280e-005
1.089504e-003,7.416415e-005
1.135044e-003,1.200286e-004
1.134882e-003,1.461212e-004
1.094852e-003,1.597346e-004
1.041695e-003,1.726999e-004
9.972887e-004,1.889064e-004
9.580689e-004,2.049509e-004
9.041011e-004,2.140265e-004
8.037825e-004,2.085163e-004
6.238899e-004,1.863134e-004
3.452995e-004,1.492004e-004
-3.279896e-005,1.072255e-004
-4.888507e-004,6.784360e-005
-9.962771e-004,3.607880e-005
-1.499814e-003,1.614476e-005
-1.917294e-003,8.365628e-006
-2.169793e-003,1.144487e-005
-2.206419e-003,2.651694e-005
-2.024420e-003,5.179914e-005
-1.669983e-003,8.356394e-005
-1.226896e-003,1.151667e-004
-7.938576e-004,1.401247e-004
-4.518998e-004,1.556830e-004
-2.410529e-004,1.626518e-004
-1.316588e-004,1.629760e-004
-4.689865e-005,1.636242e-004
8.599492e-005,1.684862e-004
2.872801e-004,1.757791e-004
5.240576e-004,1.814514e-004
7.352289e-004,1.837203e-004
8.687708e-004,1.856651e-004
9.053976e-004,1.887444e-004
8.400852e-004,1.971717e-004
6.650545e-004,2.101370e-004
3.898674e-004,2.250470e-004
6.881599e-005,2.375260e-004
-2.258187e-004,2.438466e-004
-4.181903e-004,2.438466e-004
-4.460655e-004,2.401191e-004
-2.783279e-004,2.360674e-004
5.147500e-005,2.299089e-004
4.527488e-004,2.224539e-004
8.101031e-004,2.106232e-004
1.015440e-003,1.914995e-004
1.017385e-003,1.694586e-004
8.472161e-004,1.483901e-004
6.041179e-004,1.300767e-004
3.887330e-004,1.197045e-004
2.553532e-004,1.198666e-004
2.021958e-004,1.281319e-004
1.916615e-004,1.406109e-004
1.855030e-004,1.529279e-004
1.573037e-004,1.590864e-004
9.280167e-005,1.579519e-004
-1.335113e-005,1.480659e-004
-1.535376e-004,1.320215e-004
-3.177098e-004,1.083599e-004
-5.000332e-004,7.286763e-005
-6.969426e-004,2.619281e-005
-8.904485e-004,-2.664048e-005
-1.040359e-003,-8.320128e-005
-1.099675e-003,-1.366828e-004
-1.040521e-003,-1.770371e-004
-8.666249e-004,-1.979435e-004
-6.168823e-004,-2.016710e-004
-3.569296e-004,-1.955125e-004
-1.533756e-004,-1.856265e-004
-3.344723e-005,-1.754164e-004
7.231170e-006,-1.676373e-004
-7.354709e-006,-1.629374e-004
-4.560212e-005,-1.603444e-004
-7.914964e-005,-1.606685e-004
-8.741498e-005,-1.635857e-004
-6.796714e-005,-1.687718e-004
-2.923353e-005,-1.750923e-004
1.484824e-005,-1.853024e-004
6.200925e-005,-1.974573e-004
1.268354e-004,-2.068571e-004
2.208333e-004,-2.063709e-004
3.349273e-004,-1.976194e-004
4.342734e-004,-1.870851e-004
4.815964e-004,-1.763888e-004
4.629590e-004,-1.658546e-004
3.929467e-004,-1.545100e-004
3.028383e-004,-1.396000e-004
2.231022e-004,-1.230693e-004
1.598967e-004,-1.018388e-004
9.782569e-005,-7.866345e-005
2.586868e-005,-5.808115e-005
-4.171256e-005,-4.349527e-005
-5.224680e-005,-3.328516e-005
2.813760e-005,-2.323711e-005
1.464453e-004,-1.043395e-005
1.887444e-004,3.665733e-006
6.654708e-005,1.760335e-005
-2.156086e-004,3.008238e-005
-5.496252e-004,4.320967e-005
-7.923990e-004,6.265751e-005
-8.466908e-004,8.729144e-005
-7.204420e-004,1.122495e-004
-5.136467e-004,1.365593e-004
-3.856151e-004,1.569795e-004
-4.911196e-004,1.731861e-004
-9.210788e-004,1.895547e-004
-1.630277e-003,2.060853e-004
-2.403491e-003,2.213195e-004
-2.937011e-003,2.325020e-004
-2.996975e-003,2.414156e-004
-2.514506e-003,2.478982e-004
-1.572905e-003,2.474120e-004
-3.600088e-004,2.372019e-004
8.532125e-004,2.169437e-004
1.813613e-003,1.867996e-004
2.428006e-003,1.498487e-004
2.709677e-003,1.190562e-004
2.743062e-003,1.013911e-004
2.635126e-003,9.863601e-005
2.462202e-003,1.064152e-004
2.246654e-003,1.150046e-004
1.960607e-003,1.145184e-004
1.565815e-003,1.009049e-004
1.056281e-003,7.335383e-005
4.623107e-004,3.510641e-005
-2.006986e-004,-3.303076e-006
-9.580297e-004,-3.328516e-005
-1.845500e-003,-5.273300e-005
-2.823241e-003,-6.375344e-005
-3.744424e-003,-7.072225e-005
-4.425589e-003,-7.898758e-005
-4.743563e-003,-9.389759e-005
-4.697212e-003,-1.159385e-004
-4.370972e-003,-1.386276e-004
-3.835667e-003,-1.512687e-004
-3.100211e-003,-1.460826e-004
-2.154234e-003,-1.243659e-004
-1.049435e-003,-9.195280e-005
8.923623e-005,-5.662256e-005
1.096959e-003,-2.291298e-005
1.867095e-003,2.693341e-006
2.367231e-003,1.825161e-005
2.607737e-003,2.586868e-005
2.626374e-003,3.056858e-005
2.481973e-003,3.332369e-005
2.246492e-003,3.510641e-005
1.986051e-003,3.267542e-005
1.738901e-003,2.084466e-005
1.522705e-003,-1.196227e-006
1.339571e-003,-3.247483e-005
1.191605e-003,-6.586029e-005
1.079780e-003,-9.341139e-005
1.005716e-003,-1.107524e-004
9.692514e-004,-1.211246e-004
9.653618e-004,-1.276072e-004
9.744375e-004,-1.358725e-004
9.681169e-004,-1.498101e-004
9.376486e-004,-1.669890e-004
9.055596e-004,-1.815749e-004
8.979426e-004,-1.925954e-004
9.238730e-004,-1.976194e-004
9.669825e-004,-1.947022e-004
1.003771e-003,-1.814128e-004
1.016737e-003,-1.600202e-004
9.883752e-004,-1.360346e-004
8.906497e-004,-1.107524e-004
7.003848e-004,-8.498399e-005
4.564763e-004,-6.018800e-005
2.529222e-004,-3.668853e-005
1.660552e-004,-1.675450e-005
2.060853e-004,-5.571990e-006
3.300653e-004,-8.720959e-007
4.801379e-004,1.095867e-005
6.191900e-004,3.850978e-005
7.499768e-004,8.032264e-005
8.885428e-004,1.281319e-004
1.016575e-003,1.798307e-004
1.088694e-003,2.337985e-004
1.068598e-003,2.856594e-004
9.554758e-004,3.302274e-004
7.862795e-004,3.647473e-004
6.003904e-004,3.890571e-004
4.234150e-004,4.021844e-004
2.560015e-004,3.981328e-004
8.340187e-005,3.816021e-004
-1.182074e-004,3.608578e-004
-3.677880e-004,3.402755e-004
-6.598296e-004,3.190449e-004
-9.410129e-004,2.958695e-004
-1.127388e-003,2.696149e-004
-1.178438e-003,2.425500e-004
-1.106157e-003,2.200230e-004
-9.327476e-004,2.059233e-004
-6.708500e-004,1.963614e-004
-3.460712e-004,1.892305e-004
-2.113026e-005,1.814514e-004
2.316917e-004,1.728619e-004
3.809539e-004,1.633001e-004
4.446456e-004,1.503349e-004
4.676588e-004,1.299146e-004
4.738173e-004,9.944634e-005
4.396215e-004,6.152305e-005
3.250413e-004,2.327564e-005
1.111150e-004,-1.092015e-005
-2.003745e-004,-3.604027e-005
-6.032689e-004,-5.370539e-005
-1.050569e-003,-6.569822e-005
-1.421861e-003,-7.396356e-005
-1.575337e-003,-7.914964e-005
-1.444064e-003,-7.947377e-005
-1.086223e-003,-7.704279e-005
-6.520505e-004,-7.218083e-005
-3.081479e-004,-6.504996e-005
-1.733096e-004,-5.386745e-005
-2.648765e-004,-4.155049e-005
-4.932265e-004,-3.458168e-005
-7.197938e-004,-3.701266e-005
-8.262706e-004,-5.095028e-005
-7.724650e-004,-7.120844e-005
-5.988930e-004,-9.033215e-005
-3.890185e-004,-1.010285e-004
-2.201465e-004,-1.063766e-004
-1.079973e-004,-1.117248e-004
-1.124428e-005,-1.212866e-004
1.051186e-004,-1.326312e-004
2.266676e-004,-1.384655e-004
2.851732e-004,-1.349001e-004
1.932822e-004,-1.233935e-004
-1.245279e-004,-1.120489e-004
-6.776568e-004,-1.076731e-004
-1.331914e-003,-1.105903e-004
-1.852468e-003,-1.164247e-004
-2.037385e-003,-1.238797e-004
-1.825241e-003,-1.318209e-004
-1.316680e-003,-1.387897e-004
-6.867325e-004,-1.496481e-004
-8.692878e-005,-1.656925e-004
3.914881e-004,-1.851404e-004
7.185361e-004,-1.997262e-004
9.062079e-004,-2.041020e-004
9.710342e-004,-1.979435e-004
9.160939e-004,-1.864369e-004
7.321496e-004,-1.757406e-004
4.180668e-004,-1.695821e-004
-1.358292e-006,-1.692580e-004
-4.425001e-004,-1.734716e-004
-7.491275e-004,-1.763888e-004
-7.663065e-004,-1.682856e-004
-4.331002e-004,-1.480274e-004
1.835583e-004,-1.178833e-004
9.219283e-004,-8.206682e-005
1.604225e-003,-4.527799e-005
2.102415e-003,-1.221667e-005
2.356859e-003,1.582063e-005
2.373065e-003,3.591673e-005
2.201113e-003,4.823370e-005
1.884112e-003,5.487838e-005
1.414283e-003,6.087479e-005
7.258290e-004,7.092284e-005
-2.264670e-004,8.777764e-005
-1.325918e-003,1.086841e-004
-2.311114e-003,1.312112e-004
-2.899412e-003,1.540623e-004
-2.940414e-003,1.803169e-004
-2.499434e-003,2.098128e-004
-1.811628e-003,2.378501e-004
-1.134357e-003,2.584324e-004
-6.340612e-004,2.694529e-004
-3.480160e-004,2.733424e-004
-2.250084e-004,2.739907e-004
-1.898403e-004,2.764217e-004
-1.843300e-004,2.814457e-004
-1.762268e-004,2.906835e-004
-1.493239e-004,3.026763e-004
-9.697683e-005,3.188828e-004
-1.108221e-005,3.337929e-004
1.167873e-004,3.435168e-004
2.846870e-004,3.431926e-004
4.770586e-004,3.352514e-004
6.655407e-004,3.214759e-004
8.258235e-004,2.981384e-004
9.491552e-004,2.623220e-004
1.034240e-003,2.226160e-004
1.078321e-003,1.876099e-004
1.075080e-003,1.618415e-004
1.027595e-003,1.446626e-004
9.556379e-004,1.273216e-004
8.888670e-004,1.033359e-004
8.522401e-004,7.529860e-005
8.554814e-004,4.920609e-005
8.846532e-004,2.489629e-005
9.028045e-004,4.313994e-006
8.596951e-004,-1.351319e-005
7.214533e-004,-3.247483e-005
4.905101e-004,-5.143648e-005
2.023578e-004,-6.488790e-005
-7.963584e-005,-6.893953e-005
-2.980999e-004,-6.650855e-005
-4.352071e-004,-6.261898e-005
-5.024642e-004,-6.116039e-005
-5.112157e-004,-6.180866e-005
-4.593548e-004,-6.116039e-005
-3.515814e-004,-5.743289e-005
-2.088019e-004,-5.240886e-005
-5.808115e-005,-4.819517e-005
7.708133e-005,-4.187462e-005
1.804790e-004,-3.490581e-005
2.451431e-004,-3.247483e-005
2.744769e-004,-4.381940e-005
2.759355e-004,-7.153257e-005
2.590807e-004,-1.091317e-004
2.336365e-004,-1.485136e-004
2.086784e-004,-1.844921e-004
1.981441e-004,-2.125294e-004
2.081922e-004,-2.276015e-004
2.349330e-004,-2.293842e-004
2.676702e-004,-2.240360e-004
3.036487e-004,-2.214430e-004
3.464339e-004,-2.243602e-004
3.926226e-004,-2.246843e-004
4.365423e-004,-2.186879e-004
4.744656e-004,-2.034537e-004
4.994237e-004,-1.830335e-004
5.052580e-004,-1.616409e-004
4.892136e-004,-1.425172e-004
4.508040e-004,-1.235555e-004
3.864641e-004,-1.011905e-004
2.926282e-004,-7.477388e-005
1.736723e-004,-4.884343e-005
4.580272e-005,-2.923353e-005
-7.347736e-005,-1.805102e-005
-1.634236e-004,-1.464765e-005
-2.191741e-004,-1.788895e-005
-2.488320e-004,-2.599222e-005
-2.632558e-004,-3.263690e-005
-2.658489e-004,-3.036798e-005
-2.566112e-004,-1.918548e-005
-2.352185e-004,7.485573e-007
-2.083157e-004,2.813760e-005
-1.848162e-004,6.006447e-005
-1.728234e-004,9.588091e-005
-1.684476e-004,1.341283e-004
-1.593720e-004,1.725378e-004
-1.350622e-004,2.073819e-004
-9.697683e-005,2.303951e-004
-6.018800e-005,2.342847e-004
-4.041603e-005,2.200230e-004
-4.835724e-005,1.997648e-004
-8.174268e-005,1.837203e-004
-1.246900e-004,1.770756e-004
-1.579134e-004,1.791825e-004
-1.673132e-004,1.827479e-004
-1.511067e-004,1.835583e-004
-1.287416e-004,1.855030e-004
-1.099421e-004,1.884202e-004
-6.861539e-005,1.880961e-004
4.920609e-005,1.775618e-004
2.837146e-004,1.577899e-004
6.153004e-004,1.323456e-004
9.898337e-004,1.109530e-004
1.370688e-003,1.004187e-004
1.759159e-003,9.977047e-005
2.168538e-003,1.034980e-004
2.563493e-003,1.052807e-004
2.862991e-003,1.051186e-004
2.975952e-003,1.030118e-004
2.850188e-003,9.393612e-005
2.495749e-003,7.416415e-005
1.948938e-003,4.337174e-005
1.223532e-003,4.313994e-006
2.914938e-004,-3.539201e-005
-9.160548e-004,-6.423963e-005
-2.438821e-003,-7.704279e-005
-4.241967e-003,-7.833932e-005
-4.968512e-003,-7.493595e-005
-4.968350e-003,-7.104638e-005
-4.968512e-003,-6.537409e-005
-4.968350e-003,-5.759496e-005
-4.968188e-003,-4.722278e-005
-4.968350e-003,-4.171256e-005
-4.968512e-003,-4.689865e-005
-3.653342e-003,-6.278104e-005
-1.742264e-003,-7.882551e-005
-3.798505e-005,-8.838737e-005
1.298731e-003,-9.081835e-005
2.184906e-003,-9.081835e-005
2.637881e-003,-9.503204e-005
2.727504e-003,-1.055663e-004
2.571434e-003,-1.191798e-004
2.308725e-003,-1.345760e-004
2.044395e-003,-1.454344e-004
1.818800e-003,-1.454344e-004
1.618162e-003,-1.331174e-004
1.408935e-003,-1.123730e-004
1.169240e-003,-8.384954e-005
9.003736e-004,-5.240886e-005
6.287518e-004,-2.534396e-005
3.871123e-004,-3.303076e-006
1.923098e-004,2.181705e-005
5.698522e-005,5.066468e-005
3.665733e-006,7.935024e-005
5.082674e-005,9.944634e-005
2.059233e-004,9.928428e-005
4.414042e-004,7.416415e-005
6.896885e-004,3.040651e-005
8.776844e-004,-1.853722e-005
9.799477e-004,-5.646050e-005
1.031647e-003,-7.509801e-005
1.088694e-003,-7.331530e-005
1.179126e-003,-5.743289e-005
1.290627e-003,-3.766092e-005
1.389649e-003,-2.194059e-005
1.434542e-003,-1.351319e-005
1.396942e-003,-8.165035e-006
1.275393e-003,-2.006553e-006
1.103766e-003,7.555301e-006
9.297074e-004,2.068259e-005
7.908173e-004,4.207521e-005
6.927677e-004,7.659513e-005
6.169211e-004,1.208390e-004
5.316747e-004,1.660552e-004
4.195254e-004,2.046267e-004
2.882525e-004,2.325020e-004
1.701068e-004,2.503292e-004
1.013911e-004,2.597290e-004
1.017153e-004,2.602152e-004
1.637863e-004,2.504913e-004
2.647530e-004,2.299089e-004
3.809539e-004,2.046267e-004
4.927790e-004,1.817755e-004
5.859666e-004,1.633001e-004
6.525755e-004,1.475797e-004
6.942263e-004,1.295905e-004
7.139983e-004,1.036600e-004
7.170775e-004,7.481241e-005
7.127018e-004,4.596478e-005
7.037881e-004,2.505836e-005
6.840162e-004,1.825161e-005
6.444722e-004,2.781346e-005
5.765668e-004,5.260946e-005
4.743035e-004,8.583286e-005
3.412479e-004,1.201907e-004
1.879340e-004,1.498487e-004
2.100672e-005,1.665414e-004
-1.587237e-004,1.697827e-004
-3.463953e-004,1.569795e-004
-5.256396e-004,1.331559e-004
-6.684191e-004,1.043083e-004
-7.361624e-004,7.546067e-005
-6.982391e-004,4.709924e-005
-5.601594e-004,2.230325e-005
-3.674638e-004,3.989864e-006
-1.812508e-004,-5.409925e-006
-5.095028e-005,-9.137427e-006
-6.176923e-008,-1.756482e-005
-2.226472e-005,-3.474375e-005
-8.757704e-005,-5.419158e-005
-1.622891e-004,-6.602235e-005
-2.279256e-004,-6.456377e-005
-2.827037e-004,-5.532604e-005
-3.288923e-004,-4.722278e-005
-3.676259e-004,-4.657452e-005
-3.938804e-004,-5.678463e-005
-3.977700e-004,-7.590833e-005
-3.745947e-004,-9.730096e-005
-3.269475e-004,-1.162626e-004
-2.673075e-004,-1.336036e-004
-2.089640e-004,-1.499722e-004
-1.632615e-004,-1.702304e-004
-1.323071e-004,-1.950263e-004
-1.094559e-004,-2.173914e-004
-6.586029e-005,-2.280877e-004
2.424803e-005,-2.256567e-004
1.577899e-004,-2.135018e-004
3.109416e-004,-1.994021e-004
4.537212e-004,-1.906506e-004
5.695980e-004,-1.891920e-004
6.603546e-004,-1.938919e-004
7.357151e-004,-1.995642e-004
7.937344e-004,-2.024813e-004
8.180443e-004,-1.995642e-004
7.757452e-004,-1.901644e-004
6.506307e-004,-1.726613e-004
5.003960e-004,-1.507825e-004
4.256839e-004,-1.266348e-004
4.744656e-004,-1.024871e-004
6.049282e-004,-7.963584e-005
7.245325e-004,-6.002594e-005
7.298806e-004,-4.495386e-005
5.401021e-004,-3.668853e-005
1.955511e-004,-3.020592e-005
-1.138316e-004,-2.388537e-005
-1.921092e-004,-1.497178e-005
-4.923729e-006,-3.303076e-006
2.652392e-004,1.095867e-005
3.070520e-004,2.586868e-005
-1.710407e-004,3.802358e-005
-1.263847e-003,4.661304e-005
-2.754687e-003,5.406805e-005
-4.240023e-003,6.233338e-005
-4.968512e-003,7.999851e-005
-4.968512e-003,1.154908e-004
-4.968350e-003,1.710792e-004
-4.895420e-003,2.393087e-004
-4.122200e-003,3.094830e-004
-3.422236e-003,3.700955e-004
-2.834748e-003,4.172565e-004
-2.302362e-003,4.498317e-004
-1.738374e-003,4.687933e-004
-1.084603e-003,4.738173e-004
-3.587123e-004,4.662003e-004
3.456236e-004,4.491834e-004
8.712018e-004,4.250357e-004
1.105549e-003,4.010500e-004
1.092907e-003,3.809539e-004
9.956681e-004,3.668542e-004
9.306798e-004,3.553475e-004
8.807636e-004,3.397893e-004
7.828761e-004,3.151553e-004
6.558168e-004,2.816078e-004
6.172452e-004,2.427121e-004
7.650489e-004,2.023578e-004
1.095987e-003,1.615174e-004
1.512171e-003,1.201907e-004
1.886381e-003,8.259155e-005
2.117811e-003,5.131294e-005
2.167079e-003,2.894792e-005
2.058009e-003,1.501031e-005
1.850889e-003,9.986281e-006
1.606980e-003,8.689758e-006
1.371336e-003,2.693341e-006
1.165675e-003,-9.947754e-006
9.972887e-004,-2.680255e-005
8.712018e-004,-4.835724e-005
7.885484e-004,-7.655660e-005
7.504630e-004,-1.075111e-004
7.541905e-004,-1.386276e-004
7.797969e-004,-1.689338e-004
7.885484e-004,-1.977815e-004
7.540284e-004,-2.230636e-004
6.943883e-004,-2.444563e-004
6.600305e-004,-2.653627e-004
6.943883e-004,-2.820554e-004
7.964896e-004,-2.883759e-004
9.204697e-004,-2.835140e-004
1.008147e-003,-2.736280e-004
1.028243e-003,-2.624455e-004
9.872407e-004,-2.517492e-004
9.229007e-004,-2.452666e-004
8.749293e-004,-2.452666e-004
8.660157e-004,-2.449425e-004
9.214421e-004,-2.413770e-004
1.068273e-003,-2.340841e-004
1.290303e-003,-2.266291e-004
1.517033e-003,-2.183637e-004
1.658516e-003,-2.102605e-004
1.636962e-003,-1.989159e-004
1.417687e-003,-1.844921e-004
1.011550e-003,-1.721751e-004
4.866205e-004,-1.621271e-004
-4.414354e-005,-1.524032e-004
-4.716718e-004,-1.378173e-004
-7.382692e-004,-1.175591e-004
-8.622491e-004,-9.422172e-005
-9.332337e-004,-7.282909e-005
-1.045545e-003,-5.386745e-005
-1.234351e-003,-3.474375e-005
-1.474370e-003,-1.173047e-005
-1.691537e-003,1.387585e-005
-1.803200e-003,4.077869e-005
-1.748584e-003,6.606088e-005
-1.512455e-003,8.437427e-005
-1.138408e-003,9.393612e-005
-7.186593e-004,9.652917e-005
-3.504470e-004,9.588091e-005
-9.243900e-005,9.604298e-005
5.763349e-005,9.831188e-005
1.404489e-004,1.023635e-004
2.090025e-004,1.072255e-004
2.965178e-004,1.140322e-004
3.960259e-004,1.253768e-004
4.702519e-004,1.402868e-004
4.862963e-004,1.563313e-004
4.388112e-004,1.754550e-004
3.418961e-004,1.953890e-004
2.119197e-004,2.185644e-004
6.995045e-005,2.467637e-004
-4.787104e-005,2.770700e-004
-7.218083e-005,3.060797e-004
7.416415e-005,3.263378e-004
3.872744e-004,3.362238e-004
7.611593e-004,3.349273e-004
1.048177e-003,3.266619e-004
1.141689e-003,3.128864e-004
1.009606e-003,2.942489e-004
7.114052e-004,2.726942e-004
3.781987e-004,2.525981e-004
1.261871e-004,2.372019e-004
-4.761664e-006,2.271538e-004
-6.748094e-005,2.175920e-004
-1.969711e-004,2.012234e-004
-5.484907e-004,1.783722e-004
-1.193187e-003,1.474177e-004
-2.027175e-003,1.130598e-004
-2.776242e-003,8.323981e-005
-3.161958e-003,6.233338e-005
-3.050943e-003,4.596478e-005
-2.509806e-003,2.635488e-005
-1.738698e-003,-3.303076e-006
-9.604607e-004,-4.722278e-005
-3.447747e-004,-9.778715e-005
2.975825e-005,-1.446240e-004
1.837203e-004,-1.810887e-004
1.908512e-004,-2.042641e-004
1.205148e-004,-2.146363e-004
1.371378e-005,-2.199844e-004
-1.044318e-004,-2.279256e-004
-2.008607e-004,-2.387840e-004
-2.452666e-004,-2.467252e-004
-2.188499e-004,-2.472114e-004
-1.311726e-004,-2.423494e-004
-1.237873e-005,-2.334358e-004
1.028497e-004,-2.198223e-004
1.910133e-004,-1.982676e-004
2.488706e-004,-1.689338e-004
2.866318e-004,-1.339277e-004
3.078624e-004,-9.341139e-005
3.132105e-004,-5.176061e-005
3.102934e-004,-1.691656e-005
3.140208e-004,5.124321e-006
3.337929e-004,9.986281e-006
3.613439e-004,-3.141010e-006
3.851676e-004,-2.696461e-005
4.036430e-004,-4.900550e-005
4.224426e-004,-5.905355e-005
4.540453e-004,-5.727083e-005
5.025029e-004,-4.997789e-005
5.527431e-004,-3.911951e-005
5.827253e-004,-2.469570e-005
5.879114e-004,-1.140634e-005
5.786736e-004,-2.492749e-006
5.601982e-004,-2.168618e-006
5.222749e-004,-1.010982e-005
4.623107e-004,-2.113026e-005
4.075326e-004,-2.680255e-005
3.957018e-004,-2.599222e-005
4.175806e-004,-2.161646e-005
3.940812e-004,-1.432352e-005
2.346088e-004,-5.571990e-006
-8.676672e-005,5.124321e-006
-4.788027e-004,1.646890e-005
-7.771649e-004,2.943412e-005
-8.476633e-004,4.499239e-005
-6.638812e-004,6.119892e-005
-3.131719e-004,7.724339e-005
6.038860e-005,9.507057e-005
3.358997e-004,1.141943e-004
4.535592e-004,1.316974e-004
4.025085e-004,1.454729e-004
1.976579e-004,1.542244e-004
-1.321450e-004,1.624898e-004
-5.377944e-004,1.718896e-004
-9.439300e-004,1.795066e-004
-1.262064e-003,1.871237e-004
-1.408247e-003,1.945787e-004
-1.328673e-003,2.018716e-004
-1.022532e-003,2.094887e-004
-5.531906e-004,2.167816e-004
-3.604027e-005,2.216436e-004
4.057499e-004,2.227781e-004
7.026537e-004,2.188885e-004
8.647192e-004,2.111094e-004
9.522345e-004,2.005751e-004
1.012037e-003,1.877720e-004
1.054498e-003,1.743205e-004
1.076539e-003,1.615174e-004
1.085614e-003,1.529279e-004
1.094366e-003,1.464453e-004
1.102469e-003,1.365593e-004
1.084156e-003,1.224596e-004
9.882130e-004,1.051186e-004
7.571077e-004,9.296373e-005
3.728506e-004,8.793970e-005
