3.404375e-004,-1.771992e-004
3.114278e-004,-1.765509e-004
2.561635e-004,-1.776853e-004
1.846927e-004,-1.799543e-004
1.046324e-004,-1.817370e-004
3.137890e-005,-1.843300e-004
-2.420950e-005,-1.887058e-004
-5.791909e-005,-1.934057e-004
-7.785312e-005,-1.948643e-004
-9.179074e-005,-1.908126e-004
-9.843541e-005,-1.806025e-004
-8.417367e-005,-1.653684e-004
-2.161646e-005,-1.464067e-004
1.099806e-004,-1.232314e-004
2.987867e-004,-9.632857e-005
4.877550e-004,-6.877746e-005
6.175694e-004,-4.430560e-005
6.754267e-004,-2.826114e-005
6.820714e-004,-1.772689e-005
6.631098e-004,-1.205460e-005
6.465791e-004,-8.813297e-006
6.699165e-004,-3.141010e-006
7.601869e-004,9.013889e-006
9.021563e-004,2.684107e-005
1.057577e-003,4.742337e-005
1.178478e-003,7.059871e-005
1.209595e-003,9.571884e-005
1.101821e-003,1.245665e-004
8.139926e-004,1.568175e-004
3.209897e-004,1.902029e-004
-3.614674e-004,2.240746e-004
-1.183463e-003,2.566497e-004
-2.085194e-003,2.859836e-004
-2.972990e-003,3.112658e-004
-3.728703e-003,3.290929e-004
-4.233539e-003,3.423823e-004
-4.395444e-003,3.581026e-004
-4.174547e-003,3.796573e-004
-3.615095e-003,4.067223e-004
-2.856465e-003,4.352458e-004
-2.086977e-003,4.564763e-004
-1.452005e-003,4.608521e-004
-9.792603e-004,4.480489e-004
-5.987309e-004,4.179048e-004
-2.446183e-004,3.712299e-004
7.659513e-005,3.158036e-004
3.146691e-004,2.574601e-004
4.407560e-004,2.020337e-004
4.726828e-004,1.511452e-004
4.615004e-004,1.015532e-004
4.561522e-004,5.115087e-005
4.835413e-004,2.369211e-006
5.435055e-004,-4.300908e-005
6.118971e-004,-8.012204e-005
6.587339e-004,-1.021629e-004
6.634339e-004,-1.078352e-004
6.200004e-004,-1.071869e-004
5.438296e-004,-1.117248e-004
4.673347e-004,-1.284175e-004
4.227667e-004,-1.538618e-004
4.305459e-004,-1.833576e-004
4.890515e-004,-2.135018e-004
5.749461e-004,-2.402425e-004
6.614891e-004,-2.593663e-004
7.303669e-004,-2.684419e-004
7.835244e-004,-2.653627e-004
8.298751e-004,-2.498044e-004
8.765499e-004,-2.193361e-004
9.204697e-004,-1.775233e-004
9.613102e-004,-1.287416e-004
1.021274e-003,-7.655660e-005
1.139420e-003,-2.599222e-005
1.319637e-003,1.322759e-005
1.517843e-003,3.332369e-005
1.679261e-003,3.089271e-005
1.773097e-003,1.095867e-005
1.798541e-003,-2.664048e-005
1.772611e-003,-8.174268e-005
1.718643e-003,-1.506204e-004
1.653168e-003,-2.199844e-004
1.560791e-003,-2.702246e-004
1.404560e-003,-2.904828e-004
1.134558e-003,-2.835140e-004
7.008709e-004,-2.606628e-004
7.529860e-005,-2.345703e-004
-6.958081e-004,-2.147983e-004
-1.439364e-003,-2.005366e-004
-1.918591e-003,-1.840059e-004
-1.963321e-003,-1.590478e-004
-1.582467e-003,-1.248521e-004
-9.429576e-004,-8.676672e-005
-2.870794e-004,-4.949169e-005
1.613553e-004,-1.545797e-005
3.154794e-004,1.760335e-005
2.568118e-004,5.082674e-005
1.508211e-004,8.113296e-005
1.342904e-004,1.081979e-004
2.532463e-004,1.331559e-004
4.537212e-004,1.537382e-004
6.230795e-004,1.673517e-004
6.412309e-004,1.735102e-004
4.281149e-004,1.731861e-004
-1.886135e-005,1.667035e-004
-6.068342e-004,1.527658e-004
-1.191890e-003,1.312112e-004
-1.640649e-003,1.041462e-004
-1.870133e-003,7.870197e-005
-1.863165e-003,6.022653e-005
-1.661231e-003,5.649903e-005
-1.335804e-003,7.691926e-005
-9.745604e-004,1.232699e-004
-6.614503e-004,1.898788e-004
-4.436345e-004,2.587566e-004
-3.267854e-004,3.135347e-004
-2.666592e-004,3.415720e-004
-1.929195e-004,3.397893e-004
-5.208474e-005,3.193690e-004
1.621656e-004,2.864697e-004
4.101256e-004,2.427121e-004
6.381517e-004,1.879340e-004
7.935724e-004,1.281319e-004
8.506195e-004,7.076078e-005
8.182063e-004,2.262738e-005
7.396046e-004,-1.302700e-005
6.830437e-004,-3.636440e-005
7.118915e-004,-5.013995e-005
8.660157e-004,-5.986387e-005
1.143472e-003,-7.169464e-005
1.513630e-003,-8.806324e-005
1.913608e-003,-1.102662e-004
2.258160e-003,-1.269589e-004
2.478408e-003,-1.264727e-004
2.559117e-003,-1.081593e-004
2.521355e-003,-8.174268e-005
2.377927e-003,-5.176061e-005
2.116839e-003,-2.080613e-005
1.731122e-003,2.693341e-006
1.248166e-003,1.160693e-005
7.331221e-004,9.662150e-006
2.399570e-004,1.072688e-006
-2.271153e-004,-1.578211e-005
-7.191455e-004,-4.171256e-005
-1.307605e-003,-6.877746e-005
-2.041599e-003,-9.292520e-005
-2.902329e-003,-1.133454e-004
-3.768733e-003,-1.319829e-004
-4.451519e-003,-1.475412e-004
-4.775652e-003,-1.583996e-004
-4.672740e-003,-1.642339e-004
-4.226895e-003,-1.700683e-004
-3.632598e-003,-1.760647e-004
-3.070229e-003,-1.784957e-004
-2.591001e-003,-1.728234e-004
-2.110963e-003,-1.579134e-004
-1.511645e-003,-1.360346e-004
-7.523688e-004,-1.122110e-004
8.761557e-005,-8.887356e-005
8.488368e-004,-6.748094e-005
1.400022e-003,-4.738484e-005
1.695143e-003,-2.777494e-005
1.767263e-003,-9.299493e-006
1.686068e-003,3.017472e-006
1.511847e-003,1.241726e-005
1.307482e-003,2.829966e-005
1.157247e-003,6.055066e-005
1.118352e-003,1.112771e-004
1.188040e-003,1.717275e-004
1.337951e-003,2.269918e-004
1.532754e-003,2.644289e-004
1.710540e-003,2.783665e-004
1.787359e-003,2.730183e-004
1.707947e-003,2.571359e-004
1.469710e-003,2.427121e-004
1.088045e-003,2.350950e-004
5.827253e-004,2.297469e-004
-2.453363e-005,2.179161e-004
-7.372968e-004,2.018716e-004
-1.596081e-003,1.864754e-004
-2.637676e-003,1.777239e-004
-3.801471e-003,1.767515e-004
-4.841614e-003,1.866375e-004
-4.968350e-003,2.068957e-004
-4.968512e-003,2.303951e-004
-4.429316e-003,2.501671e-004
-3.108477e-003,2.605393e-004
-1.674521e-003,2.579462e-004
-4.308313e-004,2.420638e-004
4.589073e-004,2.169437e-004
9.930751e-004,1.853410e-004
1.284307e-003,1.483901e-004
1.451396e-003,1.090082e-004
1.564194e-003,6.735741e-005
1.647334e-003,2.408596e-005
1.696116e-003,-1.351319e-005
1.702923e-003,-3.587821e-005
1.659975e-003,-4.171256e-005
1.560791e-003,-3.247483e-005
1.416066e-003,-1.626830e-005
1.255459e-003,-6.382317e-006
1.123052e-003,-5.085794e-006
1.058387e-003,-7.840905e-006
1.076053e-003,-1.367526e-005
1.169889e-003,-1.853722e-005
1.311696e-003,-1.788895e-005
1.457069e-003,-9.299493e-006
1.559170e-003,8.203562e-006
1.587045e-003,3.089271e-005
1.536805e-003,4.936815e-005
1.424494e-003,5.698522e-005
1.271666e-003,5.730935e-005
1.101983e-003,5.633696e-005
9.410520e-004,5.698522e-005
8.092928e-004,5.747142e-005
7.165913e-004,5.196120e-005
6.632718e-004,3.591673e-005
6.384758e-004,1.128280e-005
6.169211e-004,-1.707863e-005
5.624671e-004,-4.430560e-005
4.584211e-004,-6.278104e-005
3.180725e-004,-7.056019e-005
1.911753e-004,-7.347736e-005
1.529279e-004,-7.526008e-005
2.616738e-004,-8.141856e-005
5.107683e-004,-9.276313e-005
8.271200e-004,-1.070249e-004
1.113976e-003,-1.225832e-004
1.308617e-003,-1.383035e-004
1.403587e-003,-1.524032e-004
1.412987e-003,-1.635857e-004
1.369877e-003,-1.715269e-004
1.328389e-003,-1.763888e-004
1.333251e-003,-1.784957e-004
1.388515e-003,-1.822232e-004
1.448479e-003,-1.887058e-004
1.436811e-003,-1.974573e-004
1.247356e-003,-2.052365e-004
7.486803e-004,-2.063709e-004
-8.222889e-005,-2.003745e-004
-1.022208e-003,-1.919471e-004
-1.712606e-003,-1.865989e-004
-1.871754e-003,-1.862748e-004
-1.461567e-003,-1.893541e-004
-6.920806e-004,-1.959987e-004
1.201907e-004,-2.039399e-004
7.183740e-004,-2.092881e-004
1.024354e-003,-2.096122e-004
1.085939e-003,-2.052365e-004
9.968026e-004,-1.979435e-004
8.498091e-004,-1.869231e-004
7.415494e-004,-1.724993e-004
7.597008e-004,-1.522411e-004
9.182008e-004,-1.256624e-004
1.112355e-003,-9.438378e-005
1.122079e-003,-6.197072e-005
6.399344e-004,-3.101625e-005
-5.951655e-004,5.864920e-007
-2.536061e-003,3.494434e-005
-4.799638e-003,7.076078e-005
-4.968512e-003,1.081979e-004
-4.968350e-003,1.488763e-004
-4.968188e-003,1.939304e-004
-4.968350e-003,2.407673e-004
-4.968188e-003,2.887387e-004
-4.968188e-003,3.355756e-004
-4.284753e-003,3.759298e-004
-3.263412e-003,4.044533e-004
-2.407705e-003,4.177427e-004
-1.635301e-003,4.143393e-004
-9.034137e-004,3.922984e-004
-2.261429e-004,3.553475e-004
3.535648e-004,3.089969e-004
7.964896e-004,2.587566e-004
1.080428e-003,2.135403e-004
1.206678e-003,1.817755e-004
1.209271e-003,1.709172e-004
1.165837e-003,1.788584e-004
1.169240e-003,1.978200e-004
1.284793e-003,2.180782e-004
1.506013e-003,2.318537e-004
1.763859e-003,2.360674e-004
1.973410e-003,2.268297e-004
2.072919e-003,2.086784e-004
2.048609e-003,1.880961e-004
1.931922e-003,1.714034e-004
1.770666e-003,1.633001e-004
1.613786e-003,1.633001e-004
1.528054e-003,1.683241e-004
1.588342e-003,1.681620e-004
1.800810e-003,1.586002e-004
2.084101e-003,1.412592e-004
2.310022e-003,1.206769e-004
2.372093e-003,1.012291e-004
2.231419e-003,8.567078e-005
1.928194e-003,7.157111e-005
1.566463e-003,5.763349e-005
1.244601e-003,3.964424e-005
1.003447e-003,1.889987e-005
8.075100e-004,-2.816880e-006
5.666808e-004,-2.307504e-005
1.686482e-004,-4.414354e-005
-4.582204e-004,-6.586029e-005
-1.262226e-003,-8.644259e-005
-2.032361e-003,-1.052422e-004
-2.501379e-003,-1.206384e-004
-2.497813e-003,-1.332795e-004
-2.028147e-003,-1.465688e-004
-1.266278e-003,-1.653684e-004
-4.497930e-004,-1.904885e-004
2.119197e-004,-2.185258e-004
6.055765e-004,-2.402425e-004
7.344186e-004,-2.564491e-004
6.691061e-004,-2.695764e-004
5.025029e-004,-2.801106e-004
3.141829e-004,-2.856209e-004
1.598967e-004,-2.841623e-004
7.497447e-005,-2.752487e-004
7.805372e-005,-2.630937e-004
1.613553e-004,-2.553146e-004
2.829043e-004,-2.535319e-004
3.837090e-004,-2.536940e-004
4.294114e-004,-2.483458e-004
4.247115e-004,-2.350565e-004
4.013741e-004,-2.138259e-004
3.997535e-004,-1.882196e-004
4.392974e-004,-1.624512e-004
5.075270e-004,-1.400862e-004
5.768909e-004,-1.230693e-004
6.287518e-004,-1.086455e-004
6.600305e-004,-9.292520e-005
6.845024e-004,-7.574627e-005
7.109190e-004,-5.581224e-005
7.352289e-004,-3.312309e-005
7.465734e-004,-9.299493e-006
7.438183e-004,1.128280e-005
7.394425e-004,2.684107e-005
7.600249e-004,4.353380e-005
8.279303e-004,6.265751e-005
9.386210e-004,8.016057e-005
1.057253e-003,9.231547e-005
1.139096e-003,9.782569e-005
1.147848e-003,9.814982e-005
1.071839e-003,9.879808e-005
9.237110e-004,1.051186e-004
7.472217e-004,1.216493e-004
5.922872e-004,1.464453e-004
4.796517e-004,1.707551e-004
3.931088e-004,1.880961e-004
3.010556e-004,2.005751e-004
1.675138e-004,2.130541e-004
-3.425755e-005,2.240746e-004
-2.968033e-004,2.329882e-004
-5.854416e-004,2.370398e-004
-8.724593e-004,2.344468e-004
-1.150887e-003,2.290986e-004
-1.394472e-003,2.232643e-004
-1.542599e-003,2.188885e-004
-1.539358e-003,2.192126e-004
-1.371296e-003,2.232643e-004
-1.080389e-003,2.279642e-004
-7.407002e-004,2.297469e-004
-4.356933e-004,2.229401e-004
-2.250084e-004,2.075439e-004
-1.263107e-004,1.914995e-004
-1.199901e-004,1.778860e-004
-1.882196e-004,1.689724e-004
-3.284061e-004,1.649207e-004
-5.403875e-004,1.665414e-004
-7.737615e-004,1.775618e-004
-9.261029e-004,1.932822e-004
-9.060067e-004,2.099749e-004
-6.956460e-004,2.190506e-004
-4.089525e-004,2.149989e-004
-2.183637e-004,1.974959e-004
-2.123673e-004,1.694586e-004
-3.439643e-004,1.376938e-004
-4.990608e-004,1.101427e-004
-5.621043e-004,8.875003e-005
-4.833405e-004,7.513654e-005
-3.000446e-004,6.816773e-005
-9.600444e-005,6.200925e-005
5.471631e-005,4.839576e-005
1.098185e-004,2.943412e-005
5.439218e-005,1.225520e-005
-9.179074e-005,2.623614e-007
-2.778417e-004,-9.461558e-006
-4.549791e-004,-2.275091e-005
-5.953276e-004,-4.657452e-005
-6.739292e-004,-8.368748e-005
-6.667984e-004,-1.332795e-004
-5.606457e-004,-1.848162e-004
-3.708672e-004,-2.269532e-004
-1.502963e-004,-2.483458e-004
3.364782e-005,-2.481838e-004
1.419075e-004,-2.297083e-004
1.631380e-004,-1.959987e-004
1.010670e-004,-1.519170e-004
-1.237873e-005,-1.044318e-004
-1.177212e-004,-6.504996e-005
-1.655305e-004,-4.689865e-005
-1.344139e-004,-5.500191e-005
-3.117831e-005,-8.125649e-005
1.201907e-004,-1.185315e-004
3.068900e-004,-1.585616e-004
5.274609e-004,-1.951884e-004
7.859553e-004,-2.207947e-004
1.070218e-003,-2.327876e-004
1.348485e-003,-2.323013e-004
1.593852e-003,-2.211189e-004
1.792545e-003,-2.037779e-004
1.933704e-003,-1.838438e-004
1.998368e-003,-1.632615e-004
1.951694e-003,-1.428413e-004
1.740846e-003,-1.216107e-004
1.303107e-003,-9.697683e-005
5.584154e-004,-6.618442e-005
-5.583767e-004,-3.474375e-005
-1.987469e-003,-9.623623e-006
-3.533251e-003,8.041497e-006
-4.874188e-003,2.019640e-005
-4.968512e-003,3.235129e-005
-4.968512e-003,4.742337e-005
-4.968674e-003,7.011252e-005
-4.263522e-003,1.018773e-004
-3.058398e-003,1.480659e-004
-1.908219e-003,2.028440e-004
-9.619193e-004,2.527602e-004
-2.758969e-004,2.872801e-004
1.694586e-004,3.000832e-004
4.448076e-004,2.901973e-004
6.263209e-004,2.610255e-004
7.695867e-004,2.208333e-004
8.976185e-004,1.778860e-004
1.032295e-003,1.443384e-004
1.222074e-003,1.265113e-004
1.528864e-003,1.300767e-004
2.022516e-003,1.482280e-004
2.777096e-003,1.712413e-004
3.778668e-003,1.932822e-004
4.866627e-003,2.096508e-004
4.958843e-003,2.216436e-004
4.958843e-003,2.286124e-004
4.959168e-003,2.303951e-004
4.959005e-003,2.206712e-004
4.958843e-003,1.939304e-004
4.958843e-003,1.524417e-004
4.762579e-003,1.069013e-004
3.771213e-003,7.011252e-005
2.440809e-003,5.212327e-005
7.763935e-004,5.115087e-005
-1.057376e-003,6.136099e-005
-2.822269e-003,7.059871e-005
-4.480042e-003,7.011252e-005
-4.968512e-003,5.406805e-005
-4.968512e-003,2.651694e-005
-4.968188e-003,-4.599598e-006
-4.968350e-003,-3.182657e-005
-4.968512e-003,-4.965376e-005
-4.968350e-003,-5.483985e-005
-4.968350e-003,-5.030202e-005
-4.775814e-003,-4.155049e-005
-3.106694e-003,-3.296103e-005
-1.595757e-003,-3.134038e-005
-3.199787e-004,-3.879538e-005
7.058950e-004,-5.483985e-005
1.492075e-003,-7.477388e-005
2.064816e-003,-9.486997e-005
2.435136e-003,-1.157764e-004
2.592179e-003,-1.404103e-004
2.523463e-003,-1.726613e-004
2.268208e-003,-2.118811e-004
1.930301e-003,-2.522354e-004
1.630803e-003,-2.912931e-004
1.441835e-003,-3.308371e-004
1.373119e-003,-3.687603e-004
1.389163e-003,-4.044147e-004
1.436649e-003,-4.326141e-004
1.471655e-003,-4.470379e-004
1.473113e-003,-4.426621e-004
1.434542e-003,-4.214316e-004
1.359343e-003,-3.919357e-004
1.266318e-003,-3.604950e-004
1.172968e-003,-3.267854e-004
1.086263e-003,-2.914552e-004
1.010902e-003,-2.558008e-004
9.489932e-004,-2.245222e-004
9.042631e-004,-2.018331e-004
8.734707e-004,-1.874093e-004
8.462437e-004,-1.763888e-004
8.115617e-004,-1.614788e-004
7.647247e-004,-1.412206e-004
7.152948e-004,-1.152902e-004
6.798024e-004,-8.482193e-005
6.658648e-004,-5.305713e-005
6.642442e-004,-2.080613e-005
6.642442e-004,3.665733e-006
6.616511e-004,1.987227e-005
6.585719e-004,3.186510e-005
6.571133e-004,4.385793e-005
6.637580e-004,6.265751e-005
6.802886e-004,9.199134e-005
6.926056e-004,1.316974e-004
6.856368e-004,1.748067e-004
6.535479e-004,2.145127e-004
6.065489e-004,2.488706e-004
5.822391e-004,2.780424e-004
6.339379e-004,3.017039e-004
7.872519e-004,3.237448e-004
1.025164e-003,3.462718e-004
1.315748e-003,3.705817e-004
1.621241e-003,3.924605e-004
1.900805e-003,4.070464e-004
2.105818e-003,4.135290e-004
2.166593e-003,4.136911e-004
1.979893e-003,4.098015e-004
1.447345e-003,4.042913e-004
5.840218e-004,3.986190e-004
-4.292107e-004,3.919743e-004
-1.330780e-003,3.814401e-004
-1.974666e-003,3.697714e-004
-2.363785e-003,3.574544e-004
-2.610611e-003,3.448133e-004
-2.852737e-003,3.307136e-004
-3.150452e-003,3.156415e-004
-3.446060e-003,3.017039e-004
-3.641187e-003,2.934386e-004
-3.699045e-003,2.927903e-004
-3.644429e-003,2.983005e-004
-3.491601e-003,3.013798e-004
-3.214144e-003,2.945730e-004
-2.773163e-003,2.754493e-004
-2.166551e-003,2.467637e-004
-1.447791e-003,2.125679e-004
-7.125008e-004,1.796687e-004
-5.986387e-005,1.551968e-004
4.470765e-004,1.401247e-004
7.951931e-004,1.326697e-004
9.980991e-004,1.310491e-004
1.071677e-003,1.378558e-004
1.028892e-003,1.535762e-004
8.861118e-004,1.739964e-004
6.848265e-004,1.908512e-004
4.885653e-004,1.937684e-004
3.697714e-004,1.741585e-004
3.835469e-004,1.347766e-004
5.392918e-004,8.275361e-005
7.906552e-004,2.392390e-005
1.059522e-003,-3.782299e-005
1.274259e-003,-9.276313e-005
1.394025e-003,-1.318209e-004
1.413473e-003,-1.540238e-004
1.360964e-003,-1.621271e-004
1.273448e-003,-1.627754e-004
1.173454e-003,-1.681235e-004
1.069570e-003,-1.849783e-004
9.580689e-004,-2.131776e-004
8.191788e-004,-2.488320e-004
6.263209e-004,-2.921034e-004
3.553475e-004,-3.431540e-004
-5.896120e-006,-4.000390e-004
-4.431483e-004,-4.515757e-004
-9.220513e-004,-4.882024e-004
-1.392365e-003,-5.058676e-004
-1.780673e-003,-5.042469e-004
-2.008213e-003,-4.873921e-004
-2.027013e-003,-4.601652e-004
-1.842096e-003,-4.256453e-004
-1.502407e-003,-3.896668e-004
-1.086872e-003,-3.601709e-004
-6.852738e-004,-3.344025e-004
-3.744326e-004,-3.060411e-004
-1.925954e-004,-2.723315e-004
-1.245279e-004,-2.331117e-004
-1.102662e-004,-1.922712e-004
-8.384954e-005,-1.545100e-004
-4.923729e-006,-1.245279e-004
1.273216e-004,-1.028112e-004
2.863077e-004,-8.773911e-005
4.313562e-004,-7.266703e-005
5.294057e-004,-5.176061e-005
5.689497e-004,-2.469570e-005
5.585775e-004,6.096713e-006
5.148199e-004,4.045456e-005
4.550177e-004,7.740546e-005
3.874365e-004,1.140322e-004
3.187208e-004,1.514693e-004
2.585945e-004,1.859892e-004
2.188885e-004,2.120818e-004
2.133783e-004,2.263435e-004
2.537325e-004,2.331503e-004
3.487029e-004,2.359054e-004
5.039615e-004,2.346088e-004
6.977918e-004,2.329882e-004
8.634226e-004,2.325020e-004
9.248455e-004,2.346088e-004
8.465679e-004,2.412535e-004
6.584098e-004,2.522740e-004
4.389733e-004,2.673460e-004
2.791768e-004,2.827423e-004
2.182402e-004,2.900352e-004
2.290986e-004,2.846870e-004
2.433604e-004,2.689667e-004
1.905271e-004,2.469258e-004
-2.330684e-006,2.237505e-004
-4.060354e-004,2.031682e-004
-9.904428e-004,1.879340e-004
-1.544382e-003,1.785342e-004
-1.781484e-003,1.696206e-004
-1.519100e-003,1.594105e-004
-7.661444e-004,1.459591e-004
2.981384e-004,1.300767e-004
1.385598e-003,1.145184e-004
2.276798e-003,1.004187e-004
2.919228e-003,8.761557e-005
3.339953e-003,7.675720e-005
3.562309e-003,6.573675e-005
3.585646e-003,5.471631e-005
3.399918e-003,4.175109e-005
2.998479e-003,2.732727e-005
2.380358e-003,1.355172e-005
1.547015e-003,1.883015e-006
5.146578e-004,-9.785688e-006
-6.201236e-004,-2.485776e-005
-1.668362e-003,-4.381940e-005
-2.483551e-003,-6.537409e-005
-3.067312e-003,-8.449780e-005
-3.592568e-003,-9.535618e-005
-4.230298e-003,-9.908367e-005
-4.966405e-003,-9.713889e-005
-4.968350e-003,-9.373552e-005
-4.968350e-003,-9.324933e-005
-4.968350e-003,-9.535618e-005
-4.770304e-003,-9.859748e-005
-3.572633e-003,-1.034594e-004
-2.288100e-003,-1.079973e-004
-1.166122e-003,-1.075111e-004
-3.522297e-004,-9.843541e-005
1.214872e-004,-8.352541e-005
2.898731e-004,-7.088431e-005
2.261814e-004,-6.942573e-005
5.406805e-005,-8.190475e-005
-6.748094e-005,-1.016767e-004
-1.610624e-005,-1.185315e-004
2.597290e-004,-1.261486e-004
7.572698e-004,-1.245279e-004
1.424494e-003,-1.180453e-004
2.153952e-003,-1.107524e-004
2.817289e-003,-1.028112e-004
3.290847e-003,-9.260107e-005
3.463286e-003,-7.947377e-005
3.312077e-003,-6.359137e-005
2.945483e-003,-4.689865e-005
2.517466e-003,-3.539201e-005
2.110518e-003,-3.117831e-005
1.720426e-003,-3.053005e-005
1.312506e-003,-3.312309e-005
8.843291e-004,-4.219875e-005
4.926169e-004,-5.030202e-005
2.111094e-004,-5.305713e-005
4.661304e-005,-5.192267e-005
-6.796714e-005,-4.738484e-005
-1.763888e-004,-3.992984e-005
-2.122053e-004,-2.793700e-005
-6.456377e-005,-1.156841e-005
2.825802e-004,1.014835e-005
7.193465e-004,3.672706e-005
1.089828e-003,6.330578e-005
1.274097e-003,8.242948e-005
1.185123e-003,9.474644e-005
6.979538e-004,1.026876e-004
-3.011791e-004,1.085220e-004
-1.730271e-003,1.140322e-004
-3.263087e-003,1.269974e-004
-4.387503e-003,1.519555e-004
-4.686353e-003,1.846927e-004
-4.113935e-003,2.148369e-004
-3.041219e-003,2.341226e-004
-2.013075e-003,2.406053e-004
-1.418295e-003,2.402811e-004
-1.294639e-003,2.404432e-004
-1.411326e-003,2.376881e-004
-1.488470e-003,2.290986e-004
-1.346662e-003,2.179161e-004
-9.470092e-004,2.090025e-004
-3.441264e-004,2.000889e-004
3.501615e-004,1.903650e-004
9.899958e-004,1.777239e-004
1.459662e-003,1.616794e-004
1.715888e-003,1.445005e-004
1.795948e-003,1.276457e-004
1.764670e-003,1.112771e-004
1.669537e-003,9.701536e-005
1.546205e-003,8.291568e-005
1.433407e-003,6.525056e-005
1.370364e-003,4.531652e-005
1.376198e-003,2.781346e-005
1.440862e-003,9.986281e-006
1.529512e-003,-1.010982e-005
1.606007e-003,-3.296103e-005
1.648793e-003,-5.483985e-005
1.644741e-003,-7.315322e-005
1.593852e-003,-8.806324e-005
1.506823e-003,-1.023250e-004
1.396780e-003,-1.167488e-004
1.277986e-003,-1.308485e-004
1.162596e-003,-1.428413e-004
1.059684e-003,-1.528894e-004
9.770306e-004,-1.639098e-004
9.196594e-004,-1.739578e-004
8.846532e-004,-1.822232e-004
8.588848e-004,-1.867610e-004
8.238787e-004,-1.917850e-004
7.710453e-004,-1.948643e-004
7.041123e-004,-1.903264e-004
6.269692e-004,-1.759026e-004
5.451261e-004,-1.538618e-004
4.674968e-004,-1.261486e-004
3.963501e-004,-1.011905e-004
3.213138e-004,-8.725291e-005
2.307193e-004,-8.628052e-005
1.226217e-004,-9.405965e-005
1.883015e-006,-1.060525e-004
-1.204763e-004,-1.157764e-004
-2.395943e-004,-1.157764e-004
-3.499608e-004,-1.044318e-004
-4.352071e-004,-8.384954e-005
-4.690787e-004,-6.002594e-005
-4.347209e-004,-4.252288e-005
-3.264613e-004,-4.025397e-005
-1.562927e-004,-5.062615e-005
4.547859e-005,-6.278104e-005
2.406053e-004,-6.877746e-005
4.052637e-004,-6.699475e-005
5.260024e-004,-6.278104e-005
5.929354e-004,-6.018800e-005
6.012007e-004,-5.921561e-005
5.639257e-004,-5.646050e-005
4.768966e-004,-4.738484e-005
3.091589e-004,-3.409549e-005
8.048470e-005,-1.383732e-005
-1.049180e-004,1.338965e-005
-1.454344e-004,4.434413e-005
-2.404744e-005,7.270556e-005
1.885823e-004,9.701536e-005
3.900295e-004,1.182459e-004
4.976409e-004,1.385041e-004
4.741415e-004,1.603829e-004
3.240689e-004,1.837203e-004
7.157111e-005,2.060853e-004
-2.718453e-004,2.265056e-004
-7.073147e-004,2.431983e-004
-1.194483e-003,2.584324e-004
-1.625739e-003,2.751252e-004
-1.863003e-003,2.940868e-004
-1.832048e-003,3.183966e-004
-1.572257e-003,3.525924e-004
-1.221224e-003,3.947294e-004
-9.295062e-004,4.378388e-004
-7.985575e-004,4.707381e-004
-8.392359e-004,4.882411e-004
-9.790981e-004,4.924549e-004
-1.115557e-003,4.845136e-004
-1.172442e-003,4.647417e-004
-1.126254e-003,4.313562e-004
-1.006811e-003,3.880847e-004
-8.675972e-004,3.399513e-004
-7.512344e-004,2.936006e-004
-6.724707e-004,2.550291e-004
-6.266062e-004,2.271538e-004
-6.047274e-004,2.068957e-004
-5.890070e-004,1.884202e-004
-5.634008e-004,1.616794e-004
-5.272602e-004,1.201907e-004
-4.930644e-004,6.217132e-005
-4.658375e-004,-2.492749e-006
-4.329382e-004,-6.116039e-005
-3.851289e-004,-1.036215e-004
-3.243544e-004,-1.302002e-004
-2.621213e-004,-1.428413e-004
-1.956746e-004,-1.431655e-004
-1.130213e-004,-1.394379e-004
-5.896120e-006,-1.349001e-004
1.250527e-004,-1.302002e-004
2.914938e-004,-1.235555e-004
5.271368e-004,-1.191798e-004
8.430023e-004,-1.211246e-004
1.187878e-003,-1.253383e-004
1.480730e-003,-1.293899e-004
1.680233e-003,-1.405724e-004
1.815072e-003,-1.661787e-004
1.932084e-003,-2.028055e-004
2.031430e-003,-2.451045e-004
2.087181e-003,-2.825416e-004
2.096094e-003,-3.036101e-004
2.095284e-003,-3.042584e-004
2.154924e-003,-2.875656e-004
2.322176e-003,-2.613110e-004
2.535455e-003,-2.373254e-004
2.604496e-003,-2.241981e-004
2.277446e-003,-2.204706e-004
1.367447e-003,-2.225774e-004
-1.491618e-004,-2.287359e-004
-2.093946e-003,-2.418632e-004
-4.188161e-003,-2.613110e-004
-4.968350e-003,-2.793003e-004
-4.968188e-003,-2.867553e-004
-4.968512e-003,-2.789762e-004
-4.968512e-003,-2.582318e-004
-4.968350e-003,-2.287359e-004
-4.887640e-003,-1.984297e-004
-3.571337e-003,-1.733096e-004
-2.521475e-003,-1.549962e-004
-1.776136e-003,-1.391138e-004
-1.258175e-003,-1.191798e-004
-8.616009e-004,-8.806324e-005
-5.104054e-004,-4.398147e-005
-1.788198e-004,1.144487e-005
1.255389e-004,7.529860e-005
3.798194e-004,1.454729e-004
5.726772e-004,2.140265e-004
7.036261e-004,2.712356e-004
7.861174e-004,3.089969e-004
8.472161e-004,3.318480e-004
9.135009e-004,3.483787e-004
1.004258e-003,3.606957e-004
1.113004e-003,3.710679e-004
1.221912e-003,3.819262e-004
1.315586e-003,3.913261e-004
1.386084e-003,3.897054e-004
1.432597e-003,3.681507e-004
1.446372e-003,3.266619e-004
1.420118e-003,2.738286e-004
1.353671e-003,2.182402e-004
1.265831e-003,1.595726e-004
1.178802e-003,1.046324e-004
1.105711e-003,5.957827e-005
1.051094e-003,2.943412e-005
1.010254e-003,1.160693e-005
9.755720e-004,5.772582e-006
9.436450e-004,7.717366e-006
9.151215e-004,5.772582e-006
8.972943e-004,-7.192643e-006
9.008598e-004,-3.053005e-005
9.331108e-004,-6.359137e-005
9.948577e-004,-1.007043e-004
1.082211e-003,-1.374932e-004
1.182368e-003,-1.687718e-004
1.270855e-003,-1.908126e-004
1.328227e-003,-2.008607e-004
1.349295e-003,-1.971332e-004
1.348323e-003,-1.849783e-004
1.354319e-003,-1.718510e-004
1.387543e-003,-1.653684e-004
1.439566e-003,-1.715269e-004
1.484944e-003,-1.862748e-004
1.497585e-003,-2.034537e-004
1.458690e-003,-2.178775e-004
1.349781e-003,-2.253326e-004
1.144120e-003,-2.185258e-004
8.284165e-004,-1.966470e-004
4.422146e-004,-1.643960e-004
6.816773e-005,-1.308485e-004
-2.118811e-004,-1.041077e-004
-3.509331e-004,-9.065628e-005
-3.361852e-004,-9.260107e-005
-1.901644e-004,-1.029732e-004
4.110282e-005,-1.083214e-004
2.965178e-004,-1.042698e-004
5.172509e-004,-9.162867e-005
6.584098e-004,-7.574627e-005
6.992503e-004,-5.953974e-005
6.491721e-004,-4.317115e-005
5.397780e-004,-2.453363e-005
3.994293e-004,-2.654814e-006
2.485465e-004,2.181705e-005
9.863601e-005,4.580272e-005
-4.025397e-005,6.800567e-005
-1.629374e-004,8.648112e-005
-2.483458e-004,9.701536e-005
-2.647144e-004,9.782569e-005
-2.096122e-004,9.328786e-005
-1.240417e-004,8.615699e-005
-6.780507e-005,7.853991e-005
-6.472583e-005,7.546067e-005
-7.898758e-005,8.064677e-005
-4.576419e-005,9.393612e-005
7.400208e-005,1.133840e-004
2.529222e-004,1.391524e-004
4.110980e-004,1.680000e-004
4.734932e-004,1.974959e-004
3.957018e-004,2.281262e-004
1.707551e-004,2.577842e-004
-1.849783e-004,2.825802e-004
-6.570745e-004,3.010556e-004
-1.216362e-003,3.099692e-004
-1.765601e-003,3.093210e-004
-2.132193e-003,3.020280e-004
-2.147590e-003,2.937627e-004
-1.743074e-003,2.874421e-004
-9.922255e-004,2.801492e-004
-8.709085e-005,2.705873e-004
7.107570e-004,2.602152e-004
1.146227e-003,2.529222e-004
1.081401e-003,2.498430e-004
5.770530e-004,2.535705e-004
-1.331174e-004,2.597290e-004
-7.684134e-004,2.641047e-004
-1.144405e-003,2.654013e-004
-1.212472e-003,2.642668e-004
-1.044248e-003,2.582704e-004
-7.727891e-004,2.444948e-004
-5.437909e-004,2.258573e-004
-4.838267e-004,2.055991e-004
-6.881910e-004,1.840444e-004
-1.177952e-003,1.602208e-004
-1.844365e-003,1.336421e-004
-2.486469e-003,1.073875e-004
-2.886122e-003,8.259155e-005
-2.894064e-003,6.071273e-005
-2.504782e-003,4.223728e-005
-1.864623e-003,3.073064e-005
-1.177466e-003,2.635488e-005
-5.988930e-004,2.797553e-005
-1.784957e-004,3.316162e-005
1.198666e-004,3.932010e-005
3.628026e-004,4.045456e-005
5.929354e-004,2.927205e-005
8.253373e-004,3.827799e-006
1.049312e-003,-3.150244e-005
1.236173e-003,-7.072225e-005
1.344919e-003,-1.041077e-004
1.315099e-003,-1.225832e-004
1.110572e-003,-1.216107e-004
7.726660e-004,-1.058904e-004
4.240633e-004,-7.898758e-005
1.867996e-004,-5.143648e-005
1.151667e-004,-3.766092e-005
1.833962e-004,-4.738484e-005
3.156415e-004,-8.028410e-005
4.313562e-004,-1.246900e-004
4.869446e-004,-1.634236e-004
4.918066e-004,-1.878955e-004
4.971547e-004,-1.997262e-004
5.469088e-004,-2.044261e-004
6.444722e-004,-2.058847e-004
7.618076e-004,-2.047502e-004
8.645570e-004,-2.037779e-004
9.220903e-004,-2.036158e-004
9.186870e-004,-2.050744e-004
8.671501e-004,-2.063709e-004
8.021619e-004,-2.068571e-004
7.485182e-004,-2.065330e-004
7.045984e-004,-2.070192e-004
6.610029e-004,-2.097743e-004
6.146522e-004,-2.147983e-004
5.608465e-004,-2.211189e-004
4.832171e-004,-2.232257e-004
3.501615e-004,-2.186879e-004
1.389903e-004,-2.112329e-004
-1.489998e-004,-2.047502e-004
-4.830164e-004,-2.000504e-004
-8.071469e-004,-1.924333e-004
-1.053000e-003,-1.770371e-004
-1.165960e-003,-1.556445e-004
-1.120581e-003,-1.313347e-004
-8.995241e-004,-1.045939e-004
-4.781544e-004,-8.028410e-005
1.310491e-004,-6.326724e-005
8.220959e-004,-5.435365e-005
1.448317e-003,-5.224680e-005
1.907774e-003,-5.451572e-005
2.185555e-003,-5.921561e-005
2.318935e-003,-6.083626e-005
2.357993e-003,-5.516398e-005
2.331738e-003,-4.057810e-005
2.221533e-003,-1.983374e-005
1.970493e-003,7.485573e-007
1.502609e-003,2.084466e-005
7.490044e-004,4.304761e-005
-3.203028e-004,7.011252e-005
-1.619904e-003,9.993253e-005
-2.941387e-003,1.291043e-004
-4.022205e-003,1.527658e-004
-4.668526e-003,1.728619e-004
-4.809848e-003,1.939304e-004
-4.487174e-003,2.175920e-004
-3.828860e-003,2.410915e-004
-3.021933e-003,2.574601e-004
-2.251960e-003,2.589186e-004
-1.622173e-003,2.456293e-004
-1.131764e-003,2.250470e-004
-7.027769e-004,2.055991e-004
-2.595283e-004,1.903650e-004
2.368777e-004,1.816135e-004
7.848209e-004,1.782101e-004
1.329037e-003,1.804790e-004
1.766452e-003,1.882582e-004
2.010361e-003,1.986303e-004
2.064329e-003,2.060853e-004
2.021544e-003,2.090025e-004
1.977138e-003,2.085163e-004
1.950397e-003,2.104611e-004
1.893350e-003,2.211574e-004
1.735498e-003,2.393087e-004
1.432435e-003,2.581083e-004
9.851338e-004,2.715597e-004
4.222805e-004,2.782044e-004
-2.058847e-004,2.812837e-004
-8.316188e-004,2.827423e-004
-1.388637e-003,2.819319e-004
-1.807900e-003,2.757735e-004
-2.022637e-003,2.652392e-004
-2.015830e-003,2.521119e-004
-1.834317e-003,2.383363e-004
-1.556699e-003,2.281262e-004
-1.245209e-003,2.195368e-004
-9.248063e-004,2.064095e-004
-5.998655e-004,1.806411e-004
-2.849726e-004,1.396385e-004
-7.192643e-006,8.696731e-005
2.184023e-004,2.943412e-005
3.958639e-004,-3.134038e-005
5.425331e-004,-9.146661e-005
6.707268e-004,-1.464067e-004
7.814175e-004,-1.919471e-004
8.684467e-004,-2.274394e-004
9.254937e-004,-2.528836e-004
9.467243e-004,-2.690902e-004
9.382969e-004,-2.750866e-004
9.173905e-004,-2.731418e-004
9.041011e-004,-2.677937e-004
9.053976e-004,-2.645523e-004
9.159319e-004,-2.645523e-004
9.170663e-004,-2.647144e-004
8.903255e-004,-2.640662e-004
8.363577e-004,-2.595283e-004
7.640765e-004,-2.515871e-004
6.783439e-004,-2.400805e-004
5.887217e-004,-2.305186e-004
5.044477e-004,-2.261429e-004
4.281149e-004,-2.246843e-004
3.597233e-004,-2.245222e-004
2.987867e-004,-2.251705e-004
2.425500e-004,-2.211189e-004
1.856651e-004,-2.120432e-004
1.281319e-004,-1.992400e-004
8.161915e-005,-1.870851e-004
6.119892e-005,-1.784957e-004
7.140904e-005,-1.728234e-004
1.054428e-004,-1.669890e-004
1.551968e-004,-1.595340e-004
2.119197e-004,-1.475412e-004
2.655633e-004,-1.295519e-004
3.002453e-004,-1.083214e-004
3.062417e-004,-8.968389e-005
3.039728e-004,-7.396356e-005
3.499994e-004,-6.002594e-005
4.811103e-004,-3.992984e-005
6.754267e-004,-1.464765e-005
8.760638e-004,9.662150e-006
1.027919e-003,3.137890e-005
1.091773e-003,4.969229e-005
1.057091e-003,6.832980e-005
9.418624e-004,9.166720e-005
7.814175e-004,1.188942e-004
6.060627e-004,1.448246e-004
4.247115e-004,1.681620e-004
2.286124e-004,1.890685e-004
-7.354709e-006,2.085163e-004
-3.081479e-004,2.271538e-004
-6.800878e-004,2.467637e-004
-1.087520e-003,2.658874e-004
-1.461729e-003,2.830664e-004
-1.703368e-003,2.947351e-004
-1.715847e-003,2.960316e-004
-1.497545e-003,2.879283e-004
-1.117502e-003,2.738286e-004
-6.340612e-004,2.577842e-004
-5.548811e-005,2.449810e-004
5.989318e-004,2.367157e-004
1.239253e-003,2.313675e-004
1.761914e-003,2.256952e-004
2.131263e-003,2.175920e-004
2.374199e-003,2.072198e-004
2.513252e-003,1.974959e-004
2.492508e-003,1.867996e-004
2.125104e-003,1.767515e-004
1.166485e-003,1.660552e-004
-4.690787e-004,1.514693e-004
-2.466210e-003,1.342904e-004
-4.358493e-003,1.158149e-004
-4.968512e-003,9.588091e-005
-4.968188e-003,7.448828e-005
-4.968512e-003,5.536457e-005
-4.968350e-003,3.737532e-005
-4.968350e-003,2.019640e-005
-4.157693e-003,2.045080e-006
-2.937173e-003,-1.675450e-005
-1.785211e-003,-3.393342e-005
-7.867267e-004,-4.495386e-005
6.687121e-005,-5.078821e-005
8.295510e-004,-5.176061e-005
1.521733e-003,-4.462973e-005
2.096256e-003,-3.668853e-005
2.454746e-003,-3.263690e-005
2.508553e-003,-3.328516e-005
2.219913e-003,-3.522994e-005
1.596607e-003,-3.717473e-005
7.128638e-004,-4.057810e-005
-2.464010e-004,-4.754691e-005
-1.026907e-003,-5.905355e-005
-1.443901e-003,-7.866345e-005
-1.436609e-003,-1.045939e-004
-1.100647e-003,-1.355484e-004
-6.364922e-004,-1.655305e-004
-2.267911e-004,-1.872472e-004
5.471631e-005,-1.956746e-004
2.441707e-004,-1.909747e-004
4.384871e-004,-1.789819e-004
7.036261e-004,-1.669890e-004
1.016575e-003,-1.616409e-004
1.307644e-003,-1.647201e-004
1.521733e-003,-1.702304e-004
1.648955e-003,-1.736337e-004
1.708919e-003,-1.721751e-004
1.728853e-003,-1.666649e-004
1.723343e-003,-1.595340e-004
1.673102e-003,-1.491618e-004
1.557874e-003,-1.344139e-004
1.388029e-003,-1.122110e-004
1.203112e-003,-7.833932e-005
1.049960e-003,-3.296103e-005
9.475346e-004,2.035846e-005
8.776844e-004,7.286763e-005
8.279303e-004,1.124116e-004
8.284165e-004,1.331559e-004
9.532070e-004,1.386662e-004
1.283659e-003,1.355869e-004
1.827065e-003,1.276457e-004
2.470629e-003,1.141943e-004
3.045154e-003,9.361199e-005
3.406725e-003,6.914012e-005
3.477872e-003,4.645098e-005
3.254544e-003,3.445814e-005
2.807565e-003,3.964424e-005
2.251029e-003,6.346784e-005
1.682826e-003,9.669123e-005
1.101821e-003,1.286181e-004
4.109360e-004,1.550348e-004
-4.982505e-004,1.759412e-004
-1.660907e-003,1.971717e-004
-3.006051e-003,2.232643e-004
-4.339207e-003,2.542187e-004
-4.968674e-003,2.877662e-004
-4.968350e-003,3.211517e-004
-4.968512e-003,3.491891e-004
-4.552162e-003,3.683128e-004
-3.068122e-003,3.739850e-004
-1.517641e-003,3.676645e-004
-2.721694e-004,3.559958e-004
4.345975e-004,3.414099e-004
5.836976e-004,3.266619e-004
3.247172e-004,3.115899e-004
-1.321450e-004,2.936006e-004
-5.789590e-004,2.684805e-004
-8.622491e-004,2.297469e-004
-9.220513e-004,1.738343e-004
-7.828371e-004,1.080358e-004
-5.202913e-004,4.142696e-005
-2.190120e-004,-1.432352e-005
6.055066e-005,-5.402952e-005
2.877662e-004,-7.704279e-005
4.561522e-004,-8.368748e-005
5.744600e-004,-7.558420e-005
6.540340e-004,-5.808115e-005
6.992503e-004,-3.895745e-005
7.167534e-004,-2.372331e-005
7.125397e-004,-1.772689e-005
6.922815e-004,-1.999580e-005
6.593822e-004,-3.150244e-005
6.277795e-004,-5.597430e-005
6.156246e-004,-9.600444e-005
6.302104e-004,-1.481895e-004
6.668373e-004,-2.028055e-004
7.195085e-004,-2.523975e-004
7.788245e-004,-2.938862e-004
8.371680e-004,-3.251648e-004
8.940530e-004,-3.485022e-004
9.421865e-004,-3.681121e-004
9.933992e-004,-3.844807e-004
1.084156e-003,-3.912874e-004
1.240387e-003,-3.826980e-004
1.458041e-003,-3.582261e-004
1.703733e-003,-3.183580e-004
1.935973e-003,-2.668213e-004
2.118784e-003,-2.102605e-004
2.224450e-003,-1.583996e-004
2.198034e-003,-1.175591e-004
1.971303e-003,-8.871149e-005
1.528540e-003,-7.056019e-005
8.940530e-004,-6.391550e-005
8.810177e-005,-6.715681e-005
-8.580354e-004,-7.493595e-005
-1.858627e-003,-8.206682e-005
-2.758252e-003,-8.547019e-005
-3.352062e-003,-8.271508e-005
-3.495004e-003,-7.104638e-005
-3.191940e-003,-4.868137e-005
-2.614824e-003,-1.821308e-005
-2.027175e-003,1.808955e-005
-1.669497e-003,5.568870e-005
-1.623146e-003,8.858796e-005
-1.766574e-003,1.090082e-004
-1.881478e-003,1.072255e-004
-1.794125e-003,8.032264e-005
-1.463025e-003,3.543054e-005
-9.568953e-004,-1.302700e-005
-4.010113e-004,-5.208474e-005
7.918817e-005,-7.331530e-005
4.062361e-004,-7.607040e-005
5.684635e-004,-6.569822e-005
6.037938e-004,-5.046408e-005
5.668429e-004,-3.506788e-005
5.012064e-004,-1.448558e-005
4.342734e-004,1.468618e-005
3.781987e-004,5.082674e-005
3.441650e-004,8.939829e-005
3.328204e-004,1.263492e-004
3.292550e-004,1.607070e-004
3.180725e-004,1.889064e-004
2.934386e-004,2.041406e-004
2.663737e-004,1.992786e-004
2.538946e-004,1.749688e-004
2.602152e-004,1.357490e-004
2.769079e-004,9.053275e-005
2.957075e-004,4.807163e-005
3.276344e-004,1.452411e-005
3.867882e-004,-3.141010e-006
4.720346e-004,-2.492749e-006
5.618189e-004,1.549650e-005
6.409068e-004,4.969229e-005
7.078398e-004,9.069481e-005
7.694247e-004,1.282940e-004
8.280924e-004,1.563313e-004
8.697432e-004,1.761032e-004
8.626123e-004,1.911753e-004
7.713694e-004,2.049509e-004
5.691118e-004,2.226160e-004
2.572980e-004,2.467637e-004
-1.285796e-004,2.775562e-004
-5.355255e-004,3.132105e-004
-9.092480e-004,3.579406e-004
-1.187028e-003,4.104497e-004
-1.309549e-003,4.639314e-004
-1.259147e-003,5.041235e-004
-1.083306e-003,5.156302e-004
-8.782936e-004,4.914824e-004
-7.554481e-004,4.375147e-004
-7.862405e-004,3.666921e-004
-9.405267e-004,2.918179e-004
-1.105347e-003,2.218057e-004
-1.162880e-003,1.608691e-004
-1.057538e-003,1.091703e-004
-8.045539e-004,6.249545e-005
-4.664857e-004,1.857574e-005
-1.232314e-004,-2.064406e-005
1.555210e-004,-5.646050e-005
3.346032e-004,-8.854943e-005
4.209840e-004,-1.146419e-004
4.522626e-004,-1.374932e-004
4.713863e-004,-1.575893e-004
5.122268e-004,-1.694200e-004
5.786736e-004,-1.677994e-004
6.551685e-004,-1.515928e-004
7.258290e-004,-1.259865e-004
7.785003e-004,-1.018388e-004
7.992447e-004,-9.438378e-005
7.785003e-004,-1.120489e-004
7.157810e-004,-1.502963e-004
6.138419e-004,-1.959987e-004
4.730070e-004,-2.382978e-004
2.803113e-004,-2.673075e-004
4.142696e-005,-2.799486e-004
-1.870851e-004,-2.781658e-004
-3.147926e-004,-2.645523e-004
-2.851347e-004,-2.439701e-004
-1.125351e-004,-2.203085e-004
1.402868e-004,-2.028055e-004
4.099636e-004,-1.932436e-004
6.488480e-004,-1.861127e-004
8.151271e-004,-1.752544e-004
8.838429e-004,-1.569410e-004
8.689329e-004,-1.302002e-004
8.428403e-004,-9.956988e-005
8.948633e-004,-7.023606e-005
1.060818e-003,-4.900550e-005
1.303593e-003,-3.555408e-005
1.544909e-003,-2.664048e-005
1.710053e-003,-1.497178e-005
1.760942e-003,1.883015e-006
1.698385e-003,2.359977e-005
1.555929e-003,4.855783e-005
1.361450e-003,7.351589e-005
1.107655e-003,9.507057e-005
7.485182e-004,1.184080e-004
2.111094e-004,1.461212e-004
-5.483287e-004,1.722137e-004
-1.463025e-003,1.905271e-004
-2.340123e-003,1.992786e-004
-2.943980e-003,1.970097e-004
-3.124521e-003,1.822617e-004
-2.877857e-003,1.577899e-004
-2.332344e-003,1.304008e-004
-1.682462e-003,1.093323e-004
-1.103726e-003,9.636710e-005
-6.972667e-004,9.134307e-005
-4.711856e-004,9.182927e-005
-3.742705e-004,9.685330e-005
-3.334301e-004,1.020394e-004
-2.760590e-004,1.049566e-004
-1.475412e-004,1.080358e-004
6.314371e-005,1.137081e-004
3.166139e-004,1.169494e-004
5.495019e-004,1.091703e-004
7.104329e-004,8.858796e-005
7.835244e-004,5.957827e-005
7.945448e-004,2.829966e-005
7.870898e-004,7.485573e-007
7.927621e-004,-2.129233e-005
8.018378e-004,-3.620233e-005
7.763935e-004,-4.560212e-005
6.950366e-004,-5.046408e-005
5.673291e-004,-5.467778e-005
4.153117e-004,-6.407757e-005
2.255332e-004,-7.769106e-005
-5.127441e-005,-9.130454e-005
-4.632444e-004,-1.049180e-004
-1.007784e-003,-1.152902e-004
-1.593164e-003,-1.227452e-004
-2.062829e-003,-1.269589e-004
-2.278052e-003,-1.284175e-004
-2.168334e-003,-1.263107e-004
-1.733999e-003,-1.227452e-004
-1.064831e-003,-1.242038e-004
-3.185201e-004,-1.324691e-004
3.488649e-004,-1.467309e-004
8.608295e-004,-1.614788e-004
1.242980e-003,-1.665028e-004
1.551067e-003,-1.580754e-004
1.821879e-003,-1.447861e-004
2.048447e-003,-1.311726e-004
2.202734e-003,-1.191798e-004
2.243088e-003,-1.067007e-004
2.120404e-003,-8.952183e-005
1.785252e-003,-6.926366e-005
1.203436e-003,-4.851930e-005
4.242253e-004,-2.971972e-005
-3.528779e-004,-1.270286e-005
-8.902864e-004,6.420843e-006
-1.099837e-003,2.862379e-005
-1.081686e-003,5.228533e-005
-9.904428e-004,7.853991e-005
-8.779695e-004,1.106288e-004
-7.165525e-004,1.504969e-004
-5.042469e-004,1.903650e-004
-2.765452e-004,2.205092e-004
-6.910160e-005,2.350950e-004
9.020862e-005,2.300710e-004
1.830721e-004,2.128921e-004
1.984683e-004,1.921477e-004
1.316974e-004,1.733481e-004
-2.048200e-005,1.623277e-004
-2.486699e-004,1.587623e-004
-5.279084e-004,1.600588e-004
-8.353463e-004,1.598967e-004
-1.148619e-003,1.540623e-004
-1.424130e-003,1.380179e-004
-1.602239e-003,1.154908e-004
-1.631249e-003,9.490851e-005
-1.492035e-003,8.340187e-005
-1.208421e-003,8.307774e-005
-8.484736e-004,8.923623e-005
-4.992229e-004,9.733949e-005
-2.352185e-004,1.062531e-004
-9.470791e-005,1.148425e-004
-6.731888e-005,1.222976e-004
-9.746302e-005,1.257009e-004
-1.143178e-004,1.261871e-004
-6.456377e-005,1.235941e-004
6.168512e-005,1.177597e-004
2.457913e-004,1.119254e-004
4.840274e-004,1.072255e-004
8.028102e-004,1.052807e-004
1.223046e-003,1.093323e-004
1.762887e-003,1.167873e-004
2.416499e-003,1.214872e-004
3.110143e-003,1.247285e-004
3.720000e-003,1.281319e-004
4.122412e-003,1.333180e-004
4.247691e-003,1.368834e-004
4.084164e-003,1.334801e-004
3.656470e-003,1.239182e-004
3.020034e-003,1.088461e-004
2.252812e-003,9.215340e-005
1.427573e-003,7.821578e-005
5.835356e-004,7.108491e-005
-2.985861e-004,6.962632e-005
-1.307929e-003,7.302970e-005
-2.584518e-003,7.951231e-005
-4.187837e-003,8.486046e-005
-4.968350e-003,8.567078e-005
-4.968350e-003,7.610894e-005
-4.968350e-003,5.730935e-005
-4.968350e-003,2.959619e-005
-4.968512e-003,-7.100305e-007
-4.968350e-003,-2.777494e-005
-2.848199e-003,-4.932962e-005
-9.087619e-004,-6.602235e-005
5.127130e-004,-8.190475e-005
1.316396e-003,-9.600444e-005
1.649279e-003,-1.096179e-004
1.716374e-003,-1.232314e-004
1.672616e-003,-1.371690e-004
1.580725e-003,-1.473791e-004
1.442483e-003,-1.538618e-004
1.244601e-003,-1.595340e-004
1.010254e-003,-1.684476e-004
8.117238e-004,-1.804405e-004
7.475458e-004,-1.911368e-004
8.708776e-004,-1.971332e-004
1.132614e-003,-1.977815e-004
1.397915e-003,-1.921092e-004
1.517357e-003,-1.825473e-004
1.431300e-003,-1.729855e-004
1.195657e-003,-1.660166e-004
9.452657e-004,-1.598582e-004
8.089686e-004,-1.527273e-004
8.386266e-004,-1.434896e-004
1.005716e-003,-1.340898e-004
1.236011e-003,-1.246900e-004
1.442969e-003,-1.154523e-004
1.574242e-003,-1.065387e-004
1.635665e-003,-9.778715e-005
1.667106e-003,-8.757704e-005
1.700167e-003,-7.590833e-005
1.723667e-003,-6.569822e-005
1.697250e-003,-5.856735e-005
1.589477e-003,-5.500191e-005
1.401967e-003,-5.111234e-005
1.166161e-003,-4.544006e-005
9.298695e-004,-3.895745e-005
7.331221e-004,-3.685060e-005
5.726772e-004,-3.798505e-005
3.932708e-004,-4.252288e-005
1.611932e-004,-4.689865e-005
-7.720486e-005,-4.333321e-005
-2.421874e-004,-2.453363e-005
-2.955068e-004,8.851824e-006
-2.410529e-004,4.580272e-005
-9.065628e-005,7.400208e-005
1.188942e-004,8.923623e-005
3.352514e-004,9.280167e-005
5.363746e-004,9.247754e-005
7.285841e-004,9.231547e-005
9.241972e-004,9.118101e-005
1.109600e-003,8.777764e-005
1.235363e-003,8.437427e-005
1.199222e-003,8.453633e-005
8.809257e-004,9.020862e-005
1.835583e-004,9.847395e-005
-9.073032e-004,1.056048e-004
-2.236888e-003,1.093323e-004
-3.537952e-003,1.119254e-004
-4.492036e-003,1.182459e-004
-4.826866e-003,1.316974e-004
-4.417809e-003,1.517934e-004
-3.351413e-003,1.778860e-004
-1.881802e-003,2.124059e-004
-2.977757e-004,2.519498e-004
1.138610e-003,2.877662e-004
2.239685e-003,3.083486e-004
2.935597e-003,3.085106e-004
3.208679e-003,2.877662e-004
3.095232e-003,2.508154e-004
2.665432e-003,2.065715e-004
2.024947e-003,1.645966e-004
1.240387e-003,1.341283e-004
2.613496e-004,1.164632e-004
-9.972495e-004,1.075496e-004
-2.456649e-003,1.022015e-004
-3.866135e-003,9.717743e-005
-4.900768e-003,9.166720e-005
-4.968350e-003,8.729144e-005
-4.968350e-003,8.226741e-005
-3.956892e-003,7.886404e-005
-2.507375e-003,7.789165e-005
-9.395542e-004,7.789165e-005
4.384871e-004,7.675720e-005
1.407639e-003,7.124698e-005
1.951694e-003,5.860588e-005
2.153466e-003,3.753739e-005
2.118459e-003,1.144487e-005
1.919604e-003,-1.578211e-005
1.581697e-003,-4.090223e-005
1.125320e-003,-6.440170e-005
5.977973e-004,-8.725291e-005
8.210535e-005,-1.097800e-004
-3.352128e-004,-1.303623e-004
-5.993792e-004,-1.436516e-004
-7.103939e-004,-1.494860e-004
-7.170386e-004,-1.481895e-004
-7.074767e-004,-1.439758e-004
-7.580412e-004,-1.391138e-004
-8.693800e-004,-1.363587e-004
-9.658089e-004,-1.342519e-004
-9.612711e-004,-1.337657e-004
-8.291878e-004,-1.337657e-004
-6.167202e-004,-1.303623e-004
-4.131662e-004,-1.212866e-004
-2.882139e-004,-1.083214e-004
-2.595283e-004,-9.470791e-005
-3.023136e-004,-8.077030e-005
-3.627639e-004,-6.796714e-005
-3.805911e-004,-5.905355e-005
-3.217614e-004,-5.532604e-005
-1.804405e-004,-5.565017e-005
2.181705e-005,-5.856735e-005
2.521119e-004,-6.099833e-005
4.702519e-004,-5.840528e-005
6.452826e-004,-5.143648e-005
7.645627e-004,-4.333321e-005
8.357094e-004,-3.474375e-005
8.767120e-004,-2.680255e-005
9.058838e-004,-2.599222e-005
9.365142e-004,-3.312309e-005
9.742755e-004,-4.317115e-005
1.015440e-003,-5.192267e-005
1.050932e-003,-4.965376e-005
1.069246e-003,-3.539201e-005
1.064708e-003,-1.189254e-005
1.033429e-003,1.841368e-005
9.804339e-004,5.179914e-005
9.214421e-004,8.405014e-005
8.733086e-004,1.091703e-004
8.368439e-004,1.276457e-004
7.997309e-004,1.381800e-004
7.486803e-004,1.482280e-004
6.770474e-004,1.657311e-004
5.859666e-004,1.903650e-004
4.932652e-004,2.167816e-004
4.123946e-004,2.355812e-004
3.499994e-004,2.396328e-004
2.979764e-004,2.284504e-004
2.464396e-004,2.070577e-004
1.902029e-004,1.840444e-004
1.289422e-004,1.644345e-004
6.638502e-005,1.498487e-004
1.128280e-005,1.381800e-004
-2.307504e-005,1.247285e-004
-2.064406e-005,1.138702e-004
2.327564e-005,1.067393e-004
9.669123e-005,9.863601e-005
1.756171e-004,8.437427e-005
2.350950e-004,6.265751e-005
2.545429e-004,4.061663e-005
2.325020e-004,1.922400e-005
1.842065e-004,-1.034161e-006
1.440143e-004,-2.015787e-005
1.412592e-004,-3.377136e-005
1.782101e-004,-3.976777e-005
2.370398e-004,-3.976777e-005
2.889007e-004,-3.733679e-005
3.128864e-004,-3.522994e-005
3.203414e-004,-3.814712e-005
3.631267e-004,-4.625038e-005
4.837033e-004,-5.937768e-005
6.658648e-004,-7.542214e-005
8.553194e-004,-8.676672e-005
1.005230e-003,-8.401160e-005
1.087883e-003,-6.148453e-005
1.086749e-003,-2.113026e-005
9.865924e-004,2.684107e-005
7.710453e-004,7.076078e-005
4.274666e-004,1.005808e-004
-3.490581e-005,1.081979e-004
-5.847933e-004,9.037068e-005
-1.175683e-003,5.585077e-005
-1.737564e-003,1.484824e-005
-2.200423e-003,-2.583016e-005
-2.530712e-003,-6.294311e-005
-2.741722e-003,-9.324933e-005
-2.836530e-003,-1.164247e-004
-2.773487e-003,-1.297140e-004
-2.497003e-003,-1.349001e-004
-2.009510e-003,-1.344139e-004
-1.389934e-003,-1.319829e-004
-7.651721e-004,-1.327933e-004
-2.525595e-004,-1.361966e-004
9.199134e-005,-1.363587e-004
2.780424e-004,-1.332795e-004
3.543751e-004,-1.284175e-004
3.720403e-004,-1.232314e-004
3.681507e-004,-1.180453e-004
3.640991e-004,-1.122110e-004
3.665301e-004,-1.058904e-004
3.673404e-004,-9.632857e-005
3.571303e-004,-8.206682e-005
3.334687e-004,-6.278104e-005
2.944109e-004,-3.863332e-005
2.410915e-004,-8.165035e-006
1.856651e-004,2.667901e-005
1.425557e-004,6.330578e-005
1.239182e-004,9.620504e-005
1.457970e-004,1.177597e-004
2.475741e-004,1.261871e-004
4.961824e-004,1.263492e-004
9.156077e-004,1.297526e-004
1.435514e-003,1.394765e-004
1.929004e-003,1.582761e-004
2.282146e-003,1.842065e-004
2.451343e-003,2.135403e-004
2.482622e-003,2.394708e-004
2.457502e-003,2.542187e-004
2.408720e-003,2.525981e-004
2.297542e-003,2.378501e-004
2.026244e-003,2.148369e-004
1.490292e-003,1.890685e-004
6.237278e-004,1.660552e-004
-5.731247e-004,1.495245e-004
-1.954894e-003,1.380179e-004
-3.286425e-003,1.294284e-004
-4.327538e-003,1.219734e-004
-4.944526e-003,1.172735e-004
-4.968512e-003,1.163011e-004
-4.968512e-003,1.174356e-004
-4.583117e-003,1.179218e-004
-4.114421e-003,1.148425e-004
-3.654639e-003,1.090082e-004
-3.203123e-003,1.080358e-004
-2.678678e-003,1.141943e-004
-2.014696e-003,1.266733e-004
-1.214741e-003,1.443384e-004
-3.637363e-004,1.644345e-004
4.164462e-004,1.846927e-004
1.029054e-003,2.007372e-004
1.448317e-003,2.111094e-004
1.702274e-003,2.148369e-004
1.851051e-003,2.085163e-004
1.948614e-003,1.916615e-004
2.017168e-003,1.670276e-004
2.049905e-003,1.389903e-004
2.037426e-003,1.119254e-004
1.958338e-003,8.729144e-005
1.803079e-003,5.957827e-005
1.631938e-003,2.603075e-005
1.546205e-003,-1.059602e-005
1.592070e-003,-4.560212e-005
1.739873e-003,-8.093236e-005
1.904208e-003,-1.167488e-004
1.986862e-003,-1.528894e-004
1.907450e-003,-1.849783e-004
1.618810e-003,-2.078295e-004
1.139582e-003,-2.232257e-004
5.694359e-004,-2.389460e-004
7.416415e-005,-2.634179e-004
-1.942160e-004,-2.985861e-004
-1.951884e-004,-3.397507e-004
-1.918548e-005,-3.810773e-004
1.595726e-004,-4.155972e-004
1.668655e-004,-4.384484e-004
-8.838737e-005,-4.520619e-004
-5.745832e-004,-4.559515e-004
-1.167580e-003,-4.506033e-004
-1.694293e-003,-4.358554e-004
-1.993789e-003,-4.102490e-004
-1.984552e-003,-3.732982e-004
-1.681165e-003,-3.314853e-004
-1.189621e-003,-2.917793e-004
-6.525366e-004,-2.590421e-004
-1.917850e-004,-2.323013e-004
1.257009e-004,-2.029675e-004
2.952213e-004,-1.616409e-004
3.511338e-004,-1.029732e-004
3.418961e-004,-2.923353e-005
3.042970e-004,5.325772e-005
2.610255e-004,1.344524e-004
2.261814e-004,2.062474e-004
2.033302e-004,2.662116e-004
1.960373e-004,3.140208e-004
2.054371e-004,3.482167e-004
2.302331e-004,3.632887e-004
2.615117e-004,3.521062e-004
2.874421e-004,3.153174e-004
3.028383e-004,2.650771e-004
3.143450e-004,2.171058e-004
3.297412e-004,1.848548e-004
3.587509e-004,1.793446e-004
3.982949e-004,2.021958e-004
4.347596e-004,2.402811e-004
4.563143e-004,2.765838e-004
4.553419e-004,2.970040e-004
4.289252e-004,2.960316e-004
3.811159e-004,2.754493e-004
3.235827e-004,2.433604e-004
2.710735e-004,2.106232e-004
2.362295e-004,1.824238e-004
2.213195e-004,1.602208e-004
2.190506e-004,1.425557e-004
2.192126e-004,1.273216e-004
2.138645e-004,1.146805e-004
1.916615e-004,1.023635e-004
1.440143e-004,9.069481e-005
7.384002e-005,8.388807e-005
-4.761664e-006,8.648112e-005
-6.472583e-005,9.733949e-005
-8.417367e-005,1.093323e-004
-5.872941e-005,1.140322e-004
8.365628e-006,1.088461e-004
1.163011e-004,9.150514e-005
2.626462e-004,6.589881e-005
4.491834e-004,3.932010e-005
6.736440e-004,1.987227e-005
9.112320e-004,1.079661e-005
1.123214e-003,9.986281e-006
1.273935e-003,1.452411e-005
1.356750e-003,2.084466e-005
1.389974e-003,2.992031e-005
1.396942e-003,4.272347e-005
1.387867e-003,5.828175e-005
1.375874e-003,7.302970e-005
1.377008e-003,8.453633e-005
1.412663e-003,9.296373e-005
1.501313e-003,9.717743e-005
1.620269e-003,9.620504e-005
1.685582e-003,8.858796e-005
1.615893e-003,7.513654e-005
1.363071e-003,5.487838e-005
8.976185e-004,2.700314e-005
2.368777e-004,-8.813297e-006
-4.951713e-004,-5.111234e-005
-1.110857e-003,-9.681477e-005
-1.477773e-003,-1.402483e-004
-1.571447e-003,-1.755785e-004
-1.496411e-003,-2.078295e-004
-1.447467e-003,-2.418632e-004
-1.642594e-003,-2.746004e-004
-2.277404e-003,-2.982619e-004
-3.448653e-003,-3.029619e-004
-4.968350e-003,-2.867553e-004
-4.968350e-003,-2.536940e-004
-4.968350e-003,-2.130156e-004
-4.968188e-003,-1.778474e-004
-4.968350e-003,-1.574272e-004
-4.968350e-003,-1.538618e-004
-3.296311e-003,-1.600202e-004
-1.247316e-003,-1.712027e-004
3.151553e-004,-1.872472e-004
1.239577e-003,-2.039399e-004
1.599038e-003,-2.196603e-004
1.526757e-003,-2.340841e-004
1.167296e-003,-2.462390e-004
6.823955e-004,-2.504527e-004
2.564877e-004,-2.339220e-004
5.374392e-005,-1.942160e-004
1.522796e-004,-1.366828e-004
5.115786e-004,-7.185670e-005
1.005392e-003,-1.432352e-005
1.497261e-003,2.116879e-005
1.893350e-003,2.327564e-005
2.160921e-003,-4.437533e-006
2.300622e-003,-4.511593e-005
2.324607e-003,-7.542214e-005
2.250867e-003,-7.833932e-005
2.111653e-003,-5.354332e-005
1.948290e-003,-1.092015e-005
1.796110e-003,3.672706e-005
1.669051e-003,8.291568e-005
1.559656e-003,1.312112e-004
1.455772e-003,1.845306e-004
1.342488e-003,2.370398e-004
1.214294e-003,2.806354e-004
1.074756e-003,3.111037e-004
9.348936e-004,3.286068e-004
8.099410e-004,3.368721e-004
7.131880e-004,3.409237e-004
6.491721e-004,3.462718e-004
6.044420e-004,3.582647e-004
5.483674e-004,3.778746e-004
4.616624e-004,4.002396e-004
3.538890e-004,4.214702e-004
2.519498e-004,4.384871e-004
1.887444e-004,4.509661e-004
1.861513e-004,4.590694e-004
2.318537e-004,4.548557e-004
2.832284e-004,4.292493e-004
3.036487e-004,3.780367e-004
2.822560e-004,3.075383e-004
2.312055e-004,2.290986e-004
1.764274e-004,1.539003e-004
1.363972e-004,8.956036e-005
1.239182e-004,3.996837e-005
1.454729e-004,4.638125e-006
2.044647e-004,-1.772689e-005
3.013798e-004,-2.761287e-005
4.187151e-004,-2.469570e-005
5.238955e-004,-1.318906e-005
5.815908e-004,2.207145e-006
5.765668e-004,2.165498e-005
5.232473e-004,3.883391e-005
4.699278e-004,4.807163e-005
4.739794e-004,4.969229e-005
5.695980e-004,4.807163e-005
7.360392e-004,4.709924e-005
9.013460e-004,4.936815e-005
9.810822e-004,5.341979e-005
9.272764e-004,5.390598e-005
7.541905e-004,4.677511e-005
5.183853e-004,3.413401e-005
2.783665e-004,1.906194e-005
6.638502e-005,5.772582e-006
-1.083214e-004,-6.868513e-006
-2.472114e-004,-2.177852e-005
-3.564434e-004,-3.863332e-005
-4.527101e-004,-6.018800e-005
-5.420081e-004,-8.336335e-005
-6.241752e-004,-1.054042e-004
-7.475069e-004,-1.243659e-004
-9.870394e-004,-1.415448e-004
-1.344231e-003,-1.579134e-004
-1.711471e-003,-1.723372e-004
-1.918753e-003,-1.809267e-004
-1.822810e-003,-1.820611e-004
-1.363841e-003,-1.770371e-004
-5.987309e-004,-1.686097e-004
3.096451e-004,-1.588858e-004
1.147037e-003,-1.501342e-004
1.765156e-003,-1.430034e-004
2.108735e-003,-1.387897e-004
2.198844e-003,-1.386276e-004
2.101928e-003,-1.402483e-004
1.896753e-003,-1.428413e-004
1.649765e-003,-1.477033e-004
1.384950e-003,-1.577513e-004
1.082049e-003,-1.712027e-004
7.050846e-004,-1.843300e-004
1.824238e-004,-1.916230e-004
-5.998655e-004,-1.880575e-004
-1.695589e-003,-1.718510e-004
-2.944142e-003,-1.455964e-004
-3.933393e-003,-1.114006e-004
-4.233215e-003,-7.461182e-005
-3.686728e-003,-4.446767e-005
-2.496841e-003,-2.842320e-005
-1.105023e-003,-2.518189e-005
-1.448558e-005,-2.712668e-005
4.261701e-004,-2.258885e-005
1.872858e-004,-1.196227e-006
-5.183466e-004,3.802358e-005
-1.422185e-003,8.437427e-005
-2.378857e-003,1.268354e-004
-3.371672e-003,1.561692e-004
-4.385396e-003,1.717275e-004
-4.968350e-003,1.801549e-004
-4.968350e-003,1.871237e-004
-4.968512e-003,1.984683e-004
-4.188809e-003,2.161334e-004
-2.710119e-003,2.367157e-004
-1.155101e-003,2.556773e-004
2.054371e-004,2.684805e-004
1.219156e-003,2.702632e-004
1.881843e-003,2.624841e-004
2.272422e-003,2.470879e-004
2.488294e-003,2.286124e-004
2.610168e-003,2.088404e-004
2.683584e-003,1.871237e-004
2.734473e-003,1.636242e-004
2.762672e-003,1.435281e-004
2.737390e-003,1.312112e-004
2.589910e-003,1.261871e-004
2.235471e-003,1.237561e-004
1.611841e-003,1.164632e-004
7.263153e-004,1.023635e-004
-2.694143e-004,8.372601e-005
-1.073744e-003,6.589881e-005
-1.433529e-003,4.969229e-005
-1.220576e-003,3.510641e-005
-4.659995e-004,2.100672e-005
6.211348e-004,7.879432e-006
1.688823e-003,-2.006553e-006
2.440160e-003,-1.092015e-005
2.707408e-003,-2.583016e-005
2.483918e-003,-5.030202e-005
1.893350e-003,-7.963584e-005
1.133424e-003,-1.070249e-004
4.239012e-004,-1.264727e-004
-6.197072e-005,-1.370070e-004
-2.705488e-004,-1.426792e-004
-2.851347e-004,-1.483515e-004
-2.626076e-004,-1.559686e-004
-3.350507e-004,-1.639098e-004
-5.920863e-004,-1.694200e-004
-1.062562e-003,-1.694200e-004
-1.653452e-003,-1.632615e-004
-2.169468e-003,-1.549962e-004
-2.402032e-003,-1.509446e-004
-2.219222e-003,-1.506204e-004
-1.617798e-003,-1.506204e-004
-7.248178e-004,-1.488377e-004
2.414156e-004,-1.472171e-004
1.030350e-003,-1.509446e-004
1.500989e-003,-1.587237e-004
1.633558e-003,-1.613168e-004
1.485917e-003,-1.519170e-004
1.185771e-003,-1.277692e-004
9.006977e-004,-9.065628e-005
7.413874e-004,-4.268495e-005
7.350668e-004,7.555301e-006
8.562917e-004,5.050261e-005
1.043315e-003,7.400208e-005
1.225639e-003,7.594687e-005
1.373443e-003,5.893001e-005
1.495802e-003,2.862379e-005
1.611193e-003,-8.165035e-006
1.727070e-003,-3.992984e-005
1.830144e-003,-6.245691e-005
1.901777e-003,-7.331530e-005
1.928842e-003,-7.315322e-005
1.903884e-003,-6.521203e-005
1.823986e-003,-5.937768e-005
1.688661e-003,-5.937768e-005
1.494506e-003,-6.116039e-005
1.235039e-003,-5.710876e-005
9.083148e-004,-4.787104e-005
5.362125e-004,-3.344723e-005
1.607070e-004,-1.643037e-005
-1.880575e-004,-1.358292e-006
-5.317981e-004,1.031041e-005
-9.299924e-004,1.873781e-005
-1.402737e-003,2.700314e-005
-1.885368e-003,3.575467e-005
-2.267842e-003,4.434413e-005
-2.456811e-003,5.244739e-005
-2.414673e-003,6.362991e-005
-2.181299e-003,8.226741e-005
-1.853117e-003,1.114392e-004
-1.527365e-003,1.500107e-004
-1.249585e-003,1.876099e-004
-1.011349e-003,2.156472e-004
-7.731132e-004,2.336365e-004
-5.172121e-004,2.420638e-004
-2.587180e-004,2.456293e-004
-3.328516e-005,2.464396e-004
1.276457e-004,2.433604e-004
2.149989e-004,2.378501e-004
2.419018e-004,2.268297e-004
2.359054e-004,2.125679e-004
2.226160e-004,1.991165e-004
2.111094e-004,1.921477e-004
2.033302e-004,1.910133e-004
1.953890e-004,1.924718e-004
1.880961e-004,2.000889e-004
1.893926e-004,2.162954e-004
2.086784e-004,2.396328e-004
2.545429e-004,2.602152e-004
3.209897e-004,2.676702e-004
3.809539e-004,2.547049e-004
4.089912e-004,2.226160e-004
3.966742e-004,1.780480e-004
3.542131e-004,1.307250e-004
3.055935e-004,8.712937e-005
2.663737e-004,5.390598e-005
2.427121e-004,3.056858e-005
2.300710e-004,1.193106e-005
2.284504e-004,-6.868513e-006
2.404432e-004,-2.453363e-005
2.645909e-004,-3.555408e-005
2.887387e-004,-3.215070e-005
2.916559e-004,-1.399939e-005
2.577842e-004,1.193106e-005
1.940925e-004,3.413401e-005
1.177597e-004,4.774750e-005
4.499239e-005,5.228533e-005
-8.165035e-006,4.450620e-005
-3.733679e-005,2.489629e-005
-5.338126e-005,-4.113403e-006
-6.699475e-005,-4.090223e-005
-8.303922e-005,-8.271508e-005
-1.024871e-004,-1.235555e-004
-1.212866e-004,-1.579134e-004
-1.360346e-004,-1.815749e-004
-1.467309e-004,-1.938919e-004
-1.551583e-004,-1.938919e-004
-1.658546e-004,-1.817370e-004
-1.767130e-004,-1.609926e-004
-1.891920e-004,-1.379794e-004
-2.023193e-004,-1.185315e-004
-2.251705e-004,-1.032974e-004
-2.677937e-004,-9.033215e-005
-3.378059e-004,-8.255302e-005
-4.402311e-004,-8.190475e-005
-5.698834e-004,-8.530812e-005
-7.052079e-004,-9.065628e-005
-8.103882e-004,-9.227693e-005
-8.564148e-004,-8.303922e-005
-8.361567e-004,-5.840528e-005
-7.539895e-004,-1.999580e-005
-6.175305e-004,2.943412e-005
-4.399070e-004,8.016057e-005
-2.394322e-004,1.208390e-004
-3.393342e-005,1.467694e-004
1.629760e-004,1.607070e-004
3.415720e-004,1.670276e-004
4.919686e-004,1.707551e-004
5.942319e-004,1.733481e-004
6.242140e-004,1.765894e-004
5.817529e-004,1.817755e-004
4.948858e-004,1.843686e-004
4.034809e-004,1.780480e-004
3.376824e-004,1.551968e-004
3.030004e-004,1.111150e-004
2.856594e-004,5.066468e-005
2.626462e-004,-1.464765e-005
2.156472e-004,-7.396356e-005
1.402868e-004,-1.178833e-004
5.115087e-005,-1.442999e-004
-3.474375e-005,-1.562927e-004
-1.078352e-004,-1.661787e-004
-1.690959e-004,-1.883817e-004
-2.224154e-004,-2.271153e-004
-2.705488e-004,-2.729798e-004
-3.121996e-004,-3.123616e-004
-3.439643e-004,-3.322956e-004
-3.622777e-004,-3.264613e-004
-3.676259e-004,-2.987481e-004
-3.619536e-004,-2.583939e-004
-3.457471e-004,-2.196603e-004
-3.131719e-004,-1.943781e-004
-2.643903e-004,-1.833576e-004
-2.094502e-004,-1.778474e-004
-1.637477e-004,-1.710407e-004
-1.370070e-004,-1.585616e-004
-1.353863e-004,-1.400862e-004
-1.538618e-004,-1.122110e-004
-1.806025e-004,-7.299116e-005
-2.023193e-004,-2.048200e-005
-2.055606e-004,4.304761e-005
-1.917850e-004,1.169494e-004
-1.703924e-004,1.997648e-004
-1.512687e-004,2.825802e-004
-1.344139e-004,3.551855e-004
-1.057284e-004,4.076947e-004
-3.798505e-005,4.320045e-004
9.263960e-005,4.221185e-004
2.876042e-004,3.877606e-004
5.350781e-004,3.444891e-004
8.374922e-004,3.026763e-004
1.181719e-003,2.681563e-004
1.509416e-003,2.415777e-004
1.749273e-003,2.209954e-004
1.859316e-003,2.010613e-004
1.819286e-003,1.783722e-004
1.618162e-003,1.508211e-004
1.287386e-003,1.198666e-004
8.919462e-004,8.729144e-005
5.148199e-004,5.568870e-005
2.290986e-004,2.748934e-005
2.441009e-005,2.045080e-006
-2.212809e-004,-1.918548e-005
-6.723086e-004,-3.571614e-005
-1.348931e-003,-5.030202e-005
-2.030578e-003,-6.423963e-005
-2.387933e-003,-7.801519e-005
-2.203664e-003,-9.065628e-005
-1.491873e-003,-9.843541e-005
-4.694029e-004,-1.000561e-004
5.665187e-004,-9.519411e-005
1.338275e-003,-8.368748e-005
1.683637e-003,-6.553616e-005
1.511685e-003,-4.592625e-005
7.955172e-004,-2.664048e-005
-4.228902e-004,-1.124428e-005
-1.930422e-003,-2.816880e-006
-3.380261e-003,-2.330684e-006
-4.411974e-003,-6.868513e-006
-4.818600e-003,-6.706447e-006
-4.606941e-003,3.827799e-006
-3.971640e-003,2.505836e-005
-3.162445e-003,5.536457e-005
-2.355358e-003,8.956036e-005
-1.617636e-003,1.252147e-004
-9.468472e-004,1.582761e-004
-3.284061e-004,1.838824e-004
2.391467e-004,1.999268e-004
7.306910e-004,2.054371e-004
1.112679e-003,1.991165e-004
1.368743e-003,1.830721e-004
1.507957e-003,1.568175e-004
1.565653e-003,1.227837e-004
1.577808e-003,8.275361e-005
1.571649e-003,4.353380e-005
1.562087e-003,1.257933e-005
1.545395e-003,-8.813297e-006
1.512171e-003,-2.096820e-005
1.460958e-003,-2.161646e-005
1.398401e-003,-1.205460e-005
1.336492e-003,2.531276e-006
1.280903e-003,1.614476e-005
1.223370e-003,2.359977e-005
1.155465e-003,2.214118e-005
1.071839e-003,1.501031e-005
9.760582e-004,7.555301e-006
8.828705e-004,6.420843e-006
8.122100e-004,1.403791e-005
7.794728e-004,2.165498e-005
7.919518e-004,2.813760e-005
8.370060e-004,3.170304e-005
8.922703e-004,3.186510e-005
9.340832e-004,3.073064e-005
9.512621e-004,3.121684e-005
9.407279e-004,3.932010e-005
9.060458e-004,5.601284e-005
8.459196e-004,7.691926e-005
7.593766e-004,9.782569e-005
6.624615e-004,1.169494e-004
5.721910e-004,1.269974e-004
4.840274e-004,1.252147e-004
3.762539e-004,1.114392e-004
2.461155e-004,8.939829e-005
1.407730e-004,6.622294e-005
1.376938e-004,5.212327e-005
2.947351e-004,4.580272e-005
6.172452e-004,4.013043e-005
1.071353e-003,2.829966e-005
1.596931e-003,8.527692e-006
2.104846e-003,-1.562004e-005
2.462039e-003,-3.879538e-005
2.541776e-003,-5.824322e-005
2.283929e-003,-7.380149e-005
1.708919e-003,-8.579432e-005
9.097734e-004,-9.551824e-005
3.996837e-005,-1.063766e-004
-7.309763e-004,-1.206384e-004
-1.290264e-003,-1.361966e-004
-1.604184e-003,-1.536997e-004
-1.708392e-003,-1.720131e-004
-1.679869e-003,-1.906506e-004
-1.599808e-003,-2.083157e-004
-1.533199e-003,-2.241981e-004
-1.529148e-003,-2.326255e-004
-1.605643e-003,-2.314910e-004
-1.760253e-003,-2.251705e-004
-2.002379e-003,-2.178775e-004
-2.312248e-003,-2.096122e-004
-2.566043e-003,-1.998883e-004
-2.597646e-003,-1.898403e-004
-2.332182e-003,-1.809267e-004
-1.868513e-003,-1.699062e-004
-1.390906e-003,-1.567789e-004
-1.012646e-003,-1.417068e-004
-7.233592e-004,-1.237176e-004
-4.484965e-004,-9.908367e-005
-1.345760e-004,-6.553616e-005
2.017096e-004,-2.566809e-005
4.982892e-004,1.095867e-005
7.020054e-004,4.126489e-005
8.029722e-004,6.411610e-005
8.438127e-004,8.340187e-005
9.165801e-004,1.067393e-004
1.090801e-003,1.380179e-004
1.346216e-003,1.741585e-004
1.596607e-003,2.051129e-004
1.758673e-003,2.224539e-004
1.784117e-003,2.242366e-004
1.640203e-003,2.133783e-004
1.309103e-003,1.963614e-004
8.182063e-004,1.772377e-004
2.628082e-004,1.589243e-004
-2.225774e-004,1.420695e-004
-5.394151e-004,1.242423e-004
-6.734431e-004,1.073875e-004
-6.708500e-004,9.231547e-005
-6.233649e-004,8.259155e-005
-6.376266e-004,8.599492e-005
-7.818647e-004,1.117633e-004
-1.052514e-003,1.595726e-004
-1.376482e-003,2.174299e-004
-1.630277e-003,2.780424e-004
-1.693482e-003,3.342791e-004
-1.507107e-003,3.790091e-004
-1.097892e-003,4.076947e-004
-5.630766e-004,4.143393e-004
-2.583016e-005,4.002396e-004
4.227667e-004,3.662059e-004
7.433321e-004,3.162898e-004
9.280868e-004,2.584324e-004
9.951819e-004,2.023578e-004
9.838373e-004,1.503349e-004
9.378107e-004,1.072255e-004
8.844911e-004,7.675720e-005
8.321440e-004,5.747142e-005
7.909794e-004,4.239934e-005
7.945448e-004,2.441009e-005
8.909738e-004,2.855407e-006
1.093880e-003,-1.821308e-005
1.349295e-003,-3.360929e-005
1.563870e-003,-3.636440e-005
1.655761e-003,-2.404744e-005
1.586721e-003,-3.303076e-006
1.379926e-003,1.630683e-005
1.105711e-003,2.505836e-005
8.303613e-004,2.116879e-005
5.734875e-004,4.476060e-006
2.979764e-004,-2.664048e-005
-8.093236e-005,-7.250496e-005
-6.452437e-004,-1.289037e-004
-1.411975e-003,-1.890299e-004
-2.268490e-003,-2.413770e-004
-2.982390e-003,-2.737901e-004
-3.330021e-003,-2.818933e-004
-3.222571e-003,-2.703867e-004
-2.717412e-003,-2.499665e-004
-1.963969e-003,-2.240360e-004
-1.133546e-003,-1.927574e-004
-3.796187e-004,-1.609926e-004
1.966855e-004,-1.389517e-004
5.571189e-004,-1.365208e-004
7.263153e-004,-1.554824e-004
7.823899e-004,-1.877334e-004
8.316578e-004,-2.216050e-004
9.582310e-004,-2.494803e-004
1.186905e-003,-2.653627e-004
1.480082e-003,-2.679557e-004
1.781038e-003,-2.562870e-004
2.035806e-003,-2.345703e-004
2.207109e-003,-2.034537e-004
2.302566e-003,-1.671511e-004
2.350538e-003,-1.342519e-004
2.362369e-003,-1.135075e-004
2.310832e-003,-1.075111e-004
2.147469e-003,-1.146419e-004
1.852995e-003,-1.280934e-004
1.448155e-003,-1.404103e-004
9.073424e-004,-1.460826e-004
1.158149e-004,-1.425172e-004
-1.011025e-003,-1.282554e-004
-2.351468e-003,-1.060525e-004
-3.609098e-003,-8.449780e-005
-4.486039e-003,-6.667062e-005
-4.852310e-003,-4.722278e-005
-4.776138e-003,-1.934754e-005
-4.434016e-003,1.290346e-005
-3.968885e-003,4.855783e-005
-3.452381e-003,8.097089e-005
-2.948356e-003,1.067393e-004
-2.500892e-003,1.253768e-004
-2.083574e-003,1.363972e-004
-1.654587e-003,1.422316e-004
-1.200804e-003,1.470936e-004
-7.066664e-004,1.543865e-004
-1.447861e-004,1.636242e-004
5.057442e-004,1.714034e-004
1.197440e-003,1.773998e-004
1.760618e-003,1.814514e-004
1.954449e-003,1.882582e-004
1.585263e-003,2.023578e-004
6.598685e-004,2.234263e-004
-5.037607e-004,2.488706e-004
-1.380534e-003,2.773941e-004
-1.589274e-003,3.078624e-004
-1.057700e-003,3.405996e-004
-2.923353e-005,3.694472e-004
1.064384e-003,3.867882e-004
1.809724e-003,3.879227e-004
1.972438e-003,3.743092e-004
1.512819e-003,3.493511e-004
5.357263e-004,3.198552e-004
-7.428070e-004,2.924662e-004
-1.960080e-003,2.709115e-004
-2.727622e-003,2.558394e-004
-2.760035e-003,2.466017e-004
-2.031389e-003,2.415777e-004
-7.911025e-004,2.352571e-004
5.595500e-004,2.203471e-004
1.629993e-003,1.968476e-004
2.245519e-003,1.691344e-004
2.426709e-003,1.445005e-004
2.321042e-003,1.263492e-004
2.101928e-003,1.150046e-004
1.898374e-003,1.093323e-004
1.764832e-003,1.054428e-004
1.692550e-003,9.831188e-005
1.645227e-003,8.323981e-005
1.595473e-003,5.844381e-005
1.538426e-003,2.943412e-005
1.479758e-003,2.369211e-006
1.415904e-003,-2.031993e-005
1.342488e-003,-3.685060e-005
1.256756e-003,-4.868137e-005
1.170537e-003,-6.261898e-005
1.093231e-003,-8.255302e-005
1.031809e-003,-1.052422e-004
9.851338e-004,-1.263107e-004
9.493173e-004,-1.460826e-004
9.196594e-004,-1.630995e-004
8.911358e-004,-1.768750e-004
8.499712e-004,-1.874093e-004
7.877381e-004,-1.971332e-004
7.084881e-004,-2.058847e-004
6.177314e-004,-2.136638e-004
5.258403e-004,-2.198223e-004
4.475628e-004,-2.254946e-004
3.919743e-004,-2.323013e-004
3.548613e-004,-2.331117e-004
3.256896e-004,-2.271153e-004
2.944109e-004,-2.136638e-004
2.603772e-004,-1.987538e-004
2.256952e-004,-1.878955e-004
1.958752e-004,-1.789819e-004
1.702689e-004,-1.653684e-004
1.480659e-004,-1.468929e-004
1.310491e-004,-1.274451e-004
1.193804e-004,-1.118868e-004
1.062531e-004,-1.034594e-004
8.469840e-005,-9.746302e-005
5.082674e-005,-9.162867e-005
3.989864e-006,-8.563225e-005
-5.289507e-005,-8.287715e-005
-1.130213e-004,-8.401160e-005
-1.674752e-004,-8.741498e-005
-2.102605e-004,-8.952183e-005
-2.462390e-004,-8.871149e-005
-2.797865e-004,-8.368748e-005
-3.154408e-004,-7.282909e-005
-3.512573e-004,-6.018800e-005
-3.825359e-004,-4.787104e-005
-4.079801e-004,-3.539201e-005
-4.249970e-004,-1.967167e-005
-4.288866e-004,-1.520357e-006
-4.188385e-004,1.646890e-005
-4.014975e-004,3.348575e-005
-3.861013e-004,4.418206e-005
-3.799429e-004,5.163707e-005
-3.869116e-004,5.974033e-005
-4.039285e-004,7.254349e-005
-4.254832e-004,9.523264e-005
-4.436345e-004,1.266733e-004
-4.541688e-004,1.590864e-004
-4.570859e-004,1.861513e-004
-4.549791e-004,2.078681e-004
-4.497930e-004,2.258573e-004
-4.428242e-004,2.402811e-004
-4.337485e-004,2.508154e-004
-4.214316e-004,2.556773e-004
-4.066836e-004,2.527602e-004
-3.925839e-004,2.443328e-004
-3.789705e-004,2.321778e-004
-3.676259e-004,2.198609e-004
-3.642225e-004,2.101370e-004
-3.664914e-004,2.017096e-004
-3.677880e-004,1.968476e-004
-3.655190e-004,1.926339e-004
-3.616295e-004,1.887444e-004
-3.587123e-004,1.858272e-004
-3.557951e-004,1.804790e-004
-3.507711e-004,1.701068e-004
-3.418575e-004,1.532520e-004
-3.295405e-004,1.326697e-004
-3.138202e-004,1.137081e-004
-2.961551e-004,9.863601e-005
-2.760590e-004,8.518459e-005
-2.553146e-004,7.367795e-005
-2.399184e-004,6.379197e-005
-2.326255e-004,5.633696e-005
-2.355427e-004,5.017848e-005
-2.428356e-004,4.013043e-005
-2.480217e-004,2.748934e-005
-2.433218e-004,1.484824e-005
-2.306807e-004,4.313994e-006
-2.122053e-004,-5.085794e-006
-1.924333e-004,-1.399939e-005
-1.760647e-004,-2.258885e-005
-1.723372e-004,-3.020592e-005
-1.885437e-004,-3.685060e-005
-2.227395e-004,-4.025397e-005
-2.653627e-004,-4.090223e-005
-3.011791e-004,-4.187462e-005
-3.228959e-004,-4.527799e-005
-3.253268e-004,-4.754691e-005
-3.099306e-004,-4.738484e-005
-2.744383e-004,-3.944364e-005
-2.070192e-004,-2.388537e-005
-1.078352e-004,-6.544382e-006
1.744129e-005,6.258778e-006
1.548727e-004,1.274139e-005
2.769079e-004,1.663096e-005
3.480546e-004,1.954813e-005
3.550234e-004,1.792748e-005
3.179104e-004,6.420843e-006
2.683184e-004,-1.497178e-005
2.282883e-004,-4.074016e-005
1.939304e-004,-6.861539e-005
1.417454e-004,-9.551824e-005
5.860588e-005,-1.169109e-004
-3.474375e-005,-1.350622e-004
-8.887356e-005,-1.524032e-004
-5.013995e-005,-1.690959e-004
1.187321e-004,-1.822232e-004
4.070464e-004,-1.924333e-004
7.360392e-004,-2.039399e-004
9.857821e-004,-2.180396e-004
1.048988e-003,-2.285739e-004
9.360280e-004,-2.314910e-004
7.559733e-004,-2.261429e-004
5.974732e-004,-2.170672e-004
4.605280e-004,-2.112329e-004
2.819319e-004,-2.128535e-004
2.623614e-007,-2.196603e-004
-3.998769e-004,-2.230636e-004
-8.731075e-004,-2.165810e-004
-1.318139e-003,-1.981056e-004
-1.607426e-003,-1.676373e-004
-1.644538e-003,-1.261486e-004
-1.414892e-003,-7.574627e-005
-1.002274e-003,-1.724069e-005
-5.596732e-004,4.256141e-005
-2.243602e-004,9.118101e-005
-4.106429e-005,1.151667e-004
3.753739e-005,1.124116e-004
1.138702e-004,9.296373e-005
2.602152e-004,6.687121e-005
4.725208e-004,4.823370e-005
6.791542e-004,4.288554e-005
7.870898e-004,5.341979e-005
7.177258e-004,8.097089e-005
4.363802e-004,1.187321e-004
-1.967167e-005,1.590864e-004
-5.557837e-004,2.007372e-004
-1.071313e-003,2.511395e-004
-1.496573e-003,3.156415e-004
-1.788615e-003,3.866261e-004
-1.910974e-003,4.486972e-004
-1.824107e-003,4.880791e-004
-1.533362e-003,4.950479e-004
-1.109075e-003,4.741415e-004
-6.570745e-004,4.392974e-004
-2.645523e-004,4.018603e-004
2.116879e-005,3.675024e-004
2.075439e-004,3.389789e-004
3.363859e-004,3.149933e-004
4.451317e-004,2.924662e-004
5.469088e-004,2.663737e-004
6.329655e-004,2.339606e-004
6.734819e-004,1.958752e-004
6.438239e-004,1.555210e-004
5.663567e-004,1.148425e-004
5.187094e-004,7.432621e-005
5.772150e-004,3.413401e-005
7.618076e-004,-6.382317e-006
1.019816e-003,-4.138842e-005
1.260807e-003,-6.423963e-005
1.408449e-003,-7.995997e-005
1.430976e-003,-9.600444e-005
1.347999e-003,-1.112386e-004
1.204084e-003,-1.245279e-004
1.047529e-003,-1.365208e-004
9.149595e-004,-1.502963e-004
8.232304e-004,-1.721751e-004
7.686144e-004,-2.005366e-004
7.318255e-004,-2.274394e-004
6.979538e-004,-2.425115e-004
6.597064e-004,-2.415391e-004
6.232416e-004,-2.282497e-004
5.989318e-004,-2.115570e-004
5.956905e-004,-1.981056e-004
6.063868e-004,-1.914609e-004
6.110868e-004,-1.875713e-004
5.851563e-004,-1.843300e-004
5.211404e-004,-1.793060e-004
4.415663e-004,-1.684476e-004
3.858158e-004,-1.447861e-004
3.939191e-004,-1.099421e-004
4.817585e-004,-7.153257e-005
6.297242e-004,-4.041603e-005
7.930862e-004,-2.275091e-005
9.274385e-004,-1.448558e-005
1.006364e-003,-1.367526e-005
1.024516e-003,-2.129233e-005
1.001502e-003,-3.604027e-005
9.507760e-004,-5.435365e-005
8.729845e-004,-6.958779e-005
7.627800e-004,-7.558420e-005
6.149763e-004,-7.056019e-005
4.308700e-004,-5.662256e-005
2.175920e-004,-3.668853e-005
-2.080613e-005,-1.659243e-005
-2.840002e-004,7.485573e-007
-5.851175e-004,1.355172e-005
-9.236719e-004,2.052053e-005
-1.267088e-003,2.327564e-005
-1.546813e-003,2.635488e-005
-1.679383e-003,3.526847e-005
-1.564316e-003,5.293359e-005
-1.104537e-003,8.291568e-005
-3.065273e-004,1.197045e-004
6.687820e-004,1.590864e-004
1.574891e-003,2.030061e-004
2.228826e-003,2.469258e-004
2.557334e-003,2.827423e-004
2.611626e-003,3.026763e-004
2.520869e-003,3.055935e-004
2.383923e-003,2.953834e-004
2.203868e-003,2.757735e-004
1.890757e-003,2.534084e-004
1.320285e-003,2.329882e-004
4.161220e-004,2.120818e-004
-7.813785e-004,1.872858e-004
-2.054888e-003,1.548727e-004
-3.114149e-003,1.167873e-004
-3.722869e-003,7.578480e-005
-3.785426e-003,3.818565e-005
-3.366162e-003,1.274139e-005
-2.668306e-003,1.883015e-006
-1.986010e-003,4.313994e-006
-1.628656e-003,1.095867e-005
-1.767060e-003,1.760335e-005
-2.289073e-003,2.554455e-005
-2.878181e-003,3.543054e-005
-3.206040e-003,4.547859e-005
-3.095836e-003,5.325772e-005
-2.587921e-003,5.682316e-005
-1.867865e-003,5.358185e-005
-1.153805e-003,4.483033e-005
-6.055377e-004,3.137890e-005
-2.684419e-004,1.808955e-005
-1.013526e-004,8.851824e-006
-3.117831e-005,7.717366e-006
9.338019e-006,1.436204e-005
5.520250e-005,3.121684e-005
1.124116e-004,5.682316e-005
1.739964e-004,8.810177e-005
2.333123e-004,1.210010e-004
2.838767e-004,1.526038e-004
3.255275e-004,1.808031e-004
3.584268e-004,1.991165e-004
3.843572e-004,2.030061e-004
4.067223e-004,1.918236e-004
4.264942e-004,1.701068e-004
4.410801e-004,1.456350e-004
4.482110e-004,1.226217e-004
4.490213e-004,9.977047e-005
4.472386e-004,6.978839e-005
4.470765e-004,2.748934e-005
4.514523e-004,-2.777494e-005
4.593935e-004,-8.887356e-005
4.668485e-004,-1.493239e-004
4.720346e-004,-2.089640e-004
4.681450e-004,-2.700626e-004
4.559901e-004,-3.301888e-004
4.357320e-004,-3.815635e-004
4.070464e-004,-4.131662e-004
3.760919e-004,-4.209454e-004
3.490270e-004,-4.112214e-004
3.315239e-004,-3.914495e-004
3.290929e-004,-3.690845e-004
3.474063e-004,-3.489884e-004
3.866261e-004,-3.344025e-004
4.462662e-004,-3.217614e-004
5.175750e-004,-3.045825e-004
5.871011e-004,-2.818933e-004
6.409068e-004,-2.522354e-004
6.658648e-004,-2.172293e-004
6.585719e-004,-1.776853e-004
6.297242e-004,-1.360346e-004
6.024973e-004,-9.649064e-005
5.995801e-004,-6.294311e-005
6.368551e-004,-3.441962e-005
7.302048e-004,-1.010982e-005
8.951875e-004,1.014835e-005
1.122727e-003,2.797553e-005
1.365340e-003,4.499239e-005
1.548798e-003,6.427817e-005
1.596445e-003,8.810177e-005
1.456583e-003,1.138702e-004
1.123376e-003,1.402868e-004
6.446343e-004,1.645966e-004
1.185701e-004,1.861513e-004
-3.073376e-004,2.091646e-004
-5.138087e-004,2.312055e-004
-4.822060e-004,2.478982e-004
-2.927517e-004,2.553532e-004
-7.056019e-005,2.577842e-004
7.578480e-005,2.584324e-004
9.182927e-005,2.608634e-004
-3.798505e-005,2.618358e-004
-3.125237e-004,2.626462e-004
-7.003459e-004,2.610255e-004
-1.112478e-003,2.547049e-004
-1.438391e-003,2.414156e-004
-1.587491e-003,2.260194e-004
-1.525420e-003,2.149989e-004
-1.281350e-003,2.104611e-004
-9.337199e-004,2.096508e-004
-5.653456e-004,2.090025e-004
-2.318152e-004,1.992786e-004
3.737532e-005,1.786963e-004
2.219677e-004,1.530900e-004
2.908455e-004,1.321835e-004
2.239125e-004,1.190562e-004
2.684107e-005,1.127357e-004
-2.682799e-004,1.081979e-004
-5.825245e-004,1.007429e-004
-8.066607e-004,8.648112e-005
-8.590078e-004,6.995045e-005
-7.293556e-004,5.795762e-005
-4.792889e-004,5.212327e-005
-2.028055e-004,5.277153e-005
1.533444e-005,5.666109e-005
1.266733e-004,5.649903e-005
1.273216e-004,4.839576e-005
4.045456e-005,3.494434e-005
-9.908367e-005,2.295151e-005
-2.549905e-004,1.355172e-005
-3.953390e-004,-5.479652e-007
-4.977643e-004,-2.323711e-005
-5.355255e-004,-5.581224e-005
-4.894990e-004,-9.470791e-005
-3.556330e-004,-1.329553e-004
-1.358725e-004,-1.635857e-004
1.480659e-004,-1.835197e-004
4.571246e-004,-1.948643e-004
7.415494e-004,-1.976194e-004
9.574206e-004,-1.932436e-004
1.083670e-003,-1.836818e-004
1.154492e-003,-1.682856e-004
1.233094e-003,-1.480274e-004
1.357398e-003,-1.242038e-004
1.540209e-003,-1.002181e-004
1.811182e-003,-8.044617e-005
2.230771e-003,-6.229485e-005
2.820854e-003,-4.057810e-005
3.480303e-003,-1.464765e-005
4.005886e-003,1.193106e-005
4.149477e-003,3.235129e-005
3.705414e-003,3.899597e-005
2.645822e-003,2.554455e-005
1.157896e-003,-2.168618e-006
-4.514136e-004,-3.425755e-005
-1.857330e-003,-6.359137e-005
-2.922263e-003,-8.514606e-005
-3.580088e-003,-9.665270e-005
-3.808926e-003,-9.665270e-005
-3.680894e-003,-9.162867e-005
-3.385609e-003,-8.595638e-005
-3.163093e-003,-8.206682e-005
-3.174924e-003,-7.752899e-005
-3.414619e-003,-6.780507e-005
-3.713307e-003,-5.386745e-005
-3.860787e-003,-3.847125e-005
-3.736645e-003,-2.501983e-005
-3.356437e-003,-1.691656e-005
-2.826806e-003,-1.351319e-005
-2.253094e-003,-8.165035e-006
-1.687324e-003,3.665733e-006
-1.150239e-003,2.376183e-005
-6.518884e-004,5.309566e-005
-1.966470e-004,8.939829e-005
2.054371e-004,1.265113e-004
5.422090e-004,1.592484e-004
7.987585e-004,1.845306e-004
9.750858e-004,2.025199e-004
1.084642e-003,2.161334e-004
1.144444e-003,2.287745e-004
1.165999e-003,2.410915e-004
1.166323e-003,2.477361e-004
1.175399e-003,2.438466e-004
1.226449e-003,2.287745e-004
1.333575e-003,2.090025e-004
1.481865e-003,1.926339e-004
1.641986e-003,1.819376e-004
1.788655e-003,1.788584e-004
1.900319e-003,1.798307e-004
1.929653e-003,1.824238e-004
1.786873e-003,1.872858e-004
1.415418e-003,1.921477e-004
8.793051e-004,1.942546e-004
3.452995e-004,1.902029e-004
-1.173047e-005,1.772377e-004
-1.089697e-004,1.563313e-004
2.457216e-005,1.304008e-004
2.856594e-004,1.054428e-004
5.516087e-004,8.291568e-005
7.418735e-004,6.444023e-005
8.313337e-004,5.066468e-005
8.397611e-004,4.013043e-005
8.029722e-004,2.862379e-005
7.559733e-004,1.031041e-005
7.175637e-004,-1.707863e-005
6.895264e-004,-4.527799e-005
6.676476e-004,-6.359137e-005
6.475514e-004,-7.299116e-005
6.269692e-004,-7.850138e-005
6.052523e-004,-8.676672e-005
5.858046e-004,-9.811128e-005
5.699221e-004,-1.122110e-004
5.525811e-004,-1.266348e-004
5.274609e-004,-1.431655e-004
4.934272e-004,-1.600202e-004
4.533971e-004,-1.746061e-004
4.161220e-004,-1.856265e-004
3.893813e-004,-1.956746e-004
3.874365e-004,-2.015090e-004
4.286011e-004,-2.015090e-004
5.216266e-004,-1.995642e-004
6.519272e-004,-1.966470e-004
7.997309e-004,-1.921092e-004
9.720065e-004,-1.836818e-004
1.173940e-003,-1.744440e-004
1.374739e-003,-1.692580e-004
1.521571e-003,-1.682856e-004
1.577808e-003,-1.694200e-004
1.533402e-003,-1.716889e-004
1.389649e-003,-1.750923e-004
1.158868e-003,-1.789819e-004
8.665019e-004,-1.780095e-004
5.264886e-004,-1.695821e-004
1.269974e-004,-1.603444e-004
-3.711913e-004,-1.538618e-004
-1.007784e-003,-1.460826e-004
-1.796556e-003,-1.344139e-004
-2.692940e-003,-1.167488e-004
-3.580413e-003,-9.000802e-005
-4.281673e-003,-5.565017e-005
-4.624282e-003,-2.242678e-005
-4.516832e-003,1.396819e-006
-3.986713e-003,1.468618e-005
-3.177030e-003,2.197911e-005
-2.279997e-003,2.862379e-005
-1.471129e-003,3.850978e-005
-8.512287e-004,5.390598e-005
-4.282383e-004,7.335383e-005
-1.535376e-004,9.328786e-005
3.397195e-005,1.086841e-004
1.759412e-004,1.192183e-004
2.866318e-004,1.292664e-004
3.598854e-004,1.453108e-004
3.880847e-004,1.715654e-004
3.777126e-004,2.078681e-004
3.493511e-004,2.488706e-004
3.230965e-004,2.843629e-004
3.127243e-004,3.102934e-004
3.239069e-004,3.271482e-004
3.600474e-004,3.344411e-004
4.347596e-004,3.336308e-004
5.433434e-004,3.260137e-004
6.671614e-004,3.132105e-004
7.830382e-004,2.970040e-004
8.686088e-004,2.822560e-004
9.144733e-004,2.712356e-004
9.222524e-004,2.623220e-004
8.963220e-004,2.513016e-004
8.452713e-004,2.365536e-004
7.768797e-004,2.206712e-004
6.990883e-004,2.068957e-004
6.141660e-004,1.942546e-004
5.049339e-004,1.809652e-004
3.501615e-004,1.626518e-004
1.375317e-004,1.433661e-004
-1.347380e-004,1.263492e-004
-4.591928e-004,1.107909e-004
-8.272430e-004,9.166720e-005
-1.208421e-003,6.881599e-005
-1.531417e-003,4.677511e-005
-1.701910e-003,3.170304e-005
-1.661879e-003,2.165498e-005
-1.411326e-003,1.241726e-005
-1.008594e-003,3.827799e-006
-5.334187e-004,-4.275467e-006
-6.294311e-005,-1.351319e-005
3.414099e-004,-2.210265e-005
6.438239e-004,-3.166451e-005
8.370060e-004,-4.398147e-005
9.352177e-004,-5.759496e-005
9.655239e-004,-7.153257e-005
9.546655e-004,-8.271508e-005
9.237110e-004,-9.260107e-005
8.794671e-004,-1.031353e-004
8.144788e-004,-1.138316e-004
7.143224e-004,-1.243659e-004
5.540397e-004,-1.332795e-004
3.130485e-004,-1.396000e-004
-5.571990e-006,-1.423551e-004
-3.553089e-004,-1.412206e-004
-6.651777e-004,-1.361966e-004
-8.726213e-004,-1.287416e-004
-9.444162e-004,-1.211246e-004
-8.883416e-004,-1.157764e-004
-7.368106e-004,-1.157764e-004
-5.317981e-004,-1.217728e-004
-2.980999e-004,-1.298761e-004
-4.333321e-005,-1.374932e-004
2.316917e-004,-1.441378e-004
5.144958e-004,-1.512687e-004
7.697488e-004,-1.548341e-004
9.551517e-004,-1.467309e-004
1.044612e-003,-1.287416e-004
1.045260e-003,-1.047560e-004
9.940475e-004,-8.336335e-005
9.327867e-004,-7.234290e-005
8.851394e-004,-7.461182e-005
8.498091e-004,-8.352541e-005
8.209614e-004,-8.757704e-005
8.057273e-004,-7.914964e-005
8.165857e-004,-5.467778e-005
8.538608e-004,-1.886135e-005
8.972943e-004,1.598270e-005
9.186870e-004,3.964424e-005
9.131767e-004,5.098881e-005
9.261420e-004,5.520250e-005
9.979371e-004,5.552663e-005
1.107331e-003,5.828175e-005
1.189174e-003,6.703327e-005
1.190309e-003,8.291568e-005
1.096311e-003,1.043083e-004
9.151215e-004,1.302388e-004
6.762370e-004,1.569795e-004
4.013741e-004,1.788584e-004
7.691926e-005,1.908512e-004
-3.292164e-004,1.914995e-004
-8.505805e-004,1.778860e-004
-1.503866e-003,1.496866e-004
-2.267356e-003,1.180839e-004
-3.065853e-003,9.863601e-005
-3.756741e-003,1.060910e-004
-4.162068e-003,1.446626e-004
-4.117824e-003,2.067336e-004
-3.577333e-003,2.801492e-004
-2.687592e-003,3.499994e-004
-1.733999e-003,3.995914e-004
-9.917393e-004,4.216323e-004
-5.812279e-004,4.179048e-004
-4.253211e-004,3.961880e-004
-3.403989e-004,3.660439e-004
-1.736337e-004,3.352514e-004
1.316974e-004,3.051073e-004
5.371849e-004,2.773941e-004
9.536931e-004,2.558394e-004
1.289979e-003,2.391467e-004
1.485430e-003,2.250470e-004
1.512657e-003,2.046267e-004
1.368257e-003,1.723757e-004
1.068922e-003,1.271595e-004
6.540340e-004,6.800567e-005
1.876099e-004,-2.006553e-006
-2.433218e-004,-7.590833e-005
-5.525423e-004,-1.481895e-004
-6.967805e-004,-2.123673e-004
-6.823567e-004,-2.673075e-004
-5.642111e-004,-3.134961e-004
-4.115456e-004,-3.549848e-004
-2.707109e-004,-3.925839e-004
-1.559686e-004,-4.279142e-004
-5.694670e-005,-4.600031e-004
4.304761e-005,-4.877163e-004
1.500107e-004,-5.084606e-004
2.616738e-004,-5.207775e-004
3.717161e-004,-5.201293e-004
4.696036e-004,-5.063537e-004
5.425331e-004,-4.854474e-004
5.802943e-004,-4.640547e-004
5.871011e-004,-4.478482e-004
5.751082e-004,-4.386105e-004
5.601982e-004,-4.292107e-004
5.532294e-004,-4.081422e-004
5.598741e-004,-3.703810e-004
5.781874e-004,-3.188442e-004
5.956905e-004,-2.600145e-004
6.028214e-004,-1.982676e-004
5.935837e-004,-1.363587e-004
5.666808e-004,-7.153257e-005
5.300540e-004,-2.006553e-006
4.914824e-004,7.205730e-005
4.568005e-004,1.498487e-004
4.284390e-004,2.286124e-004
4.070464e-004,3.051073e-004
3.919743e-004,3.757678e-004
3.830607e-004,4.313562e-004
3.788470e-004,4.590694e-004
3.757678e-004,4.522626e-004
3.697714e-004,4.157979e-004
3.553475e-004,3.623164e-004
3.256896e-004,3.057555e-004
2.791768e-004,2.551911e-004
2.112714e-004,2.153231e-004
1.193804e-004,1.790204e-004
1.387585e-005,1.398006e-004
-7.185670e-005,9.928428e-005
-9.357346e-005,6.265751e-005
-2.388537e-005,3.413401e-005
1.287802e-004,1.727922e-005
3.229345e-004,1.403791e-005
5.131993e-004,2.165498e-005
6.686199e-004,3.397195e-005
7.780141e-004,4.110282e-005
8.313337e-004,3.964424e-005
8.165857e-004,3.591673e-005
7.323117e-004,3.591673e-005
5.960147e-004,4.547859e-005
4.482110e-004,6.298164e-005
3.264999e-004,8.032264e-005
2.441707e-004,9.166720e-005
1.762653e-004,9.669123e-005
5.179914e-005,1.015532e-004
-1.856265e-004,1.164632e-004
-5.280706e-004,1.480659e-004
-9.145963e-004,1.976579e-004
-1.247640e-003,2.538946e-004
-1.427695e-003,3.025142e-004
-1.396416e-003,3.328204e-004
-1.175683e-003,3.449753e-004
-8.580354e-004,3.441650e-004
-5.514079e-004,3.352514e-004
-3.185201e-004,3.252034e-004
-1.716889e-004,3.188828e-004
-9.519411e-005,3.183966e-004
-5.483985e-005,3.234207e-004
-1.432352e-005,3.292550e-004
4.661304e-005,3.300653e-004
1.248906e-004,3.224483e-004
1.927960e-004,3.114278e-004
2.132162e-004,2.961937e-004
1.642725e-004,2.670219e-004
4.239934e-005,2.159713e-004
-1.536997e-004,1.472556e-004
-4.262935e-004,7.691926e-005
-7.531792e-004,2.100672e-005
-1.051055e-003,-1.562004e-005
-1.220900e-003,-4.171256e-005
-1.200804e-003,-6.683268e-005
-9.962771e-004,-9.584238e-005
-6.771705e-004,-1.287416e-004
-3.374817e-004,-1.611547e-004
-5.467778e-005,-1.901644e-004
1.338042e-004,-2.183637e-004
2.384984e-004,-2.476975e-004
2.884145e-004,-2.781658e-004
3.004074e-004,-3.076617e-004
2.804733e-004,-3.334301e-004
2.290986e-004,-3.530400e-004
1.634622e-004,-3.587123e-004
1.266733e-004,-3.481781e-004
1.830721e-004,-3.251648e-004
3.812780e-004,-3.002067e-004
7.070294e-004,-2.844864e-004
1.078484e-003,-2.799486e-004
1.393863e-003,-2.823795e-004
1.583966e-003,-2.835140e-004
1.623834e-003,-2.794623e-004
1.516547e-003,-2.684419e-004
1.273773e-003,-2.554767e-004
9.065320e-004,-2.442942e-004
4.425387e-004,-2.347323e-004
-5.808115e-005,-2.245222e-004
-5.270981e-004,-2.146363e-004
-9.306407e-004,-2.047502e-004
-1.282646e-003,-1.956746e-004
-1.589598e-003,-1.883817e-004
-1.809845e-003,-1.771992e-004
-1.890554e-003,-1.535376e-004
-1.808711e-003,-1.182074e-004
-1.567882e-003,-7.833932e-005
-1.156236e-003,-3.506788e-005
-5.692351e-004,7.393236e-006
1.399627e-004,4.677511e-005
8.462437e-004,8.016057e-005
1.424007e-003,1.075496e-004
1.801296e-003,1.299146e-004
1.921549e-003,1.498487e-004
1.731932e-003,1.691344e-004
1.205867e-003,1.855030e-004
3.903536e-004,1.965235e-004
-5.358497e-004,2.000889e-004
-1.281998e-003,1.942546e-004
-1.651507e-003,1.814514e-004
-1.632384e-003,1.658931e-004
-1.334832e-003,1.542244e-004
-8.928794e-004,1.479039e-004
-4.585445e-004,1.482280e-004
-2.425115e-004,1.519555e-004
-4.565997e-004,1.576278e-004
-1.171470e-003,1.616794e-004
-2.215333e-003,1.637863e-004
-3.238454e-003,1.673517e-004
-3.879911e-003,1.773998e-004
-3.887528e-003,1.923098e-004
-3.201178e-003,2.062474e-004
-1.989576e-003,2.133783e-004
-5.831727e-004,2.114335e-004
6.319932e-004,2.021958e-004
1.370040e-003,1.898788e-004
1.594987e-003,1.782101e-004
1.444914e-003,1.709172e-004
1.141851e-003,1.657311e-004
8.775223e-004,1.615174e-004
7.486803e-004,1.568175e-004
7.569456e-004,1.522796e-004
8.562917e-004,1.526038e-004
9.974508e-004,1.576278e-004
1.148334e-003,1.655690e-004
1.288358e-003,1.694586e-004
1.405532e-003,1.655690e-004
1.498558e-003,1.555210e-004
1.564843e-003,1.423936e-004
1.594825e-003,1.281319e-004
1.579266e-003,1.086841e-004
1.517033e-003,8.453633e-005
1.418983e-003,5.763349e-005
1.302458e-003,3.218923e-005
1.184636e-003,1.128280e-005
1.082211e-003,-3.303076e-006
1.004906e-003,-1.302700e-005
9.522345e-004,-2.356124e-005
9.113940e-004,-3.814712e-005
8.673123e-004,-5.581224e-005
8.101031e-004,-7.380149e-005
7.392805e-004,-9.373552e-005
6.647304e-004,-1.175591e-004
5.965008e-004,-1.408965e-004
5.389676e-004,-1.601823e-004
4.953720e-004,-1.737958e-004
4.610142e-004,-1.828714e-004
4.208219e-004,-1.862748e-004
3.613439e-004,-1.867610e-004
2.757735e-004,-1.870851e-004
1.704310e-004,-1.874093e-004
6.881599e-005,-1.872472e-004
-3.303076e-006,-1.856265e-004
-3.668853e-005,-1.840059e-004
-3.620233e-005,-1.796301e-004
-1.464765e-005,-1.744440e-004
1.290346e-005,-1.705545e-004
3.526847e-005,-1.718510e-004
5.471631e-005,-1.771992e-004
7.999851e-005,-1.843300e-004
1.135460e-004,-1.865989e-004
1.479039e-004,-1.794681e-004
1.861513e-004,-1.614788e-004
2.438466e-004,-1.357104e-004
3.299033e-004,-1.101041e-004
4.318424e-004,-8.871149e-005
5.243817e-004,-6.926366e-005
5.700842e-004,-5.127441e-005
5.247059e-004,-3.360929e-005
3.606957e-004,-1.821308e-005
1.137081e-004,-5.571990e-006
-1.186936e-004,8.851824e-006
-2.402425e-004,2.992031e-005
-2.207947e-004,5.828175e-005
-1.139937e-004,9.199134e-005
-3.555408e-005,1.248906e-004
-9.681477e-005,1.524417e-004
-3.387782e-004,1.723757e-004
-7.092595e-004,1.833962e-004
-1.088654e-003,1.902029e-004
-1.355414e-003,1.979821e-004
-1.440498e-003,2.093267e-004
-1.349741e-003,2.208333e-004
-1.137436e-003,2.271538e-004
-8.740799e-004,2.281262e-004
-6.225546e-004,2.276400e-004
-4.271038e-004,2.237505e-004
-2.963172e-004,2.171058e-004
-2.144742e-004,2.099749e-004
-1.653684e-004,2.060853e-004
-1.386276e-004,2.031682e-004
-1.256624e-004,1.960373e-004
-1.267968e-004,1.840444e-004
-1.441378e-004,1.681620e-004
-1.750923e-004,1.508211e-004
-2.088019e-004,1.342904e-004
-2.413770e-004,1.232699e-004
-2.754107e-004,1.192183e-004
-3.151167e-004,1.188942e-004
-3.519055e-004,1.190562e-004
-3.760533e-004,1.163011e-004
-3.792946e-004,1.116012e-004
-3.616295e-004,1.085220e-004
-3.311612e-004,1.056048e-004
-2.964792e-004,1.000946e-004
-2.617972e-004,8.988449e-005
-2.290601e-004,7.724339e-005
-1.998883e-004,6.330578e-005
-1.739578e-004,5.034055e-005
-1.506204e-004,4.077869e-005
-1.310105e-004,3.397195e-005
-1.167488e-004,2.878586e-005
-1.068628e-004,2.505836e-005
-1.036215e-004,1.776542e-005
-1.081593e-004,6.744974e-006
-1.219349e-004,-2.978945e-006
-1.459206e-004,-7.030578e-006
-1.752544e-004,-3.303076e-006
-1.963229e-004,4.476060e-006
-1.994021e-004,1.225520e-005
-1.841680e-004,1.274139e-005
-1.538618e-004,2.207145e-006
-1.186936e-004,-1.805102e-005
-8.968389e-005,-4.349527e-005
-6.974985e-005,-6.699475e-005
-5.905355e-005,-8.611845e-005
-5.516398e-005,-1.016767e-004
-5.143648e-005,-1.135075e-004
-4.090223e-005,-1.186936e-004
-2.793700e-005,-1.175591e-004
-2.226472e-005,-1.105903e-004
-3.004385e-005,-1.010285e-004
-4.317115e-005,-9.276313e-005
-5.257093e-005,-8.871149e-005
-5.224680e-005,-9.195280e-005
-4.317115e-005,-1.029732e-004
-3.296103e-005,-1.209625e-004
-2.437157e-005,-1.397621e-004
-1.886135e-005,-1.548341e-004
-1.756482e-005,-1.655305e-004
-1.853722e-005,-1.760647e-004
-1.886135e-005,-1.877334e-004
-1.545797e-005,-2.010227e-004
-4.437533e-006,-2.126914e-004
1.225520e-005,-2.160948e-004
3.283749e-005,-2.063709e-004
4.839576e-005,-1.815749e-004
5.406805e-005,-1.454344e-004
5.212327e-005,-1.047560e-004
4.726130e-005,-6.537409e-005
4.645098e-005,-2.647842e-005
6.346784e-005,1.225520e-005
1.004187e-004,4.645098e-005
1.443384e-004,7.027458e-005
1.773998e-004,7.675720e-005
1.906891e-004,6.200925e-005
1.845306e-004,2.700314e-005
1.670276e-004,-2.080613e-005
1.485521e-004,-6.537409e-005
1.412592e-004,-9.000802e-005
1.550348e-004,-8.871149e-005
1.957132e-004,-6.294311e-005
2.691288e-004,-2.048200e-005
3.781987e-004,2.554455e-005
5.104441e-004,5.990240e-005
6.465791e-004,8.178122e-005
7.613214e-004,9.604298e-005
8.415438e-004,1.072255e-004
8.831946e-004,1.197045e-004
8.872462e-004,1.381800e-004
8.504574e-004,1.667035e-004
7.663454e-004,1.986303e-004
6.353966e-004,2.222919e-004
4.629590e-004,2.323399e-004
2.605393e-004,2.307193e-004
3.267542e-005,2.245608e-004
-2.350565e-004,2.196988e-004
-5.671282e-004,2.222919e-004
-9.805568e-004,2.375260e-004
-1.436771e-003,2.655633e-004
-1.825890e-003,3.033245e-004
-2.011616e-003,3.428685e-004
-1.911946e-003,3.757678e-004
-1.539844e-003,3.957018e-004
-9.902808e-004,4.015361e-004
-3.755671e-004,3.890571e-004
2.161334e-004,3.566440e-004
7.287462e-004,3.060797e-004
1.154979e-003,2.457913e-004
1.517033e-003,1.867996e-004
1.828037e-003,1.320215e-004
2.071298e-003,8.048470e-005
2.202734e-003,3.170304e-005
2.186851e-003,-1.010982e-005
2.038399e-003,-4.236082e-005
1.834196e-003,-6.586029e-005
1.655761e-003,-8.547019e-005
1.512009e-003,-1.007043e-004
1.337626e-003,-1.118868e-004
1.082859e-003,-1.216107e-004
7.554871e-004,-1.327933e-004
3.939191e-004,-1.494860e-004
-1.196227e-006,-1.731475e-004
-4.860956e-004,-1.987538e-004
-1.121716e-003,-2.165810e-004
-1.893309e-003,-2.229016e-004
-2.702502e-003,-2.191741e-004
-3.411378e-003,-2.096122e-004
-3.882342e-003,-1.972953e-004
-4.022043e-003,-1.869231e-004
-3.825457e-003,-1.796301e-004
-3.378316e-003,-1.765509e-004
-2.805576e-003,-1.770371e-004
-2.204312e-003,-1.776853e-004
-1.617636e-003,-1.749302e-004
-1.052514e-003,-1.707166e-004
-5.167259e-004,-1.682856e-004
-3.555408e-005,-1.700683e-004
3.663680e-004,-1.726613e-004
6.819093e-004,-1.710407e-004
9.172284e-004,-1.616409e-004
1.081239e-003,-1.447861e-004
1.185285e-003,-1.220970e-004
1.242818e-003,-9.940781e-005
1.261618e-003,-7.736692e-005
1.239090e-003,-5.273300e-005
1.164054e-003,-2.501983e-005
1.021437e-003,5.772582e-006
8.201511e-004,3.850978e-005
6.084936e-004,6.800567e-005
4.623107e-004,9.409818e-005
4.608521e-004,1.154908e-004
6.726716e-004,1.321835e-004
1.093394e-003,1.454729e-004
1.621241e-003,1.577899e-004
2.116028e-003,1.710792e-004
2.470791e-003,1.855030e-004
2.642743e-003,2.036544e-004
2.648902e-003,2.231022e-004
2.548259e-003,2.363916e-004
2.395268e-003,2.444948e-004
2.201275e-003,2.488706e-004
1.932084e-003,2.503292e-004
1.528054e-003,2.477361e-004
9.151215e-004,2.384984e-004
4.904402e-005,2.184023e-004
-9.959530e-004,1.918236e-004
-2.000596e-003,1.655690e-004
-2.717250e-003,1.448246e-004
-3.005241e-003,1.362352e-004
-2.897629e-003,1.412592e-004
-2.535736e-003,1.586002e-004
-2.074660e-003,1.804790e-004
-1.618122e-003,1.961994e-004
-1.206800e-003,1.970097e-004
-8.403703e-004,1.855030e-004
-5.108916e-004,1.720516e-004
-2.256567e-004,1.660552e-004
3.665733e-006,1.710792e-004
1.526038e-004,1.829100e-004
2.073819e-004,1.937684e-004
1.877720e-004,1.955511e-004
1.376938e-004,1.851789e-004
1.015532e-004,1.639484e-004
1.010670e-004,1.386662e-004
1.221355e-004,1.145184e-004
1.312112e-004,9.182927e-005
1.007429e-004,6.606088e-005
3.235129e-005,3.105477e-005
-4.446767e-005,-1.351319e-005
-9.260107e-005,-6.391550e-005
-8.628052e-005,-1.135075e-004
-1.756482e-005,-1.546721e-004
9.944634e-005,-1.815749e-004
2.389846e-004,-1.961608e-004
3.793332e-004,-2.062088e-004
5.065545e-004,-2.178775e-004
6.102764e-004,-2.314910e-004
6.809369e-004,-2.425115e-004
7.120535e-004,-2.481838e-004
7.052467e-004,-2.507768e-004
6.752646e-004,-2.543422e-004
6.439860e-004,-2.585559e-004
6.426895e-004,-2.603387e-004
7.125397e-004,-2.600145e-004
8.882187e-004,-2.577456e-004
1.160813e-003,-2.572594e-004
1.471979e-003,-2.595283e-004
1.741494e-003,-2.559629e-004
1.900643e-003,-2.395943e-004
1.909881e-003,-2.062088e-004
1.769694e-003,-1.621271e-004
1.512657e-003,-1.139937e-004
1.192578e-003,-6.748094e-005
8.645570e-004,-2.842320e-005
5.640878e-004,-4.599598e-006
3.008936e-004,-1.682422e-006
7.124698e-005,-1.886135e-005
-1.336036e-004,-5.062615e-005
-3.254889e-004,-8.303922e-005
-5.144570e-004,-1.047560e-004
-7.099077e-004,-1.125351e-004
-9.231857e-004,-1.091317e-004
-1.166446e-003,-1.031353e-004
-1.442929e-003,-1.028112e-004
-1.714389e-003,-1.071869e-004
-1.894443e-003,-1.096179e-004
-1.901412e-003,-1.036215e-004
-1.707906e-003,-8.644259e-005
-1.353469e-003,-5.872941e-005
-9.123273e-004,-2.842320e-005
-4.624341e-004,-3.141010e-006
-8.287715e-005,1.922400e-005
1.717275e-004,4.158902e-005
2.751252e-004,6.541262e-005
2.192126e-004,8.956036e-005
7.069105e-006,1.094944e-004
-3.277578e-004,1.201907e-004
-7.066664e-004,1.193804e-004
-1.050893e-003,1.127357e-004
-1.295126e-003,1.099806e-004
-1.395768e-003,1.195424e-004
-1.341314e-003,1.427178e-004
-1.153318e-003,1.717275e-004
-8.883416e-004,1.934442e-004
-6.146134e-004,2.021958e-004
-4.031182e-004,2.012234e-004
-3.130099e-004,1.981441e-004
-3.818876e-004,1.989545e-004
-6.113721e-004,2.075439e-004
-9.538161e-004,2.211574e-004
-1.327377e-003,2.328261e-004
-1.658962e-003,2.420638e-004
-1.881802e-003,2.496809e-004
-1.919239e-003,2.576221e-004
-1.704989e-003,2.658874e-004
-1.233541e-003,2.717218e-004
-5.854416e-004,2.725321e-004
1.022015e-004,2.686426e-004
6.955228e-004,2.597290e-004
1.111869e-003,2.466017e-004
1.321420e-003,2.266676e-004
1.336330e-003,2.021958e-004
1.199222e-003,1.741585e-004
9.767064e-004,1.462832e-004
7.379840e-004,1.222976e-004
5.376711e-004,1.034980e-004
4.002396e-004,8.939829e-005
3.183966e-004,8.486046e-005
2.585945e-004,8.939829e-005
1.725378e-004,9.393612e-005
3.494434e-005,9.231547e-005
-1.263107e-004,8.696731e-005
-2.384598e-004,8.323981e-005
-2.332737e-004,8.064677e-005
-8.984595e-005,8.080883e-005
1.432040e-004,8.145709e-005
3.783608e-004,7.886404e-005
5.417228e-004,6.978839e-005
6.075213e-004,4.936815e-005
5.956905e-004,1.582063e-005
5.483674e-004,-2.696461e-005
5.041235e-004,-6.893953e-005
4.893756e-004,-1.029732e-004
5.128751e-004,-1.253383e-004
5.637637e-004,-1.366828e-004
6.195141e-004,-1.379794e-004
6.559788e-004,-1.326312e-004
6.632718e-004,-1.258245e-004
6.402585e-004,-1.248521e-004
5.914768e-004,-1.314967e-004
5.305402e-004,-1.438137e-004
4.723587e-004,-1.569410e-004
4.318424e-004,-1.630995e-004
4.264942e-004,-1.579134e-004
4.798138e-004,-1.462447e-004
5.956905e-004,-1.374932e-004
7.481941e-004,-1.360346e-004
8.929186e-004,-1.438137e-004
9.955061e-004,-1.558065e-004
1.036184e-003,-1.653684e-004
1.016575e-003,-1.681235e-004
9.498035e-004,-1.645581e-004
8.616399e-004,-1.551583e-004
7.822278e-004,-1.392759e-004
7.332841e-004,-1.149661e-004
7.114052e-004,-8.595638e-005
6.922815e-004,-6.099833e-005
6.431757e-004,-4.544006e-005
5.200059e-004,-3.766092e-005
2.665357e-004,-3.328516e-005
-1.690959e-004,-2.890940e-005
-8.030953e-004,-2.307504e-005
-1.578902e-003,-1.448558e-005
-2.333641e-003,-7.100305e-007
-2.859381e-003,1.565857e-005
-3.005241e-003,2.943412e-005
-2.752580e-003,4.029250e-005
-2.214036e-003,4.612685e-005
-1.567882e-003,4.953022e-005
-9.729397e-004,5.747142e-005
-5.117019e-004,7.027458e-005
-1.887058e-004,8.372601e-005
3.332369e-005,9.523264e-005
1.961994e-004,1.070634e-004
3.318480e-004,1.211631e-004
4.710622e-004,1.320215e-004
6.268070e-004,1.376938e-004
7.796348e-004,1.406109e-004
8.877325e-004,1.445005e-004
9.276005e-004,1.490383e-004
9.167422e-004,1.517934e-004
8.966461e-004,1.514693e-004
8.955116e-004,1.498487e-004
9.306798e-004,1.483901e-004
1.042505e-003,1.469315e-004
1.260645e-003,1.459591e-004
1.540857e-003,1.456350e-004
1.782173e-003,1.492004e-004
1.898536e-003,1.564933e-004
1.858182e-003,1.650828e-004
1.692550e-003,1.714034e-004
1.464362e-003,1.749688e-004
1.216726e-003,1.762653e-004
9.389452e-004,1.761032e-004
5.804563e-004,1.743205e-004
8.761557e-005,1.658931e-004
-5.768522e-004,1.477418e-004
-1.417323e-003,1.261871e-004
-2.361678e-003,1.060910e-004
-3.200368e-003,8.648112e-005
-3.665335e-003,6.444023e-005
-3.596782e-003,3.932010e-005
-3.040085e-003,1.711715e-005
-2.212254e-003,1.396819e-006
-1.377131e-003,-7.678839e-006
-7.384312e-004,-1.432352e-005
-3.676259e-004,-2.015787e-005
-2.147983e-004,-2.339918e-005
-1.684476e-004,-2.534396e-005
-1.368449e-004,-2.923353e-005
-8.336335e-005,-3.733679e-005
-2.372331e-005,-5.305713e-005
2.116879e-005,-7.558420e-005
4.855783e-005,-1.013526e-004
6.606088e-005,-1.284175e-004
8.486046e-005,-1.504584e-004
1.205148e-004,-1.605064e-004
1.808031e-004,-1.632615e-004
2.665357e-004,-1.618029e-004
3.700955e-004,-1.601823e-004
4.717105e-004,-1.596961e-004
5.533914e-004,-1.593720e-004
6.021731e-004,-1.574272e-004
6.195141e-004,-1.514308e-004
6.101143e-004,-1.451102e-004
5.828873e-004,-1.465688e-004
5.452881e-004,-1.554824e-004
5.026649e-004,-1.653684e-004
4.627969e-004,-1.703924e-004
4.324906e-004,-1.684476e-004
4.119083e-004,-1.608306e-004
3.942432e-004,-1.509446e-004
3.734989e-004,-1.383035e-004
3.464339e-004,-1.238797e-004
3.162898e-004,-1.070249e-004
2.872801e-004,-8.692878e-005
2.619979e-004,-6.472583e-005
2.362295e-004,-4.236082e-005
2.083542e-004,-2.323711e-005
1.796687e-004,-8.489166e-006
1.555210e-004,3.341602e-006
1.527658e-004,1.306552e-005
1.830721e-004,2.311357e-005
2.404432e-004,3.186510e-005
3.034866e-004,3.932010e-005
3.464339e-004,4.628891e-005
3.535648e-004,5.050261e-005
3.214759e-004,4.904402e-005
2.560015e-004,4.402000e-005
1.726999e-004,4.272347e-005
9.134307e-005,4.953022e-005
3.008238e-005,6.492643e-005
-1.108221e-005,8.680524e-005
-3.490581e-005,1.101427e-004
-5.030202e-005,1.276457e-004
-5.791909e-005,1.346145e-004
-6.213279e-005,1.367214e-004
-6.796714e-005,1.394765e-004
-7.493595e-005,1.459591e-004
-7.607040e-005,1.535762e-004
-6.748094e-005,1.615174e-004
-5.338126e-005,1.686482e-004
-3.976777e-005,1.761032e-004
-2.907146e-005,1.795066e-004
-2.388537e-005,1.769136e-004
-2.599222e-005,1.709172e-004
-3.441962e-005,1.686482e-004
-4.398147e-005,1.718896e-004
-4.916756e-005,1.748067e-004
-4.868137e-005,1.739964e-004
-4.592625e-005,1.681620e-004
-4.706071e-005,1.602208e-004
-5.775702e-005,1.534141e-004
-7.639453e-005,1.492004e-004
-9.632857e-005,1.477418e-004
-1.105903e-004,1.493625e-004
-1.159385e-004,1.490383e-004
-1.092938e-004,1.435281e-004
-8.628052e-005,1.321835e-004
-3.506788e-005,1.169494e-004
7.384002e-005,9.847395e-005
2.726942e-004,8.064677e-005
5.683015e-004,6.476436e-005
9.128526e-004,5.358185e-005
1.223208e-003,4.855783e-005
1.423197e-003,4.969229e-005
1.479758e-003,5.260946e-005
1.403911e-003,5.260946e-005
1.237794e-003,4.596478e-005
1.025812e-003,3.818565e-005
7.984344e-004,3.413401e-005
5.606844e-004,3.624086e-005
3.015418e-004,4.369587e-005
4.313994e-006,5.552663e-005
-3.496366e-004,6.946425e-005
-7.789475e-004,7.918817e-005
-1.285402e-003,7.643307e-005
-1.831400e-003,5.795762e-005
-2.362974e-003,2.684107e-005
-2.815948e-003,-1.010982e-005
-3.106532e-003,-4.430560e-005
-3.158069e-003,-7.380149e-005
-2.949328e-003,-1.041077e-004
-2.542381e-003,-1.357104e-004
-2.059588e-003,-1.671511e-004
-1.639514e-003,-1.937298e-004
-1.378751e-003,-2.138259e-004
-1.278271e-003,-2.254946e-004
-1.245372e-003,-2.324634e-004
-1.155911e-003,-2.400805e-004
-9.364750e-004,-2.496423e-004
-5.919242e-004,-2.635799e-004
-1.843300e-004,-2.843243e-004
2.025199e-004,-3.084721e-004
5.075270e-004,-3.285682e-004
7.118915e-004,-3.395886e-004
8.314957e-004,-3.410472e-004
9.013460e-004,-3.337542e-004
9.583930e-004,-3.167374e-004
1.028892e-003,-2.890242e-004
1.120134e-003,-2.499665e-004
1.214619e-003,-2.032917e-004
1.283983e-003,-1.579134e-004
1.306510e-003,-1.224211e-004
1.267452e-003,-1.028112e-004
1.158382e-003,-9.730096e-005
9.809202e-004,-1.002181e-004
7.490044e-004,-1.063766e-004
4.987754e-004,-1.081593e-004
2.885766e-004,-9.049421e-005
1.777239e-004,-4.219875e-005
1.916615e-004,3.818565e-005
3.075383e-004,1.410971e-004
4.770586e-004,2.500050e-004
6.642442e-004,3.501615e-004
8.460816e-004,4.320045e-004
1.036184e-003,4.914824e-004
1.272638e-003,5.287575e-004
1.557063e-003,5.431813e-004
1.842947e-003,5.345919e-004
2.066760e-003,5.039615e-004
2.192686e-003,4.540453e-004
2.213268e-003,3.887330e-004
2.145362e-003,3.213138e-004
2.004365e-003,2.654013e-004
1.789790e-003,2.263435e-004
1.495640e-003,2.030061e-004
1.121107e-003,1.927960e-004
6.537099e-004,1.859892e-004
5.795762e-005,1.767515e-004
-7.003459e-004,1.647587e-004
-1.605967e-003,1.535762e-004
-2.567502e-003,1.427178e-004
-3.418023e-003,1.308870e-004
-3.978123e-003,1.219734e-004
-4.132734e-003,1.151667e-004
-3.858032e-003,1.098185e-004
-3.228243e-003,1.009049e-004
-2.392633e-003,8.761557e-005
-1.523800e-003,6.962632e-005
-7.679272e-004,5.293359e-005
-2.143121e-004,4.353380e-005
1.180839e-004,4.223728e-005
2.728562e-004,4.466826e-005
3.227724e-004,4.531652e-005
3.360618e-004,4.013043e-005
3.514580e-004,2.700314e-005
3.778746e-004,9.986281e-006
4.080188e-004,-7.030578e-006
4.342734e-004,-2.210265e-005
4.538833e-004,-2.809907e-005
4.650658e-004,-2.275091e-005
4.666864e-004,-4.923729e-006
4.602039e-004,2.230325e-005
4.524247e-004,5.698522e-005
4.477248e-004,9.523264e-005
4.546936e-004,1.279698e-004
4.950479e-004,1.453108e-004
5.791598e-004,1.432040e-004
6.930918e-004,1.187321e-004
7.994067e-004,7.465034e-005
8.639088e-004,1.533444e-005
8.694191e-004,-5.435365e-005
8.246890e-004,-1.222590e-004
7.520836e-004,-1.791439e-004
6.712130e-004,-2.229016e-004
5.950422e-004,-2.532078e-004
5.310264e-004,-2.705488e-004
4.875929e-004,-2.789762e-004
4.580970e-004,-2.820554e-004
4.263322e-004,-2.810830e-004
3.747954e-004,-2.762210e-004
2.958695e-004,-2.687660e-004
1.945787e-004,-2.564491e-004
9.361199e-005,-2.387840e-004
1.906194e-005,-2.178775e-004
-1.270286e-005,-1.974573e-004
-4.275467e-006,-1.747682e-004
3.073064e-005,-1.493239e-004
7.351589e-005,-1.233935e-004
1.067393e-004,-1.034594e-004
1.163011e-004,-9.470791e-005
8.550872e-005,-9.503204e-005
5.934648e-006,-9.859748e-005
-1.182074e-004,-9.713889e-005
-2.746004e-004,-8.660465e-005
-4.360174e-004,-6.926366e-005
-5.713420e-004,-5.046408e-005
-6.601537e-004,-3.360929e-005
-6.990494e-004,-1.513384e-005
-6.909461e-004,4.151929e-006
-6.313061e-004,2.052053e-005
-5.131605e-004,3.186510e-005
-3.429920e-004,4.061663e-005
-1.421931e-004,4.855783e-005
8.097089e-005,5.957827e-005
3.543751e-004,7.627100e-005
7.371737e-004,9.474644e-005
1.242980e-003,1.111150e-004
1.799190e-003,1.227837e-004
2.282956e-003,1.302388e-004
2.587965e-003,1.307250e-004
2.675319e-003,1.265113e-004
2.566086e-003,1.200286e-004
2.325742e-003,1.124116e-004
2.017492e-003,1.064152e-004
1.655113e-003,1.047945e-004
1.211539e-003,1.140322e-004
6.363689e-004,1.349386e-004
-1.178833e-004,1.603829e-004
-1.069855e-003,1.840444e-004
-2.175141e-003,1.997648e-004
-3.269084e-003,2.086784e-004
-4.116851e-003,2.135403e-004
-4.526718e-003,2.185644e-004
-4.429964e-003,2.247229e-004
-3.899197e-003,2.278021e-004
-3.108315e-003,2.248849e-004
-2.274001e-003,2.127300e-004
-1.605156e-003,1.914995e-004
-1.242454e-003,1.676758e-004
-1.216848e-003,1.480659e-004
-1.436285e-003,1.333180e-004
-1.724275e-003,1.221355e-004
-1.894929e-003,1.135460e-004
-1.824917e-003,1.104668e-004
-1.493007e-003,1.116012e-004
-9.701846e-004,1.150046e-004
-3.784843e-004,1.138702e-004
1.620036e-004,9.912221e-005
5.730013e-004,6.573675e-005
8.389507e-004,1.792748e-005
9.827028e-004,-3.053005e-005
1.045908e-003,-6.958779e-005
1.062601e-003,-9.632857e-005
1.051905e-003,-1.141558e-004
1.010740e-003,-1.258245e-004
9.156077e-004,-1.342519e-004
7.339324e-004,-1.433275e-004
4.553419e-004,-1.522411e-004
1.300767e-004,-1.582375e-004
-1.446240e-004,-1.562927e-004
-2.793003e-004,-1.459206e-004
-2.287359e-004,-1.347380e-004
-1.821308e-005,-1.306864e-004
2.654013e-004,-1.347380e-004
5.227611e-004,-1.451102e-004
6.880678e-004,-1.600202e-004
7.606731e-004,-1.765509e-004
7.869278e-004,-1.875713e-004
8.091307e-004,-1.874093e-004
8.384645e-004,-1.749302e-004
8.721742e-004,-1.548341e-004
8.976185e-004,-1.329553e-004
9.013460e-004,-1.149661e-004
8.765499e-004,-1.032974e-004
8.175581e-004,-9.357346e-005
7.229118e-004,-7.963584e-005
6.060627e-004,-5.840528e-005
4.952099e-004,-3.134038e-005
4.213082e-004,-4.113403e-006
4.015361e-004,2.246531e-005
4.418904e-004,4.353380e-005
5.292437e-004,5.504044e-005
6.276174e-004,5.909208e-005
6.836920e-004,6.249545e-005
6.635960e-004,6.735741e-005
5.728393e-004,7.108491e-005
4.383250e-004,7.108491e-005
2.989488e-004,6.881599e-005
1.955511e-004,7.157111e-005
1.543865e-004,8.421220e-005
1.756171e-004,1.039842e-004
2.404432e-004,1.237561e-004
3.256896e-004,1.355869e-004
4.159600e-004,1.401247e-004
5.047718e-004,1.402868e-004
5.862907e-004,1.362352e-004
6.538720e-004,1.297526e-004
7.107570e-004,1.235941e-004
7.849830e-004,1.200286e-004
9.070183e-004,1.195424e-004
1.080753e-003,1.210010e-004
1.278472e-003,1.232699e-004
1.458203e-003,1.318594e-004
1.574404e-003,1.483901e-004
1.587045e-003,1.712413e-004
1.468900e-003,1.974959e-004
1.221588e-003,2.235884e-004
8.985908e-004,2.470879e-004
5.854804e-004,2.654013e-004
3.676645e-004,2.741528e-004
2.754493e-004,2.697770e-004
2.616738e-004,2.493568e-004
2.433604e-004,2.125679e-004
1.417454e-004,1.636242e-004
-9.098041e-005,1.054428e-004
-4.694029e-004,4.661304e-005
-9.983840e-004,-3.951337e-006
-1.653614e-003,-3.928157e-005
-2.360544e-003,-6.002594e-005
-3.010913e-003,-6.699475e-005
-3.473935e-003,-6.245691e-005
-3.634705e-003,-5.565017e-005
-3.442332e-003,-5.321920e-005
-2.940739e-003,-5.710876e-005
-2.253580e-003,-6.197072e-005
-1.536927e-003,-6.018800e-005
-9.205926e-004,-4.932962e-005
-4.810716e-004,-3.004385e-005
-2.207947e-004,-6.544382e-006
-9.438378e-005,1.598270e-005
-4.884343e-005,3.462021e-005
-4.041603e-005,4.953022e-005
-3.393342e-005,5.763349e-005
-1.075808e-005,5.763349e-005
3.364782e-005,5.034055e-005
9.280167e-005,3.607880e-005
1.417454e-004,1.031041e-005
1.506590e-004,-2.485776e-005
9.377406e-005,-6.602235e-005
-3.458168e-005,-1.081593e-004
-2.139880e-004,-1.467309e-004
-3.953390e-004,-1.750923e-004
-5.253154e-004,-1.906506e-004
-5.710179e-004,-1.942160e-004
-5.280706e-004,-1.921092e-004
-4.259694e-004,-1.904885e-004
-3.099306e-004,-1.919471e-004
-2.053985e-004,-1.990780e-004
-1.125351e-004,-2.063709e-004
-1.626830e-005,-2.065330e-004
1.086841e-004,-1.968091e-004
2.898731e-004,-1.802784e-004
5.394538e-004,-1.618029e-004
8.400852e-004,-1.434896e-004
1.150603e-003,-1.261486e-004
1.414932e-003,-1.067007e-004
1.585749e-003,-8.255302e-005
1.650575e-003,-5.451572e-005
1.620755e-003,-2.583016e-005
1.530485e-003,-2.006553e-006
1.422063e-003,1.922400e-005
1.316558e-003,3.899597e-005
1.206839e-003,5.844381e-005
1.083021e-003,7.594687e-005
9.395934e-004,9.037068e-005
7.738004e-004,1.013911e-004
5.707325e-004,1.099806e-004
3.020280e-004,1.180839e-004
-6.018800e-005,1.261871e-004
-5.118640e-004,1.363972e-004
-9.953048e-004,1.488763e-004
-1.400630e-003,1.607070e-004
-1.615853e-003,1.718896e-004
-1.596567e-003,1.801549e-004
-1.380210e-003,1.843686e-004
-1.061427e-003,1.876099e-004
-7.394037e-004,1.918236e-004
-4.755614e-004,1.974959e-004
-2.921034e-004,2.004130e-004
-1.776853e-004,1.987924e-004
-1.029732e-004,1.942546e-004
-4.365734e-005,1.902029e-004
1.274139e-005,1.874478e-004
6.735741e-005,1.842065e-004
1.151667e-004,1.759412e-004
1.490383e-004,1.592484e-004
1.657311e-004,1.378558e-004
1.655690e-004,1.174356e-004
1.534141e-004,1.015532e-004
1.365593e-004,9.053275e-005
1.193804e-004,8.307774e-005
1.056048e-004,7.627100e-005
1.004187e-004,7.027458e-005
1.130598e-004,6.314371e-005
1.624898e-004,5.260946e-005
2.688046e-004,3.932010e-005
4.376768e-004,2.278944e-005
6.483617e-004,4.638125e-006
8.671501e-004,-8.489166e-006
1.074756e-003,-1.302700e-005
1.266318e-003,-9.299493e-006
1.438107e-003,-5.247859e-006
1.580887e-003,-9.299493e-006
1.683151e-003,-2.113026e-005
1.732580e-003,-3.263690e-005
1.706974e-003,-3.830919e-005
1.585263e-003,-4.122636e-005
1.361126e-003,-4.722278e-005
1.048826e-003,-5.694670e-005
6.776956e-004,-6.829127e-005
2.684805e-004,-7.574627e-005
-1.896782e-004,-7.250496e-005
-7.144455e-004,-5.646050e-005
-1.294639e-003,-3.247483e-005
-1.873537e-003,-8.165035e-006
-2.373995e-003,5.610517e-006
-2.735563e-003,4.638125e-006
-2.922749e-003,-3.789272e-006
-2.915781e-003,-1.497178e-005
-2.723895e-003,-2.745081e-005
-2.381774e-003,-3.976777e-005
-1.947925e-003,-5.127441e-005
-1.513428e-003,-6.440170e-005
-1.179411e-003,-8.222889e-005
-1.018318e-003,-1.073490e-004
-1.044086e-003,-1.374932e-004
-1.197076e-003,-1.699062e-004
-1.344231e-003,-2.003745e-004
-1.315222e-003,-2.274394e-004
-9.859049e-004,-2.472114e-004
-3.723258e-004,-2.566112e-004
3.738230e-004,-2.507768e-004
1.045422e-003,-2.300324e-004
1.504392e-003,-1.982676e-004
1.711188e-003,-1.624512e-004
1.715402e-003,-1.316588e-004
1.618324e-003,-1.146419e-004
1.506175e-003,-1.104282e-004
1.394673e-003,-1.122110e-004
1.231149e-003,-1.162626e-004
9.319764e-004,-1.173971e-004
4.217943e-004,-1.110765e-004
-3.222476e-004,-9.989401e-005
-1.193511e-003,-8.692878e-005
-1.947763e-003,-6.569822e-005
-2.323106e-003,-2.955766e-005
-2.183892e-003,2.181705e-005
-1.590733e-003,7.918817e-005
-7.473448e-004,1.352628e-004
1.051186e-004,1.846927e-004
7.684522e-004,2.261814e-004
1.154816e-003,2.584324e-004
1.280741e-003,2.829043e-004
1.223532e-003,3.046211e-004
1.077835e-003,3.274723e-004
9.191732e-004,3.555096e-004
7.880622e-004,3.887330e-004
6.922815e-004,4.196875e-004
6.261588e-004,4.389733e-004
5.801322e-004,4.378388e-004
5.486915e-004,4.125566e-004
5.307022e-004,3.647473e-004
5.319988e-004,3.017039e-004
5.524190e-004,2.316917e-004
5.859666e-004,1.647587e-004
6.203245e-004,1.120874e-004
6.431757e-004,7.886404e-005
6.648925e-004,5.990240e-005
7.186982e-004,5.066468e-005
8.441369e-004,4.564065e-005
1.049150e-003,3.932010e-005
1.294517e-003,2.894792e-005
1.519302e-003,1.614476e-005
1.678450e-003,-2.238346e-007
1.755270e-003,-2.096820e-005
1.753163e-003,-4.592625e-005
1.683475e-003,-6.764301e-005
1.557388e-003,-7.995997e-005
1.389974e-003,-8.303922e-005
1.193388e-003,-8.174268e-005
9.629308e-004,-8.060823e-005
6.866092e-004,-8.433573e-005
3.709058e-004,-9.049421e-005
4.466826e-005,-9.503204e-005
-2.645523e-004,-9.405965e-005
-5.552975e-004,-8.887356e-005
-8.640318e-004,-7.607040e-005
-1.221386e-003,-5.678463e-005
-1.603374e-003,-3.620233e-005
-1.938525e-003,-1.853722e-005
-2.143862e-003,-6.382317e-006
-2.156665e-003,-6.176923e-008
-1.970452e-003,-3.465141e-006
-1.634328e-003,-1.513384e-005
-1.225275e-003,-2.988179e-005
-8.162226e-004,-3.960571e-005
-4.619479e-004,-4.252288e-005
-1.927574e-004,-4.155049e-005
-1.043395e-005,-3.798505e-005
1.000946e-004,-3.296103e-005
1.501728e-004,-2.696461e-005
1.453108e-004,-2.291298e-005
9.199134e-005,-2.566809e-005
-1.520357e-006,-3.150244e-005
-1.255003e-004,-3.879538e-005
-2.574215e-004,-4.608832e-005
-3.757291e-004,-5.581224e-005
-4.650271e-004,-6.667062e-005
-5.139708e-004,-7.509801e-005
-5.138087e-004,-7.526008e-005
-4.749131e-004,-6.440170e-005
-4.117076e-004,-4.576419e-005
-3.266234e-004,-2.469570e-005
-2.105846e-004,-7.192643e-006
-5.840528e-005,3.989864e-006
1.083599e-004,7.231170e-006
2.679943e-004,4.476060e-006
4.123946e-004,2.623614e-007
5.545259e-004,-6.220252e-006
7.081639e-004,-1.643037e-005
8.622882e-004,-2.826114e-005
9.859442e-004,-3.733679e-005
1.036022e-003,-3.733679e-005
9.807581e-004,-2.631635e-005
8.031343e-004,-8.165035e-006
4.955341e-004,1.306552e-005
7.951231e-005,3.299956e-005
-3.938804e-004,5.341979e-005
-8.308084e-004,7.870197e-005
-1.135167e-003,1.073875e-004
-1.245372e-003,1.370455e-004
-1.166446e-003,1.658931e-004
-9.611089e-004,1.936063e-004
-7.150938e-004,2.187264e-004
-5.102433e-004,2.410915e-004
-4.047388e-004,2.597290e-004
-4.081422e-004,2.770700e-004
-4.669719e-004,2.910076e-004
-4.997091e-004,2.968419e-004
-4.491447e-004,2.913317e-004
-3.058790e-004,2.730183e-004
-9.065628e-005,2.459534e-004
1.686482e-004,2.180782e-004
4.329769e-004,1.949028e-004
6.582477e-004,1.770756e-004
8.110755e-004,1.647587e-004
8.900014e-004,1.576278e-004
9.188490e-004,1.529279e-004
9.243593e-004,1.470936e-004
9.191732e-004,1.422316e-004
8.932427e-004,1.404489e-004
8.212856e-004,1.404489e-004
6.870955e-004,1.420695e-004
4.918066e-004,1.435281e-004
2.699391e-004,1.388282e-004
7.221937e-005,1.255389e-004
-6.440170e-005,1.026876e-004
-1.269589e-004,7.432621e-005
-1.311726e-004,4.726130e-005
-9.292520e-005,2.327564e-005
-2.356124e-005,3.179537e-006
6.330578e-005,-1.302700e-005
1.621656e-004,-2.194059e-005
2.686426e-004,-2.388537e-005
3.649094e-004,-2.275091e-005
4.180668e-004,-2.420950e-005
3.884089e-004,-3.377136e-005
2.611876e-004,-5.338126e-005
7.918817e-005,-8.077030e-005
-8.725291e-005,-1.105903e-004
-1.820611e-004,-1.418689e-004
-1.929195e-004,-1.716889e-004
-1.611547e-004,-1.959987e-004
-1.462447e-004,-2.084778e-004
-1.765509e-004,-2.149604e-004
-2.335979e-004,-2.178775e-004
-2.690902e-004,-2.212809e-004
-2.405667e-004,-2.282497e-004
-1.331174e-004,-2.358668e-004
3.445814e-005,-2.387840e-004
2.161334e-004,-2.371633e-004
3.582647e-004,-2.335979e-004
4.183910e-004,-2.279256e-004
3.772264e-004,-2.206326e-004
2.339606e-004,-2.118811e-004
-1.682422e-006,-2.042641e-004
-3.181960e-004,-1.995642e-004
-6.990494e-004,-2.006986e-004
-1.113288e-003,-2.039399e-004
-1.505324e-003,-2.049123e-004
-1.798338e-003,-2.013469e-004
-1.922805e-003,-1.932436e-004
-1.846958e-003,-1.791439e-004
-1.592353e-003,-1.626133e-004
-1.222682e-003,-1.433275e-004
-8.160605e-004,-1.206384e-004
-4.376381e-004,-9.146661e-005
-1.276072e-004,-5.808115e-005
1.012291e-004,-2.015787e-005
2.551911e-004,2.376183e-005
3.530786e-004,7.043665e-005
4.102877e-004,1.146805e-004
4.363802e-004,1.521176e-004
