3.145071e-004,-3.724878e-004
3.754436e-004,-3.658432e-004
4.081808e-004,-3.603330e-004
4.279528e-004,-3.579019e-004
4.535592e-004,-3.554710e-004
4.994237e-004,-3.540124e-004
5.786736e-004,-3.522297e-004
6.841783e-004,-3.507711e-004
7.752590e-004,-3.488263e-004
7.985964e-004,-3.460712e-004
7.149707e-004,-3.403989e-004
5.052580e-004,-3.280820e-004
1.644345e-004,-3.083100e-004
-2.953447e-004,-2.862691e-004
-8.358325e-004,-2.648765e-004
-1.396579e-003,-2.441321e-004
-1.918753e-003,-2.237119e-004
-2.341582e-003,-2.021572e-004
-2.584842e-003,-1.791439e-004
-2.570743e-003,-1.546721e-004
-2.268328e-003,-1.311726e-004
-1.733836e-003,-1.123730e-004
-1.106482e-003,-9.989401e-005
-5.546492e-004,-9.260107e-005
-2.230636e-004,-8.417367e-005
-1.838438e-004,-7.234290e-005
-4.071698e-004,-5.613637e-005
-7.758683e-004,-3.847125e-005
-1.116854e-003,-2.323711e-005
-1.234189e-003,-1.399939e-005
-9.978978e-004,-1.027188e-005
-4.211074e-004,-9.785688e-006
3.378445e-004,-9.947754e-006
1.053363e-003,-4.599598e-006
1.558036e-003,9.662150e-006
1.794814e-003,3.186510e-005
1.795462e-003,5.957827e-005
1.641824e-003,9.004655e-005
1.427735e-003,1.216493e-004
1.236011e-003,1.564933e-004
1.113652e-003,1.949028e-004
1.043964e-003,2.325020e-004
9.569344e-004,2.644289e-004
7.866036e-004,2.882525e-004
4.913204e-004,3.010556e-004
4.677511e-005,3.068900e-004
-5.454115e-004,3.067279e-004
-1.253799e-003,3.012177e-004
-2.002541e-003,2.955454e-004
-2.642862e-003,2.892249e-004
-2.990655e-003,2.816078e-004
-2.938308e-003,2.798251e-004
-2.510292e-003,2.898731e-004
-1.840475e-003,3.072141e-004
-1.076013e-003,3.205035e-004
-3.339163e-004,3.227724e-004
3.055935e-004,3.138588e-004
7.956792e-004,2.978143e-004
1.124510e-003,2.759355e-004
1.294193e-003,2.496809e-004
1.307482e-003,2.172679e-004
1.169240e-003,1.812893e-004
8.976185e-004,1.457970e-004
5.271368e-004,1.137081e-004
1.009049e-004,8.729144e-005
-3.308371e-004,6.444023e-005
-7.032631e-004,4.223728e-005
-9.718052e-004,1.825161e-005
-1.112478e-003,-8.327101e-006
-1.114423e-003,-3.604027e-005
-9.846084e-004,-6.440170e-005
-7.559343e-004,-9.179074e-005
-4.796130e-004,-1.172350e-004
-2.045882e-004,-1.408965e-004
4.450620e-005,-1.614788e-004
2.697770e-004,-1.733096e-004
4.974789e-004,-1.700683e-004
7.533802e-004,-1.507825e-004
1.038940e-003,-1.177212e-004
1.324175e-003,-7.363943e-005
1.560791e-003,-2.242678e-005
1.711026e-003,3.380988e-005
1.765480e-003,9.507057e-005
1.733715e-003,1.637863e-004
1.628696e-003,2.337985e-004
1.452693e-003,2.955454e-004
1.201653e-003,3.396272e-004
8.844911e-004,3.540510e-004
5.370228e-004,3.279585e-004
2.263435e-004,2.631324e-004
1.371378e-005,1.739964e-004
-8.141856e-005,7.724339e-005
-8.190475e-005,-1.189254e-005
-2.485776e-005,-7.914964e-005
5.487838e-005,-1.131834e-004
1.269974e-004,-1.139937e-004
1.773998e-004,-8.903562e-005
2.099749e-004,-5.046408e-005
2.393087e-004,-8.813297e-006
2.887387e-004,2.197911e-005
3.775505e-004,2.927205e-005
5.070407e-004,9.338019e-006
6.522514e-004,-3.474375e-005
7.720177e-004,-9.438378e-005
8.331164e-004,-1.545100e-004
8.276062e-004,-2.011848e-004
7.699109e-004,-2.288980e-004
6.854748e-004,-2.378116e-004
5.892079e-004,-2.329496e-004
4.890515e-004,-2.220912e-004
3.828986e-004,-2.136638e-004
2.707494e-004,-2.089640e-004
1.592484e-004,-2.053985e-004
6.525056e-005,-2.002124e-004
-1.682422e-006,-1.942160e-004
-4.884343e-005,-1.890299e-004
-1.076731e-004,-1.840059e-004
-2.233878e-004,-1.814128e-004
-4.353692e-004,-1.778474e-004
-7.517206e-004,-1.663408e-004
-1.132736e-003,-1.439758e-004
-1.486687e-003,-1.096179e-004
-1.704341e-003,-6.667062e-005
-1.711796e-003,-1.772689e-005
-1.503217e-003,3.429608e-005
-1.133060e-003,8.631905e-005
-6.899738e-004,1.363972e-004
-2.643903e-004,1.833962e-004
8.405014e-005,2.263435e-004
3.347652e-004,2.595669e-004
4.952099e-004,2.767458e-004
5.830494e-004,2.769079e-004
6.180556e-004,2.618358e-004
6.117350e-004,2.350950e-004
5.770530e-004,2.000889e-004
5.232473e-004,1.641104e-004
4.529109e-004,1.331559e-004
3.546993e-004,1.093323e-004
2.112714e-004,9.490851e-005
5.934648e-006,9.037068e-005
-2.653627e-004,9.993253e-005
-5.711799e-004,1.284560e-004
-8.369670e-004,1.722137e-004
-9.726156e-004,2.245608e-004
-9.217271e-004,2.777182e-004
-6.974287e-004,3.151553e-004
-3.666535e-004,3.245551e-004
-1.869928e-005,2.987867e-004
2.660495e-004,2.427121e-004
4.392974e-004,1.714034e-004
5.037994e-004,9.717743e-005
5.008822e-004,2.975825e-005
4.749518e-004,-2.469570e-005
4.436732e-004,-6.472583e-005
4.028327e-004,-8.838737e-005
3.443271e-004,-9.389759e-005
2.610255e-004,-8.320128e-005
1.524417e-004,-6.051213e-005
3.089271e-005,-3.312309e-005
-8.482193e-005,-1.010982e-005
-1.793060e-004,3.503668e-006
-2.467252e-004,5.286387e-006
-2.890242e-004,-4.437533e-006
-3.073376e-004,-2.356124e-005
-2.984240e-004,-5.240886e-005
-2.601766e-004,-8.741498e-005
-1.966470e-004,-1.195039e-004
-1.102662e-004,-1.402483e-004
2.531276e-006,-1.507825e-004
1.487142e-004,-1.647201e-004
3.261758e-004,-1.882196e-004
5.161164e-004,-2.198223e-004
6.827196e-004,-2.472114e-004
8.018378e-004,-2.614731e-004
8.699053e-004,-2.605007e-004
8.893532e-004,-2.473734e-004
8.478644e-004,-2.230636e-004
7.149707e-004,-1.932436e-004
4.684692e-004,-1.660166e-004
1.300767e-004,-1.447861e-004
-2.293842e-004,-1.267968e-004
-5.293671e-004,-1.047560e-004
-7.306521e-004,-7.785312e-005
-8.494460e-004,-5.338126e-005
-9.202685e-004,-3.911951e-005
-9.442542e-004,-3.782299e-005
-8.912588e-004,-4.446767e-005
-7.419967e-004,-5.208474e-005
-5.108916e-004,-5.613637e-005
-2.480217e-004,-5.613637e-005
-1.124428e-005,-5.176061e-005
1.469315e-004,-5.046408e-005
1.827479e-004,-5.419158e-005
8.226741e-005,-5.905355e-005
-1.274451e-004,-5.743289e-005
-3.708672e-004,-4.462973e-005
-5.603215e-004,-2.307504e-005
-6.434610e-004,7.485573e-007
-6.228787e-004,2.149292e-005
-5.408737e-004,3.543054e-005
-4.577342e-004,4.466826e-005
-4.206212e-004,5.131294e-005
-4.444448e-004,6.184718e-005
-5.181845e-004,7.870197e-005
-6.180168e-004,9.944634e-005
-7.123387e-004,1.185701e-004
-7.766787e-004,1.299146e-004
-7.842957e-004,1.355869e-004
-7.154180e-004,1.432040e-004
-5.591870e-004,1.581140e-004
-3.280820e-004,1.757791e-004
-5.678463e-005,1.898788e-004
2.088404e-004,2.017096e-004
4.261701e-004,2.146748e-004
5.695980e-004,2.295848e-004
6.242140e-004,2.427121e-004
5.822391e-004,2.511395e-004
4.517764e-004,2.556773e-004
2.514636e-004,2.543808e-004
1.857574e-005,2.514636e-004
-1.856265e-004,2.513016e-004
-2.995585e-004,2.574601e-004
-2.937241e-004,2.694529e-004
-1.835197e-004,2.819319e-004
-1.399939e-005,2.858215e-004
1.657311e-004,2.741528e-004
3.250413e-004,2.467637e-004
4.533971e-004,2.102990e-004
5.488536e-004,1.785342e-004
6.133557e-004,1.569795e-004
6.483617e-004,1.427178e-004
6.788301e-004,1.252147e-004
7.851450e-004,9.539470e-005
1.030998e-003,4.855783e-005
1.394998e-003,-1.140634e-005
1.775528e-003,-7.623246e-005
2.065788e-003,-1.357104e-004
2.203868e-003,-1.864369e-004
2.185555e-003,-2.300324e-004
2.052661e-003,-2.666592e-004
1.870336e-003,-2.969654e-004
1.700816e-003,-3.157650e-004
1.573432e-003,-3.199787e-004
1.459500e-003,-3.104168e-004
1.278635e-003,-2.912931e-004
9.407279e-004,-2.656868e-004
3.681507e-004,-2.415391e-004
-4.907955e-004,-2.238740e-004
-1.606615e-003,-2.151224e-004
-2.892443e-003,-2.125294e-004
-4.186864e-003,-2.125294e-004
-4.968350e-003,-2.126914e-004
-4.968512e-003,-2.120432e-004
-4.968512e-003,-2.058847e-004
-4.922485e-003,-1.893541e-004
-3.699855e-003,-1.600202e-004
-2.297500e-003,-1.199901e-004
-9.988702e-004,-7.444975e-005
-8.720959e-007,-3.166451e-005
6.243761e-004,2.369211e-006
9.327867e-004,2.424803e-005
1.034564e-003,3.494434e-005
1.033591e-003,4.158902e-005
1.004744e-003,5.082674e-005
9.872407e-004,6.444023e-005
9.783271e-004,7.967438e-005
9.473725e-004,9.539470e-005
8.760638e-004,1.122495e-004
7.733142e-004,1.302388e-004
6.682958e-004,1.490383e-004
6.031455e-004,1.691344e-004
6.015248e-004,1.937684e-004
6.501445e-004,2.232643e-004
7.246946e-004,2.597290e-004
8.188546e-004,3.018659e-004
9.494794e-004,3.438409e-004
1.123052e-003,3.785229e-004
1.307644e-003,4.016982e-004
1.445562e-003,4.151496e-004
1.489644e-003,4.230909e-004
1.434056e-003,4.226047e-004
1.306672e-003,4.065602e-004
1.157896e-003,3.668542e-004
1.037157e-003,3.028383e-004
9.750858e-004,2.278021e-004
9.849718e-004,1.600588e-004
1.060656e-003,1.109530e-004
1.181881e-003,8.550872e-005
1.312668e-003,7.772959e-005
1.404235e-003,7.870197e-005
1.403425e-003,8.453633e-005
1.281714e-003,9.620504e-005
1.045584e-003,1.119254e-004
7.092984e-004,1.263492e-004
2.992729e-004,1.367214e-004
-1.269589e-004,1.459591e-004
-4.833405e-004,1.553589e-004
-7.065044e-004,1.689724e-004
-7.946679e-004,1.846927e-004
-8.149261e-004,1.981441e-004
-8.813728e-004,2.034923e-004
-1.086872e-003,1.976579e-004
-1.453788e-003,1.777239e-004
-1.916160e-003,1.428799e-004
-2.360706e-003,9.458438e-005
-2.672034e-003,3.656499e-005
-2.764087e-003,-2.339918e-005
-2.614824e-003,-7.542214e-005
-2.279349e-003,-1.130213e-004
-1.853927e-003,-1.349001e-004
-1.430288e-003,-1.455964e-004
-1.064993e-003,-1.504584e-004
-7.732753e-004,-1.580754e-004
-5.416840e-004,-1.728234e-004
-3.486642e-004,-1.932436e-004
-1.754164e-004,-2.144742e-004
-1.254080e-005,-2.282497e-004
1.407730e-004,-2.310048e-004
2.889007e-004,-2.297083e-004
4.336251e-004,-2.282497e-004
5.725152e-004,-2.306807e-004
7.020054e-004,-2.345703e-004
8.245269e-004,-2.373254e-004
9.391072e-004,-2.378116e-004
1.042343e-003,-2.379736e-004
1.122079e-003,-2.381357e-004
1.167458e-003,-2.339220e-004
1.164378e-003,-2.263049e-004
1.080915e-003,-2.169052e-004
9.081527e-004,-2.089640e-004
6.851507e-004,-2.028055e-004
4.963444e-004,-2.005366e-004
4.196875e-004,-2.005366e-004
4.749518e-004,-1.992400e-004
6.125454e-004,-1.953505e-004
7.464114e-004,-1.883817e-004
8.055653e-004,-1.807646e-004
7.669937e-004,-1.723372e-004
6.579236e-004,-1.613168e-004
5.302161e-004,-1.470550e-004
4.412422e-004,-1.284175e-004
4.250357e-004,-1.036215e-004
4.778690e-004,-7.331530e-005
5.648981e-004,-4.317115e-005
6.475514e-004,-1.821308e-005
7.011951e-004,-1.034161e-006
7.162672e-004,8.203562e-006
7.011951e-004,1.063454e-005
6.767232e-004,1.209313e-005
6.890402e-004,1.760335e-005
8.259855e-004,2.878586e-005
1.134720e-003,4.142696e-005
1.567922e-003,5.244739e-005
2.006796e-003,6.816773e-005
2.335628e-003,9.069481e-005
2.491697e-003,1.175977e-004
2.475005e-003,1.417454e-004
2.321042e-003,1.602208e-004
2.068867e-003,1.688103e-004
1.748139e-003,1.705930e-004
1.365826e-003,1.667035e-004
9.078286e-004,1.633001e-004
3.436788e-004,1.639484e-004
-3.622777e-004,1.658931e-004
-1.251044e-003,1.615174e-004
-2.361840e-003,1.521176e-004
-3.688349e-003,1.461212e-004
-4.968512e-003,1.456350e-004
-4.968512e-003,1.529279e-004
-4.968188e-003,1.668655e-004
-4.968512e-003,1.829100e-004
-4.968674e-003,1.968476e-004
-4.968512e-003,2.046267e-004
-4.968350e-003,2.043026e-004
-4.184919e-003,1.963614e-004
-2.920967e-003,1.850168e-004
-1.760091e-003,1.712413e-004
-7.770028e-004,1.574657e-004
-3.627206e-006,1.453108e-004
5.692738e-004,1.320215e-004
9.867544e-004,1.158149e-004
1.300027e-003,9.912221e-005
1.546205e-003,8.161915e-005
1.734201e-003,6.557468e-005
1.865799e-003,5.163707e-005
1.941970e-003,4.304761e-005
1.961255e-003,3.769945e-005
1.913122e-003,3.348575e-005
1.785414e-003,2.943412e-005
1.557874e-003,2.927205e-005
1.213970e-003,3.688912e-005
7.550009e-004,5.147500e-005
2.243987e-004,6.849186e-005
-2.791382e-004,7.902610e-005
-6.308199e-004,8.097089e-005
-7.330831e-004,7.675720e-005
-5.421702e-004,6.914012e-005
-8.498399e-005,5.828175e-005
5.350781e-004,4.175109e-005
1.165189e-003,1.582063e-005
1.672616e-003,-1.999580e-005
1.970817e-003,-6.197072e-005
2.042613e-003,-1.024871e-004
1.930139e-003,-1.363587e-004
1.696116e-003,-1.582375e-004
1.393215e-003,-1.712027e-004
1.059846e-003,-1.818991e-004
7.290703e-004,-1.929195e-004
4.282770e-004,-2.049123e-004
1.983062e-004,-2.138259e-004
1.043083e-004,-2.191741e-004
1.986303e-004,-2.182017e-004
4.846757e-004,-2.128535e-004
8.998874e-004,-2.045882e-004
1.347188e-003,-1.943781e-004
1.730150e-003,-1.840059e-004
1.982486e-003,-1.728234e-004
2.078915e-003,-1.592099e-004
2.032889e-003,-1.418689e-004
1.879088e-003,-1.203142e-004
1.667592e-003,-9.486997e-005
1.438917e-003,-7.104638e-005
1.200195e-003,-5.224680e-005
9.334349e-004,-3.571614e-005
6.256726e-004,-1.886135e-005
2.961937e-004,-2.330684e-006
-3.020592e-005,1.031041e-005
-3.530400e-004,2.149292e-005
-7.116905e-004,3.494434e-005
-1.130791e-003,5.244739e-005
-1.582792e-003,7.189524e-005
-1.982121e-003,9.182927e-005
-2.234943e-003,1.117633e-004
-2.303334e-003,1.299146e-004
-2.223274e-003,1.461212e-004
-2.071905e-003,1.595726e-004
-1.908219e-003,1.678379e-004
-1.739833e-003,1.715654e-004
-1.532389e-003,1.756171e-004
-1.257526e-003,1.833962e-004
-9.262649e-004,1.947408e-004
-5.809038e-004,2.062474e-004
-2.676316e-004,2.171058e-004
-2.745081e-005,2.260194e-004
1.124116e-004,2.289366e-004
1.451488e-004,2.256952e-004
8.502253e-005,2.250470e-004
-2.809907e-005,2.294227e-004
-1.515928e-004,2.373639e-004
-2.498044e-004,2.475741e-004
-2.940482e-004,2.592428e-004
-2.791382e-004,2.681563e-004
-2.112329e-004,2.681563e-004
-1.138316e-004,2.551911e-004
-1.545797e-005,2.362295e-004
7.011252e-005,2.169437e-004
1.641104e-004,2.026820e-004
3.065659e-004,1.936063e-004
5.031512e-004,1.871237e-004
7.172396e-004,1.790204e-004
8.917841e-004,1.623277e-004
9.784892e-004,1.372076e-004
9.515863e-004,1.067393e-004
8.165857e-004,7.724339e-005
5.979594e-004,5.277153e-005
3.381686e-004,3.235129e-005
8.631905e-005,1.679302e-005
-1.173971e-004,4.244267e-007
-2.540181e-004,-1.626830e-005
-3.282440e-004,-3.020592e-005
-3.583881e-004,-4.106429e-005
-3.199787e-004,-5.240886e-005
-1.434896e-004,-7.153257e-005
2.149989e-004,-1.015147e-004
7.088122e-004,-1.352242e-004
1.226936e-003,-1.681235e-004
1.677802e-003,-1.987538e-004
2.025109e-003,-2.287359e-004
2.238713e-003,-2.538560e-004
2.298839e-003,-2.666592e-004
2.234661e-003,-2.634179e-004
2.100470e-003,-2.465631e-004
1.912636e-003,-2.241981e-004
1.625131e-003,-2.053985e-004
1.179612e-003,-1.968091e-004
5.486915e-004,-1.963229e-004
-2.551526e-004,-1.982676e-004
-1.176494e-003,-1.966470e-004
-2.107884e-003,-1.903264e-004
-2.870240e-003,-1.814128e-004
-3.279132e-003,-1.703924e-004
-3.236022e-003,-1.566169e-004
-2.786776e-003,-1.436516e-004
-2.109828e-003,-1.350622e-004
-1.432071e-003,-1.332795e-004
-9.395542e-004,-1.374932e-004
-7.193076e-004,-1.460826e-004
-7.475069e-004,-1.551583e-004
-9.191341e-004,-1.611547e-004
-1.100161e-003,-1.614788e-004
-1.182976e-003,-1.488377e-004
-1.128198e-003,-1.211246e-004
-9.599745e-004,-8.595638e-005
-7.382692e-004,-5.338126e-005
-5.288809e-004,-2.777494e-005
-3.595226e-004,-8.975362e-006
-2.323013e-004,5.286387e-006
-1.423551e-004,1.452411e-005
-8.482193e-005,1.938607e-005
-4.479180e-005,2.035846e-005
-5.409925e-006,2.197911e-005
4.823370e-005,3.105477e-005
1.190562e-004,4.871989e-005
1.931201e-004,7.448828e-005
2.649151e-004,1.041462e-004
3.542131e-004,1.344524e-004
5.130371e-004,1.626518e-004
7.885484e-004,1.833962e-004
1.162109e-003,1.961994e-004
1.543612e-003,2.028440e-004
1.794166e-003,2.099749e-004
1.769369e-003,2.243987e-004
1.438755e-003,2.472499e-004
9.733030e-004,2.783665e-004
6.420412e-004,3.120761e-004
6.162729e-004,3.452995e-004
8.773603e-004,3.804677e-004
1.273286e-003,4.162841e-004
1.615569e-003,4.491834e-004
1.785090e-003,4.687933e-004
1.748463e-003,4.694416e-004
1.528378e-003,4.553419e-004
1.164702e-003,4.302217e-004
6.911471e-004,3.963501e-004
1.247285e-004,3.529166e-004
-5.399013e-004,2.999212e-004
-1.284105e-003,2.419018e-004
-2.003351e-003,1.850168e-004
-2.519044e-003,1.352628e-004
-2.670899e-003,9.539470e-005
-2.408677e-003,6.654708e-005
-1.818921e-003,4.807163e-005
-1.083306e-003,3.024445e-005
-3.852910e-004,7.717366e-006
1.631380e-004,-1.999580e-005
5.376711e-004,-5.305713e-005
7.718556e-004,-8.822530e-005
9.047493e-004,-1.199901e-004
9.723307e-004,-1.433275e-004
1.004906e-003,-1.588858e-004
1.025812e-003,-1.682856e-004
1.048988e-003,-1.763888e-004
1.070704e-003,-1.880575e-004
1.069084e-003,-1.990780e-004
1.017871e-003,-2.002124e-004
9.084769e-004,-1.875713e-004
7.554871e-004,-1.647201e-004
5.874252e-004,-1.407345e-004
4.282770e-004,-1.256624e-004
2.765838e-004,-1.191798e-004
1.085220e-004,-1.139937e-004
-1.052422e-004,-1.055663e-004
-3.729740e-004,-9.503204e-005
-6.630709e-004,-8.611845e-005
-8.974173e-004,-8.449780e-005
-1.012160e-003,-9.065628e-005
-1.003408e-003,-1.047560e-004
-9.350164e-004,-1.284175e-004
-9.201065e-004,-1.577513e-004
-1.042628e-003,-1.878955e-004
-1.288157e-003,-2.165810e-004
-1.532227e-003,-2.428356e-004
-1.619418e-003,-2.660110e-004
-1.459460e-003,-2.861070e-004
-1.090761e-003,-3.040963e-004
-6.447575e-004,-3.196545e-004
-2.760590e-004,-3.322956e-004
-7.509801e-005,-3.402368e-004
-1.237873e-005,-3.425058e-004
3.705119e-005,-3.395886e-004
1.889064e-004,-3.324577e-004
4.723587e-004,-3.204649e-004
8.259855e-004,-3.049066e-004
1.137962e-003,-2.865932e-004
1.318827e-003,-2.639041e-004
1.362747e-003,-2.389460e-004
1.353185e-003,-2.141500e-004
1.374253e-003,-1.875713e-004
1.431787e-003,-1.548341e-004
1.457879e-003,-1.143178e-004
1.350754e-003,-7.137051e-005
1.003447e-003,-2.874733e-005
3.477304e-004,1.322759e-005
-5.995413e-004,5.455425e-005
-1.665931e-003,9.636710e-005
-2.577874e-003,1.365593e-004
-3.085139e-003,1.723757e-004
-3.074767e-003,2.010613e-004
-2.607694e-003,2.235884e-004
-1.874833e-003,2.417397e-004
-1.113774e-003,2.607014e-004
-5.253154e-004,2.882525e-004
-2.115570e-004,3.264999e-004
-1.562927e-004,3.710679e-004
-2.624455e-004,4.151496e-004
-4.228902e-004,4.527488e-004
-5.625904e-004,4.832171e-004
-6.505919e-004,5.096338e-004
-6.778188e-004,5.409124e-004
-6.455678e-004,5.796460e-004
-5.606457e-004,6.185417e-004
-4.191627e-004,6.394482e-004
-2.154466e-004,6.281036e-004
4.742337e-005,5.801322e-004
3.485408e-004,5.052580e-004
6.426895e-004,4.219564e-004
8.807636e-004,3.499994e-004
1.043153e-003,3.002453e-004
1.149955e-003,2.704253e-004
1.250597e-003,2.506533e-004
1.388191e-003,2.318537e-004
1.573594e-003,2.093267e-004
1.782497e-003,1.832341e-004
1.988320e-003,1.519555e-004
2.163189e-003,1.179218e-004
2.259619e-003,8.048470e-005
2.218130e-003,4.013043e-005
2.009875e-003,1.883015e-006
1.662082e-003,-2.890940e-005
1.233094e-003,-4.965376e-005
7.789865e-004,-6.132246e-005
3.273102e-004,-7.039812e-005
-1.214487e-004,-8.320128e-005
-5.395772e-004,-1.007043e-004
-8.468530e-004,-1.188556e-004
-9.345302e-004,-1.368449e-004
-7.437794e-004,-1.536997e-004
-3.136581e-004,-1.632615e-004
2.325020e-004,-1.653684e-004
7.434942e-004,-1.621271e-004
1.102956e-003,-1.556445e-004
1.246708e-003,-1.477033e-004
1.174102e-003,-1.389517e-004
9.321384e-004,-1.303623e-004
6.154625e-004,-1.208004e-004
3.425444e-004,-1.125351e-004
1.911753e-004,-1.088076e-004
1.582761e-004,-1.130213e-004
1.607070e-004,-1.206384e-004
1.099806e-004,-1.279313e-004
-4.171256e-005,-1.373311e-004
-3.058790e-004,-1.514308e-004
-6.791154e-004,-1.671511e-004
-1.126091e-003,-1.796301e-004
-1.567395e-003,-1.872472e-004
-1.913567e-003,-1.893541e-004
-2.099942e-003,-1.864369e-004
-2.110152e-003,-1.794681e-004
-1.993789e-003,-1.692580e-004
-1.837396e-003,-1.569410e-004
-1.681489e-003,-1.430034e-004
-1.504514e-003,-1.290658e-004
-1.283619e-003,-1.144799e-004
-1.055431e-003,-9.940781e-005
-8.807246e-004,-8.271508e-005
-7.609584e-004,-6.423963e-005
-6.207718e-004,-4.414354e-005
-3.770257e-004,-2.177852e-005
-1.513384e-005,-2.238346e-007
3.837090e-004,1.727922e-005
6.798024e-004,2.959619e-005
7.587284e-004,3.656499e-005
5.828873e-004,4.402000e-005
2.114335e-004,5.860588e-005
-2.013469e-004,8.080883e-005
-4.860956e-004,1.065772e-004
-5.468701e-004,1.318594e-004
-3.896668e-004,1.542244e-004
-9.649064e-005,1.754550e-004
2.231022e-004,1.966855e-004
4.843516e-004,2.187264e-004
6.488480e-004,2.381743e-004
7.161052e-004,2.498430e-004
7.083260e-004,2.514636e-004
6.545202e-004,2.397949e-004
5.825632e-004,2.198609e-004
5.146578e-004,1.960373e-004
4.568005e-004,1.725378e-004
4.028327e-004,1.504969e-004
3.404375e-004,1.333180e-004
2.675081e-004,1.235941e-004
2.000889e-004,1.187321e-004
1.584381e-004,1.153287e-004
1.543865e-004,1.096565e-004
1.867996e-004,9.977047e-005
2.441707e-004,8.307774e-005
3.127243e-004,6.087479e-005
3.853296e-004,3.737532e-005
4.576108e-004,1.711715e-005
5.237334e-004,6.907040e-006
5.741358e-004,4.800190e-006
6.076833e-004,5.286387e-006
6.256726e-004,2.369211e-006
6.251864e-004,-5.571990e-006
6.031455e-004,-1.837515e-005
5.692738e-004,-3.587821e-005
5.441537e-004,-5.710876e-005
5.495019e-004,-8.320128e-005
5.955285e-004,-1.133454e-004
6.951987e-004,-1.399241e-004
8.464058e-004,-1.553203e-004
1.004258e-003,-1.580754e-004
1.104738e-003,-1.541859e-004
1.105224e-003,-1.493239e-004
1.004582e-003,-1.462447e-004
8.363577e-004,-1.447861e-004
6.504686e-004,-1.462447e-004
4.838654e-004,-1.481895e-004
3.564820e-004,-1.480274e-004
2.751252e-004,-1.402483e-004
2.271538e-004,-1.245279e-004
1.709172e-004,-1.067007e-004
2.732727e-005,-9.616651e-005
-2.961551e-004,-9.373552e-005
-8.768350e-004,-9.568031e-005
-1.709689e-003,-1.002181e-004
-2.591163e-003,-1.024871e-004
-3.173951e-003,-1.008664e-004
-3.184000e-003,-9.681477e-005
-2.577874e-003,-8.984595e-005
-1.558968e-003,-7.963584e-005
-4.499550e-004,-6.715681e-005
4.514523e-004,-5.176061e-005
9.852959e-004,-3.701266e-005
1.164702e-003,-2.809907e-005
1.092421e-003,-2.939559e-005
8.977805e-004,-3.782299e-005
6.908230e-004,-4.884343e-005
5.326470e-004,-5.791909e-005
4.443214e-004,-6.456377e-005
4.101256e-004,-6.569822e-005
3.963501e-004,-5.889148e-005
3.675024e-004,-4.414354e-005
2.978143e-004,-2.712668e-005
1.689724e-004,-1.270286e-005
-2.647842e-005,-5.734056e-006
-2.835140e-004,-4.923729e-006
-5.789590e-004,-2.816880e-006
-8.825073e-004,2.531276e-006
-1.134519e-003,1.128280e-005
-1.259471e-003,2.100672e-005
-1.205503e-003,2.910999e-005
-9.651606e-004,3.753739e-005
-5.687489e-004,5.115087e-005
-8.190475e-005,7.497447e-005
4.094774e-004,1.104668e-004
8.365198e-004,1.514693e-004
1.163892e-003,1.893926e-004
1.376522e-003,2.192126e-004
1.477651e-003,2.383363e-004
1.494506e-003,2.495189e-004
1.468251e-003,2.563256e-004
1.422873e-003,2.602152e-004
1.336006e-003,2.600531e-004
1.126293e-003,2.535705e-004
6.917953e-004,2.370398e-004
-4.009191e-005,2.162954e-004
-1.042304e-003,2.013854e-004
-2.144510e-003,1.970097e-004
-3.091460e-003,1.984683e-004
-3.667118e-003,2.013854e-004
-3.782509e-003,1.997648e-004
-3.506024e-003,1.934442e-004
-3.030523e-003,1.833962e-004
-2.556967e-003,1.726999e-004
-2.191023e-003,1.675138e-004
-1.917133e-003,1.720516e-004
-1.649076e-003,1.798307e-004
-1.305336e-003,1.866375e-004
-8.659766e-004,1.906891e-004
-3.776739e-004,1.903650e-004
7.254349e-005,1.822617e-004
4.025085e-004,1.671896e-004
5.843459e-004,1.529279e-004
6.572754e-004,1.436902e-004
6.973055e-004,1.370455e-004
7.634282e-004,1.260251e-004
8.742810e-004,1.060910e-004
1.013495e-003,7.594687e-005
1.149144e-003,4.239934e-005
1.256107e-003,1.079661e-005
1.318989e-003,-1.594417e-005
1.332116e-003,-4.138842e-005
1.298245e-003,-7.137051e-005
1.233742e-003,-1.039456e-004
1.163568e-003,-1.324691e-004
1.101659e-003,-1.533756e-004
1.046395e-003,-1.694200e-004
9.888613e-004,-1.843300e-004
9.229007e-004,-1.938919e-004
8.496471e-004,-1.969711e-004
7.726660e-004,-1.956746e-004
7.047605e-004,-1.940539e-004
6.592202e-004,-1.935677e-004
6.370172e-004,-1.911368e-004
6.311828e-004,-1.875713e-004
6.315070e-004,-1.823853e-004
6.313449e-004,-1.818991e-004
6.256726e-004,-1.898403e-004
6.143281e-004,-2.045882e-004
6.007145e-004,-2.207947e-004
5.922872e-004,-2.350565e-004
6.115729e-004,-2.423494e-004
6.820714e-004,-2.337599e-004
7.968137e-004,-2.094502e-004
9.212800e-004,-1.763888e-004
1.006527e-003,-1.430034e-004
1.014306e-003,-1.183694e-004
9.410520e-004,-1.020008e-004
8.159374e-004,-8.968389e-005
6.948746e-004,-7.833932e-005
6.425274e-004,-6.731888e-005
7.086502e-004,-5.402952e-005
8.951875e-004,-3.701266e-005
1.151575e-003,-1.934754e-005
1.411204e-003,-1.844488e-006
1.629345e-003,1.727922e-005
1.759483e-003,3.883391e-005
1.728853e-003,6.136099e-005
1.477489e-003,8.016057e-005
1.008147e-003,9.426025e-005
4.080188e-004,1.031738e-004
-1.851404e-004,1.096565e-004
-6.538332e-004,1.174356e-004
-9.693743e-004,1.257009e-004
-1.182976e-003,1.355869e-004
-1.390420e-003,1.472556e-004
-1.672252e-003,1.618415e-004
-2.048892e-003,1.811273e-004
-2.502189e-003,2.052750e-004
-3.028092e-003,2.380122e-004
-3.623360e-003,2.785285e-004
-4.242291e-003,3.175863e-004
-4.748101e-003,3.454615e-004
-4.956681e-003,3.566440e-004
-4.729301e-003,3.503235e-004
-4.038736e-003,3.302274e-004
-3.003296e-003,3.005694e-004
-1.855224e-003,2.654013e-004
-8.522011e-004,2.263435e-004
-1.723372e-004,1.866375e-004
1.738343e-004,1.534141e-004
3.268240e-004,1.307250e-004
4.438352e-004,1.175977e-004
6.104385e-004,1.130598e-004
8.306854e-004,1.120874e-004
1.059846e-003,1.090082e-004
1.253190e-003,1.013911e-004
1.382032e-003,8.875003e-005
1.435838e-003,7.351589e-005
1.423521e-003,6.136099e-005
1.390136e-003,5.990240e-005
1.397105e-003,6.930219e-005
1.466144e-003,8.323981e-005
1.569705e-003,9.134307e-005
1.659003e-003,8.826383e-005
1.708595e-003,7.448828e-005
1.722046e-003,5.228533e-005
1.738415e-003,2.262738e-005
1.803241e-003,-9.785688e-006
1.905667e-003,-3.782299e-005
1.953638e-003,-6.245691e-005
1.844730e-003,-8.595638e-005
1.554308e-003,-1.073490e-004
1.139420e-003,-1.267968e-004
6.898505e-004,-1.455964e-004
2.929524e-004,-1.634236e-004
-2.210265e-005,-1.759026e-004
-2.942103e-004,-1.802784e-004
-5.810658e-004,-1.742820e-004
-9.147583e-004,-1.616409e-004
-1.293505e-003,-1.489998e-004
-1.700775e-003,-1.370070e-004
-2.091677e-003,-1.248521e-004
-2.337530e-003,-1.131834e-004
-2.296042e-003,-1.065387e-004
-1.925074e-003,-1.096179e-004
-1.330780e-003,-1.238797e-004
-7.313004e-004,-1.421931e-004
-3.256510e-004,-1.559686e-004
-1.789819e-004,-1.619650e-004
-1.836818e-004,-1.652063e-004
-1.493239e-004,-1.723372e-004
5.406805e-005,-1.878955e-004
4.151496e-004,-2.089640e-004
7.937344e-004,-2.285739e-004
1.025326e-003,-2.379736e-004
1.001827e-003,-2.370013e-004
7.139983e-004,-2.235498e-004
3.018659e-004,-2.023193e-004
-2.356124e-005,-1.789819e-004
-1.198280e-004,-1.541859e-004
2.084466e-005,-1.287416e-004
2.979764e-004,-1.028112e-004
5.705704e-004,-7.801519e-005
7.387943e-004,-5.451572e-005
7.744487e-004,-3.409549e-005
7.075156e-004,-1.675450e-005
5.960147e-004,-1.358292e-006
4.947237e-004,1.128280e-005
4.323286e-004,2.230325e-005
4.122325e-004,3.235129e-005
4.170944e-004,4.320967e-005
4.237391e-004,5.811968e-005
4.148255e-004,7.627100e-005
3.830607e-004,9.814982e-005
3.310377e-004,1.218114e-004
2.725321e-004,1.432040e-004
2.214815e-004,1.586002e-004
1.861513e-004,1.681620e-004
1.701068e-004,1.748067e-004
1.699448e-004,1.808031e-004
1.814514e-004,1.867996e-004
1.931201e-004,1.923098e-004
1.905271e-004,1.968476e-004
1.660552e-004,2.005751e-004
1.182459e-004,2.039785e-004
5.034055e-005,2.081922e-004
-3.636440e-005,2.169437e-004
-1.478653e-004,2.323399e-004
-2.908069e-004,2.491947e-004
-4.527101e-004,2.603772e-004
-5.920863e-004,2.624841e-004
-6.467023e-004,2.538946e-004
-5.784728e-004,2.370398e-004
-3.916115e-004,2.154851e-004
-1.269589e-004,1.950649e-004
1.566554e-004,1.790204e-004
4.104497e-004,1.660552e-004
6.054144e-004,1.532520e-004
7.376599e-004,1.433661e-004
8.185305e-004,1.368834e-004
8.598572e-004,1.287802e-004
8.737948e-004,1.145184e-004
8.741189e-004,9.426025e-005
8.707156e-004,7.302970e-005
8.760638e-004,5.455425e-005
8.932427e-004,4.013043e-005
8.972943e-004,3.218923e-005
8.412196e-004,3.299956e-005
6.684579e-004,4.110282e-005
3.686369e-004,5.293359e-005
1.403791e-005,6.557468e-005
-2.729798e-004,7.384002e-005
-3.956632e-004,7.497447e-005
-3.215994e-004,6.589881e-005
-9.292520e-005,4.483033e-005
2.036544e-004,1.436204e-005
4.720346e-004,-1.967167e-005
6.350724e-004,-4.884343e-005
6.394482e-004,-7.266703e-005
4.555039e-004,-9.260107e-005
8.826383e-005,-1.094559e-004
-4.190006e-004,-1.216107e-004
-9.954668e-004,-1.267968e-004
-1.557509e-003,-1.222590e-004
-2.023933e-003,-1.141558e-004
-2.341906e-003,-1.079973e-004
-2.504296e-003,-1.075111e-004
-2.543678e-003,-1.089697e-004
-2.490358e-003,-1.114006e-004
-2.361192e-003,-1.141558e-004
-2.172872e-003,-1.196660e-004
-1.948411e-003,-1.258245e-004
-1.711796e-003,-1.285796e-004
-1.492845e-003,-1.287416e-004
-1.318625e-003,-1.267968e-004
-1.189621e-003,-1.217728e-004
-1.081523e-003,-1.146419e-004
-9.570573e-004,-1.068628e-004
-7.940196e-004,-1.018388e-004
-5.956517e-004,-1.013526e-004
-3.831841e-004,-1.028112e-004
-1.810887e-004,-1.018388e-004
-8.813297e-006,-9.568031e-005
1.281319e-004,-8.401160e-005
2.431983e-004,-6.910160e-005
3.572923e-004,-5.548811e-005
4.809482e-004,-4.138842e-005
6.088178e-004,-2.842320e-005
7.258290e-004,-1.967167e-005
8.058894e-004,-1.675450e-005
8.353853e-004,-1.821308e-005
8.345750e-004,-2.080613e-005
8.387887e-004,-1.756482e-005
8.708776e-004,-3.465141e-006
9.301936e-004,2.311357e-005
9.992336e-004,6.281957e-005
1.056605e-003,1.088461e-004
1.088370e-003,1.540623e-004
1.079942e-003,1.876099e-004
1.012037e-003,2.046267e-004
8.699053e-004,2.067336e-004
6.613270e-004,1.997648e-004
4.091532e-004,1.879340e-004
1.560072e-004,1.752929e-004
-8.384954e-005,1.667035e-004
-3.431540e-004,1.637863e-004
-6.311440e-004,1.670276e-004
-8.624112e-004,1.773998e-004
-9.021172e-004,1.906891e-004
-6.802498e-004,1.996027e-004
-2.481838e-004,2.036544e-004
2.603772e-004,2.049509e-004
7.096225e-004,2.036544e-004
1.029378e-003,2.025199e-004
1.217050e-003,2.051129e-004
1.312182e-003,2.077060e-004
1.352374e-003,2.055991e-004
1.350106e-003,1.923098e-004
1.292410e-003,1.699448e-004
1.168106e-003,1.479039e-004
9.838373e-004,1.326697e-004
7.524078e-004,1.302388e-004
4.984512e-004,1.355869e-004
2.459534e-004,1.375317e-004
-1.416145e-005,1.226217e-004
-2.893484e-004,8.615699e-005
-5.186707e-004,2.894792e-005
-5.979206e-004,-3.604027e-005
-4.384484e-004,-9.422172e-005
-2.712668e-005,-1.349001e-004
5.501501e-004,-1.556445e-004
1.129372e-003,-1.627754e-004
1.520436e-003,-1.663408e-004
1.567598e-003,-1.749302e-004
1.188202e-003,-1.895161e-004
3.689610e-004,-2.044261e-004
-8.165467e-004,-2.086398e-004
-2.163796e-003,-2.002124e-004
-3.399061e-003,-1.827094e-004
-4.234350e-003,-1.629374e-004
-4.489280e-003,-1.459206e-004
-4.162717e-003,-1.336036e-004
-3.412188e-003,-1.224211e-004
-2.463131e-003,-1.073490e-004
-1.511483e-003,-8.433573e-005
-6.674466e-004,-5.548811e-005
4.094075e-005,-2.615429e-005
6.175694e-004,-2.654814e-006
1.063249e-003,1.144487e-005
1.360640e-003,1.387585e-005
1.506499e-003,3.341602e-006
1.547339e-003,-1.399939e-005
1.542802e-003,-3.182657e-005
1.526433e-003,-4.689865e-005
1.502123e-003,-5.872941e-005
1.456097e-003,-7.137051e-005
1.377332e-003,-8.935975e-005
1.271017e-003,-1.104282e-004
1.155465e-003,-1.295519e-004
1.048015e-003,-1.412206e-004
9.572586e-004,-1.423551e-004
8.804395e-004,-1.316588e-004
8.130203e-004,-1.115627e-004
7.514353e-004,-9.017008e-005
6.994124e-004,-7.542214e-005
6.588960e-004,-7.039812e-005
6.318311e-004,-7.039812e-005
6.128695e-004,-7.088431e-005
5.939078e-004,-6.618442e-005
5.640878e-004,-5.419158e-005
5.206542e-004,-4.025397e-005
4.623107e-004,-3.036798e-005
3.950536e-004,-2.420950e-005
3.269861e-004,-1.934754e-005
2.670219e-004,-1.270286e-005
2.336365e-004,-2.492749e-006
2.389846e-004,1.355172e-005
2.754493e-004,3.786152e-005
3.146691e-004,6.995045e-005
3.305515e-004,1.046324e-004
3.164518e-004,1.346145e-004
2.871180e-004,1.485521e-004
2.590807e-004,1.394765e-004
2.477361e-004,1.114392e-004
2.767458e-004,7.448828e-005
3.751195e-004,4.304761e-005
5.535535e-004,3.202716e-005
7.736384e-004,4.920609e-005
9.635791e-004,8.842590e-005
1.046881e-003,1.375317e-004
9.736272e-004,1.840444e-004
7.251808e-004,2.235884e-004
3.057555e-004,2.572980e-004
-2.559629e-004,2.864697e-004
-8.622491e-004,3.093210e-004
-1.379238e-003,3.243930e-004
-1.719251e-003,3.260137e-004
-1.856682e-003,3.086727e-004
-1.781970e-003,2.749631e-004
-1.522341e-003,2.315296e-004
-1.173415e-003,1.903650e-004
-8.823453e-004,1.589243e-004
-7.734374e-004,1.360731e-004
-8.799143e-004,1.188942e-004
-1.116043e-003,1.039842e-004
-1.318301e-003,9.101894e-005
-1.347959e-003,7.935024e-005
-1.147484e-003,6.930219e-005
-7.577171e-004,6.119892e-005
-2.878898e-004,5.358185e-005
1.420695e-004,4.612685e-005
4.470765e-004,3.915804e-005
6.034696e-004,3.624086e-005
6.263209e-004,4.126489e-005
5.566327e-004,5.504044e-005
4.399457e-004,7.059871e-005
3.169380e-004,7.740546e-005
2.130541e-004,7.011252e-005
1.360731e-004,4.823370e-005
6.784360e-005,1.614476e-005
-2.372331e-005,-1.967167e-005
-1.669890e-004,-5.273300e-005
-3.647087e-004,-7.607040e-005
-5.802555e-004,-9.146661e-005
-7.633893e-004,-1.034594e-004
-8.627353e-004,-1.123730e-004
-8.510666e-004,-1.169109e-004
-7.429690e-004,-1.167488e-004
-5.789590e-004,-1.126972e-004
-4.118697e-004,-1.062146e-004
-2.908069e-004,-9.843541e-005
-2.399184e-004,-8.790117e-005
-2.460769e-004,-7.833932e-005
-2.686040e-004,-7.655660e-005
-2.731418e-004,-8.417367e-005
-2.478596e-004,-1.010285e-004
-1.955125e-004,-1.214487e-004
-1.195039e-004,-1.397621e-004
-1.886135e-005,-1.502963e-004
1.094944e-004,-1.538618e-004
2.678322e-004,-1.514308e-004
4.452938e-004,-1.470550e-004
6.230795e-004,-1.392759e-004
7.718556e-004,-1.297140e-004
8.525642e-004,-1.229073e-004
8.284165e-004,-1.217728e-004
6.789921e-004,-1.233935e-004
4.298976e-004,-1.199901e-004
1.573037e-004,-1.018388e-004
-4.511593e-005,-6.391550e-005
-1.086455e-004,-9.623623e-006
-3.150244e-005,5.341979e-005
1.229458e-004,1.151667e-004
2.722080e-004,1.686482e-004
3.566440e-004,2.033302e-004
3.632887e-004,2.135403e-004
3.180725e-004,1.983062e-004
2.631324e-004,1.597346e-004
2.284504e-004,1.070634e-004
2.214815e-004,5.698522e-005
2.333123e-004,2.603075e-005
2.485465e-004,2.084466e-005
2.503292e-004,3.980630e-005
2.328261e-004,7.367795e-005
2.033302e-004,1.096565e-004
1.688103e-004,1.389903e-004
1.325077e-004,1.590864e-004
9.733949e-005,1.715654e-004
6.136099e-005,1.778860e-004
2.684107e-005,1.816135e-004
2.343770e-005,1.885823e-004
1.268354e-004,1.991165e-004
4.012120e-004,2.070577e-004
8.217718e-004,2.070577e-004
1.275879e-003,1.978200e-004
1.643769e-003,1.806411e-004
1.856237e-003,1.589243e-004
1.911663e-003,1.362352e-004
1.861261e-003,1.137081e-004
1.760132e-003,9.782569e-005
1.615083e-003,8.810177e-005
1.376846e-003,8.550872e-005
9.736272e-004,9.166720e-005
3.342791e-004,1.088461e-004
-5.661559e-004,1.329939e-004
-1.669821e-003,1.592484e-004
-2.813193e-003,1.806411e-004
-3.748637e-003,1.906891e-004
-4.277459e-003,1.885823e-004
-4.325269e-003,1.738343e-004
-3.938093e-003,1.457970e-004
-3.245584e-003,1.022015e-004
-2.406570e-003,4.515445e-005
-1.557347e-003,-2.194059e-005
-7.980713e-004,-9.405965e-005
-1.812508e-004,-1.616409e-004
2.780424e-004,-2.156086e-004
5.960147e-004,-2.536940e-004
8.110755e-004,-2.780038e-004
9.906441e-004,-2.887001e-004
1.211053e-003,-2.878898e-004
1.508930e-003,-2.754107e-004
1.861747e-003,-2.572594e-004
2.210027e-003,-2.412149e-004
2.477436e-003,-2.344082e-004
2.580510e-003,-2.376495e-004
2.444050e-003,-2.467252e-004
2.035320e-003,-2.533699e-004
1.394349e-003,-2.517492e-004
6.362069e-004,-2.404046e-004
-9.162867e-005,-2.190120e-004
-6.752257e-004,-1.909747e-004
-1.121716e-003,-1.637477e-004
-1.518128e-003,-1.460826e-004
-1.943711e-003,-1.391138e-004
-2.384043e-003,-1.412206e-004
-2.748043e-003,-1.421931e-004
-2.975745e-003,-1.311726e-004
-3.063422e-003,-1.057284e-004
-3.019989e-003,-6.812920e-005
-2.839123e-003,-2.096820e-005
-2.517261e-003,2.538249e-005
-2.068502e-003,6.087479e-005
-1.533038e-003,8.210535e-005
-9.758569e-004,9.361199e-005
-4.616237e-004,9.977047e-005
-2.890940e-005,1.057669e-004
3.185587e-004,1.127357e-004
5.990939e-004,1.201907e-004
8.269579e-004,1.257009e-004
1.005878e-003,1.289422e-004
1.135855e-003,1.321835e-004
1.220291e-003,1.419075e-004
1.270693e-003,1.568175e-004
1.300351e-003,1.735102e-004
1.322716e-003,1.879340e-004
1.351078e-003,1.970097e-004
1.393053e-003,1.961994e-004
1.450910e-003,1.871237e-004
1.511685e-003,1.746447e-004
1.555118e-003,1.642725e-004
1.566139e-003,1.573037e-004
1.538750e-003,1.511452e-004
1.463876e-003,1.422316e-004
1.336816e-003,1.328318e-004
1.172482e-003,1.278078e-004
1.003285e-003,1.333180e-004
8.528884e-004,1.517934e-004
7.188602e-004,1.801549e-004
5.728393e-004,2.070577e-004
3.783608e-004,2.235884e-004
1.210010e-004,2.289366e-004
-1.694200e-004,2.278021e-004
-4.152731e-004,2.234263e-004
-5.371462e-004,2.171058e-004
-5.035987e-004,2.088404e-004
-3.324577e-004,1.968476e-004
-8.222889e-005,1.795066e-004
1.717275e-004,1.529279e-004
3.715541e-004,1.146805e-004
4.884033e-004,7.076078e-005
5.276231e-004,2.878586e-005
5.209784e-004,-4.437533e-006
5.109303e-004,-2.712668e-005
5.368608e-004,-4.122636e-005
6.355586e-004,-5.208474e-005
8.549952e-004,-6.618442e-005
1.211701e-003,-8.255302e-005
1.647010e-003,-1.000561e-004
2.053309e-003,-1.173971e-004
2.342273e-003,-1.318209e-004
2.475653e-003,-1.444620e-004
2.469170e-003,-1.571031e-004
2.355886e-003,-1.699062e-004
2.155735e-003,-1.828714e-004
1.878602e-003,-1.943781e-004
1.524002e-003,-2.015090e-004
1.083832e-003,-2.034537e-004
5.480433e-004,-2.034537e-004
-8.935975e-005,-2.034537e-004
-8.251361e-004,-2.052365e-004
-1.689268e-003,-2.100984e-004
-2.687430e-003,-2.165810e-004
-3.707634e-003,-2.207947e-004
-4.543735e-003,-2.203085e-004
-4.953115e-003,-2.122053e-004
-4.764956e-003,-1.976194e-004
-3.987523e-003,-1.765509e-004
-2.825672e-003,-1.525652e-004
-1.571609e-003,-1.305243e-004
-4.869059e-004,-1.161005e-004
2.809595e-004,-1.081593e-004
7.548388e-004,-1.013526e-004
1.063249e-003,-8.919769e-005
1.299865e-003,-6.926366e-005
1.480406e-003,-4.365734e-005
1.581859e-003,-1.594417e-005
1.591907e-003,7.879432e-006
1.526919e-003,2.343770e-005
1.419794e-003,3.413401e-005
1.302782e-003,4.418206e-005
1.171509e-003,5.439218e-005
9.831890e-004,6.281957e-005
6.668373e-004,7.059871e-005
1.493625e-004,7.870197e-005
-6.055377e-004,8.842590e-005
-1.549730e-003,9.863601e-005
-2.501379e-003,1.078737e-004
-3.186916e-003,1.154908e-004
-3.390958e-003,1.213252e-004
-3.064395e-003,1.260251e-004
-2.344013e-003,1.320215e-004
-1.473235e-003,1.417454e-004
-6.880290e-004,1.577899e-004
-1.323071e-004,1.782101e-004
1.663793e-004,1.960373e-004
2.647530e-004,2.083542e-004
2.551911e-004,2.151610e-004
2.234263e-004,2.149989e-004
2.132162e-004,2.096508e-004
2.310434e-004,2.020337e-004
2.632944e-004,1.944166e-004
2.958695e-004,1.866375e-004
3.213138e-004,1.798307e-004
3.397893e-004,1.733481e-004
3.511338e-004,1.692965e-004
3.581026e-004,1.684862e-004
3.658818e-004,1.723757e-004
3.901916e-004,1.808031e-004
4.555039e-004,1.902029e-004
5.704083e-004,1.968476e-004
7.073536e-004,1.984683e-004
8.256614e-004,1.953890e-004
8.925945e-004,1.830721e-004
9.003736e-004,1.611932e-004
8.622882e-004,1.347766e-004
7.997309e-004,1.098185e-004
7.289083e-004,8.988449e-005
6.488480e-004,7.400208e-005
5.444778e-004,5.957827e-005
3.997535e-004,4.483033e-005
2.239125e-004,2.862379e-005
4.207521e-005,1.144487e-005
-1.248521e-004,-7.516774e-006
-2.626076e-004,-2.761287e-005
-3.598467e-004,-4.689865e-005
-3.956632e-004,-6.488790e-005
-3.515814e-004,-8.060823e-005
-2.295462e-004,-8.871149e-005
-4.932962e-005,-8.773911e-005
1.333180e-004,-8.060823e-005
2.406053e-004,-7.412562e-005
2.276400e-004,-7.088431e-005
1.368834e-004,-7.153257e-005
5.811968e-005,-6.667062e-005
6.816773e-005,-5.208474e-005
1.984683e-004,-2.809907e-005
4.363802e-004,-7.100305e-007
7.225877e-004,2.149292e-005
9.593654e-004,2.781346e-005
1.022895e-003,1.176900e-005
8.052412e-004,-2.518189e-005
2.657254e-004,-7.218083e-005
-5.395772e-004,-1.156143e-004
-1.443091e-003,-1.477033e-004
-2.246125e-003,-1.669890e-004
-2.787587e-003,-1.726613e-004
-2.981903e-003,-1.673132e-004
-2.820810e-003,-1.556445e-004
-2.369133e-003,-1.396000e-004
-1.763008e-003,-1.235555e-004
-1.165311e-003,-1.091317e-004
-6.984011e-004,-9.940781e-005
-3.959873e-004,-9.486997e-005
-2.096122e-004,-9.405965e-005
-6.310517e-005,-9.616651e-005
9.377406e-005,-9.665270e-005
2.636185e-004,-9.162867e-005
4.140152e-004,-8.012204e-005
5.096338e-004,-6.553616e-005
5.272989e-004,-4.997789e-005
4.679830e-004,-3.522994e-005
3.488649e-004,-2.501983e-005
1.931201e-004,-1.902341e-005
3.478228e-005,-1.124428e-005
-8.741498e-005,1.234753e-006
-1.344139e-004,1.857574e-005
-8.158062e-005,3.397195e-005
6.914012e-005,4.434413e-005
2.814457e-004,5.131294e-005
5.031512e-004,5.730935e-005
6.809369e-004,6.557468e-005
7.890346e-004,7.789165e-005
8.263097e-004,9.328786e-005
8.031343e-004,1.103047e-004
7.321496e-004,1.255389e-004
6.311828e-004,1.360731e-004
5.148199e-004,1.474177e-004
4.013741e-004,1.618415e-004
3.085106e-004,1.791825e-004
2.556773e-004,1.978200e-004
2.483844e-004,2.149989e-004
2.644289e-004,2.269918e-004
2.718839e-004,2.266676e-004
2.519498e-004,2.146748e-004
2.107852e-004,1.966855e-004
1.665414e-004,1.808031e-004
1.415833e-004,1.689724e-004
1.586002e-004,1.594105e-004
2.331503e-004,1.511452e-004
3.611819e-004,1.414213e-004
5.243817e-004,1.294284e-004
6.932539e-004,1.200286e-004
8.329543e-004,1.150046e-004
9.149595e-004,1.159770e-004
9.285730e-004,1.182459e-004
8.791430e-004,1.187321e-004
7.812555e-004,1.151667e-004
6.608408e-004,1.049566e-004
5.642498e-004,8.826383e-005
5.342677e-004,6.606088e-005
5.822391e-004,4.191315e-005
6.716992e-004,2.003433e-005
7.276118e-004,5.934648e-006
6.687820e-004,-2.168618e-006
4.530729e-004,-8.327101e-006
1.266733e-004,-1.691656e-005
-1.836818e-004,-3.198864e-005
-3.478539e-004,-4.997789e-005
-3.050687e-004,-7.120844e-005
-8.320128e-005,-9.179074e-005
2.524360e-004,-1.101041e-004
6.300483e-004,-1.246900e-004
9.742755e-004,-1.355484e-004
1.217860e-003,-1.444620e-004
1.317206e-003,-1.524032e-004
1.268586e-003,-1.588858e-004
1.103442e-003,-1.630995e-004
8.703915e-004,-1.634236e-004
6.478756e-004,-1.580754e-004
5.315126e-004,-1.455964e-004
5.543638e-004,-1.258245e-004
6.608408e-004,-1.063766e-004
7.718556e-004,-9.551824e-005
8.253373e-004,-9.276313e-005
7.661834e-004,-9.649064e-005
5.282713e-004,-1.015147e-004
8.534666e-005,-1.067007e-004
-4.718339e-004,-1.118868e-004
-9.633779e-004,-1.161005e-004
-1.225924e-003,-1.178833e-004
-1.217334e-003,-1.139937e-004
-1.052352e-003,-1.029732e-004
-9.380957e-004,-8.239095e-005
-1.088978e-003,-4.884343e-005
-1.644538e-003,-7.840905e-006
-2.590677e-003,2.781346e-005
-3.728217e-003,5.179914e-005
-4.709853e-003,6.103686e-005
-4.968512e-003,5.520250e-005
-4.968512e-003,3.348575e-005
-4.288804e-003,4.151929e-006
-3.215926e-003,-2.080613e-005
-2.074984e-003,-3.231277e-005
-1.053486e-003,-2.955766e-005
-2.475355e-004,-1.869928e-005
2.791768e-004,-6.868513e-006
4.990995e-004,9.106227e-007
4.909963e-004,5.934648e-006
4.075326e-004,1.290346e-005
3.764160e-004,2.586868e-005
4.431870e-004,4.515445e-005
5.681394e-004,7.027458e-005
6.806127e-004,9.993253e-005
7.259911e-004,1.282940e-004
6.879058e-004,1.479039e-004
5.840218e-004,1.564933e-004
4.517764e-004,1.561692e-004
3.302274e-004,1.558451e-004
2.538946e-004,1.597346e-004
2.386605e-004,1.702689e-004
2.814457e-004,1.876099e-004
3.647473e-004,2.059233e-004
4.636072e-004,2.214815e-004
5.574431e-004,2.329882e-004
6.420412e-004,2.415777e-004
7.161052e-004,2.457913e-004
7.772038e-004,2.412535e-004
8.175581e-004,2.274780e-004
8.378163e-004,2.041406e-004
8.587227e-004,1.775618e-004
9.096113e-004,1.577899e-004
1.009282e-003,1.472556e-004
1.152710e-003,1.456350e-004
1.319475e-003,1.445005e-004
1.483161e-003,1.339663e-004
1.615569e-003,1.143563e-004
1.693523e-003,9.539470e-005
1.716536e-003,8.729144e-005
1.711350e-003,9.409818e-005
1.702760e-003,1.069013e-004
1.689795e-003,1.127357e-004
1.646524e-003,1.056048e-004
1.546367e-003,8.453633e-005
1.383167e-003,5.050261e-005
1.183988e-003,9.662150e-006
9.820546e-004,-3.344723e-005
7.929241e-004,-7.477388e-005
6.089798e-004,-1.089697e-004
4.235771e-004,-1.313347e-004
2.563256e-004,-1.447861e-004
1.453108e-004,-1.545100e-004
1.116012e-004,-1.652063e-004
1.307250e-004,-1.786577e-004
1.274836e-004,-1.898403e-004
1.598270e-005,-1.955125e-004
-2.574215e-004,-1.951884e-004
-6.818705e-004,-1.909747e-004
-1.164339e-003,-1.872472e-004
-1.580523e-003,-1.846542e-004
-1.845986e-003,-1.854645e-004
-1.953921e-003,-1.859507e-004
-1.974017e-003,-1.828714e-004
-2.021665e-003,-1.804405e-004
-2.199613e-003,-1.810887e-004
-2.503810e-003,-1.854645e-004
-2.813355e-003,-1.898403e-004
-2.958242e-003,-1.885437e-004
-2.804117e-003,-1.767130e-004
-2.321000e-003,-1.564548e-004
-1.599160e-003,-1.292278e-004
-8.048780e-004,-9.519411e-005
-1.165867e-004,-5.743289e-005
3.577785e-004,-2.064406e-005
6.149763e-004,1.176900e-005
7.131880e-004,4.061663e-005
7.071915e-004,6.719535e-005
6.341000e-004,9.037068e-005
5.284334e-004,1.127357e-004
4.504799e-004,1.391524e-004
4.720346e-004,1.696206e-004
6.157866e-004,2.012234e-004
8.287407e-004,2.290986e-004
1.024030e-003,2.478982e-004
1.122241e-003,2.488706e-004
1.078484e-003,2.205092e-004
8.869221e-004,1.586002e-004
5.686256e-004,7.270556e-005
1.522796e-004,-1.918548e-005
-3.068514e-004,-9.600444e-005
-7.040734e-004,-1.452723e-004
-9.269132e-004,-1.669890e-004
-9.100584e-004,-1.673132e-004
-6.716604e-004,-1.519170e-004
-3.159271e-004,-1.256624e-004
9.986281e-006,-9.341139e-005
1.892305e-004,-6.099833e-005
2.086784e-004,-3.166451e-005
1.501728e-004,-6.706447e-006
1.247285e-004,2.181705e-005
2.060853e-004,5.747142e-005
3.935950e-004,9.928428e-005
6.400964e-004,1.367214e-004
8.794671e-004,1.634622e-004
1.050770e-003,1.749688e-004
1.117541e-003,1.671896e-004
1.081077e-003,1.383420e-004
9.778409e-004,9.344993e-005
8.540229e-004,4.304761e-005
7.412253e-004,1.002961e-007
6.527375e-004,-2.599222e-005
5.845079e-004,-3.004385e-005
5.282713e-004,-7.354709e-006
4.720346e-004,4.369587e-005
4.107739e-004,1.103047e-004
3.529166e-004,1.767515e-004
3.060797e-004,2.329882e-004
2.728562e-004,2.701012e-004
2.495189e-004,2.864697e-004
2.321778e-004,2.859836e-004
2.148369e-004,2.712356e-004
1.966855e-004,2.451431e-004
1.769136e-004,2.080301e-004
1.569795e-004,1.620036e-004
1.370455e-004,1.117633e-004
1.141943e-004,6.103686e-005
8.340187e-005,1.808955e-005
4.077869e-005,-1.075808e-005
-1.335113e-005,-2.145439e-005
-6.375344e-005,-2.275091e-005
-1.037836e-004,-2.615429e-005
-1.391138e-004,-3.879538e-005
-1.835197e-004,-5.662256e-005
-2.418632e-004,-7.088431e-005
-2.966413e-004,-7.250496e-005
-3.201407e-004,-6.083626e-005
-2.932379e-004,-3.798505e-005
-2.209568e-004,-1.027188e-005
-1.250141e-004,1.808955e-005
-3.360929e-005,4.596478e-005
3.154097e-005,7.627100e-005
6.330578e-005,1.138702e-004
6.816773e-005,1.587623e-004
5.487838e-005,2.000889e-004
2.603075e-005,2.188885e-004
-2.696461e-005,2.065715e-004
-1.167488e-004,1.598967e-004
-2.504527e-004,8.583286e-005
-4.162455e-004,-1.520357e-006
-5.753936e-004,-8.352541e-005
-6.781430e-004,-1.462447e-004
-7.016424e-004,-1.846542e-004
-6.483230e-004,-1.998883e-004
-5.285567e-004,-1.961608e-004
-3.580640e-004,-1.793060e-004
-1.596961e-004,-1.574272e-004
7.302970e-005,-1.347380e-004
3.731747e-004,-1.136696e-004
7.229118e-004,-9.341139e-005
1.026299e-003,-7.234290e-005
1.183664e-003,-5.240886e-005
1.176533e-003,-3.652646e-005
1.075566e-003,-2.501983e-005
9.664963e-004,-1.529591e-005
9.032908e-004,-4.599598e-006
8.817361e-004,7.555301e-006
8.556435e-004,2.068259e-005
7.665075e-004,3.672706e-005
5.294057e-004,5.309566e-005
3.769945e-005,6.816773e-005
-7.596618e-004,7.918817e-005
-1.743236e-003,8.615699e-005
-2.606559e-003,9.150514e-005
-3.013830e-003,1.002567e-004
-2.783697e-003,1.120874e-004
-1.980500e-003,1.235941e-004
-8.530114e-004,1.333180e-004
2.866318e-004,1.406109e-004
1.150927e-003,1.453108e-004
1.603414e-003,1.490383e-004
1.639231e-003,1.529279e-004
1.337626e-003,1.594105e-004
8.190167e-004,1.665414e-004
2.080301e-004,1.702689e-004
-3.792946e-004,1.680000e-004
-8.522011e-004,1.605450e-004
-1.172280e-003,1.493625e-004
-1.361086e-003,1.354248e-004
-1.478584e-003,1.195424e-004
-1.579712e-003,1.072255e-004
-1.682462e-003,1.013911e-004
-1.776784e-003,1.012291e-004
-1.838207e-003,1.051186e-004
-1.843717e-003,1.086841e-004
-1.796880e-003,1.094944e-004
-1.710823e-003,1.062531e-004
-1.573392e-003,9.717743e-005
-1.352173e-003,8.226741e-005
-1.022694e-003,6.119892e-005
-5.984068e-004,3.672706e-005
-1.392759e-004,9.662150e-006
2.673460e-004,-2.015787e-005
5.705704e-004,-4.689865e-005
7.870898e-004,-6.634648e-005
9.533690e-004,-7.995997e-005
1.085452e-003,-9.227693e-005
1.174913e-003,-1.057284e-004
1.214457e-003,-1.185315e-004
1.207650e-003,-1.292278e-004
1.162920e-003,-1.366828e-004
1.098904e-003,-1.452723e-004
1.031971e-003,-1.590478e-004
9.668204e-004,-1.750923e-004
8.948633e-004,-1.882196e-004
8.091307e-004,-1.934057e-004
6.973055e-004,-1.922712e-004
5.449640e-004,-1.877334e-004
3.331446e-004,-1.838438e-004
6.735741e-005,-1.822232e-004
-1.898403e-004,-1.835197e-004
-3.591985e-004,-1.835197e-004
-3.929081e-004,-1.781716e-004
-2.872415e-004,-1.695821e-004
-6.407757e-005,-1.614788e-004
2.401191e-004,-1.596961e-004
5.728393e-004,-1.673132e-004
8.720121e-004,-1.799543e-004
1.093231e-003,-1.914609e-004
1.220453e-003,-1.971332e-004
1.252380e-003,-1.943781e-004
1.194523e-003,-1.848162e-004
1.051419e-003,-1.692580e-004
8.263097e-004,-1.504584e-004
5.154681e-004,-1.337657e-004
1.242423e-004,-1.255003e-004
-2.950206e-004,-1.243659e-004
-6.426507e-004,-1.222590e-004
-8.327533e-004,-1.094559e-004
-8.330774e-004,-8.206682e-005
-6.698776e-004,-4.009191e-005
-4.146248e-004,8.527692e-006
-1.619650e-004,5.487838e-005
-6.706447e-006,9.377406e-005
-7.840905e-006,1.221355e-004
-1.611547e-004,1.404489e-004
-4.063595e-004,1.514693e-004
-6.504298e-004,1.576278e-004
-8.034194e-004,1.581140e-004
-7.852681e-004,1.519555e-004
-5.601594e-004,1.420695e-004
-1.773612e-004,1.329939e-004
2.517878e-004,1.269974e-004
6.174073e-004,1.260251e-004
8.634226e-004,1.305629e-004
9.856200e-004,1.428799e-004
1.006040e-003,1.624898e-004
9.543414e-004,1.871237e-004
8.454334e-004,2.072198e-004
6.733199e-004,2.180782e-004
4.287631e-004,2.213195e-004
1.187321e-004,2.216436e-004
-2.128535e-004,2.224539e-004
-4.961436e-004,2.211574e-004
-6.786292e-004,2.138645e-004
-7.457242e-004,2.034923e-004
-6.917564e-004,1.934442e-004
-4.998712e-004,1.833962e-004
-1.480274e-004,1.756171e-004
3.495132e-004,1.715654e-004
9.261420e-004,1.717275e-004
1.518654e-003,1.767515e-004
2.128345e-003,1.853410e-004
2.785686e-003,1.936063e-004
3.455669e-003,1.986303e-004
4.045593e-003,2.023578e-004
4.453840e-003,2.046267e-004
4.602942e-003,2.041406e-004
4.457891e-003,2.044647e-004
4.010262e-003,2.065715e-004
3.232503e-003,2.036544e-004
2.093015e-003,1.893926e-004
6.532237e-004,1.670276e-004
-8.322670e-004,1.402868e-004
-2.032523e-003,1.124116e-004
-2.847389e-003,8.550872e-005
-3.385123e-003,6.200925e-005
-3.880073e-003,4.175109e-005
-4.516346e-003,2.748934e-005
-4.968674e-003,2.084466e-005
-4.968512e-003,1.873781e-005
-4.968512e-003,1.290346e-005
-4.968512e-003,-2.816880e-006
-4.915516e-003,-3.020592e-005
-3.715090e-003,-6.748094e-005
-2.421318e-003,-1.086455e-004
-1.254771e-003,-1.477033e-004
-3.553089e-004,-1.801163e-004
2.331503e-004,-2.026434e-004
5.525811e-004,-2.128535e-004
6.890402e-004,-2.118811e-004
7.237222e-004,-2.071812e-004
7.105949e-004,-2.023193e-004
6.760749e-004,-1.995642e-004
6.310208e-004,-1.950263e-004
5.820770e-004,-1.846542e-004
5.389676e-004,-1.708786e-004
5.073649e-004,-1.567789e-004
4.882411e-004,-1.441378e-004
4.815964e-004,-1.303623e-004
4.861343e-004,-1.128592e-004
4.992616e-004,-9.276313e-005
5.180612e-004,-7.623246e-005
5.428572e-004,-6.780507e-005
5.720290e-004,-6.942573e-005
6.024973e-004,-8.077030e-005
6.268070e-004,-9.843541e-005
6.381517e-004,-1.146419e-004
6.300483e-004,-1.233935e-004
5.965008e-004,-1.233935e-004
5.350781e-004,-1.157764e-004
4.558281e-004,-1.032974e-004
3.817642e-004,-9.033215e-005
3.490270e-004,-7.736692e-005
3.845193e-004,-6.375344e-005
4.966686e-004,-4.835724e-005
6.798024e-004,-3.328516e-005
9.042631e-004,-1.999580e-005
1.124510e-003,-8.975362e-006
1.302944e-003,2.531276e-006
1.427573e-003,1.760335e-005
1.505689e-003,4.045456e-005
1.545719e-003,6.606088e-005
1.543936e-003,8.777764e-005
1.489158e-003,1.020394e-004
1.380250e-003,1.098185e-004
1.223694e-003,1.145184e-004
9.997197e-004,1.171115e-004
6.593822e-004,1.167873e-004
1.503349e-004,1.153287e-004
-5.366600e-004,1.166253e-004
-1.322028e-003,1.206769e-004
-2.054564e-003,1.278078e-004
-2.586139e-003,1.360731e-004
-2.855330e-003,1.441764e-004
-2.907353e-003,1.521176e-004
-2.842527e-003,1.610312e-004
-2.713523e-003,1.707551e-004
-2.491168e-003,1.790204e-004
-2.134786e-003,1.838824e-004
-1.644701e-003,1.859892e-004
-1.075041e-003,1.874478e-004
-5.053814e-004,1.882582e-004
-1.724069e-005,1.859892e-004
3.320101e-004,1.780480e-004
5.396159e-004,1.634622e-004
6.485239e-004,1.435281e-004
7.170775e-004,1.237561e-004
7.914656e-004,1.096565e-004
8.878945e-004,1.038221e-004
9.874027e-004,9.960841e-005
1.044450e-003,9.377406e-005
1.023219e-003,8.664318e-005
9.310039e-004,7.870197e-005
8.091307e-004,7.140904e-005
6.973055e-004,6.573675e-005
6.182176e-004,6.038860e-005
5.710566e-004,5.147500e-005
5.407503e-004,3.980630e-005
5.083373e-004,2.619281e-005
4.597176e-004,1.419998e-005
3.966742e-004,4.638125e-006
3.508097e-004,-3.141010e-006
3.718782e-004,-4.923729e-006
4.911583e-004,-2.006553e-006
6.802886e-004,1.072688e-006
8.634226e-004,-6.176923e-008
9.724927e-004,-3.951337e-006
9.794616e-004,-1.010982e-005
8.981046e-004,-2.599222e-005
7.669937e-004,-6.083626e-005
6.221072e-004,-1.130213e-004
4.788414e-004,-1.707166e-004
3.388169e-004,-2.175534e-004
1.882582e-004,-2.441321e-004
1.128280e-005,-2.504527e-004
-2.084778e-004,-2.454286e-004
-5.058676e-004,-2.344082e-004
-9.403646e-004,-2.225774e-004
-1.530606e-003,-2.144742e-004
-2.183406e-003,-2.083157e-004
-2.703637e-003,-2.010227e-004
-2.892929e-003,-1.898403e-004
-2.652424e-003,-1.741199e-004
-2.027985e-003,-1.545100e-004
-1.180870e-003,-1.308485e-004
-3.110651e-004,-1.071869e-004
4.055878e-004,-8.611845e-005
8.729845e-004,-6.569822e-005
1.095825e-003,-3.944364e-005
1.137800e-003,-8.651231e-006
1.071029e-003,2.214118e-005
9.496415e-004,4.434413e-005
8.003792e-004,5.050261e-005
6.339379e-004,4.499239e-005
4.696036e-004,4.320967e-005
3.405996e-004,5.601284e-005
2.684805e-004,8.696731e-005
2.201850e-004,1.300767e-004
1.545486e-004,1.785342e-004
9.993253e-005,2.237505e-004
1.268354e-004,2.660495e-004
2.631324e-004,3.085106e-004
4.715484e-004,3.571303e-004
6.731578e-004,4.081808e-004
8.007033e-004,4.516144e-004
8.313337e-004,4.780310e-004
7.823899e-004,4.786793e-004
6.879058e-004,4.503179e-004
5.785116e-004,4.002396e-004
4.717105e-004,3.378445e-004
3.678266e-004,2.684805e-004
2.657254e-004,1.983062e-004
1.738343e-004,1.349386e-004
1.004187e-004,8.567078e-005
5.147500e-005,5.293359e-005
2.424803e-005,3.526847e-005
7.231170e-006,2.505836e-005
-5.409925e-006,1.436204e-005
-1.075808e-005,-7.100305e-007
-1.302700e-005,-2.080613e-005
-1.675450e-005,-4.576419e-005
-2.275091e-005,-7.444975e-005
-3.847125e-005,-1.015147e-004
-7.623246e-005,-1.222590e-004
-1.464067e-004,-1.339277e-004
-2.462390e-004,-1.368449e-004
-3.397507e-004,-1.332795e-004
-3.689224e-004,-1.251762e-004
-2.912931e-004,-1.156143e-004
-1.126972e-004,-1.104282e-004
1.148425e-004,-1.118868e-004
3.320101e-004,-1.193418e-004
4.940755e-004,-1.324691e-004
5.861287e-004,-1.499722e-004
6.195141e-004,-1.650443e-004
6.151384e-004,-1.726613e-004
5.898562e-004,-1.718510e-004
5.422090e-004,-1.655305e-004
4.475628e-004,-1.553203e-004
2.804733e-004,-1.410586e-004
4.531652e-005,-1.258245e-004
-2.225774e-004,-1.173971e-004
-4.833405e-004,-1.204763e-004
-7.282211e-004,-1.350622e-004
-9.734259e-004,-1.507825e-004
-1.238727e-003,-1.580754e-004
-1.513103e-003,-1.540238e-004
-1.743560e-003,-1.451102e-004
-1.866568e-003,-1.355484e-004
-1.838044e-003,-1.284175e-004
-1.659286e-003,-1.204763e-004
-1.367245e-003,-1.091317e-004
-1.019128e-003,-9.341139e-005
-6.774947e-004,-7.461182e-005
-3.908012e-004,-5.678463e-005
-1.848162e-004,-4.689865e-005
-5.467778e-005,-4.706071e-005
2.797553e-005,-5.273300e-005
9.020862e-005,-5.905355e-005
1.344524e-004,-6.342931e-005
1.462832e-004,-6.002594e-005
1.210010e-004,-4.900550e-005
7.302970e-005,-3.069211e-005
2.603075e-005,-7.840905e-006
-3.465141e-006,1.338965e-005
-9.137427e-006,2.813760e-005
5.934648e-006,3.364782e-005
3.429608e-005,3.510641e-005
6.411610e-005,3.526847e-005
9.199134e-005,3.915804e-005
1.222976e-004,4.855783e-005
1.623277e-004,6.200925e-005
2.193747e-004,7.416415e-005
2.942489e-004,8.291568e-005
3.817642e-004,8.599492e-005
4.627969e-004,8.437427e-005
5.188715e-004,8.567078e-005
5.475571e-004,9.053275e-005
5.676532e-004,9.960841e-005
5.969870e-004,1.169494e-004
6.410689e-004,1.479039e-004
6.924436e-004,1.966855e-004
7.718556e-004,2.589186e-004
9.261420e-004,3.245551e-004
1.177830e-003,3.833848e-004
1.493858e-003,4.298976e-004
1.828523e-003,4.619866e-004
2.163189e-003,4.812723e-004
2.470629e-003,4.892136e-004
2.698332e-003,4.885653e-004
2.796058e-003,4.788414e-004
2.728801e-003,4.582590e-004
2.480515e-003,4.316803e-004
2.036616e-003,4.067223e-004
1.375064e-003,3.864641e-004
4.798138e-004,3.694472e-004
-6.287131e-004,3.470822e-004
-1.815679e-003,3.068900e-004
-2.855978e-003,2.419018e-004
-3.527255e-003,1.589243e-004
-3.749610e-003,7.627100e-005
-3.624333e-003,9.824215e-006
-3.348658e-003,-3.685060e-005
-3.084977e-003,-6.634648e-005
-2.870726e-003,-8.628052e-005
-2.632004e-003,-1.010285e-004
-2.271083e-003,-1.131834e-004
-1.758632e-003,-1.238797e-004
-1.165635e-003,-1.323071e-004
-6.387612e-004,-1.397621e-004
-3.168994e-004,-1.536997e-004
-2.528836e-004,-1.744440e-004
-3.984183e-004,-1.987538e-004
-6.468644e-004,-2.207947e-004
-8.757006e-004,-2.371633e-004
-9.763431e-004,-2.517492e-004
-8.886658e-004,-2.653627e-004
-6.189891e-004,-2.797865e-004
-2.251705e-004,-2.922655e-004
1.989545e-004,-3.027998e-004
5.535535e-004,-3.136581e-004
7.571077e-004,-3.243544e-004
7.715315e-004,-3.309991e-004
6.102764e-004,-3.292164e-004
3.281205e-004,-3.199787e-004
1.808955e-005,-3.029619e-004
-2.113949e-004,-2.770314e-004
-2.728177e-004,-2.407288e-004
-1.336036e-004,-1.984297e-004
1.723757e-004,-1.574272e-004
5.636016e-004,-1.253383e-004
9.494794e-004,-1.008664e-004
1.260159e-003,-8.676672e-005
1.461120e-003,-8.628052e-005
1.546043e-003,-9.778715e-005
1.531295e-003,-1.165867e-004
1.450586e-003,-1.310105e-004
1.345568e-003,-1.334415e-004
1.247518e-003,-1.206384e-004
1.167944e-003,-9.179074e-005
1.095338e-003,-5.095028e-005
1.004582e-003,-9.137427e-006
8.635847e-004,2.165498e-005
6.456067e-004,3.737532e-005
3.464339e-004,3.624086e-005
-1.675450e-005,2.441009e-005
-3.906392e-004,1.225520e-005
-6.857601e-004,9.013889e-006
-8.184915e-004,1.841368e-005
-7.559343e-004,3.688912e-005
-5.275843e-004,5.649903e-005
-2.032917e-004,7.140904e-005
1.404489e-004,8.340187e-005
4.444835e-004,9.393612e-005
6.742922e-004,1.072255e-004
8.165857e-004,1.226217e-004
8.767120e-004,1.349386e-004
8.762258e-004,1.423936e-004
8.412196e-004,1.464453e-004
7.990826e-004,1.474177e-004
7.676419e-004,1.495245e-004
7.468975e-004,1.564933e-004
7.280980e-004,1.686482e-004
7.112432e-004,1.833962e-004
6.953608e-004,1.965235e-004
6.739681e-004,2.041406e-004
6.418792e-004,2.083542e-004
6.076833e-004,2.127300e-004
5.822391e-004,2.184023e-004
5.697600e-004,2.227781e-004
5.611706e-004,2.263435e-004
5.401021e-004,2.284504e-004
4.963444e-004,2.284504e-004
4.263322e-004,2.226160e-004
3.310377e-004,2.171058e-004
2.119197e-004,2.162954e-004
7.659513e-005,2.190506e-004
-6.180866e-005,2.200230e-004
-1.908126e-004,2.169437e-004
-2.998826e-004,2.085163e-004
-3.810773e-004,2.005751e-004
-4.376381e-004,1.924718e-004
-4.784786e-004,1.850168e-004
-5.055434e-004,1.773998e-004
-5.136467e-004,1.697827e-004
-4.971161e-004,1.623277e-004
-4.632444e-004,1.563313e-004
-4.245108e-004,1.482280e-004
-3.933943e-004,1.334801e-004
-3.698948e-004,1.109530e-004
-3.305129e-004,8.810177e-005
-2.452666e-004,7.108491e-005
-1.117248e-004,5.909208e-005
3.705119e-005,4.596478e-005
1.592484e-004,3.121684e-005
2.299089e-004,1.517237e-005
2.394708e-004,-1.358292e-006
1.949028e-004,-1.416145e-005
1.205148e-004,-2.226472e-005
4.499239e-005,-2.793700e-005
-1.124428e-005,-3.733679e-005
-4.414354e-005,-5.856735e-005
-5.986387e-005,-8.919769e-005
-8.141856e-005,-1.229073e-004
-1.324691e-004,-1.493239e-004
-2.301945e-004,-1.639098e-004
-3.687603e-004,-1.690959e-004
-5.129984e-004,-1.695821e-004
-6.210960e-004,-1.703924e-004
-6.690673e-004,-1.726613e-004
-6.599916e-004,-1.765509e-004
-6.183409e-004,-1.793060e-004
-5.729626e-004,-1.823853e-004
-5.424943e-004,-1.851404e-004
-5.279084e-004,-1.900023e-004
-5.139708e-004,-1.982676e-004
-4.747511e-004,-2.078295e-004
-3.809152e-004,-2.164190e-004
-2.183637e-004,-2.217671e-004
-7.030578e-006,-2.220912e-004
1.887444e-004,-2.201465e-004
2.936006e-004,-2.164190e-004
2.743149e-004,-2.097743e-004
1.697827e-004,-2.003745e-004
6.800567e-005,-1.883817e-004
4.353380e-005,-1.739578e-004
1.206769e-004,-1.587237e-004
2.829043e-004,-1.459206e-004
5.044477e-004,-1.329553e-004
7.580801e-004,-1.115627e-004
1.008309e-003,-7.509801e-005
1.203598e-003,-2.680255e-005
1.277338e-003,2.619281e-005
1.168430e-003,7.400208e-005
8.530504e-004,1.124116e-004
3.568061e-004,1.399627e-004
-2.373254e-004,1.568175e-004
-7.988816e-004,1.660552e-004
-1.219441e-003,1.717275e-004
-1.453463e-003,1.769136e-004
-1.525907e-003,1.846927e-004
-1.511321e-003,1.945787e-004
-1.489118e-003,2.046267e-004
-1.499976e-003,2.135403e-004
-1.543086e-003,2.221298e-004
-1.590247e-003,2.297469e-004
-1.616015e-003,2.337985e-004
-1.608236e-003,2.318537e-004
-1.563992e-003,2.239125e-004
-1.477611e-003,2.185644e-004
-1.343259e-003,2.179161e-004
-1.162232e-003,2.167816e-004
-9.499265e-004,2.070577e-004
-7.287074e-004,1.879340e-004
-5.168880e-004,1.668655e-004
-3.177098e-004,1.509831e-004
-1.120489e-004,1.449867e-004
1.145184e-004,1.469315e-004
3.807918e-004,1.493625e-004
7.371737e-004,1.454729e-004
1.223046e-003,1.323456e-004
1.800486e-003,1.137081e-004
2.360262e-003,9.960841e-005
2.795086e-003,9.344993e-005
3.045478e-003,9.020862e-005
3.105118e-003,8.534666e-005
3.008851e-003,7.724339e-005
2.791682e-003,6.492643e-005
2.447940e-003,4.969229e-005
1.935163e-003,3.283749e-005
1.210405e-003,1.598270e-005
2.540567e-004,-2.492749e-006
-9.165410e-004,-2.145439e-005
-2.222626e-003,-4.203669e-005
-3.515910e-003,-6.342931e-005
-4.587979e-003,-8.271508e-005
-4.968188e-003,-9.794922e-005
-4.968350e-003,-1.078352e-004
-4.968512e-003,-1.130213e-004
-4.511483e-003,-1.152902e-004
-3.500838e-003,-1.188556e-004
-2.314679e-003,-1.256624e-004
-1.116854e-003,-1.384655e-004
-8.547019e-005,-1.587237e-004
6.091419e-004,-1.830335e-004
8.796292e-004,-2.013469e-004
7.772038e-004,-2.079916e-004
4.989374e-004,-2.037779e-004
3.112658e-004,-1.942160e-004
4.135290e-004,-1.857886e-004
8.447851e-004,-1.820611e-004
1.488185e-003,-1.851404e-004
2.164162e-003,-1.912988e-004
2.718914e-003,-1.961608e-004
3.061847e-003,-1.977815e-004
3.170593e-003,-1.945401e-004
3.075298e-003,-1.895161e-004
2.833171e-003,-1.836818e-004
2.507094e-003,-1.778474e-004
2.155735e-003,-1.694200e-004
1.823500e-003,-1.593720e-004
1.525785e-003,-1.475412e-004
1.238118e-003,-1.339277e-004
9.037769e-004,-1.201522e-004
4.551798e-004,-1.050801e-004
-1.447861e-004,-8.530812e-005
-7.993678e-004,-6.359137e-005
-1.287184e-003,-4.090223e-005
-1.419268e-003,-2.113026e-005
-1.156722e-003,-2.654814e-006
-6.204477e-004,1.468618e-005
2.531276e-006,3.267542e-005
5.493398e-004,4.985435e-005
9.308419e-004,6.784360e-005
1.133262e-003,8.891209e-005
1.187067e-003,1.104668e-004
1.138610e-003,1.300767e-004
1.037319e-003,1.422316e-004
9.271143e-004,1.461212e-004
8.290648e-004,1.453108e-004
7.345806e-004,1.443384e-004
6.010387e-004,1.511452e-004
3.958639e-004,1.702689e-004
1.548727e-004,1.976579e-004
-3.117831e-005,2.240746e-004
-8.255302e-005,2.415777e-004
8.041497e-006,2.501671e-004
1.702689e-004,2.529222e-004
3.143450e-004,2.491947e-004
3.892192e-004,2.444948e-004
3.901916e-004,2.427121e-004
3.401134e-004,2.415777e-004
2.579462e-004,2.399570e-004
1.355869e-004,2.386605e-004
-5.143648e-005,2.409294e-004
-3.196545e-004,2.488706e-004
-6.538332e-004,2.569738e-004
-9.893083e-004,2.649151e-004
-1.227058e-003,2.738286e-004
-1.289615e-003,2.871180e-004
-1.163529e-003,3.023522e-004
-8.969311e-004,3.167760e-004
-5.679386e-004,3.260137e-004
-2.558008e-004,3.281205e-004
-1.821308e-005,3.211517e-004
1.140322e-004,3.047831e-004
1.346145e-004,2.760976e-004
6.184718e-005,2.326641e-004
-6.278104e-005,1.754550e-004
-1.900023e-004,1.093323e-004
-2.836761e-004,4.726130e-005
-3.287302e-004,-1.682422e-006
-3.332680e-004,-3.668853e-005
-3.162512e-004,-6.245691e-005
-2.927517e-004,-8.125649e-005
-2.580697e-004,-9.373552e-005
-2.006986e-004,-9.892161e-005
-1.180453e-004,-9.746302e-005
-2.275091e-005,-9.243900e-005
6.184718e-005,-8.790117e-005
1.117633e-004,-8.741498e-005
1.248906e-004,-9.179074e-005
1.201907e-004,-1.024871e-004
1.200286e-004,-1.156143e-004
1.372076e-004,-1.277692e-004
1.748067e-004,-1.355484e-004
2.240746e-004,-1.379794e-004
2.649151e-004,-1.384655e-004
2.845250e-004,-1.400862e-004
2.824181e-004,-1.460826e-004
2.777182e-004,-1.562927e-004
2.833905e-004,-1.630995e-004
3.051073e-004,-1.608306e-004
3.384927e-004,-1.491618e-004
3.694472e-004,-1.360346e-004
3.910019e-004,-1.290658e-004
4.042913e-004,-1.302002e-004
4.070464e-004,-1.408965e-004
3.924605e-004,-1.603444e-004
3.546993e-004,-1.836818e-004
2.981384e-004,-2.016710e-004
2.310434e-004,-2.079916e-004
1.605450e-004,-2.023193e-004
8.793970e-005,-1.874093e-004
1.776542e-005,-1.699062e-004
-3.474375e-005,-1.530514e-004
-4.738484e-005,-1.378173e-004
-2.168618e-006,-1.238797e-004
9.912221e-005,-1.105903e-004
2.316917e-004,-9.778715e-005
3.534027e-004,-8.660465e-005
4.264942e-004,-7.817725e-005
4.392974e-004,-7.299116e-005
4.358940e-004,-6.845333e-005
4.955341e-004,-5.953974e-005
6.729957e-004,-4.171256e-005
9.637412e-004,-1.886135e-005
1.310237e-003,1.072688e-006
1.651061e-003,1.095867e-005
1.928194e-003,1.274139e-005
2.099660e-003,1.533444e-005
2.151035e-003,2.732727e-005
2.051364e-003,5.374392e-005
1.744411e-003,9.150514e-005
1.166971e-003,1.362352e-004
2.759355e-004,1.785342e-004
-8.959587e-004,2.077060e-004
-2.228784e-003,2.214815e-004
-3.535034e-003,2.243987e-004
-4.579876e-003,2.255332e-004
-4.968350e-003,2.318537e-004
-4.968674e-003,2.414156e-004
-4.968350e-003,2.532463e-004
-4.700129e-003,2.683184e-004
-4.175195e-003,2.856594e-004
-3.624494e-003,2.995970e-004
-3.055157e-003,3.065659e-004
-2.460538e-003,3.015418e-004
-1.843717e-003,2.795009e-004
-1.217496e-003,2.420638e-004
-6.000275e-004,1.958752e-004
-1.999580e-005,1.496866e-004
4.841895e-004,1.137081e-004
8.786568e-004,8.729144e-005
1.153682e-003,6.460230e-005
1.323365e-003,4.256141e-005
1.414608e-003,1.922400e-005
1.442645e-003,-4.923729e-006
1.416552e-003,-3.166451e-005
1.347512e-003,-5.791909e-005
1.248166e-003,-7.623246e-005
1.132127e-003,-7.833932e-005
1.002151e-003,-5.937768e-005
8.392748e-004,-2.420950e-005
6.123833e-004,1.954813e-005
3.007315e-004,6.006447e-005
-7.120844e-005,8.486046e-005
-4.123559e-004,8.810177e-005
-6.133168e-004,7.351589e-005
-6.089411e-004,5.260946e-005
-4.141386e-004,3.202716e-005
-1.096179e-004,1.014835e-005
2.004130e-004,-2.113026e-005
4.407560e-004,-6.488790e-005
5.830494e-004,-1.128592e-004
6.357207e-004,-1.499722e-004
6.240520e-004,-1.681235e-004
5.772150e-004,-1.707166e-004
5.230852e-004,-1.656925e-004
4.791655e-004,-1.606685e-004
4.540453e-004,-1.593720e-004
4.454559e-004,-1.629374e-004
4.435111e-004,-1.686097e-004
4.401077e-004,-1.729855e-004
4.336251e-004,-1.742820e-004
4.268184e-004,-1.729855e-004
4.289252e-004,-1.716889e-004
4.462662e-004,-1.699062e-004
4.849998e-004,-1.653684e-004
5.410745e-004,-1.546721e-004
6.097901e-004,-1.374932e-004
6.835299e-004,-1.170729e-004
7.543526e-004,-9.665270e-005
8.177201e-004,-7.801519e-005
8.655295e-004,-6.359137e-005
8.908117e-004,-5.338126e-005
8.880566e-004,-4.770897e-005
8.574262e-004,-4.381940e-005
7.998930e-004,-3.733679e-005
7.230740e-004,-2.858527e-005
6.373413e-004,-1.821308e-005
5.517708e-004,-7.192643e-006
4.652279e-004,3.665733e-006
3.757678e-004,1.403791e-005
2.910076e-004,2.441009e-005
2.245608e-004,3.559260e-005
1.850168e-004,4.855783e-005
1.681620e-004,6.362991e-005
1.642725e-004,8.032264e-005
1.647587e-004,9.685330e-005
1.637863e-004,1.133840e-004
1.616794e-004,1.336421e-004
1.582761e-004,1.550348e-004
1.556830e-004,1.744826e-004
1.566554e-004,1.924718e-004
1.602208e-004,2.098128e-004
1.579519e-004,2.255332e-004
1.412592e-004,2.402811e-004
1.106288e-004,2.561635e-004
7.076078e-005,2.713977e-004
2.927205e-005,2.859836e-004
-3.627206e-006,2.927903e-004
-2.291298e-005,2.905214e-004
-3.652646e-005,2.778803e-004
-5.273300e-005,2.571359e-004
-7.574627e-005,2.320158e-004
-1.107524e-004,2.083542e-004
-1.600202e-004,1.867996e-004
-2.172293e-004,1.665414e-004
-2.689281e-004,1.462832e-004
-3.027998e-004,1.282940e-004
-3.126857e-004,1.137081e-004
-3.018274e-004,1.030118e-004
-2.711970e-004,9.620504e-005
-2.159328e-004,9.215340e-005
-1.195039e-004,9.247754e-005
3.105477e-005,9.474644e-005
2.282883e-004,9.231547e-005
4.313562e-004,8.048470e-005
5.777013e-004,5.974033e-005
6.259967e-004,3.526847e-005
5.746220e-004,1.695509e-005
4.561522e-004,9.986281e-006
3.161277e-004,1.225520e-005
1.942546e-004,1.501031e-005
1.106288e-004,1.517237e-005
6.152305e-005,1.225520e-005
2.635488e-005,5.934648e-006
-3.182657e-005,-1.844488e-006
-1.415448e-004,-1.010982e-005
-3.040963e-004,-1.756482e-005
-5.055434e-004,-1.967167e-005
-7.363244e-004,-1.156841e-005
-9.821774e-004,8.689758e-006
-1.230948e-003,3.915804e-005
-1.441795e-003,7.092284e-005
-1.538224e-003,9.604298e-005
-1.453625e-003,1.057669e-004
-1.177142e-003,9.555677e-005
-7.732753e-004,6.654708e-005
-3.519055e-004,2.359977e-005
-1.254080e-005,-2.647842e-005
1.978200e-004,-7.688073e-005
2.809595e-004,-1.195039e-004
2.676702e-004,-1.524032e-004
1.934442e-004,-1.773612e-004
7.837785e-005,-1.971332e-004
-7.850138e-005,-2.151224e-004
-2.724935e-004,-2.345703e-004
-4.721580e-004,-2.577456e-004
-6.389232e-004,-2.869174e-004
-7.452380e-004,-3.217614e-004
-7.872129e-004,-3.647087e-004
-7.906163e-004,-4.120317e-004
-8.040677e-004,-4.535205e-004
-8.705144e-004,-4.800992e-004
-9.923875e-004,-4.864197e-004
-1.129657e-003,-4.758855e-004
-1.209717e-003,-4.520619e-004
-1.165311e-003,-4.206212e-004
-9.594883e-004,-3.885323e-004
-6.123445e-004,-3.562813e-004
-2.047502e-004,-3.203028e-004
1.692965e-004,-2.794623e-004
4.482110e-004,-2.327876e-004
6.302104e-004,-1.867610e-004
7.473837e-004,-1.459206e-004
8.267959e-004,-1.088076e-004
8.705535e-004,-7.979791e-005
8.650433e-004,-5.662256e-005
8.122100e-004,-2.939559e-005
7.490044e-004,1.095867e-005
7.394425e-004,6.703327e-005
8.290648e-004,1.349386e-004
1.022247e-003,2.148369e-004
1.281228e-003,3.034866e-004
1.538264e-003,3.911640e-004
1.695630e-003,4.668485e-004
1.648630e-003,5.243817e-004
1.344109e-003,5.601982e-004
8.178822e-004,5.726772e-004
1.947408e-004,5.636016e-004
-3.463953e-004,5.368608e-004
-6.551297e-004,4.963444e-004
-6.825188e-004,4.495075e-004
-4.796130e-004,4.047775e-004
-1.668270e-004,3.671783e-004
1.258630e-004,3.365480e-004
3.073762e-004,3.085106e-004
3.477304e-004,2.782044e-004
2.769079e-004,2.496809e-004
1.633001e-004,2.292607e-004
8.356394e-005,2.158093e-004
7.805372e-005,2.021958e-004
1.386662e-004,1.830721e-004
2.269918e-004,1.602208e-004
2.970040e-004,1.357490e-004
3.171001e-004,1.112771e-004
2.950592e-004,8.761557e-005
2.701012e-004,5.990240e-005
3.030004e-004,2.538249e-005
4.138531e-004,-7.354709e-006
5.396159e-004,-2.388537e-005
6.080075e-004,-1.967167e-005
6.138419e-004,-3.465141e-006
6.143281e-004,1.403791e-005
6.687820e-004,1.954813e-005
7.997309e-004,8.851824e-006
9.788133e-004,-1.189254e-005
1.122241e-003,-3.263690e-005
1.130993e-003,-4.641245e-005
9.175525e-004,-5.678463e-005
4.088291e-004,-6.731888e-005
-4.376381e-004,-8.141856e-005
-1.562209e-003,-9.632857e-005
-2.769921e-003,-1.092938e-004
-3.792071e-003,-1.182074e-004
-4.407599e-003,-1.232314e-004
-4.511808e-003,-1.219349e-004
-4.119931e-003,-1.169109e-004
-3.354493e-003,-1.109144e-004
-2.396198e-003,-1.070249e-004
-1.409868e-003,-1.062146e-004
-4.907955e-004,-1.078352e-004
3.057555e-004,-1.092938e-004
9.314902e-004,-1.060525e-004
1.364691e-003,-1.015147e-004
1.613138e-003,-9.924574e-005
1.708433e-003,-9.973194e-005
1.698061e-003,-1.020008e-004
1.639393e-003,-1.028112e-004
1.580077e-003,-1.002181e-004
1.544260e-003,-9.503204e-005
1.519140e-003,-8.757704e-005
1.467765e-003,-8.109443e-005
1.349619e-003,-7.866345e-005
1.139096e-003,-7.995997e-005
8.363577e-004,-7.850138e-005
4.569625e-004,-7.185670e-005
3.915804e-005,-6.197072e-005
-3.476919e-004,-4.965376e-005
-6.309819e-004,-3.749886e-005
-7.692237e-004,-2.404744e-005
-7.774890e-004,-6.706447e-006
-7.361624e-004,1.436204e-005
-7.565826e-004,3.915804e-005
-8.979035e-004,6.249545e-005
-1.120095e-003,8.097089e-005
-1.321218e-003,9.507057e-005
-1.412137e-003,1.083599e-004
-1.374538e-003,1.248906e-004
-1.246020e-003,1.480659e-004
-1.054134e-003,1.759412e-004
-8.039057e-004,2.013854e-004
-5.001953e-004,2.198609e-004
-1.673132e-004,2.287745e-004
1.543865e-004,2.294227e-004
4.196875e-004,2.243987e-004
6.114109e-004,2.200230e-004
7.292324e-004,2.172679e-004
7.786624e-004,2.138645e-004
7.791486e-004,2.130541e-004
7.562974e-004,2.133783e-004
7.253428e-004,2.102990e-004
6.854748e-004,1.997648e-004
6.300483e-004,1.816135e-004
5.595500e-004,1.611932e-004
4.885653e-004,1.440143e-004
4.386491e-004,1.328318e-004
4.362182e-004,1.276457e-004
4.942376e-004,1.268354e-004
6.049282e-004,1.297526e-004
7.532181e-004,1.302388e-004
9.253316e-004,1.203528e-004
1.103604e-003,9.960841e-005
1.267128e-003,7.546067e-005
1.406342e-003,5.633696e-005
1.538426e-003,4.369587e-005
1.690606e-003,3.202716e-005
1.870661e-003,1.501031e-005
2.058981e-003,-9.137427e-006
2.215051e-003,-3.814712e-005
2.311318e-003,-6.764301e-005
2.344704e-003,-9.341139e-005
2.330280e-003,-1.135075e-004
2.257998e-003,-1.263107e-004
2.015548e-003,-1.276072e-004
1.458365e-003,-1.159385e-004
5.613327e-004,-9.162867e-005
-5.505976e-004,-6.261898e-005
-1.663014e-003,-3.766092e-005
-2.622280e-003,-2.761287e-005
-3.346227e-003,-3.425755e-005
-3.822377e-003,-5.111234e-005
-4.090111e-003,-6.861539e-005
-4.179733e-003,-7.866345e-005
-4.067584e-003,-7.963584e-005
-3.711200e-003,-7.493595e-005
-3.108801e-003,-6.974985e-005
-2.318569e-003,-6.910160e-005
-1.446170e-003,-8.384954e-005
-6.115342e-004,-1.136696e-004
7.918817e-005,-1.499722e-004
5.673291e-004,-1.822232e-004
8.590469e-004,-2.029675e-004
9.990715e-004,-2.115570e-004
1.047043e-003,-2.088019e-004
1.051905e-003,-1.948643e-004
1.038940e-003,-1.754164e-004
1.015440e-003,-1.535376e-004
9.794616e-004,-1.310105e-004
9.297074e-004,-1.125351e-004
8.660157e-004,-1.023250e-004
7.914656e-004,-1.018388e-004
7.105949e-004,-1.071869e-004
6.294001e-004,-1.104282e-004
5.537156e-004,-1.092938e-004
4.853240e-004,-1.039456e-004
4.204978e-004,-9.551824e-005
3.631267e-004,-8.125649e-005
3.237448e-004,-6.213279e-005
3.065659e-004,-4.381940e-005
3.020280e-004,-2.923353e-005
2.983005e-004,-1.675450e-005
2.846870e-004,-5.085794e-006
2.572980e-004,5.286387e-006
2.117576e-004,1.031041e-005
1.571416e-004,1.241726e-005
1.062531e-004,1.387585e-005
7.011252e-005,1.857574e-005
4.855783e-005,2.684107e-005
3.721326e-005,3.753739e-005
2.603075e-005,5.244739e-005
6.582909e-006,7.400208e-005
-2.583016e-005,1.025256e-004
-6.667062e-005,1.346145e-004
-1.120489e-004,1.654069e-004
-1.566169e-004,1.902029e-004
-1.947022e-004,2.031682e-004
-2.254946e-004,2.036544e-004
-2.467252e-004,1.966855e-004
-2.541802e-004,1.905271e-004
-2.465631e-004,1.845306e-004
-2.284118e-004,1.795066e-004
-2.065330e-004,1.764274e-004
-1.844921e-004,1.741585e-004
-1.556445e-004,1.710792e-004
-1.146419e-004,1.662173e-004
-6.586029e-005,1.631380e-004
-2.064406e-005,1.636242e-004
1.322759e-005,1.662173e-004
3.996837e-005,1.701068e-004
6.346784e-005,1.709172e-004
8.745350e-005,1.667035e-004
1.124116e-004,1.620036e-004
1.310491e-004,1.563313e-004
1.307250e-004,1.467694e-004
1.041462e-004,1.313732e-004
5.504044e-005,1.101427e-004
-2.168618e-006,8.956036e-005
-5.678463e-005,7.578480e-005
-9.908367e-005,6.589881e-005
-1.321450e-004,5.439218e-005
-1.726613e-004,4.094075e-005
-2.348944e-004,2.635488e-005
-3.133340e-004,1.403791e-005
-3.744326e-004,1.883015e-006
-3.708672e-004,-1.173047e-005
-2.789762e-004,-2.453363e-005
-1.112386e-004,-3.328516e-005
9.717743e-005,-3.668853e-005
3.060797e-004,-3.960571e-005
5.003960e-004,-4.414354e-005
6.840162e-004,-5.662256e-005
8.588848e-004,-7.882551e-005
1.018357e-003,-1.045939e-004
1.143148e-003,-1.263107e-004
1.210405e-003,-1.396000e-004
1.203598e-003,-1.426792e-004
1.113328e-003,-1.370070e-004
9.412141e-004,-1.246900e-004
6.866092e-004,-1.115627e-004
3.423823e-004,-9.827335e-005
-9.292520e-005,-8.498399e-005
-6.014861e-004,-7.299116e-005
-1.139705e-003,-6.423963e-005
-1.633842e-003,-6.083626e-005
-2.011941e-003,-6.067420e-005
-2.238022e-003,-6.391550e-005
-2.312572e-003,-6.634648e-005
-2.275621e-003,-6.569822e-005
-2.181623e-003,-6.245691e-005
-2.054240e-003,-6.002594e-005
-1.884395e-003,-5.970181e-005
-1.658476e-003,-6.213279e-005
-1.378589e-003,-6.569822e-005
-1.066451e-003,-6.391550e-005
-7.505861e-004,-5.192267e-005
-4.564377e-004,-3.182657e-005
-1.922712e-004,-1.173047e-005
3.753739e-005,2.531276e-006
2.242366e-004,1.160693e-005
3.590750e-004,1.744129e-005
4.436732e-004,2.246531e-005
4.765725e-004,2.586868e-005
4.629590e-004,3.024445e-005
4.247115e-004,3.948217e-005
3.916502e-004,4.888196e-005
3.833848e-004,5.471631e-005
4.049396e-004,5.941620e-005
4.508040e-004,6.525056e-005
5.076890e-004,7.270556e-005
5.579292e-004,8.323981e-005
5.869390e-004,9.733949e-005
5.901803e-004,1.138702e-004
5.754323e-004,1.351007e-004
5.558224e-004,1.616794e-004
5.405883e-004,1.884202e-004
5.344298e-004,2.104611e-004
5.405883e-004,2.256952e-004
5.587396e-004,2.347709e-004
5.827253e-004,2.383363e-004
5.955285e-004,2.360674e-004
5.856425e-004,2.273159e-004
5.597120e-004,2.153231e-004
5.297299e-004,2.026820e-004
4.979651e-004,1.940925e-004
4.613383e-004,1.913374e-004
4.196875e-004,1.963614e-004
3.752816e-004,2.081922e-004
3.274723e-004,2.243987e-004
2.772320e-004,2.336365e-004
2.300710e-004,2.274780e-004
1.936063e-004,2.031682e-004
1.702689e-004,1.668655e-004
1.522796e-004,1.261871e-004
1.349386e-004,8.956036e-005
1.359110e-004,6.103686e-005
1.829100e-004,4.110282e-005
2.880904e-004,2.619281e-005
4.347596e-004,1.112074e-005
5.942319e-004,-6.544382e-006
7.378219e-004,-2.664048e-005
8.426782e-004,-4.673658e-005
8.927565e-004,-6.488790e-005
8.783326e-004,-8.206682e-005
8.034584e-004,-9.940781e-005
6.694303e-004,-1.162626e-004
4.744656e-004,-1.285796e-004
2.316917e-004,-1.353863e-004
-4.761664e-006,-1.400862e-004
-1.958367e-004,-1.477033e-004
-3.647087e-004,-1.640719e-004
-5.489769e-004,-1.895161e-004
-7.643617e-004,-2.193361e-004
-9.863912e-004,-2.460769e-004
-1.142460e-003,-2.637420e-004
-1.126902e-003,-2.690902e-004
-8.765109e-004,-2.648765e-004
-4.279142e-004,-2.545043e-004
8.761557e-005,-2.400805e-004
4.853240e-004,-2.246843e-004
5.817529e-004,-2.133397e-004
2.616738e-004,-2.053985e-004
-4.314796e-004,-1.958367e-004
-1.226248e-003,-1.828714e-004
-1.789425e-003,-1.673132e-004
-1.926856e-003,-1.499722e-004
-1.643080e-003,-1.303623e-004
-1.081361e-003,-1.107524e-004
-4.275900e-004,-9.730096e-005
1.522796e-004,-8.984595e-005
5.451261e-004,-8.547019e-005
7.235601e-004,-8.206682e-005
7.209671e-004,-8.158062e-005
5.968250e-004,-8.271508e-005
4.028327e-004,-8.093236e-005
1.714034e-004,-7.088431e-005
-7.331530e-005,-5.419158e-005
-2.849726e-004,-2.793700e-005
-4.013355e-004,1.079661e-005
-3.778360e-004,5.941620e-005
-2.128535e-004,1.122495e-004
5.406805e-005,1.594105e-004
3.650715e-004,1.926339e-004
6.708889e-004,2.122438e-004
9.395934e-004,2.235884e-004
1.122403e-003,2.305572e-004
1.135693e-003,2.359054e-004
8.959978e-004,2.412535e-004
3.926226e-004,2.513016e-004
-2.700626e-004,2.705873e-004
-8.987138e-004,2.999212e-004
-1.295450e-003,3.347652e-004
-1.337587e-003,3.671783e-004
-1.027556e-003,3.869503e-004
-4.882024e-004,3.814401e-004
9.847395e-005,3.503235e-004
5.705704e-004,2.987867e-004
8.404093e-004,2.401191e-004
8.958358e-004,1.889064e-004
8.008654e-004,1.493625e-004
6.598685e-004,1.200286e-004
5.644119e-004,9.717743e-005
5.533914e-004,8.064677e-005
6.149763e-004,7.092284e-005
7.123777e-004,6.946425e-005
7.997309e-004,7.076078e-005
8.190167e-004,7.205730e-005
7.151327e-004,7.384002e-005
4.640934e-004,7.594687e-005
8.729144e-005,7.594687e-005
-3.378059e-004,7.108491e-005
-6.996976e-004,5.860588e-005
-9.058447e-004,4.061663e-005
-9.261029e-004,2.035846e-005
-7.970989e-004,2.855407e-006
-5.946793e-004,-8.813297e-006
-4.018217e-004,-1.578211e-005
-2.731418e-004,-2.031993e-005
-2.199844e-004,-2.307504e-005
-2.297083e-004,-2.728874e-005
-2.765452e-004,-3.247483e-005
-3.211132e-004,-3.814712e-005
-3.250027e-004,-4.349527e-005
-2.703867e-004,-4.803310e-005
-1.674752e-004,-4.868137e-005
-4.625038e-005,-4.446767e-005
6.589881e-005,-3.668853e-005
1.490383e-004,-2.777494e-005
2.012234e-004,-2.420950e-005
2.302331e-004,-3.085418e-005
2.467637e-004,-4.884343e-005
2.553532e-004,-7.412562e-005
2.589186e-004,-1.008664e-004
2.624841e-004,-1.269589e-004
2.681563e-004,-1.520790e-004
2.765838e-004,-1.737958e-004
2.944109e-004,-1.895161e-004
3.196932e-004,-1.969711e-004
3.461098e-004,-1.942160e-004
3.644232e-004,-1.841680e-004
3.686369e-004,-1.720131e-004
3.624784e-004,-1.622891e-004
3.509718e-004,-1.603444e-004
3.386548e-004,-1.632615e-004
3.256896e-004,-1.692580e-004
3.115899e-004,-1.721751e-004
2.966799e-004,-1.705545e-004
2.835526e-004,-1.613168e-004
2.765838e-004,-1.494860e-004
2.728562e-004,-1.387897e-004
2.634565e-004,-1.324691e-004
2.436845e-004,-1.271210e-004
2.120818e-004,-1.196660e-004
1.718896e-004,-1.117248e-004
1.219734e-004,-1.037836e-004
6.379197e-005,-9.584238e-005
4.638125e-006,-8.547019e-005
-4.706071e-005,-7.039812e-005
-8.611845e-005,-4.868137e-005
-1.070249e-004,-2.096820e-005
-1.091317e-004,8.041497e-006
-1.007043e-004,3.348575e-005
-9.292520e-005,5.293359e-005
-9.470791e-005,6.541262e-005
-1.109144e-004,7.254349e-005
-1.251762e-004,7.691926e-005
-1.018388e-004,7.935024e-005
-1.788895e-005,8.534666e-005
1.203528e-004,1.069013e-004
2.812837e-004,1.547106e-004
4.266563e-004,2.289366e-004
5.307022e-004,3.230965e-004
5.890459e-004,4.177427e-004
6.161107e-004,4.908342e-004
6.277795e-004,5.289196e-004
6.274553e-004,5.318367e-004
6.034696e-004,5.089855e-004
5.350781e-004,4.694416e-004
4.059119e-004,4.156358e-004
2.057612e-004,3.508097e-004
-7.266703e-005,2.842008e-004
-4.405553e-004,2.274780e-004
-8.970932e-004,1.880961e-004
-1.425426e-003,1.663793e-004
-1.977745e-003,1.615174e-004
-2.461024e-003,1.699448e-004
-2.771542e-003,1.822617e-004
-2.840582e-003,1.906891e-004
-2.656475e-003,1.944166e-004
-2.263304e-003,1.965235e-004
-1.749557e-003,1.991165e-004
-1.215714e-003,2.000889e-004
-7.518827e-004,1.934442e-004
-4.099249e-004,1.798307e-004
-1.925954e-004,1.590864e-004
-6.715681e-005,1.333180e-004
1.322759e-005,1.054428e-004
8.307774e-005,7.805372e-005
1.485521e-004,5.131294e-005
1.908512e-004,2.570662e-005
1.913374e-004,4.313994e-006
1.543865e-004,-1.237873e-005
1.052807e-004,-2.971972e-005
8.372601e-005,-5.370539e-005
1.185701e-004,-8.725291e-005
2.151610e-004,-1.277692e-004
3.589129e-004,-1.674752e-004
5.383193e-004,-2.032917e-004
7.543526e-004,-2.373254e-004
9.979371e-004,-2.674695e-004
1.248166e-003,-2.901587e-004
1.495154e-003,-3.052308e-004
1.755918e-003,-3.191683e-004
2.062547e-003,-3.329439e-004
2.406289e-003,-3.478539e-004
2.703032e-003,-3.638984e-004
2.835926e-003,-3.804291e-004
2.749383e-003,-3.937184e-004
2.495911e-003,-4.013355e-004
2.186689e-003,-4.023079e-004
1.930625e-003,-3.927460e-004
1.778931e-003,-3.710293e-004
1.681854e-003,-3.413713e-004
1.518816e-003,-3.115513e-004
1.148820e-003,-2.869174e-004
4.404318e-004,-2.724935e-004
-6.812222e-004,-2.660110e-004
-2.134624e-003,-2.632558e-004
-3.686566e-003,-2.603387e-004
-4.968350e-003,-2.556388e-004
-4.968350e-003,-2.423494e-004
-4.968512e-003,-2.177155e-004
-4.968350e-003,-1.846542e-004
-3.800984e-003,-1.447861e-004
-2.289397e-003,-9.762509e-005
-8.366429e-004,-4.317115e-005
3.237448e-004,1.403791e-005
1.074918e-003,6.865393e-005
1.459662e-003,1.187321e-004
1.596283e-003,1.561692e-004
1.615731e-003,1.749688e-004
1.609897e-003,1.767515e-004
1.613300e-003,1.699448e-004
1.618810e-003,1.644345e-004
1.610869e-003,1.668655e-004
1.566949e-003,1.778860e-004
1.449776e-003,1.921477e-004
1.208460e-003,2.043026e-004
8.099410e-004,2.141886e-004
2.689667e-004,2.242366e-004
-3.363473e-004,2.380122e-004
-8.666249e-004,2.590807e-004
-1.191890e-003,2.889007e-004
-1.247640e-003,3.252034e-004
-1.058996e-003,3.629646e-004
-7.214144e-004,3.911640e-004
-3.527159e-004,4.025085e-004
-4.381940e-005,3.939191e-004
1.692965e-004,3.713920e-004
2.942489e-004,3.436788e-004
3.587509e-004,3.138588e-004
3.879227e-004,2.824181e-004
3.942432e-004,2.504913e-004
3.840331e-004,2.182402e-004
3.658818e-004,1.890685e-004
3.415720e-004,1.671896e-004
3.101313e-004,1.563313e-004
2.657254e-004,1.545486e-004
2.137024e-004,1.595726e-004
1.624898e-004,1.655690e-004
1.133840e-004,1.699448e-004
5.277153e-005,1.710792e-004
-2.728874e-005,1.655690e-004
-1.269589e-004,1.539003e-004
-2.371633e-004,1.425557e-004
-3.353749e-004,1.321835e-004
-3.990665e-004,1.190562e-004
-4.207833e-004,1.015532e-004
-4.097628e-004,8.016057e-005
-3.784843e-004,5.763349e-005
-3.297026e-004,3.786152e-005
-2.549905e-004,2.359977e-005
-1.433275e-004,1.193106e-005
6.258778e-006,-1.358292e-006
1.885823e-004,-1.837515e-005
3.922984e-004,-3.636440e-005
5.982835e-004,-5.370539e-005
7.799590e-004,-6.618442e-005
9.042631e-004,-7.380149e-005
9.418624e-004,-8.028410e-005
8.849773e-004,-8.952183e-005
7.413874e-004,-1.013526e-004
5.255162e-004,-1.115627e-004
2.498430e-004,-1.198280e-004
-5.791909e-005,-1.284175e-004
-3.494746e-004,-1.425172e-004
-5.666421e-004,-1.603444e-004
-6.692294e-004,-1.776853e-004
-6.497815e-004,-1.912988e-004
-5.326084e-004,-1.977815e-004
-3.677880e-004,-1.968091e-004
-2.079916e-004,-1.951884e-004
-8.952183e-005,-1.976194e-004
-2.356124e-005,-2.032917e-004
-6.868513e-006,-2.045882e-004
-2.291298e-005,-1.979435e-004
-4.835724e-005,-1.862748e-004
-5.856735e-005,-1.757406e-004
-4.187462e-005,-1.648822e-004
-5.896120e-006,-1.522411e-004
3.380988e-005,-1.392759e-004
6.622294e-005,-1.263107e-004
9.037068e-005,-1.099421e-004
1.104668e-004,-9.146661e-005
1.422316e-004,-7.688073e-005
1.971717e-004,-6.910160e-005
2.744769e-004,-6.456377e-005
3.603715e-004,-5.970181e-005
4.380009e-004,-5.354332e-005
4.966686e-004,-4.203669e-005
5.287575e-004,-2.404744e-005
5.368608e-004,-4.113403e-006
5.341057e-004,1.193106e-005
5.334574e-004,2.214118e-005
5.386435e-004,3.008238e-005
5.391297e-004,3.769945e-005
5.143337e-004,4.612685e-005
4.441593e-004,5.552663e-005
3.166139e-004,7.076078e-005
1.163011e-004,9.328786e-005
-1.616409e-004,1.222976e-004
-5.095950e-004,1.543865e-004
-9.069791e-004,1.822617e-004
-1.299177e-003,2.012234e-004
-1.597053e-003,2.141886e-004
-1.725085e-003,2.271538e-004
-1.648914e-003,2.427121e-004
-1.391230e-003,2.572980e-004
-1.022370e-003,2.673460e-004
-6.322784e-004,2.730183e-004
-2.942103e-004,2.764217e-004
-4.722278e-005,2.804733e-004
1.015532e-004,2.814457e-004
1.705930e-004,2.746390e-004
1.926339e-004,2.594049e-004
1.999268e-004,2.417397e-004
1.987924e-004,2.287745e-004
1.822617e-004,2.188885e-004
1.503349e-004,2.083542e-004
1.190562e-004,1.926339e-004
1.064152e-004,1.692965e-004
1.258630e-004,1.412592e-004
1.692965e-004,1.135460e-004
2.132162e-004,8.972242e-005
2.337985e-004,6.914012e-005
2.175920e-004,5.034055e-005
1.709172e-004,2.975825e-005
1.101427e-004,6.420843e-006
6.346784e-005,-1.756482e-005
4.580272e-005,-3.685060e-005
5.406805e-005,-4.932962e-005
7.529860e-005,-5.646050e-005
9.604298e-005,-6.051213e-005
1.033359e-004,-6.504996e-005
9.101894e-005,-7.347736e-005
6.087479e-005,-8.757704e-005
1.825161e-005,-1.063766e-004
-2.307504e-005,-1.237176e-004
-4.479180e-005,-1.345760e-004
-3.182657e-005,-1.396000e-004
1.614476e-005,-1.431655e-004
8.615699e-005,-1.511067e-004
1.594105e-004,-1.639098e-004
2.174299e-004,-1.802784e-004
2.488706e-004,-1.972953e-004
2.545429e-004,-2.094502e-004
2.440086e-004,-2.122053e-004
2.329882e-004,-2.034537e-004
2.316917e-004,-1.862748e-004
2.431983e-004,-1.652063e-004
2.634565e-004,-1.439758e-004
2.827423e-004,-1.229073e-004
2.918179e-004,-1.005423e-004
2.822560e-004,-7.477388e-005
2.525981e-004,-4.576419e-005
2.044647e-004,-1.707863e-005
1.475797e-004,7.393236e-006
9.669123e-005,2.392390e-005
6.265751e-005,2.489629e-005
5.374392e-005,5.124321e-006
7.059871e-005,-3.328516e-005
1.018773e-004,-8.012204e-005
1.357490e-004,-1.214487e-004
1.618415e-004,-1.452723e-004
1.814514e-004,-1.481895e-004
1.984683e-004,-1.349001e-004
2.200230e-004,-1.143178e-004
2.509774e-004,-9.162867e-005
3.000832e-004,-7.104638e-005
3.717161e-004,-5.338126e-005
4.595556e-004,-3.782299e-005
5.585775e-004,-2.113026e-005
6.726716e-004,-6.544382e-006
8.063756e-004,3.503668e-006
9.533690e-004,1.047248e-005
1.097121e-003,1.517237e-005
1.218832e-003,1.873781e-005
1.291762e-003,2.084466e-005
1.277338e-003,2.619281e-005
1.157572e-003,4.239934e-005
9.522345e-004,7.092284e-005
7.178878e-004,1.054428e-004
5.178991e-004,1.346145e-004
3.798194e-004,1.513072e-004
2.795009e-004,1.553589e-004
1.577899e-004,1.529279e-004
-3.344723e-005,1.498487e-004
-2.904828e-004,1.519555e-004
-5.783107e-004,1.590864e-004
-8.625733e-004,1.671896e-004
-1.091409e-003,1.728619e-004
-1.219279e-003,1.741585e-004
-1.276326e-003,1.736723e-004
-1.354279e-003,1.756171e-004
-1.488956e-003,1.884202e-004
-1.577930e-003,2.145127e-004
-1.461891e-003,2.440086e-004
-1.076499e-003,2.642668e-004
-5.314739e-004,2.707494e-004
-6.164659e-005,2.647530e-004
1.085220e-004,2.524360e-004
-1.149661e-004,2.428742e-004
-6.721465e-004,2.404432e-004
-1.418133e-003,2.404432e-004
-2.206906e-003,2.368777e-004
-2.877371e-003,2.289366e-004
-3.225164e-003,2.187264e-004
-3.101022e-003,2.090025e-004
-2.506241e-003,1.983062e-004
-1.615853e-003,1.837203e-004
-6.875428e-004,1.701068e-004
4.434413e-005,1.603829e-004
4.499937e-004,1.543865e-004
5.345919e-004,1.459591e-004
3.892192e-004,1.302388e-004
1.250527e-004,1.081979e-004
-1.583996e-004,8.275361e-005
-3.710293e-004,5.811968e-005
-4.457413e-004,3.688912e-005
-3.613053e-004,1.679302e-005
-1.548341e-004,-4.599598e-006
1.023635e-004,-2.761287e-005
3.418961e-004,-5.467778e-005
5.261644e-004,-8.579432e-005
6.465791e-004,-1.172350e-004
7.117294e-004,-1.477033e-004
7.386322e-004,-1.802784e-004
7.413874e-004,-2.139880e-004
7.344186e-004,-2.488320e-004
7.292324e-004,-2.823795e-004
7.311772e-004,-3.102548e-004
7.400909e-004,-3.267854e-004
7.528940e-004,-3.314853e-004
7.689385e-004,-3.287302e-004
7.827141e-004,-3.240303e-004
7.895208e-004,-3.211132e-004
7.854691e-004,-3.175477e-004
7.694247e-004,-3.105789e-004
7.433321e-004,-2.966413e-004
7.152948e-004,-2.749245e-004
7.003848e-004,-2.512630e-004
7.055709e-004,-2.352185e-004
7.290703e-004,-2.326255e-004
7.629421e-004,-2.387840e-004
7.971379e-004,-2.454286e-004
8.115617e-004,-2.455907e-004
7.866036e-004,-2.358668e-004
7.240463e-004,-2.162569e-004
6.418792e-004,-1.875713e-004
5.611706e-004,-1.506204e-004
4.940755e-004,-1.067007e-004
4.474007e-004,-5.824322e-005
4.195254e-004,-1.075808e-005
4.033189e-004,2.716521e-005
3.851676e-004,5.115087e-005
3.587509e-004,6.314371e-005
3.255275e-004,6.719535e-005
2.913317e-004,7.011252e-005
2.598910e-004,7.886404e-005
2.305572e-004,1.013911e-004
2.013854e-004,1.323456e-004
1.887444e-004,1.658931e-004
2.090025e-004,1.971717e-004
2.595669e-004,2.195368e-004
3.224483e-004,2.266676e-004
3.791712e-004,2.196988e-004
4.232529e-004,2.060853e-004
4.474007e-004,1.924718e-004
4.477248e-004,1.822617e-004
4.282770e-004,1.793446e-004
3.927847e-004,1.855030e-004
3.391410e-004,1.961994e-004
2.574601e-004,2.055991e-004
1.446626e-004,2.083542e-004
1.322759e-005,2.064095e-004
-1.191798e-004,2.057612e-004
-2.318152e-004,2.091646e-004
-3.047445e-004,2.138645e-004
-3.235441e-004,2.184023e-004
-2.857829e-004,2.229401e-004
-2.141500e-004,2.334744e-004
-1.498101e-004,2.556773e-004
-1.212866e-004,2.887387e-004
-1.227452e-004,3.256896e-004
-1.355484e-004,3.582647e-004
-1.582375e-004,3.806297e-004
-2.147983e-004,3.897054e-004
-3.360231e-004,3.853296e-004
-5.248293e-004,3.749574e-004
-7.376209e-004,3.634508e-004
-9.100584e-004,3.524304e-004
-9.927117e-004,3.365480e-004
-9.815291e-004,3.080245e-004
-9.312889e-004,2.590807e-004
-9.220513e-004,1.884202e-004
-1.018642e-003,1.041462e-004
-1.235810e-003,1.857574e-005
-1.502731e-003,-5.500191e-005
-1.690241e-003,-1.141558e-004
-1.686189e-003,-1.632615e-004
-1.453139e-003,-2.110708e-004
-1.040521e-003,-2.614731e-004
-5.574043e-004,-3.128478e-004
-1.146419e-004,-3.635742e-004
2.201850e-004,-4.068457e-004
4.269804e-004,-4.382863e-004
5.198439e-004,-4.556273e-004
5.292437e-004,-4.640547e-004
4.864584e-004,-4.682684e-004
4.229288e-004,-4.690787e-004
3.650715e-004,-4.664857e-004
3.286068e-004,-4.548170e-004
3.188828e-004,-4.311555e-004
3.328204e-004,-3.930701e-004
3.615060e-004,-3.468815e-004
3.906778e-004,-3.036101e-004
4.054258e-004,-2.700626e-004
3.989431e-004,-2.481838e-004
3.733368e-004,-2.353806e-004
3.352514e-004,-2.201465e-004
2.974902e-004,-1.935677e-004
2.684805e-004,-1.501342e-004
2.506533e-004,-9.292520e-005
2.384984e-004,-3.004385e-005
2.299089e-004,3.202716e-005
2.234263e-004,8.631905e-005
2.180782e-004,1.274836e-004
2.115956e-004,1.535762e-004
2.031682e-004,1.662173e-004
1.934442e-004,1.683241e-004
1.827479e-004,1.597346e-004
1.710792e-004,1.498487e-004
1.558451e-004,1.480659e-004
1.351007e-004,1.594105e-004
1.041462e-004,1.767515e-004
6.606088e-005,1.929580e-004
4.094075e-005,2.002510e-004
5.098881e-005,1.999268e-004
1.015532e-004,2.015475e-004
1.882582e-004,2.117576e-004
2.939248e-004,2.266676e-004
3.906778e-004,2.399570e-004
4.475628e-004,2.480603e-004
4.464283e-004,2.537325e-004
3.856538e-004,2.605393e-004
2.799871e-004,2.702632e-004
1.670276e-004,2.803113e-004
8.648112e-005,2.895490e-004
6.055066e-005,2.947351e-004
7.886404e-005,2.893870e-004
1.135460e-004,2.760976e-004
1.292664e-004,2.600531e-004
1.018773e-004,2.466017e-004
2.295151e-005,2.354192e-004
-1.101041e-004,2.245608e-004
-2.921034e-004,2.140265e-004
-5.139708e-004,2.047888e-004
-7.502620e-004,1.963614e-004
-9.494403e-004,1.927960e-004
-1.038900e-003,1.914995e-004
-9.637020e-004,1.882582e-004
-7.282211e-004,1.783722e-004
-3.938804e-004,1.618415e-004
-3.976777e-005,1.409351e-004
2.717218e-004,1.184080e-004
5.114165e-004,9.409818e-005
6.734819e-004,6.881599e-005
7.624559e-004,4.612685e-005
7.859553e-004,2.684107e-005
7.515975e-004,1.014835e-005
6.668373e-004,-7.192643e-006
5.386435e-004,-2.939559e-005
3.822504e-004,-5.370539e-005
1.979821e-004,-7.331530e-005
-3.085418e-005,-8.563225e-005
-3.240303e-004,-9.535618e-005
-6.833291e-004,-1.081593e-004
-1.064507e-003,-1.214487e-004
-1.386206e-003,-1.337657e-004
-1.557834e-003,-1.444620e-004
-1.513752e-003,-1.543479e-004
-1.240347e-003,-1.682856e-004
-7.956403e-004,-1.878955e-004
-2.934000e-004,-2.092881e-004
1.370455e-004,-2.261429e-004
3.901916e-004,-2.387840e-004
4.342734e-004,-2.459149e-004
3.433547e-004,-2.473734e-004
2.650771e-004,-2.412149e-004
3.252034e-004,-2.311669e-004
5.553362e-004,-2.229016e-004
8.890290e-004,-2.160948e-004
1.216239e-003,-2.071812e-004
1.442645e-003,-1.968091e-004
1.515412e-003,-1.807646e-004
1.421090e-003,-1.545100e-004
1.160651e-003,-1.188556e-004
7.485182e-004,-7.995997e-005
2.151610e-004,-4.511593e-005
-3.831841e-004,-1.821308e-005
-9.525195e-004,3.827799e-006
-1.388475e-003,1.987227e-005
-1.604022e-003,2.603075e-005
-1.572581e-003,2.295151e-005
-1.342773e-003,1.598270e-005
-1.005515e-003,1.176900e-005
-6.465403e-004,1.419998e-005
-3.162512e-004,2.116879e-005
-1.772689e-005,3.121684e-005
3.049452e-004,4.175109e-005
7.033019e-004,4.985435e-005
1.157085e-003,5.455425e-005
1.573432e-003,5.844381e-005
1.854130e-003,5.925414e-005
1.962390e-003,5.698522e-005
1.931435e-003,5.212327e-005
1.836141e-003,4.807163e-005
1.726098e-003,4.580272e-005
1.591259e-003,4.693717e-005
1.380088e-003,5.066468e-005
1.026461e-003,5.601284e-005
4.676588e-004,6.589881e-005
-3.258130e-004,8.064677e-005
-1.295612e-003,9.555677e-005
-2.257146e-003,1.072255e-004
-2.955162e-003,1.130598e-004
-3.213657e-003,1.130598e-004
-3.015289e-003,1.099806e-004
-2.481607e-003,1.031738e-004
-1.788453e-003,9.344993e-005
-1.094327e-003,8.388807e-005
-5.061917e-004,7.837785e-005
-6.731888e-005,7.951231e-005
2.224539e-004,8.745350e-005
3.880847e-004,9.701536e-005
4.660382e-004,1.028497e-004
4.909963e-004,1.036600e-004
4.788414e-004,9.863601e-005
4.273046e-004,9.037068e-005
3.261758e-004,8.453633e-005
1.782101e-004,8.372601e-005
-2.238346e-007,8.469840e-005
-1.979435e-004,8.097089e-005
-4.120317e-004,7.562274e-005
-6.269303e-004,7.416415e-005
-8.240017e-004,8.064677e-005
-1.000005e-003,9.004655e-005
-1.120743e-003,9.393612e-005
-1.115233e-003,8.729144e-005
-9.223754e-004,7.302970e-005
-5.468701e-004,5.779555e-005
-6.180866e-005,4.645098e-005
4.200116e-004,3.867184e-005
8.015137e-004,3.202716e-005
1.044612e-003,2.586868e-005
1.161623e-003,1.760335e-005
1.184312e-003,6.744974e-006
1.151737e-003,-5.896120e-006
1.102793e-003,-1.918548e-005
1.065518e-003,-3.328516e-005
1.045098e-003,-4.835724e-005
1.021437e-003,-6.715681e-005
9.522345e-004,-8.757704e-005
7.763935e-004,-1.058904e-004
4.546936e-004,-1.172350e-004
8.851824e-006,-1.183694e-004
-4.640547e-004,-1.133454e-004
-8.280533e-004,-1.047560e-004
-9.790981e-004,-9.665270e-005
-8.889899e-004,-9.130454e-005
-6.084549e-004,-9.000802e-005
-2.415391e-004,-9.292520e-005
1.031738e-004,-9.811128e-005
3.568061e-004,-1.032974e-004
5.122268e-004,-1.058904e-004
5.945560e-004,-1.063766e-004
6.272933e-004,-1.057284e-004
6.174073e-004,-1.047560e-004
5.702463e-004,-1.026491e-004
4.943996e-004,-1.010285e-004
4.029947e-004,-9.956988e-005
3.153174e-004,-9.940781e-005
2.649151e-004,-9.794922e-005
2.854973e-004,-9.341139e-005
3.807918e-004,-8.676672e-005
5.149820e-004,-7.882551e-005
6.342620e-004,-7.153257e-005
6.956849e-004,-6.440170e-005
6.788301e-004,-5.613637e-005
5.840218e-004,-4.300908e-005
4.376768e-004,-2.469570e-005
2.699391e-004,-5.734056e-006
1.028497e-004,9.338019e-006
-4.884343e-005,1.906194e-005
-1.712027e-004,2.359977e-005
-2.525595e-004,2.603075e-005
-2.836761e-004,3.202716e-005
-2.715212e-004,4.531652e-005
-2.334358e-004,6.589881e-005
-1.903264e-004,9.588091e-005
-1.624512e-004,1.328318e-004
-1.564548e-004,1.686482e-004
-1.639098e-004,1.955511e-004
-1.519170e-004,2.114335e-004
-7.898758e-005,2.174299e-004
7.497447e-005,2.153231e-004
2.840388e-004,2.093267e-004
4.958582e-004,1.984683e-004
6.746164e-004,1.864754e-004
8.031343e-004,1.788584e-004
8.723363e-004,1.814514e-004
8.780085e-004,1.936063e-004
8.276062e-004,2.106232e-004
7.396046e-004,2.235884e-004
6.349103e-004,2.269918e-004
5.268127e-004,2.219677e-004
4.177427e-004,2.161334e-004
3.030004e-004,2.125679e-004
1.631380e-004,2.112714e-004
-4.965376e-005,2.041406e-004
-3.651949e-004,1.866375e-004
-7.735994e-004,1.605450e-004
-1.230786e-003,1.316974e-004
-1.674845e-003,1.026876e-004
-2.047595e-003,7.772959e-005
-2.333641e-003,5.763349e-005
-2.530712e-003,4.256141e-005
-2.606397e-003,3.089271e-005
-2.485172e-003,2.214118e-005
-2.076118e-003,1.419998e-005
-1.357521e-003,4.476060e-006
-4.245108e-004,-6.220252e-006
5.426951e-004,-1.740276e-005
1.353185e-003,-2.955766e-005
1.900643e-003,-4.074016e-005
2.141149e-003,-5.095028e-005
2.094474e-003,-5.646050e-005
1.835979e-003,-5.500191e-005
1.468251e-003,-4.398147e-005
1.062925e-003,-2.777494e-005
6.389620e-004,-1.610624e-005
2.012234e-004,-1.659243e-005
-2.152845e-004,-3.150244e-005
-5.204534e-004,-5.451572e-005
-6.097514e-004,-8.060823e-005
-4.575721e-004,-9.956988e-005
-1.451102e-004,-1.045939e-004
2.054371e-004,-9.843541e-005
5.114165e-004,-8.660465e-005
7.580801e-004,-6.991193e-005
9.783271e-004,-5.305713e-005
1.201978e-003,-3.604027e-005
1.400184e-003,-1.643037e-005
1.490454e-003,2.369211e-006
1.374902e-003,1.452411e-005
9.686031e-004,1.663096e-005
2.179161e-004,7.231170e-006
-8.444220e-004,-1.432352e-005
-2.020044e-003,-4.446767e-005
-3.020961e-003,-7.461182e-005
-3.599536e-003,-9.778715e-005
-3.683811e-003,-1.089697e-004
-3.397440e-003,-1.084835e-004
-2.937173e-003,-9.940781e-005
-2.450166e-003,-8.530812e-005
-1.995410e-003,-7.072225e-005
-1.577119e-003,-5.694670e-005
-1.180707e-003,-4.365734e-005
-8.017988e-004,-3.458168e-005
-4.514136e-004,-2.826114e-005
-1.415448e-004,-2.080613e-005
1.239182e-004,-1.010982e-005
3.433547e-004,1.234753e-006
5.211404e-004,1.176900e-005
6.673234e-004,1.841368e-005
7.888725e-004,1.938607e-005
8.937289e-004,1.727922e-005
9.818925e-004,1.760335e-005
1.048988e-003,2.489629e-005
1.088856e-003,3.818565e-005
1.094366e-003,5.585077e-005
1.066653e-003,7.189524e-005
1.017709e-003,8.275361e-005
9.580689e-004,9.118101e-005
8.865980e-004,9.766362e-005
7.950310e-004,9.863601e-005
6.801266e-004,9.604298e-005
5.388056e-004,9.490851e-005
3.767402e-004,9.717743e-005
2.151610e-004,1.025256e-004
8.080883e-005,1.107909e-004
-9.137427e-006,1.208390e-004
-4.608832e-005,1.321835e-004
-2.453363e-005,1.441764e-004
5.828175e-005,1.534141e-004
1.889064e-004,1.550348e-004
3.391410e-004,1.511452e-004
4.700898e-004,1.451488e-004
5.520949e-004,1.432040e-004
5.781874e-004,1.472556e-004
5.616568e-004,1.539003e-004
5.206542e-004,1.581140e-004
4.713863e-004,1.553589e-004
4.245494e-004,1.446626e-004
3.846814e-004,1.299146e-004
3.499994e-004,1.171115e-004
3.188828e-004,1.073875e-004
2.914938e-004,9.701536e-005
2.701012e-004,8.307774e-005
2.584324e-004,6.832980e-005
2.538946e-004,5.423012e-005
2.537325e-004,3.948217e-005
2.519498e-004,2.019640e-005
2.508154e-004,-5.896120e-006
2.457913e-004,-3.879538e-005
2.329882e-004,-7.526008e-005
2.077060e-004,-1.089697e-004
1.730240e-004,-1.368449e-004
1.282940e-004,-1.618029e-004
7.384002e-005,-1.851404e-004
1.112074e-005,-2.062088e-004
-5.435365e-005,-2.227395e-004
-1.101041e-004,-2.339220e-004
-1.444620e-004,-2.405667e-004
-1.571031e-004,-2.442942e-004
-1.527273e-004,-2.457528e-004
-1.366828e-004,-2.470493e-004
-1.146419e-004,-2.493182e-004
-9.000802e-005,-2.536940e-004
-6.634648e-005,-2.564491e-004
-4.300908e-005,-2.530457e-004
-1.643037e-005,-2.365151e-004
1.841368e-005,-2.041020e-004
6.411610e-005,-1.619650e-004
1.192183e-004,-1.186936e-004
1.778860e-004,-8.287715e-005
2.344468e-004,-5.840528e-005
2.858215e-004,-4.462973e-005
3.355756e-004,-3.814712e-005
3.919743e-004,-3.490581e-005
4.598797e-004,-3.053005e-005
5.287575e-004,-2.177852e-005
5.752703e-004,-9.623623e-006
5.799701e-004,1.234753e-006
5.308643e-004,4.151929e-006
4.255218e-004,-2.492749e-006
2.720459e-004,-1.270286e-005
9.085688e-005,-1.950961e-005
-8.822530e-005,-1.578211e-005
-2.378116e-004,-1.358292e-006
-3.423437e-004,2.230325e-005
-4.055492e-004,5.115087e-005
-4.313175e-004,8.291568e-005
-4.321279e-004,1.143563e-004
-4.217557e-004,1.414213e-004
-4.071698e-004,1.539003e-004
-3.869116e-004,1.474177e-004
-3.663294e-004,1.252147e-004
-3.562813e-004,9.523264e-005
-3.564434e-004,6.541262e-005
-3.583881e-004,4.304761e-005
-3.557951e-004,3.235129e-005
-3.486642e-004,3.316162e-005
-3.334301e-004,4.207521e-005
-3.058790e-004,5.277153e-005
-2.666592e-004,6.606088e-005
-2.246843e-004,8.567078e-005
-1.867610e-004,1.117633e-004
-1.541859e-004,1.425557e-004
-1.152902e-004,1.749688e-004
-5.905355e-005,2.033302e-004
1.663096e-005,2.211574e-004
9.798775e-005,2.276400e-004
1.671896e-004,2.252090e-004
2.177540e-004,2.218057e-004
2.478982e-004,2.255332e-004
2.594049e-004,2.393087e-004
2.730183e-004,2.569738e-004
3.148312e-004,2.741528e-004
4.031568e-004,2.876042e-004
5.511225e-004,2.994350e-004
7.584042e-004,3.102934e-004
9.877268e-004,3.222862e-004
1.178802e-003,3.362238e-004
1.275717e-003,3.504856e-004
1.247032e-003,3.558337e-004
1.081563e-003,3.443271e-004
7.812555e-004,3.141829e-004
3.579406e-004,2.671840e-004
-1.483515e-004,2.101370e-004
-6.658260e-004,1.527658e-004
-1.113288e-003,9.912221e-005
-1.413271e-003,5.163707e-005
-1.527041e-003,1.160693e-005
-1.503055e-003,-2.096820e-005
-1.471615e-003,-4.592625e-005
-1.581333e-003,-6.083626e-005
-1.927018e-003,-6.569822e-005
-2.486955e-003,-5.953974e-005
-3.093243e-003,-4.722278e-005
-3.496300e-003,-3.587821e-005
-3.488683e-003,-3.004385e-005
-3.006537e-003,-3.053005e-005
-2.156179e-003,-3.539201e-005
-1.152832e-003,-4.187462e-005
-2.243602e-004,-4.738484e-005
4.713863e-004,-5.354332e-005
8.904876e-004,-6.456377e-005
1.083183e-003,-8.077030e-005
1.126779e-003,-9.341139e-005
1.089180e-003,-9.665270e-005
1.017871e-003,-9.292520e-005
9.421865e-004,-8.887356e-005
8.726604e-004,-9.146661e-005
8.120479e-004,-1.049180e-004
7.556491e-004,-1.287416e-004
6.914712e-004,-1.603444e-004
6.115729e-004,-1.932436e-004
5.237334e-004,-2.217671e-004
4.461041e-004,-2.386219e-004
3.974845e-004,-2.429977e-004
3.825745e-004,-2.425115e-004
3.948915e-004,-2.442942e-004
4.253598e-004,-2.489941e-004
4.602039e-004,-2.540181e-004
4.869446e-004,-2.566112e-004
5.005581e-004,-2.533699e-004
5.012064e-004,-2.431597e-004
4.960203e-004,-2.285739e-004
4.929411e-004,-2.117191e-004
4.966686e-004,-1.912988e-004
5.080132e-004,-1.658546e-004
5.203301e-004,-1.376552e-004
5.256782e-004,-1.091317e-004
5.227611e-004,-8.109443e-005
5.153061e-004,-5.338126e-005
5.050959e-004,-2.647842e-005
4.911583e-004,-2.006553e-006
4.718725e-004,2.035846e-005
4.443214e-004,4.223728e-005
4.086671e-004,6.687121e-005
3.629646e-004,9.523264e-005
3.112658e-004,1.282940e-004
2.589186e-004,1.616794e-004
2.130541e-004,1.893926e-004
1.770756e-004,2.046267e-004
1.495245e-004,2.067336e-004
1.258630e-004,2.025199e-004
9.912221e-005,1.979821e-004
6.703327e-005,1.979821e-004
2.829966e-005,2.077060e-004
-1.562004e-005,2.229401e-004
-6.326724e-005,2.339606e-004
-1.062146e-004,2.365536e-004
-1.326312e-004,2.313675e-004
-1.314967e-004,2.203471e-004
-9.794922e-005,2.036544e-004
-4.025397e-005,1.876099e-004
2.441009e-005,1.801549e-004
8.275361e-005,1.798307e-004
1.342904e-004,1.825859e-004
1.976579e-004,1.819376e-004
2.829043e-004,1.752929e-004
3.835469e-004,1.644345e-004
4.830550e-004,1.542244e-004
5.640878e-004,1.466074e-004
6.169211e-004,1.370455e-004
6.396103e-004,1.234320e-004
6.371793e-004,1.085220e-004
6.190279e-004,9.134307e-005
5.999042e-004,7.286763e-005
5.974732e-004,5.309566e-005
6.131936e-004,3.186510e-005
6.255105e-004,1.468618e-005
5.992560e-004,2.693341e-006
5.078511e-004,-7.030578e-006
3.456236e-004,-1.837515e-005
1.399627e-004,-3.279896e-005
-6.310517e-005,-4.932962e-005
-2.169052e-004,-6.699475e-005
-3.045825e-004,-8.644259e-005
-3.407231e-004,-1.042698e-004
-3.491504e-004,-1.167488e-004
-3.494746e-004,-1.199901e-004
-3.462333e-004,-1.172350e-004
-3.353749e-004,-1.139937e-004
-3.164132e-004,-1.143178e-004
-2.909690e-004,-1.183694e-004
-2.711970e-004,-1.255003e-004
-2.611490e-004,-1.313347e-004
-2.423494e-004,-1.366828e-004
-1.689338e-004,-1.434896e-004
-7.192643e-006,-1.538618e-004
2.393087e-004,-1.660166e-004
5.263265e-004,-1.770371e-004
8.052412e-004,-1.853024e-004
1.040074e-003,-1.888679e-004
1.213484e-003,-1.848162e-004
1.311696e-003,-1.747682e-004
1.317368e-003,-1.643960e-004
1.218994e-003,-1.554824e-004
1.017223e-003,-1.468929e-004
7.246946e-004,-1.366828e-004
3.472443e-004,-1.263107e-004
-1.045939e-004,-1.170729e-004
-5.997034e-004,-1.062146e-004
-1.092544e-003,-9.146661e-005
-1.552972e-003,-7.282909e-005
-1.985686e-003,-5.095028e-005
-2.405274e-003,-2.923353e-005
-2.790342e-003,-9.299493e-006
-3.073146e-003,9.013889e-006
-3.195830e-003,2.619281e-005
-3.152072e-003,4.061663e-005
-2.990655e-003,5.666109e-005
-2.767977e-003,7.205730e-005
-2.499272e-003,8.583286e-005
-2.165417e-003,9.231547e-005
-1.744209e-003,9.247754e-005
-1.236620e-003,9.393612e-005
-6.808981e-004,1.026876e-004
-1.361966e-004,1.226217e-004
3.323342e-004,1.526038e-004
6.810990e-004,1.850168e-004
9.109079e-004,2.091646e-004
1.061629e-003,2.208333e-004
1.180585e-003,2.190506e-004
1.290952e-003,2.090025e-004
1.390622e-003,1.970097e-004
1.471006e-003,1.890685e-004
1.525136e-003,1.867996e-004
1.547502e-003,1.874478e-004
1.539398e-003,1.877720e-004
1.504392e-003,1.864754e-004
1.441024e-003,1.829100e-004
1.343947e-003,1.799928e-004
1.202464e-003,1.812893e-004
1.019168e-003,1.869616e-004
8.204753e-004,1.921477e-004
6.747784e-004,1.934442e-004
6.627856e-004,1.882582e-004
8.143168e-004,1.786963e-004
1.087397e-003,1.631380e-004
1.389001e-003,1.459591e-004
1.631614e-003,1.305629e-004
1.743115e-003,1.163011e-004
1.680233e-003,9.896015e-005
1.429680e-003,7.610894e-005
9.950198e-004,5.098881e-005
3.858158e-004,3.105477e-005
-3.650328e-004,2.019640e-005
-1.194645e-003,1.808955e-005
-2.036575e-003,1.938607e-005
-2.829886e-003,1.727922e-005
-3.490466e-003,5.934648e-006
-3.885421e-003,-1.367526e-005
-3.892552e-003,-3.441962e-005
-3.477987e-003,-5.483985e-005
-2.733781e-003,-7.153257e-005
-1.831562e-003,-8.303922e-005
-9.513851e-004,-9.211487e-005
-2.229016e-004,-1.047560e-004
2.958695e-004,-1.206384e-004
6.123833e-004,-1.363587e-004
7.629421e-004,-1.486757e-004
7.767176e-004,-1.567789e-004
6.632718e-004,-1.608306e-004
4.274666e-004,-1.637477e-004
9.085688e-005,-1.642339e-004
-2.739521e-004,-1.645581e-004
-5.428185e-004,-1.642339e-004
-6.039171e-004,-1.619650e-004
-4.149489e-004,-1.571031e-004
-1.886135e-005,-1.485136e-004
4.770586e-004,-1.391138e-004
9.481829e-004,-1.347380e-004
1.302458e-003,-1.355484e-004
1.498396e-003,-1.383035e-004
1.524326e-003,-1.389517e-004
1.385436e-003,-1.345760e-004
1.104738e-003,-1.245279e-004
7.357151e-004,-1.107524e-004
3.603715e-004,-9.940781e-005
6.103686e-005,-9.341139e-005
-1.306864e-004,-9.243900e-005
-2.523975e-004,-9.243900e-005
-3.778360e-004,-8.709085e-005
-5.739350e-004,-7.380149e-005
-8.538218e-004,-5.402952e-005
-1.145863e-003,-3.085418e-005
-1.308901e-003,-5.409925e-006
-1.213283e-003,2.262738e-005
-8.201121e-004,5.811968e-005
-2.092881e-004,9.912221e-005
4.551798e-004,1.406109e-004
1.017061e-003,1.785342e-004
1.404560e-003,2.093267e-004
1.623672e-003,2.334744e-004
1.724639e-003,2.480603e-004
1.771963e-003,2.532463e-004
1.810048e-003,2.480603e-004
1.844568e-003,2.357433e-004
1.853158e-003,2.211574e-004
1.821717e-003,2.068957e-004
1.752191e-003,1.984683e-004
1.642310e-003,1.976579e-004
1.492237e-003,2.025199e-004
1.318503e-003,2.102990e-004
1.143958e-003,2.167816e-004
9.859442e-004,2.169437e-004
8.564538e-004,2.094887e-004
7.577559e-004,1.981441e-004
6.935780e-004,1.842065e-004
6.640821e-004,1.709172e-004
6.755888e-004,1.628139e-004
7.227498e-004,1.586002e-004
7.733142e-004,1.522796e-004
7.879001e-004,1.401247e-004
7.373357e-004,1.239182e-004
6.123833e-004,1.059290e-004
4.044533e-004,8.956036e-005
1.056048e-004,7.659513e-005
-2.517492e-004,7.043665e-005
-5.682627e-004,7.173317e-005
-7.397278e-004,7.643307e-005
-7.034251e-004,7.870197e-005
-4.564377e-004,7.027458e-005
-7.331530e-005,5.260946e-005
3.128864e-004,3.283749e-005
5.695980e-004,1.646890e-005
6.161107e-004,7.879432e-006
4.365423e-004,4.151929e-006
7.124698e-005,2.855407e-006
-4.243487e-004,1.396819e-006
-1.007784e-003,-3.141010e-006
-1.652480e-003,-1.010982e-005
-2.312248e-003,-1.578211e-005
-2.907353e-003,-2.161646e-005
-3.362272e-003,-2.793700e-005
-3.642322e-003,-3.409549e-005
-3.747503e-003,-4.219875e-005
-3.679435e-003,-5.775702e-005
-3.425478e-003,-8.174268e-005
-2.980445e-003,-1.099421e-004
-2.376102e-003,-1.345760e-004
-1.675493e-003,-1.517549e-004
-9.656468e-004,-1.618029e-004
-3.342404e-004,-1.663408e-004
1.467694e-004,-1.687718e-004
4.384871e-004,-1.721751e-004
5.517708e-004,-1.760647e-004
5.386435e-004,-1.802784e-004
4.705760e-004,-1.823853e-004
4.091532e-004,-1.814128e-004
3.871123e-004,-1.762268e-004
4.072085e-004,-1.656925e-004
4.493454e-004,-1.536997e-004
4.875929e-004,-1.415448e-004
5.101200e-004,-1.302002e-004
5.240576e-004,-1.191798e-004
5.409124e-004,-1.092938e-004
5.637637e-004,-1.042698e-004
5.913147e-004,-1.010285e-004
6.167590e-004,-9.324933e-005
6.339379e-004,-8.368748e-005
6.373413e-004,-7.412562e-005
6.256726e-004,-6.586029e-005
6.024973e-004,-5.905355e-005
5.721910e-004,-5.208474e-005
5.389676e-004,-3.814712e-005
5.076890e-004,-1.351319e-005
4.741415e-004,1.987227e-005
4.388112e-004,5.228533e-005
4.109360e-004,7.708133e-005
4.041292e-004,8.939829e-005
4.232529e-004,9.069481e-005
4.574487e-004,8.891209e-005
4.877550e-004,8.777764e-005
4.987754e-004,9.037068e-005
4.811103e-004,9.636710e-005
4.365423e-004,1.051186e-004
3.696093e-004,1.182459e-004
2.850112e-004,1.336421e-004
2.013854e-004,1.488763e-004
1.385041e-004,1.605450e-004
1.018773e-004,1.688103e-004
8.307774e-005,1.744826e-004
7.027458e-005,1.777239e-004
5.423012e-005,1.775618e-004
2.505836e-005,1.735102e-004
-2.680255e-005,1.676758e-004
-1.128592e-004,1.616794e-004
-2.417012e-004,1.574657e-004
-4.151110e-004,1.560072e-004
-6.176926e-004,1.553589e-004
-8.181673e-004,1.488763e-004
-9.701846e-004,1.360731e-004
-1.019939e-003,1.213252e-004
-9.345302e-004,1.104668e-004
-7.251419e-004,1.064152e-004
-4.280762e-004,1.013911e-004
-7.639453e-005,9.231547e-005
3.004074e-004,8.226741e-005
6.691061e-004,7.529860e-005
9.895095e-004,6.865393e-005
1.227908e-003,5.925414e-005
1.362260e-003,4.564065e-005
1.396132e-003,2.878586e-005
1.353671e-003,1.225520e-005
1.274745e-003,-1.844488e-006
1.190147e-003,-8.327101e-006
1.112355e-003,-8.489166e-006
1.034564e-003,-6.868513e-006
9.425106e-004,-7.840905e-006
8.159374e-004,-1.399939e-005
6.222692e-004,-2.275091e-005
3.119140e-004,-3.296103e-005
-1.588858e-004,-3.733679e-005
-7.748959e-004,-3.247483e-005
-1.432233e-003,-2.420950e-005
-1.949545e-003,-1.886135e-005
-2.159907e-003,-1.626830e-005
-1.997517e-003,-1.318906e-005
-1.525745e-003,-8.327101e-006
-8.983897e-004,-2.492749e-006
-2.742763e-004,2.693341e-006
2.487085e-004,3.179537e-006
6.447964e-004,-7.100305e-007
9.232248e-004,-6.544382e-006
1.073622e-003,-1.027188e-005
1.060332e-003,-1.237873e-005
8.287407e-004,-1.497178e-005
3.201794e-004,-2.356124e-005
-4.870680e-004,-4.349527e-005
-1.492197e-003,-7.493595e-005
-2.440442e-003,-1.133454e-004
-3.013668e-003,-1.561307e-004
-3.001189e-003,-1.979435e-004
-2.413215e-003,-2.324634e-004
-1.485390e-003,-2.532078e-004
-5.483287e-004,-2.601766e-004
1.188942e-004,-2.533699e-004
3.916502e-004,-2.345703e-004
3.166139e-004,-2.096122e-004
4.142696e-005,-1.874093e-004
-2.446183e-004,-1.710407e-004
-3.797808e-004,-1.566169e-004
-2.906449e-004,-1.381414e-004
-8.327101e-006,-1.144799e-004
3.600474e-004,-9.503204e-005
6.994124e-004,-8.563225e-005
9.353797e-004,-8.255302e-005
1.042505e-003,-7.914964e-005
1.035536e-003,-7.120844e-005
9.530449e-004,-5.289507e-005
8.447851e-004,-2.145439e-005
7.562974e-004,2.052053e-005
7.161052e-004,6.314371e-005
7.261531e-004,1.020394e-004
7.642386e-004,1.383420e-004
7.909794e-004,1.806411e-004
7.783383e-004,2.334744e-004
7.250187e-004,2.948972e-004
6.491721e-004,3.543751e-004
5.749461e-004,4.015361e-004
5.240576e-004,4.266563e-004
4.963444e-004,4.289252e-004
4.796517e-004,4.078567e-004
4.629590e-004,3.741471e-004
4.386491e-004,3.402755e-004
4.086671e-004,3.128864e-004
3.762539e-004,2.910076e-004
3.457857e-004,2.722080e-004
3.156415e-004,2.568118e-004
2.837146e-004,2.431983e-004
2.506533e-004,2.303951e-004
2.205092e-004,2.140265e-004
1.971717e-004,1.953890e-004
1.835583e-004,1.769136e-004
1.778860e-004,1.600588e-004
1.725378e-004,1.435281e-004
1.620036e-004,1.271595e-004
1.415833e-004,1.099806e-004
1.151667e-004,9.037068e-005
9.118101e-005,6.784360e-005
7.529860e-005,4.580272e-005
6.784360e-005,2.554455e-005
6.427817e-005,5.448452e-006
5.860588e-005,-1.529591e-005
4.807163e-005,-3.766092e-005
3.607880e-005,-5.905355e-005
2.424803e-005,-7.639453e-005
1.468618e-005,-8.644259e-005
7.717366e-006,-9.081835e-005
4.244267e-007,-9.454585e-005
-1.140634e-005,-9.973194e-005
-2.955766e-005,-1.049180e-004
-5.030202e-005,-1.062146e-004
-7.526008e-005,-1.073490e-004
-1.039456e-004,-1.136696e-004
-1.285796e-004,-1.250141e-004
-1.433275e-004,-1.384655e-004
-1.522411e-004,-1.462447e-004
-1.640719e-004,-1.426792e-004
-1.823853e-004,-1.279313e-004
-2.037779e-004,-1.047560e-004
-2.243602e-004,-7.801519e-005
-2.395943e-004,-5.451572e-005
-2.530457e-004,-4.074016e-005
-2.731418e-004,-3.393342e-005
-3.018274e-004,-3.020592e-005
-3.305129e-004,-2.728874e-005
-3.476919e-004,-2.501983e-005
-3.472056e-004,-2.615429e-005
-3.313232e-004,-3.166451e-005
-3.037722e-004,-4.381940e-005
-2.699005e-004,-5.953974e-005
-2.348944e-004,-7.396356e-005
-1.987538e-004,-8.433573e-005
-1.593720e-004,-8.854943e-005
-1.157764e-004,-9.049421e-005
-7.007399e-005,-9.503204e-005
-2.664048e-005,-1.047560e-004
7.393236e-006,-1.157764e-004
2.295151e-005,-1.238797e-004
