-1.971332e-004,-1.611547e-004
-1.887058e-004,-1.533756e-004
-1.412206e-004,-1.378173e-004
-7.266703e-005,-1.154523e-004
-9.299493e-006,-9.195280e-005
2.457216e-005,-7.607040e-005
2.295151e-005,-7.185670e-005
-6.176923e-008,-7.720486e-005
-2.518189e-005,-8.547019e-005
-3.879538e-005,-8.887356e-005
-3.830919e-005,-8.336335e-005
-3.134038e-005,-7.023606e-005
-2.372331e-005,-5.289507e-005
-2.177852e-005,-3.490581e-005
-2.955766e-005,-1.707863e-005
-4.479180e-005,-1.682422e-006
-6.213279e-005,1.355172e-005
-8.271508e-005,3.040651e-005
-1.190177e-004,4.742337e-005
-1.718510e-004,6.298164e-005
-2.240360e-004,7.724339e-005
-2.541802e-004,9.182927e-005
-2.468872e-004,1.091703e-004
-1.994021e-004,1.260251e-004
-1.250141e-004,1.378558e-004
-4.446767e-005,1.440143e-004
2.781346e-005,1.470936e-004
8.356394e-005,1.496866e-004
1.161391e-004,1.539003e-004
1.279698e-004,1.613553e-004
1.286181e-004,1.712413e-004
1.286181e-004,1.829100e-004
1.367214e-004,1.940925e-004
1.561692e-004,2.036544e-004
1.799928e-004,2.141886e-004
1.986303e-004,2.248849e-004
2.072198e-004,2.349330e-004
2.010613e-004,2.370398e-004
1.738343e-004,2.273159e-004
1.308870e-004,2.086784e-004
8.437427e-005,1.874478e-004
4.596478e-005,1.684862e-004
8.365628e-006,1.592484e-004
-4.106429e-005,1.649207e-004
-1.041077e-004,1.811273e-004
-1.676373e-004,1.968476e-004
-2.194982e-004,2.044647e-004
-2.525595e-004,2.008992e-004
-2.596904e-004,1.942546e-004
-2.335979e-004,1.858272e-004
-1.754164e-004,1.739964e-004
-9.665270e-005,1.571416e-004
-2.275091e-005,1.388282e-004
2.586868e-005,1.213252e-004
4.126489e-005,1.051186e-004
3.202716e-005,8.486046e-005
1.679302e-005,5.990240e-005
1.079661e-005,3.137890e-005
2.084466e-005,4.800190e-006
4.288554e-005,-1.497178e-005
7.043665e-005,-3.004385e-005
9.620504e-005,-4.268495e-005
1.130598e-004,-5.597430e-005
1.185701e-004,-7.153257e-005
1.163011e-004,-9.081835e-005
1.049566e-004,-1.096179e-004
8.486046e-005,-1.243659e-004
6.751948e-005,-1.318209e-004
5.893001e-005,-1.373311e-004
5.698522e-005,-1.438137e-004
6.022653e-005,-1.538618e-004
6.751948e-005,-1.660166e-004
7.886404e-005,-1.773612e-004
9.912221e-005,-1.831956e-004
1.354248e-004,-1.827094e-004
1.788584e-004,-1.775233e-004
2.055991e-004,-1.707166e-004
1.981441e-004,-1.660166e-004
1.579519e-004,-1.652063e-004
1.064152e-004,-1.668270e-004
7.108491e-005,-1.705545e-004
6.606088e-005,-1.746061e-004
8.648112e-005,-1.794681e-004
1.213252e-004,-1.812508e-004
1.492004e-004,-1.799543e-004
1.560072e-004,-1.801163e-004
1.401247e-004,-1.830335e-004
1.088461e-004,-1.846542e-004
7.173317e-005,-1.840059e-004
3.721326e-005,-1.778474e-004
1.144487e-005,-1.663408e-004
-1.844488e-006,-1.504584e-004
-9.137427e-006,-1.336036e-004
-1.805102e-005,-1.204763e-004
-3.360929e-005,-1.125351e-004
-4.884343e-005,-1.058904e-004
-5.500191e-005,-9.665270e-005
-4.900550e-005,-8.174268e-005
-3.701266e-005,-6.261898e-005
-2.793700e-005,-4.171256e-005
-3.685060e-005,-2.161646e-005
-7.007399e-005,-8.720959e-007
-1.212866e-004,2.278944e-005
-1.695821e-004,4.839576e-005
-2.000504e-004,7.400208e-005
-1.985918e-004,9.896015e-005
-1.639098e-004,1.219734e-004
-1.054042e-004,1.446626e-004
-3.766092e-005,1.686482e-004
2.295151e-005,1.939304e-004
6.914012e-005,2.154851e-004
1.005808e-004,2.281262e-004
1.203528e-004,2.318537e-004
1.331559e-004,2.302331e-004
1.386662e-004,2.247229e-004
1.302388e-004,2.179161e-004
1.130598e-004,2.154851e-004
9.912221e-005,2.221298e-004
8.956036e-005,2.384984e-004
7.465034e-005,2.619979e-004
4.288554e-005,2.924662e-004
-5.734056e-006,3.271482e-004
-5.678463e-005,3.577785e-004
-9.292520e-005,3.790091e-004
-1.071869e-004,3.888950e-004
-9.973194e-005,3.898674e-004
-7.380149e-005,3.840331e-004
-3.685060e-005,3.717161e-004
-6.176923e-008,3.538890e-004
2.975825e-005,3.294171e-004
4.904402e-005,2.983005e-004
5.860588e-005,2.616738e-004
6.087479e-005,2.214815e-004
5.536457e-005,1.820997e-004
4.936815e-005,1.513072e-004
5.439218e-005,1.269974e-004
7.594687e-005,1.047945e-004
1.145184e-004,8.048470e-005
1.590864e-004,5.179914e-005
1.906891e-004,2.052053e-005
1.973338e-004,-1.010982e-005
1.749688e-004,-3.798505e-005
1.313732e-004,-6.488790e-005
8.080883e-005,-9.179074e-005
3.769945e-005,-1.131834e-004
5.934648e-006,-1.259865e-004
-1.416145e-005,-1.368449e-004
-2.242678e-005,-1.525652e-004
-1.837515e-005,-1.750923e-004
-2.978945e-006,-2.037779e-004
1.355172e-005,-2.373254e-004
1.987227e-005,-2.716832e-004
9.500085e-006,-3.019894e-004
-1.643037e-005,-3.232200e-004
-5.386745e-005,-3.361852e-004
-9.827335e-005,-3.450988e-004
-1.418689e-004,-3.546606e-004
-1.760647e-004,-3.658432e-004
-1.945401e-004,-3.762153e-004
-1.951884e-004,-3.833462e-004
-1.734716e-004,-3.843186e-004
-1.318209e-004,-3.801049e-004
-7.623246e-005,-3.736223e-004
-1.918548e-005,-3.679500e-004
2.214118e-005,-3.640605e-004
3.478228e-005,-3.611433e-004
1.598270e-005,-3.556330e-004
-2.826114e-005,-3.462333e-004
-8.384954e-005,-3.352128e-004
-1.350622e-004,-3.243544e-004
-1.639098e-004,-3.136581e-004
-1.588858e-004,-3.044204e-004
-1.243659e-004,-2.955068e-004
-6.991193e-005,-2.818933e-004
-1.124428e-005,-2.605007e-004
4.142696e-005,-2.311669e-004
9.037068e-005,-1.947022e-004
1.360731e-004,-1.524032e-004
1.778860e-004,-1.036215e-004
2.073819e-004,-4.981582e-005
2.106232e-004,4.962256e-006
1.809652e-004,5.504044e-005
1.304008e-004,9.393612e-005
8.388807e-005,1.245665e-004
6.330578e-005,1.498487e-004
7.027458e-005,1.746447e-004
8.550872e-005,2.018716e-004
8.858796e-005,2.308813e-004
7.092284e-005,2.641047e-004
3.834771e-005,3.038107e-004
-2.238346e-007,3.464339e-004
-3.458168e-005,3.846814e-004
-5.743289e-005,4.123946e-004
-6.197072e-005,4.294114e-004
-4.868137e-005,4.414042e-004
-2.437157e-005,4.511282e-004
4.244267e-007,4.618245e-004
1.938607e-005,4.773828e-004
3.121684e-005,4.953720e-004
4.450620e-005,5.122268e-004
6.525056e-005,5.247059e-004
8.891209e-005,5.302161e-004
1.096565e-004,5.258403e-004
1.205148e-004,5.109303e-004
1.098185e-004,4.914824e-004
7.610894e-005,4.733311e-004
2.586868e-005,4.598797e-004
-2.096820e-005,4.540453e-004
-4.398147e-005,4.545315e-004
-2.955766e-005,4.585832e-004
2.084466e-005,4.597176e-004
8.923623e-005,4.521006e-004
1.504969e-004,4.308700e-004
1.830721e-004,3.955397e-004
1.874478e-004,3.509718e-004
1.790204e-004,3.028383e-004
1.799928e-004,2.590807e-004
2.026820e-004,2.239125e-004
2.420638e-004,1.947408e-004
2.739907e-004,1.668655e-004
2.705873e-004,1.389903e-004
2.049509e-004,1.106288e-004
7.254349e-005,8.599492e-005
-9.892161e-005,6.265751e-005
-2.609869e-004,4.158902e-005
-3.724878e-004,1.873781e-005
-4.121938e-004,-1.173047e-005
-3.857772e-004,-5.143648e-005
-3.112272e-004,-1.041077e-004
-2.099363e-004,-1.684476e-004
-1.086455e-004,-2.366771e-004
-1.999580e-005,-2.987481e-004
4.985435e-005,-3.499608e-004
9.685330e-005,-3.875599e-004
1.271595e-004,-4.102490e-004
1.519555e-004,-4.186764e-004
1.788584e-004,-4.105732e-004
2.034923e-004,-3.873979e-004
2.182402e-004,-3.551469e-004
2.182402e-004,-3.219235e-004
2.030061e-004,-2.961551e-004
1.697827e-004,-2.848105e-004
1.182459e-004,-2.864312e-004
5.179914e-005,-2.943724e-004
-1.594417e-005,-3.044204e-004
-6.197072e-005,-3.131719e-004
-7.185670e-005,-3.177098e-004
-4.884343e-005,-3.136581e-004
-6.868513e-006,-3.002067e-004
4.207521e-005,-2.814071e-004
9.344993e-005,-2.622834e-004
1.511452e-004,-2.454286e-004
2.104611e-004,-2.287359e-004
2.555152e-004,-2.092881e-004
2.670219e-004,-1.838438e-004
2.240746e-004,-1.533756e-004
1.148425e-004,-1.175591e-004
-4.592625e-005,-7.704279e-005
-2.075054e-004,-3.668853e-005
-3.121996e-004,-1.196227e-006
-3.259751e-004,2.651694e-005
-2.553146e-004,4.077869e-005
-1.392759e-004,4.855783e-005
-3.150244e-005,5.730935e-005
2.943412e-005,7.221937e-005
3.154097e-005,9.539470e-005
-1.626830e-005,1.200286e-004
-9.762509e-005,1.409351e-004
-1.945401e-004,1.594105e-004
-2.929138e-004,1.785342e-004
-3.820497e-004,1.979821e-004
-4.459034e-004,2.140265e-004
-4.711856e-004,2.260194e-004
-4.507654e-004,2.302331e-004
-3.898288e-004,2.300710e-004
-3.097686e-004,2.342847e-004
-2.303566e-004,2.470879e-004
-1.656925e-004,2.670219e-004
-1.193418e-004,2.887387e-004
-8.741498e-005,3.062417e-004
-6.197072e-005,3.153174e-004
-4.317115e-005,3.208276e-004
-3.458168e-005,3.264999e-004
-3.328516e-005,3.310377e-004
-3.360929e-005,3.318480e-004
-3.004385e-005,3.239069e-004
-1.351319e-005,3.060797e-004
1.954813e-005,2.751252e-004
6.411610e-005,2.352571e-004
1.093323e-004,1.931201e-004
1.485521e-004,1.551968e-004
1.769136e-004,1.252147e-004
1.914995e-004,1.030118e-004
1.966855e-004,8.583286e-005
2.013854e-004,6.881599e-005
2.115956e-004,5.001642e-005
2.303951e-004,2.716521e-005
2.535705e-004,9.106227e-007
2.717218e-004,-2.501983e-005
2.791768e-004,-4.851930e-005
2.777182e-004,-6.699475e-005
2.713977e-004,-8.320128e-005
2.688046e-004,-1.002181e-004
2.723701e-004,-1.201522e-004
2.796630e-004,-1.394379e-004
2.872801e-004,-1.558065e-004
2.908455e-004,-1.676373e-004
2.892249e-004,-1.757406e-004
2.801492e-004,-1.814128e-004
2.637806e-004,-1.853024e-004
2.423880e-004,-1.848162e-004
2.171058e-004,-1.827094e-004
1.919856e-004,-1.838438e-004
1.733481e-004,-1.891920e-004
1.628139e-004,-1.916230e-004
1.534141e-004,-1.882196e-004
1.415833e-004,-1.781716e-004
1.338042e-004,-1.669890e-004
1.380179e-004,-1.554824e-004
1.584381e-004,-1.400862e-004
1.916615e-004,-1.186936e-004
2.243987e-004,-9.470791e-005
2.449810e-004,-6.991193e-005
2.453052e-004,-4.608832e-005
2.222919e-004,-2.501983e-005
1.848548e-004,-7.354709e-006
1.436902e-004,3.017472e-006
9.928428e-005,2.855407e-006
3.802358e-005,-9.947754e-006
-5.435365e-005,-3.328516e-005
-1.812508e-004,-6.018800e-005
-3.269475e-004,-8.563225e-005
-4.630823e-004,-1.065387e-004
-5.569181e-004,-1.191798e-004
-5.935449e-004,-1.222590e-004
-5.825245e-004,-1.196660e-004
-5.348772e-004,-1.099421e-004
-4.554653e-004,-9.098041e-005
-3.483401e-004,-6.326724e-005
-2.238740e-004,-3.053005e-005
-9.892161e-005,7.485573e-007
7.879432e-006,2.473423e-005
8.259155e-005,3.932010e-005
1.255389e-004,4.742337e-005
1.457970e-004,5.115087e-005
1.543865e-004,5.082674e-005
1.603829e-004,4.969229e-005
1.728619e-004,5.212327e-005
1.931201e-004,5.941620e-005
2.159713e-004,7.302970e-005
2.287745e-004,9.037068e-005
2.133783e-004,1.059290e-004
1.581140e-004,1.171115e-004
6.200925e-005,1.211631e-004
-5.905355e-005,1.205148e-004
-1.731475e-004,1.208390e-004
-2.473734e-004,1.224596e-004
-2.648765e-004,1.244044e-004
-2.339220e-004,1.257009e-004
-1.749302e-004,1.273216e-004
-1.086455e-004,1.276457e-004
-4.576419e-005,1.291043e-004
1.160693e-005,1.313732e-004
6.233338e-005,1.310491e-004
1.056048e-004,1.268354e-004
1.381800e-004,1.179218e-004
1.595726e-004,1.054428e-004
1.697827e-004,9.523264e-005
1.689724e-004,9.037068e-005
1.584381e-004,8.858796e-005
1.443384e-004,8.696731e-005
1.300767e-004,8.729144e-005
1.208390e-004,8.907416e-005
1.195424e-004,8.664318e-005
1.227837e-004,7.562274e-005
1.271595e-004,5.520250e-005
1.334801e-004,3.170304e-005
1.414213e-004,1.322759e-005
1.433661e-004,1.883015e-006
1.255389e-004,-6.176923e-008
7.302970e-005,5.286387e-006
-2.210265e-005,1.419998e-005
-1.475412e-004,2.165498e-005
-2.664971e-004,2.992031e-005
-3.485022e-004,4.304761e-005
-3.929081e-004,6.217132e-005
-4.079801e-004,8.583286e-005
-4.057112e-004,1.098185e-004
-3.992286e-004,1.263492e-004
-3.958252e-004,1.250527e-004
-3.948528e-004,1.081979e-004
-3.938804e-004,8.486046e-005
-3.861013e-004,6.022653e-005
-3.617915e-004,3.672706e-005
-3.149546e-004,1.079661e-005
-2.485079e-004,-1.562004e-005
-1.760647e-004,-4.171256e-005
-1.060525e-004,-6.310517e-005
-4.560212e-005,-7.769106e-005
3.827799e-006,-8.287715e-005
4.077869e-005,-8.287715e-005
6.314371e-005,-8.287715e-005
7.351589e-005,-8.401160e-005
7.610894e-005,-8.547019e-005
7.740546e-005,-8.806324e-005
8.534666e-005,-9.227693e-005
9.960841e-005,-9.568031e-005
1.172735e-004,-9.649064e-005
1.381800e-004,-9.162867e-005
1.654069e-004,-8.093236e-005
2.041406e-004,-6.537409e-005
2.558394e-004,-4.754691e-005
3.070520e-004,-3.069211e-005
3.393030e-004,-2.194059e-005
3.457857e-004,-1.902341e-005
3.290929e-004,-1.529591e-005
2.971661e-004,-4.923729e-006
2.613496e-004,1.241726e-005
2.341226e-004,3.413401e-005
2.232643e-004,5.487838e-005
2.271538e-004,6.849186e-005
2.440086e-004,7.351589e-005
2.652392e-004,7.205730e-005
2.825802e-004,6.914012e-005
2.944109e-004,6.978839e-005
3.020280e-004,7.513654e-005
2.968419e-004,8.194328e-005
2.681563e-004,8.972242e-005
2.119197e-004,9.896015e-005
1.420695e-004,1.132219e-004
8.016057e-005,1.326697e-004
4.499239e-005,1.547106e-004
4.223728e-005,1.715654e-004
6.395404e-005,1.795066e-004
8.956036e-005,1.801549e-004
9.555677e-005,1.741585e-004
7.675720e-005,1.660552e-004
4.466826e-005,1.571416e-004
1.257933e-005,1.472556e-004
-2.006553e-006,1.370455e-004
5.864920e-007,1.274836e-004
1.646890e-005,1.203528e-004
3.883391e-005,1.153287e-004
6.525056e-005,1.098185e-004
9.733949e-005,1.018773e-004
1.351007e-004,9.377406e-005
1.725378e-004,8.988449e-005
1.937684e-004,9.215340e-005
1.892305e-004,9.652917e-005
1.615174e-004,9.652917e-005
1.192183e-004,9.037068e-005
6.719535e-005,8.016057e-005
5.124321e-006,7.011252e-005
-6.083626e-005,6.346784e-005
-1.165867e-004,5.893001e-005
-1.494860e-004,5.358185e-005
-1.554824e-004,4.920609e-005
-1.442999e-004,4.758544e-005
-1.253383e-004,4.774750e-005
-1.008664e-004,4.628891e-005
-7.250496e-005,4.142696e-005
-4.057810e-005,2.943412e-005
-1.189254e-005,9.175954e-006
9.662150e-006,-1.335113e-005
2.489629e-005,-3.863332e-005
2.992031e-005,-6.488790e-005
2.846173e-005,-9.130454e-005
2.019640e-005,-1.144799e-004
7.879432e-006,-1.357104e-004
-9.137427e-006,-1.571031e-004
-3.247483e-005,-1.786577e-004
-5.937768e-005,-1.992400e-004
-8.595638e-005,-2.164190e-004
-1.146419e-004,-2.284118e-004
-1.507825e-004,-2.321393e-004
-1.968091e-004,-2.259808e-004
-2.404046e-004,-2.115570e-004
-2.658489e-004,-1.940539e-004
-2.611490e-004,-1.767130e-004
-2.293842e-004,-1.596961e-004
-1.804405e-004,-1.449482e-004
-1.282554e-004,-1.326312e-004
-7.801519e-005,-1.214487e-004
-3.117831e-005,-1.109144e-004
9.500085e-006,-1.031353e-004
3.413401e-005,-9.778715e-005
3.478228e-005,-9.665270e-005
1.193106e-005,-9.956988e-005
-2.712668e-005,-1.071869e-004
-7.542214e-005,-1.118868e-004
-1.208004e-004,-1.058904e-004
-1.483515e-004,-8.514606e-005
-1.506204e-004,-5.597430e-005
-1.289037e-004,-2.583016e-005
-9.616651e-005,-2.816880e-006
-6.634648e-005,1.338965e-005
-4.868137e-005,2.878586e-005
-4.025397e-005,4.855783e-005
-3.490581e-005,7.221937e-005
-2.404744e-005,9.523264e-005
3.665733e-006,1.114392e-004
5.455425e-005,1.227837e-004
1.211631e-004,1.333180e-004
1.822617e-004,1.446626e-004
2.137024e-004,1.561692e-004
2.043026e-004,1.634622e-004
1.581140e-004,1.654069e-004
8.939829e-005,1.665414e-004
1.371378e-005,1.718896e-004
-5.532604e-005,1.872858e-004
-1.065387e-004,2.107852e-004
-1.339277e-004,2.334744e-004
-1.357104e-004,2.498430e-004
-1.128592e-004,2.590807e-004
-7.072225e-005,2.634565e-004
-1.967167e-005,2.696149e-004
2.862379e-005,2.777182e-004
6.492643e-005,2.829043e-004
8.712937e-005,2.837146e-004
9.879808e-005,2.809595e-004
1.041462e-004,2.786906e-004
1.103047e-004,2.769079e-004
1.242423e-004,2.736666e-004
1.433661e-004,2.699391e-004
1.597346e-004,2.666978e-004
1.620036e-004,2.644289e-004
1.496866e-004,2.587566e-004
1.234320e-004,2.436845e-004
8.615699e-005,2.190506e-004
4.709924e-005,1.906891e-004
1.095867e-005,1.618415e-004
-1.934754e-005,1.351007e-004
-4.057810e-005,1.128978e-004
-4.462973e-005,9.588091e-005
-2.777494e-005,7.935024e-005
6.582909e-006,6.184718e-005
4.077869e-005,4.029250e-005
5.633696e-005,1.436204e-005
4.418206e-005,-1.578211e-005
1.193106e-005,-4.851930e-005
-2.534396e-005,-7.866345e-005
-5.451572e-005,-1.034594e-004
-6.715681e-005,-1.209625e-004
-6.035007e-005,-1.295519e-004
-3.522994e-005,-1.267968e-004
9.106227e-007,-1.162626e-004
4.207521e-005,-1.062146e-004
8.502253e-005,-1.055663e-004
1.179218e-004,-1.148040e-004
1.321835e-004,-1.324691e-004
1.292664e-004,-1.551583e-004
1.111150e-004,-1.781716e-004
8.972242e-005,-1.940539e-004
7.011252e-005,-1.959987e-004
5.795762e-005,-1.851404e-004
5.941620e-005,-1.681235e-004
8.016057e-005,-1.533756e-004
1.148425e-004,-1.436516e-004
1.561692e-004,-1.361966e-004
1.929580e-004,-1.308485e-004
2.112714e-004,-1.272830e-004
1.960373e-004,-1.235555e-004
1.461212e-004,-1.139937e-004
7.691926e-005,-9.730096e-005
5.934648e-006,-7.979791e-005
-5.548811e-005,-6.423963e-005
-1.044318e-004,-5.321920e-005
-1.368449e-004,-4.851930e-005
-1.532135e-004,-5.565017e-005
-1.546721e-004,-6.926366e-005
-1.378173e-004,-8.320128e-005
-1.029732e-004,-9.017008e-005
-5.548811e-005,-9.033215e-005
-6.544382e-006,-9.000802e-005
3.332369e-005,-9.308726e-005
5.714729e-005,-9.875954e-005
6.006447e-005,-1.021629e-004
4.320967e-005,-1.008664e-004
1.209313e-005,-9.584238e-005
-2.275091e-005,-8.952183e-005
-4.576419e-005,-8.336335e-005
-4.527799e-005,-7.995997e-005
-2.356124e-005,-7.898758e-005
1.549650e-005,-8.028410e-005
6.314371e-005,-8.401160e-005
1.033359e-004,-8.822530e-005
1.201907e-004,-9.146661e-005
1.070634e-004,-9.373552e-005
7.157111e-005,-9.114248e-005
3.089271e-005,-7.769106e-005
9.106227e-007,-5.662256e-005
-4.761664e-006,-3.474375e-005
1.987227e-005,-1.448558e-005
6.492643e-005,7.485573e-007
1.047945e-004,1.501031e-005
1.127357e-004,2.700314e-005
8.599492e-005,4.094075e-005
4.483033e-005,5.828175e-005
2.651694e-005,7.465034e-005
5.520250e-005,8.550872e-005
1.312112e-004,9.166720e-005
2.380122e-004,9.442231e-005
3.444891e-004,9.750156e-005
4.114222e-004,1.023635e-004
4.002396e-004,1.135460e-004
2.877662e-004,1.334801e-004
8.988449e-005,1.626518e-004
-1.397621e-004,1.961994e-004
-3.410472e-004,2.255332e-004
-4.760476e-004,2.487085e-004
-5.360117e-004,2.663737e-004
-5.309877e-004,2.812837e-004
-4.823681e-004,2.991108e-004
-4.102490e-004,3.140208e-004
-3.233821e-004,3.182346e-004
-2.305186e-004,3.041349e-004
-1.389517e-004,2.728562e-004
-5.581224e-005,2.316917e-004
8.851824e-006,1.892305e-004
4.888196e-005,1.545486e-004
6.249545e-005,1.359110e-004
4.839576e-005,1.316974e-004
1.711715e-005,1.360731e-004
-1.902341e-005,1.456350e-004
-5.176061e-005,1.532520e-004
-7.461182e-005,1.513072e-004
-8.028410e-005,1.422316e-004
-5.338126e-005,1.263492e-004
8.851824e-006,1.036600e-004
8.405014e-005,7.610894e-005
1.435281e-004,5.050261e-005
1.744826e-004,3.024445e-005
1.858272e-004,1.436204e-005
1.949028e-004,1.396819e-006
2.127300e-004,-8.165035e-006
2.410915e-004,-1.675450e-005
2.775562e-004,-2.534396e-005
3.193690e-004,-3.587821e-005
3.613439e-004,-4.754691e-005
3.955397e-004,-6.197072e-005
4.130428e-004,-7.866345e-005
4.051016e-004,-9.486997e-005
3.692851e-004,-1.092938e-004
3.109416e-004,-1.227452e-004
2.466017e-004,-1.386276e-004
1.934442e-004,-1.567789e-004
1.611932e-004,-1.742820e-004
1.508211e-004,-1.869231e-004
1.532520e-004,-1.909747e-004
1.451488e-004,-1.875713e-004
9.393612e-005,-1.780095e-004
-1.399939e-005,-1.574272e-004
-1.543479e-004,-1.225832e-004
-2.822175e-004,-7.817725e-005
-3.598467e-004,-3.393342e-005
-3.784843e-004,9.106227e-007
-3.566054e-004,2.343770e-005
-3.212752e-004,3.705119e-005
-2.904828e-004,4.774750e-005
-2.703867e-004,5.730935e-005
-2.692523e-004,6.865393e-005
-3.021515e-004,8.097089e-005
-3.736223e-004,9.134307e-005
-4.496309e-004,9.604298e-005
-4.698891e-004,8.664318e-005
-3.951770e-004,6.525056e-005
-2.373254e-004,3.883391e-005
-4.949169e-005,1.922400e-005
1.143563e-004,1.582063e-005
2.252090e-004,3.283749e-005
2.803113e-004,6.622294e-005
2.970040e-004,9.960841e-005
2.952213e-004,1.231079e-004
2.914938e-004,1.391524e-004
2.961937e-004,1.560072e-004
3.038107e-004,1.733481e-004
3.007315e-004,1.906891e-004
2.765838e-004,2.052750e-004
2.149989e-004,2.132162e-004
1.159770e-004,2.156472e-004
4.151929e-006,2.124059e-004
-9.033215e-005,2.043026e-004
-1.485136e-004,1.955511e-004
-1.762268e-004,1.902029e-004
-1.932436e-004,1.903650e-004
-2.078295e-004,1.961994e-004
-2.136638e-004,2.031682e-004
-1.990780e-004,2.078681e-004
-1.637477e-004,2.091646e-004
-1.212866e-004,2.033302e-004
-8.384954e-005,1.895547e-004
-6.099833e-005,1.692965e-004
-6.440170e-005,1.462832e-004
-9.843541e-005,1.244044e-004
-1.506204e-004,1.034980e-004
-2.000504e-004,8.242948e-005
-2.243602e-004,5.763349e-005
-2.089640e-004,3.024445e-005
-1.536997e-004,4.800190e-006
-7.655660e-005,-1.432352e-005
-3.858999e-007,-2.631635e-005
5.390598e-005,-3.522994e-005
8.502253e-005,-4.398147e-005
1.077117e-004,-5.500191e-005
1.370455e-004,-6.553616e-005
1.772377e-004,-7.315322e-005
2.221298e-004,-7.898758e-005
2.566497e-004,-8.806324e-005
2.762596e-004,-1.034594e-004
2.905214e-004,-1.250141e-004
3.065659e-004,-1.504584e-004
3.277964e-004,-1.757406e-004
3.555096e-004,-1.942160e-004
3.922984e-004,-2.019951e-004
4.352458e-004,-1.995642e-004
4.809482e-004,-1.927574e-004
5.185474e-004,-1.877334e-004
5.336195e-004,-1.875713e-004
5.178991e-004,-1.940539e-004
4.760863e-004,-2.039399e-004
4.237391e-004,-2.123673e-004
3.726885e-004,-2.115570e-004
3.219621e-004,-1.979435e-004
2.498430e-004,-1.734716e-004
1.323456e-004,-1.481895e-004
-3.668853e-005,-1.311726e-004
-2.413770e-004,-1.269589e-004
-4.450931e-004,-1.326312e-004
-6.050515e-004,-1.361966e-004
-6.857601e-004,-1.277692e-004
-6.757120e-004,-1.102662e-004
-5.904656e-004,-9.405965e-005
-4.643789e-004,-8.628052e-005
-3.379679e-004,-8.628052e-005
-2.361909e-004,-8.903562e-005
-1.702304e-004,-8.676672e-005
-1.363587e-004,-7.736692e-005
-1.227452e-004,-6.099833e-005
-1.101041e-004,-3.652646e-005
-8.773911e-005,-7.678839e-006
-4.965376e-005,2.262738e-005
2.855407e-006,4.936815e-005
5.601284e-005,6.670914e-005
8.777764e-005,7.351589e-005
8.696731e-005,7.108491e-005
6.119892e-005,6.136099e-005
3.040651e-005,5.098881e-005
9.824215e-006,4.936815e-005
9.106227e-007,5.811968e-005
7.231170e-006,7.238143e-005
3.267542e-005,9.020862e-005
7.400208e-005,1.112771e-004
1.219734e-004,1.362352e-004
1.730240e-004,1.629760e-004
2.290986e-004,1.879340e-004
2.903593e-004,2.072198e-004
3.501615e-004,2.209954e-004
3.965121e-004,2.284504e-004
4.179048e-004,2.307193e-004
4.072085e-004,2.286124e-004
3.602095e-004,2.221298e-004
2.759355e-004,2.112714e-004
1.701068e-004,2.005751e-004
6.930219e-005,1.958752e-004
-3.303076e-006,1.976579e-004
-3.555408e-005,2.018716e-004
-3.247483e-005,2.033302e-004
-9.137427e-006,2.013854e-004
2.538249e-005,1.966855e-004
6.492643e-005,1.869616e-004
1.023635e-004,1.733481e-004
1.263492e-004,1.623277e-004
1.278078e-004,1.532520e-004
1.005808e-004,1.466074e-004
4.369587e-005,1.446626e-004
-3.085418e-005,1.448246e-004
-1.010285e-004,1.415833e-004
-1.528894e-004,1.287802e-004
-1.815749e-004,1.075496e-004
-1.883817e-004,7.756752e-005
-1.841680e-004,4.320967e-005
-1.780095e-004,1.452411e-005
-1.747682e-004,-8.720959e-007
-1.809267e-004,-5.571990e-006
-1.958367e-004,-6.382317e-006
-2.050744e-004,-8.002969e-006
-1.846542e-004,-1.302700e-005
-1.135075e-004,-2.437157e-005
6.258778e-006,-4.641245e-005
1.410971e-004,-7.963584e-005
2.410915e-004,-1.198280e-004
2.688046e-004,-1.632615e-004
2.167816e-004,-2.010227e-004
1.172735e-004,-2.258187e-004
1.873781e-005,-2.339220e-004
-5.386745e-005,-2.316531e-004
-9.989401e-005,-2.258187e-004
-1.274451e-004,-2.233878e-004
-1.452723e-004,-2.272773e-004
-1.569410e-004,-2.323013e-004
-1.618029e-004,-2.301945e-004
-1.632615e-004,-2.199844e-004
-1.627754e-004,-2.034537e-004
-1.567789e-004,-1.851404e-004
-1.449482e-004,-1.665028e-004
-1.293899e-004,-1.483515e-004
-1.068628e-004,-1.272830e-004
-7.363943e-005,-1.037836e-004
-3.004385e-005,-8.174268e-005
1.517237e-005,-6.586029e-005
5.115087e-005,-5.483985e-005
6.800567e-005,-4.932962e-005
6.897806e-005,-4.689865e-005
6.038860e-005,-4.381940e-005
4.142696e-005,-3.863332e-005
1.290346e-005,-2.939559e-005
-1.869928e-005,-1.367526e-005
-3.830919e-005,4.962256e-006
-3.960571e-005,2.100672e-005
-3.198864e-005,2.910999e-005
-2.404744e-005,2.797553e-005
-1.837515e-005,2.441009e-005
-7.192643e-006,2.910999e-005
1.419998e-005,4.191315e-005
4.418206e-005,5.909208e-005
7.578480e-005,7.675720e-005
9.847395e-005,9.199134e-005
1.025256e-004,1.069013e-004
8.210535e-005,1.266733e-004
4.385793e-005,1.522796e-004
1.558884e-006,1.788584e-004
-2.858527e-005,2.028440e-004
-4.219875e-005,2.211574e-004
-4.462973e-005,2.329882e-004
-4.187462e-005,2.370398e-004
-3.377136e-005,2.363916e-004
-1.594417e-005,2.334744e-004
1.128280e-005,2.287745e-004
4.645098e-005,2.255332e-004
8.826383e-005,2.258573e-004
1.315353e-004,2.292607e-004
1.647587e-004,2.359054e-004
1.793446e-004,2.417397e-004
1.757791e-004,2.430362e-004
1.555210e-004,2.378501e-004
1.219734e-004,2.320158e-004
8.680524e-005,2.271538e-004
5.909208e-005,2.240746e-004
4.272347e-005,2.231022e-004
4.013043e-005,2.253711e-004
4.758544e-005,2.297469e-004
5.876794e-005,2.368777e-004
6.330578e-005,2.438466e-004
6.055066e-005,2.449810e-004
5.779555e-005,2.372019e-004
5.828175e-005,2.193747e-004
5.649903e-005,1.916615e-004
5.228533e-005,1.571416e-004
4.985435e-005,1.229458e-004
5.309566e-005,9.555677e-005
6.200925e-005,7.043665e-005
7.076078e-005,3.753739e-005
6.654708e-005,-8.002969e-006
3.948217e-005,-6.440170e-005
-8.165035e-006,-1.204763e-004
-5.613637e-005,-1.637477e-004
-8.563225e-005,-1.849783e-004
-8.822530e-005,-1.885437e-004
-6.618442e-005,-1.833576e-004
-3.474375e-005,-1.754164e-004
-8.651231e-006,-1.702304e-004
8.041497e-006,-1.700683e-004
1.906194e-005,-1.713648e-004
2.635488e-005,-1.741199e-004
3.202716e-005,-1.794681e-004
3.170304e-005,-1.869231e-004
2.214118e-005,-1.935677e-004
7.879432e-006,-2.028055e-004
-4.761664e-006,-2.193361e-004
-2.064406e-005,-2.434839e-004
-4.738484e-005,-2.713591e-004
-8.984595e-005,-2.976137e-004
-1.400862e-004,-3.175477e-004
-1.927574e-004,-3.311612e-004
-2.370013e-004,-3.420196e-004
-2.585559e-004,-3.514194e-004
-2.465631e-004,-3.569296e-004
-1.921092e-004,-3.548227e-004
-1.063766e-004,-3.425058e-004
-1.286493e-005,-3.167374e-004
6.427817e-005,-2.723315e-004
1.026876e-004,-2.083157e-004
9.782569e-005,-1.319829e-004
6.379197e-005,-5.370539e-005
2.376183e-005,2.052053e-005
-1.520357e-006,8.680524e-005
-2.168618e-006,1.420695e-004
2.538249e-005,1.866375e-004
8.275361e-005,2.167816e-004
1.626518e-004,2.315296e-004
2.433604e-004,2.310434e-004
2.981384e-004,2.205092e-004
3.117519e-004,2.099749e-004
2.793389e-004,2.077060e-004
2.088404e-004,2.128921e-004
1.101427e-004,2.234263e-004
-1.092015e-005,2.313675e-004
-1.373311e-004,2.368777e-004
-2.360289e-004,2.435224e-004
-2.771934e-004,2.545429e-004
-2.535319e-004,2.668598e-004
-1.804405e-004,2.801492e-004
-8.725291e-005,2.929524e-004
-2.654814e-006,3.046211e-004
5.730935e-005,3.151553e-004
9.426025e-005,3.200173e-004
1.175977e-004,3.183966e-004
1.341283e-004,3.119140e-004
1.417454e-004,3.018659e-004
1.404489e-004,2.911697e-004
1.347766e-004,2.819319e-004
1.276457e-004,2.777182e-004
1.159770e-004,2.764217e-004
9.458438e-005,2.722080e-004
6.800567e-005,2.608634e-004
5.050261e-005,2.404432e-004
5.552663e-005,2.154851e-004
8.372601e-005,1.931201e-004
1.279698e-004,1.743205e-004
1.811273e-004,1.558451e-004
2.248849e-004,1.334801e-004
2.412535e-004,1.069013e-004
2.271538e-004,8.064677e-005
1.808031e-004,6.022653e-005
1.090082e-004,4.402000e-005
2.748934e-005,2.522042e-005
-4.155049e-005,1.234753e-006
-8.320128e-005,-2.226472e-005
-9.438378e-005,-4.025397e-005
-7.963584e-005,-5.224680e-005
-5.111234e-005,-6.213279e-005
-3.020592e-005,-7.250496e-005
-2.874733e-005,-8.628052e-005
-3.944364e-005,-1.054042e-004
-4.317115e-005,-1.332795e-004
-3.150244e-005,-1.679614e-004
-2.654814e-006,-2.052365e-004
3.883391e-005,-2.357047e-004
8.534666e-005,-2.522354e-004
1.282940e-004,-2.577456e-004
1.595726e-004,-2.603387e-004
1.782101e-004,-2.652006e-004
1.867996e-004,-2.708729e-004
1.921477e-004,-2.739521e-004
1.961994e-004,-2.734659e-004
1.960373e-004,-2.686040e-004
1.903650e-004,-2.583939e-004
1.782101e-004,-2.420253e-004
1.598967e-004,-2.230636e-004
1.295905e-004,-2.029675e-004
7.562274e-005,-1.809267e-004
-1.027188e-005,-1.566169e-004
-1.229073e-004,-1.339277e-004
-2.489941e-004,-1.156143e-004
-3.585502e-004,-1.054042e-004
-4.110594e-004,-1.054042e-004
-3.754050e-004,-1.148040e-004
-2.577456e-004,-1.276072e-004
-9.632857e-005,-1.368449e-004
6.168512e-005,-1.386276e-004
1.827479e-004,-1.363587e-004
2.587566e-004,-1.363587e-004
2.961937e-004,-1.387897e-004
3.042970e-004,-1.426792e-004
2.866318e-004,-1.408965e-004
2.524360e-004,-1.319829e-004
2.090025e-004,-1.154523e-004
1.584381e-004,-9.843541e-005
9.296373e-005,-8.109443e-005
-5.896120e-006,-6.099833e-005
-1.532135e-004,-3.685060e-005
-3.309991e-004,-1.010982e-005
-4.911196e-004,1.403791e-005
-5.901415e-004,3.559260e-005
-6.086170e-004,5.682316e-005
-5.517320e-004,7.675720e-005
-4.361795e-004,9.717743e-005
-2.869174e-004,1.203528e-004
-1.353863e-004,1.443384e-004
-1.318906e-005,1.670276e-004
6.606088e-005,1.921477e-004
1.022015e-004,2.195368e-004
1.067393e-004,2.457913e-004
9.620504e-005,2.673460e-004
8.518459e-005,2.822560e-004
8.226741e-005,2.906835e-004
9.053275e-005,2.973281e-004
1.070634e-004,3.025142e-004
1.274836e-004,3.068900e-004
1.469315e-004,3.101313e-004
1.616794e-004,3.072141e-004
1.663793e-004,2.974902e-004
1.556830e-004,2.859836e-004
1.214872e-004,2.796630e-004
6.168512e-005,2.816078e-004
-1.902341e-005,2.901973e-004
-1.065387e-004,2.986247e-004
-1.823853e-004,3.057555e-004
-2.290601e-004,3.073762e-004
-2.376495e-004,3.013798e-004
-2.086398e-004,2.874421e-004
-1.507825e-004,2.657254e-004
-7.769106e-005,2.378501e-004
-5.571990e-006,2.051129e-004
5.244739e-005,1.691344e-004
8.972242e-005,1.334801e-004
1.075496e-004,9.863601e-005
1.141943e-004,6.395404e-005
1.175977e-004,3.380988e-005
1.201907e-004,1.338965e-005
1.188942e-004,-6.176923e-008
1.167873e-004,-1.140634e-005
1.269974e-004,-2.566809e-005
1.537382e-004,-4.057810e-005
1.880961e-004,-5.532604e-005
2.172679e-004,-6.861539e-005
2.312055e-004,-8.125649e-005
2.274780e-004,-9.146661e-005
2.051129e-004,-1.002181e-004
1.621656e-004,-1.088076e-004
9.896015e-005,-1.180453e-004
2.700314e-005,-1.280934e-004
-3.425755e-005,-1.339277e-004
-6.472583e-005,-1.319829e-004
-4.997789e-005,-1.237176e-004
8.365628e-006,-1.157764e-004
8.875003e-005,-1.136696e-004
1.545486e-004,-1.222590e-004
1.748067e-004,-1.381414e-004
1.402868e-004,-1.535376e-004
6.362991e-005,-1.600202e-004
-2.566809e-005,-1.585616e-004
-9.956988e-005,-1.524032e-004
-1.397621e-004,-1.438137e-004
-1.433275e-004,-1.342519e-004
-1.112386e-004,-1.279313e-004
-4.495386e-005,-1.282554e-004
4.936815e-005,-1.352242e-004
1.487142e-004,-1.465688e-004
2.271538e-004,-1.574272e-004
2.634565e-004,-1.622891e-004
2.534084e-004,-1.587237e-004
1.996027e-004,-1.472171e-004
1.141943e-004,-1.308485e-004
1.938607e-005,-1.131834e-004
-5.743289e-005,-9.324933e-005
-9.616651e-005,-7.023606e-005
-9.373552e-005,-4.203669e-005
-5.808115e-005,-8.813297e-006
2.855407e-006,2.230325e-005
7.675720e-005,4.434413e-005
1.454729e-004,5.779555e-005
1.897167e-004,6.525056e-005
1.965235e-004,7.302970e-005
1.645966e-004,8.599492e-005
1.031738e-004,1.039842e-004
2.846173e-005,1.229458e-004
-4.171256e-005,1.378558e-004
-8.806324e-005,1.454729e-004
-9.940781e-005,1.461212e-004
-7.866345e-005,1.420695e-004
-4.317115e-005,1.412592e-004
-8.489166e-006,1.485521e-004
1.241726e-005,1.611932e-004
1.468618e-005,1.769136e-004
4.476060e-006,1.927960e-004
-9.785688e-006,2.067336e-004
-2.372331e-005,2.148369e-004
-3.717473e-005,2.156472e-004
-4.916756e-005,2.112714e-004
-6.391550e-005,2.054371e-004
-8.012204e-005,2.013854e-004
-8.968389e-005,1.996027e-004
-8.044617e-005,2.038164e-004
-4.689865e-005,2.124059e-004
-1.520357e-006,2.172679e-004
4.288554e-005,2.141886e-004
7.708133e-005,2.059233e-004
8.842590e-005,1.953890e-004
6.411610e-005,1.827479e-004
5.934648e-006,1.714034e-004
-5.856735e-005,1.620036e-004
-9.924574e-005,1.519555e-004
-9.843541e-005,1.412592e-004
-5.808115e-005,1.321835e-004
3.017472e-006,1.240803e-004
5.277153e-005,1.148425e-004
7.189524e-005,9.944634e-005
5.844381e-005,7.562274e-005
2.651694e-005,4.434413e-005
-6.382317e-006,8.365628e-006
-2.842320e-005,-2.372331e-005
-3.685060e-005,-4.868137e-005
-4.090223e-005,-6.667062e-005
-5.694670e-005,-7.785312e-005
-7.931171e-005,-8.352541e-005
-9.114248e-005,-8.465986e-005
-7.752899e-005,-8.077030e-005
-3.733679e-005,-7.250496e-005
1.646890e-005,-6.553616e-005
6.719535e-005,-6.553616e-005
1.005808e-004,-7.137051e-005
1.164632e-004,-8.287715e-005
1.242423e-004,-9.908367e-005
1.318594e-004,-1.186936e-004
1.320215e-004,-1.394379e-004
1.143563e-004,-1.621271e-004
8.145709e-005,-1.862748e-004
4.045456e-005,-2.117191e-004
2.623614e-007,-2.395943e-004
-3.344723e-005,-2.671454e-004
-5.548811e-005,-2.869174e-004
-6.002594e-005,-2.912931e-004
-4.803310e-005,-2.770314e-004
-2.615429e-005,-2.528836e-004
-1.367526e-005,-2.271153e-004
-3.053005e-005,-2.047502e-004
-9.017008e-005,-1.870851e-004
-1.823853e-004,-1.726613e-004
-2.835140e-004,-1.580754e-004
-3.648708e-004,-1.407345e-004
-4.029561e-004,-1.193418e-004
-3.812394e-004,-9.616651e-005
-2.922655e-004,-7.250496e-005
-1.501342e-004,-4.722278e-005
9.986281e-006,-1.902341e-005
1.500107e-004,1.079661e-005
2.469258e-004,3.591673e-005
3.012177e-004,5.277153e-005
3.240689e-004,6.184718e-005
3.292550e-004,6.427817e-005
3.206656e-004,6.136099e-005
2.897111e-004,5.552663e-005
2.256952e-004,4.936815e-005
1.312112e-004,4.466826e-005
2.359977e-005,4.645098e-005
-7.526008e-005,5.990240e-005
-1.480274e-004,8.615699e-005
-1.823853e-004,1.195424e-004
-1.781716e-004,1.524417e-004
-1.454344e-004,1.761032e-004
-9.486997e-005,1.877720e-004
-4.365734e-005,1.916615e-004
-1.902341e-005,1.934442e-004
-4.171256e-005,1.942546e-004
-9.632857e-005,1.966855e-004
-1.425172e-004,1.996027e-004
-1.439758e-004,1.981441e-004
-9.503204e-005,1.848548e-004
-2.226472e-005,1.577899e-004
4.061663e-005,1.214872e-004
6.687121e-005,8.518459e-005
5.390598e-005,6.006447e-005
2.100672e-005,5.552663e-005
-7.030578e-006,7.756752e-005
-1.691656e-005,1.216493e-004
-6.382317e-006,1.767515e-004
2.052053e-005,2.310434e-004
5.552663e-005,2.748010e-004
8.891209e-005,3.013798e-004
1.151667e-004,3.119140e-004
1.359110e-004,3.109416e-004
1.574657e-004,3.054314e-004
1.835583e-004,2.991108e-004
2.125679e-004,2.924662e-004
2.414156e-004,2.832284e-004
2.600531e-004,2.663737e-004
2.608634e-004,2.388225e-004
2.433604e-004,2.015475e-004
2.117576e-004,1.616794e-004
1.715654e-004,1.245665e-004
1.315353e-004,9.344993e-005
9.879808e-005,6.881599e-005
7.853991e-005,5.050261e-005
7.400208e-005,3.948217e-005
8.210535e-005,3.559260e-005
9.944634e-005,3.559260e-005
1.208390e-004,3.251336e-005
1.367214e-004,1.938607e-005
1.376938e-004,-7.192643e-006
1.239182e-004,-4.495386e-005
9.766362e-005,-8.563225e-005
6.233338e-005,-1.203142e-004
2.894792e-005,-1.486757e-004
9.824215e-006,-1.747682e-004
1.193106e-005,-2.021572e-004
2.667901e-005,-2.310048e-004
3.769945e-005,-2.558008e-004
3.445814e-005,-2.726556e-004
1.679302e-005,-2.765452e-004
-1.034161e-006,-2.728177e-004
1.720949e-006,-2.705488e-004
3.526847e-005,-2.771934e-004
9.426025e-005,-2.917793e-004
1.529279e-004,-3.112272e-004
1.910133e-004,-3.288923e-004
2.101370e-004,-3.415334e-004
2.263435e-004,-3.496366e-004
2.525981e-004,-3.557951e-004
2.817699e-004,-3.616295e-004
2.919800e-004,-3.661673e-004
2.491947e-004,-3.635742e-004
1.242423e-004,-3.506090e-004
-7.412562e-005,-3.238683e-004
-2.825416e-004,-2.857829e-004
-4.228902e-004,-2.473734e-004
-4.408794e-004,-2.105846e-004
-3.358611e-004,-1.755785e-004
-1.574272e-004,-1.439758e-004
2.311357e-005,-1.144799e-004
1.485521e-004,-8.709085e-005
1.994406e-004,-6.440170e-005
1.851789e-004,-4.851930e-005
1.237561e-004,-3.474375e-005
2.667901e-005,-1.821308e-005
-9.422172e-005,-2.654814e-006
-2.276015e-004,9.013889e-006
-3.494746e-004,2.003433e-005
-4.298589e-004,3.818565e-005
-4.538446e-004,6.427817e-005
-4.262935e-004,8.907416e-005
-3.557951e-004,1.107909e-004
-2.545043e-004,1.316974e-004
-1.391138e-004,1.555210e-004
-3.425755e-005,1.824238e-004
3.980630e-005,2.133783e-004
7.043665e-005,2.485465e-004
6.168512e-005,2.846870e-004
3.040651e-005,3.161277e-004
-4.923729e-006,3.436788e-004
-3.344723e-005,3.720403e-004
-5.516398e-005,4.023465e-004
-7.639453e-005,4.342734e-004
-9.616651e-005,4.627969e-004
-1.042698e-004,4.822447e-004
-8.935975e-005,4.880791e-004
-4.835724e-005,4.783552e-004
1.306552e-005,4.576108e-004
8.032264e-005,4.333010e-004
1.359110e-004,4.088291e-004
1.681620e-004,3.845193e-004
1.697827e-004,3.649094e-004
1.422316e-004,3.504856e-004
9.669123e-005,3.399513e-004
5.115087e-005,3.261758e-004
2.084466e-005,3.033245e-004
1.614476e-005,2.723701e-004
4.223728e-005,2.399570e-004
9.490851e-005,2.094887e-004
1.650828e-004,1.806411e-004
2.386605e-004,1.496866e-004
3.025142e-004,1.180839e-004
3.508097e-004,8.988449e-005
3.846814e-004,6.995045e-005
4.028327e-004,5.666109e-005
3.903536e-004,4.483033e-005
3.313618e-004,2.343770e-005
2.185644e-004,-1.513384e-005
5.828175e-005,-6.326724e-005
-1.256624e-004,-1.047560e-004
-2.971275e-004,-1.311726e-004
-4.115456e-004,-1.415448e-004
-4.410415e-004,-1.404103e-004
-3.812394e-004,-1.353863e-004
-2.525595e-004,-1.267968e-004
-9.940781e-005,-1.159385e-004
3.089271e-005,-1.015147e-004
1.069013e-004,-8.773911e-005
1.190562e-004,-7.639453e-005
7.886404e-005,-7.250496e-005
8.527692e-006,-7.542214e-005
-7.056019e-005,-8.482193e-005
-1.407345e-004,-9.973194e-005
-1.862748e-004,-1.185315e-004
-2.100984e-004,-1.387897e-004
-2.222533e-004,-1.588858e-004
-2.284118e-004,-1.750923e-004
-2.188499e-004,-1.818991e-004
-1.720131e-004,-1.765509e-004
-7.574627e-005,-1.655305e-004
5.358185e-005,-1.566169e-004
1.765894e-004,-1.551583e-004
2.480603e-004,-1.556445e-004
2.438466e-004,-1.543479e-004
1.751309e-004,-1.509446e-004
6.768154e-005,-1.430034e-004
-4.900550e-005,-1.245279e-004
-1.449482e-004,-9.357346e-005
-1.943781e-004,-5.629844e-005
-1.877334e-004,-2.145439e-005
-1.313347e-004,7.231170e-006
-4.106429e-005,2.943412e-005
5.585077e-005,4.483033e-005
1.300767e-004,5.536457e-005
1.629760e-004,5.990240e-005
1.501728e-004,6.055066e-005
9.879808e-005,6.200925e-005
2.570662e-005,6.703327e-005
-4.868137e-005,7.432621e-005
-1.049180e-004,8.016057e-005
-1.298761e-004,8.259155e-005
-1.120489e-004,8.226741e-005
-4.479180e-005,7.513654e-005
6.638502e-005,6.119892e-005
1.994406e-004,4.077869e-005
3.179104e-004,1.679302e-005
3.731747e-004,-3.303076e-006
3.415720e-004,-1.237873e-005
2.407673e-004,-4.599598e-006
1.179218e-004,2.116879e-005
1.403791e-005,6.022653e-005
-5.678463e-005,1.041462e-004
-8.595638e-005,1.462832e-004
-6.991193e-005,1.795066e-004
-1.286493e-005,2.004130e-004
6.541262e-005,2.101370e-004
1.354248e-004,2.137024e-004
1.689724e-004,2.162954e-004
1.586002e-004,2.164575e-004
1.172735e-004,2.115956e-004
6.816773e-005,1.986303e-004
2.311357e-005,1.749688e-004
-1.302700e-005,1.474177e-004
-3.766092e-005,1.206769e-004
-4.527799e-005,9.669123e-005
-3.474375e-005,7.416415e-005
-5.734056e-006,5.179914e-005
3.218923e-005,3.218923e-005
5.925414e-005,1.306552e-005
6.136099e-005,-3.789272e-006
4.855783e-005,-1.756482e-005
4.628891e-005,-2.664048e-005
6.865393e-005,-2.971972e-005
1.107909e-004,-3.053005e-005
1.586002e-004,-3.296103e-005
1.940925e-004,-3.863332e-005
1.999268e-004,-4.365734e-005
1.777239e-004,-4.916756e-005
1.415833e-004,-5.921561e-005
1.114392e-004,-8.109443e-005
9.685330e-005,-1.143178e-004
9.150514e-005,-1.553203e-004
7.918817e-005,-1.903264e-004
3.948217e-005,-2.105846e-004
-3.895745e-005,-2.130156e-004
-1.430034e-004,-2.016710e-004
-2.431597e-004,-1.838438e-004
-3.079858e-004,-1.673132e-004
-3.134961e-004,-1.561307e-004
-2.577456e-004,-1.499722e-004
-1.582375e-004,-1.468929e-004
-4.041603e-005,-1.485136e-004
6.914012e-005,-1.532135e-004
1.537382e-004,-1.585616e-004
2.072198e-004,-1.605064e-004
2.297469e-004,-1.562927e-004
2.266676e-004,-1.472171e-004
2.017096e-004,-1.363587e-004
1.668655e-004,-1.264727e-004
1.376938e-004,-1.206384e-004
1.117633e-004,-1.154523e-004
7.708133e-005,-1.117248e-004
2.846173e-005,-1.120489e-004
-2.258885e-005,-1.167488e-004
-5.419158e-005,-1.219349e-004
-6.035007e-005,-1.206384e-004
-5.743289e-005,-1.054042e-004
-6.699475e-005,-7.590833e-005
-9.405965e-005,-3.782299e-005
-1.219349e-004,-2.654814e-006
-1.323071e-004,2.197911e-005
-1.203142e-004,3.462021e-005
-9.535618e-005,4.045456e-005
-7.331530e-005,4.677511e-005
-6.180866e-005,5.552663e-005
-5.467778e-005,6.751948e-005
-4.009191e-005,8.129502e-005
-1.270286e-005,9.166720e-005
2.068259e-005,1.026876e-004
5.585077e-005,1.192183e-004
9.296373e-005,1.441764e-004
1.315353e-004,1.715654e-004
1.731861e-004,1.971717e-004
2.192126e-004,2.175920e-004
2.632944e-004,2.329882e-004
2.866318e-004,2.467637e-004
2.756114e-004,2.594049e-004
2.265056e-004,2.704253e-004
1.519555e-004,2.762596e-004
7.173317e-005,2.777182e-004
3.341602e-006,2.770700e-004
-4.608832e-005,2.752873e-004
-7.380149e-005,2.741528e-004
-8.401160e-005,2.749631e-004
-8.271508e-005,2.780424e-004
-7.315322e-005,2.796630e-004
-4.965376e-005,2.752873e-004
-1.707863e-005,2.621599e-004
8.689758e-006,2.425500e-004
1.760335e-005,2.201850e-004
4.962256e-006,1.983062e-004
-2.420950e-005,1.799928e-004
-5.629844e-005,1.650828e-004
-8.012204e-005,1.504969e-004
-9.049421e-005,1.355869e-004
-9.130454e-005,1.219734e-004
-8.352541e-005,1.081979e-004
-6.812920e-005,8.923623e-005
-4.803310e-005,6.589881e-005
-1.918548e-005,4.223728e-005
2.392390e-005,2.441009e-005
7.886404e-005,1.095867e-005
1.313732e-004,5.864920e-007
1.644345e-004,-7.354709e-006
1.658931e-004,-1.480971e-005
1.386662e-004,-2.485776e-005
9.620504e-005,-4.122636e-005
5.601284e-005,-6.602235e-005
2.927205e-005,-9.519411e-005
1.873781e-005,-1.229073e-004
2.116879e-005,-1.454344e-004
3.656499e-005,-1.643960e-004
6.038860e-005,-1.778474e-004
8.194328e-005,-1.874093e-004
8.534666e-005,-1.906506e-004
6.200925e-005,-1.891920e-004
1.436204e-005,-1.814128e-004
-5.127441e-005,-1.718510e-004
-1.292278e-004,-1.605064e-004
-2.083157e-004,-1.511067e-004
-2.733039e-004,-1.430034e-004
-3.105789e-004,-1.300382e-004
-3.131719e-004,-1.120489e-004
-2.869174e-004,-9.146661e-005
-2.397564e-004,-7.299116e-005
-1.833576e-004,-5.953974e-005
-1.271210e-004,-5.143648e-005
-7.315322e-005,-4.560212e-005
-2.858527e-005,-4.171256e-005
7.485573e-007,-3.944364e-005
1.257933e-005,-3.749886e-005
7.069105e-006,-3.506788e-005
-1.545797e-005,-3.036798e-005
-4.900550e-005,-2.307504e-005
-8.563225e-005,-1.318906e-005
-1.148040e-004,-5.479652e-007
-1.276072e-004,1.419998e-005
-1.242038e-004,2.684107e-005
-1.097800e-004,3.705119e-005
-8.838737e-005,4.564065e-005
-5.840528e-005,5.228533e-005
-2.031993e-005,6.006447e-005
2.311357e-005,7.108491e-005
6.816773e-005,8.550872e-005
1.124116e-004,1.002567e-004
1.483901e-004,1.124116e-004
1.696206e-004,1.187321e-004
1.764274e-004,1.175977e-004
1.730240e-004,1.138702e-004
1.681620e-004,1.130598e-004
1.715654e-004,1.185701e-004
1.885823e-004,1.315353e-004
2.174299e-004,1.495245e-004
2.530843e-004,1.688103e-004
2.871180e-004,1.825859e-004
3.081865e-004,1.850168e-004
3.098072e-004,1.746447e-004
2.939248e-004,1.537382e-004
2.739907e-004,1.310491e-004
2.639427e-004,1.130598e-004
2.645909e-004,1.031738e-004
2.658874e-004,9.993253e-005
2.534084e-004,9.912221e-005
2.172679e-004,1.013911e-004
1.592484e-004,1.054428e-004
9.328786e-005,1.099806e-004
3.170304e-005,1.119254e-004
-2.826114e-005,1.112771e-004
-9.956988e-005,1.101427e-004
-1.836818e-004,1.109530e-004
-2.593663e-004,1.164632e-004
-3.096065e-004,1.227837e-004
-3.303509e-004,1.282940e-004
-3.269475e-004,1.310491e-004
-3.117133e-004,1.274836e-004
-2.919414e-004,1.138702e-004
-2.716832e-004,9.215340e-005
-2.439701e-004,6.557468e-005
-2.041020e-004,3.818565e-005
-1.582375e-004,1.598270e-005
-1.162626e-004,-1.520357e-006
-8.854943e-005,-1.983374e-005
-8.514606e-005,-4.171256e-005
-1.083214e-004,-6.780507e-005
-1.391138e-004,-9.470791e-005
-1.483515e-004,-1.130213e-004
-1.131834e-004,-1.199901e-004
-3.344723e-005,-1.193418e-004
7.610894e-005,-1.177212e-004
1.895547e-004,-1.217728e-004
2.829043e-004,-1.314967e-004
3.397893e-004,-1.441378e-004
3.534027e-004,-1.580754e-004
3.235827e-004,-1.705545e-004
2.579462e-004,-1.746061e-004
1.702689e-004,-1.676373e-004
8.405014e-005,-1.540238e-004
2.359977e-005,-1.387897e-004
6.096713e-006,-1.251762e-004
3.105477e-005,-1.138316e-004
8.016057e-005,-1.020008e-004
1.323456e-004,-8.984595e-005
1.634622e-004,-8.465986e-005
1.613553e-004,-8.530812e-005
1.304008e-004,-9.000802e-005
8.729144e-005,-9.551824e-005
4.726130e-005,-9.811128e-005
1.144487e-005,-9.389759e-005
-2.874733e-005,-7.947377e-005
-8.579432e-005,-5.483985e-005
-1.643960e-004,-2.258885e-005
-2.543422e-004,1.338965e-005
-3.407231e-004,4.888196e-005
-4.112214e-004,8.469840e-005
-4.518998e-004,1.158149e-004
-4.570859e-004,1.410971e-004
-4.256453e-004,1.577899e-004
-3.532020e-004,1.663793e-004
-2.485079e-004,1.668655e-004
-1.284175e-004,1.600588e-004
-1.075808e-005,1.490383e-004
8.907416e-005,1.378558e-004
1.629760e-004,1.302388e-004
2.128921e-004,1.250527e-004
2.488706e-004,1.197045e-004
2.816078e-004,1.138702e-004
3.154794e-004,1.060910e-004
3.452995e-004,1.005808e-004
3.629646e-004,9.944634e-005
3.645853e-004,1.044704e-004
3.581026e-004,1.067393e-004
3.517821e-004,9.944634e-005
3.475684e-004,7.627100e-005
3.428685e-004,4.094075e-005
3.333067e-004,3.503668e-006
3.158036e-004,-2.420950e-005
2.851732e-004,-3.555408e-005
2.410915e-004,-2.874733e-005
1.963614e-004,-5.896120e-006
1.645966e-004,2.457216e-005
1.474177e-004,5.082674e-005
1.373696e-004,6.962632e-005
1.185701e-004,8.648112e-005
8.016057e-005,1.009049e-004
2.214118e-005,1.047945e-004
-3.911951e-005,9.377406e-005
-7.720486e-005,7.092284e-005
-7.866345e-005,4.790957e-005
-4.657452e-005,3.721326e-005
-5.479652e-007,4.288554e-005
4.320967e-005,5.568870e-005
7.772959e-005,6.525056e-005
8.988449e-005,6.525056e-005
6.395404e-005,5.682316e-005
-9.947754e-006,4.466826e-005
-1.243659e-004,3.283749e-005
-2.509389e-004,2.359977e-005
-3.544986e-004,1.582063e-005
-4.050630e-004,6.420843e-006
-3.870737e-004,-9.299493e-006
-3.045825e-004,-2.955766e-005
-1.794681e-004,-4.641245e-005
-4.041603e-005,-5.435365e-005
8.648112e-005,-4.738484e-005
1.872858e-004,-2.664048e-005
2.602152e-004,1.396819e-006
2.997591e-004,2.473423e-005
3.023522e-004,3.478228e-005
2.649151e-004,3.040651e-005
1.979821e-004,1.727922e-005
1.117633e-004,2.369211e-006
6.744974e-006,-9.623623e-006
-1.161005e-004,-1.837515e-005
-2.408908e-004,-2.064406e-005
-3.467195e-004,-1.562004e-005
-4.185144e-004,-6.058186e-006
-4.442827e-004,1.883015e-006
-4.173799e-004,4.244267e-007
-3.407231e-004,-9.785688e-006
-2.290601e-004,-2.113026e-005
-1.016767e-004,-3.182657e-005
2.311357e-005,-4.171256e-005
1.257009e-004,-5.013995e-005
1.864754e-004,-5.451572e-005
2.013854e-004,-5.694670e-005
1.850168e-004,-5.970181e-005
1.586002e-004,-6.261898e-005
1.359110e-004,-6.504996e-005
1.171115e-004,-6.521203e-005
9.814982e-005,-6.213279e-005
8.016057e-005,-5.727083e-005
7.173317e-005,-4.803310e-005
7.659513e-005,-3.101625e-005
8.761557e-005,-1.189254e-005
9.182927e-005,2.207145e-006
8.340187e-005,1.095867e-005
6.557468e-005,1.776542e-005
4.693717e-005,2.392390e-005
3.640293e-005,2.684107e-005
3.624086e-005,2.716521e-005
4.223728e-005,2.748934e-005
5.147500e-005,2.959619e-005
6.103686e-005,3.121684e-005
6.849186e-005,2.992031e-005
7.189524e-005,2.619281e-005
6.995045e-005,2.489629e-005
5.974033e-005,2.813760e-005
4.369587e-005,3.769945e-005
2.765140e-005,5.212327e-005
1.663096e-005,7.367795e-005
1.695509e-005,1.022015e-004
3.040651e-005,1.354248e-004
5.066468e-005,1.639484e-004
6.703327e-005,1.858272e-004
6.751948e-005,2.039785e-004
5.390598e-005,2.172679e-004
3.672706e-005,2.255332e-004
2.748934e-005,2.276400e-004
2.894792e-005,2.231022e-004
3.753739e-005,2.101370e-004
5.050261e-005,1.945787e-004
6.249545e-005,1.832341e-004
6.703327e-005,1.762653e-004
5.698522e-005,1.712413e-004
3.964424e-005,1.663793e-004
2.359977e-005,1.586002e-004
8.689758e-006,1.480659e-004
-7.678839e-006,1.362352e-004
-2.242678e-005,1.244044e-004
-3.036798e-005,1.143563e-004
-2.534396e-005,1.060910e-004
-2.978945e-006,1.009049e-004
3.380988e-005,1.012291e-004
7.481241e-005,1.064152e-004
1.106288e-004,1.078737e-004
1.304008e-004,1.020394e-004
1.295905e-004,8.664318e-005
1.146805e-004,6.589881e-005
9.426025e-005,4.239934e-005
7.189524e-005,1.808955e-005
5.131294e-005,-1.844488e-006
3.591673e-005,-1.464765e-005
2.538249e-005,-1.772689e-005
1.776542e-005,-1.318906e-005
1.225520e-005,-2.654814e-006
6.096713e-006,8.203562e-006
2.623614e-007,1.128280e-005
-5.479652e-007,2.855407e-006
4.476060e-006,-1.756482e-005
8.527692e-006,-4.608832e-005
-1.196227e-006,-7.736692e-005
-2.826114e-005,-1.091317e-004
-6.796714e-005,-1.386276e-004
-1.112386e-004,-1.585616e-004
-1.446240e-004,-1.687718e-004
-1.524032e-004,-1.741199e-004
-1.289037e-004,-1.827094e-004
-7.833932e-005,-1.992400e-004
-1.610624e-005,-2.220912e-004
3.850978e-005,-2.429977e-004
7.594687e-005,-2.556388e-004
9.020862e-005,-2.570974e-004
7.562274e-005,-2.470493e-004
2.505836e-005,-2.287359e-004
-6.148453e-005,-2.062088e-004
-1.665028e-004,-1.859507e-004
-2.509389e-004,-1.718510e-004
-2.765452e-004,-1.639098e-004
-2.382978e-004,-1.580754e-004
-1.754164e-004,-1.509446e-004
-1.386276e-004,-1.399241e-004
-1.533756e-004,-1.290658e-004
-2.188499e-004,-1.216107e-004
-3.123616e-004,-1.188556e-004
-4.026320e-004,-1.201522e-004
-4.567618e-004,-1.204763e-004
-4.512515e-004,-1.112386e-004
-3.830221e-004,-9.049421e-005
-2.707109e-004,-6.229485e-005
-1.442999e-004,-2.939559e-005
-3.474375e-005,5.772582e-006
4.628891e-005,3.899597e-005
9.993253e-005,6.930219e-005
1.339663e-004,9.393612e-005
1.548727e-004,1.112771e-004
1.642725e-004,1.211631e-004
1.608691e-004,1.245665e-004
1.440143e-004,1.261871e-004
1.205148e-004,1.325077e-004
1.039842e-004,1.474177e-004
1.067393e-004,1.696206e-004
1.248906e-004,1.929580e-004
1.410971e-004,2.090025e-004
1.370455e-004,2.167816e-004
1.033359e-004,2.162954e-004
4.790957e-005,2.128921e-004
-9.137427e-006,2.104611e-004
-4.706071e-005,2.141886e-004
-5.321920e-005,2.250470e-004
-2.242678e-005,2.384984e-004
3.413401e-005,2.504913e-004
1.004187e-004,2.590807e-004
1.613553e-004,2.618358e-004
2.111094e-004,2.577842e-004
2.496809e-004,2.506533e-004
2.835526e-004,2.431983e-004
3.154794e-004,2.368777e-004
3.355756e-004,2.292607e-004
3.266619e-004,2.196988e-004
2.884145e-004,2.052750e-004
2.410915e-004,1.822617e-004
2.137024e-004,1.508211e-004
2.227781e-004,1.163011e-004
2.498430e-004,8.469840e-005
2.576221e-004,5.909208e-005
2.213195e-004,4.223728e-005
1.453108e-004,3.316162e-005
5.260946e-005,2.878586e-005
-2.453363e-005,2.570662e-005
-6.504996e-005,2.035846e-005
-6.504996e-005,1.371378e-005
-3.749886e-005,8.041497e-006
3.827799e-006,-7.100305e-007
4.742337e-005,-1.302700e-005
8.891209e-005,-3.036798e-005
1.210010e-004,-4.916756e-005
1.344524e-004,-6.926366e-005
1.274836e-004,-9.179074e-005
1.039842e-004,-1.114006e-004
6.606088e-005,-1.237176e-004
2.003433e-005,-1.287416e-004
-2.242678e-005,-1.289037e-004
-5.240886e-005,-1.313347e-004
-6.391550e-005,-1.400862e-004
-5.338126e-005,-1.511067e-004
-1.918548e-005,-1.562927e-004
2.441009e-005,-1.556445e-004
5.228533e-005,-1.504584e-004
4.985435e-005,-1.449482e-004
1.971020e-005,-1.423551e-004
-1.562004e-005,-1.447861e-004
-2.923353e-005,-1.493239e-004
3.341602e-006,-1.553203e-004
7.918817e-005,-1.592099e-004
1.704310e-004,-1.616409e-004
2.466017e-004,-1.626133e-004
2.837146e-004,-1.574272e-004
2.660495e-004,-1.438137e-004
2.020337e-004,-1.250141e-004
1.167873e-004,-1.057284e-004
3.316162e-005,-8.822530e-005
-3.458168e-005,-7.396356e-005
-8.352541e-005,-6.132246e-005
-1.201522e-004,-5.321920e-005
-1.402483e-004,-4.787104e-005
-1.357104e-004,-3.911951e-005
-1.031353e-004,-2.242678e-005
-4.997789e-005,4.313994e-006
8.041497e-006,3.850978e-005
5.131294e-005,7.286763e-005
6.816773e-005,1.002567e-004
5.795762e-005,1.205148e-004
3.818565e-005,1.347766e-004
2.570662e-005,1.433661e-004
1.711715e-005,1.482280e-004
-1.196227e-006,1.524417e-004
-3.198864e-005,1.577899e-004
-6.602235e-005,1.663793e-004
-9.519411e-005,1.808031e-004
-1.190177e-004,1.983062e-004
-1.400862e-004,2.159713e-004
-1.582375e-004,2.321778e-004
-1.647201e-004,2.435224e-004
-1.583996e-004,2.466017e-004
-1.442999e-004,2.381743e-004
-1.272830e-004,2.247229e-004
-1.115627e-004,2.099749e-004
-9.211487e-005,1.984683e-004
-6.342931e-005,1.953890e-004
-2.907146e-005,2.031682e-004
2.531276e-006,2.159713e-004
2.732727e-005,2.242366e-004
4.871989e-005,2.237505e-004
6.978839e-005,2.153231e-004
8.923623e-005,2.008992e-004
1.018773e-004,1.861513e-004
1.026876e-004,1.717275e-004
8.664318e-005,1.568175e-004
5.163707e-005,1.436902e-004
6.582909e-006,1.339663e-004
-3.247483e-005,1.294284e-004
-4.803310e-005,1.294284e-004
-3.393342e-005,1.289422e-004
3.341602e-006,1.250527e-004
4.499239e-005,1.146805e-004
7.400208e-005,1.005808e-004
8.421220e-005,8.615699e-005
7.772959e-005,7.546067e-005
6.460230e-005,6.541262e-005
5.098881e-005,5.017848e-005
4.045456e-005,2.765140e-005
3.218923e-005,3.827799e-006
2.327564e-005,-1.869928e-005
1.565857e-005,-3.863332e-005
1.711715e-005,-5.386745e-005
3.737532e-005,-6.440170e-005
7.546067e-005,-6.877746e-005
1.140322e-004,-7.250496e-005
1.352628e-004,-8.417367e-005
1.385041e-004,-1.084835e-004
1.354248e-004,-1.379794e-004
1.370455e-004,-1.627754e-004
1.461212e-004,-1.781716e-004
1.613553e-004,-1.836818e-004
1.749688e-004,-1.836818e-004
1.733481e-004,-1.846542e-004
1.482280e-004,-1.877334e-004
1.017153e-004,-1.912988e-004
4.013043e-005,-1.958367e-004
-2.890940e-005,-1.994021e-004
-9.276313e-005,-2.005366e-004
-1.501342e-004,-1.998883e-004
-2.078295e-004,-1.992400e-004
-2.634179e-004,-2.005366e-004
-3.081479e-004,-2.055606e-004
-3.358611e-004,-2.152845e-004
-3.517435e-004,-2.274394e-004
-3.694086e-004,-2.371633e-004
-3.836704e-004,-2.386219e-004
-3.812394e-004,-2.282497e-004
-3.655190e-004,-2.091260e-004
-3.467195e-004,-1.844921e-004
-3.246786e-004,-1.613168e-004
-2.901587e-004,-1.446240e-004
-2.399184e-004,-1.331174e-004
-1.843300e-004,-1.198280e-004
-1.402483e-004,-1.011905e-004
-1.128592e-004,-7.655660e-005
-9.616651e-005,-4.803310e-005
-7.931171e-005,-1.983374e-005
-5.402952e-005,7.717366e-006
-1.237873e-005,3.559260e-005
5.098881e-005,6.200925e-005
1.380179e-004,8.550872e-005
2.401191e-004,1.031738e-004
3.329825e-004,1.146805e-004
3.838710e-004,1.229458e-004
3.733368e-004,1.316974e-004
3.068900e-004,1.462832e-004
2.060853e-004,1.647587e-004
1.093323e-004,1.843686e-004
4.839576e-005,2.052750e-004
3.964424e-005,2.273159e-004
7.789165e-005,2.477361e-004
1.423936e-004,2.658874e-004
2.057612e-004,2.799871e-004
2.472499e-004,2.898731e-004
2.532463e-004,2.983005e-004
2.193747e-004,3.099692e-004
1.610312e-004,3.243930e-004
1.002567e-004,3.410858e-004
4.953022e-005,3.598854e-004
1.679302e-005,3.791712e-004
5.934648e-006,3.963501e-004
1.257933e-005,4.057499e-004
3.235129e-005,4.029947e-004
5.941620e-005,3.910019e-004
7.740546e-005,3.704196e-004
6.444023e-005,3.386548e-004
1.419998e-005,2.932765e-004
-5.321920e-005,2.346088e-004
-1.047560e-004,1.655690e-004
-1.167488e-004,9.669123e-005
-8.919769e-005,3.867184e-005
-3.441962e-005,2.207145e-006
2.878586e-005,-1.010982e-005
8.777764e-005,-6.220252e-006
1.355869e-004,-3.858999e-007
1.680000e-004,7.485573e-007
1.858272e-004,-7.678839e-006
1.947408e-004,-2.420950e-005
1.997648e-004,-4.365734e-005
1.981441e-004,-6.213279e-005
1.855030e-004,-7.833932e-005
1.623277e-004,-9.308726e-005
1.320215e-004,-1.050801e-004
9.507057e-005,-1.146419e-004
4.936815e-005,-1.248521e-004
3.827799e-006,-1.412206e-004
-2.388537e-005,-1.674752e-004
-1.821308e-005,-2.019951e-004
2.376183e-005,-2.428356e-004
9.944634e-005,-2.904828e-004
1.997648e-004,-3.426678e-004
3.075383e-004,-3.976080e-004
4.038051e-004,-4.501171e-004
4.739794e-004,-4.953333e-004
5.054200e-004,-5.295291e-004
4.911583e-004,-5.480045e-004
4.213082e-004,-5.439529e-004
3.002453e-004,-5.152673e-004
1.406109e-004,-4.689167e-004
-3.798505e-005,-4.180282e-004
-2.149604e-004,-3.676259e-004
-3.749188e-004,-3.235441e-004
-5.112157e-004,-2.885380e-004
-6.168823e-004,-2.593663e-004
-6.745775e-004,-2.301945e-004
-6.736051e-004,-1.976194e-004
-6.086170e-004,-1.593720e-004
-4.765338e-004,-1.191798e-004
-2.862691e-004,-8.384954e-005
-6.602235e-005,-5.808115e-005
1.433661e-004,-4.009191e-005
2.995970e-004,-2.242678e-005
3.765781e-004,-3.951337e-006
3.663680e-004,1.484824e-005
2.859836e-004,3.543054e-005
1.636242e-004,5.876794e-005
2.829966e-005,8.761557e-005
-9.843541e-005,1.265113e-004
-1.974573e-004,1.757791e-004
-2.501286e-004,2.318537e-004
-2.481838e-004,2.863077e-004
-2.029675e-004,3.260137e-004
-1.392759e-004,3.459477e-004
-7.914964e-005,3.530786e-004
-3.830919e-005,3.534027e-004
-2.161646e-005,3.529166e-004
-2.631635e-005,3.556717e-004
-4.511593e-005,3.615060e-004
-6.326724e-005,3.689610e-004
-6.148453e-005,3.744712e-004
-3.182657e-005,3.785229e-004
2.100672e-005,3.827366e-004
7.853991e-005,3.895433e-004
1.164632e-004,3.973225e-004
1.211631e-004,4.041292e-004
9.134307e-005,4.085050e-004
4.758544e-005,4.081808e-004
2.035846e-005,4.002396e-004
2.813760e-005,3.877606e-004
8.323981e-005,3.744712e-004
1.775618e-004,3.618301e-004
2.851732e-004,3.472443e-004
3.675024e-004,3.331446e-004
3.940812e-004,3.193690e-004
3.551855e-004,3.094830e-004
2.626462e-004,3.041349e-004
1.445005e-004,3.013798e-004
3.656499e-005,3.000832e-004
-2.955766e-005,2.994350e-004
-3.766092e-005,2.961937e-004
4.476060e-006,2.867939e-004
7.286763e-005,2.678322e-004
1.333180e-004,2.393087e-004
1.660552e-004,2.008992e-004
1.689724e-004,1.560072e-004
1.493625e-004,1.132219e-004
1.211631e-004,8.097089e-005
9.523264e-005,5.941620e-005
7.497447e-005,4.466826e-005
6.038860e-005,2.927205e-005
4.807163e-005,6.420843e-006
3.332369e-005,-2.177852e-005
1.614476e-005,-5.176061e-005
3.665733e-006,-7.704279e-005
1.558884e-006,-9.276313e-005
1.112074e-005,-1.007043e-004
2.878586e-005,-1.107524e-004
4.515445e-005,-1.306864e-004
5.131294e-005,-1.598582e-004
4.029250e-005,-1.888679e-004
1.014835e-005,-2.089640e-004
-3.490581e-005,-2.191741e-004
-8.222889e-005,-2.219292e-004
-1.193418e-004,-2.203085e-004
-1.363587e-004,-2.178775e-004
-1.284175e-004,-2.214430e-004
-9.276313e-005,-2.305186e-004
-3.490581e-005,-2.412149e-004
2.311357e-005,-2.538560e-004
5.293359e-005,-2.676316e-004
4.256141e-005,-2.794623e-004
-3.789272e-006,-2.843243e-004
-6.634648e-005,-2.830278e-004
-1.269589e-004,-2.814071e-004
-1.674752e-004,-2.841623e-004
-1.877334e-004,-2.898345e-004
-1.964849e-004,-2.896725e-004
-1.966470e-004,-2.799486e-004
-1.890299e-004,-2.626076e-004
-1.752544e-004,-2.410529e-004
-1.515928e-004,-2.177155e-004
-1.170729e-004,-1.942160e-004
-7.995997e-005,-1.686097e-004
-5.111234e-005,-1.394379e-004
-4.268495e-005,-1.065387e-004
-5.856735e-005,-7.282909e-005
-9.146661e-005,-4.317115e-005
-1.204763e-004,-2.177852e-005
-1.186936e-004,-6.382317e-006
-7.104638e-005,6.096713e-006
1.371378e-005,1.468618e-005
1.047945e-004,1.971020e-005
1.673517e-004,2.133085e-005
1.799928e-004,1.954813e-005
1.414213e-004,1.565857e-005
7.384002e-005,1.436204e-005
6.582909e-006,1.776542e-005
-3.571614e-005,2.392390e-005
-4.722278e-005,3.251336e-005
-3.847125e-005,4.564065e-005
-2.469570e-005,6.525056e-005
-1.772689e-005,8.761557e-005
-2.145439e-005,1.109530e-004
-2.793700e-005,1.339663e-004
-1.902341e-005,1.529279e-004
1.209313e-005,1.680000e-004
5.487838e-005,1.822617e-004
9.620504e-005,1.953890e-004
1.281319e-004,2.030061e-004
1.432040e-004,2.010613e-004
1.221355e-004,1.903650e-004
6.119892e-005,1.762653e-004
-2.955766e-005,1.662173e-004
-1.266348e-004,1.615174e-004
-2.068571e-004,1.576278e-004
-2.515871e-004,1.524417e-004
-2.515871e-004,1.402868e-004
-2.135018e-004,1.203528e-004
-1.561307e-004,1.000946e-004
-1.002181e-004,8.453633e-005
-5.435365e-005,7.886404e-005
-1.270286e-005,8.307774e-005
3.186510e-005,9.101894e-005
7.384002e-005,9.555677e-005
9.863601e-005,9.588091e-005
8.810177e-005,9.328786e-005
4.612685e-005,8.729144e-005
-3.141010e-006,7.805372e-005
-2.583016e-005,6.557468e-005
-1.205460e-005,5.163707e-005
2.424803e-005,3.786152e-005
5.568870e-005,2.246531e-005
6.119892e-005,6.258778e-006
3.105477e-005,-5.247859e-006
-2.226472e-005,-1.156841e-005
-8.239095e-005,-1.432352e-005
-1.368449e-004,-1.626830e-005
-1.728234e-004,-2.145439e-005
-1.797922e-004,-3.506788e-005
-1.509446e-004,-5.759496e-005
-9.389759e-005,-8.449780e-005
-2.242678e-005,-1.099421e-004
4.726130e-005,-1.319829e-004
1.070634e-004,-1.457585e-004
1.584381e-004,-1.502963e-004
2.026820e-004,-1.464067e-004
2.352571e-004,-1.391138e-004
2.495189e-004,-1.298761e-004
2.435224e-004,-1.183694e-004
2.239125e-004,-1.039456e-004
2.043026e-004,-8.628052e-005
1.936063e-004,-7.185670e-005
1.957132e-004,-6.586029e-005
2.052750e-004,-6.926366e-005
2.143507e-004,-7.752899e-005
2.138645e-004,-8.579432e-005
2.055991e-004,-9.211487e-005
1.923098e-004,-9.649064e-005
1.746447e-004,-9.778715e-005
1.560072e-004,-9.551824e-005
1.389903e-004,-8.773911e-005
1.239182e-004,-7.331530e-005
1.088461e-004,-5.370539e-005
9.669123e-005,-3.166451e-005
9.231547e-005,-1.010982e-005
9.685330e-005,1.241726e-005
1.044704e-004,3.105477e-005
1.127357e-004,4.223728e-005
1.164632e-004,4.256141e-005
1.156529e-004,3.413401e-005
1.130598e-004,2.765140e-005
1.130598e-004,2.813760e-005
1.148425e-004,3.526847e-005
1.213252e-004,4.645098e-005
1.334801e-004,5.633696e-005
1.474177e-004,6.281957e-005
1.574657e-004,6.751948e-005
1.620036e-004,7.124698e-005
1.545486e-004,7.546067e-005
1.304008e-004,8.210535e-005
9.053275e-005,9.571884e-005
4.596478e-005,1.177597e-004
1.225520e-005,1.457970e-004
-8.720959e-007,1.756171e-004
6.744974e-006,2.018716e-004
2.813760e-005,2.219677e-004
5.325772e-005,2.337985e-004
7.319176e-005,2.350950e-004
8.242948e-005,2.260194e-004
7.951231e-005,2.122438e-004
6.557468e-005,1.984683e-004
4.839576e-005,1.911753e-004
4.158902e-005,1.924718e-004
5.763349e-005,1.976579e-004
9.118101e-005,2.041406e-004
1.271595e-004,2.111094e-004
1.542244e-004,2.132162e-004
1.704310e-004,2.107852e-004
1.778860e-004,2.070577e-004
1.733481e-004,2.051129e-004
1.548727e-004,2.049509e-004
1.213252e-004,2.020337e-004
8.242948e-005,1.936063e-004
4.158902e-005,1.780480e-004
-3.141010e-006,1.553589e-004
-4.495386e-005,1.329939e-004
-8.125649e-005,1.146805e-004
-1.225832e-004,9.896015e-005
-1.877334e-004,8.291568e-005
-2.859450e-004,6.735741e-005
-4.170558e-004,5.066468e-005
-5.627525e-004,3.170304e-005
-6.844635e-004,1.225520e-005
-7.512344e-004,-4.923729e-006
-7.531792e-004,-1.853722e-005
-6.979149e-004,-2.696461e-005
-5.984068e-004,-3.215070e-005
-4.706994e-004,-3.539201e-005
-3.322956e-004,-3.879538e-005
-2.000504e-004,-4.430560e-005
-8.611845e-005,-5.338126e-005
1.002961e-007,-6.537409e-005
5.212327e-005,-7.898758e-005
7.238143e-005,-9.422172e-005
7.238143e-005,-1.102662e-004
6.379197e-005,-1.264727e-004
5.585077e-005,-1.417068e-004
5.633696e-005,-1.548341e-004
7.594687e-005,-1.635857e-004
1.187321e-004,-1.723372e-004
1.819376e-004,-1.817370e-004
2.572980e-004,-1.877334e-004
3.237448e-004,-1.906506e-004
3.649094e-004,-1.909747e-004
3.715541e-004,-1.885437e-004
3.375204e-004,-1.840059e-004
2.631324e-004,-1.759026e-004
1.569795e-004,-1.645581e-004
3.251336e-005,-1.541859e-004
-8.530812e-005,-1.489998e-004
-1.823853e-004,-1.464067e-004
-2.541802e-004,-1.444620e-004
-3.016653e-004,-1.350622e-004
-3.227338e-004,-1.175591e-004
-3.120375e-004,-9.519411e-005
-2.681178e-004,-7.282909e-005
-1.984297e-004,-5.402952e-005
-1.178833e-004,-3.701266e-005
-3.490581e-005,-1.805102e-005
4.434413e-005,5.448452e-006
1.141943e-004,3.348575e-005
1.722137e-004,5.957827e-005
2.088404e-004,7.740546e-005
2.156472e-004,8.793970e-005
1.893926e-004,9.685330e-005
1.367214e-004,1.093323e-004
7.432621e-005,1.289422e-004
2.376183e-005,1.586002e-004
-1.034161e-006,1.921477e-004
1.072688e-006,2.198609e-004
2.392390e-005,2.365536e-004
5.585077e-005,2.420638e-004
9.247754e-005,2.394708e-004
1.359110e-004,2.349330e-004
1.861513e-004,2.295848e-004
2.333123e-004,2.231022e-004
2.595669e-004,2.154851e-004
2.618358e-004,2.072198e-004
2.516257e-004,2.007372e-004
2.478982e-004,2.018716e-004
2.684805e-004,2.119197e-004
3.146691e-004,2.231022e-004
3.650715e-004,2.276400e-004
3.969983e-004,2.211574e-004
3.934329e-004,2.060853e-004
3.482167e-004,1.885823e-004
2.725321e-004,1.702689e-004
1.842065e-004,1.537382e-004
1.041462e-004,1.393144e-004
4.888196e-005,1.232699e-004
2.197911e-005,1.018773e-004
1.857574e-005,7.319176e-005
2.165498e-005,3.672706e-005
1.841368e-005,-7.192643e-006
-2.330684e-006,-5.370539e-005
-5.078821e-005,-9.438378e-005
-1.347380e-004,-1.209625e-004
-2.465631e-004,-1.285796e-004
-3.632501e-004,-1.216107e-004
-4.473620e-004,-1.076731e-004
-4.715097e-004,-9.616651e-005
-4.342347e-004,-8.790117e-005
-3.502849e-004,-8.125649e-005
-2.425115e-004,-7.185670e-005
-1.302002e-004,-6.067420e-005
-2.712668e-005,-5.143648e-005
5.925414e-005,-4.916756e-005
1.227837e-004,-5.646050e-005
1.573037e-004,-7.412562e-005
1.623277e-004,-9.616651e-005
1.513072e-004,-1.169109e-004
1.359110e-004,-1.264727e-004
1.167873e-004,-1.201522e-004
9.263960e-005,-1.008664e-004
6.768154e-005,-7.979791e-005
4.628891e-005,-6.586029e-005
3.283749e-005,-5.905355e-005
2.716521e-005,-5.597430e-005
2.197911e-005,-5.435365e-005
1.274139e-005,-5.273300e-005
3.503668e-006,-5.273300e-005
-2.978945e-006,-5.629844e-005
-2.654814e-006,-6.618442e-005
8.851824e-006,-8.465986e-005
2.457216e-005,-1.105903e-004
3.299956e-005,-1.407345e-004
2.311357e-005,-1.699062e-004
-1.302700e-005,-1.895161e-004
-6.764301e-005,-1.932436e-004
-1.170729e-004,-1.799543e-004
-1.353863e-004,-1.583996e-004
-1.141558e-004,-1.371690e-004
-6.618442e-005,-1.173971e-004
-1.707863e-005,-9.811128e-005
1.468618e-005,-7.688073e-005
3.218923e-005,-5.127441e-005
5.163707e-005,-2.437157e-005
8.761557e-005,-2.238346e-007
1.414213e-004,1.630683e-005
1.970097e-004,2.538249e-005
2.328261e-004,2.992031e-005
2.363916e-004,3.543054e-005
2.008992e-004,4.385793e-005
1.305629e-004,5.439218e-005
4.596478e-005,6.914012e-005
-1.934754e-005,9.231547e-005
-3.668853e-005,1.265113e-004
5.934648e-006,1.670276e-004
8.729144e-005,2.041406e-004
1.660552e-004,2.323399e-004
2.039785e-004,2.506533e-004
1.863134e-004,2.610255e-004
1.222976e-004,2.644289e-004
3.624086e-005,2.666978e-004
-4.138842e-005,2.697770e-004
-8.903562e-005,2.746390e-004
-9.486997e-005,2.777182e-004
-6.569822e-005,2.780424e-004
-1.480971e-005,2.773941e-004
4.175109e-005,2.791768e-004
8.826383e-005,2.798251e-004
1.167873e-004,2.752873e-004
1.282940e-004,2.611876e-004
1.320215e-004,2.415777e-004
1.351007e-004,2.226160e-004
1.446626e-004,2.055991e-004
1.642725e-004,1.900409e-004
1.913374e-004,1.739964e-004
2.104611e-004,1.582761e-004
2.088404e-004,1.399627e-004
1.824238e-004,1.205148e-004
1.368834e-004,1.034980e-004
9.231547e-005,9.231547e-005
6.460230e-005,8.340187e-005
5.066468e-005,7.076078e-005
3.672706e-005,4.985435e-005
7.393236e-006,2.246531e-005
-4.981582e-005,-8.002969e-006
-1.324691e-004,-4.057810e-005
-2.217671e-004,-7.720486e-005
-2.990722e-004,-1.204763e-004
-3.493125e-004,-1.712027e-004
-3.749188e-004,-2.264670e-004
-3.911253e-004,-2.810830e-004
-4.092767e-004,-3.282440e-004
-4.360174e-004,-3.603330e-004
-4.737787e-004,-3.697327e-004
-5.206155e-004,-3.559572e-004
-5.668041e-004,-3.246786e-004
-5.943552e-004,-2.817312e-004
-5.885208e-004,-2.292221e-004
-5.486528e-004,-1.728234e-004
-4.765338e-004,-1.208004e-004
-3.831841e-004,-8.028410e-005
-2.835140e-004,-5.321920e-005
-1.841680e-004,-3.782299e-005
-8.757704e-005,-3.215070e-005
7.485573e-007,-3.036798e-005
7.870197e-005,-3.344723e-005
1.475797e-004,-4.333321e-005
2.096508e-004,-5.970181e-005
2.676702e-004,-7.866345e-005
3.190449e-004,-9.422172e-005
3.548613e-004,-1.045939e-004
3.613439e-004,-1.076731e-004
3.313618e-004,-1.068628e-004
2.691288e-004,-1.045939e-004
1.882582e-004,-1.003802e-004
1.103047e-004,-9.211487e-005
5.341979e-005,-8.336335e-005
3.202716e-005,-7.623246e-005
4.418206e-005,-6.877746e-005
7.967438e-005,-5.872941e-005
1.240803e-004,-4.074016e-005
1.720516e-004,-1.480971e-005
2.261814e-004,1.646890e-005
2.827423e-004,4.953022e-005
3.292550e-004,7.999851e-005
3.530786e-004,1.060910e-004
3.553475e-004,1.284560e-004
3.399513e-004,1.462832e-004
3.183966e-004,1.582761e-004
3.004074e-004,1.663793e-004
2.934386e-004,1.717275e-004
2.976523e-004,1.746447e-004
2.989488e-004,1.790204e-004
2.829043e-004,1.937684e-004
2.469258e-004,2.196988e-004
1.999268e-004,2.532463e-004
1.542244e-004,2.889007e-004
1.222976e-004,3.198552e-004
1.051186e-004,3.394651e-004
9.588091e-005,3.412479e-004
8.469840e-005,3.316860e-004
6.832980e-005,3.205035e-004
5.034055e-005,3.146691e-004
3.186510e-005,3.159656e-004
9.986281e-006,3.182346e-004
-2.129233e-005,3.128864e-004
-7.104638e-005,2.963557e-004
-1.467309e-004,2.731804e-004
-2.402425e-004,2.488706e-004
-3.251648e-004,2.290986e-004
-3.702189e-004,2.185644e-004
-3.562813e-004,2.161334e-004
-2.857829e-004,2.179161e-004
-1.825473e-004,2.190506e-004
-7.331530e-005,2.141886e-004
1.533444e-005,1.986303e-004
6.719535e-005,1.754550e-004
8.388807e-005,1.498487e-004
8.113296e-005,1.273216e-004
7.043665e-005,1.083599e-004
5.082674e-005,8.875003e-005
1.873781e-005,6.849186e-005
-1.562004e-005,4.742337e-005
-3.976777e-005,2.619281e-005
-4.544006e-005,6.420843e-006
-3.296103e-005,-1.254080e-005
-1.075808e-005,-3.053005e-005
9.986281e-006,-4.803310e-005
1.938607e-005,-6.618442e-005
1.419998e-005,-8.336335e-005
-6.220252e-006,-9.843541e-005
-3.620233e-005,-1.115627e-004
-6.002594e-005,-1.264727e-004
-6.261898e-005,-1.473791e-004
-4.138842e-005,-1.734716e-004
-2.492749e-006,-2.015090e-004
3.591673e-005,-2.284118e-004
6.119892e-005,-2.548284e-004
6.379197e-005,-2.831898e-004
4.402000e-005,-3.147926e-004
7.393236e-006,-3.465574e-004
-3.004385e-005,-3.681121e-004
-5.062615e-005,-3.689224e-004
-4.365734e-005,-3.476919e-004
-1.383732e-005,-3.167374e-004
3.316162e-005,-2.898345e-004
8.648112e-005,-2.728177e-004
1.373696e-004,-2.598524e-004
1.799928e-004,-2.420253e-004
2.167816e-004,-2.183637e-004
2.493568e-004,-1.921092e-004
2.725321e-004,-1.674752e-004
2.851732e-004,-1.491618e-004
2.884145e-004,-1.376552e-004
2.830664e-004,-1.293899e-004
2.709115e-004,-1.172350e-004
2.556773e-004,-9.859748e-005
2.407673e-004,-7.671866e-005
2.278021e-004,-5.759496e-005
2.127300e-004,-4.317115e-005
1.908512e-004,-3.458168e-005
1.626518e-004,-2.745081e-005
1.286181e-004,-1.659243e-005
8.777764e-005,-5.479652e-007
4.337174e-005,2.052053e-005
-8.002969e-006,4.385793e-005
-6.974985e-005,6.638502e-005
-1.417068e-004,8.486046e-005
-2.128535e-004,9.458438e-005
-2.656868e-004,9.588091e-005
-2.805968e-004,9.231547e-005
-2.489941e-004,8.907416e-005
-1.827094e-004,9.442231e-005
-1.032974e-004,1.099806e-004
-3.571614e-005,1.328318e-004
-2.978945e-006,1.590864e-004
-1.837515e-005,1.872858e-004
-8.190475e-005,2.140265e-004
-1.768750e-004,2.362295e-004
-2.702246e-004,2.517878e-004
-3.303509e-004,2.598910e-004
-3.326198e-004,2.592428e-004
-2.770314e-004,2.522740e-004
-1.883817e-004,2.425500e-004
-9.989401e-005,2.355812e-004
-4.300908e-005,2.331503e-004
-3.636440e-005,2.365536e-004
-7.137051e-005,2.397949e-004
-1.183694e-004,2.370398e-004
-1.444620e-004,2.250470e-004
-1.292278e-004,2.060853e-004
-7.444975e-005,1.879340e-004
5.934648e-006,1.754550e-004
9.280167e-005,1.645966e-004
1.696206e-004,1.504969e-004
2.227781e-004,1.341283e-004
2.477361e-004,1.177597e-004
2.448189e-004,1.033359e-004
2.208333e-004,9.393612e-005
1.777239e-004,8.939829e-005
1.172735e-004,8.599492e-005
4.677511e-005,7.870197e-005
-2.015787e-005,6.573675e-005
-6.504996e-005,4.353380e-005
-7.671866e-005,1.387585e-005
-6.278104e-005,-1.950961e-005
-4.122636e-005,-5.435365e-005
-2.647842e-005,-8.628052e-005
-2.955766e-005,-1.110765e-004
-5.743289e-005,-1.271210e-004
-1.128592e-004,-1.360346e-004
-1.851404e-004,-1.404103e-004
-2.533699e-004,-1.434896e-004
-2.901587e-004,-1.472171e-004
-2.801106e-004,-1.496481e-004
-2.240360e-004,-1.470550e-004
-1.405724e-004,-1.379794e-004
-5.192267e-005,-1.246900e-004
2.408596e-005,-1.125351e-004
8.064677e-005,-1.045939e-004
1.114392e-004,-1.018388e-004
1.146805e-004,-1.041077e-004
8.907416e-005,-1.076731e-004
4.693717e-005,-1.076731e-004
2.855407e-006,-1.060525e-004
-3.053005e-005,-1.044318e-004
-3.847125e-005,-1.037836e-004
-9.461558e-006,-1.049180e-004
5.147500e-005,-1.088076e-004
1.242423e-004,-1.114006e-004
1.842065e-004,-1.109144e-004
2.167816e-004,-1.063766e-004
2.268297e-004,-9.859748e-005
2.260194e-004,-8.871149e-005
2.203471e-004,-8.028410e-005
2.091646e-004,-7.623246e-005
1.900409e-004,-7.461182e-005
1.603829e-004,-7.088431e-005
1.216493e-004,-6.245691e-005
7.870197e-005,-4.884343e-005
4.337174e-005,-3.393342e-005
2.684107e-005,-1.853722e-005
2.603075e-005,-2.006553e-006
3.316162e-005,1.403791e-005
4.207521e-005,3.073064e-005
5.098881e-005,4.726130e-005
5.293359e-005,6.622294e-005
4.385793e-005,8.761557e-005
2.278944e-005,1.065772e-004
-7.678839e-006,1.164632e-004
-3.652646e-005,1.154908e-004
-4.900550e-005,1.114392e-004
-3.863332e-005,1.112771e-004
-5.896120e-006,1.206769e-004
4.045456e-005,1.389903e-004
9.231547e-005,1.626518e-004
1.436902e-004,1.859892e-004
1.991165e-004,2.065715e-004
2.534084e-004,2.174299e-004
2.955454e-004,2.138645e-004
3.174242e-004,2.012234e-004
3.174242e-004,1.892305e-004
2.997591e-004,1.859892e-004
2.743149e-004,1.880961e-004
2.488706e-004,1.932822e-004
2.234263e-004,1.994406e-004
1.884202e-004,2.055991e-004
1.407730e-004,2.109473e-004
9.085688e-005,2.132162e-004
4.953022e-005,2.112714e-004
1.841368e-005,2.060853e-004
3.827799e-006,2.026820e-004
1.922400e-005,2.026820e-004
6.508849e-005,2.010613e-004
1.232699e-004,1.945787e-004
1.710792e-004,1.827479e-004
1.903650e-004,1.699448e-004
1.761032e-004,1.598967e-004
1.325077e-004,1.548727e-004
6.687121e-005,1.522796e-004
-9.947754e-006,1.432040e-004
-8.822530e-005,1.242423e-004
-1.520790e-004,1.009049e-004
-1.823853e-004,7.740546e-005
-1.643960e-004,5.568870e-005
-1.029732e-004,3.672706e-005
-1.999580e-005,1.857574e-005
5.666109e-005,3.179537e-006
1.065772e-004,-9.947754e-006
1.242423e-004,-2.145439e-005
1.166253e-004,-3.522994e-005
9.944634e-005,-5.046408e-005
8.810177e-005,-6.877746e-005
7.027458e-005,-9.373552e-005
3.989864e-006,-1.245279e-004
-1.637477e-004,-1.567789e-004
-4.625961e-004,-1.833576e-004
-8.547941e-004,-1.989159e-004
-1.229651e-003,-2.023193e-004
-1.464322e-003,-1.942160e-004
-1.482959e-003,-1.840059e-004
-1.295774e-003,-1.823853e-004
-9.714811e-004,-1.914609e-004
-6.013241e-004,-2.060468e-004
-2.676316e-004,-2.183637e-004
-2.129233e-005,-2.287359e-004
1.231079e-004,-2.386219e-004
1.837203e-004,-2.459149e-004
1.921477e-004,-2.480217e-004
1.855030e-004,-2.417012e-004
1.900409e-004,-2.295462e-004
2.156472e-004,-2.151224e-004
2.543808e-004,-2.000504e-004
2.950592e-004,-1.882196e-004
3.303894e-004,-1.820611e-004
3.616681e-004,-1.810887e-004
3.950536e-004,-1.793060e-004
4.294114e-004,-1.724993e-004
4.559901e-004,-1.598582e-004
4.639314e-004,-1.381414e-004
4.428628e-004,-1.068628e-004
3.814401e-004,-6.812920e-005
2.880904e-004,-2.534396e-005
1.833962e-004,1.760335e-005
9.944634e-005,6.087479e-005
6.184718e-005,1.025256e-004
7.756752e-005,1.404489e-004
1.274836e-004,1.707551e-004
1.837203e-004,1.947408e-004
2.273159e-004,2.158093e-004
2.513016e-004,2.312055e-004
2.483844e-004,2.394708e-004
2.137024e-004,2.454672e-004
1.581140e-004,2.556773e-004
9.879808e-005,2.723701e-004
5.552663e-005,2.910076e-004
3.980630e-005,3.060797e-004
5.147500e-005,3.149933e-004
7.627100e-005,3.169380e-004
9.669123e-005,3.145071e-004
9.977047e-005,3.119140e-004
8.486046e-005,3.117519e-004
6.038860e-005,3.111037e-004
4.207521e-005,3.005694e-004
3.980630e-005,2.796630e-004
5.666109e-005,2.576221e-004
9.118101e-005,2.446569e-004
1.391524e-004,2.451431e-004
1.840444e-004,2.555152e-004
2.008992e-004,2.670219e-004
1.744826e-004,2.699391e-004
1.106288e-004,2.608634e-004
3.024445e-005,2.451431e-004
-4.381940e-005,2.276400e-004
-9.373552e-005,2.091646e-004
-1.075111e-004,1.900409e-004
-8.530812e-005,1.697827e-004
-3.458168e-005,1.483901e-004
2.943412e-005,1.218114e-004
9.231547e-005,8.518459e-005
1.326697e-004,4.158902e-005
1.406109e-004,-5.734056e-006
1.213252e-004,-5.062615e-005
8.875003e-005,-8.676672e-005
5.455425e-005,-1.114006e-004
2.246531e-005,-1.287416e-004
-4.761664e-006,-1.433275e-004
-2.226472e-005,-1.546721e-004
-2.745081e-005,-1.635857e-004
-2.404744e-005,-1.707166e-004
-1.707863e-005,-1.750923e-004
-1.270286e-005,-1.788198e-004
-1.740276e-005,-1.867610e-004
-3.069211e-005,-2.050744e-004
-4.252288e-005,-2.353806e-004
-4.219875e-005,-2.723315e-004
-2.453363e-005,-3.045825e-004
7.231170e-006,-3.246786e-004
3.607880e-005,-3.305129e-004
4.142696e-005,-3.232200e-004
1.306552e-005,-3.087962e-004
-3.458168e-005,-2.929138e-004
-8.725291e-005,-2.775176e-004
-1.313347e-004,-2.664971e-004
-1.622891e-004,-2.626076e-004
-1.797922e-004,-2.652006e-004
-1.888679e-004,-2.713591e-004
-1.929195e-004,-2.775176e-004
-1.922712e-004,-2.809209e-004
-1.833576e-004,-2.778417e-004
-1.622891e-004,-2.673075e-004
-1.314967e-004,-2.467252e-004
-9.956988e-005,-2.135018e-004
-7.995997e-005,-1.729855e-004
-8.174268e-005,-1.334415e-004
-1.007043e-004,-1.045939e-004
-1.255003e-004,-8.449780e-005
-1.491618e-004,-6.326724e-005
-1.684476e-004,-3.652646e-005
-1.713648e-004,-8.002969e-006
-1.485136e-004,1.808955e-005
-9.762509e-005,4.320967e-005
-2.534396e-005,7.108491e-005
4.969229e-005,1.013911e-004
1.004187e-004,1.341283e-004
1.128978e-004,1.644345e-004
9.344993e-005,1.902029e-004
6.589881e-005,2.099749e-004
5.649903e-005,2.221298e-004
7.935024e-005,2.232643e-004
1.240803e-004,2.174299e-004
1.738343e-004,2.120818e-004
2.159713e-004,2.143507e-004
2.435224e-004,2.290986e-004
2.551911e-004,2.547049e-004
2.485465e-004,2.843629e-004
2.224539e-004,3.133726e-004
1.806411e-004,3.389789e-004
1.375317e-004,3.537269e-004
1.073875e-004,3.529166e-004
9.231547e-005,3.396272e-004
8.129502e-005,3.235827e-004
5.876794e-005,3.064038e-004
2.165498e-005,2.876042e-004
-2.339918e-005,2.702632e-004
-7.104638e-005,2.555152e-004
-1.112386e-004,2.441707e-004
-1.373311e-004,2.360674e-004
-1.394379e-004,2.318537e-004
-1.143178e-004,2.312055e-004
-6.504996e-005,2.337985e-004
-8.651231e-006,2.386605e-004
1.857574e-005,2.406053e-004
-1.432352e-005,2.376881e-004
-1.110765e-004,2.310434e-004
-2.454286e-004,2.221298e-004
-3.660052e-004,2.072198e-004
-4.282383e-004,1.861513e-004
-4.115456e-004,1.592484e-004
-3.237062e-004,1.274836e-004
-1.963229e-004,8.972242e-005
-6.926366e-005,4.612685e-005
3.575467e-005,1.883015e-006
1.161391e-004,-3.749886e-005
1.772377e-004,-6.731888e-005
2.208333e-004,-8.417367e-005
2.514636e-004,-8.822530e-005
2.697770e-004,-8.336335e-005
2.751252e-004,-7.444975e-005
2.704253e-004,-6.650855e-005
2.517878e-004,-6.067420e-005
2.196988e-004,-5.354332e-005
1.855030e-004,-4.398147e-005
1.616794e-004,-3.798505e-005
1.527658e-004,-4.138842e-005
1.534141e-004,-5.451572e-005
1.551968e-004,-7.299116e-005
1.517934e-004,-9.065628e-005
1.422316e-004,-1.044318e-004
1.286181e-004,-1.152902e-004
1.159770e-004,-1.264727e-004
1.099806e-004,-1.381414e-004
1.148425e-004,-1.501342e-004
1.305629e-004,-1.611547e-004
1.492004e-004,-1.736337e-004
1.654069e-004,-1.869231e-004
1.762653e-004,-1.950263e-004
1.798307e-004,-1.964849e-004
1.752929e-004,-1.917850e-004
1.641104e-004,-1.854645e-004
1.425557e-004,-1.771992e-004
1.034980e-004,-1.656925e-004
4.175109e-005,-1.509446e-004
-3.636440e-005,-1.363587e-004
-1.177212e-004,-1.220970e-004
-1.830335e-004,-1.133454e-004
-2.144742e-004,-1.102662e-004
-2.058847e-004,-1.096179e-004
-1.695821e-004,-1.073490e-004
-1.287416e-004,-9.973194e-005
-1.015147e-004,-8.384954e-005
-8.822530e-005,-6.132246e-005
-8.044617e-005,-3.620233e-005
-7.185670e-005,-1.399939e-005
-6.667062e-005,1.072688e-006
-7.153257e-005,8.365628e-006
-8.773911e-005,1.176900e-005
-1.047560e-004,2.100672e-005
-1.123730e-004,3.996837e-005
-1.060525e-004,6.460230e-005
-8.547019e-005,8.696731e-005
-5.062615e-005,1.022015e-004
-7.100305e-007,1.145184e-004
5.779555e-005,1.313732e-004
1.130598e-004,1.542244e-004
1.574657e-004,1.824238e-004
1.819376e-004,2.127300e-004
1.863134e-004,2.363916e-004
1.780480e-004,2.485465e-004
1.671896e-004,2.509774e-004
1.628139e-004,2.478982e-004
1.694586e-004,2.427121e-004
1.867996e-004,2.386605e-004
2.049509e-004,2.313675e-004
2.119197e-004,2.185644e-004
2.030061e-004,2.005751e-004
1.783722e-004,1.790204e-004
1.406109e-004,1.569795e-004
1.018773e-004,1.359110e-004
6.816773e-005,1.125736e-004
4.013043e-005,8.826383e-005
2.068259e-005,6.622294e-005
1.290346e-005,5.034055e-005
3.017472e-006,3.591673e-005
-3.134038e-005,1.565857e-005
-9.811128e-005,-1.092015e-005
-1.705545e-004,-4.090223e-005
-2.110708e-004,-6.586029e-005
-2.037779e-004,-7.688073e-005
-1.634236e-004,-7.153257e-005
-1.135075e-004,-5.176061e-005
-6.602235e-005,-2.566809e-005
-2.437157e-005,-7.100305e-007
8.689758e-006,1.922400e-005
2.619281e-005,2.878586e-005
2.019640e-005,2.700314e-005
-9.461558e-006,1.614476e-005
-5.775702e-005,5.864920e-007
-1.104282e-004,-1.497178e-005
-1.509446e-004,-3.117831e-005
-1.665028e-004,-4.689865e-005
-1.601823e-004,-6.132246e-005
-1.472171e-004,-7.801519e-005
-1.358725e-004,-1.000561e-004
-1.285796e-004,-1.272830e-004
-1.222590e-004,-1.567789e-004
-1.172350e-004,-1.872472e-004
-1.107524e-004,-2.125294e-004
-9.875954e-005,-2.285739e-004
-7.720486e-005,-2.316531e-004
-4.495386e-005,-2.227395e-004
-1.034161e-006,-2.047502e-004
4.742337e-005,-1.849783e-004
8.016057e-005,-1.707166e-004
8.323981e-005,-1.639098e-004
6.119892e-005,-1.592099e-004
3.964424e-005,-1.511067e-004
3.267542e-005,-1.361966e-004
3.705119e-005,-1.151281e-004
3.721326e-005,-9.389759e-005
2.781346e-005,-7.736692e-005
1.695509e-005,-6.504996e-005
2.197911e-005,-5.208474e-005
5.601284e-005,-3.717473e-005
1.153287e-004,-2.339918e-005
1.840444e-004,-1.416145e-005
2.360674e-004,-9.299493e-006
2.525981e-004,-1.302700e-005
2.350950e-004,-2.275091e-005
1.966855e-004,-3.263690e-005
1.529279e-004,-3.506788e-005
1.188942e-004,-2.501983e-005
1.052807e-004,-3.789272e-006
1.172735e-004,2.376183e-005
1.482280e-004,5.260946e-005
1.869616e-004,8.210535e-005
2.172679e-004,1.140322e-004
2.141886e-004,1.509831e-004
1.566554e-004,1.876099e-004
4.239934e-005,2.162954e-004
-1.130213e-004,2.303951e-004
-2.802727e-004,2.274780e-004
-4.314796e-004,2.094887e-004
-5.374703e-004,1.851789e-004
-5.797693e-004,1.647587e-004
-5.515700e-004,1.576278e-004
-4.598410e-004,1.642725e-004
-3.256510e-004,1.808031e-004
-1.780095e-004,1.989545e-004
-4.284701e-005,2.146748e-004
6.233338e-005,2.234263e-004
1.341283e-004,2.240746e-004
1.825859e-004,2.214815e-004
2.239125e-004,2.184023e-004
2.752873e-004,2.188885e-004
3.394651e-004,2.250470e-004
4.031568e-004,2.341226e-004
4.457800e-004,2.414156e-004
4.470765e-004,2.454672e-004
3.955397e-004,2.466017e-004
3.064038e-004,2.496809e-004
2.132162e-004,2.525981e-004
1.461212e-004,2.527602e-004
1.112771e-004,2.490327e-004
9.539470e-005,2.420638e-004
8.291568e-005,2.320158e-004
6.995045e-005,2.216436e-004
5.957827e-005,2.127300e-004
5.520250e-005,2.025199e-004
5.925414e-005,1.898788e-004
6.654708e-005,1.733481e-004
6.281957e-005,1.508211e-004
3.964424e-005,1.247285e-004
9.338019e-006,9.831188e-005
-9.947754e-006,7.610894e-005
-1.173047e-005,6.119892e-005
7.485573e-007,5.034055e-005
1.711715e-005,3.721326e-005
2.505836e-005,1.825161e-005
1.484824e-005,-5.085794e-006
-1.594417e-005,-2.955766e-005
-6.132246e-005,-4.884343e-005
-1.120489e-004,-6.261898e-005
-1.605064e-004,-7.347736e-005
-1.925954e-004,-8.449780e-005
-2.047502e-004,-9.486997e-005
-2.055606e-004,-1.075111e-004
-2.136638e-004,-1.199901e-004
-2.410529e-004,-1.303623e-004
-2.848105e-004,-1.381414e-004
-3.248407e-004,-1.470550e-004
-3.313232e-004,-1.543479e-004
-2.828657e-004,-1.606685e-004
-1.818991e-004,-1.639098e-004
-5.305713e-005,-1.634236e-004
7.254349e-005,-1.613168e-004
1.681620e-004,-1.590478e-004
2.273159e-004,-1.622891e-004
2.535705e-004,-1.695821e-004
2.574601e-004,-1.780095e-004
2.581083e-004,-1.854645e-004
2.689667e-004,-1.958367e-004
2.921420e-004,-2.063709e-004
3.136967e-004,-2.126914e-004
3.182346e-004,-2.135018e-004
3.042970e-004,-2.122053e-004
2.772320e-004,-2.135018e-004
2.357433e-004,-2.141500e-004
1.762653e-004,-2.091260e-004
1.041462e-004,-1.935677e-004
3.818565e-005,-1.643960e-004
4.800190e-006,-1.238797e-004
2.765140e-005,-7.850138e-005
1.065772e-004,-3.911951e-005
2.117576e-004,-1.416145e-005
2.987867e-004,-9.461558e-006
3.323342e-004,-1.886135e-005
3.077003e-004,-3.377136e-005
2.438466e-004,-4.155049e-005
1.692965e-004,-3.539201e-005
1.096565e-004,-1.934754e-005
7.789165e-005,-2.238346e-007
6.362991e-005,1.501031e-005
4.564065e-005,3.024445e-005
1.808955e-005,4.969229e-005
-1.432352e-005,7.643307e-005
-4.090223e-005,1.114392e-004
-4.997789e-005,1.488763e-004
-3.895745e-005,1.838824e-004
-1.643037e-005,2.104611e-004
9.106227e-007,2.248849e-004
-2.816880e-006,2.243987e-004
-3.182657e-005,2.164575e-004
-8.903562e-005,2.052750e-004
-1.862748e-004,1.961994e-004
-3.308371e-004,1.942546e-004
-5.039228e-004,2.015475e-004
-6.663122e-004,2.151610e-004
-7.876991e-004,2.292607e-004
-8.569010e-004,2.423880e-004
-8.763488e-004,2.543808e-004
-8.487977e-004,2.592428e-004
-7.787855e-004,2.530843e-004
-6.731189e-004,2.342847e-004
-5.373082e-004,2.067336e-004
-3.822118e-004,1.808031e-004
-2.235498e-004,1.618415e-004
-7.801519e-005,1.498487e-004
4.077869e-005,1.404489e-004
1.302388e-004,1.274836e-004
1.961994e-004,1.103047e-004
2.419018e-004,8.907416e-005
2.735045e-004,6.346784e-005
2.937627e-004,3.413401e-005
3.065659e-004,5.772582e-006
3.149933e-004,-1.659243e-005
3.185587e-004,-3.085418e-005
3.174242e-004,-4.057810e-005
3.166139e-004,-5.062615e-005
3.234207e-004,-6.359137e-005
3.363859e-004,-8.077030e-005
3.469201e-004,-9.697683e-005
3.493511e-004,-1.088076e-004
3.401134e-004,-1.120489e-004
3.162898e-004,-1.115627e-004
2.806354e-004,-1.135075e-004
2.394708e-004,-1.152902e-004
1.965235e-004,-1.104282e-004
1.524417e-004,-9.778715e-005
1.060910e-004,-7.947377e-005
6.055066e-005,-6.229485e-005
1.419998e-005,-5.046408e-005
-3.522994e-005,-4.462973e-005
-7.963584e-005,-4.252288e-005
-1.034594e-004,-4.171256e-005
-9.373552e-005,-4.268495e-005
-4.884343e-005,-4.657452e-005
2.035846e-005,-5.370539e-005
8.712937e-005,-6.391550e-005
1.289422e-004,-7.542214e-005
1.368834e-004,-8.547019e-005
1.132219e-004,-9.065628e-005
6.849186e-005,-9.162867e-005
2.003433e-005,-9.146661e-005
-1.399939e-005,-8.984595e-005
-2.064406e-005,-8.303922e-005
-3.951337e-006,-7.056019e-005
1.825161e-005,-5.678463e-005
3.251336e-005,-4.495386e-005
4.158902e-005,-3.198864e-005
5.228533e-005,-1.707863e-005
6.816773e-005,-1.682422e-006
8.826383e-005,1.452411e-005
1.101427e-004,2.586868e-005
1.315353e-004,3.154097e-005
1.556830e-004,3.251336e-005
1.906891e-004,2.878586e-005
2.448189e-004,2.165498e-005
3.141829e-004,9.013889e-006
3.806297e-004,-1.464765e-005
4.169324e-004,-4.916756e-005
4.015361e-004,-8.806324e-005
3.342791e-004,-1.118868e-004
2.325020e-004,-1.073490e-004
1.239182e-004,-8.012204e-005
3.202716e-005,-4.057810e-005
-2.728874e-005,2.531276e-006
-5.694670e-005,4.029250e-005
-7.590833e-005,6.492643e-005
-1.016767e-004,7.400208e-005
-1.371690e-004,7.659513e-005
-1.663408e-004,8.242948e-005
-1.700683e-004,9.231547e-005
-1.423551e-004,1.005808e-004
-9.827335e-005,1.052807e-004
-6.035007e-005,1.033359e-004
-3.895745e-005,9.733949e-005
-3.587821e-005,9.263960e-005
-4.479180e-005,9.571884e-005
-5.176061e-005,1.072255e-004
-4.949169e-005,1.218114e-004
-3.782299e-005,1.359110e-004
-1.740276e-005,1.396385e-004
7.069105e-006,1.291043e-004
2.603075e-005,1.077117e-004
3.656499e-005,8.712937e-005
3.786152e-005,7.400208e-005
1.971020e-005,7.124698e-005
-1.983374e-005,7.983644e-005
-8.887356e-005,9.490851e-005
-1.900023e-004,1.107909e-004
-3.027998e-004,1.210010e-004
-3.927460e-004,1.229458e-004
-4.259694e-004,1.182459e-004
-3.930701e-004,1.122495e-004
-3.086341e-004,1.080358e-004
-2.031296e-004,1.057669e-004
-1.125351e-004,1.025256e-004
-6.099833e-005,1.005808e-004
-5.305713e-005,1.007429e-004
-7.234290e-005,1.013911e-004
-9.632857e-005,1.028497e-004
-1.122110e-004,1.026876e-004
-1.115627e-004,9.571884e-005
-9.243900e-005,7.789165e-005
-5.953974e-005,4.953022e-005
-2.129233e-005,1.436204e-005
1.371378e-005,-2.048200e-005
4.061663e-005,-4.787104e-005
5.795762e-005,-6.407757e-005
6.946425e-005,-6.780507e-005
7.740546e-005,-6.245691e-005
7.983644e-005,-5.111234e-005
7.513654e-005,-3.652646e-005
6.071273e-005,-2.485776e-005
4.466826e-005,-1.967167e-005
3.445814e-005,-1.886135e-005
3.526847e-005,-2.113026e-005
5.001642e-005,-2.842320e-005
7.643307e-005,-3.798505e-005
1.054428e-004,-4.430560e-005
1.216493e-004,-4.560212e-005
1.237561e-004,-4.122636e-005
1.185701e-004,-2.842320e-005
1.133840e-004,-9.461558e-006
1.145184e-004,1.193106e-005
1.185701e-004,3.073064e-005
1.166253e-004,4.239934e-005
1.054428e-004,4.871989e-005
8.858796e-005,5.390598e-005
7.627100e-005,5.925414e-005
8.016057e-005,6.654708e-005
1.038221e-004,7.562274e-005
1.440143e-004,8.291568e-005
1.846927e-004,8.615699e-005
2.080301e-004,8.178122e-005
2.047888e-004,7.221937e-005
1.778860e-004,6.444023e-005
1.407730e-004,6.217132e-005
1.060910e-004,6.492643e-005
7.772959e-005,6.573675e-005
5.811968e-005,6.006447e-005
4.726130e-005,4.985435e-005
4.256141e-005,3.802358e-005
4.191315e-005,2.910999e-005
4.207521e-005,2.927205e-005
3.786152e-005,4.239934e-005
2.343770e-005,6.638502e-005
9.106227e-007,9.296373e-005
-3.069211e-005,1.150046e-004
-6.683268e-005,1.257009e-004
-9.843541e-005,1.187321e-004
-1.151281e-004,9.814982e-005
-1.092938e-004,7.416415e-005
-8.239095e-005,5.293359e-005
-4.835724e-005,3.737532e-005
-1.983374e-005,2.667901e-005
-3.465141e-006,1.922400e-005
-1.520357e-006,1.241726e-005
-7.354709e-006,8.041497e-006
-8.327101e-006,9.662150e-006
5.286387e-006,1.630683e-005
3.575467e-005,2.441009e-005
7.610894e-005,3.154097e-005
1.124116e-004,3.494434e-005
1.312112e-004,3.364782e-005
1.286181e-004,2.992031e-005
1.059290e-004,2.635488e-005
6.800567e-005,2.586868e-005
2.359977e-005,2.667901e-005
-1.529591e-005,2.651694e-005
-3.749886e-005,2.473423e-005
-3.182657e-005,2.262738e-005
4.244267e-007,2.133085e-005
3.996837e-005,2.068259e-005
5.828175e-005,1.971020e-005
2.700314e-005,1.938607e-005
-5.791909e-005,2.149292e-005
-1.684476e-004,2.505836e-005
-2.583939e-004,3.056858e-005
-2.896725e-004,3.850978e-005
-2.509389e-004,4.758544e-005
-1.611547e-004,5.147500e-005
-5.808115e-005,4.353380e-005
2.505836e-005,2.846173e-005
7.367795e-005,1.063454e-005
8.583286e-005,-3.789272e-006
6.784360e-005,-1.416145e-005
3.316162e-005,-2.372331e-005
-9.785688e-006,-3.328516e-005
-5.402952e-005,-4.333321e-005
-9.584238e-005,-5.208474e-005
-1.355484e-004,-6.132246e-005
-1.716889e-004,-7.250496e-005
-2.019951e-004,-8.725291e-005
-2.287359e-004,-1.047560e-004
-2.549905e-004,-1.250141e-004
-2.771934e-004,-1.431655e-004
-2.836761e-004,-1.566169e-004
-2.640662e-004,-1.650443e-004
-2.206326e-004,-1.682856e-004
-1.605064e-004,-1.637477e-004
-9.341139e-005,-1.517549e-004
-2.501983e-005,-1.310105e-004
4.094075e-005,-1.097800e-004
9.798775e-005,-9.341139e-005
1.389903e-004,-8.368748e-005
1.558451e-004,-7.931171e-005
1.516314e-004,-7.623246e-005
1.428799e-004,-6.715681e-005
1.462832e-004,-4.754691e-005
1.714034e-004,-2.015787e-005
2.140265e-004,6.258778e-006
2.595669e-004,2.262738e-005
2.919800e-004,2.165498e-005
2.961937e-004,9.175954e-006
2.757735e-004,-7.192643e-006
2.444948e-004,-2.015787e-005
2.209954e-004,-2.388537e-005
2.146748e-004,-1.464765e-005
2.222919e-004,5.610517e-006
2.312055e-004,3.380988e-005
2.312055e-004,6.930219e-005
2.269918e-004,1.080358e-004
2.229401e-004,1.425557e-004
2.167816e-004,1.654069e-004
2.020337e-004,1.756171e-004
1.790204e-004,1.782101e-004
1.582761e-004,1.757791e-004
1.519555e-004,1.710792e-004
1.611932e-004,1.701068e-004
1.773998e-004,1.746447e-004
1.855030e-004,1.783722e-004
1.830721e-004,1.783722e-004
1.769136e-004,1.767515e-004
1.748067e-004,1.822617e-004
1.746447e-004,1.953890e-004
1.746447e-004,2.080301e-004
1.697827e-004,2.161334e-004
1.503349e-004,2.164575e-004
1.153287e-004,2.090025e-004
7.448828e-005,1.999268e-004
4.596478e-005,1.932822e-004
4.466826e-005,1.874478e-004
7.400208e-005,1.808031e-004
1.242423e-004,1.762653e-004
1.830721e-004,1.749688e-004
2.342847e-004,1.739964e-004
2.623220e-004,1.683241e-004
2.600531e-004,1.542244e-004
2.303951e-004,1.329939e-004
1.748067e-004,1.065772e-004
8.858796e-005,7.643307e-005
-2.339918e-005,4.742337e-005
-1.392759e-004,2.376183e-005
-2.308428e-004,4.476060e-006
-2.682799e-004,-1.464765e-005
-2.462390e-004,-3.847125e-005
-1.712027e-004,-6.407757e-005
-6.634648e-005,-8.514606e-005
4.110282e-005,-9.908367e-005
1.239182e-004,-1.062146e-004
1.636242e-004,-1.089697e-004
1.547106e-004,-1.101041e-004
1.112771e-004,-1.135075e-004
6.103686e-005,-1.195039e-004
2.829966e-005,-1.313347e-004
2.522042e-005,-1.483515e-004
4.483033e-005,-1.653684e-004
7.124698e-005,-1.759026e-004
8.729144e-005,-1.780095e-004
8.372601e-005,-1.729855e-004
6.071273e-005,-1.639098e-004
1.387585e-005,-1.574272e-004
-6.310517e-005,-1.600202e-004
-1.776853e-004,-1.710407e-004
-3.243544e-004,-1.869231e-004
-4.812336e-004,-2.000504e-004
-6.102377e-004,-2.063709e-004
-6.783050e-004,-2.044261e-004
-6.737672e-004,-1.971332e-004
-6.113721e-004,-1.877334e-004
-5.322842e-004,-1.788198e-004
-4.656754e-004,-1.676373e-004
-4.168937e-004,-1.509446e-004
-3.742705e-004,-1.245279e-004
-3.279199e-004,-8.757704e-005
-2.807589e-004,-4.122636e-005
-2.527216e-004,9.824215e-006
-2.663351e-004,5.828175e-005
-3.344025e-004,9.701536e-005
-4.395829e-004,1.269974e-004
-5.429805e-004,1.482280e-004
-5.937069e-004,1.603829e-004
-5.481666e-004,1.655690e-004
-3.909633e-004,1.624898e-004
-1.517549e-004,1.516314e-004
1.049566e-004,1.386662e-004
3.143450e-004,1.347766e-004
4.307079e-004,1.391524e-004
4.448076e-004,1.516314e-004
3.772264e-004,1.668655e-004
2.668598e-004,1.843686e-004
1.560072e-004,2.046267e-004
7.821578e-005,2.250470e-004
4.742337e-005,2.393087e-004
5.585077e-005,2.433604e-004
8.664318e-005,2.363916e-004
1.201907e-004,2.243987e-004
1.430419e-004,2.122438e-004
1.574657e-004,2.007372e-004
1.712413e-004,1.913374e-004
1.903650e-004,1.840444e-004
2.166196e-004,1.762653e-004
2.511395e-004,1.629760e-004
2.931144e-004,1.398006e-004
3.344411e-004,1.117633e-004
3.632887e-004,8.631905e-005
3.689610e-004,6.476436e-005
3.493511e-004,4.612685e-005
3.106175e-004,3.024445e-005
2.634565e-004,2.230325e-005
2.221298e-004,2.619281e-005
1.945787e-004,3.397195e-005
1.788584e-004,3.769945e-005
1.673517e-004,3.445814e-005
1.560072e-004,2.700314e-005
1.500107e-004,1.727922e-005
1.529279e-004,6.420843e-006
1.586002e-004,-6.544382e-006
1.548727e-004,-2.501983e-005
1.385041e-004,-4.949169e-005
1.138702e-004,-7.850138e-005
8.777764e-005,-1.079973e-004
6.460230e-005,-1.337657e-004
4.596478e-005,-1.502963e-004
2.797553e-005,-1.562927e-004
1.063454e-005,-1.527273e-004
-5.247859e-006,-1.413827e-004
-2.113026e-005,-1.263107e-004
-3.847125e-005,-1.135075e-004
-5.159854e-005,-1.044318e-004
-5.402952e-005,-9.924574e-005
-4.495386e-005,-9.649064e-005
-2.631635e-005,-9.681477e-005
-2.238346e-007,-1.000561e-004
2.894792e-005,-1.036215e-004
5.633696e-005,-1.013526e-004
8.097089e-005,-8.968389e-005
1.036600e-004,-7.396356e-005
1.218114e-004,-6.018800e-005
1.378558e-004,-5.694670e-005
1.514693e-004,-6.586029e-005
1.595726e-004,-8.077030e-005
1.610312e-004,-9.243900e-005
1.634622e-004,-9.568031e-005
1.728619e-004,-8.854943e-005
1.871237e-004,-7.412562e-005
1.999268e-004,-5.921561e-005
2.077060e-004,-5.046408e-005
2.088404e-004,-4.884343e-005
2.044647e-004,-4.932962e-005
1.960373e-004,-4.770897e-005
1.799928e-004,-4.527799e-005
1.417454e-004,-4.138842e-005
7.481241e-005,-3.020592e-005
-1.318906e-005,-9.785688e-006
-1.144799e-004,1.290346e-005
-2.264670e-004,3.154097e-005
-3.308371e-004,4.369587e-005
-3.974459e-004,5.066468e-005
-4.102490e-004,6.136099e-005
-3.732982e-004,8.064677e-005
-3.087962e-004,1.078737e-004
-2.394322e-004,1.362352e-004
-1.814128e-004,1.582761e-004
-1.434896e-004,1.699448e-004
-1.263107e-004,1.725378e-004
-1.282554e-004,1.684862e-004
-1.447861e-004,1.616794e-004
-1.721751e-004,1.547106e-004
-2.024813e-004,1.519555e-004
-2.280877e-004,1.550348e-004
-2.420253e-004,1.636242e-004
-2.378116e-004,1.796687e-004
-2.107467e-004,2.004130e-004
-1.592099e-004,2.213195e-004
-9.211487e-005,2.367157e-004
-1.918548e-005,2.423880e-004
5.147500e-005,2.407673e-004
1.140322e-004,2.355812e-004
1.556830e-004,2.302331e-004
1.683241e-004,2.269918e-004
1.462832e-004,2.256952e-004
9.993253e-005,2.258573e-004
5.115087e-005,2.268297e-004
1.808955e-005,2.266676e-004
2.045080e-006,2.268297e-004
-4.113403e-006,2.271538e-004
-3.141010e-006,2.287745e-004
6.420843e-006,2.344468e-004
2.522042e-005,2.454672e-004
5.698522e-005,2.574601e-004
9.523264e-005,2.650771e-004
1.310491e-004,2.598910e-004
1.574657e-004,2.428742e-004
1.765894e-004,2.172679e-004
1.918236e-004,1.863134e-004
1.952270e-004,1.524417e-004
1.773998e-004,1.198666e-004
1.300767e-004,9.037068e-005
5.358185e-005,6.654708e-005
-3.668853e-005,4.288554e-005
-1.208004e-004,1.889987e-005
-1.828714e-004,-3.951337e-006
-2.091260e-004,-2.518189e-005
-1.956746e-004,-5.159854e-005
-1.434896e-004,-8.352541e-005
-6.407757e-005,-1.164247e-004
2.197911e-005,-1.462447e-004
9.377406e-005,-1.677994e-004
1.380179e-004,-1.812508e-004
1.547106e-004,-1.908126e-004
1.472556e-004,-1.994021e-004
1.146805e-004,-2.097743e-004
6.152305e-005,-2.229016e-004
1.072688e-006,-2.342462e-004
-4.965376e-005,-2.363530e-004
-7.574627e-005,-2.308428e-004
-7.056019e-005,-2.241981e-004
-3.928157e-005,-2.217671e-004
6.582909e-006,-2.214430e-004
5.212327e-005,-2.232257e-004
8.599492e-005,-2.272773e-004
1.007429e-004,-2.300324e-004
9.831188e-005,-2.241981e-004
9.166720e-005,-2.076674e-004
9.555677e-005,-1.872472e-004
1.192183e-004,-1.749302e-004
1.626518e-004,-1.762268e-004
2.177540e-004,-1.877334e-004
2.770700e-004,-2.049123e-004
3.336308e-004,-2.232257e-004
3.845193e-004,-2.361909e-004
4.239012e-004,-2.420253e-004
4.422146e-004,-2.407288e-004
4.268184e-004,-2.327876e-004
3.602095e-004,-2.250084e-004
2.252090e-004,-2.190120e-004
2.376183e-005,-2.091260e-004
-2.083157e-004,-1.890299e-004
-4.133283e-004,-1.549962e-004
-5.374703e-004,-1.126972e-004
-5.585388e-004,-6.618442e-005
-4.929024e-004,-1.805102e-005
-3.770257e-004,2.927205e-005
-2.511010e-004,7.432621e-005
-1.421931e-004,1.143563e-004
-6.213279e-005,1.433661e-004
-1.124428e-005,1.608691e-004
1.744129e-005,1.718896e-004
3.283749e-005,1.773998e-004
4.239934e-005,1.796687e-004
5.017848e-005,1.822617e-004
6.476436e-005,1.905271e-004
9.750156e-005,2.055991e-004
1.542244e-004,2.214815e-004
2.286124e-004,2.290986e-004
3.094830e-004,2.289366e-004
3.759298e-004,2.273159e-004
4.067223e-004,2.287745e-004
3.754436e-004,2.347709e-004
2.675081e-004,2.446569e-004
1.004187e-004,2.535705e-004
-7.979791e-005,2.581083e-004
-2.182017e-004,2.561635e-004
-2.804347e-004,2.500050e-004
-2.624455e-004,2.430362e-004
-1.885437e-004,2.333123e-004
-9.746302e-005,2.209954e-004
-1.869928e-005,2.036544e-004
3.640293e-005,1.809652e-004
7.367795e-005,1.532520e-004
1.018773e-004,1.242423e-004
1.255389e-004,9.977047e-005
1.445005e-004,8.242948e-005
1.548727e-004,7.205730e-005
1.480659e-004,6.687121e-005
1.197045e-004,6.768154e-005
7.675720e-005,7.594687e-005
2.781346e-005,9.263960e-005
-1.869928e-005,1.132219e-004
-4.835724e-005,1.297526e-004
-5.289507e-005,1.346145e-004
-3.717473e-005,1.211631e-004
-1.432352e-005,9.020862e-005
3.503668e-006,4.564065e-005
8.527692e-006,-1.844488e-006
-3.951337e-006,-4.219875e-005
-2.793700e-005,-7.234290e-005
-4.527799e-005,-9.227693e-005
-4.187462e-005,-1.020008e-004
-1.983374e-005,-1.024871e-004
5.286387e-006,-9.665270e-005
1.322759e-005,-9.017008e-005
-6.706447e-006,-8.465986e-005
-5.224680e-005,-8.125649e-005
-1.092938e-004,-7.882551e-005
-1.530514e-004,-7.558420e-005
-1.666649e-004,-7.137051e-005
-1.514308e-004,-7.072225e-005
-1.214487e-004,-7.882551e-005
-8.935975e-005,-9.389759e-005
-6.504996e-005,-1.067007e-004
-5.662256e-005,-1.110765e-004
-6.569822e-005,-1.068628e-004
-8.255302e-005,-1.005423e-004
-9.179074e-005,-9.908367e-005
-8.060823e-005,-1.016767e-004
-4.203669e-005,-1.052422e-004
2.392390e-005,-1.101041e-004
1.046324e-004,-1.173971e-004
1.817755e-004,-1.264727e-004
2.360674e-004,-1.311726e-004
2.542187e-004,-1.264727e-004
2.339606e-004,-1.128592e-004
1.850168e-004,-9.373552e-005
1.195424e-004,-7.218083e-005
5.358185e-005,-4.949169e-005
2.855407e-006,-2.858527e-005
-2.291298e-005,-1.399939e-005
-2.728874e-005,-3.141010e-006
-2.242678e-005,8.527692e-006
-2.534396e-005,2.473423e-005
-4.430560e-005,4.936815e-005
-7.769106e-005,7.691926e-005
-1.144799e-004,1.012291e-004
-1.433275e-004,1.200286e-004
-1.577513e-004,1.326697e-004
-1.598582e-004,1.417454e-004
-1.524032e-004,1.448246e-004
-1.349001e-004,1.440143e-004
-1.138316e-004,1.430419e-004
-9.308726e-005,1.464453e-004
-7.234290e-005,1.521176e-004
-5.224680e-005,1.610312e-004
-3.863332e-005,1.715654e-004
-4.057810e-005,1.822617e-004
-5.775702e-005,1.936063e-004
-7.947377e-005,2.055991e-004
-9.130454e-005,2.161334e-004
-7.833932e-005,2.252090e-004
-4.090223e-005,2.305572e-004
4.638125e-006,2.273159e-004
4.969229e-005,2.154851e-004
9.231547e-005,1.963614e-004
1.339663e-004,1.775618e-004
1.757791e-004,1.665414e-004
2.195368e-004,1.654069e-004
2.647530e-004,1.705930e-004
3.094830e-004,1.756171e-004
3.532407e-004,1.749688e-004
3.929467e-004,1.671896e-004
4.229288e-004,1.513072e-004
4.339493e-004,1.282940e-004
4.174185e-004,1.022015e-004
3.759298e-004,7.789165e-005
3.239069e-004,5.779555e-005
2.741528e-004,4.402000e-005
2.192126e-004,3.883391e-005
1.357490e-004,3.899597e-005
1.558884e-006,3.996837e-005
-1.818991e-004,3.591673e-005
-3.872358e-004,2.894792e-005
-5.627525e-004,2.295151e-005
-6.604778e-004,1.857574e-005
-6.608020e-004,1.257933e-005
-5.702075e-004,9.106227e-007
-4.175420e-004,-1.675450e-005
-2.436459e-004,-3.749886e-005
-7.898758e-005,-5.856735e-005
5.844381e-005,-8.060823e-005
1.644345e-004,-1.029732e-004
2.394708e-004,-1.232314e-004
2.863077e-004,-1.417068e-004
3.086727e-004,-1.538618e-004
3.036487e-004,-1.577513e-004
2.701012e-004,-1.553203e-004
2.213195e-004,-1.483515e-004
1.780480e-004,-1.384655e-004
1.519555e-004,-1.269589e-004
1.453108e-004,-1.199901e-004
1.511452e-004,-1.196660e-004
1.589243e-004,-1.259865e-004
1.621656e-004,-1.344139e-004
1.527658e-004,-1.421931e-004
1.316974e-004,-1.452723e-004
1.080358e-004,-1.467309e-004
9.442231e-005,-1.470550e-004
9.523264e-005,-1.475412e-004
9.685330e-005,-1.457585e-004
7.708133e-005,-1.379794e-004
1.144487e-005,-1.259865e-004
-1.078352e-004,-1.162626e-004
-2.583939e-004,-1.139937e-004
-3.942046e-004,-1.196660e-004
-4.779923e-004,-1.334415e-004
-4.980884e-004,-1.512687e-004
-4.612996e-004,-1.684476e-004
-3.886944e-004,-1.750923e-004
-3.113892e-004,-1.671511e-004
-2.455907e-004,-1.418689e-004
-1.849783e-004,-1.042698e-004
-1.229073e-004,-6.132246e-005
-6.213279e-005,-2.064406e-005
-1.351319e-005,1.306552e-005
1.322759e-005,3.769945e-005
1.452411e-005,5.520250e-005
7.485573e-007,6.849186e-005
-1.173047e-005,8.097089e-005
-1.682422e-006,9.231547e-005
4.855783e-005,1.012291e-004
1.376938e-004,1.073875e-004
2.433604e-004,1.132219e-004
3.352514e-004,1.216493e-004
3.877606e-004,1.333180e-004
3.940812e-004,1.467694e-004
3.694472e-004,1.600588e-004
3.352514e-004,1.694586e-004
3.000832e-004,1.733481e-004
2.618358e-004,1.728619e-004
2.166196e-004,1.671896e-004
1.665414e-004,1.573037e-004
1.169494e-004,1.469315e-004
7.870197e-005,1.391524e-004
5.941620e-005,1.352628e-004
6.184718e-005,1.360731e-004
8.664318e-005,1.427178e-004
1.278078e-004,1.540623e-004
1.743205e-004,1.673517e-004
2.159713e-004,1.799928e-004
2.427121e-004,1.900409e-004
2.482223e-004,1.927960e-004
2.295848e-004,1.864754e-004
1.905271e-004,1.782101e-004
1.420695e-004,1.717275e-004
9.555677e-005,1.692965e-004
5.698522e-005,1.694586e-004
2.813760e-005,1.712413e-004
9.175954e-006,1.748067e-004
7.485573e-007,1.780480e-004
4.151929e-006,1.738343e-004
1.582063e-005,1.616794e-004
2.781346e-005,1.443384e-004
3.299956e-005,1.240803e-004
3.024445e-005,1.020394e-004
1.549650e-005,7.821578e-005
-1.124428e-005,5.585077e-005
-4.803310e-005,3.251336e-005
-7.947377e-005,4.962256e-006
-9.211487e-005,-3.231277e-005
-8.514606e-005,-8.028410e-005
-7.039812e-005,-1.310105e-004
-6.472583e-005,-1.739578e-004
-8.028410e-005,-2.032917e-004
-1.195039e-004,-2.194982e-004
-1.807646e-004,-2.269532e-004
-2.499665e-004,-2.292221e-004
-3.039342e-004,-2.250084e-004
-3.207890e-004,-2.162569e-004
-2.946965e-004,-2.049123e-004
-2.365151e-004,-1.930815e-004
-1.632615e-004,-1.796301e-004
-9.260107e-005,-1.645581e-004
-3.490581e-005,-1.480274e-004
5.124321e-006,-1.334415e-004
2.586868e-005,-1.230693e-004
3.672706e-005,-1.144799e-004
4.434413e-005,-1.016767e-004
4.645098e-005,-8.449780e-005
3.624086e-005,-6.699475e-005
7.555301e-006,-5.629844e-005
-4.155049e-005,-4.997789e-005
-1.023250e-004,-4.544006e-005
-1.496481e-004,-4.090223e-005
-1.504584e-004,-3.636440e-005
-9.017008e-005,-3.490581e-005
1.922400e-005,-3.798505e-005
1.386662e-004,-4.138842e-005
2.308813e-004,-3.652646e-005
2.733424e-004,-1.983374e-005
2.692908e-004,1.720949e-006
2.375260e-004,2.570662e-005
1.974959e-004,4.645098e-005
1.584381e-004,6.525056e-005
1.140322e-004,8.145709e-005
4.337174e-005,9.750156e-005
-6.391550e-005,1.086841e-004
-1.934057e-004,1.122495e-004
-3.206269e-004,1.130598e-004
-4.185144e-004,1.119254e-004
-4.687546e-004,1.104668e-004
-4.668098e-004,1.130598e-004
-4.227281e-004,1.257009e-004
-3.523917e-004,1.495245e-004
-2.754107e-004,1.783722e-004
-2.099363e-004,2.073819e-004
-1.643960e-004,2.323399e-004
-1.347380e-004,2.487085e-004
-1.118868e-004,2.547049e-004
-8.158062e-005,2.525981e-004
-3.134038e-005,2.470879e-004
4.320967e-005,2.440086e-004
1.368834e-004,2.443328e-004
2.326641e-004,2.470879e-004
3.107795e-004,2.459534e-004
3.566440e-004,2.378501e-004
3.629646e-004,2.263435e-004
3.268240e-004,2.154851e-004
2.548670e-004,2.080301e-004
1.615174e-004,2.046267e-004
6.541262e-005,2.012234e-004
-1.399939e-005,1.950649e-004
-6.326724e-005,1.859892e-004
-6.861539e-005,1.746447e-004
-3.085418e-005,1.634622e-004
3.364782e-005,1.586002e-004
1.013911e-004,1.600588e-004
1.574657e-004,1.636242e-004
1.970097e-004,1.647587e-004
2.145127e-004,1.579519e-004
2.112714e-004,1.427178e-004
1.958752e-004,1.195424e-004
1.765894e-004,8.826383e-005
1.584381e-004,5.196120e-005
1.423936e-004,1.582063e-005
1.331559e-004,-1.853722e-005
1.265113e-004,-5.127441e-005
1.167873e-004,-8.239095e-005
1.034980e-004,-1.107524e-004
9.263960e-005,-1.361966e-004
8.858796e-005,-1.580754e-004
9.507057e-005,-1.762268e-004
1.117633e-004,-1.898403e-004
1.265113e-004,-2.036158e-004
1.190562e-004,-2.169052e-004
7.675720e-005,-2.277635e-004
1.883015e-006,-2.350565e-004
-8.757704e-005,-2.376495e-004
-1.572651e-004,-2.321393e-004
-1.815749e-004,-2.209568e-004
-1.545100e-004,-2.057227e-004
-8.579432e-005,-1.922712e-004
5.934648e-006,-1.836818e-004
9.782569e-005,-1.794681e-004
1.741585e-004,-1.762268e-004
2.240746e-004,-1.682856e-004
2.500050e-004,-1.532135e-004
2.619979e-004,-1.387897e-004
2.642668e-004,-1.332795e-004
2.509774e-004,-1.365208e-004
2.211574e-004,-1.412206e-004
1.824238e-004,-1.413827e-004
1.438522e-004,-1.376552e-004
1.112771e-004,-1.306864e-004
8.421220e-005,-1.240417e-004
5.957827e-005,-1.157764e-004
3.656499e-005,-1.057284e-004
1.403791e-005,-9.162867e-005
-1.254080e-005,-7.477388e-005
-4.851930e-005,-5.629844e-005
-9.486997e-005,-3.652646e-005
-1.459206e-004,-8.813297e-006
-1.885437e-004,2.894792e-005
-1.985918e-004,7.173317e-005
-1.626133e-004,1.093323e-004
-9.892161e-005,1.346145e-004
-4.349527e-005,1.446626e-004
-2.161646e-005,1.433661e-004
-3.620233e-005,1.363972e-004
-7.104638e-005,1.287802e-004
-1.023250e-004,1.245665e-004
-1.164247e-004,1.284560e-004
-1.086455e-004,1.402868e-004
-8.757704e-005,1.540623e-004
-6.359137e-005,1.660552e-004
-4.025397e-005,1.778860e-004
-1.772689e-005,1.939304e-004
3.665733e-006,2.086784e-004
2.538249e-005,2.174299e-004
4.564065e-005,2.148369e-004
6.103686e-005,2.047888e-004
7.902610e-005,1.966855e-004
1.075496e-004,1.887444e-004
1.464453e-004,1.791825e-004
1.861513e-004,1.629760e-004
2.158093e-004,1.453108e-004
2.232643e-004,1.300767e-004
2.047888e-004,1.200286e-004
1.631380e-004,1.179218e-004
1.081979e-004,1.252147e-004
5.439218e-005,1.388282e-004
1.614476e-005,1.547106e-004
7.485573e-007,1.668655e-004
1.598270e-005,1.696206e-004
6.265751e-005,1.605450e-004
1.192183e-004,1.446626e-004
1.564933e-004,1.263492e-004
1.590864e-004,1.086841e-004
1.336421e-004,8.988449e-005
8.583286e-005,6.978839e-005
1.322759e-005,4.742337e-005
-8.595638e-005,2.700314e-005
-2.058847e-004,1.306552e-005
-3.316474e-004,5.124321e-006
-4.515757e-004,4.244267e-007
-5.502735e-004,-8.489166e-006
-6.086170e-004,-2.777494e-005
-6.078067e-004,-5.321920e-005
-5.410357e-004,-7.639453e-005
-4.149489e-004,-9.308726e-005
-2.460769e-004,-1.078352e-004
-6.602235e-005,-1.271210e-004
8.226741e-005,-1.533756e-004
1.680000e-004,-1.827094e-004
1.840444e-004,-2.073433e-004
1.521176e-004,-2.196603e-004
1.116012e-004,-2.154466e-004
9.490851e-005,-1.984297e-004
1.120874e-004,-1.760647e-004
1.495245e-004,-1.541859e-004
1.837203e-004,-1.381414e-004
1.968476e-004,-1.305243e-004
1.825859e-004,-1.295519e-004
1.406109e-004,-1.287416e-004
8.518459e-005,-1.229073e-004
2.943412e-005,-1.101041e-004
-1.448558e-005,-9.422172e-005
-3.782299e-005,-8.158062e-005
-4.155049e-005,-7.882551e-005
-3.150244e-005,-8.644259e-005
-1.497178e-005,-9.778715e-005
3.179537e-006,-1.079973e-004
1.306552e-005,-1.165867e-004
8.689758e-006,-1.245279e-004
-5.247859e-006,-1.316588e-004
-1.805102e-005,-1.391138e-004
-1.902341e-005,-1.473791e-004
-5.571990e-006,-1.519170e-004
2.084466e-005,-1.465688e-004
5.439218e-005,-1.250141e-004
8.761557e-005,-8.725291e-005
1.213252e-004,-3.992984e-005
1.620036e-004,5.286387e-006
2.088404e-004,4.077869e-005
2.522740e-004,6.492643e-005
2.838767e-004,8.161915e-005
2.918179e-004,9.377406e-005
2.632944e-004,1.047945e-004
1.960373e-004,1.148425e-004
1.026876e-004,1.203528e-004
4.800190e-006,1.198666e-004
-7.461182e-005,1.169494e-004
-1.180453e-004,1.174356e-004
-1.198280e-004,1.218114e-004
-8.935975e-005,1.276457e-004
-3.717473e-005,1.336421e-004
2.408596e-005,1.414213e-004
8.356394e-005,1.506590e-004
1.295905e-004,1.633001e-004
1.556830e-004,1.757791e-004
1.628139e-004,1.838824e-004
1.573037e-004,1.890685e-004
1.436902e-004,1.885823e-004
1.242423e-004,1.898788e-004
9.588091e-005,1.991165e-004
6.298164e-005,2.195368e-004
3.818565e-005,2.477361e-004
3.267542e-005,2.751252e-004
4.320967e-005,2.931144e-004
5.763349e-005,2.981384e-004
5.552663e-005,2.926282e-004
1.630683e-005,2.811216e-004
-6.683268e-005,2.712356e-004
-1.780095e-004,2.607014e-004
-2.848105e-004,2.453052e-004
-3.579019e-004,2.273159e-004
-3.916115e-004,2.078681e-004
-3.898288e-004,1.900409e-004
-3.598467e-004,1.769136e-004
-3.092824e-004,1.691344e-004
-2.523975e-004,1.616794e-004
-1.976194e-004,1.503349e-004
-1.470550e-004,1.313732e-004
-9.422172e-005,1.072255e-004
-3.798505e-005,8.583286e-005
2.473423e-005,6.946425e-005
9.458438e-005,5.196120e-005
1.702689e-004,2.781346e-005
2.448189e-004,-1.682422e-006
3.111037e-004,-2.696461e-005
3.546993e-004,-3.928157e-005
3.718782e-004,-3.798505e-005
3.666921e-004,-3.215070e-005
3.404375e-004,-3.182657e-005
2.846870e-004,-4.155049e-005
1.926339e-004,-5.646050e-005
6.881599e-005,-7.169464e-005
-6.359137e-005,-8.384954e-005
-1.749302e-004,-9.324933e-005
-2.395943e-004,-1.054042e-004
-2.402425e-004,-1.227452e-004
-1.786577e-004,-1.412206e-004
-7.720486e-005,-1.540238e-004
2.197911e-005,-1.574272e-004
7.708133e-005,-1.525652e-004
7.011252e-005,-1.462447e-004
1.176900e-005,-1.438137e-004
-7.655660e-005,-1.426792e-004
-1.747682e-004,-1.384655e-004
-2.692523e-004,-1.321450e-004
-3.455850e-004,-1.242038e-004
-3.812394e-004,-1.152902e-004
-3.580640e-004,-1.073490e-004
-2.780038e-004,-1.057284e-004
-1.608306e-004,-1.089697e-004
-3.668853e-005,-1.089697e-004
6.411610e-005,-1.018388e-004
1.227837e-004,-8.563225e-005
1.415833e-004,-5.856735e-005
1.370455e-004,-2.177852e-005
1.279698e-004,1.954813e-005
1.305629e-004,5.990240e-005
1.522796e-004,9.263960e-005
1.877720e-004,1.156529e-004
2.250470e-004,1.258630e-004
2.537325e-004,1.237561e-004
2.688046e-004,1.107909e-004
2.738286e-004,9.247754e-005
2.723701e-004,7.724339e-005
2.696149e-004,6.832980e-005
2.738286e-004,6.492643e-005
2.869559e-004,6.541262e-005
2.992729e-004,7.108491e-005
2.991108e-004,8.129502e-005
2.816078e-004,9.669123e-005
2.535705e-004,1.132219e-004
2.310434e-004,1.269974e-004
2.359054e-004,1.357490e-004
2.788527e-004,1.393144e-004
3.503235e-004,1.368834e-004
4.222805e-004,1.265113e-004
4.645796e-004,1.083599e-004
4.600418e-004,8.518459e-005
4.128807e-004,5.714729e-005
3.352514e-004,2.489629e-005
2.359054e-004,-5.734056e-006
1.266733e-004,-2.826114e-005
2.343770e-005,-3.928157e-005
-5.143648e-005,-4.025397e-005
-8.174268e-005,-3.863332e-005
-6.926366e-005,-4.349527e-005
-3.296103e-005,-5.889148e-005
-2.978945e-006,-8.109443e-005
-7.192643e-006,-1.026491e-004
-5.921561e-005,-1.175591e-004
-1.488377e-004,-1.263107e-004
-2.506147e-004,-1.316588e-004
-3.345645e-004,-1.363587e-004
-3.904771e-004,-1.397621e-004
-4.267797e-004,-1.413827e-004
-4.596790e-004,-1.446240e-004
-5.082985e-004,-1.496481e-004
-5.787970e-004,-1.535376e-004
-6.489712e-004,-1.528894e-004
-6.784671e-004,-1.438137e-004
-6.335750e-004,-1.238797e-004
-5.147812e-004,-9.405965e-005
-3.522297e-004,-5.694670e-005
-1.869231e-004,-1.529591e-005
-4.722278e-005,2.424803e-005
5.828175e-005,5.358185e-005
1.291043e-004,7.221937e-005
1.631380e-004,8.129502e-005
1.608691e-004,8.145709e-005
1.297526e-004,7.059871e-005
8.502253e-005,5.196120e-005
4.969229e-005,3.299956e-005
3.834771e-005,1.760335e-005
5.277153e-005,7.879432e-006
8.907416e-005,-3.858999e-007
1.342904e-004,-1.010982e-005
1.775618e-004,-1.950961e-005
2.104611e-004,-2.680255e-005
2.310434e-004,-2.890940e-005
2.363916e-004,-2.404744e-005
2.266676e-004,-1.707863e-005
2.051129e-004,-1.140634e-005
1.777239e-004,-7.030578e-006
1.498487e-004,-3.627206e-006
1.269974e-004,-1.844488e-006
1.124116e-004,1.072688e-006
1.059290e-004,7.393236e-006
1.056048e-004,1.274139e-005
1.026876e-004,1.371378e-005
8.729144e-005,1.322759e-005
5.293359e-005,1.938607e-005
9.013889e-006,3.445814e-005
-3.020592e-005,5.115087e-005
-5.013995e-005,6.768154e-005
-4.414354e-005,8.307774e-005
-1.643037e-005,9.863601e-005
2.116879e-005,1.122495e-004
6.395404e-005,1.190562e-004
1.007429e-004,1.171115e-004
1.203528e-004,1.135460e-004
1.258630e-004,1.145184e-004
1.187321e-004,1.234320e-004
1.012291e-004,1.373696e-004
7.659513e-005,1.526038e-004
4.888196e-005,1.670276e-004
2.165498e-005,1.809652e-004
-8.720959e-007,1.939304e-004
-1.513384e-005,2.059233e-004
-2.339918e-005,2.169437e-004
-3.198864e-005,2.237505e-004
-4.381940e-005,2.256952e-004
-6.083626e-005,2.235884e-004
-8.060823e-005,2.154851e-004
-9.632857e-005,2.036544e-004
-9.454585e-005,1.911753e-004
-6.780507e-005,1.853410e-004
-2.048200e-005,1.902029e-004
3.737532e-005,2.012234e-004
9.312580e-005,2.107852e-004
1.279698e-004,2.140265e-004
1.227837e-004,2.114335e-004
7.627100e-005,2.052750e-004
2.207145e-006,1.955511e-004
-7.250496e-005,1.833962e-004
-1.199901e-004,1.743205e-004
-1.340898e-004,1.668655e-004
-1.240417e-004,1.592484e-004
-1.037836e-004,1.551968e-004
-9.649064e-005,1.545486e-004
-1.167488e-004,1.555210e-004
-1.648822e-004,1.592484e-004
-2.199844e-004,1.623277e-004
-2.545043e-004,1.598967e-004
-2.520733e-004,1.454729e-004
-2.118811e-004,1.164632e-004
-1.433275e-004,7.886404e-005
-6.359137e-005,4.126489e-005
1.614476e-005,1.014835e-005
8.777764e-005,-1.318906e-005
1.457970e-004,-3.474375e-005
1.838824e-004,-5.905355e-005
2.033302e-004,-8.498399e-005
2.205092e-004,-1.086455e-004
2.543808e-004,-1.313347e-004
3.010556e-004,-1.548341e-004
3.248792e-004,-1.778474e-004
2.929524e-004,-1.942160e-004
1.939304e-004,-2.055606e-004
4.418206e-005,-2.154466e-004
-1.130213e-004,-2.254946e-004
-2.292221e-004,-2.310048e-004
-2.807589e-004,-2.292221e-004
-2.801106e-004,-2.217671e-004
-2.664971e-004,-2.149604e-004
-2.741142e-004,-2.110708e-004
-3.138202e-004,-2.104225e-004
-3.655190e-004,-2.100984e-004
-3.984183e-004,-2.062088e-004
-3.969597e-004,-1.942160e-004
-3.666535e-004,-1.763888e-004
-3.156029e-004,-1.574272e-004
-2.442942e-004,-1.417068e-004
-1.627754e-004,-1.258245e-004
-8.822530e-005,-1.060525e-004
-3.231277e-005,-8.384954e-005
3.179537e-006,-6.197072e-005
2.295151e-005,-4.446767e-005
3.073064e-005,-3.668853e-005
3.494434e-005,-4.057810e-005
4.029250e-005,-5.159854e-005
4.871989e-005,-6.099833e-005
6.152305e-005,-6.456377e-005
8.275361e-005,-6.359137e-005
1.150046e-004,-6.035007e-005
1.526038e-004,-5.370539e-005
1.889064e-004,-4.236082e-005
