-4.279142e-004,-2.329496e-004
-3.767015e-004,-2.058847e-004
-2.964792e-004,-1.757406e-004
-1.912988e-004,-1.486757e-004
-7.736692e-005,-1.274451e-004
2.084466e-005,-1.109144e-004
7.708133e-005,-9.616651e-005
7.432621e-005,-7.931171e-005
2.489629e-005,-5.743289e-005
-3.717473e-005,-3.198864e-005
-7.688073e-005,-8.165035e-006
-7.623246e-005,7.069105e-006
-3.263690e-005,1.436204e-005
4.450620e-005,1.760335e-005
1.373696e-004,2.927205e-005
2.302331e-004,5.828175e-005
3.078624e-004,1.070634e-004
3.572923e-004,1.684862e-004
3.647473e-004,2.396328e-004
3.169380e-004,3.410858e-004
1.971717e-004,4.845136e-004
1.072688e-006,6.535479e-004
-2.603387e-004,8.214476e-004
-5.656697e-004,9.679549e-004
-8.841280e-004,1.074432e-003
-1.159801e-003,1.119810e-003
-1.327701e-003,1.092097e-003
-1.344880e-003,9.961543e-004
-1.205990e-003,8.446231e-004
-9.416611e-004,6.524134e-004
-6.113721e-004,4.318424e-004
-2.856209e-004,1.926339e-004
-2.226472e-005,-6.197072e-005
1.573037e-004,-3.298647e-004
2.598910e-004,-6.044033e-004
3.025142e-004,-8.765109e-004
2.986247e-004,-1.130953e-003
2.509774e-004,-1.344718e-003
1.547106e-004,-1.498680e-003
8.041497e-006,-1.581333e-003
-1.770371e-004,-1.595271e-003
-3.715154e-004,-1.550541e-003
-5.295291e-004,-1.461405e-003
-6.073205e-004,-1.340666e-003
-5.846313e-004,-1.195293e-003
-4.682684e-004,-1.028042e-003
-2.972895e-004,-8.447461e-004
-1.199901e-004,-6.530228e-004
2.181705e-005,-4.629203e-004
1.104668e-004,-2.857829e-004
1.500107e-004,-1.266348e-004
1.600588e-004,1.257933e-005
1.644345e-004,1.344524e-004
1.869616e-004,2.383363e-004
2.547049e-004,3.192070e-004
3.888950e-004,3.736609e-004
5.778633e-004,4.075326e-004
7.848209e-004,4.310321e-004
9.587171e-004,4.527488e-004
1.056281e-003,4.867825e-004
1.060170e-003,5.448020e-004
9.862683e-004,6.250244e-004
8.692570e-004,7.058950e-004
7.481941e-004,7.665075e-004
6.456067e-004,8.005413e-004
5.653843e-004,8.097790e-004
5.002340e-004,7.867657e-004
4.470765e-004,7.229118e-004
4.138531e-004,6.182176e-004
4.106118e-004,4.837033e-004
4.381629e-004,3.326584e-004
4.754380e-004,1.908512e-004
4.892136e-004,8.988449e-005
4.446456e-004,4.369587e-005
3.081865e-004,4.029250e-005
6.573675e-005,5.747142e-005
-2.478596e-004,7.999851e-005
-5.578905e-004,1.000946e-004
-7.974231e-004,1.184080e-004
-9.128135e-004,1.438522e-004
-8.718110e-004,1.906891e-004
-6.888393e-004,2.594049e-004
-4.225660e-004,3.451374e-004
-1.436516e-004,4.370285e-004
9.814982e-005,5.175750e-004
2.803113e-004,5.632775e-004
3.940812e-004,5.553362e-004
4.380009e-004,4.888894e-004
4.157979e-004,3.744712e-004
3.397893e-004,2.417397e-004
2.344468e-004,1.198666e-004
1.216493e-004,2.084466e-005
1.695509e-005,-4.884343e-005
-6.391550e-005,-8.692878e-005
-1.063766e-004,-9.357346e-005
-1.049180e-004,-7.380149e-005
-6.715681e-005,-4.187462e-005
-1.367526e-005,-1.788895e-005
4.110282e-005,-2.631635e-005
9.523264e-005,-8.012204e-005
1.488763e-004,-1.718510e-004
2.044647e-004,-2.780038e-004
2.650771e-004,-3.773498e-004
3.286068e-004,-4.577342e-004
3.887330e-004,-5.168880e-004
4.336251e-004,-5.559457e-004
4.417284e-004,-5.797693e-004
3.948915e-004,-5.899795e-004
2.994350e-004,-5.836589e-004
1.846927e-004,-5.533527e-004
8.891209e-005,-5.027883e-004
3.186510e-005,-4.429862e-004
8.527692e-006,-3.872358e-004
3.017472e-006,-3.462333e-004
6.582909e-006,-3.217614e-004
1.209313e-005,-3.081479e-004
1.598270e-005,-2.943724e-004
2.116879e-005,-2.734659e-004
3.299956e-005,-2.425115e-004
5.001642e-005,-1.982676e-004
6.379197e-005,-1.438137e-004
6.670914e-005,-8.757704e-005
5.585077e-005,-3.976777e-005
3.397195e-005,-3.465141e-006
1.403791e-005,2.489629e-005
3.179537e-006,5.844381e-005
1.209313e-005,1.252147e-004
4.483033e-005,2.537325e-004
9.652917e-005,4.443214e-004
1.566554e-004,6.679717e-004
2.149989e-004,8.815739e-004
2.681563e-004,1.043639e-003
3.209897e-004,1.133910e-003
3.785229e-004,1.154330e-003
4.392974e-004,1.116407e-003
4.942376e-004,1.032943e-003
5.310264e-004,9.160939e-004
5.511225e-004,7.742866e-004
5.543638e-004,6.154625e-004
5.566327e-004,4.409181e-004
5.736496e-004,2.478982e-004
5.903424e-004,3.948217e-005
5.639257e-004,-1.728234e-004
4.451317e-004,-3.671397e-004
2.190506e-004,-5.225603e-004
-7.282909e-005,-6.267683e-004
-3.562813e-004,-6.742534e-004
-5.721523e-004,-6.616123e-004
-6.943495e-004,-5.870623e-004
-7.186593e-004,-4.587066e-004
-6.457299e-004,-2.927517e-004
-4.888507e-004,-1.131834e-004
-3.118754e-004,5.552663e-005
-2.100984e-004,1.887444e-004
-2.780038e-004,2.733424e-004
-5.847933e-004,3.159656e-004
-1.163691e-003,3.346032e-004
-1.991196e-003,3.483787e-004
-2.956297e-003,3.642611e-004
-3.860463e-003,3.728506e-004
-4.457029e-003,3.558337e-004
-4.541628e-003,3.042970e-004
-4.056887e-003,2.290986e-004
-3.129707e-003,1.464453e-004
-2.004972e-003,7.254349e-005
-9.429576e-004,1.533444e-005
-1.285796e-004,-2.712668e-005
3.689610e-004,-5.856735e-005
6.010387e-004,-8.060823e-005
6.752646e-004,-9.405965e-005
6.909850e-004,-1.000561e-004
7.138362e-004,-9.908367e-005
7.691005e-004,-9.486997e-005
8.459196e-004,-8.190475e-005
9.188490e-004,-5.159854e-005
9.640653e-004,3.503668e-006
9.737893e-004,8.729144e-005
9.532070e-004,1.927960e-004
9.173905e-004,3.072141e-004
8.789809e-004,4.195254e-004
8.462437e-004,5.238955e-004
8.253373e-004,6.211348e-004
8.199891e-004,7.101087e-004
8.310095e-004,7.875760e-004
8.517539e-004,8.444610e-004
8.699053e-004,8.724983e-004
8.734707e-004,8.614778e-004
8.618020e-004,8.036205e-004
8.379783e-004,6.973055e-004
7.990826e-004,5.512846e-004
7.456010e-004,3.858158e-004
6.841783e-004,2.255332e-004
6.243761e-004,8.842590e-005
5.687877e-004,-1.562004e-005
5.166026e-004,-8.773911e-005
4.689553e-004,-1.321450e-004
4.475628e-004,-1.533756e-004
4.861343e-004,-1.588858e-004
5.971491e-004,-1.575893e-004
7.535422e-004,-1.596961e-004
9.013460e-004,-1.759026e-004
9.865924e-004,-2.112329e-004
9.776788e-004,-2.572594e-004
8.784947e-004,-3.040963e-004
7.177258e-004,-3.454229e-004
5.375090e-004,-3.801049e-004
3.786850e-004,-4.060354e-004
2.704253e-004,-4.206212e-004
2.227781e-004,-4.246728e-004
2.331503e-004,-4.207833e-004
2.861456e-004,-4.115456e-004
3.569682e-004,-3.966356e-004
4.224426e-004,-3.767015e-004
4.649037e-004,-3.561192e-004
4.691174e-004,-3.412093e-004
4.051016e-004,-3.329439e-004
2.308813e-004,-3.314853e-004
-7.558420e-005,-3.381300e-004
-5.048952e-004,-3.481781e-004
-1.014104e-003,-3.593606e-004
-1.520558e-003,-3.692465e-004
-1.912432e-003,-3.697327e-004
-2.089084e-003,-3.585502e-004
-1.992493e-003,-3.366714e-004
-1.625091e-003,-3.084721e-004
-1.058186e-003,-2.810830e-004
-4.198109e-004,-2.561249e-004
1.522796e-004,-2.376495e-004
5.689497e-004,-2.250084e-004
8.182063e-004,-2.147983e-004
9.340832e-004,-2.032917e-004
9.676307e-004,-1.882196e-004
9.575827e-004,-1.676373e-004
9.220903e-004,-1.454344e-004
8.749293e-004,-1.279313e-004
8.224201e-004,-1.198280e-004
7.734763e-004,-1.243659e-004
7.332841e-004,-1.412206e-004
6.945504e-004,-1.648822e-004
6.494962e-004,-1.867610e-004
5.994180e-004,-2.011848e-004
5.514466e-004,-2.037779e-004
5.120648e-004,-1.985918e-004
4.815964e-004,-1.912988e-004
4.542074e-004,-1.833576e-004
4.271425e-004,-1.737958e-004
4.047775e-004,-1.611547e-004
3.858158e-004,-1.442999e-004
3.579406e-004,-1.227452e-004
3.072141e-004,-9.616651e-005
2.299089e-004,-6.715681e-005
1.352628e-004,-4.074016e-005
4.013043e-005,-1.643037e-005
-3.911951e-005,7.393236e-006
-9.405965e-005,3.218923e-005
-1.311726e-004,5.747142e-005
-1.614788e-004,8.113296e-005
-1.956746e-004,1.009049e-004
-2.433218e-004,1.169494e-004
-3.034480e-004,1.333180e-004
-3.642225e-004,1.522796e-004
-4.164075e-004,1.757791e-004
-4.595169e-004,2.020337e-004
-5.005194e-004,2.231022e-004
-5.446012e-004,2.339606e-004
-5.838210e-004,2.362295e-004
-6.022964e-004,2.346088e-004
-5.758798e-004,2.325020e-004
-4.920920e-004,2.276400e-004
-3.596847e-004,2.198609e-004
-1.955125e-004,2.104611e-004
-1.821308e-005,1.968476e-004
1.441764e-004,1.782101e-004
2.537325e-004,1.602208e-004
2.859836e-004,1.519555e-004
2.433604e-004,1.542244e-004
1.560072e-004,1.611932e-004
5.909208e-005,1.746447e-004
-2.728874e-005,1.911753e-004
-1.055663e-004,2.051129e-004
-1.959987e-004,2.107852e-004
-3.198166e-004,2.060853e-004
-4.815578e-004,1.945787e-004
-6.736051e-004,1.791825e-004
-8.951484e-004,1.624898e-004
-1.144729e-003,1.500107e-004
-1.415702e-003,1.393144e-004
-1.694455e-003,1.227837e-004
-1.960890e-003,9.588091e-005
-2.180975e-003,5.990240e-005
-2.309007e-003,2.068259e-005
-2.305117e-003,-1.513384e-005
-2.135921e-003,-4.090223e-005
-1.804173e-003,-5.321920e-005
-1.353793e-003,-5.305713e-005
-8.533355e-004,-4.398147e-005
-3.708672e-004,-2.939559e-005
4.353380e-005,-1.432352e-005
3.624784e-004,-5.247859e-006
5.893700e-004,-1.034161e-006
7.454390e-004,1.883015e-006
8.543470e-004,5.124321e-006
9.347314e-004,6.582909e-006
9.974508e-004,3.503668e-006
1.034402e-003,1.002961e-007
1.037319e-003,-1.844488e-006
1.008957e-003,-4.437533e-006
9.502898e-004,-1.075808e-005
8.538608e-004,-2.113026e-005
7.146465e-004,-3.409549e-005
5.577672e-004,-4.706071e-005
4.311941e-004,-5.775702e-005
3.710679e-004,-6.926366e-005
3.863020e-004,-8.222889e-005
4.615004e-004,-9.211487e-005
5.704083e-004,-9.243900e-005
6.879058e-004,-8.190475e-005
7.989206e-004,-6.618442e-005
8.916220e-004,-4.965376e-005
9.493173e-004,-3.215070e-005
9.593654e-004,-1.221667e-005
9.233868e-004,8.527692e-006
8.430023e-004,2.716521e-005
7.067053e-004,4.223728e-005
5.054200e-004,5.163707e-005
2.347709e-004,5.504044e-005
-9.422172e-005,5.358185e-005
-4.392588e-004,5.017848e-005
-7.394037e-004,4.596478e-005
-9.612711e-004,4.483033e-005
-1.101458e-003,5.212327e-005
-1.177628e-003,7.027458e-005
-1.211824e-003,9.507057e-005
-1.206962e-003,1.222976e-004
-1.134357e-003,1.551968e-004
-9.671054e-004,2.044647e-004
-7.152559e-004,2.804733e-004
-4.296969e-004,3.806297e-004
-1.784957e-004,4.935893e-004
-2.291298e-005,6.033076e-004
9.338019e-006,6.960090e-004
-5.986387e-005,7.503009e-004
-1.778474e-004,7.472217e-004
-2.906449e-004,6.830437e-004
-3.559572e-004,5.710566e-004
-3.485022e-004,4.337872e-004
-2.587180e-004,2.971661e-004
-9.373552e-005,1.749688e-004
1.088461e-004,6.849186e-005
3.086727e-004,-1.869928e-005
4.768966e-004,-7.461182e-005
5.981215e-004,-9.584238e-005
6.742922e-004,-9.130454e-005
7.209671e-004,-7.218083e-005
7.478700e-004,-4.446767e-005
7.614834e-004,-6.706447e-006
7.663454e-004,4.207521e-005
7.632662e-004,9.879808e-005
7.483562e-004,1.709172e-004
7.255049e-004,2.807975e-004
7.065432e-004,4.360561e-004
6.974676e-004,6.170832e-004
6.943883e-004,7.924379e-004
6.948746e-004,9.399176e-004
6.906608e-004,1.041857e-003
6.789921e-004,1.077187e-003
6.613270e-004,1.025974e-003
6.394482e-004,8.749293e-004
6.161107e-004,6.272933e-004
5.903424e-004,3.111037e-004
5.624671e-004,-3.571614e-005
5.341057e-004,-3.786463e-004
5.029891e-004,-7.005080e-004
4.642555e-004,-1.002760e-003
4.208219e-004,-1.293343e-003
3.786850e-004,-1.564964e-003
3.394651e-004,-1.806118e-003
3.021901e-004,-1.999300e-003
2.689667e-004,-2.124576e-003
2.396328e-004,-2.170441e-003
2.141886e-004,-2.138028e-003
1.994406e-004,-2.038033e-003
1.924718e-004,-1.879695e-003
1.877720e-004,-1.670469e-003
1.809652e-004,-1.416837e-003
1.670276e-004,-1.127388e-003
1.517934e-004,-8.214086e-004
1.427178e-004,-5.181845e-004
1.422316e-004,-2.381357e-004
1.526038e-004,-2.330684e-006
1.803169e-004,1.775618e-004
2.331503e-004,3.054314e-004
3.182346e-004,3.978086e-004
4.251977e-004,4.733311e-004
5.459364e-004,5.407503e-004
6.940642e-004,5.992560e-004
8.817361e-004,6.387999e-004
1.077511e-003,6.436619e-004
1.214781e-003,6.063868e-004
1.231960e-003,5.368608e-004
1.107818e-003,4.577728e-004
8.796292e-004,3.914881e-004
6.144901e-004,3.491891e-004
3.700955e-004,3.367100e-004
1.793446e-004,3.514580e-004
5.536457e-005,3.827366e-004
-1.221667e-005,4.182289e-004
-6.440170e-005,4.464283e-004
-1.694200e-004,4.653899e-004
-3.950149e-004,4.801379e-004
-7.860785e-004,4.927790e-004
-1.353793e-003,5.039615e-004
-2.070284e-003,5.170888e-004
-2.855816e-003,5.347540e-004
-3.590137e-003,5.571189e-004
-4.121065e-003,5.789978e-004
-4.295611e-003,5.971491e-004
-4.029336e-003,6.081695e-004
-3.362272e-003,6.081695e-004
-2.449031e-003,6.002283e-004
-1.493169e-003,5.966629e-004
-6.779809e-004,6.081695e-004
-1.096179e-004,6.316690e-004
2.041406e-004,6.530617e-004
3.313618e-004,6.566271e-004
3.587509e-004,6.329655e-004
3.559958e-004,5.791598e-004
3.624784e-004,5.029891e-004
3.822504e-004,4.170944e-004
4.068843e-004,3.354135e-004
4.388112e-004,2.704253e-004
4.978030e-004,2.276400e-004
5.942319e-004,2.010613e-004
7.114052e-004,1.843686e-004
8.156133e-004,1.675138e-004
8.797912e-004,1.443384e-004
8.875704e-004,1.175977e-004
8.387887e-004,8.761557e-005
7.515975e-004,5.358185e-005
6.540340e-004,2.003433e-005
5.751082e-004,-4.599598e-006
5.268127e-004,-1.983374e-005
5.012064e-004,-3.247483e-005
4.841895e-004,-5.338126e-005
4.700898e-004,-8.417367e-005
4.623107e-004,-1.178833e-004
4.627969e-004,-1.470550e-004
4.611762e-004,-1.692580e-004
4.418904e-004,-1.843300e-004
3.965121e-004,-1.895161e-004
3.315239e-004,-1.836818e-004
2.560015e-004,-1.686097e-004
1.866375e-004,-1.520790e-004
1.347766e-004,-1.408965e-004
1.041462e-004,-1.389517e-004
9.296373e-005,-1.499722e-004
9.555677e-005,-1.702304e-004
1.056048e-004,-1.938919e-004
1.143563e-004,-2.185258e-004
1.137081e-004,-2.400805e-004
9.701536e-005,-2.545043e-004
6.573675e-005,-2.596904e-004
2.408596e-005,-2.570974e-004
-1.837515e-005,-2.528836e-004
-5.208474e-005,-2.514251e-004
-7.039812e-005,-2.522354e-004
-6.845333e-005,-2.514251e-004
-4.641245e-005,-2.489941e-004
-6.868513e-006,-2.486699e-004
4.191315e-005,-2.527216e-004
8.518459e-005,-2.588801e-004
1.143563e-004,-2.674695e-004
1.265113e-004,-2.746004e-004
1.252147e-004,-2.742763e-004
1.175977e-004,-2.655248e-004
1.094944e-004,-2.485079e-004
1.000946e-004,-2.259808e-004
7.999851e-005,-1.995642e-004
3.996837e-005,-1.775233e-004
-2.501983e-005,-1.621271e-004
-1.139937e-004,-1.520790e-004
-2.211189e-004,-1.457585e-004
-3.350507e-004,-1.389517e-004
-4.426621e-004,-1.292278e-004
-5.241810e-004,-1.143178e-004
-5.648594e-004,-9.081835e-005
-5.621043e-004,-6.245691e-005
-5.259637e-004,-3.441962e-005
-4.736166e-004,-1.237873e-005
-4.204592e-004,1.396819e-006
-3.741085e-004,8.365628e-006
-3.353749e-004,1.533444e-005
-3.032860e-004,2.570662e-005
-2.801106e-004,3.948217e-005
-2.728177e-004,5.439218e-005
-2.828657e-004,7.027458e-005
-3.013411e-004,8.486046e-005
-3.147926e-004,9.782569e-005
-3.034480e-004,1.106288e-004
-2.438080e-004,1.242423e-004
-1.224211e-004,1.347766e-004
5.860588e-005,1.396385e-004
2.788527e-004,1.402868e-004
5.078511e-004,1.440143e-004
7.016813e-004,1.573037e-004
8.276062e-004,1.773998e-004
8.827084e-004,1.936063e-004
8.865980e-004,1.992786e-004
8.655295e-004,1.955511e-004
8.334405e-004,1.850168e-004
7.809313e-004,1.757791e-004
6.880678e-004,1.762653e-004
5.457744e-004,1.863134e-004
3.568061e-004,2.002510e-004
1.351007e-004,2.115956e-004
-9.989401e-005,2.140265e-004
-3.369955e-004,2.072198e-004
-5.731247e-004,1.970097e-004
-7.949921e-004,1.885823e-004
-9.709949e-004,1.803169e-004
-1.046841e-003,1.676758e-004
-9.695364e-004,1.457970e-004
-7.152559e-004,1.137081e-004
-3.125237e-004,7.659513e-005
1.445005e-004,3.899597e-005
5.250300e-004,6.096713e-006
7.279359e-004,-1.562004e-005
7.133500e-004,-3.020592e-005
4.969927e-004,-4.252288e-005
1.432040e-004,-5.435365e-005
-2.376495e-004,-6.456377e-005
-5.154294e-004,-7.039812e-005
-6.009999e-004,-7.299116e-005
-4.781544e-004,-7.607040e-005
-2.023193e-004,-8.644259e-005
1.198666e-004,-1.110765e-004
3.715541e-004,-1.569410e-004
4.718725e-004,-2.186879e-004
3.942432e-004,-2.840002e-004
1.710792e-004,-3.366714e-004
-1.255003e-004,-3.671397e-004
-4.108973e-004,-3.713534e-004
-6.112100e-004,-3.543365e-004
-6.847876e-004,-3.214373e-004
-6.381128e-004,-2.805968e-004
-5.170500e-004,-2.373254e-004
-3.718396e-004,-1.945401e-004
-2.355427e-004,-1.528894e-004
-1.219349e-004,-1.122110e-004
-3.004385e-005,-6.861539e-005
4.483033e-005,-1.740276e-005
1.064152e-004,3.526847e-005
1.563313e-004,8.210535e-005
1.872858e-004,1.245665e-004
1.825859e-004,1.670276e-004
1.172735e-004,2.086784e-004
-1.918548e-005,2.446569e-004
-2.070192e-004,2.723701e-004
-3.932322e-004,2.916559e-004
-4.958195e-004,3.004074e-004
-4.151110e-004,2.987867e-004
-9.276313e-005,2.910076e-004
4.287631e-004,2.846870e-004
1.019492e-003,2.830664e-004
1.539560e-003,2.827423e-004
1.905343e-003,2.801492e-004
2.105008e-003,2.705873e-004
2.172752e-003,2.652392e-004
2.158328e-003,2.939248e-004
2.114732e-003,3.752816e-004
2.070974e-003,5.078511e-004
2.009551e-003,6.763991e-004
1.874550e-003,8.569400e-004
1.607628e-003,1.022571e-003
1.176371e-003,1.151575e-003
5.851563e-004,1.227584e-003
-1.446240e-004,1.237470e-003
-9.606228e-004,1.174751e-003
-1.775811e-003,1.040884e-003
-2.461024e-003,8.442989e-004
-2.885636e-003,5.948802e-004
-2.980607e-003,3.130485e-004
-2.778187e-003,1.419998e-005
-2.386312e-003,-2.898345e-004
-1.938039e-003,-5.924104e-004
-1.534010e-003,-8.829935e-004
-1.216686e-003,-1.139057e-003
-9.718052e-004,-1.337749e-003
-7.408622e-004,-1.460918e-003
-4.716718e-004,-1.500787e-003
-1.629374e-004,-1.466429e-003
1.346145e-004,-1.383127e-003
3.569682e-004,-1.281512e-003
4.696036e-004,-1.182814e-003
4.872688e-004,-1.104699e-003
4.478869e-004,-1.060293e-003
3.835469e-004,-1.046031e-003
3.127243e-004,-1.049759e-003
2.457913e-004,-1.050245e-003
1.913374e-004,-1.030473e-003
1.530900e-004,-9.839601e-004
1.294284e-004,-9.073032e-004
1.159770e-004,-8.029332e-004
1.104668e-004,-6.737672e-004
1.140322e-004,-5.209396e-004
1.169494e-004,-3.476919e-004
9.750156e-005,-1.598582e-004
2.992031e-005,2.392390e-005
-9.762509e-005,1.825859e-004
-2.583939e-004,3.081865e-004
-3.898288e-004,3.963501e-004
-4.282383e-004,4.443214e-004
-3.413713e-004,4.532350e-004
-1.347380e-004,4.292493e-004
1.501728e-004,3.926226e-004
4.509661e-004,3.660439e-004
7.107570e-004,3.668542e-004
8.922703e-004,4.047775e-004
9.812443e-004,4.739794e-004
9.899958e-004,5.532294e-004
9.472105e-004,6.133557e-004
8.872462e-004,6.349103e-004
8.318199e-004,6.277795e-004
7.804451e-004,6.216210e-004
7.251808e-004,6.439860e-004
6.522514e-004,6.987641e-004
5.561466e-004,7.687764e-004
4.486972e-004,8.258235e-004
3.475684e-004,8.473782e-004
2.684805e-004,8.243649e-004
2.208333e-004,7.601869e-004
2.052750e-004,6.695924e-004
2.153231e-004,5.746220e-004
2.381743e-004,4.882411e-004
2.551911e-004,4.169324e-004
2.508154e-004,3.576164e-004
2.260194e-004,3.041349e-004
1.927960e-004,2.504913e-004
1.631380e-004,1.944166e-004
1.396385e-004,1.404489e-004
1.231079e-004,9.717743e-005
1.175977e-004,6.427817e-005
1.222976e-004,3.818565e-005
1.320215e-004,1.419998e-005
1.407730e-004,-8.002969e-006
1.440143e-004,-2.680255e-005
1.396385e-004,-3.928157e-005
1.172735e-004,-4.527799e-005
6.703327e-005,-4.560212e-005
-1.659243e-005,-3.944364e-005
-1.292278e-004,-2.404744e-005
-2.441321e-004,2.855407e-006
-3.245165e-004,3.802358e-005
-3.378059e-004,7.529860e-005
-2.697385e-004,1.124116e-004
-1.370070e-004,1.496866e-004
2.505836e-005,1.882582e-004
1.769136e-004,2.256952e-004
2.901973e-004,2.548670e-004
3.589129e-004,2.686426e-004
3.895433e-004,2.684805e-004
3.919743e-004,2.581083e-004
3.668542e-004,2.430362e-004
3.051073e-004,2.297469e-004
2.054371e-004,2.200230e-004
8.615699e-005,2.125679e-004
-2.420950e-005,2.091646e-004
-1.026491e-004,2.171058e-004
-1.337657e-004,2.334744e-004
-1.071869e-004,2.506533e-004
-2.258885e-005,2.572980e-004
1.080358e-004,2.493568e-004
2.571359e-004,2.278021e-004
3.817642e-004,1.950649e-004
4.443214e-004,1.569795e-004
4.376768e-004,1.201907e-004
3.736609e-004,8.956036e-005
2.735045e-004,6.541262e-005
1.642725e-004,4.612685e-005
6.476436e-005,2.943412e-005
-1.610624e-005,1.954813e-005
-7.493595e-005,1.598270e-005
-1.161005e-004,1.646890e-005
-1.524032e-004,1.695509e-005
-2.062088e-004,1.063454e-005
-3.055549e-004,-3.303076e-006
-4.687546e-004,-2.048200e-005
-6.890013e-004,-3.830919e-005
-9.476576e-004,-5.710876e-005
-1.218469e-003,-7.866345e-005
-1.456867e-003,-1.054042e-004
-1.600619e-003,-1.394379e-004
-1.603698e-003,-1.827094e-004
-1.467401e-003,-2.352185e-004
-1.235161e-003,-2.940482e-004
-9.719674e-004,-3.554710e-004
-7.444277e-004,-4.108973e-004
-5.993792e-004,-4.554653e-004
-5.514079e-004,-4.896610e-004
-5.951655e-004,-5.167259e-004
-7.061802e-004,-5.400634e-004
-8.526873e-004,-5.587008e-004
-1.006163e-003,-5.716661e-004
-1.135491e-003,-5.778245e-004
-1.195617e-003,-5.775004e-004
-1.137922e-003,-5.703696e-004
-9.474955e-004,-5.578905e-004
-6.611261e-004,-5.415219e-004
-3.494746e-004,-5.217500e-004
-8.595638e-005,-4.956574e-004
9.409818e-005,-4.632444e-004
1.981441e-004,-4.293727e-004
2.530843e-004,-3.966356e-004
2.854973e-004,-3.669776e-004
3.128864e-004,-3.381300e-004
3.475684e-004,-3.063652e-004
3.853296e-004,-2.689281e-004
4.106118e-004,-2.238740e-004
4.099636e-004,-1.757406e-004
3.871123e-004,-1.285796e-004
3.472443e-004,-8.044617e-005
2.953834e-004,-2.566809e-005
2.453052e-004,3.818565e-005
2.153231e-004,1.044704e-004
2.337985e-004,1.634622e-004
3.190449e-004,2.107852e-004
4.595556e-004,2.469258e-004
6.161107e-004,2.718839e-004
7.451148e-004,2.827423e-004
8.083204e-004,2.785285e-004
7.854691e-004,2.592428e-004
6.841783e-004,2.323399e-004
5.423710e-004,2.067336e-004
4.151496e-004,1.887444e-004
3.496752e-004,1.825859e-004
3.597233e-004,1.876099e-004
4.226047e-004,1.973338e-004
5.046097e-004,2.039785e-004
5.812666e-004,2.041406e-004
6.396103e-004,1.992786e-004
6.658648e-004,1.939304e-004
6.365310e-004,1.879340e-004
5.211404e-004,1.853410e-004
3.028383e-004,1.887444e-004
2.045080e-006,1.976579e-004
-3.256510e-004,2.075439e-004
-6.001896e-004,2.135403e-004
-7.314624e-004,2.179161e-004
-6.714982e-004,2.214815e-004
-4.418518e-004,2.256952e-004
-1.229073e-004,2.321778e-004
1.778860e-004,2.402811e-004
3.738230e-004,2.477361e-004
4.315182e-004,2.513016e-004
3.611819e-004,2.478982e-004
2.052750e-004,2.376881e-004
1.825161e-005,2.222919e-004
-1.592099e-004,2.055991e-004
-2.992343e-004,1.923098e-004
-3.765395e-004,1.822617e-004
-3.789705e-004,1.728619e-004
-3.123616e-004,1.608691e-004
-1.968091e-004,1.432040e-004
-6.423963e-005,1.214872e-004
5.115087e-005,9.896015e-005
1.269974e-004,7.999851e-005
1.579519e-004,6.622294e-005
1.495245e-004,5.487838e-005
1.094944e-004,4.045456e-005
4.774750e-005,2.278944e-005
-1.902341e-005,7.069105e-006
-7.461182e-005,2.855407e-006
-1.044318e-004,1.112074e-005
-1.045939e-004,2.392390e-005
-8.141856e-005,3.251336e-005
-4.544006e-005,2.927205e-005
-3.465141e-006,1.468618e-005
4.742337e-005,6.582909e-006
1.109530e-004,3.883391e-005
1.895547e-004,1.291043e-004
2.786906e-004,2.689667e-004
3.655576e-004,4.260080e-004
4.386491e-004,5.700842e-004
4.841895e-004,6.760749e-004
4.999099e-004,7.295565e-004
4.989374e-004,7.287462e-004
4.987754e-004,6.786680e-004
5.161164e-004,5.866149e-004
5.640878e-004,4.545315e-004
6.396103e-004,2.725321e-004
7.225877e-004,3.364782e-005
7.867657e-004,-2.553146e-004
8.102651e-004,-5.736109e-004
7.883863e-004,-8.875313e-004
7.268014e-004,-1.160773e-003
6.365310e-004,-1.370972e-003
5.311884e-004,-1.509376e-003
4.260080e-004,-1.577281e-003
3.308757e-004,-1.575174e-003
2.457913e-004,-1.503217e-003
1.668655e-004,-1.371620e-003
9.101894e-005,-1.201452e-003
1.419998e-005,-1.014104e-003
-6.018800e-005,-8.256224e-004
-1.297140e-004,-6.452437e-004
-1.972953e-004,-4.753993e-004
-2.624455e-004,-3.151167e-004
-3.215994e-004,-1.640719e-004
-3.677880e-004,-2.453363e-005
-3.980942e-004,9.912221e-005
-4.154351e-004,2.093267e-004
-4.212695e-004,3.104554e-004
-4.078181e-004,4.018603e-004
-3.613053e-004,4.788414e-004
-2.750866e-004,5.399400e-004
-1.630995e-004,5.845079e-004
-5.435365e-005,6.122212e-004
1.954813e-005,6.219451e-004
3.316162e-005,6.080075e-004
-1.124428e-005,5.708945e-004
-8.368748e-005,5.164405e-004
-1.472171e-004,4.589073e-004
-1.799543e-004,4.169324e-004
-1.833576e-004,4.010500e-004
-1.710407e-004,4.081808e-004
-1.546721e-004,4.284390e-004
-1.397621e-004,4.530729e-004
-1.263107e-004,4.739794e-004
-1.148040e-004,4.909963e-004
-1.031353e-004,5.084993e-004
-9.049421e-005,5.295678e-004
-7.850138e-005,5.512846e-004
-7.072225e-005,5.657084e-004
-7.331530e-005,5.640878e-004
-7.947377e-005,5.376711e-004
-7.639453e-005,4.804620e-004
-5.662256e-005,3.948915e-004
-2.485776e-005,2.983005e-004
4.151929e-006,2.124059e-004
1.808955e-005,1.608691e-004
1.112074e-005,1.598967e-004
-9.137427e-006,2.141886e-004
-3.117831e-005,3.130485e-004
-5.030202e-005,4.313562e-004
-6.537409e-005,5.376711e-004
-8.952183e-005,6.104385e-004
-1.331174e-004,6.412309e-004
-1.870851e-004,6.319932e-004
-2.305186e-004,5.930975e-004
-2.431597e-004,5.344298e-004
-2.188499e-004,4.673347e-004
-1.702304e-004,3.952156e-004
-1.172350e-004,3.132105e-004
-7.396356e-005,2.149989e-004
-4.576419e-005,1.052807e-004
-3.069211e-005,-6.220252e-006
-2.145439e-005,-1.235555e-004
-1.480971e-005,-2.585559e-004
-5.734056e-006,-4.089525e-004
3.017472e-006,-5.531906e-004
4.476060e-006,-6.667984e-004
-5.734056e-006,-7.350279e-004
-2.745081e-005,-7.552860e-004
-5.467778e-005,-7.356761e-004
-7.542214e-005,-6.924047e-004
-7.914964e-005,-6.455678e-004
-6.359137e-005,-6.134789e-004
-4.074016e-005,-6.082929e-004
-2.388537e-005,-6.295234e-004
-2.809907e-005,-6.698776e-004
-6.261898e-005,-7.168766e-004
-1.259865e-004,-7.599859e-004
-2.086398e-004,-7.936955e-004
-2.935620e-004,-8.076332e-004
-3.627639e-004,-7.938576e-004
-4.006872e-004,-7.421587e-004
-3.969597e-004,-6.494574e-004
-3.499608e-004,-5.201293e-004
-2.760590e-004,-3.642225e-004
-1.958367e-004,-1.964849e-004
-1.209625e-004,-4.106429e-005
-5.662256e-005,8.875003e-005
-1.682422e-006,1.949028e-004
5.034055e-005,2.840388e-004
1.114392e-004,3.582647e-004
1.924718e-004,4.162841e-004
3.005694e-004,4.576108e-004
4.224426e-004,4.783552e-004
5.362125e-004,4.756001e-004
6.256726e-004,4.521006e-004
6.817472e-004,4.096394e-004
7.013571e-004,3.496752e-004
6.832058e-004,2.777182e-004
6.319932e-004,2.088404e-004
5.582534e-004,1.563313e-004
4.765725e-004,1.222976e-004
4.140152e-004,1.025256e-004
3.888950e-004,9.037068e-005
4.096394e-004,8.826383e-005
4.670106e-004,9.669123e-005
5.375090e-004,1.130598e-004
5.948802e-004,1.341283e-004
6.224313e-004,1.597346e-004
6.097901e-004,1.911753e-004
5.610085e-004,2.248849e-004
4.934272e-004,2.571359e-004
4.209840e-004,2.835526e-004
3.509718e-004,2.983005e-004
2.880904e-004,2.989488e-004
2.282883e-004,2.872801e-004
1.637863e-004,2.675081e-004
8.242948e-005,2.491947e-004
-2.793700e-005,2.318537e-004
-1.801163e-004,2.060853e-004
-3.742705e-004,1.662173e-004
-6.022964e-004,1.145184e-004
-8.460426e-004,6.330578e-005
-1.094813e-003,2.586868e-005
-1.343259e-003,1.014835e-005
-1.580523e-003,1.565857e-005
-1.766250e-003,3.445814e-005
-1.841610e-003,5.439218e-005
-1.766250e-003,6.508849e-005
-1.547137e-003,6.508849e-005
-1.234351e-003,5.439218e-005
-8.906106e-004,4.013043e-005
-5.672903e-004,2.554455e-005
-2.987481e-004,1.257933e-005
-9.794922e-005,2.693341e-006
4.223728e-005,-5.896120e-006
1.398006e-004,-1.383732e-005
2.229401e-004,-2.096820e-005
3.200173e-004,-2.599222e-005
4.375147e-004,-2.955766e-005
5.572810e-004,-3.506788e-005
6.535479e-004,-4.738484e-005
7.034640e-004,-6.764301e-005
7.054088e-004,-9.454585e-005
6.757508e-004,-1.261486e-004
6.321552e-004,-1.548341e-004
5.836976e-004,-1.773612e-004
5.255162e-004,-1.904885e-004
4.443214e-004,-1.917850e-004
3.417340e-004,-1.804405e-004
2.355812e-004,-1.643960e-004
1.467694e-004,-1.517549e-004
8.826383e-005,-1.455964e-004
7.189524e-005,-1.452723e-004
9.798775e-005,-1.441378e-004
1.430419e-004,-1.366828e-004
1.749688e-004,-1.227452e-004
1.600588e-004,-1.044318e-004
6.557468e-005,-8.498399e-005
-1.188556e-004,-6.440170e-005
-3.750809e-004,-4.625038e-005
-6.609641e-004,-3.247483e-005
-9.214030e-004,-1.529591e-005
-1.091085e-003,6.907040e-006
-1.115395e-003,3.121684e-005
-9.766672e-004,5.390598e-005
-7.000218e-004,7.043665e-005
-3.528779e-004,7.708133e-005
-1.205460e-005,7.675720e-005
2.594049e-004,7.319176e-005
4.354078e-004,7.140904e-005
5.214646e-004,7.157111e-005
5.392918e-004,7.140904e-005
5.141716e-004,6.897806e-005
4.660382e-004,6.719535e-005
4.125566e-004,6.849186e-005
3.684748e-004,7.270556e-005
3.452995e-004,7.221937e-005
3.409237e-004,5.893001e-005
3.490270e-004,2.667901e-005
3.712299e-004,-3.053005e-005
4.098015e-004,-1.057284e-004
4.574487e-004,-1.794681e-004
4.971547e-004,-2.277635e-004
5.143337e-004,-2.382978e-004
4.987754e-004,-2.006986e-004
4.524247e-004,-9.551824e-005
3.895433e-004,7.319176e-005
3.281205e-004,2.756114e-004
2.874421e-004,4.760863e-004
2.790148e-004,6.511169e-004
3.102934e-004,7.930862e-004
3.867882e-004,8.987529e-004
5.010443e-004,9.656859e-004
6.258347e-004,9.874027e-004
7.177258e-004,9.587171e-004
7.439804e-004,8.781706e-004
7.070294e-004,7.473837e-004
6.483617e-004,5.640878e-004
6.331276e-004,3.320101e-004
7.224257e-004,7.157111e-005
9.219283e-004,-1.844921e-004
1.177992e-003,-4.086284e-004
1.418659e-003,-5.831727e-004
1.593042e-003,-6.980770e-004
1.685257e-003,-7.428070e-004
1.698871e-003,-7.193076e-004
1.637610e-003,-6.444334e-004
1.495316e-003,-5.491390e-004
1.265345e-003,-4.621100e-004
9.350556e-004,-4.013355e-004
4.780310e-004,-3.650328e-004
-1.229073e-004,-3.371576e-004
-8.533355e-004,-2.998826e-004
-1.655235e-003,-2.423494e-004
-2.443359e-003,-1.634236e-004
-3.159365e-003,-7.493595e-005
-3.779592e-003,8.689758e-006
-4.283618e-003,7.351589e-005
-4.611154e-003,1.122495e-004
-4.658316e-003,1.273216e-004
-4.330617e-003,1.232699e-004
-3.624657e-003,1.051186e-004
-2.658744e-003,7.951231e-005
-1.627035e-003,5.487838e-005
-7.110422e-004,3.575467e-005
-2.534396e-005,2.084466e-005
4.026706e-004,1.160693e-005
6.209727e-004,1.095867e-005
7.060571e-004,1.517237e-005
7.289083e-004,2.052053e-005
7.379840e-004,2.197911e-005
7.574318e-004,1.598270e-005
7.961654e-004,2.693341e-006
8.509436e-004,-5.247859e-006
9.133389e-004,6.907040e-006
9.721686e-004,4.580272e-005
1.019654e-003,1.028497e-004
1.050284e-003,1.670276e-004
1.062277e-003,2.281262e-004
1.048339e-003,2.733424e-004
1.007499e-003,2.936006e-004
9.454277e-004,2.884145e-004
8.728224e-004,2.624841e-004
7.951931e-004,2.248849e-004
7.138362e-004,1.830721e-004
6.387999e-004,1.385041e-004
5.921251e-004,8.226741e-005
5.948802e-004,5.124321e-006
6.412309e-004,-9.389759e-005
6.956849e-004,-2.081536e-004
7.148086e-004,-3.285682e-004
6.726716e-004,-4.428242e-004
5.712186e-004,-5.377944e-004
4.362182e-004,-6.000275e-004
2.991108e-004,-6.206098e-004
1.824238e-004,-5.969483e-004
9.523264e-005,-5.381186e-004
4.272347e-005,-4.549791e-004
2.522042e-005,-3.577399e-004
2.489629e-005,-2.525595e-004
9.824215e-006,-1.483515e-004
-5.111234e-005,-4.932962e-005
-1.760647e-004,4.207521e-005
-3.566054e-004,1.227837e-004
-5.690731e-004,1.953890e-004
-7.789475e-004,2.632944e-004
-9.492782e-004,3.349273e-004
-1.050407e-003,4.196875e-004
-1.072124e-003,5.149820e-004
-1.025773e-003,5.924492e-004
-9.333958e-004,6.187038e-004
-8.123330e-004,5.853184e-004
-6.629088e-004,5.153061e-004
-4.823681e-004,4.425387e-004
-2.757348e-004,3.918123e-004
-5.483985e-005,3.686369e-004
1.641104e-004,3.582647e-004
3.662059e-004,3.417340e-004
5.516087e-004,3.060797e-004
7.209671e-004,2.490327e-004
8.527263e-004,1.769136e-004
9.154457e-004,9.960841e-005
9.034528e-004,2.262738e-005
8.491609e-004,-5.467778e-005
8.019998e-004,-1.334415e-004
7.945448e-004,-2.091260e-004
8.256614e-004,-2.692523e-004
8.695811e-004,-2.992343e-004
8.820602e-004,-2.887001e-004
8.165857e-004,-2.378116e-004
6.566271e-004,-1.634236e-004
4.318424e-004,-8.579432e-005
2.057612e-004,-2.291298e-005
5.050261e-005,1.711715e-005
6.096713e-006,3.559260e-005
6.460230e-005,3.980630e-005
1.858272e-004,3.364782e-005
3.227724e-004,1.971020e-005
4.407560e-004,-2.238346e-007
5.260024e-004,-2.534396e-005
5.738117e-004,-5.629844e-005
5.845079e-004,-9.486997e-005
5.593878e-004,-1.426792e-004
4.952099e-004,-1.966470e-004
3.901916e-004,-2.493182e-004
2.498430e-004,-2.919414e-004
8.680524e-005,-3.178718e-004
-7.072225e-005,-3.254889e-004
-1.831956e-004,-3.194925e-004
-2.245222e-004,-3.034480e-004
-1.982676e-004,-2.768693e-004
-1.308485e-004,-2.395943e-004
-5.224680e-005,-1.966470e-004
1.241726e-005,-1.519170e-004
5.325772e-005,-1.068628e-004
7.432621e-005,-6.553616e-005
7.918817e-005,-3.474375e-005
7.270556e-005,-1.237873e-005
5.698522e-005,6.420843e-006
3.429608e-005,2.765140e-005
7.069105e-006,5.131294e-005
-2.647842e-005,7.870197e-005
-8.077030e-005,1.103047e-004
-1.716889e-004,1.451488e-004
-3.047445e-004,1.812893e-004
-4.828543e-004,2.177540e-004
-7.079630e-004,2.538946e-004
-9.818533e-004,2.882525e-004
-1.291074e-003,3.208276e-004
-1.594784e-003,3.475684e-004
-1.827510e-003,3.640991e-004
-1.924425e-003,3.705817e-004
-1.846310e-003,3.679886e-004
-1.599484e-003,3.488649e-004
-1.230137e-003,3.031625e-004
-8.095779e-004,2.312055e-004
-4.115456e-004,1.466074e-004
-8.903562e-005,7.205730e-005
1.354248e-004,2.667901e-005
2.709115e-004,1.825161e-005
3.444891e-004,4.693717e-005
3.867882e-004,1.000946e-004
4.232529e-004,1.590864e-004
4.605280e-004,2.073819e-004
4.888894e-004,2.391467e-004
4.922928e-004,2.514636e-004
4.624728e-004,2.542187e-004
4.044533e-004,2.616738e-004
3.290929e-004,2.822560e-004
2.475741e-004,3.119140e-004
1.600588e-004,3.404375e-004
5.974033e-005,3.538890e-004
-5.500191e-005,3.436788e-004
-1.775233e-004,3.093210e-004
-3.102548e-004,2.642668e-004
-4.653512e-004,2.315296e-004
-6.476747e-004,2.273159e-004
-8.397221e-004,2.490327e-004
-9.967634e-004,2.820940e-004
-1.064182e-003,3.083486e-004
-1.007946e-003,3.185587e-004
-8.424772e-004,3.098072e-004
-6.126686e-004,2.837146e-004
-3.677880e-004,2.427121e-004
-1.439758e-004,1.884202e-004
3.753739e-005,1.245665e-004
1.743205e-004,6.006447e-005
2.764217e-004,-1.358292e-006
3.581026e-004,-5.775702e-005
4.240633e-004,-1.104282e-004
4.694416e-004,-1.598582e-004
4.783552e-004,-2.078295e-004
4.362182e-004,-2.532078e-004
3.384927e-004,-2.959930e-004
2.044647e-004,-3.287302e-004
6.751948e-005,-3.485022e-004
-3.652646e-005,-3.554710e-004
-7.412562e-005,-3.491504e-004
-2.988179e-005,-3.345645e-004
8.956036e-005,-3.172236e-004
2.556773e-004,-2.990722e-004
4.255218e-004,-2.801106e-004
5.639257e-004,-2.596904e-004
6.434998e-004,-2.407288e-004
6.567892e-004,-2.240360e-004
6.136798e-004,-2.172293e-004
5.334574e-004,-2.238740e-004
4.452938e-004,-2.376495e-004
3.785229e-004,-2.502906e-004
3.448133e-004,-2.569353e-004
3.380065e-004,-2.561249e-004
3.483787e-004,-2.501286e-004
3.684748e-004,-2.305186e-004
3.948915e-004,-1.726613e-004
4.255218e-004,-6.537409e-005
4.585832e-004,7.675720e-005
4.854860e-004,2.342847e-004
4.942376e-004,3.921364e-004
4.770586e-004,5.345919e-004
4.360561e-004,6.399344e-004
3.814401e-004,6.919574e-004
3.286068e-004,6.854748e-004
2.869559e-004,6.261588e-004
2.558394e-004,5.149820e-004
2.250470e-004,3.543751e-004
1.892305e-004,1.446626e-004
1.524417e-004,-1.092938e-004
1.150046e-004,-3.937184e-004
7.594687e-005,-6.831670e-004
3.364782e-005,-9.491161e-004
-1.254080e-005,-1.172604e-003
-5.856735e-005,-1.342611e-003
-9.357346e-005,-1.453625e-003
-1.054042e-004,-1.504676e-003
-9.098041e-005,-1.495438e-003
-5.646050e-005,-1.429802e-003
-1.335113e-005,-1.316032e-003
2.781346e-005,-1.156722e-003
5.325772e-005,-9.538161e-004
5.714729e-005,-7.146077e-004
4.904402e-005,-4.527101e-004
3.656499e-005,-1.869231e-004
2.570662e-005,6.379197e-005
2.035846e-005,2.843629e-004
2.035846e-005,4.705760e-004
2.635488e-005,6.225934e-004
3.688912e-005,7.423597e-004
3.818565e-005,8.301992e-004
1.646890e-005,8.857877e-004
-3.393342e-005,9.050734e-004
-1.063766e-004,8.874084e-004
-1.802784e-004,8.442989e-004
-2.323013e-004,7.942207e-004
-2.519113e-004,7.528940e-004
-2.405667e-004,7.272876e-004
-2.089640e-004,7.089743e-004
-1.733096e-004,6.861230e-004
-1.465688e-004,6.507927e-004
-1.353863e-004,6.016869e-004
-1.350622e-004,5.410745e-004
-1.357104e-004,4.760863e-004
-1.347380e-004,4.143393e-004
-1.298761e-004,3.559958e-004
-1.199901e-004,3.002453e-004
-1.015147e-004,2.491947e-004
-8.028410e-005,2.086784e-004
-5.872941e-005,1.791825e-004
-3.425755e-005,1.592484e-004
-8.327101e-006,1.454729e-004
2.829966e-005,1.342904e-004
9.701536e-005,1.261871e-004
2.111094e-004,1.244044e-004
3.649094e-004,1.263492e-004
5.318367e-004,1.271595e-004
6.710509e-004,1.258630e-004
7.439804e-004,1.210010e-004
7.303669e-004,1.120874e-004
6.426895e-004,9.555677e-005
5.102821e-004,6.654708e-005
3.649094e-004,3.105477e-005
2.240746e-004,-1.196227e-006
9.312580e-005,-2.307504e-005
-2.599222e-005,-3.328516e-005
-1.233935e-004,-3.636440e-005
-1.877334e-004,-4.025397e-005
-2.159328e-004,-4.787104e-005
-2.248464e-004,-5.824322e-005
-2.472114e-004,-6.974985e-005
-3.277578e-004,-7.898758e-005
-4.976023e-004,-8.514606e-005
-7.441035e-004,-9.081835e-005
-1.019777e-003,-1.055663e-004
-1.245372e-003,-1.332795e-004
-1.328511e-003,-1.689338e-004
-1.214417e-003,-2.031296e-004
-9.178375e-004,-2.310048e-004
-5.173742e-004,-2.496423e-004
-1.219349e-004,-2.580697e-004
1.788584e-004,-2.540181e-004
3.491891e-004,-2.340841e-004
4.044533e-004,-2.016710e-004
3.814401e-004,-1.673132e-004
3.183966e-004,-1.326312e-004
2.441707e-004,-8.498399e-005
1.788584e-004,-6.220252e-006
1.326697e-004,1.078737e-004
9.977047e-005,2.525981e-004
6.962632e-005,4.112601e-004
3.186510e-005,5.637637e-004
-1.480971e-005,6.919574e-004
-6.618442e-005,7.835244e-004
-1.073490e-004,8.337647e-004
-1.271210e-004,8.361956e-004
-1.280934e-004,7.958413e-004
-1.220970e-004,7.222636e-004
-1.186936e-004,6.161107e-004
-1.185315e-004,4.752759e-004
-1.195039e-004,2.983005e-004
-1.253383e-004,9.944634e-005
-1.405724e-004,-9.389759e-005
-1.637477e-004,-2.596904e-004
-1.848162e-004,-3.851289e-004
-1.895161e-004,-4.711856e-004
-1.690959e-004,-5.189948e-004
-1.237176e-004,-5.381186e-004
-6.310517e-005,-5.462218e-004
2.623614e-007,-5.588629e-004
6.265751e-005,-5.859278e-004
1.239182e-004,-6.230408e-004
1.850168e-004,-6.573986e-004
2.433604e-004,-6.791154e-004
2.944109e-004,-6.758740e-004
3.290929e-004,-6.337371e-004
3.451374e-004,-5.442770e-004
3.393030e-004,-4.026320e-004
3.145071e-004,-2.201465e-004
2.872801e-004,-2.064406e-005
2.770700e-004,1.733481e-004
2.965178e-004,3.491891e-004
3.444891e-004,4.939134e-004
4.240633e-004,5.875872e-004
5.315126e-004,6.106006e-004
6.509548e-004,5.683015e-004
7.598628e-004,4.832171e-004
8.329543e-004,3.859779e-004
8.574262e-004,2.958695e-004
8.485126e-004,2.177540e-004
8.340888e-004,1.490383e-004
8.274441e-004,9.020862e-005
8.274441e-004,4.191315e-005
8.301992e-004,2.045080e-006
8.336026e-004,-3.409549e-005
8.410576e-004,-6.893953e-005
8.507816e-004,-1.058904e-004
8.551573e-004,-1.462447e-004
8.413817e-004,-1.877334e-004
7.846588e-004,-2.220912e-004
6.528996e-004,-2.468872e-004
4.230909e-004,-2.664971e-004
8.097089e-005,-2.825416e-004
-3.690845e-004,-2.951827e-004
-8.857486e-004,-2.993964e-004
-1.410678e-003,-2.917793e-004
-1.862678e-003,-2.697385e-004
-2.156179e-003,-2.353806e-004
-2.238346e-003,-1.955125e-004
-2.112259e-003,-1.543479e-004
-1.838531e-003,-1.131834e-004
-1.511483e-003,-7.201877e-005
-1.218631e-003,-2.971972e-005
-1.006001e-003,9.175954e-006
-8.776453e-004,4.013043e-005
-8.126572e-004,6.184718e-005
-7.818647e-004,7.513654e-005
-7.654962e-004,8.405014e-005
-7.578791e-004,8.680524e-005
-7.445897e-004,8.113296e-005
-6.961322e-004,7.140904e-005
-5.883588e-004,6.362991e-005
-4.105732e-004,5.957827e-005
-1.810887e-004,5.601284e-005
6.362991e-005,5.455425e-005
2.832284e-004,5.779555e-005
4.483731e-004,6.476436e-005
5.517708e-004,7.254349e-005
6.018490e-004,7.756752e-005
6.196762e-004,7.967438e-005
6.245382e-004,8.064677e-005
6.277795e-004,8.113296e-005
6.329655e-004,8.097089e-005
6.389620e-004,7.821578e-005
6.420412e-004,7.465034e-005
6.326414e-004,7.254349e-005
6.023352e-004,7.789165e-005
5.538776e-004,8.923623e-005
5.018546e-004,1.015532e-004
4.616624e-004,1.120874e-004
4.386491e-004,1.211631e-004
4.302217e-004,1.305629e-004
4.329769e-004,1.420695e-004
4.467524e-004,1.563313e-004
4.668485e-004,1.731861e-004
4.867825e-004,1.877720e-004
4.969927e-004,1.989545e-004
4.937514e-004,2.062474e-004
4.736553e-004,2.068957e-004
4.381629e-004,2.028440e-004
3.901916e-004,1.940925e-004
3.378445e-004,1.838824e-004
2.882525e-004,1.759412e-004
2.427121e-004,1.675138e-004
1.953890e-004,1.555210e-004
1.376938e-004,1.409351e-004
7.335383e-005,1.271595e-004
1.744129e-005,1.195424e-004
-2.048200e-005,1.174356e-004
-4.300908e-005,1.200286e-004
-5.402952e-005,1.271595e-004
-5.354332e-005,1.357490e-004
-3.976777e-005,1.443384e-004
-1.043395e-005,1.680000e-004
3.040651e-005,2.342847e-004
7.286763e-005,3.563199e-004
1.114392e-004,5.093097e-004
1.430419e-004,6.504686e-004
1.642725e-004,7.496527e-004
1.699448e-004,7.979482e-004
1.527658e-004,7.981102e-004
1.080358e-004,7.556491e-004
3.591673e-005,6.757508e-004
-5.402952e-005,5.640878e-004
-1.486757e-004,4.216323e-004
-2.284118e-004,2.478982e-004
-2.736280e-004,3.672706e-005
-2.801106e-004,-2.125294e-004
-2.538560e-004,-4.875542e-004
-2.086398e-004,-7.632272e-004
-1.596961e-004,-1.004380e-003
-1.185315e-004,-1.185245e-003
-8.725291e-005,-1.303715e-003
-6.407757e-005,-1.370810e-003
-4.997789e-005,-1.393661e-003
-5.257093e-005,-1.368865e-003
-7.088431e-005,-1.289615e-003
-9.924574e-005,-1.154291e-003
-1.196660e-004,-9.748845e-004
-1.097800e-004,-7.742477e-004
-4.932962e-005,-5.723144e-004
5.974033e-005,-3.856151e-004
1.863134e-004,-2.227395e-004
2.939248e-004,-8.384954e-005
3.564820e-004,3.445814e-005
3.696093e-004,1.313732e-004
3.376824e-004,1.997648e-004
2.744769e-004,2.303951e-004
1.955511e-004,2.224539e-004
1.128978e-004,1.892305e-004
4.110282e-005,1.474177e-004
-8.165035e-006,1.088461e-004
-2.501983e-005,8.210535e-005
-1.010982e-005,7.059871e-005
2.570662e-005,6.897806e-005
7.286763e-005,6.865393e-005
1.143563e-004,6.233338e-005
1.281319e-004,4.726130e-005
1.017153e-004,3.121684e-005
2.765140e-005,2.133085e-005
-8.773911e-005,2.165498e-005
-2.327876e-004,3.591673e-005
-3.852910e-004,6.298164e-005
-5.170500e-004,9.296373e-005
-6.013241e-004,1.174356e-004
-6.298475e-004,1.326697e-004
-6.079687e-004,1.417454e-004
-5.543251e-004,1.488763e-004
-4.948471e-004,1.522796e-004
-4.535205e-004,1.500107e-004
-4.408794e-004,1.435281e-004
-4.518998e-004,1.398006e-004
-4.694029e-004,1.482280e-004
-4.676201e-004,1.717275e-004
-4.292107e-004,2.130541e-004
-3.596847e-004,2.726942e-004
-2.812451e-004,3.452995e-004
-2.224154e-004,4.156358e-004
-1.953505e-004,4.649037e-004
-1.945401e-004,4.820827e-004
-2.060468e-004,4.731691e-004
-2.152845e-004,4.553419e-004
-2.094502e-004,4.469145e-004
-1.841680e-004,4.543695e-004
-1.454344e-004,4.733311e-004
-1.078352e-004,4.924549e-004
-8.287715e-005,5.036374e-004
-6.504996e-005,5.036374e-004
-2.583016e-005,4.935893e-004
5.844381e-005,4.788414e-004
1.824238e-004,4.645796e-004
3.104554e-004,4.519385e-004
4.063981e-004,4.354078e-004
4.555039e-004,4.104497e-004
4.647417e-004,3.731747e-004
4.529109e-004,3.239069e-004
4.483731e-004,2.756114e-004
4.673347e-004,2.501671e-004
5.049339e-004,2.670219e-004
5.509604e-004,3.221241e-004
5.987698e-004,3.893813e-004
6.422033e-004,4.371906e-004
6.734819e-004,4.464283e-004
6.791542e-004,4.161220e-004
6.413930e-004,3.577785e-004
5.310264e-004,2.898731e-004
3.287688e-004,2.341226e-004
4.483033e-005,1.939304e-004
-2.906449e-004,1.453108e-004
-6.186650e-004,5.828175e-005
-8.541459e-004,-8.077030e-005
-9.273994e-004,-2.643903e-004
-8.204363e-004,-4.700511e-004
-5.656697e-004,-6.674466e-004
-2.348944e-004,-8.301602e-004
9.280167e-005,-9.389060e-004
3.553475e-004,-9.920634e-004
5.177371e-004,-1.000815e-003
5.825632e-004,-9.823395e-004
5.773771e-004,-9.523575e-004
5.378332e-004,-9.246443e-004
4.895377e-004,-9.097343e-004
4.371906e-004,-8.987138e-004
3.636129e-004,-8.802384e-004
2.482223e-004,-8.466908e-004
9.150514e-005,-7.945059e-004
-7.201877e-005,-7.280591e-004
-1.900023e-004,-6.468644e-004
-2.264670e-004,-5.460597e-004
-1.760647e-004,-4.246728e-004
-6.521203e-005,-2.865932e-004
6.687121e-005,-1.417068e-004
1.850168e-004,-5.409925e-006
2.756114e-004,1.096565e-004
3.412479e-004,1.987924e-004
3.901916e-004,2.658874e-004
4.214702e-004,3.183966e-004
4.375147e-004,3.569682e-004
4.396215e-004,3.765781e-004
4.135290e-004,3.713920e-004
3.303894e-004,3.414099e-004
1.637863e-004,2.981384e-004
-7.590833e-005,2.564877e-004
-3.240303e-004,2.279642e-004
-4.969540e-004,2.120818e-004
-5.437909e-004,2.043026e-004
-4.739407e-004,1.952270e-004
-3.402368e-004,1.777239e-004
-1.930815e-004,1.526038e-004
-5.257093e-005,1.300767e-004
7.724339e-005,1.208390e-004
1.889064e-004,1.268354e-004
2.738286e-004,1.406109e-004
3.258516e-004,1.571416e-004
3.482167e-004,1.751309e-004
3.491891e-004,1.947408e-004
3.491891e-004,2.182402e-004
3.863020e-004,2.459534e-004
4.966686e-004,2.749631e-004
6.838542e-004,2.987867e-004
9.045873e-004,3.183966e-004
1.091125e-003,3.341170e-004
1.180747e-003,3.475684e-004
1.140393e-003,3.600474e-004
9.783271e-004,3.739850e-004
7.285841e-004,3.919743e-004
4.230909e-004,4.143393e-004
8.858796e-005,4.363802e-004
-2.598524e-004,4.506420e-004
-6.254718e-004,4.532350e-004
-9.964393e-004,4.439973e-004
-1.329808e-003,4.268184e-004
-1.586681e-003,3.994293e-004
-1.761388e-003,3.611819e-004
-1.888123e-003,3.122381e-004
-2.021017e-003,2.535705e-004
-2.192806e-003,1.921477e-004
-2.386312e-003,1.417454e-004
-2.523257e-003,1.091703e-004
-2.506078e-003,8.275361e-005
-2.275135e-003,4.871989e-005
-1.839179e-003,-2.238346e-007
-1.271140e-003,-5.937768e-005
-6.710121e-004,-1.173971e-004
-1.255003e-004,-1.619650e-004
3.093210e-004,-1.893541e-004
6.128695e-004,-2.037779e-004
7.961654e-004,-2.112329e-004
8.843291e-004,-2.165810e-004
9.044252e-004,-2.188499e-004
8.895152e-004,-2.201465e-004
8.705535e-004,-2.237119e-004
8.627744e-004,-2.332737e-004
8.601813e-004,-2.438080e-004
8.489988e-004,-2.532078e-004
8.190167e-004,-2.608248e-004
7.681281e-004,-2.692523e-004
6.976296e-004,-2.791382e-004
6.154625e-004,-2.869174e-004
5.368608e-004,-2.901587e-004
4.814344e-004,-2.746004e-004
4.563143e-004,-2.113949e-004
4.530729e-004,-9.081835e-005
4.571246e-004,7.432621e-005
4.574487e-004,2.569738e-004
4.475628e-004,4.287631e-004
4.263322e-004,5.629533e-004
3.974845e-004,6.452826e-004
3.670162e-004,6.671614e-004
3.368721e-004,6.310208e-004
3.093210e-004,5.436675e-004
2.837146e-004,4.060740e-004
2.550291e-004,2.187264e-004
2.213195e-004,-1.237873e-005
1.939304e-004,-2.747625e-004
1.808031e-004,-5.493010e-004
1.806411e-004,-8.129813e-004
1.898788e-004,-1.043114e-003
2.104611e-004,-1.222520e-003
2.443328e-004,-1.335318e-003
2.898731e-004,-1.373565e-003
3.399513e-004,-1.336614e-003
3.846814e-004,-1.237268e-003
4.190393e-004,-1.094165e-003
4.363802e-004,-9.311269e-004
4.350837e-004,-7.635514e-004
4.216323e-004,-6.000275e-004
4.085050e-004,-4.460655e-004
4.021844e-004,-3.057169e-004
4.044533e-004,-1.793060e-004
4.067223e-004,-6.456377e-005
3.974845e-004,4.239934e-005
3.665301e-004,1.496866e-004
3.093210e-004,2.582704e-004
2.261814e-004,3.636129e-004
1.269974e-004,4.540453e-004
3.656499e-005,5.185474e-004
-1.740276e-005,5.529052e-004
-1.934754e-005,5.601982e-004
2.554455e-005,5.507984e-004
9.037068e-005,5.402642e-004
1.449867e-004,5.405883e-004
1.683241e-004,5.540397e-004
1.594105e-004,5.749461e-004
1.352628e-004,5.952043e-004
1.169494e-004,6.084936e-004
1.137081e-004,6.096281e-004
1.222976e-004,5.953664e-004
1.299146e-004,5.691118e-004
1.137081e-004,5.409124e-004
4.726130e-005,5.222749e-004
-8.482193e-005,5.153061e-004
-2.781658e-004,5.149820e-004
-5.151053e-004,5.180612e-004
-7.701961e-004,5.213025e-004
-1.007136e-003,5.200059e-004
-1.182490e-003,5.080132e-004
-1.263685e-003,4.837033e-004
-1.246182e-003,4.467524e-004
-1.158342e-003,4.020224e-004
-1.035011e-003,3.540510e-004
-8.969311e-004,3.060797e-004
-7.462104e-004,2.631324e-004
-5.698834e-004,2.269918e-004
-3.616295e-004,1.929580e-004
-1.357104e-004,1.563313e-004
8.113296e-005,1.154908e-004
2.621599e-004,7.157111e-005
4.010500e-004,3.073064e-005
5.055821e-004,-5.409925e-006
5.945560e-004,-3.522994e-005
6.958470e-004,-5.824322e-005
8.295510e-004,-7.752899e-005
9.760582e-004,-9.486997e-005
1.083021e-003,-1.107524e-004
1.109762e-003,-1.258245e-004
1.043153e-003,-1.394379e-004
9.028045e-004,-1.522411e-004
7.229118e-004,-1.635857e-004
5.302161e-004,-1.750923e-004
3.485408e-004,-1.825473e-004
1.895547e-004,-1.823853e-004
5.098881e-005,-1.749302e-004
-7.266703e-005,-1.652063e-004
-1.822232e-004,-1.575893e-004
-2.835140e-004,-1.538618e-004
-3.862634e-004,-1.545100e-004
-5.089468e-004,-1.538618e-004
-6.760361e-004,-1.506204e-004
-9.124894e-004,-1.438137e-004
-1.212148e-003,-1.404103e-004
-1.533524e-003,-1.477033e-004
-1.815031e-003,-1.677994e-004
-1.985524e-003,-1.916230e-004
-1.977421e-003,-2.076674e-004
-1.761063e-003,-2.031296e-004
-1.370972e-003,-1.780095e-004
-8.933656e-004,-1.425172e-004
-4.298589e-004,-1.070249e-004
-6.197072e-005,-7.720486e-005
1.782101e-004,-5.289507e-005
3.044590e-004,-3.150244e-005
3.574544e-004,-1.043395e-005
3.775505e-004,7.393236e-006
3.916502e-004,1.598270e-005
4.072085e-004,1.841368e-005
4.292493e-004,2.441009e-005
4.624728e-004,3.996837e-005
5.094717e-004,6.525056e-005
5.558224e-004,9.442231e-005
5.794840e-004,1.206769e-004
5.637637e-004,1.415833e-004
5.099580e-004,1.558451e-004
4.373526e-004,1.615174e-004
3.683128e-004,1.568175e-004
3.185587e-004,1.433661e-004
2.906835e-004,1.221355e-004
2.764217e-004,9.652917e-005
2.615117e-004,7.270556e-005
2.397949e-004,6.314371e-005
2.122438e-004,7.837785e-005
1.853410e-004,1.231079e-004
1.613553e-004,1.916615e-004
1.445005e-004,2.658874e-004
1.344524e-004,3.284447e-004
1.308870e-004,3.720403e-004
1.310491e-004,3.935950e-004
1.318594e-004,3.968363e-004
1.278078e-004,3.863020e-004
1.248906e-004,3.660439e-004
1.297526e-004,3.346032e-004
1.459591e-004,2.887387e-004
1.689724e-004,2.258573e-004
1.910133e-004,1.423936e-004
2.039785e-004,3.380988e-005
2.039785e-004,-9.859748e-005
1.897167e-004,-2.452666e-004
1.681620e-004,-3.948528e-004
1.477418e-004,-5.327704e-004
1.355869e-004,-6.455678e-004
1.402868e-004,-7.230351e-004
1.709172e-004,-7.570688e-004
2.248849e-004,-7.466965e-004
2.918179e-004,-6.984011e-004
3.624784e-004,-6.228787e-004
4.200116e-004,-5.172121e-004
4.501558e-004,-3.703810e-004
4.516144e-004,-1.679614e-004
4.273046e-004,8.907416e-005
3.803056e-004,3.670162e-004
3.261758e-004,6.172452e-004
2.801492e-004,8.052412e-004
2.449810e-004,9.206317e-004
2.149989e-004,9.660101e-004
1.791825e-004,9.418624e-004
1.247285e-004,8.442989e-004
4.596478e-005,6.802886e-004
-6.148453e-005,4.671726e-004
-2.047502e-004,2.208333e-004
-3.867496e-004,-5.111234e-005
-6.040792e-004,-3.436402e-004
-8.442599e-004,-6.522125e-004
-1.071151e-003,-9.667812e-004
-1.227220e-003,-1.267250e-003
-1.254771e-003,-1.523152e-003
-1.130953e-003,-1.704503e-003
-8.769971e-004,-1.783915e-003
-5.424943e-004,-1.752636e-003
-1.867610e-004,-1.622011e-003
1.336421e-004,-1.415702e-003
3.835469e-004,-1.163204e-003
5.564707e-004,-8.975794e-004
6.635960e-004,-6.502678e-004
7.233981e-004,-4.382863e-004
7.488423e-004,-2.668213e-004
7.444666e-004,-1.331174e-004
7.063812e-004,-2.939559e-005
6.285898e-004,6.006447e-005
5.164405e-004,1.503349e-004
3.807918e-004,2.462775e-004
2.412535e-004,3.427064e-004
1.150046e-004,4.302217e-004
1.808955e-005,5.015305e-004
-4.381940e-005,5.532294e-004
-8.320128e-005,5.833735e-004
-1.169109e-004,5.976353e-004
-1.520790e-004,5.995801e-004
-1.763888e-004,5.880735e-004
-1.849783e-004,5.569569e-004
-1.956746e-004,5.016926e-004
-2.316531e-004,4.336251e-004
-3.019894e-004,3.731747e-004
-3.916115e-004,3.354135e-004
-4.659995e-004,3.263378e-004
-4.909576e-004,3.425444e-004
-4.514136e-004,3.747954e-004
-3.635742e-004,4.093153e-004
-2.668213e-004,4.383250e-004
-2.047502e-004,4.691174e-004
-1.947022e-004,5.131993e-004
-2.178775e-004,5.780254e-004
-2.399184e-004,6.635960e-004
-2.348944e-004,7.606731e-004
-1.898403e-004,8.652053e-004
-1.076731e-004,9.666584e-004
-2.654814e-006,1.055632e-003
1.020394e-004,1.120621e-003
1.864754e-004,1.153358e-003
2.380122e-004,1.158058e-003
2.529222e-004,1.141203e-003
2.362295e-004,1.102469e-003
2.008992e-004,1.044936e-003
1.543865e-004,9.702237e-004
1.033359e-004,8.797912e-004
4.580272e-005,7.793107e-004
-2.323711e-005,6.718613e-004
-1.071869e-004,5.533914e-004
-1.916230e-004,4.143393e-004
-2.494803e-004,2.446569e-004
-2.690902e-004,5.017848e-005
-2.583939e-004,-1.387897e-004
-2.306807e-004,-2.909690e-004
-1.806025e-004,-3.908012e-004
-9.665270e-005,-4.382863e-004
1.711715e-005,-4.510895e-004
1.368834e-004,-4.470379e-004
2.287745e-004,-4.368278e-004
2.684805e-004,-4.212695e-004
2.558394e-004,-4.034423e-004
2.180782e-004,-3.922598e-004
1.911753e-004,-3.984183e-004
2.041406e-004,-4.238625e-004
2.600531e-004,-4.635685e-004
3.380065e-004,-5.125122e-004
4.093153e-004,-5.617801e-004
4.542074e-004,-6.006758e-004
4.637693e-004,-6.186650e-004
4.401077e-004,-6.144513e-004
3.931088e-004,-5.948414e-004
3.393030e-004,-5.656697e-004
2.960316e-004,-5.309877e-004
2.757735e-004,-4.912817e-004
2.816078e-004,-4.488206e-004
3.015418e-004,-4.092767e-004
3.143450e-004,-3.726499e-004
3.049452e-004,-3.378059e-004
2.754493e-004,-3.053928e-004
2.397949e-004,-2.757348e-004
2.093267e-004,-2.489941e-004
1.866375e-004,-2.250084e-004
1.684862e-004,-2.023193e-004
1.579519e-004,-1.794681e-004
1.576278e-004,-1.556445e-004
1.633001e-004,-1.293899e-004
1.678379e-004,-1.032974e-004
1.616794e-004,-7.671866e-005
1.389903e-004,-5.516398e-005
1.013911e-004,-4.527799e-005
5.795762e-005,-4.544006e-005
1.906194e-005,-5.013995e-005
-9.137427e-006,-5.046408e-005
-2.388537e-005,-4.155049e-005
-3.053005e-005,-2.550602e-005
-4.171256e-005,-2.816880e-006
-6.780507e-005,2.100672e-005
-1.128592e-004,4.304761e-005
-1.737958e-004,6.168512e-005
-2.374874e-004,7.448828e-005
-2.841623e-004,8.178122e-005
-3.019894e-004,8.259155e-005
-2.890242e-004,8.113296e-005
-2.483458e-004,8.810177e-005
-1.870851e-004,1.088461e-004
-1.139937e-004,1.386662e-004
-3.490581e-005,1.689724e-004
4.855783e-005,1.931201e-004
1.323456e-004,2.094887e-004
2.088404e-004,2.258573e-004
2.705873e-004,2.472499e-004
3.106175e-004,2.759355e-004
3.193690e-004,3.083486e-004
2.986247e-004,3.475684e-004
2.610255e-004,4.018603e-004
2.213195e-004,4.767345e-004
1.864754e-004,5.665187e-004
1.548727e-004,6.558168e-004
1.190562e-004,7.289083e-004
6.719535e-005,7.752590e-004
-1.027188e-005,7.903311e-004
-1.063766e-004,7.718556e-004
-2.028055e-004,7.352289e-004
-2.728177e-004,7.130259e-004
-2.840002e-004,7.285841e-004
-2.203085e-004,7.703970e-004
-8.222889e-005,8.060515e-004
1.357490e-004,7.976240e-004
4.216323e-004,7.115673e-004
7.269635e-004,5.371849e-004
9.758961e-004,2.840388e-004
1.113328e-003,-2.161646e-005
1.138772e-003,-3.506090e-004
1.095014e-003,-6.731189e-004
1.036833e-003,-9.714811e-004
9.882130e-004,-1.233217e-003
9.517483e-004,-1.449736e-003
9.154457e-004,-1.612936e-003
8.491609e-004,-1.718116e-003
7.034640e-004,-1.765115e-003
4.248736e-004,-1.752636e-003
-3.279896e-005,-1.680679e-003
-6.784671e-004,-1.548272e-003
-1.470804e-003,-1.366272e-003
-2.348389e-003,-1.162880e-003
-3.214954e-003,-9.654847e-004
-3.915728e-003,-7.885094e-004
-4.271788e-003,-6.248235e-004
-4.154613e-003,-4.548170e-004
-3.562261e-003,-2.575835e-004
-2.636379e-003,-2.437157e-005
-1.604346e-003,2.273159e-004
-6.911082e-004,4.642555e-004
-4.284701e-005,6.579236e-004
3.164518e-004,7.921138e-004
4.542074e-004,8.720121e-004
4.717105e-004,9.097734e-004
4.568005e-004,9.154457e-004
4.585832e-004,8.880566e-004
4.597176e-004,8.220959e-004
4.075326e-004,7.149707e-004
2.641047e-004,5.707325e-004
2.846173e-005,3.966742e-004
-2.498044e-004,2.052750e-004
-4.945230e-004,1.063454e-005
-6.377887e-004,-1.708786e-004
-6.476747e-004,-3.275957e-004
-5.343911e-004,-4.514136e-004
-3.386162e-004,-5.408737e-004
-1.105903e-004,-5.997034e-004
1.059290e-004,-6.254718e-004
2.866318e-004,-6.142893e-004
4.166082e-004,-5.658317e-004
4.960203e-004,-4.872300e-004
5.345919e-004,-3.878840e-004
5.435055e-004,-2.825416e-004
5.277851e-004,-1.807646e-004
4.882411e-004,-1.003802e-004
4.315182e-004,-5.370539e-005
3.837090e-004,-3.782299e-005
3.780367e-004,-3.928157e-005
4.328148e-004,-3.976777e-005
5.360505e-004,-2.420950e-005
6.575995e-004,1.436204e-005
7.663454e-004,8.016057e-005
8.433265e-004,1.803169e-004
8.833567e-004,3.120761e-004
8.898393e-004,4.576108e-004
8.712018e-004,5.926113e-004
8.327923e-004,6.916333e-004
7.781762e-004,7.389564e-004
7.139983e-004,7.405770e-004
6.485239e-004,7.174017e-004
5.939078e-004,6.958470e-004
5.551741e-004,6.971435e-004
5.292437e-004,7.305289e-004
5.078511e-004,7.900069e-004
4.814344e-004,8.553194e-004
4.462662e-004,9.053976e-004
4.047775e-004,9.324626e-004
3.668542e-004,9.366762e-004
3.427064e-004,9.186870e-004
3.365480e-004,8.833567e-004
3.527545e-004,8.410576e-004
3.921364e-004,8.023240e-004
4.464283e-004,7.796348e-004
5.021787e-004,7.796348e-004
5.467468e-004,7.963275e-004
5.726772e-004,8.118858e-004
5.799701e-004,8.104272e-004
5.679773e-004,7.819037e-004
5.394538e-004,7.250187e-004
5.062304e-004,6.486859e-004
4.686312e-004,5.580913e-004
4.143393e-004,4.592314e-004
3.216380e-004,3.660439e-004
1.769136e-004,2.884145e-004
-1.950961e-005,2.276400e-004
-2.501286e-004,1.754550e-004
-4.708614e-004,1.192183e-004
-6.304958e-004,4.677511e-005
-6.928909e-004,-5.192267e-005
-6.596675e-004,-1.733096e-004
-5.630766e-004,-3.050687e-004
-4.384484e-004,-4.282383e-004
-3.096065e-004,-5.311498e-004
-1.843300e-004,-6.097514e-004
-6.213279e-005,-6.640433e-004
5.974033e-005,-6.975908e-004
1.772377e-004,-7.215765e-004
2.744769e-004,-7.476690e-004
3.357376e-004,-7.778131e-004
3.488649e-004,-8.090917e-004
3.154794e-004,-8.330774e-004
2.524360e-004,-8.387497e-004
1.686482e-004,-8.215707e-004
5.374392e-005,-7.847819e-004
-1.101041e-004,-7.392416e-004
-3.264613e-004,-6.946736e-004
-5.693972e-004,-6.583710e-004
-7.779752e-004,-6.275786e-004
-8.727834e-004,-5.958138e-004
-7.846198e-004,-5.570802e-004
-4.950092e-004,-5.104054e-004
-5.937768e-005,-4.569239e-004
4.104497e-004,-4.047388e-004
8.079963e-004,-3.590364e-004
1.067463e-003,-3.219235e-004
1.168916e-003,-2.906449e-004
1.125159e-003,-2.580697e-004
9.681169e-004,-2.196603e-004
7.272876e-004,-1.793060e-004
4.365423e-004,-1.405724e-004
1.292664e-004,-1.016767e-004
-1.682856e-004,-6.456377e-005
-4.437966e-004,-2.842320e-005
-6.859221e-004,4.476060e-006
-8.800763e-004,3.429608e-005
-1.018966e-003,6.006447e-005
-1.104699e-003,8.113296e-005
-1.138895e-003,9.555677e-005
-1.127388e-003,1.041462e-004
-1.066289e-003,1.093323e-004
-9.398784e-004,1.133840e-004
-7.411864e-004,1.197045e-004
-4.878783e-004,1.302388e-004
-2.211189e-004,1.419075e-004
1.501031e-005,1.516314e-004
1.866375e-004,1.555210e-004
2.782044e-004,1.550348e-004
2.953834e-004,1.547106e-004
2.555152e-004,1.560072e-004
1.840444e-004,1.584381e-004
9.652917e-005,1.600588e-004
4.476060e-006,1.620036e-004
-8.239095e-005,1.663793e-004
-1.459206e-004,1.717275e-004
-1.708786e-004,1.765894e-004
-1.540238e-004,1.785342e-004
-1.073490e-004,1.773998e-004
-5.046408e-005,1.782101e-004
3.179537e-006,1.827479e-004
5.617490e-005,1.876099e-004
1.145184e-004,1.889064e-004
1.757791e-004,1.833962e-004
2.286124e-004,1.736723e-004
2.543808e-004,1.636242e-004
2.423880e-004,1.602208e-004
1.919856e-004,1.649207e-004
1.192183e-004,1.715654e-004
4.402000e-005,1.749688e-004
-1.529591e-005,1.694586e-004
-4.835724e-005,1.587623e-004
-5.921561e-005,1.462832e-004
-5.872941e-005,1.334801e-004
-6.213279e-005,1.224596e-004
-7.526008e-005,1.119254e-004
-9.195280e-005,1.007429e-004
-1.060525e-004,9.053275e-005
-1.175591e-004,8.064677e-005
-1.256624e-004,6.897806e-005
-1.297140e-004,5.066468e-005
-1.303623e-004,2.570662e-005
-1.253383e-004,-4.275467e-006
-9.973194e-005,-3.360929e-005
-3.636440e-005,-6.197072e-005
6.071273e-005,-9.308726e-005
1.686482e-004,-1.293899e-004
2.712356e-004,-1.712027e-004
3.603715e-004,-2.109087e-004
4.347596e-004,-2.395943e-004
5.005581e-004,-2.470493e-004
5.676532e-004,-2.318152e-004
6.499824e-004,-2.008607e-004
7.545147e-004,-1.677994e-004
8.718501e-004,-1.426792e-004
9.820546e-004,-1.267968e-004
1.058387e-003,-1.183694e-004
1.082049e-003,-1.148040e-004
1.059036e-003,-1.146419e-004
1.002475e-003,-1.146419e-004
9.144733e-004,-1.107524e-004
7.755831e-004,-1.031353e-004
5.585775e-004,-9.146661e-005
2.341226e-004,-7.493595e-005
-2.039399e-004,-5.824322e-005
-7.296797e-004,-4.592625e-005
-1.311494e-003,-3.506788e-005
-1.898981e-003,-2.113026e-005
-2.409973e-003,-3.465141e-006
-2.745125e-003,1.306552e-005
-2.844309e-003,2.408596e-005
-2.704447e-003,3.202716e-005
-2.383071e-003,3.980630e-005
-1.971748e-003,5.001642e-005
-1.554106e-003,6.103686e-005
-1.183463e-003,7.254349e-005
-8.776453e-004,8.583286e-005
-6.324406e-004,1.023635e-004
-4.450931e-004,1.211631e-004
-3.104168e-004,1.386662e-004
-2.185258e-004,1.490383e-004
-1.554824e-004,1.493625e-004
-9.859748e-005,1.435281e-004
-2.226472e-005,1.402868e-004
8.567078e-005,1.417454e-004
2.222919e-004,1.511452e-004
3.675024e-004,1.662173e-004
4.965065e-004,1.866375e-004
5.922872e-004,2.068957e-004
6.503066e-004,2.252090e-004
6.746164e-004,2.397949e-004
6.720233e-004,2.513016e-004
6.579236e-004,2.598910e-004
6.488480e-004,2.615117e-004
6.567892e-004,2.547049e-004
6.859610e-004,2.427121e-004
7.306910e-004,2.307193e-004
7.864416e-004,2.221298e-004
8.455954e-004,2.187264e-004
9.005356e-004,2.182402e-004
9.444554e-004,2.161334e-004
9.720065e-004,2.107852e-004
9.710342e-004,2.054371e-004
9.279247e-004,2.020337e-004
8.413817e-004,2.013854e-004
7.256670e-004,2.070577e-004
6.013628e-004,2.290986e-004
4.890515e-004,2.788527e-004
4.041292e-004,3.571303e-004
3.550234e-004,4.482110e-004
3.428685e-004,5.298919e-004
3.584268e-004,5.815908e-004
3.895433e-004,5.948802e-004
4.208219e-004,5.715428e-004
4.396215e-004,5.183853e-004
4.380009e-004,4.516144e-004
4.174185e-004,4.046154e-004
3.872744e-004,4.021844e-004
3.606957e-004,4.344354e-004
3.391410e-004,4.679830e-004
3.158036e-004,4.639314e-004
2.869559e-004,4.007258e-004
2.524360e-004,2.780424e-004
2.180782e-004,1.114392e-004
1.879340e-004,-7.979791e-005
1.655690e-004,-2.805968e-004
1.485521e-004,-4.859335e-004
1.310491e-004,-6.969426e-004
1.111150e-004,-9.137859e-004
9.053275e-005,-1.130143e-003
7.076078e-005,-1.335480e-003
5.471631e-005,-1.512131e-003
5.374392e-005,-1.640325e-003
7.416415e-005,-1.702720e-003
1.064152e-004,-1.693320e-003
1.338042e-004,-1.618932e-003
1.365593e-004,-1.493980e-003
1.103047e-004,-1.337100e-003
5.974033e-005,-1.171308e-003
-2.330684e-006,-1.012808e-003
-5.435365e-005,-8.700282e-004
-7.704279e-005,-7.389174e-004
-6.861539e-005,-6.079687e-004
-4.187462e-005,-4.655133e-004
-1.902341e-005,-3.045825e-004
-2.923353e-005,-1.314967e-004
-8.935975e-005,3.964424e-005
-1.958367e-004,1.914995e-004
-3.335922e-004,3.130485e-004
-4.839888e-004,4.008879e-004
-6.303337e-004,4.611762e-004
-7.533412e-004,5.037994e-004
-8.306464e-004,5.379952e-004
-8.462047e-004,5.644119e-004
-8.032574e-004,5.846701e-004
-7.212523e-004,5.965008e-004
-6.233649e-004,6.037938e-004
-5.211017e-004,6.315070e-004
-4.188385e-004,6.982779e-004
-3.219235e-004,7.995688e-004
-2.452666e-004,9.112320e-004
-1.998883e-004,1.010416e-003
-1.848162e-004,1.085290e-003
-1.851404e-004,1.125645e-003
-1.846542e-004,1.110248e-003
-1.793060e-004,1.029054e-003
-1.742820e-004,8.885428e-004
-1.778474e-004,7.092984e-004
-1.919471e-004,5.206542e-004
-2.198223e-004,3.465960e-004
-2.614731e-004,1.994406e-004
-3.024756e-004,7.691926e-005
-3.277578e-004,-3.506788e-005
-3.275957e-004,-1.575893e-004
-2.966413e-004,-2.925897e-004
-2.347323e-004,-4.193247e-004
-1.436516e-004,-5.136467e-004
-4.203669e-005,-5.551354e-004
4.418206e-005,-5.292050e-004
1.064152e-004,-4.410415e-004
1.530900e-004,-3.151167e-004
2.007372e-004,-1.791439e-004
2.517878e-004,-5.013995e-005
2.876042e-004,6.638502e-005
2.880904e-004,1.778860e-004
2.506533e-004,2.921420e-004
1.916615e-004,4.059119e-004
1.368834e-004,5.054200e-004
1.051186e-004,5.789978e-004
9.944634e-005,6.141660e-004
1.187321e-004,6.010387e-004
1.571416e-004,5.482053e-004
2.023578e-004,4.871067e-004
2.315296e-004,4.532350e-004
2.265056e-004,4.615004e-004
1.837203e-004,4.934272e-004
1.148425e-004,5.170888e-004
3.445814e-005,5.170888e-004
-4.446767e-005,4.965065e-004
-1.122110e-004,4.640934e-004
-1.613168e-004,4.221185e-004
-1.857886e-004,3.662059e-004
-1.781716e-004,2.890628e-004
-1.302002e-004,1.889064e-004
-3.960571e-005,7.562274e-005
8.275361e-005,-3.409549e-005
2.109473e-004,-1.245279e-004
3.221241e-004,-1.909747e-004
4.057499e-004,-2.394322e-004
4.696036e-004,-2.757348e-004
5.459364e-004,-3.065273e-004
6.626236e-004,-3.331060e-004
8.180443e-004,-3.564434e-004
9.838373e-004,-3.788084e-004
1.110572e-003,-3.979321e-004
1.151737e-003,-4.126800e-004
1.096311e-003,-4.230522e-004
9.642274e-004,-4.277521e-004
7.870898e-004,-4.241867e-004
6.002283e-004,-4.143007e-004
4.326527e-004,-4.068457e-004
3.036487e-004,-4.039285e-004
2.094887e-004,-4.055492e-004
1.368834e-004,-4.107352e-004
7.173317e-005,-4.155972e-004
7.555301e-006,-4.151110e-004
-6.456377e-005,-4.044147e-004
-1.697442e-004,-3.823738e-004
-3.441264e-004,-3.483401e-004
-5.941931e-004,-3.045825e-004
-8.886658e-004,-2.541802e-004
-1.169849e-003,-1.984297e-004
-1.362221e-003,-1.389517e-004
-1.407275e-003,-8.190475e-005
-1.288643e-003,-3.247483e-005
-1.046031e-003,7.069105e-006
-7.538275e-004,3.818565e-005
-4.813957e-004,6.152305e-005
-2.736280e-004,7.740546e-005
-1.407345e-004,8.340187e-005
-6.148453e-005,7.999851e-005
-2.654814e-006,7.546067e-005
6.281957e-005,7.546067e-005
1.459591e-004,7.675720e-005
2.378501e-004,7.092284e-005
3.077003e-004,4.823370e-005
3.282826e-004,1.112074e-005
2.903593e-004,-2.907146e-005
2.073819e-004,-6.002594e-005
1.184080e-004,-7.266703e-005
6.346784e-005,-6.229485e-005
6.103686e-005,-3.020592e-005
1.060910e-004,1.776542e-005
1.788584e-004,7.124698e-005
2.440086e-004,1.146805e-004
2.666978e-004,1.409351e-004
2.290986e-004,1.558451e-004
1.310491e-004,1.855030e-004
-2.420950e-005,2.699391e-004
-2.344082e-004,4.430249e-004
-4.878783e-004,7.011951e-004
-7.650100e-004,1.001665e-003
-1.032580e-003,1.289331e-003
-1.242616e-003,1.521409e-003
-1.337425e-003,1.671806e-003
-1.265792e-003,1.729339e-003
-1.011187e-003,1.687850e-003
-6.160720e-004,1.551553e-003
-1.720131e-004,1.332764e-003
2.227781e-004,1.041695e-003
5.078511e-004,6.827196e-004
6.751026e-004,2.628082e-004
7.430080e-004,-1.984297e-004
7.459252e-004,-6.693914e-004
7.183740e-004,-1.115071e-003
6.854748e-004,-1.506945e-003
6.592202e-004,-1.823783e-003
6.358828e-004,-2.047919e-003
6.070351e-004,-2.172710e-003
5.613327e-004,-2.200261e-003
4.887274e-004,-2.144510e-003
3.846814e-004,-2.029120e-003
2.613496e-004,-1.877751e-003
1.310491e-004,-1.703854e-003
-4.761664e-006,-1.512779e-003
-1.569410e-004,-1.310198e-003
-3.356990e-004,-1.105995e-003
-5.366600e-004,-9.105446e-004
-7.285453e-004,-7.306521e-004
-8.547941e-004,-5.702075e-004
-8.641939e-004,-4.293727e-004
-7.321107e-004,-3.018274e-004
-4.783165e-004,-1.786577e-004
-1.569410e-004,-5.678463e-005
1.647587e-004,6.055066e-005
4.281149e-004,1.647587e-004
6.075213e-004,2.466017e-004
7.193465e-004,3.017039e-004
8.037825e-004,3.383307e-004
8.969702e-004,3.670162e-004
1.013495e-003,3.942432e-004
1.140393e-003,4.240633e-004
1.251083e-003,4.563143e-004
1.325310e-003,4.895377e-004
1.346864e-003,5.224369e-004
1.306672e-003,5.553362e-004
1.195333e-003,5.846701e-004
1.001502e-003,6.060627e-004
7.190223e-004,6.178935e-004
3.521062e-004,6.234037e-004
-8.401160e-005,6.269692e-004
-5.583767e-004,6.329655e-004
-1.010701e-003,6.439860e-004
-1.365138e-003,6.592202e-004
-1.554916e-003,6.763991e-004
-1.556375e-003,6.951987e-004
-1.399658e-003,7.086502e-004
-1.144243e-003,7.065432e-004
-8.580354e-004,6.851507e-004
-5.982448e-004,6.485239e-004
-3.984183e-004,6.123833e-004
-2.736280e-004,6.046041e-004
-2.198223e-004,6.465791e-004
-2.075054e-004,7.313393e-004
-2.031296e-004,8.418679e-004
-1.911368e-004,9.771927e-004
-1.771992e-004,1.130669e-003
-1.744440e-004,1.246546e-003
-1.959987e-004,1.257566e-003
-2.405667e-004,1.154168e-003
-2.932379e-004,9.778409e-004
-3.271096e-004,7.763935e-004
-3.130099e-004,5.767288e-004
-2.405667e-004,3.780367e-004
-1.161005e-004,1.688103e-004
4.223728e-005,-5.565017e-005
2.054371e-004,-2.799486e-004
3.425444e-004,-4.742648e-004
4.281149e-004,-6.202856e-004
4.561522e-004,-7.139594e-004
4.371906e-004,-7.591756e-004
3.897054e-004,-7.622549e-004
3.354135e-004,-7.338934e-004
3.000832e-004,-6.857601e-004
2.991108e-004,-6.249856e-004
3.300653e-004,-5.507597e-004
3.762539e-004,-4.540067e-004
4.146635e-004,-3.102548e-004
4.324906e-004,-1.068628e-004
4.276287e-004,1.406109e-004
4.109360e-004,3.859779e-004
3.940812e-004,5.791598e-004
3.859779e-004,6.857989e-004
3.885709e-004,6.984400e-004
3.978086e-004,6.313449e-004
4.076947e-004,5.128751e-004
4.119083e-004,3.754436e-004
4.041292e-004,2.435224e-004
3.751195e-004,1.320215e-004
3.156415e-004,3.915804e-005
2.229401e-004,-5.013995e-005
1.018773e-004,-1.470550e-004
-4.155049e-005,-2.614731e-004
-1.974573e-004,-3.932322e-004
-3.431540e-004,-5.327704e-004
-4.591928e-004,-6.661501e-004
-5.392530e-004,-7.760304e-004
-5.873864e-004,-8.492839e-004
-6.026206e-004,-8.838038e-004
-5.775004e-004,-8.872072e-004
-5.071641e-004,-8.701903e-004
-4.023079e-004,-8.402083e-004
-2.945344e-004,-8.058504e-004
-2.230636e-004,-7.716547e-004
-2.109087e-004,-7.381071e-004
-2.570974e-004,-6.988873e-004
-3.392644e-004,-6.504298e-004
-4.193247e-004,-5.906277e-004
-4.598410e-004,-5.183466e-004
-4.356933e-004,-4.373140e-004
-3.413713e-004,-3.527159e-004
-1.872472e-004,-2.695764e-004
-1.108221e-005,-1.908126e-004
1.453108e-004,-1.172350e-004
2.615117e-004,-4.851930e-005
3.410858e-004,1.711715e-005
4.062361e-004,7.529860e-005
4.819206e-004,1.208390e-004
5.770530e-004,1.519555e-004
6.776956e-004,1.686482e-004
7.631041e-004,1.752929e-004
8.293889e-004,1.817755e-004
8.806016e-004,1.944166e-004
9.237110e-004,2.128921e-004
9.626067e-004,2.334744e-004
9.971267e-004,2.490327e-004
1.022733e-003,2.560015e-004
1.025812e-003,2.595669e-004
9.891854e-004,2.854973e-004
8.953495e-004,3.595612e-004
7.287462e-004,4.825689e-004
4.770586e-004,6.386379e-004
1.457970e-004,8.091307e-004
-2.216050e-004,9.758961e-004
-5.496252e-004,1.112841e-003
-7.650100e-004,1.196143e-003
-8.274051e-004,1.210729e-003
-7.465345e-004,1.154816e-003
-5.804176e-004,1.031160e-003
-3.964735e-004,8.553194e-004
-2.353806e-004,6.412309e-004
-1.159385e-004,3.966742e-004
-3.992984e-005,1.190562e-004
8.851824e-006,-1.921092e-004
4.839576e-005,-5.201293e-004
8.550872e-005,-8.303223e-004
1.154908e-004,-1.080389e-003
1.310491e-004,-1.241968e-003
1.260251e-004,-1.302743e-003
9.539470e-005,-1.270492e-003
4.061663e-005,-1.166446e-003
-2.874733e-005,-1.020425e-003
-9.843541e-005,-8.583596e-004
-1.569410e-004,-6.937013e-004
-2.008607e-004,-5.279084e-004
-2.280877e-004,-3.608192e-004
-2.370013e-004,-1.959987e-004
-2.313290e-004,-3.911951e-005
-2.243602e-004,1.046324e-004
-2.263049e-004,2.292607e-004
-2.394322e-004,3.287688e-004
-2.598524e-004,4.038051e-004
-2.786520e-004,4.580970e-004
-2.938862e-004,4.939134e-004
-3.049066e-004,5.131993e-004
-3.091203e-004,5.190336e-004
-2.966413e-004,5.157923e-004
-2.629317e-004,5.084993e-004
-2.079916e-004,4.994237e-004
-1.389517e-004,4.871067e-004
-7.347736e-005,4.681450e-004
-2.874733e-005,4.401077e-004
-1.010982e-005,4.038051e-004
-1.399939e-005,3.605336e-004
-3.344723e-005,3.085106e-004
-6.261898e-005,2.496809e-004
-9.811128e-005,1.887444e-004
-1.332795e-004,1.310491e-004
-1.558065e-004,8.388807e-005
-1.605064e-004,5.325772e-005
-1.459206e-004,3.996837e-005
-1.211246e-004,4.029250e-005
-1.000561e-004,4.256141e-005
-8.725291e-005,4.337174e-005
-8.190475e-005,4.531652e-005
-8.012204e-005,5.066468e-005
-7.185670e-005,5.844381e-005
-2.096820e-005,6.427817e-005
1.112771e-004,6.298164e-005
3.320101e-004,5.179914e-005
6.021731e-004,3.186510e-005
8.656915e-004,8.041497e-006
1.073460e-003,-1.594417e-005
1.202626e-003,-3.814712e-005
1.256270e-003,-5.759496e-005
1.245087e-003,-7.266703e-005
1.181395e-003,-8.012204e-005
1.092421e-003,-7.817725e-005
1.011064e-003,-6.910160e-005
9.577448e-004,-5.775702e-005
9.248455e-004,-4.851930e-005
8.776844e-004,-4.430560e-005
7.713694e-004,-4.349527e-005
5.589016e-004,-4.284701e-005
1.940925e-004,-4.284701e-005
-3.535262e-004,-4.608832e-005
-1.076986e-003,-5.192267e-005
-1.931394e-003,-5.548811e-005
-2.842365e-003,-5.354332e-005
-3.694021e-003,-4.430560e-005
-4.338720e-003,-2.826114e-005
-4.656209e-003,-1.189254e-005
-4.594137e-003,2.369211e-006
-4.162392e-003,1.517237e-005
-3.429529e-003,3.186510e-005
-2.516937e-003,5.260946e-005
-1.574364e-003,7.448828e-005
-7.394037e-004,9.620504e-005
-1.076731e-004,1.114392e-004
2.958695e-004,1.184080e-004
5.131993e-004,1.210010e-004
6.149763e-004,1.211631e-004
6.605167e-004,1.195424e-004
6.916333e-004,1.171115e-004
7.355530e-004,1.114392e-004
8.026481e-004,1.013911e-004
8.862739e-004,9.134307e-005
9.762202e-004,8.388807e-005
1.064708e-003,7.999851e-005
1.144768e-003,7.805372e-005
1.206839e-003,7.935024e-005
1.244763e-003,7.983644e-005
1.262104e-003,7.772959e-005
1.261942e-003,6.930219e-005
1.245573e-003,5.487838e-005
1.214943e-003,3.575467e-005
1.165999e-003,1.727922e-005
1.096473e-003,2.207145e-006
1.005716e-003,-8.165035e-006
8.906497e-004,-1.691656e-005
7.567836e-004,-2.826114e-005
6.195141e-004,-4.365734e-005
4.908342e-004,-6.310517e-005
3.749574e-004,-8.352541e-005
2.639427e-004,-1.039456e-004
1.524417e-004,-1.238797e-004
4.774750e-005,-1.387897e-004
-3.555408e-005,-1.451102e-004
-7.282909e-005,-1.455964e-004
-4.738484e-005,-1.412206e-004
3.332369e-005,-1.342519e-004
1.404489e-004,-1.248521e-004
2.363916e-004,-1.141558e-004
2.926282e-004,-1.078352e-004
2.973281e-004,-1.112386e-004
2.642668e-004,-1.235555e-004
2.213195e-004,-1.363587e-004
1.937684e-004,-1.442999e-004
1.924718e-004,-1.465688e-004
2.146748e-004,-1.434896e-004
2.511395e-004,-1.371690e-004
2.887387e-004,-1.323071e-004
3.182346e-004,-1.336036e-004
3.339549e-004,-1.404103e-004
3.487029e-004,-1.477033e-004
3.791712e-004,-1.525652e-004
4.295735e-004,-1.545100e-004
4.903480e-004,-1.535376e-004
5.480433e-004,-1.486757e-004
5.862907e-004,-1.381414e-004
6.012007e-004,-1.240417e-004
6.046041e-004,-1.114006e-004
6.107626e-004,-1.037836e-004
6.386379e-004,-9.924574e-005
6.942263e-004,-9.632857e-005
7.642386e-004,-9.438378e-005
8.269579e-004,-9.276313e-005
8.574262e-004,-9.114248e-005
8.293889e-004,-9.081835e-005
7.302048e-004,-8.628052e-005
5.640878e-004,-7.072225e-005
3.487029e-004,-4.236082e-005
1.179218e-004,-8.002969e-006
-9.000802e-005,2.554455e-005
-2.493182e-004,5.666109e-005
-3.522297e-004,8.664318e-005
-4.002010e-004,1.135460e-004
-3.998769e-004,1.315353e-004
-3.656811e-004,1.334801e-004
-3.198166e-004,1.216493e-004
-2.874036e-004,1.193804e-004
-2.911311e-004,1.555210e-004
-3.386162e-004,2.425500e-004
-4.199730e-004,3.691231e-004
-5.105674e-004,4.966686e-004
-5.857658e-004,5.861287e-004
-6.235270e-004,6.224313e-004
-6.107238e-004,6.080075e-004
-5.411978e-004,5.579292e-004
-4.251591e-004,4.929411e-004
-2.912931e-004,4.264942e-004
-1.689338e-004,3.681507e-004
-8.255302e-005,3.161277e-004
-4.365734e-005,2.634565e-004
-5.224680e-005,2.149989e-004
-9.616651e-005,1.863134e-004
-1.585616e-004,1.820997e-004
-2.198223e-004,1.845306e-004
-2.622834e-004,1.678379e-004
-2.851347e-004,1.171115e-004
-3.015032e-004,3.899597e-005
-3.175477e-004,-4.738484e-005
-3.290543e-004,-1.243659e-004
-3.342404e-004,-1.783336e-004
-3.391024e-004,-2.068571e-004
-3.519055e-004,-2.062088e-004
-3.731361e-004,-1.781716e-004
-3.925839e-004,-1.331174e-004
-3.946908e-004,-9.179074e-005
-3.742705e-004,-7.023606e-005
-3.350507e-004,-7.590833e-005
-2.817312e-004,-1.065387e-004
-2.147983e-004,-1.535376e-004
-1.363587e-004,-2.115570e-004
-5.127441e-005,-2.762210e-004
2.910999e-005,-3.222476e-004
9.312580e-005,-3.039342e-004
1.289422e-004,-1.909747e-004
1.349386e-004,1.014835e-005
1.200286e-004,2.566497e-004
1.031738e-004,4.961824e-004
1.072255e-004,6.885540e-004
1.449867e-004,8.167478e-004
2.091646e-004,8.721742e-004
2.756114e-004,8.511057e-004
3.229345e-004,7.537043e-004
3.459477e-004,5.893700e-004
3.499994e-004,3.720403e-004
3.393030e-004,1.135460e-004
3.187208e-004,-1.799543e-004
2.927903e-004,-5.018159e-004
2.657254e-004,-8.321049e-004
2.529222e-004,-1.136950e-003
2.798251e-004,-1.382803e-003
3.559958e-004,-1.545192e-003
4.637693e-004,-1.614881e-003
5.631154e-004,-1.597540e-003
6.159487e-004,-1.512131e-003
6.008766e-004,-1.380372e-003
5.216266e-004,-1.226086e-003
3.929467e-004,-1.065641e-003
2.396328e-004,-9.017931e-004
9.458438e-005,-7.368106e-004
-9.461558e-006,-5.710179e-004
-5.986387e-005,-4.070078e-004
-6.375344e-005,-2.464010e-004
-4.171256e-005,-9.503204e-005
-1.853722e-005,4.110282e-005
-1.950961e-005,1.590864e-004
-7.363943e-005,2.602152e-004
-2.135018e-004,3.457857e-004
-4.512515e-004,4.198496e-004
-7.622549e-004,4.905101e-004
-1.100323e-003,5.571189e-004
-1.403871e-003,6.149763e-004
-1.595433e-003,6.611650e-004
-1.609856e-003,6.943883e-004
-1.434988e-003,7.159431e-004
-1.115557e-003,7.293945e-004
-7.369727e-004,7.313393e-004
-3.835083e-004,7.186982e-004
-1.128592e-004,6.987641e-004
5.763349e-005,6.773715e-004
1.453108e-004,6.574374e-004
1.816135e-004,6.407447e-004
1.921477e-004,6.271312e-004
1.919856e-004,6.144901e-004
1.842065e-004,6.024973e-004
1.780480e-004,5.942319e-004
1.908512e-004,5.896941e-004
2.305572e-004,5.877494e-004
2.890628e-004,5.851563e-004
3.496752e-004,5.773771e-004
3.965121e-004,5.601982e-004
4.204978e-004,5.352402e-004
4.174185e-004,5.078511e-004
3.871123e-004,4.812723e-004
3.435168e-004,4.553419e-004
3.089969e-004,4.274666e-004
2.981384e-004,3.952156e-004
3.102934e-004,3.556717e-004
3.354135e-004,3.125623e-004
3.563199e-004,2.689667e-004
3.615060e-004,2.342847e-004
3.475684e-004,2.140265e-004
3.140208e-004,2.075439e-004
2.577842e-004,2.112714e-004
1.799928e-004,2.192126e-004
8.097089e-005,2.250470e-004
-3.522994e-005,2.231022e-004
-1.700683e-004,2.111094e-004
-3.196545e-004,1.892305e-004
-4.681064e-004,1.598967e-004
-5.885208e-004,1.257009e-004
-6.556159e-004,9.020862e-005
-6.549676e-004,5.747142e-005
-5.904656e-004,3.202716e-005
-4.839888e-004,2.084466e-005
-3.669776e-004,2.441009e-005
-2.626076e-004,3.753739e-005
-1.840059e-004,5.228533e-005
-1.316588e-004,5.779555e-005
-1.005423e-004,4.693717e-005
-8.206682e-005,1.614476e-005
-6.504996e-005,-3.085418e-005
-3.490581e-005,-8.579432e-005
8.365628e-006,-1.413827e-004
5.406805e-005,-1.919471e-004
8.307774e-005,-2.353806e-004
7.043665e-005,-2.708729e-004
-1.140634e-005,-3.015032e-004
-1.780095e-004,-3.313232e-004
-4.206212e-004,-3.596847e-004
-6.964564e-004,-3.812394e-004
-9.312889e-004,-3.930701e-004
-1.040683e-003,-3.979321e-004
-9.667812e-004,-4.024699e-004
-6.969426e-004,-4.141386e-004
-2.796244e-004,-4.329382e-004
1.926339e-004,-4.484965e-004
6.329655e-004,-4.557894e-004
9.833511e-004,-4.553032e-004
1.214943e-003,-4.468758e-004
1.326606e-003,-4.309934e-004
1.334385e-003,-4.108973e-004
1.263400e-003,-3.891806e-004
1.145417e-003,-3.660052e-004
1.004582e-003,-3.441264e-004
8.514298e-004,-3.248407e-004
6.930918e-004,-3.055549e-004
5.318367e-004,-2.833519e-004
3.725265e-004,-2.572594e-004
2.205092e-004,-2.295462e-004
8.097089e-005,-2.070192e-004
-5.095028e-005,-1.919471e-004
-1.802784e-004,-1.799543e-004
-3.117133e-004,-1.660166e-004
-4.403932e-004,-1.457585e-004
-5.457356e-004,-1.182074e-004
-5.966241e-004,-8.579432e-005
-5.611319e-004,-5.321920e-005
-4.284004e-004,-2.437157e-005
-2.201465e-004,-6.176923e-008
1.614476e-005,2.327564e-005
2.258573e-004,4.774750e-005
3.754436e-004,6.995045e-005
4.577728e-004,8.745350e-005
4.809482e-004,1.025256e-004
4.624728e-004,1.153287e-004
4.224426e-004,1.231079e-004
3.739850e-004,1.276457e-004
3.303894e-004,1.295905e-004
3.055935e-004,1.307250e-004
3.106175e-004,1.260251e-004
3.407616e-004,1.145184e-004
3.762539e-004,1.033359e-004
3.978086e-004,9.717743e-005
3.963501e-004,9.766362e-005
3.759298e-004,1.056048e-004
3.465960e-004,1.206769e-004
3.128864e-004,1.386662e-004
2.769079e-004,1.540623e-004
2.446569e-004,1.629760e-004
2.187264e-004,1.634622e-004
1.994406e-004,1.577899e-004
1.848548e-004,1.534141e-004
1.710792e-004,1.553589e-004
1.545486e-004,1.602208e-004
1.315353e-004,1.598967e-004
1.052807e-004,1.526038e-004
8.097089e-005,1.445005e-004
6.460230e-005,1.432040e-004
5.520250e-005,1.564933e-004
4.953022e-005,1.973338e-004
4.855783e-005,2.673460e-004
5.228533e-005,3.546993e-004
6.265751e-005,4.410801e-004
7.108491e-005,5.099580e-004
6.362991e-005,5.512846e-004
2.797553e-005,5.652222e-004
-3.992984e-005,5.571189e-004
-1.310105e-004,5.362125e-004
-2.191741e-004,5.015305e-004
-2.757348e-004,4.470765e-004
-2.726556e-004,3.709058e-004
-1.958367e-004,2.699391e-004
-5.824322e-005,1.399627e-004
1.107909e-004,-1.432352e-005
2.817699e-004,-1.814128e-004
4.274666e-004,-3.454229e-004
5.274609e-004,-4.941989e-004
5.673291e-004,-6.254718e-004
5.465847e-004,-7.437794e-004
4.786793e-004,-8.475012e-004
3.848434e-004,-9.309648e-004
2.767458e-004,-9.815291e-004
1.642725e-004,-9.896324e-004
5.260946e-005,-9.573814e-004
-5.937768e-005,-8.959587e-004
-1.812508e-004,-8.193018e-004
-3.275957e-004,-7.385933e-004
-4.988988e-004,-6.573986e-004
-6.825188e-004,-5.784728e-004
-8.674352e-004,-5.018159e-004
-1.045221e-003,-4.292107e-004
-1.196752e-003,-3.668155e-004
-1.287022e-003,-3.146305e-004
-1.274867e-003,-2.741142e-004
-1.140515e-003,-2.431597e-004
-9.107067e-004,-2.165810e-004
-6.470265e-004,-1.870851e-004
-4.097628e-004,-1.512687e-004
-2.267911e-004,-1.083214e-004
-9.551824e-005,-6.472583e-005
3.017472e-006,-2.307504e-005
7.708133e-005,1.954813e-005
1.221355e-004,6.152305e-005
1.375317e-004,1.020394e-004
1.323456e-004,1.420695e-004
1.244044e-004,1.796687e-004
1.235941e-004,2.143507e-004
1.266733e-004,2.488706e-004
1.253768e-004,2.871180e-004
1.067393e-004,3.320101e-004
5.990240e-005,3.835469e-004
-1.335113e-005,4.365423e-004
-1.003802e-004,4.845136e-004
-1.859507e-004,5.253541e-004
-2.580697e-004,5.592257e-004
-3.091203e-004,5.827253e-004
-3.269475e-004,5.979594e-004
-2.937241e-004,6.118971e-004
-2.041020e-004,6.274553e-004
-6.974985e-005,6.404206e-004
8.421220e-005,6.452826e-004
2.273159e-004,6.431757e-004
3.305515e-004,6.371793e-004
3.812780e-004,6.290760e-004
3.850055e-004,6.195141e-004
3.579406e-004,6.057385e-004
3.151553e-004,5.879114e-004
2.658874e-004,5.676532e-004
2.104611e-004,5.477191e-004
1.446626e-004,5.247059e-004
6.330578e-005,4.965065e-004
-2.809907e-005,4.626348e-004
-1.126972e-004,4.261701e-004
-1.729855e-004,3.879227e-004
-1.976194e-004,3.538890e-004
-1.900023e-004,3.271482e-004
-1.611547e-004,3.057555e-004
-1.245279e-004,2.846870e-004
-8.725291e-005,2.613496e-004
-5.435365e-005,2.354192e-004
-3.360929e-005,2.098128e-004
-2.826114e-005,1.885823e-004
-3.668853e-005,1.856651e-004
-5.500191e-005,2.227781e-004
-7.850138e-005,3.091589e-004
-1.024871e-004,4.294114e-004
-1.212866e-004,5.593878e-004
-1.297140e-004,6.853127e-004
-1.261486e-004,8.041067e-004
-1.126972e-004,9.068561e-004
-9.357346e-005,9.767064e-004
-7.250496e-005,9.924268e-004
-5.062615e-005,9.399176e-004
-2.599222e-005,7.976240e-004
6.420843e-006,5.483674e-004
4.936815e-005,2.028440e-004
9.814982e-005,-2.002124e-004
1.412592e-004,-6.108859e-004
1.668655e-004,-1.004380e-003
1.738343e-004,-1.370324e-003
1.739964e-004,-1.696237e-003
1.837203e-004,-1.959594e-003
2.088404e-004,-2.138028e-003
2.381743e-004,-2.216792e-003
2.550291e-004,-2.195399e-003
2.498430e-004,-2.093298e-003
2.318537e-004,-1.939011e-003
2.185644e-004,-1.752474e-003
2.206712e-004,-1.543086e-003
2.359054e-004,-1.309549e-003
2.495189e-004,-1.053972e-003
2.517878e-004,-7.923990e-004
2.368777e-004,-5.423322e-004
2.093267e-004,-3.133340e-004
1.816135e-004,-1.063766e-004
1.678379e-004,8.145709e-005
1.872858e-004,2.574601e-004
2.470879e-004,4.153117e-004
3.459477e-004,5.405883e-004
4.809482e-004,6.203245e-004
6.551685e-004,6.563030e-004
8.583986e-004,6.653786e-004
1.066815e-003,6.678096e-004
1.259673e-003,6.700786e-004
1.420928e-003,6.697544e-004
1.539236e-003,6.650545e-004
1.612814e-003,6.563030e-004
1.647172e-003,6.439860e-004
1.639393e-003,6.266450e-004
1.579753e-003,5.994180e-004
1.452045e-003,5.605224e-004
1.242008e-003,5.060683e-004
9.454277e-004,4.410801e-004
5.504743e-004,3.749574e-004
3.186510e-005,3.156415e-004
-6.204477e-004,2.628082e-004
-1.386044e-003,2.188885e-004
-2.216629e-003,1.856651e-004
-3.025823e-003,1.654069e-004
-3.700180e-003,1.574657e-004
-4.144241e-003,1.582761e-004
-4.296097e-003,1.618415e-004
-4.131276e-003,1.665414e-004
-3.665173e-003,1.704310e-004
-2.966021e-003,1.785342e-004
-2.137217e-003,1.900409e-004
-1.299501e-003,2.000889e-004
-5.501114e-004,2.043026e-004
5.034055e-005,2.043026e-004
4.772207e-004,2.007372e-004
7.383081e-004,1.910133e-004
8.637467e-004,1.773998e-004
8.906497e-004,1.633001e-004
8.515919e-004,1.504969e-004
7.746107e-004,1.383420e-004
6.841783e-004,1.279698e-004
5.960147e-004,1.179218e-004
5.253541e-004,1.080358e-004
4.806241e-004,9.928428e-005
4.606900e-004,8.875003e-005
4.613383e-004,7.205730e-005
4.734932e-004,4.871989e-005
4.837033e-004,2.165498e-005
4.801379e-004,-5.571990e-006
4.595556e-004,-2.696461e-005
4.287631e-004,-3.863332e-005
3.989431e-004,-4.106429e-005
3.882468e-004,-4.106429e-005
4.062361e-004,-4.333321e-005
4.441593e-004,-5.273300e-005
4.866205e-004,-6.974985e-005
5.213025e-004,-9.098041e-005
5.407503e-004,-1.139937e-004
5.410745e-004,-1.378173e-004
5.247059e-004,-1.613168e-004
4.979651e-004,-1.822232e-004
4.725208e-004,-1.974573e-004
4.655520e-004,-2.053985e-004
4.934272e-004,-2.081536e-004
5.610085e-004,-2.066950e-004
6.535479e-004,-2.028055e-004
7.460872e-004,-2.005366e-004
8.172340e-004,-1.994021e-004
8.553194e-004,-1.958367e-004
8.634226e-004,-1.888679e-004
8.436506e-004,-1.823853e-004
7.956792e-004,-1.786577e-004
7.232360e-004,-1.799543e-004
6.279415e-004,-1.823853e-004
5.072028e-004,-1.815749e-004
3.751195e-004,-1.765509e-004
2.472499e-004,-1.674752e-004
1.363972e-004,-1.538618e-004
5.034055e-005,-1.404103e-004
-4.761664e-006,-1.295519e-004
-3.166451e-005,-1.211246e-004
-4.673658e-005,-1.110765e-004
-6.650855e-005,-9.794922e-005
-1.008664e-004,-8.287715e-005
-1.501342e-004,-6.715681e-005
-2.034537e-004,-5.046408e-005
-2.462390e-004,-3.296103e-005
-2.617972e-004,-1.416145e-005
-2.426735e-004,3.827799e-006
-1.922712e-004,1.792748e-005
-1.227452e-004,2.765140e-005
-5.192267e-005,3.510641e-005
5.934648e-006,4.207521e-005
4.272347e-005,5.682316e-005
5.617490e-005,8.502253e-005
4.888196e-005,1.213252e-004
2.684107e-005,1.589243e-004
-1.270286e-005,1.957132e-004
-8.028410e-005,2.302331e-004
-1.739578e-004,2.571359e-004
-2.742763e-004,2.713977e-004
-3.538503e-004,2.725321e-004
-3.950149e-004,2.639427e-004
-3.956632e-004,2.488706e-004
-3.681121e-004,2.346088e-004
-3.280820e-004,2.271538e-004
-2.953447e-004,2.261814e-004
-2.812451e-004,2.274780e-004
-2.872415e-004,2.242366e-004
-3.036101e-004,2.120818e-004
-3.190063e-004,1.931201e-004
-3.219235e-004,1.728619e-004
-3.040963e-004,1.569795e-004
-2.629317e-004,1.459591e-004
-2.002124e-004,1.351007e-004
-1.279313e-004,1.242423e-004
-6.602235e-005,1.124116e-004
-3.312309e-005,9.847395e-005
-3.490581e-005,7.935024e-005
-6.472583e-005,5.471631e-005
-1.141558e-004,2.732727e-005
-1.780095e-004,1.720949e-006
-2.514251e-004,-1.902341e-005
-3.180339e-004,-3.328516e-005
-3.626019e-004,-4.203669e-005
-3.723258e-004,-4.236082e-005
-3.378059e-004,-2.339918e-005
-2.543422e-004,2.343770e-005
-1.345760e-004,9.604298e-005
-8.720959e-007,1.859892e-004
1.205148e-004,2.786906e-004
2.055991e-004,3.550234e-004
2.375260e-004,4.133669e-004
2.112714e-004,4.692795e-004
1.300767e-004,5.324850e-004
1.257933e-005,5.950422e-004
-1.107524e-004,6.420412e-004
-2.094502e-004,6.634339e-004
-2.609869e-004,6.475514e-004
-2.635799e-004,5.814288e-004
-2.368392e-004,4.611762e-004
-2.024813e-004,2.889007e-004
-1.783336e-004,6.800567e-005
-1.692580e-004,-2.000504e-004
-1.707166e-004,-5.076503e-004
-1.684476e-004,-8.348601e-004
-1.512687e-004,-1.154291e-003
-1.208004e-004,-1.442929e-003
-8.158062e-005,-1.680841e-003
-4.041603e-005,-1.851496e-003
-6.176923e-008,-1.940794e-003
3.705119e-005,-1.940956e-003
7.108491e-005,-1.851010e-003
1.067393e-004,-1.679545e-003
1.417454e-004,-1.451843e-003
1.736723e-004,-1.200155e-003
2.034923e-004,-9.567332e-004
2.355812e-004,-7.411864e-004
2.712356e-004,-5.582146e-004
3.068900e-004,-3.932322e-004
3.430306e-004,-2.337599e-004
3.858158e-004,-7.607040e-005
4.443214e-004,7.691926e-005
5.162785e-004,2.214815e-004
5.828873e-004,3.519442e-004
6.177314e-004,4.652279e-004
6.026593e-004,5.598741e-004
5.417228e-004,6.332897e-004
4.632831e-004,6.851507e-004
4.002396e-004,7.154569e-004
3.653956e-004,7.250187e-004
3.485408e-004,7.172396e-004
3.253654e-004,6.994124e-004
2.671840e-004,6.789921e-004
1.574657e-004,6.629477e-004
3.665733e-006,6.488480e-004
-1.545100e-004,6.324793e-004
-2.865932e-004,6.130316e-004
-3.896668e-004,5.943940e-004
-4.760476e-004,5.777013e-004
-5.646973e-004,5.608465e-004
-6.667984e-004,5.418848e-004
-7.701961e-004,5.221128e-004
-8.251361e-004,5.018546e-004
-7.679272e-004,4.843516e-004
-5.737729e-004,4.712243e-004
-2.818933e-004,4.629590e-004
2.068259e-005,4.587452e-004
2.430362e-004,4.585832e-004
3.331446e-004,4.616624e-004
2.968419e-004,4.653899e-004
1.819376e-004,4.697657e-004
4.612685e-005,4.799758e-004
-6.942573e-005,4.942376e-004
-1.460826e-004,5.094717e-004
-1.885437e-004,5.213025e-004
-2.162569e-004,5.234093e-004
-2.541802e-004,5.099580e-004
-3.128478e-004,4.833792e-004
-3.835083e-004,4.529109e-004
-4.444448e-004,4.240633e-004
-4.794509e-004,3.961880e-004
-4.805854e-004,3.697714e-004
-4.493068e-004,3.487029e-004
-3.875599e-004,3.496752e-004
-2.951827e-004,3.929467e-004
-1.802784e-004,4.785172e-004
-5.548811e-005,5.762426e-004
6.200925e-005,6.366931e-004
1.579519e-004,6.269692e-004
2.337985e-004,5.473950e-004
3.000832e-004,4.200116e-004
3.671783e-004,2.743149e-004
4.404318e-004,1.326697e-004
5.221128e-004,2.693341e-006
6.050903e-004,-1.143178e-004
6.812610e-004,-2.188499e-004
7.409012e-004,-3.109030e-004
7.767176e-004,-3.917736e-004
7.822278e-004,-4.645409e-004
7.562974e-004,-5.345531e-004
7.007089e-004,-6.042412e-004
6.161107e-004,-6.664743e-004
5.101200e-004,-7.142835e-004
3.895433e-004,-7.402140e-004
2.610255e-004,-7.350279e-004
1.352628e-004,-6.987253e-004
2.424803e-005,-6.543194e-004
-5.500191e-005,-6.329267e-004
-8.968389e-005,-6.449196e-004
-8.125649e-005,-6.757120e-004
-4.706071e-005,-7.032631e-004
-1.448558e-005,-7.076389e-004
-7.678839e-006,-6.792775e-004
-4.057810e-005,-6.269303e-004
-1.091317e-004,-5.642111e-004
-2.023193e-004,-4.977643e-004
-3.081479e-004,-4.253211e-004
-4.091146e-004,-3.408851e-004
-4.796130e-004,-2.441321e-004
-4.963057e-004,-1.472171e-004
-4.439586e-004,-6.650855e-005
-3.285682e-004,-1.124428e-005
-1.767130e-004,1.744129e-005
-2.809907e-005,3.462021e-005
9.053275e-005,6.314371e-005
1.786963e-004,1.201907e-004
2.422259e-004,2.101370e-004
2.874421e-004,3.234207e-004
3.195311e-004,4.405939e-004
3.428685e-004,5.366987e-004
3.550234e-004,5.969870e-004
3.551855e-004,6.238899e-004
3.425444e-004,6.368551e-004
3.198552e-004,6.554927e-004
2.931144e-004,6.791542e-004
2.641047e-004,6.955228e-004
2.331503e-004,6.825576e-004
2.021958e-004,6.277795e-004
1.761032e-004,5.342677e-004
1.519555e-004,4.206599e-004
1.234320e-004,3.002453e-004
9.328786e-005,1.775618e-004
6.800567e-005,5.552663e-005
5.682316e-005,-5.921561e-005
7.108491e-005,-1.588858e-004
1.098185e-004,-2.400805e-004
1.561692e-004,-3.042584e-004
1.966855e-004,-3.538503e-004
2.200230e-004,-3.869116e-004
2.308813e-004,-4.040906e-004
2.652392e-004,-4.100870e-004
3.611819e-004,-4.097628e-004
5.198439e-004,-4.076560e-004
7.029778e-004,-4.040906e-004
8.590469e-004,-3.980942e-004
9.507760e-004,-3.849669e-004
9.596896e-004,-3.601709e-004
8.864359e-004,-3.264613e-004
7.473837e-004,-2.922655e-004
5.681394e-004,-2.643903e-004
3.722023e-004,-2.426735e-004
1.633001e-004,-2.229016e-004
-7.169464e-005,-2.015090e-004
-3.510952e-004,-1.741199e-004
-6.841394e-004,-1.428413e-004
-1.039873e-003,-1.094559e-004
-1.354766e-003,-7.671866e-005
-1.574688e-003,-5.030202e-005
-1.696561e-003,-3.166451e-005
-1.757174e-003,-1.643037e-005
-1.792504e-003,1.234753e-006
-1.823621e-003,2.343770e-005
-1.835127e-003,4.483033e-005
-1.772894e-003,5.682316e-005
-1.592029e-003,5.957827e-005
-1.283943e-003,5.682316e-005
-8.846141e-004,5.098881e-005
-4.679443e-004,4.677511e-005
-1.131834e-004,4.175109e-005
1.294284e-004,3.251336e-005
2.501671e-004,2.003433e-005
2.756114e-004,7.717366e-006
2.464396e-004,1.396819e-006
2.028440e-004,7.231170e-006
1.746447e-004,2.376183e-005
1.699448e-004,4.142696e-005
1.808031e-004,4.985435e-005
1.927960e-004,4.693717e-005
1.973338e-004,3.672706e-005
1.996027e-004,2.278944e-005
2.128921e-004,9.175954e-006
2.521119e-004,-5.479652e-007
3.112658e-004,-5.085794e-006
3.686369e-004,-5.734056e-006
3.982949e-004,-8.165035e-006
3.900295e-004,-1.464765e-005
3.566440e-004,-2.258885e-005
3.158036e-004,-2.420950e-005
2.791768e-004,-1.691656e-005
2.519498e-004,2.623614e-007
2.316917e-004,2.522042e-005
2.143507e-004,5.325772e-005
2.007372e-004,7.659513e-005
1.903650e-004,8.939829e-005
1.880961e-004,9.328786e-005
2.021958e-004,9.344993e-005
2.347709e-004,9.604298e-005
2.702632e-004,1.041462e-004
2.914938e-004,1.187321e-004
2.869559e-004,1.355869e-004
2.615117e-004,1.469315e-004
2.269918e-004,1.423936e-004
1.872858e-004,1.224596e-004
1.440143e-004,9.798775e-005
1.062531e-004,7.691926e-005
9.166720e-005,6.573675e-005
1.169494e-004,6.460230e-005
1.791825e-004,7.270556e-005
2.569738e-004,8.923623e-005
3.209897e-004,1.146805e-004
3.542131e-004,1.480659e-004
3.577785e-004,1.838824e-004
3.407616e-004,2.195368e-004
3.128864e-004,2.571359e-004
2.876042e-004,2.987867e-004
2.660495e-004,3.465960e-004
2.384984e-004,3.942432e-004
1.966855e-004,4.321665e-004
1.500107e-004,4.490213e-004
1.193804e-004,4.399457e-004
1.250527e-004,4.096394e-004
1.704310e-004,3.723644e-004
2.425500e-004,3.441650e-004
3.180725e-004,3.336308e-004
3.726885e-004,3.440029e-004
4.018603e-004,3.673404e-004
4.110980e-004,3.901916e-004
4.029947e-004,4.060740e-004
3.812780e-004,4.086671e-004
3.491891e-004,3.994293e-004
3.013798e-004,3.738230e-004
2.255332e-004,3.245551e-004
1.106288e-004,2.511395e-004
-4.349527e-005,1.644345e-004
-2.297083e-004,7.513654e-005
-4.212695e-004,-6.706447e-006
-5.775004e-004,-7.623246e-005
-6.533470e-004,-1.324691e-004
-6.287131e-004,-1.750923e-004
-5.136467e-004,-2.032917e-004
-3.434782e-004,-2.193361e-004
-1.666649e-004,-2.314910e-004
-2.518189e-005,-2.460769e-004
6.849186e-005,-2.666592e-004
1.276457e-004,-2.951827e-004
1.705930e-004,-3.280820e-004
2.004130e-004,-3.494746e-004
2.017096e-004,-3.256510e-004
1.639484e-004,-2.357047e-004
9.231547e-005,-8.692878e-005
8.527692e-006,9.247754e-005
-5.953974e-005,2.691288e-004
-9.616651e-005,4.094774e-004
-9.989401e-005,4.940755e-004
-7.882551e-005,5.201680e-004
-5.030202e-005,4.926169e-004
-2.939559e-005,4.203358e-004
-2.145439e-005,3.077003e-004
-2.096820e-005,1.534141e-004
-2.728874e-005,-3.992984e-005
-4.673658e-005,-2.643903e-004
-8.838737e-005,-5.091089e-004
-1.499722e-004,-7.533412e-004
-2.198223e-004,-9.638641e-004
-2.859450e-004,-1.103726e-003
-3.360231e-004,-1.148781e-003
-3.580640e-004,-1.100971e-003
-3.465574e-004,-9.810430e-004
-3.092824e-004,-8.222190e-004
-2.614731e-004,-6.573986e-004
-2.133397e-004,-5.095950e-004
-1.681235e-004,-3.943667e-004
-1.261486e-004,-3.164132e-004
-8.465986e-005,-2.689281e-004
-4.414354e-005,-2.436459e-004
-5.085794e-006,-2.324634e-004
3.316162e-005,-2.306807e-004
7.173317e-005,-2.391081e-004
1.044704e-004,-2.567732e-004
1.284560e-004,-2.801106e-004
1.539003e-004,-3.006929e-004
1.940925e-004,-3.261372e-004
2.469258e-004,-3.619536e-004
2.992729e-004,-3.940425e-004
3.334687e-004,-3.948528e-004
3.420582e-004,-3.494746e-004
3.311998e-004,-2.598524e-004
3.169380e-004,-1.329553e-004
3.149933e-004,3.040651e-005
3.310377e-004,2.271538e-004
3.623164e-004,4.380009e-004
4.020224e-004,6.368551e-004
4.342734e-004,8.005413e-004
4.378388e-004,9.131767e-004
3.948915e-004,9.663342e-004
2.983005e-004,9.639032e-004
1.574657e-004,9.211180e-004
-1.205460e-005,8.571021e-004
-1.883817e-004,7.848209e-004
-3.462333e-004,7.070294e-004
-4.645409e-004,6.217830e-004
-5.308256e-004,5.281092e-004
-5.493010e-004,4.329769e-004
-5.313118e-004,3.483787e-004
-4.929024e-004,2.840388e-004
-4.413656e-004,2.457913e-004
-3.828600e-004,2.315296e-004
-3.322956e-004,2.289366e-004
-3.036101e-004,2.221298e-004
-3.010170e-004,1.997648e-004
-3.199787e-004,1.629760e-004
-3.556330e-004,1.242423e-004
-3.992286e-004,9.361199e-005
-4.405553e-004,7.416415e-005
-4.685925e-004,5.941620e-005
-4.661616e-004,4.337174e-005
-4.224039e-004,1.889987e-005
-3.444506e-004,-9.785688e-006
-2.669833e-004,-3.231277e-005
-2.318152e-004,-4.138842e-005
-2.652006e-004,-3.425755e-005
-3.567675e-004,-1.464765e-005
-4.773441e-004,1.014835e-005
-5.899795e-004,2.975825e-005
-6.577228e-004,3.559260e-005
-6.548056e-004,2.797553e-005
-5.789590e-004,1.419998e-005
-4.454172e-004,3.989864e-006
-2.796244e-004,5.864920e-007
-1.143178e-004,1.002961e-007
2.327564e-005,1.002961e-007
1.226217e-004,-5.247859e-006
2.004130e-004,-1.643037e-005
2.903593e-004,-2.712668e-005
4.169324e-004,-2.583016e-005
5.767288e-004,-1.010982e-005
7.468975e-004,1.176900e-005
8.968081e-004,3.089271e-005
9.961543e-004,4.142696e-005
1.030188e-003,4.304761e-005
1.006040e-003,4.094075e-005
9.504518e-004,3.478228e-005
8.950254e-004,2.505836e-005
8.532125e-004,1.290346e-005
8.256614e-004,9.106227e-007
8.062135e-004,-8.975362e-006
7.843347e-004,-1.772689e-005
7.459252e-004,-2.501983e-005
6.823955e-004,-3.020592e-005
5.903424e-004,-3.360929e-005
4.605280e-004,-3.668853e-005
2.804733e-004,-3.539201e-005
3.575467e-005,-2.566809e-005
-2.723315e-004,-8.489166e-006
-6.074825e-004,1.598270e-005
-8.915829e-004,4.353380e-005
-1.042466e-003,6.638502e-005
-1.015239e-003,7.724339e-005
-8.220569e-004,7.837785e-005
-5.290429e-004,7.367795e-005
-2.238740e-004,6.768154e-005
2.052053e-005,6.914012e-005
1.618415e-004,8.129502e-005
1.966855e-004,1.044704e-004
1.530900e-004,1.326697e-004
7.124698e-005,1.607070e-004
-1.950961e-005,1.804790e-004
-1.005423e-004,1.851789e-004
-1.650443e-004,1.652449e-004
-2.016710e-004,1.180839e-004
-1.979435e-004,5.277153e-005
-1.525652e-004,-1.351319e-005
-7.833932e-005,-5.953974e-005
1.176900e-005,-7.461182e-005
1.041462e-004,-6.245691e-005
1.845306e-004,-3.409549e-005
2.454672e-004,-1.358292e-006
2.895490e-004,2.635488e-005
3.227724e-004,4.434413e-005
3.461098e-004,5.147500e-005
3.642611e-004,5.034055e-005
3.827366e-004,4.304761e-005
3.982949e-004,3.316162e-005
4.020224e-004,2.230325e-005
3.864641e-004,6.744974e-006
3.480546e-004,-1.367526e-005
2.937627e-004,-3.474375e-005
2.407673e-004,-4.965376e-005
2.101370e-004,-5.710876e-005
2.107852e-004,-5.953974e-005
2.362295e-004,-5.953974e-005
2.671840e-004,-6.229485e-005
2.874421e-004,-7.299116e-005
2.927903e-004,-9.000802e-005
2.889007e-004,-1.081593e-004
2.759355e-004,-1.204763e-004
2.521119e-004,-1.271210e-004
2.114335e-004,-1.305243e-004
1.448246e-004,-1.365208e-004
4.904402e-005,-1.480274e-004
-6.667062e-005,-1.609926e-004
-1.864369e-004,-1.661787e-004
-2.904828e-004,-1.562927e-004
-3.613053e-004,-1.319829e-004
-3.898288e-004,-1.036215e-004
-3.767015e-004,-8.417367e-005
-3.287302e-004,-8.093236e-005
-2.582318e-004,-9.422172e-005
-1.835197e-004,-1.149661e-004
-1.199901e-004,-1.365208e-004
-6.958779e-005,-1.520790e-004
-2.420950e-005,-1.571031e-004
2.959619e-005,-1.499722e-004
9.798775e-005,-1.357104e-004
1.741585e-004,-1.162626e-004
2.444948e-004,-9.357346e-005
2.958695e-004,-7.720486e-005
3.208276e-004,-7.526008e-005
3.213138e-004,-7.817725e-005
3.083486e-004,-6.197072e-005
3.065659e-004,-1.124428e-005
3.491891e-004,7.400208e-005
4.569625e-004,1.851789e-004
6.127074e-004,3.078624e-004
7.712074e-004,4.206599e-004
8.770361e-004,5.033132e-004
8.898393e-004,5.410745e-004
8.013516e-004,5.285954e-004
6.332897e-004,4.645796e-004
4.230909e-004,3.512959e-004
2.153231e-004,1.932822e-004
4.288554e-005,-2.330684e-006
-8.547019e-005,-2.227395e-004
-1.757406e-004,-4.504412e-004
-2.381357e-004,-6.666363e-004
-2.802727e-004,-8.497701e-004
-3.074997e-004,-9.795844e-004
-3.391024e-004,-1.044897e-003
-4.120317e-004,-1.048300e-003
-5.650214e-004,-9.980599e-004
-8.032574e-004,-9.076274e-004
-1.091896e-003,-7.888335e-004
-1.374376e-003,-6.528608e-004
-1.571123e-003,-5.066779e-004
-1.610505e-003,-3.572537e-004
-1.463511e-003,-2.112329e-004
-1.164501e-003,-7.282909e-005
-7.951541e-004,5.763349e-005
-4.506033e-004,1.775618e-004
-2.006986e-004,2.848491e-004
-6.391550e-005,3.743092e-004
-1.318906e-005,4.449697e-004
-3.858999e-007,4.956961e-004
1.241726e-005,5.305402e-004
4.272347e-005,5.546879e-004
8.388807e-005,5.733255e-004
1.193804e-004,5.888838e-004
1.336421e-004,6.052523e-004
1.222976e-004,6.200004e-004
8.664318e-005,6.310208e-004
3.348575e-005,6.358828e-004
-2.339918e-005,6.358828e-004
-7.607040e-005,6.305345e-004
-1.238797e-004,6.177314e-004
-1.695821e-004,5.971491e-004
-2.147983e-004,5.705704e-004
-2.517492e-004,5.397780e-004
-2.711970e-004,5.075270e-004
-2.708729e-004,4.746277e-004
-2.491561e-004,4.409181e-004
-2.006986e-004,4.076947e-004
-1.256624e-004,3.775505e-004
-3.847125e-005,3.519442e-004
4.110282e-005,3.292550e-004
9.831188e-005,3.034866e-004
1.308870e-004,2.723701e-004
1.488763e-004,2.383363e-004
1.592484e-004,2.051129e-004
1.610312e-004,1.764274e-004
1.456350e-004,1.547106e-004
1.078737e-004,1.351007e-004
5.990240e-005,1.163011e-004
2.376183e-005,9.377406e-005
1.841368e-005,6.573675e-005
4.175109e-005,3.202716e-005
6.849186e-005,-9.623623e-006
7.610894e-005,-5.678463e-005
5.730935e-005,-1.011905e-004
1.906194e-005,-1.391138e-004
-1.788895e-005,-1.665028e-004
-3.555408e-005,-1.809267e-004
-2.485776e-005,-1.867610e-004
1.436204e-005,-1.890299e-004
6.622294e-005,-1.919471e-004
1.116012e-004,-1.995642e-004
1.378558e-004,-2.133397e-004
1.406109e-004,-2.277635e-004
1.286181e-004,-2.379736e-004
1.159770e-004,-2.382978e-004
1.101427e-004,-2.271153e-004
1.120874e-004,-1.982676e-004
1.224596e-004,-1.441378e-004
1.357490e-004,-6.472583e-005
1.391524e-004,3.332369e-005
1.219734e-004,1.388282e-004
8.745350e-005,2.383363e-004
7.270556e-005,3.211517e-004
1.269974e-004,3.767402e-004
2.683184e-004,4.007258e-004
4.678209e-004,3.942432e-004
6.736440e-004,3.631267e-004
8.441369e-004,3.054314e-004
9.614723e-004,1.949028e-004
1.031485e-003,1.095867e-005
1.066005e-003,-2.395943e-004
1.076701e-003,-5.274223e-004
1.059036e-003,-8.077952e-004
1.011713e-003,-1.041493e-003
9.263040e-004,-1.193349e-003
7.956792e-004,-1.232568e-003
6.180556e-004,-1.150239e-003
4.076947e-004,-9.695364e-004
1.795066e-004,-7.278970e-004
-6.440170e-005,-4.591928e-004
-3.395886e-004,-1.901644e-004
-6.572366e-004,5.811968e-005
-1.006001e-003,2.764217e-004
-1.365624e-003,4.568005e-004
-1.703368e-003,5.898562e-004
-1.967049e-003,6.705648e-004
-2.090542e-003,7.011951e-004
-2.024906e-003,6.924436e-004
-1.770949e-003,6.559788e-004
-1.377131e-003,5.987698e-004
-9.202685e-004,5.248679e-004
-4.750752e-004,4.294114e-004
-9.470791e-005,3.034866e-004
1.955511e-004,1.529279e-004
3.885709e-004,2.623614e-007
4.879170e-004,-1.272830e-004
5.031512e-004,-2.083157e-004
4.563143e-004,-2.347323e-004
3.798194e-004,-2.178775e-004
3.072141e-004,-1.844921e-004
2.623220e-004,-1.575893e-004
2.572980e-004,-1.499722e-004
2.830664e-004,-1.637477e-004
3.127243e-004,-1.927574e-004
3.232586e-004,-2.279256e-004
3.080245e-004,-2.588801e-004
2.730183e-004,-2.741142e-004
2.393087e-004,-2.629317e-004
2.258573e-004,-2.240360e-004
2.362295e-004,-1.668270e-004
2.611876e-004,-9.924574e-005
2.874421e-004,-2.955766e-005
3.093210e-004,3.380988e-005
3.266619e-004,8.437427e-005
3.380065e-004,1.229458e-004
3.478926e-004,1.517934e-004
3.574544e-004,1.701068e-004
3.653956e-004,1.773998e-004
3.699334e-004,1.773998e-004
3.722023e-004,1.731861e-004
3.790091e-004,1.621656e-004
3.940812e-004,1.445005e-004
4.208219e-004,1.198666e-004
4.700898e-004,8.939829e-005
5.422090e-004,5.536457e-005
6.211348e-004,1.906194e-005
6.840162e-004,-1.286493e-005
7.161052e-004,-3.377136e-005
7.164293e-004,-3.960571e-005
6.921195e-004,-3.279896e-005
6.546823e-004,-1.853722e-005
6.164349e-004,1.002961e-007
5.888838e-004,1.938607e-005
5.775391e-004,3.267542e-005
5.751082e-004,4.045456e-005
5.647360e-004,4.564065e-005
5.229231e-004,4.709924e-005
4.287631e-004,4.645098e-005
2.785285e-004,4.094075e-005
7.286763e-005,2.635488e-005
-1.848162e-004,-6.176923e-008
-4.841508e-004,-3.685060e-005
-8.107124e-004,-7.526008e-005
-1.135167e-003,-1.023250e-004
-1.400144e-003,-1.055663e-004
-1.538548e-003,-8.303922e-005
-1.511483e-003,-4.057810e-005
-1.330618e-003,8.365628e-006
-1.047166e-003,5.001642e-005
-7.266005e-004,8.372601e-005
-4.219178e-004,1.188942e-004
-1.621271e-004,1.611932e-004
3.656499e-005,2.064095e-004
1.650828e-004,2.448189e-004
2.250470e-004,2.675081e-004
2.295848e-004,2.718839e-004
2.004130e-004,2.629703e-004
1.576278e-004,2.417397e-004
1.112771e-004,2.125679e-004
6.444023e-005,1.866375e-004
1.484824e-005,1.752929e-004
-3.377136e-005,1.811273e-004
-8.158062e-005,2.007372e-004
-1.345760e-004,2.237505e-004
-1.979435e-004,2.406053e-004
-2.648765e-004,2.517878e-004
-3.165753e-004,2.634565e-004
-3.347266e-004,2.842008e-004
-3.118754e-004,3.114278e-004
-2.511010e-004,3.381686e-004
-1.606685e-004,3.584268e-004
-4.932962e-005,3.634508e-004
7.270556e-005,3.504856e-004
1.940925e-004,3.208276e-004
3.119140e-004,2.775562e-004
4.240633e-004,2.268297e-004
5.294057e-004,1.778860e-004
6.332897e-004,1.386662e-004
7.467355e-004,1.140322e-004
8.661778e-004,9.896015e-005
9.674687e-004,8.097089e-005
1.022085e-003,5.358185e-005
1.002637e-003,1.889987e-005
8.948633e-004,-1.318906e-005
7.081639e-004,-3.863332e-005
4.739794e-004,-6.083626e-005
2.393087e-004,-9.130454e-005
5.066468e-005,-1.365208e-004
-6.845333e-005,-1.959987e-004
-1.183694e-004,-2.601766e-004
-1.173971e-004,-3.128478e-004
-9.600444e-005,-3.395886e-004
-8.692878e-005,-3.376438e-004
-1.170729e-004,-3.185201e-004
-2.052365e-004,-2.979378e-004
-3.590364e-004,-2.869174e-004
-5.742591e-004,-2.843243e-004
-8.299981e-004,-2.830278e-004
-1.096271e-003,-2.786520e-004
-1.325108e-003,-2.707109e-004
-1.443253e-003,-2.650386e-004
-1.388313e-003,-2.697385e-004
-1.157370e-003,-2.820554e-004
-8.123330e-004,-2.935620e-004
-4.442827e-004,-2.966413e-004
-1.368449e-004,-2.895104e-004
6.055066e-005,-2.729798e-004
1.415833e-004,-2.514251e-004
1.323456e-004,-2.279256e-004
7.238143e-005,-2.052365e-004
-6.868513e-006,-1.833576e-004
-7.931171e-005,-1.614788e-004
-1.240417e-004,-1.428413e-004
-1.387897e-004,-1.298761e-004
-1.316588e-004,-1.251762e-004
-1.092938e-004,-1.243659e-004
-7.153257e-005,-1.219349e-004
-1.335113e-005,-1.115627e-004
6.670914e-005,-8.919769e-005
1.623277e-004,-5.889148e-005
2.558394e-004,-2.680255e-005
3.264999e-004,1.558884e-006
3.647473e-004,2.473423e-005
3.746333e-004,4.304761e-005
3.687990e-004,6.038860e-005
3.632887e-004,8.161915e-005
3.675024e-004,1.111150e-004
3.785229e-004,1.645966e-004
3.892192e-004,2.644289e-004
3.903536e-004,4.140152e-004
3.775505e-004,5.960147e-004
3.435168e-004,7.825520e-004
2.811216e-004,9.486690e-004
1.973338e-004,1.073135e-003
1.067393e-004,1.139906e-003
2.538249e-005,1.134720e-003
-3.506788e-005,1.053201e-003
-7.169464e-005,8.984288e-004
-8.595638e-005,6.843403e-004
-8.709085e-005,4.334631e-004
-8.595638e-005,1.670276e-004
-9.470791e-005,-9.989401e-005
-1.196660e-004,-3.574158e-004
-1.634236e-004,-5.935449e-004
-2.172293e-004,-7.927231e-004
-2.663351e-004,-9.444162e-004
-2.968033e-004,-1.041169e-003
-3.058790e-004,-1.074717e-003
-3.032860e-004,-1.042628e-003
-2.992343e-004,-9.633779e-004
-2.987481e-004,-8.590078e-004
-3.003688e-004,-7.471828e-004
-2.997205e-004,-6.411921e-004
-2.865932e-004,-5.437909e-004
-2.520733e-004,-4.481723e-004
-1.979435e-004,-3.450988e-004
-1.267968e-004,-2.311669e-004
-4.560212e-005,-1.084835e-004
3.462021e-005,1.533444e-005
9.798775e-005,1.341283e-004
1.258630e-004,2.391467e-004
1.137081e-004,3.208276e-004
7.918817e-005,3.749574e-004
4.612685e-005,4.057499e-004
3.510641e-005,4.185530e-004
5.309566e-005,4.240633e-004
9.134307e-005,4.281149e-004
1.354248e-004,4.352458e-004
1.717275e-004,4.448076e-004
1.913374e-004,4.577728e-004
1.902029e-004,4.754380e-004
1.799928e-004,4.913204e-004
1.788584e-004,4.986133e-004
2.010613e-004,4.918066e-004
2.454672e-004,4.700898e-004
2.986247e-004,4.386491e-004
3.420582e-004,3.999155e-004
3.675024e-004,3.550234e-004
3.759298e-004,3.062417e-004
3.830607e-004,2.563256e-004
4.119083e-004,2.077060e-004
4.678209e-004,1.602208e-004
5.358884e-004,1.122495e-004
5.908285e-004,6.217132e-005
6.138419e-004,1.176900e-005
5.987698e-004,-3.296103e-005
5.503122e-004,-6.845333e-005
4.871067e-004,-9.454585e-005
4.380009e-004,-1.138316e-004
4.203358e-004,-1.303623e-004
4.324906e-004,-1.426792e-004
4.574487e-004,-1.478653e-004
4.702519e-004,-1.515928e-004
4.383250e-004,-1.592099e-004
3.428685e-004,-1.742820e-004
1.817755e-004,-1.955125e-004
-3.069211e-005,-2.151224e-004
-2.498044e-004,-2.280877e-004
-4.225660e-004,-2.337599e-004
-5.113778e-004,-2.318152e-004
-5.152673e-004,-2.194982e-004
-4.846370e-004,-1.877334e-004
-4.919299e-004,-1.235555e-004
-5.822003e-004,-2.291298e-005
-7.329211e-004,1.004187e-004
-8.794281e-004,2.237505e-004
-9.594883e-004,3.281205e-004
-9.614331e-004,4.042913e-004
-9.290201e-004,4.517764e-004
-9.139480e-004,4.707381e-004
-9.165410e-004,4.657141e-004
-8.967691e-004,4.383250e-004
-8.102262e-004,3.898674e-004
-6.395715e-004,3.159656e-004
-4.083043e-004,2.158093e-004
-1.689338e-004,9.199134e-005
2.489629e-005,-4.949169e-005
1.370455e-004,-1.947022e-004
1.620036e-004,-3.285682e-004
1.213252e-004,-4.389346e-004
5.228533e-005,-5.191569e-004
-1.043395e-005,-5.690731e-004
-4.803310e-005,-5.912760e-004
-5.143648e-005,-5.899795e-004
-2.113026e-005,-5.672903e-004
2.927205e-005,-5.259637e-004
8.761557e-005,-4.697270e-004
1.456350e-004,-3.995528e-004
2.021958e-004,-3.151167e-004
2.576221e-004,-2.170672e-004
3.124002e-004,-1.114006e-004
3.681507e-004,-6.868513e-006
4.281149e-004,8.599492e-005
4.895377e-004,1.594105e-004
5.418848e-004,2.107852e-004
5.768909e-004,2.394708e-004
5.943940e-004,2.448189e-004
6.000663e-004,2.365536e-004
6.037938e-004,2.349330e-004
6.055765e-004,2.503292e-004
5.989318e-004,2.851732e-004
5.751082e-004,3.294171e-004
5.247059e-004,3.704196e-004
4.452938e-004,4.059119e-004
3.378445e-004,4.422146e-004
2.096508e-004,4.848378e-004
8.486046e-005,5.285954e-004
-7.030578e-006,5.558224e-004
-4.074016e-005,5.423710e-004
-7.354709e-006,4.744656e-004
8.048470e-005,3.540510e-004
1.949028e-004,2.039785e-004
3.026763e-004,5.471631e-005
3.853296e-004,-7.056019e-005
4.425387e-004,-1.616409e-004
4.867825e-004,-2.175534e-004
5.263265e-004,-2.483458e-004
5.576051e-004,-2.655248e-004
5.694359e-004,-2.763831e-004
5.535535e-004,-2.786520e-004
5.157923e-004,-2.642282e-004
4.696036e-004,-2.326255e-004
4.290873e-004,-1.929195e-004
4.007258e-004,-1.575893e-004
3.793332e-004,-1.300382e-004
3.522683e-004,-1.070249e-004
3.099692e-004,-8.401160e-005
2.514636e-004,-5.629844e-005
1.898788e-004,-2.858527e-005
1.347766e-004,-8.975362e-006
8.356394e-005,-3.789272e-006
3.105477e-005,-1.237873e-005
-2.680255e-005,-2.712668e-005
-9.211487e-005,-4.187462e-005
-1.635857e-004,-5.240886e-005
-2.421874e-004,-5.435365e-005
-3.319715e-004,-5.095028e-005
-4.389346e-004,-4.625038e-005
-5.690731e-004,-4.381940e-005
-7.267626e-004,-4.868137e-005
-9.026034e-004,-6.197072e-005
-1.055593e-003,-7.882551e-005
-1.118312e-003,-9.357346e-005
-1.034849e-003,-1.054042e-004
-7.998540e-004,-1.125351e-004
-4.742648e-004,-1.120489e-004
-1.569410e-004,-1.026491e-004
7.286763e-005,-8.125649e-005
1.898788e-004,-5.030202e-005
2.135403e-004,-1.383732e-005
1.884202e-004,2.392390e-005
1.513072e-004,6.071273e-005
1.184080e-004,9.150514e-005
8.437427e-005,1.120874e-004
3.218923e-005,1.247285e-004
-5.953974e-005,1.338042e-004
-2.063709e-004,1.454729e-004
-4.003631e-004,1.581140e-004
-6.076446e-004,1.717275e-004
-7.932093e-004,1.874478e-004
-9.286959e-004,2.020337e-004
-9.917393e-004,2.133783e-004
-9.774775e-004,2.209954e-004
-8.983897e-004,2.276400e-004
-7.745718e-004,2.341226e-004
-6.345474e-004,2.391467e-004
-4.948471e-004,2.409294e-004
-3.418575e-004,2.407673e-004
-1.486757e-004,2.357433e-004
9.977047e-005,2.261814e-004
3.858158e-004,2.127300e-004
6.545202e-004,1.986303e-004
8.425161e-004,1.863134e-004
9.118802e-004,1.759412e-004
8.770361e-004,1.639484e-004
7.736384e-004,1.506590e-004
6.454446e-004,1.389903e-004
5.208163e-004,1.313732e-004
4.130428e-004,1.242423e-004
3.166139e-004,1.177597e-004
2.184023e-004,1.120874e-004
1.158149e-004,1.051186e-004
1.873781e-005,9.393612e-005
-6.229485e-005,8.242948e-005
-1.279313e-004,7.481241e-005
-1.985918e-004,6.962632e-005
-3.105789e-004,6.038860e-005
-4.859335e-004,4.677511e-005
-7.147697e-004,2.943412e-005
-9.585159e-004,8.527692e-006
-1.142622e-003,-1.335113e-005
-1.189135e-003,-3.247483e-005
-1.058834e-003,-4.835724e-005
-7.758683e-004,-6.294311e-005
-4.143007e-004,-7.752899e-005
-5.953974e-005,-9.049421e-005
2.235884e-004,-1.021629e-004
4.026706e-004,-1.167488e-004
4.840274e-004,-1.340898e-004
5.025029e-004,-1.533756e-004
4.908342e-004,-1.747682e-004
4.718725e-004,-1.951884e-004
4.559901e-004,-2.109087e-004
4.423766e-004,-2.204706e-004
4.347596e-004,-2.352185e-004
4.368664e-004,-2.684419e-004
4.456179e-004,-3.194925e-004
4.606900e-004,-3.763774e-004
4.764104e-004,-4.237005e-004
4.817585e-004,-4.493068e-004
4.687933e-004,-4.452552e-004
4.337872e-004,-4.154351e-004
3.709058e-004,-3.711913e-004
2.798251e-004,-3.199787e-004
1.697827e-004,-2.652006e-004
5.893001e-005,-2.086398e-004
-3.134038e-005,-1.558065e-004
-8.077030e-005,-1.104282e-004
-7.120844e-005,-7.007399e-005
4.800190e-006,-1.383732e-005
1.352628e-004,8.891209e-005
2.861456e-004,2.478982e-004
4.196875e-004,4.425387e-004
5.072028e-004,6.425274e-004
5.386435e-004,8.216097e-004
5.157923e-004,9.601758e-004
4.553419e-004,1.048826e-003
3.817642e-004,1.081725e-003
3.130485e-004,1.055470e-003
2.542187e-004,9.651998e-004
2.039785e-004,8.135065e-004
1.563313e-004,6.094660e-004
1.036600e-004,3.640991e-004
4.628891e-005,9.182927e-005
-8.165035e-006,-1.887058e-004
-5.062615e-005,-4.632444e-004
-7.428769e-005,-7.141214e-004
-8.255302e-005,-9.254546e-004
-8.952183e-005,-1.080389e-003
-1.151281e-004,-1.166932e-003
-1.786577e-004,-1.177790e-003
-2.890242e-004,-1.120743e-003
-4.366657e-004,-1.019452e-003
-5.940311e-004,-8.964449e-004
-7.139594e-004,-7.658203e-004
-7.509103e-004,-6.311440e-004
-6.821946e-004,-4.941989e-004
-5.206155e-004,-3.569296e-004
-3.087962e-004,-2.220912e-004
-9.843541e-005,-9.632857e-005
7.221937e-005,1.533444e-005
1.846927e-004,1.150046e-004
2.491947e-004,2.043026e-004
2.983005e-004,2.845250e-004
3.568061e-004,3.585888e-004
4.226047e-004,4.311941e-004
4.767345e-004,4.969927e-004
5.018546e-004,5.373470e-004
4.900239e-004,5.350781e-004
4.452938e-004,4.929411e-004
3.783608e-004,4.300596e-004
3.072141e-004,3.696093e-004
2.550291e-004,3.311998e-004
2.412535e-004,3.230965e-004
2.691288e-004,3.394651e-004
3.209897e-004,3.660439e-004
3.623164e-004,3.931088e-004
3.645853e-004,4.146635e-004
3.088348e-004,4.297355e-004
1.759412e-004,4.376768e-004
-4.074016e-005,4.394595e-004
-3.191683e-004,4.422146e-004
-6.168823e-004,4.576108e-004
-8.878555e-004,4.895377e-004
-1.077634e-003,5.366987e-004
-1.130791e-003,5.879114e-004
-1.016049e-003,6.341000e-004
-7.458862e-004,6.684579e-004
-3.742705e-004,6.801266e-004
1.646890e-005,6.618132e-004
3.457857e-004,6.071971e-004
5.631154e-004,5.174129e-004
6.597064e-004,4.025085e-004
6.538720e-004,2.705873e-004
5.838597e-004,1.222976e-004
4.926169e-004,-4.381940e-005
3.992672e-004,-2.254946e-004
3.111037e-004,-4.118697e-004
2.200230e-004,-5.899795e-004
1.175977e-004,-7.455621e-004
9.338019e-006,-8.680834e-004
-8.141856e-005,-9.538161e-004
-1.391138e-004,-1.003732e-003
-1.626133e-004,-1.022046e-003
-1.630995e-004,-1.016373e-003
-1.548341e-004,-9.949806e-004
-1.421931e-004,-9.617572e-004
-1.144799e-004,-9.129756e-004
-6.504996e-005,-8.431255e-004
3.989864e-006,-7.533412e-004
8.356394e-005,-6.562641e-004
1.636242e-004,-5.666421e-004
2.357433e-004,-4.886886e-004
2.931144e-004,-4.170558e-004
3.226103e-004,-3.418575e-004
3.153174e-004,-2.545043e-004
2.650771e-004,-1.540238e-004
1.765894e-004,-5.354332e-005
6.200925e-005,3.478228e-005
-6.116039e-005,1.013911e-004
-1.708786e-004,1.467694e-004
-2.447804e-004,1.773998e-004
-2.684419e-004,1.976579e-004
-2.421874e-004,2.028440e-004
-1.801163e-004,1.971717e-004
-1.055663e-004,1.961994e-004
-4.041603e-005,2.115956e-004
5.124321e-006,2.457913e-004
2.214118e-005,2.966799e-004
1.047248e-005,3.619922e-004
-2.307504e-005,4.401077e-004
-6.958779e-005,5.313505e-004
-1.204763e-004,6.318311e-004
-1.676373e-004,7.298806e-004
-2.031296e-004,8.123720e-004
-2.219292e-004,8.661778e-004
-2.256567e-004,8.878945e-004
