5.974732e-004,-3.279896e-005
6.070351e-004,-4.608832e-005
5.409124e-004,-6.132246e-005
4.083429e-004,-7.299116e-005
2.397949e-004,-7.898758e-005
6.444023e-005,-8.012204e-005
-1.055663e-004,-8.077030e-005
-2.765452e-004,-8.514606e-005
-4.587066e-004,-9.211487e-005
-6.504298e-004,-9.616651e-005
-8.277292e-004,-9.470791e-005
-9.496023e-004,-8.141856e-005
-9.684019e-004,-5.467778e-005
-8.617629e-004,-1.918548e-005
-6.454058e-004,1.209313e-005
-3.703810e-004,2.489629e-005
-1.058904e-004,1.873781e-005
9.328786e-005,9.106227e-007
2.062474e-004,-2.064406e-005
2.493568e-004,-4.155049e-005
2.608634e-004,-6.002594e-005
2.793389e-004,-8.190475e-005
3.273102e-004,-1.097800e-004
4.007258e-004,-1.423551e-004
4.768966e-004,-1.744440e-004
5.277851e-004,-2.026434e-004
5.388056e-004,-2.212809e-004
5.117406e-004,-2.256567e-004
4.568005e-004,-2.164190e-004
3.840331e-004,-1.828714e-004
3.008936e-004,-1.075111e-004
2.038164e-004,1.257933e-005
9.069481e-005,1.655690e-004
-1.545797e-005,3.248792e-004
-8.206682e-005,4.543695e-004
-8.952183e-005,5.295678e-004
-4.851930e-005,5.576051e-004
1.257933e-005,5.725152e-004
6.573675e-005,6.034696e-004
9.344993e-005,6.462549e-004
9.847395e-005,6.616511e-004
9.636710e-005,5.997422e-004
9.231547e-005,4.232529e-004
8.810177e-005,1.205148e-004
8.550872e-005,-2.797865e-004
8.923623e-005,-7.175248e-004
1.026876e-004,-1.129333e-003
1.380179e-004,-1.468697e-003
2.000889e-004,-1.713578e-003
2.837146e-004,-1.860085e-003
3.692851e-004,-1.917294e-003
4.318424e-004,-1.899467e-003
4.605280e-004,-1.816328e-003
4.687933e-004,-1.665121e-003
4.772207e-004,-1.441633e-003
5.049339e-004,-1.153967e-003
5.653843e-004,-8.194639e-004
6.587339e-004,-4.668098e-004
7.720177e-004,-1.246900e-004
8.924323e-004,1.819376e-004
1.028081e-003,4.328148e-004
1.207002e-003,6.185417e-004
1.454638e-003,7.394425e-004
1.768397e-003,8.084825e-004
2.116191e-003,8.383025e-004
2.442915e-003,8.352232e-004
2.698008e-003,7.930862e-004
2.852457e-003,7.002227e-004
2.903508e-003,5.519328e-004
2.866719e-003,3.623164e-004
2.753921e-003,1.574657e-004
2.545990e-003,-3.263690e-005
2.193172e-003,-1.895161e-004
1.624969e-003,-3.094444e-004
7.697488e-004,-4.003631e-004
-4.108973e-004,-4.710235e-004
-1.865920e-003,-5.194810e-004
-3.490952e-003,-5.394151e-004
-4.968350e-003,-5.253154e-004
-4.968188e-003,-4.786406e-004
-4.968350e-003,-4.026320e-004
-4.968188e-003,-3.073376e-004
-4.968350e-003,-2.042641e-004
-4.968188e-003,-9.778715e-005
-4.321217e-003,6.582909e-006
-3.211712e-003,1.043083e-004
-2.375130e-003,1.906891e-004
-1.840151e-003,2.632944e-004
-1.510024e-003,3.289309e-004
-1.235323e-003,3.908399e-004
-9.108688e-004,4.491834e-004
-5.126743e-004,5.041235e-004
-8.028410e-005,5.546879e-004
3.218000e-004,5.979594e-004
6.350724e-004,6.261588e-004
8.331164e-004,6.366931e-004
9.212800e-004,6.339379e-004
9.314902e-004,6.243761e-004
8.994011e-004,6.093040e-004
8.538608e-004,5.940699e-004
8.164236e-004,5.953664e-004
7.990826e-004,6.294001e-004
8.010275e-004,6.977918e-004
8.178822e-004,7.815796e-004
8.496471e-004,8.580745e-004
8.943772e-004,9.117182e-004
9.420244e-004,9.353797e-004
9.784892e-004,9.298695e-004
9.930751e-004,8.997253e-004
9.867544e-004,8.511057e-004
9.744375e-004,7.840106e-004
9.754099e-004,6.932539e-004
9.938853e-004,5.793219e-004
1.016250e-003,4.485351e-004
1.027433e-003,3.038107e-004
1.020140e-003,1.435281e-004
1.001502e-003,-3.344723e-005
9.825408e-004,-2.206326e-004
9.689272e-004,-4.070078e-004
9.611481e-004,-5.864140e-004
9.554758e-004,-7.489655e-004
9.404037e-004,-8.797522e-004
9.019942e-004,-9.625676e-004
8.347370e-004,-9.875257e-004
7.441425e-004,-9.585159e-004
6.611650e-004,-8.936898e-004
6.329655e-004,-8.087676e-004
6.922815e-004,-7.162283e-004
8.319819e-004,-6.225546e-004
1.007661e-003,-5.335807e-004
1.154330e-003,-4.606514e-004
1.220939e-003,-4.144627e-004
1.203598e-003,-3.922598e-004
1.163730e-003,-3.807532e-004
1.180423e-003,-3.668155e-004
1.285279e-003,-3.413713e-004
1.449938e-003,-3.008550e-004
1.614759e-003,-2.502906e-004
1.723019e-003,-1.974573e-004
1.739387e-003,-1.498101e-004
1.651548e-003,-1.118868e-004
1.455124e-003,-8.352541e-005
1.154168e-003,-6.229485e-005
7.545147e-004,-4.236082e-005
2.634565e-004,-1.869928e-005
-2.974516e-004,8.689758e-006
-8.885037e-004,3.980630e-005
-1.456056e-003,7.675720e-005
-1.926208e-003,1.197045e-004
-2.238508e-003,1.647587e-004
-2.371402e-003,2.072198e-004
-2.339799e-003,2.449810e-004
-2.174492e-003,2.743149e-004
-1.938039e-003,2.914938e-004
-1.720709e-003,2.937627e-004
-1.593326e-003,2.832284e-004
-1.558482e-003,2.675081e-004
-1.541627e-003,2.607014e-004
-1.445036e-003,2.705873e-004
-1.213769e-003,2.970040e-004
-8.564148e-004,3.344411e-004
-4.324520e-004,3.734989e-004
-1.837515e-005,4.072085e-004
3.222862e-004,4.286011e-004
5.517708e-004,4.326527e-004
6.686199e-004,4.222805e-004
6.906608e-004,4.026706e-004
6.426895e-004,3.781987e-004
5.475571e-004,3.508097e-004
4.172565e-004,3.192070e-004
2.744769e-004,2.824181e-004
1.534141e-004,2.393087e-004
8.032264e-005,1.961994e-004
5.633696e-005,1.598967e-004
6.719535e-005,1.339663e-004
8.761557e-005,1.213252e-004
8.745350e-005,1.175977e-004
4.628891e-005,1.161391e-004
-3.150244e-005,1.159770e-004
-1.232314e-004,1.158149e-004
-2.006986e-004,1.156529e-004
-2.392702e-004,1.158149e-004
-2.250084e-004,1.166253e-004
-1.692580e-004,1.133840e-004
-1.003802e-004,1.018773e-004
-4.706071e-005,8.097089e-005
-2.356124e-005,5.325772e-005
-2.793700e-005,2.684107e-005
-5.046408e-005,5.286387e-006
-7.509801e-005,-1.108221e-005
-8.660465e-005,-2.161646e-005
-7.461182e-005,-2.761287e-005
-4.187462e-005,-3.328516e-005
-6.058186e-006,-4.025397e-005
1.063454e-005,-4.673658e-005
-4.113403e-006,-5.565017e-005
-5.046408e-005,-7.056019e-005
-1.138316e-004,-9.600444e-005
-1.707166e-004,-1.314967e-004
-1.989159e-004,-1.746061e-004
-1.859507e-004,-2.178775e-004
-1.323071e-004,-2.502906e-004
-5.386745e-005,-2.661730e-004
2.343770e-005,-2.676316e-004
7.351589e-005,-2.592042e-004
7.967438e-005,-2.488320e-004
4.450620e-005,-2.392702e-004
-7.192643e-006,-2.337599e-004
-4.544006e-005,-2.334358e-004
-5.856735e-005,-2.352185e-004
-5.500191e-005,-2.365151e-004
-4.932962e-005,-2.347323e-004
-5.159854e-005,-2.308428e-004
-6.699475e-005,-2.266291e-004
-9.422172e-005,-2.235498e-004
-1.263107e-004,-2.212809e-004
-1.571031e-004,-2.177155e-004
-1.869231e-004,-2.128535e-004
-2.165810e-004,-2.104225e-004
-2.392702e-004,-2.105846e-004
-2.444563e-004,-2.105846e-004
-2.253326e-004,-2.057227e-004
-1.865989e-004,-1.943781e-004
-1.454344e-004,-1.836818e-004
-1.122110e-004,-1.749302e-004
-8.255302e-005,-1.705545e-004
-4.851930e-005,-1.686097e-004
-1.844488e-006,-1.666649e-004
6.265751e-005,-1.600202e-004
1.423936e-004,-1.452723e-004
2.326641e-004,-1.232314e-004
3.341170e-004,-9.584238e-005
4.566384e-004,-6.845333e-005
5.995801e-004,-4.770897e-005
7.504630e-004,-3.117831e-005
8.896773e-004,-1.124428e-005
1.007499e-003,1.776542e-005
1.112517e-003,5.455425e-005
1.220777e-003,9.328786e-005
1.330009e-003,1.286181e-004
1.415742e-003,1.577899e-004
1.452045e-003,1.822617e-004
1.428707e-003,2.005751e-004
1.350268e-003,2.156472e-004
1.222236e-003,2.284504e-004
1.053201e-003,2.407673e-004
8.447851e-004,2.508154e-004
5.997422e-004,2.574601e-004
3.234207e-004,2.611876e-004
1.257933e-005,2.647530e-004
-3.483401e-004,2.686426e-004
-7.812165e-004,2.718839e-004
-1.287184e-003,2.748010e-004
-1.818759e-003,2.795009e-004
-2.301714e-003,2.890628e-004
-2.679813e-003,2.995970e-004
-2.914970e-003,3.042970e-004
-2.977690e-003,2.983005e-004
-2.840906e-003,2.830664e-004
-2.497651e-003,2.618358e-004
-1.977097e-003,2.375260e-004
-1.343259e-003,2.135403e-004
-6.891634e-004,1.889064e-004
-1.065387e-004,1.629760e-004
3.436788e-004,1.381800e-004
6.428516e-004,1.208390e-004
8.050791e-004,1.133840e-004
8.585607e-004,1.175977e-004
8.353853e-004,1.197045e-004
7.658592e-004,9.020862e-005
6.781818e-004,8.365628e-006
6.005525e-004,-1.190177e-004
5.542018e-004,-2.653627e-004
5.396159e-004,-3.940425e-004
5.454503e-004,-4.809095e-004
5.584154e-004,-5.061917e-004
5.671670e-004,-4.554653e-004
5.699221e-004,-3.384541e-004
5.589016e-004,-1.972953e-004
5.258403e-004,-7.137051e-005
4.657141e-004,3.251336e-005
3.785229e-004,1.226217e-004
2.705873e-004,2.096508e-004
1.445005e-004,2.927903e-004
1.883015e-006,3.595612e-004
-1.496481e-004,3.981328e-004
-2.989102e-004,4.023465e-004
-4.441207e-004,3.718782e-004
-5.802555e-004,3.146691e-004
-6.987253e-004,2.289366e-004
-7.823510e-004,1.122495e-004
-8.097400e-004,-3.782299e-005
-7.672789e-004,-2.109087e-004
-6.604778e-004,-3.849669e-004
-5.175362e-004,-5.356876e-004
-3.687603e-004,-6.429748e-004
-2.258187e-004,-6.877048e-004
-8.514606e-005,-6.526987e-004
4.742337e-005,-5.228845e-004
1.532520e-004,-2.946965e-004
2.146748e-004,7.231170e-006
2.375260e-004,3.337929e-004
2.483844e-004,6.315070e-004
2.756114e-004,8.684467e-004
3.354135e-004,1.038291e-003
4.320045e-004,1.141041e-003
5.525811e-004,1.181557e-003
6.692683e-004,1.162271e-003
7.537043e-004,1.088045e-003
7.900069e-004,9.637412e-004
7.750969e-004,8.000550e-004
7.196706e-004,6.042800e-004
6.441481e-004,3.775505e-004
5.661946e-004,1.192183e-004
4.884033e-004,-1.634236e-004
4.025085e-004,-4.455793e-004
3.034866e-004,-6.975908e-004
2.026820e-004,-8.951484e-004
1.172735e-004,-1.023828e-003
5.082674e-005,-1.085737e-003
-9.785688e-006,-1.098864e-003
-8.077030e-005,-1.084927e-003
-1.710407e-004,-1.054945e-003
-2.707109e-004,-1.007460e-003
-3.217614e-004,-9.382577e-004
-2.540181e-004,-8.445840e-004
-5.370539e-005,-7.259523e-004
2.208333e-004,-5.872243e-004
4.849998e-004,-4.390967e-004
6.772094e-004,-2.968033e-004
7.822278e-004,-1.713648e-004
8.206373e-004,-6.569822e-005
8.250132e-004,2.230325e-005
8.246890e-004,9.685330e-005
8.383025e-004,1.608691e-004
8.525642e-004,2.122438e-004
8.245269e-004,2.530843e-004
6.958470e-004,2.871180e-004
4.204978e-004,3.138588e-004
-2.161646e-005,3.362238e-004
-6.116962e-004,3.496752e-004
-1.272436e-003,3.522683e-004
-1.872889e-003,3.428685e-004
-2.249205e-003,3.273102e-004
-2.267518e-003,3.115899e-004
-1.898981e-003,2.973281e-004
-1.244399e-003,2.829043e-004
-4.941989e-004,2.637806e-004
1.543865e-004,2.427121e-004
5.739738e-004,2.247229e-004
7.501388e-004,2.125679e-004
7.394425e-004,2.051129e-004
6.281036e-004,2.028440e-004
4.890515e-004,2.052750e-004
3.665301e-004,2.106232e-004
2.811216e-004,2.190506e-004
2.302331e-004,2.282883e-004
1.987924e-004,2.341226e-004
1.650828e-004,2.269918e-004
1.156529e-004,2.043026e-004
5.050261e-005,1.743205e-004
-2.242678e-005,1.466074e-004
-8.482193e-005,1.229458e-004
-1.152902e-004,1.007429e-004
-1.042698e-004,7.546067e-005
-5.516398e-005,4.823370e-005
1.906194e-005,2.651694e-005
1.018773e-004,1.695509e-005
1.790204e-004,1.825161e-005
2.409294e-004,2.716521e-005
2.863077e-004,3.656499e-005
3.218000e-004,4.304761e-005
3.619922e-004,4.288554e-005
4.128807e-004,3.380988e-005
4.691174e-004,1.954813e-005
5.234093e-004,8.203562e-006
5.674912e-004,9.106227e-007
5.833735e-004,-2.978945e-006
5.533914e-004,-4.923729e-006
4.681450e-004,-5.571990e-006
3.354135e-004,-7.354709e-006
1.822617e-004,-1.140634e-005
4.969229e-005,-1.869928e-005
-3.441962e-005,-2.615429e-005
-7.120844e-005,-3.150244e-005
-8.028410e-005,-3.409549e-005
-8.579432e-005,-2.955766e-005
-9.568031e-005,-1.367526e-005
-1.070249e-004,1.095867e-005
-9.341139e-005,3.591673e-005
-2.113026e-005,5.325772e-005
1.148425e-004,5.682316e-005
2.814457e-004,4.564065e-005
4.256839e-004,2.651694e-005
5.086614e-004,6.096713e-006
5.217887e-004,-8.002969e-006
4.833792e-004,-1.383732e-005
4.211461e-004,-5.571990e-006
3.555096e-004,1.663096e-005
2.931144e-004,4.564065e-005
2.226160e-004,7.124698e-005
1.323456e-004,8.875003e-005
2.197911e-005,1.039842e-004
-1.031353e-004,1.231079e-004
-2.323013e-004,1.454729e-004
-3.613053e-004,1.670276e-004
-5.018159e-004,1.827479e-004
-6.890013e-004,1.867996e-004
-9.601366e-004,1.817755e-004
-1.324135e-003,1.730240e-004
-1.756201e-003,1.657311e-004
-2.181623e-003,1.623277e-004
-2.481769e-003,1.610312e-004
-2.551295e-003,1.594105e-004
-2.356816e-003,1.584381e-004
-1.948735e-003,1.587623e-004
-1.426074e-003,1.587623e-004
-8.949863e-004,1.571416e-004
-4.272659e-004,1.511452e-004
-4.641245e-005,1.393144e-004
2.642668e-004,1.184080e-004
5.422090e-004,9.085688e-005
8.101031e-004,6.233338e-005
1.051257e-003,3.202716e-005
1.224667e-003,-3.141010e-006
1.296786e-003,-3.101625e-005
1.265507e-003,-3.198864e-005
1.153844e-003,9.106227e-007
9.945336e-004,6.022653e-005
8.196649e-004,1.352628e-004
6.469032e-004,2.205092e-004
4.694416e-004,3.081865e-004
2.642668e-004,3.841952e-004
2.748934e-005,4.373526e-004
-2.073433e-004,4.639314e-004
-3.815635e-004,4.574487e-004
-4.429862e-004,4.143393e-004
-3.716775e-004,3.367100e-004
-1.817370e-004,2.211574e-004
8.421220e-005,6.411610e-005
3.684748e-004,-1.323071e-004
6.159487e-004,-3.559572e-004
7.921138e-004,-5.825245e-004
8.838429e-004,-7.839716e-004
8.992391e-004,-9.340441e-004
8.598572e-004,-1.017021e-003
7.906552e-004,-1.033714e-003
7.154569e-004,-1.002436e-003
6.481997e-004,-9.426335e-004
5.875872e-004,-8.711627e-004
5.222749e-004,-7.961266e-004
4.495075e-004,-7.186593e-004
3.770643e-004,-6.403818e-004
3.098072e-004,-5.590250e-004
2.389846e-004,-4.768579e-004
1.547106e-004,-3.995528e-004
4.612685e-005,-3.316474e-004
-9.405965e-005,-2.700626e-004
-2.609869e-004,-2.136638e-004
-4.412035e-004,-1.642339e-004
-6.121824e-004,-1.274451e-004
-7.426449e-004,-1.036215e-004
-8.005023e-004,-8.822530e-005
-7.757063e-004,-7.234290e-005
-6.758740e-004,-4.592625e-005
-5.270981e-004,1.517237e-005
-3.603330e-004,1.328318e-004
-2.039399e-004,3.075383e-004
-7.736692e-005,5.157923e-004
1.225520e-005,7.268014e-004
6.784360e-005,9.157698e-004
9.118101e-005,1.065356e-003
7.562274e-005,1.165027e-003
1.234753e-006,1.197602e-003
-1.446240e-004,1.146875e-003
-3.470436e-004,1.014630e-003
-5.501114e-004,8.246890e-004
-6.945116e-004,6.076833e-004
-7.444277e-004,3.799815e-004
-6.933771e-004,1.409351e-004
-5.609698e-004,-1.170729e-004
-3.809152e-004,-3.799429e-004
-1.908126e-004,-6.108859e-004
-2.323711e-005,-7.740856e-004
1.044704e-004,-8.473391e-004
1.968476e-004,-8.290258e-004
2.691288e-004,-7.327590e-004
3.363859e-004,-5.862520e-004
4.036430e-004,-4.279142e-004
4.718725e-004,-2.854588e-004
5.342677e-004,-1.679614e-004
5.681394e-004,-6.942573e-005
5.475571e-004,2.424803e-005
4.452938e-004,1.279698e-004
2.547049e-004,2.410915e-004
-1.140634e-005,3.529166e-004
-3.284061e-004,4.467524e-004
-6.458920e-004,5.016926e-004
-8.906106e-004,5.065545e-004
-9.972495e-004,4.692795e-004
-9.453886e-004,4.041292e-004
-7.590136e-004,3.294171e-004
-4.964678e-004,2.581083e-004
-2.250084e-004,1.916615e-004
7.555301e-006,1.292664e-004
1.791825e-004,7.173317e-005
2.918179e-004,2.473423e-005
3.616681e-004,1.002961e-007
4.065602e-004,7.555301e-006
4.362182e-004,4.061663e-005
4.449697e-004,8.696731e-005
4.289252e-004,1.329939e-004
3.893813e-004,1.688103e-004
3.342791e-004,1.861513e-004
2.679943e-004,1.846927e-004
1.874478e-004,1.654069e-004
8.388807e-005,1.307250e-004
-3.555408e-005,7.594687e-005
-1.449482e-004,-3.465141e-006
-2.086398e-004,-1.003802e-004
-2.000504e-004,-1.995642e-004
-1.212866e-004,-2.786520e-004
1.396819e-006,-3.217614e-004
1.328318e-004,-3.293785e-004
2.449810e-004,-3.156029e-004
3.219621e-004,-2.974516e-004
3.600474e-004,-2.810830e-004
3.757678e-004,-2.655248e-004
3.864641e-004,-2.478596e-004
3.999155e-004,-2.248464e-004
4.114222e-004,-1.956746e-004
4.115842e-004,-1.663408e-004
3.858158e-004,-1.407345e-004
3.245551e-004,-1.159385e-004
2.286124e-004,-8.984595e-005
1.250527e-004,-6.472583e-005
7.367795e-005,-4.333321e-005
1.261871e-004,-2.518189e-005
2.785285e-004,-8.813297e-006
4.723587e-004,6.744974e-006
6.331276e-004,2.052053e-005
7.144845e-004,3.170304e-005
7.154569e-004,4.256141e-005
6.689441e-004,5.617490e-005
6.200004e-004,7.562274e-005
6.036317e-004,1.005808e-004
6.422033e-004,1.291043e-004
7.154569e-004,1.568175e-004
7.661834e-004,1.801549e-004
7.185361e-004,1.953890e-004
5.166026e-004,2.047888e-004
1.404489e-004,2.127300e-004
-3.877220e-004,2.169437e-004
-9.909290e-004,2.175920e-004
-1.542923e-003,2.196988e-004
-1.894119e-003,2.282883e-004
-1.936742e-003,2.449810e-004
-1.657342e-003,2.654013e-004
-1.136950e-003,2.854973e-004
-5.235327e-004,3.068900e-004
2.992031e-005,3.252034e-004
4.226047e-004,3.367100e-004
6.344241e-004,3.412479e-004
6.986021e-004,3.412479e-004
6.681338e-004,3.396272e-004
5.918010e-004,3.363859e-004
5.036374e-004,3.282826e-004
4.269804e-004,3.124002e-004
3.790091e-004,2.905214e-004
3.752816e-004,2.644289e-004
4.157979e-004,2.402811e-004
4.802999e-004,2.224539e-004
5.331332e-004,2.112714e-004
5.478812e-004,2.049509e-004
5.175750e-004,1.986303e-004
4.530729e-004,1.924718e-004
3.762539e-004,1.856651e-004
3.080245e-004,1.777239e-004
2.530843e-004,1.678379e-004
2.000889e-004,1.545486e-004
1.265113e-004,1.406109e-004
1.938607e-005,1.265113e-004
-1.165867e-004,1.111150e-004
-2.694143e-004,9.101894e-005
-4.314796e-004,6.849186e-005
-5.916001e-004,4.466826e-005
-7.348658e-004,1.922400e-005
-8.432875e-004,-7.192643e-006
-9.074653e-004,-3.425755e-005
-9.259408e-004,-5.808115e-005
-9.063309e-004,-8.028410e-005
-8.562527e-004,-1.026491e-004
-7.807303e-004,-1.216107e-004
-6.834911e-004,-1.374932e-004
-5.724764e-004,-1.545100e-004
-4.522240e-004,-1.724993e-004
-3.258130e-004,-1.917850e-004
-1.953505e-004,-2.130156e-004
-4.770897e-005,-2.334358e-004
1.344524e-004,-2.509389e-004
3.498373e-004,-2.616352e-004
5.637637e-004,-2.619593e-004
7.242084e-004,-2.530457e-004
7.901691e-004,-2.376495e-004
7.579181e-004,-2.209568e-004
6.566271e-004,-2.091260e-004
5.266506e-004,-2.052365e-004
4.010500e-004,-2.073433e-004
3.026763e-004,-2.120432e-004
2.373639e-004,-2.157707e-004
1.958752e-004,-2.167431e-004
1.686482e-004,-2.156086e-004
1.521176e-004,-2.126914e-004
1.359110e-004,-2.086398e-004
1.046324e-004,-2.026434e-004
3.510641e-005,-1.963229e-004
-9.778715e-005,-1.942160e-004
-3.029619e-004,-1.971332e-004
-5.690731e-004,-2.042641e-004
-8.648421e-004,-2.100984e-004
-1.133871e-003,-2.107467e-004
-1.298853e-003,-2.047502e-004
-1.291560e-003,-1.904885e-004
-1.087844e-003,-1.720131e-004
-7.347037e-004,-1.532135e-004
-3.250027e-004,-1.350622e-004
4.385793e-005,-1.195039e-004
3.051073e-004,-1.060525e-004
4.441593e-004,-9.098041e-005
4.833792e-004,-7.526008e-005
4.644175e-004,-6.245691e-005
4.235771e-004,-5.321920e-005
3.778746e-004,-4.576419e-005
3.274723e-004,-3.620233e-005
2.679943e-004,-2.291298e-005
1.979821e-004,-6.220252e-006
1.146805e-004,1.274139e-005
2.684107e-005,3.251336e-005
-4.560212e-005,5.520250e-005
-8.401160e-005,8.275361e-005
-8.125649e-005,1.124116e-004
-3.749886e-005,1.385041e-004
4.483033e-005,1.600588e-004
1.560072e-004,1.808031e-004
2.705873e-004,2.012234e-004
3.525924e-004,2.185644e-004
3.723644e-004,2.281262e-004
3.164518e-004,2.279642e-004
2.018716e-004,2.224539e-004
5.974033e-005,2.180782e-004
-8.141856e-005,2.171058e-004
-2.044261e-004,2.226160e-004
-3.050687e-004,2.321778e-004
-3.880461e-004,2.406053e-004
-4.578962e-004,2.453052e-004
-5.021401e-004,2.464396e-004
-5.058676e-004,2.474120e-004
-4.705373e-004,2.513016e-004
-4.240246e-004,2.569738e-004
-4.014975e-004,2.585945e-004
-4.295348e-004,2.543808e-004
-5.283947e-004,2.433604e-004
-6.898117e-004,2.266676e-004
-8.650042e-004,2.078681e-004
-9.739121e-004,1.913374e-004
-9.491161e-004,1.786963e-004
-7.765166e-004,1.684862e-004
-4.998712e-004,1.548727e-004
-1.911368e-004,1.331559e-004
7.627100e-005,1.047945e-004
2.581083e-004,7.546067e-005
3.504856e-004,4.936815e-005
3.827366e-004,2.797553e-005
3.916502e-004,1.095867e-005
4.041292e-004,-7.192643e-006
4.365423e-004,-2.890940e-005
4.905101e-004,-5.208474e-005
5.577672e-004,-7.169464e-005
6.212969e-004,-7.866345e-005
6.580857e-004,-6.780507e-005
6.451205e-004,-3.976777e-005
5.777013e-004,8.851824e-006
4.752759e-004,7.951231e-005
3.712299e-004,1.626518e-004
2.983005e-004,2.401191e-004
2.681563e-004,3.008936e-004
2.760976e-004,3.658818e-004
3.098072e-004,4.673347e-004
3.593992e-004,6.136798e-004
4.182289e-004,7.812555e-004
4.814344e-004,9.305178e-004
5.503122e-004,1.028567e-003
6.177314e-004,1.055308e-003
6.708889e-004,1.009606e-003
6.961711e-004,9.110699e-004
6.890402e-004,7.919518e-004
6.478756e-004,6.822334e-004
5.777013e-004,5.809425e-004
4.898618e-004,4.535592e-004
4.013741e-004,2.490327e-004
3.313618e-004,-6.164659e-005
2.919800e-004,-4.659995e-004
2.798251e-004,-9.108688e-004
2.735045e-004,-1.334021e-003
2.488706e-004,-1.685055e-003
2.034923e-004,-1.942253e-003
1.577899e-004,-2.110315e-003
1.393144e-004,-2.209336e-003
1.560072e-004,-2.260063e-003
2.012234e-004,-2.274001e-003
2.540567e-004,-2.251311e-003
2.914938e-004,-2.184703e-003
2.952213e-004,-2.068988e-003
2.634565e-004,-1.905950e-003
2.077060e-004,-1.708230e-003
1.467694e-004,-1.494304e-003
1.004187e-004,-1.284105e-003
7.221937e-005,-1.086710e-003
6.152305e-005,-9.001724e-004
6.800567e-005,-7.094215e-004
8.875003e-005,-5.018159e-004
1.151667e-004,-2.724935e-004
1.286181e-004,-2.955766e-005
1.111150e-004,2.098128e-004
5.487838e-005,4.274666e-004
-2.469570e-005,6.076833e-004
-1.005423e-004,7.415494e-004
-1.502963e-004,8.264717e-004
-1.712027e-004,8.721742e-004
-1.806025e-004,8.940530e-004
-1.914609e-004,9.089631e-004
-1.982676e-004,9.318143e-004
-1.887058e-004,9.660101e-004
-1.567789e-004,1.005392e-003
-1.065387e-004,1.040074e-003
-5.402952e-005,1.059036e-003
-2.258885e-005,1.054498e-003
-2.647842e-005,1.030350e-003
-6.829127e-005,9.985853e-004
-1.363587e-004,9.726548e-004
-1.985918e-004,9.598516e-004
-2.211189e-004,9.570965e-004
-1.861127e-004,9.553138e-004
-1.032974e-004,9.486690e-004
-9.137427e-006,9.368383e-004
4.661304e-005,9.167422e-004
1.857574e-005,8.682846e-004
-1.136696e-004,7.718556e-004
-3.400748e-004,6.200004e-004
-6.279027e-004,4.273046e-004
-9.445783e-004,2.252090e-004
-1.266440e-003,4.515445e-005
-1.562209e-003,-9.130454e-005
-1.781970e-003,-1.676373e-004
-1.875968e-003,-1.754164e-004
-1.818273e-003,-1.177212e-004
-1.618770e-003,-1.254080e-005
-1.315222e-003,1.172735e-004
-9.547884e-004,2.500050e-004
-5.757177e-004,3.683128e-004
-2.096122e-004,4.662003e-004
1.137081e-004,5.486915e-004
3.726885e-004,6.196762e-004
5.585775e-004,6.801266e-004
6.830437e-004,7.271256e-004
7.710453e-004,7.541905e-004
8.464058e-004,7.558112e-004
9.160939e-004,7.355530e-004
9.671446e-004,7.024916e-004
9.849718e-004,6.653786e-004
9.598516e-004,6.297242e-004
8.854635e-004,5.973112e-004
7.674799e-004,5.631154e-004
6.295622e-004,5.195198e-004
5.013684e-004,4.602039e-004
4.020224e-004,3.929467e-004
3.396272e-004,3.282826e-004
3.109416e-004,2.637806e-004
3.038107e-004,1.914995e-004
3.070520e-004,1.077117e-004
3.093210e-004,1.290346e-005
3.030004e-004,-8.919769e-005
2.884145e-004,-1.870851e-004
2.636185e-004,-2.671454e-004
2.261814e-004,-3.230579e-004
1.757791e-004,-3.554710e-004
1.166253e-004,-3.664914e-004
6.265751e-005,-3.626019e-004
2.505836e-005,-3.523917e-004
8.527692e-006,-3.431540e-004
9.662150e-006,-3.379679e-004
2.197911e-005,-3.337542e-004
3.526847e-005,-3.275957e-004
4.110282e-005,-3.125237e-004
2.457216e-005,-2.890242e-004
-2.469570e-005,-2.626076e-004
-1.016767e-004,-2.391081e-004
-1.823853e-004,-2.206326e-004
-2.421874e-004,-2.078295e-004
-2.723315e-004,-2.006986e-004
-2.758969e-004,-1.990780e-004
-2.608248e-004,-2.026434e-004
-2.321393e-004,-2.057227e-004
-1.901644e-004,-2.065330e-004
-1.436516e-004,-2.083157e-004
-1.071869e-004,-2.139880e-004
-9.632857e-005,-2.206326e-004
-1.057284e-004,-2.235498e-004
-1.178833e-004,-2.198223e-004
-1.186936e-004,-2.110708e-004
-1.054042e-004,-2.036158e-004
-7.785312e-005,-2.047502e-004
-4.074016e-005,-2.144742e-004
1.720949e-006,-2.251705e-004
3.996837e-005,-2.303566e-004
6.330578e-005,-2.259808e-004
6.751948e-005,-2.170672e-004
5.358185e-005,-2.118811e-004
3.299956e-005,-2.138259e-004
1.695509e-005,-2.204706e-004
1.565857e-005,-2.285739e-004
2.635488e-005,-2.344082e-004
3.818565e-005,-2.355427e-004
4.677511e-005,-2.339220e-004
4.953022e-005,-2.353806e-004
4.256141e-005,-2.402425e-004
2.035846e-005,-2.462390e-004
-2.031993e-005,-2.514251e-004
-7.833932e-005,-2.546664e-004
-1.533756e-004,-2.558008e-004
-2.391081e-004,-2.556388e-004
-3.165753e-004,-2.569353e-004
-3.603330e-004,-2.575835e-004
-3.454229e-004,-2.549905e-004
-2.622834e-004,-2.485079e-004
-1.298761e-004,-2.394322e-004
8.365628e-006,-2.261429e-004
1.120874e-004,-2.130156e-004
1.634622e-004,-2.057227e-004
1.780480e-004,-2.055606e-004
1.874478e-004,-2.088019e-004
2.182402e-004,-2.079916e-004
2.767458e-004,-1.979435e-004
3.409237e-004,-1.823853e-004
3.767402e-004,-1.668270e-004
3.681507e-004,-1.546721e-004
3.174242e-004,-1.507825e-004
2.307193e-004,-1.517549e-004
1.083599e-004,-1.520790e-004
-5.435365e-005,-1.501342e-004
-2.716832e-004,-1.459206e-004
-5.533527e-004,-1.428413e-004
-8.781315e-004,-1.387897e-004
-1.200642e-003,-1.311726e-004
-1.475342e-003,-1.206384e-004
-1.650373e-003,-1.075111e-004
-1.663500e-003,-9.308726e-005
-1.480042e-003,-7.752899e-005
-1.119609e-003,-6.229485e-005
-6.512401e-004,-4.430560e-005
-1.684476e-004,-2.113026e-005
2.462775e-004,3.503668e-006
5.495019e-004,2.554455e-005
7.368495e-004,3.996837e-005
8.238787e-004,4.839576e-005
8.413817e-004,5.585077e-005
8.271200e-004,6.606088e-005
8.177201e-004,7.870197e-005
8.352232e-004,8.988449e-005
8.747673e-004,9.863601e-005
9.110699e-004,1.073875e-004
9.151215e-004,1.174356e-004
8.630985e-004,1.310491e-004
7.439804e-004,1.519555e-004
5.595500e-004,1.793446e-004
3.234207e-004,2.072198e-004
5.487838e-005,2.326641e-004
-2.225774e-004,2.535705e-004
-4.766958e-004,2.743149e-004
-6.685811e-004,2.950592e-004
-7.617687e-004,3.136967e-004
-7.385933e-004,3.287688e-004
-6.060239e-004,3.391410e-004
-4.011734e-004,3.438409e-004
-1.724993e-004,3.404375e-004
4.126489e-005,3.326584e-004
2.122438e-004,3.261758e-004
3.276344e-004,3.245551e-004
3.898674e-004,3.294171e-004
4.128807e-004,3.402755e-004
4.177427e-004,3.537269e-004
4.243874e-004,3.657197e-004
4.491834e-004,3.726885e-004
4.948858e-004,3.754436e-004
5.529052e-004,3.783608e-004
6.063868e-004,4.036430e-004
6.441481e-004,4.757621e-004
6.621373e-004,5.965008e-004
6.694303e-004,7.465734e-004
6.752646e-004,8.958358e-004
6.742922e-004,1.016412e-003
6.553305e-004,1.087235e-003
6.084936e-004,1.105873e-003
5.305402e-004,1.075080e-003
4.318424e-004,9.997197e-004
3.352514e-004,8.804395e-004
2.626462e-004,7.256670e-004
2.248849e-004,5.436675e-004
2.177540e-004,3.336308e-004
2.265056e-004,8.648112e-005
2.328261e-004,-2.063709e-004
2.265056e-004,-5.345531e-004
2.017096e-004,-8.680834e-004
1.530900e-004,-1.166446e-003
7.481241e-005,-1.397875e-003
-2.728874e-005,-1.546003e-003
-1.336036e-004,-1.613260e-003
-2.193361e-004,-1.611153e-003
-2.677937e-004,-1.552972e-003
-2.750866e-004,-1.450222e-003
-2.483458e-004,-1.312953e-003
-2.109087e-004,-1.149915e-003
-1.869231e-004,-9.698605e-004
-1.875713e-004,-7.838095e-004
-2.096122e-004,-6.060239e-004
-2.371633e-004,-4.491447e-004
-2.533699e-004,-3.143064e-004
-2.465631e-004,-1.932436e-004
-2.136638e-004,-7.688073e-005
-1.545100e-004,3.251336e-005
-6.812920e-005,1.219734e-004
4.013043e-005,1.799928e-004
1.598967e-004,2.013854e-004
2.764217e-004,1.960373e-004
3.696093e-004,1.809652e-004
4.226047e-004,1.735102e-004
4.336251e-004,1.817755e-004
4.031568e-004,2.031682e-004
3.326584e-004,2.287745e-004
2.376881e-004,2.478982e-004
1.459591e-004,2.511395e-004
8.048470e-005,2.370398e-004
4.013043e-005,2.184023e-004
-3.141010e-006,2.195368e-004
-8.660465e-005,2.710735e-004
-2.379736e-004,3.945674e-004
-4.538446e-004,5.888838e-004
-6.760361e-004,8.203132e-004
-8.035815e-004,1.042991e-003
-7.494517e-004,1.220291e-003
-5.027883e-004,1.337302e-003
-1.464067e-004,1.400022e-003
1.869616e-004,1.416715e-003
3.890571e-004,1.394998e-003
4.307079e-004,1.333251e-003
3.462718e-004,1.224667e-003
1.936063e-004,1.060656e-003
1.630683e-005,8.418679e-004
-1.742820e-004,5.712186e-004
-3.838324e-004,2.623220e-004
-6.269303e-004,-6.423963e-005
-9.158928e-004,-3.846427e-004
-1.242130e-003,-6.755499e-004
-1.553782e-003,-9.181616e-004
-1.766250e-003,-1.100161e-003
-1.806604e-003,-1.213931e-003
-1.656855e-003,-1.258337e-003
-1.361086e-003,-1.242130e-003
-9.975737e-004,-1.178925e-003
-6.476747e-004,-1.082010e-003
-3.643846e-004,-9.606228e-004
-1.729855e-004,-8.217328e-004
-7.347736e-005,-6.703638e-004
-4.560212e-005,-5.091089e-004
-5.613637e-005,-3.455850e-004
-7.299116e-005,-1.890299e-004
-6.731888e-005,-4.997789e-005
-2.437157e-005,6.330578e-005
5.115087e-005,1.506590e-004
1.388282e-004,2.115956e-004
2.159713e-004,2.461155e-004
2.743149e-004,2.584324e-004
3.243930e-004,2.560015e-004
3.851676e-004,2.423880e-004
4.658761e-004,2.198609e-004
5.582534e-004,1.942546e-004
6.418792e-004,1.691344e-004
7.013571e-004,1.500107e-004
7.415494e-004,1.467694e-004
7.702350e-004,1.576278e-004
7.929241e-004,1.783722e-004
8.101031e-004,1.999268e-004
8.224201e-004,2.149989e-004
8.314957e-004,2.284504e-004
8.368439e-004,2.444948e-004
8.361956e-004,2.610255e-004
8.285785e-004,2.728562e-004
8.120479e-004,2.738286e-004
7.752590e-004,2.641047e-004
7.070294e-004,2.522740e-004
6.073592e-004,2.472499e-004
4.916445e-004,2.480603e-004
3.785229e-004,2.514636e-004
2.820940e-004,2.524360e-004
2.033302e-004,2.410915e-004
1.370455e-004,1.960373e-004
7.935024e-005,1.073875e-004
3.364782e-005,-1.513384e-005
5.864920e-007,-1.478653e-004
-3.166451e-005,-2.655248e-004
-7.671866e-005,-3.567675e-004
-1.404103e-004,-4.300210e-004
-2.138259e-004,-4.997091e-004
-2.870794e-004,-5.799314e-004
-3.580640e-004,-6.661501e-004
-4.225660e-004,-7.361624e-004
-4.353692e-004,-7.632272e-004
-3.264613e-004,-7.330831e-004
-7.169464e-005,-6.507540e-004
2.832284e-004,-5.332566e-004
6.494962e-004,-3.943667e-004
9.608240e-004,-2.459149e-004
1.183178e-003,-9.778715e-005
1.302458e-003,4.175109e-005
1.315423e-003,1.691344e-004
1.242170e-003,2.877662e-004
1.129534e-003,4.055878e-004
1.024354e-003,5.326470e-004
9.301936e-004,6.723474e-004
8.021619e-004,8.237166e-004
5.811046e-004,9.757340e-004
2.269918e-004,1.113976e-003
-2.718453e-004,1.219967e-003
-8.831556e-004,1.285441e-003
-1.523800e-003,1.305862e-003
-2.070770e-003,1.285927e-003
-2.392957e-003,1.236497e-003
-2.408029e-003,1.171833e-003
-2.135759e-003,1.099552e-003
-1.698992e-003,1.019816e-003
-1.261254e-003,9.259799e-004
-9.471713e-004,8.138306e-004
-7.867267e-004,6.828817e-004
-7.074767e-004,5.420469e-004
-5.881967e-004,3.991052e-004
-3.556330e-004,2.598910e-004
-2.048200e-005,1.297526e-004
3.430306e-004,1.452411e-005
6.475514e-004,-8.255302e-005
8.264717e-004,-1.590478e-004
8.514298e-004,-2.241981e-004
7.405770e-004,-2.833519e-004
5.462606e-004,-3.416954e-004
3.234207e-004,-3.985804e-004
1.028497e-004,-4.491447e-004
-1.159385e-004,-4.882024e-004
-3.507711e-004,-5.136467e-004
-6.103997e-004,-5.259637e-004
-8.875313e-004,-5.266119e-004
-1.167418e-003,-5.228845e-004
-1.421374e-003,-5.222362e-004
-1.608560e-003,-5.256396e-004
-1.678896e-003,-5.339049e-004
-1.587653e-003,-5.446012e-004
-1.327863e-003,-5.546492e-004
-9.547884e-004,-5.559457e-004
-5.595111e-004,-5.471942e-004
-2.335979e-004,-5.306636e-004
-1.659243e-005,-5.074882e-004
1.041462e-004,-4.831784e-004
1.741585e-004,-4.666478e-004
2.352571e-004,-4.645409e-004
3.127243e-004,-4.736166e-004
4.067223e-004,-4.844750e-004
5.115786e-004,-4.919299e-004
6.125454e-004,-4.925782e-004
6.913091e-004,-4.838267e-004
7.384702e-004,-4.668098e-004
7.545147e-004,-4.481723e-004
7.477079e-004,-4.358554e-004
7.242084e-004,-4.293727e-004
6.963331e-004,-4.228902e-004
6.765611e-004,-4.128421e-004
6.689441e-004,-3.891806e-004
6.718613e-004,-3.220855e-004
6.781818e-004,-1.768750e-004
6.763991e-004,4.969229e-005
6.621373e-004,3.185587e-004
6.323173e-004,5.733255e-004
5.906665e-004,7.669937e-004
5.425331e-004,8.757396e-004
4.922928e-004,8.958358e-004
4.427008e-004,8.334405e-004
3.893813e-004,7.026537e-004
3.344411e-004,5.190336e-004
2.842008e-004,2.936006e-004
2.466017e-004,3.089271e-005
2.274780e-004,-2.630937e-004
2.273159e-004,-5.762039e-004
2.443328e-004,-8.854245e-004
2.712356e-004,-1.165149e-003
2.987867e-004,-1.391068e-003
3.201794e-004,-1.546327e-003
3.388169e-004,-1.623956e-003
3.587509e-004,-1.622173e-003
3.838710e-004,-1.545841e-003
4.157979e-004,-1.405330e-003
4.477248e-004,-1.215227e-003
4.679830e-004,-9.975737e-004
4.670106e-004,-7.697099e-004
4.499937e-004,-5.463839e-004
4.323286e-004,-3.386162e-004
4.255218e-004,-1.501342e-004
4.279528e-004,1.776542e-005
4.381629e-004,1.624898e-004
4.514523e-004,2.863077e-004
4.451317e-004,3.948915e-004
3.910019e-004,4.952099e-004
2.799871e-004,5.921251e-004
1.391524e-004,6.822334e-004
2.230325e-005,7.582422e-004
-1.950961e-005,8.113996e-004
1.679302e-005,8.376542e-004
8.550872e-005,8.434886e-004
1.226217e-004,8.392748e-004
8.518459e-005,8.271200e-004
-2.518189e-005,8.013516e-004
-1.673132e-004,7.509492e-004
-2.906449e-004,6.699165e-004
-3.619536e-004,5.661946e-004
-3.728119e-004,4.647417e-004
-3.376438e-004,3.921364e-004
-2.794623e-004,3.634508e-004
-2.235498e-004,3.734989e-004
-1.896782e-004,4.059119e-004
-1.891920e-004,4.401077e-004
-2.182017e-004,4.632831e-004
-2.548284e-004,4.725208e-004
-2.783279e-004,4.734932e-004
-2.750866e-004,4.678209e-004
-2.438080e-004,4.556660e-004
-1.968091e-004,4.425387e-004
-1.473791e-004,4.326527e-004
-1.081593e-004,4.261701e-004
-8.417367e-005,4.172565e-004
-7.023606e-005,4.052637e-004
-5.791909e-005,3.953777e-004
-3.814712e-005,3.861400e-004
-1.432352e-005,3.767402e-004
5.610517e-006,3.636129e-004
1.257933e-005,3.493511e-004
1.396819e-006,3.368721e-004
-2.664048e-005,3.273102e-004
-6.845333e-005,3.205035e-004
-1.190177e-004,3.169380e-004
-1.734716e-004,3.145071e-004
-2.222533e-004,3.083486e-004
-2.582318e-004,2.927903e-004
-2.711970e-004,2.681563e-004
-2.590421e-004,2.386605e-004
-2.357047e-004,2.049509e-004
-2.173914e-004,1.691344e-004
-2.110708e-004,1.326697e-004
-2.071812e-004,9.669123e-005
-1.872472e-004,6.395404e-005
-1.340898e-004,3.478228e-005
-4.381940e-005,6.096713e-006
7.157111e-005,-2.210265e-005
1.898788e-004,-4.997789e-005
2.879283e-004,-7.850138e-005
3.558337e-004,-1.131834e-004
3.843572e-004,-1.567789e-004
3.642611e-004,-2.018331e-004
2.910076e-004,-2.371633e-004
1.741585e-004,-2.530457e-004
3.543054e-005,-2.483458e-004
-1.041077e-004,-2.288980e-004
-2.365151e-004,-2.042641e-004
-3.797808e-004,-1.830335e-004
-5.569181e-004,-1.686097e-004
-7.518827e-004,-1.598582e-004
-9.071412e-004,-1.545100e-004
-9.578677e-004,-1.483515e-004
-8.769971e-004,-1.391138e-004
-6.917564e-004,-1.256624e-004
-4.598410e-004,-1.075111e-004
-2.494803e-004,-8.514606e-005
-1.020008e-004,-6.018800e-005
-3.247483e-005,-3.425755e-005
-3.393342e-005,-1.075808e-005
-9.827335e-005,5.610517e-006
-2.177155e-004,1.452411e-005
-3.830221e-004,1.760335e-005
-5.779866e-004,1.419998e-005
-7.818647e-004,7.393236e-006
-9.837981e-004,3.503668e-006
-1.171308e-003,5.772582e-006
-1.307118e-003,1.436204e-005
-1.345042e-003,2.878586e-005
-1.259471e-003,5.260946e-005
-1.057052e-003,9.733949e-005
-7.836475e-004,1.773998e-004
-4.917679e-004,3.060797e-004
-2.139880e-004,4.772207e-004
3.445814e-005,6.668373e-004
2.446569e-004,8.378163e-004
4.093153e-004,9.674687e-004
5.305402e-004,1.049636e-003
6.191900e-004,1.084642e-003
6.736440e-004,1.072001e-003
6.751026e-004,1.012685e-003
5.956905e-004,9.092872e-004
4.303838e-004,7.639144e-004
2.166196e-004,5.718669e-004
2.554455e-005,3.347652e-004
-8.158062e-005,6.119892e-005
-7.493595e-005,-2.319772e-004
2.457216e-005,-5.264499e-004
1.722137e-004,-8.081193e-004
3.203414e-004,-1.062886e-003
4.431870e-004,-1.280053e-003
5.430193e-004,-1.453463e-003
6.358828e-004,-1.575823e-003
7.289083e-004,-1.642432e-003
8.180443e-004,-1.652804e-003
8.898393e-004,-1.611477e-003
9.271143e-004,-1.525745e-003
9.190111e-004,-1.407113e-003
8.689329e-004,-1.263685e-003
7.924379e-004,-1.106806e-003
7.070294e-004,-9.447403e-004
6.279415e-004,-7.826751e-004
5.593878e-004,-6.204477e-004
5.083373e-004,-4.598410e-004
4.712243e-004,-3.042584e-004
4.360561e-004,-1.643960e-004
3.937570e-004,-5.176061e-005
3.449753e-004,2.878586e-005
3.004074e-004,8.275361e-005
2.623220e-004,1.239182e-004
2.355812e-004,1.754550e-004
2.383363e-004,2.645909e-004
3.005694e-004,4.065602e-004
4.360561e-004,5.942319e-004
6.221072e-004,7.987585e-004
8.088066e-004,9.807581e-004
9.441312e-004,1.108304e-003
9.966405e-004,1.171995e-003
9.622826e-004,1.177506e-003
8.671501e-004,1.134558e-003
7.459252e-004,1.039264e-003
6.300483e-004,8.687708e-004
5.329712e-004,5.956905e-004
4.569625e-004,2.213195e-004
4.029947e-004,-2.167431e-004
3.611819e-004,-6.627468e-004
3.124002e-004,-1.069044e-003
2.329882e-004,-1.403223e-003
1.033359e-004,-1.643242e-003
-9.503204e-005,-1.776946e-003
-3.750809e-004,-1.796556e-003
-7.261143e-004,-1.707420e-003
-1.109723e-003,-1.519910e-003
-1.465942e-003,-1.254771e-003
-1.714713e-003,-9.408508e-004
-1.780835e-003,-6.061860e-004
-1.627035e-003,-2.729798e-004
-1.283133e-003,4.499239e-005
-8.342119e-004,3.412479e-004
-3.870737e-004,6.144901e-004
-3.004385e-005,8.609917e-004
2.012234e-004,1.076701e-003
3.224483e-004,1.258052e-003
3.762539e-004,1.394998e-003
4.093153e-004,1.472951e-003
4.486972e-004,1.482189e-003
4.940755e-004,1.424980e-003
5.263265e-004,1.316720e-003
5.243817e-004,1.183178e-003
4.696036e-004,1.049636e-003
3.593992e-004,9.376486e-004
2.043026e-004,8.519160e-004
2.149292e-005,7.875760e-004
-1.708786e-004,7.332841e-004
-3.538503e-004,6.770474e-004
-5.193190e-004,6.097901e-004
-6.632329e-004,5.311884e-004
-7.805682e-004,4.457800e-004
-8.612768e-004,3.616681e-004
-9.043861e-004,2.931144e-004
-9.056826e-004,2.535705e-004
-8.611146e-004,2.441707e-004
-7.692237e-004,2.534084e-004
-6.434610e-004,2.688046e-004
-5.016539e-004,2.806354e-004
-3.548227e-004,2.832284e-004
-2.118811e-004,2.748010e-004
-8.255302e-005,2.572980e-004
2.359977e-005,2.406053e-004
9.896015e-005,2.341226e-004
1.530900e-004,2.357433e-004
1.992786e-004,2.250470e-004
2.438466e-004,1.744826e-004
2.856594e-004,6.995045e-005
3.214759e-004,-7.023606e-005
3.498373e-004,-2.107467e-004
3.699334e-004,-3.126857e-004
3.794953e-004,-3.580640e-004
3.767402e-004,-3.551469e-004
3.623164e-004,-3.258130e-004
3.360618e-004,-2.896725e-004
3.041349e-004,-2.413770e-004
2.756114e-004,-1.705545e-004
2.582704e-004,-7.266703e-005
2.555152e-004,3.818565e-005
2.569738e-004,1.334801e-004
2.519498e-004,1.853410e-004
2.360674e-004,1.808031e-004
2.104611e-004,1.300767e-004
1.756171e-004,5.212327e-005
1.292664e-004,-3.604027e-005
7.221937e-005,-1.212866e-004
1.322759e-005,-1.974573e-004
-3.247483e-005,-2.695764e-004
-5.581224e-005,-3.473677e-004
-5.921561e-005,-4.300210e-004
-4.495386e-005,-5.099192e-004
-2.420950e-005,-5.797693e-004
-7.516774e-006,-6.290372e-004
4.313994e-006,-6.497815e-004
1.160693e-005,-6.327647e-004
1.403791e-005,-5.776625e-004
1.663096e-005,-5.005194e-004
2.538249e-005,-4.288866e-004
4.709924e-005,-3.856151e-004
8.064677e-005,-3.747568e-004
1.193804e-004,-3.812394e-004
1.586002e-004,-3.810773e-004
1.976579e-004,-3.647087e-004
2.325020e-004,-3.342404e-004
2.628082e-004,-2.985861e-004
2.918179e-004,-2.676316e-004
3.154794e-004,-2.447804e-004
3.310377e-004,-2.264670e-004
3.326584e-004,-2.026434e-004
3.174242e-004,-1.689338e-004
2.853353e-004,-1.267968e-004
2.466017e-004,-8.465986e-005
2.162954e-004,-5.159854e-005
2.041406e-004,-3.539201e-005
2.049509e-004,-3.247483e-005
2.057612e-004,-3.490581e-005
1.908512e-004,-3.441962e-005
1.466074e-004,-2.712668e-005
7.076078e-005,-1.254080e-005
-2.372331e-005,6.096713e-006
-1.198280e-004,2.570662e-005
-2.042641e-004,4.353380e-005
-2.692523e-004,6.395404e-005
-3.115513e-004,9.247754e-005
-3.321336e-004,1.315353e-004
-3.331060e-004,1.743205e-004
-3.183580e-004,2.156472e-004
-2.906449e-004,2.525981e-004
-2.504527e-004,2.812837e-004
-2.028055e-004,3.020280e-004
-1.601823e-004,3.149933e-004
-1.329553e-004,3.187208e-004
-1.229073e-004,3.149933e-004
-1.289037e-004,3.073762e-004
-1.457585e-004,2.986247e-004
-1.626133e-004,2.880904e-004
-1.650443e-004,2.799871e-004
-1.464067e-004,2.736666e-004
-1.152902e-004,2.637806e-004
-8.368748e-005,2.454672e-004
-5.629844e-005,2.227781e-004
-3.377136e-005,2.007372e-004
-1.108221e-005,1.796687e-004
1.290346e-005,1.568175e-004
3.105477e-005,1.328318e-004
3.526847e-005,1.088461e-004
3.024445e-005,8.858796e-005
3.089271e-005,7.043665e-005
4.645098e-005,5.034055e-005
7.465034e-005,2.748934e-005
1.049566e-004,8.365628e-006
1.253768e-004,-8.720959e-007
1.315353e-004,5.448452e-006
1.363972e-004,2.797553e-005
1.597346e-004,5.860588e-005
2.057612e-004,8.421220e-005
2.639427e-004,9.344993e-005
3.196932e-004,8.583286e-005
3.657197e-004,7.238143e-005
4.028327e-004,6.897806e-005
4.289252e-004,8.680524e-005
4.261701e-004,1.235941e-004
3.773884e-004,1.707551e-004
2.722080e-004,2.156472e-004
1.185701e-004,2.501671e-004
-6.456377e-005,2.741528e-004
-2.614731e-004,2.882525e-004
-4.706994e-004,2.919800e-004
-6.878669e-004,2.829043e-004
-8.868831e-004,2.582704e-004
-1.026421e-003,2.141886e-004
-1.074717e-003,1.493625e-004
-1.024314e-003,6.217132e-005
-9.053585e-004,-4.868137e-005
-7.705202e-004,-1.840059e-004
-6.608020e-004,-3.387782e-004
-5.911139e-004,-4.945230e-004
-5.574043e-004,-6.296854e-004
-5.510838e-004,-7.296797e-004
-5.651835e-004,-7.868888e-004
-5.967862e-004,-8.037436e-004
-6.295234e-004,-7.899680e-004
-6.421645e-004,-7.547998e-004
-6.160720e-004,-7.058561e-004
-5.493010e-004,-6.476747e-004
-4.486585e-004,-5.802555e-004
-3.193304e-004,-5.053814e-004
-1.619650e-004,-4.266177e-004
1.711715e-005,-3.447747e-004
2.028440e-004,-2.613110e-004
3.781987e-004,-1.807646e-004
5.341057e-004,-1.063766e-004
6.695924e-004,-4.155049e-005
7.909794e-004,1.047248e-005
8.940530e-004,5.115087e-005
9.647136e-004,8.291568e-005
9.990715e-004,1.104668e-004
9.943716e-004,1.396385e-004
9.472105e-004,1.717275e-004
8.475402e-004,2.052750e-004
6.819093e-004,2.406053e-004
4.469145e-004,2.778803e-004
1.611932e-004,3.141829e-004
-1.319829e-004,3.452995e-004
-3.651949e-004,3.699334e-004
-4.788027e-004,3.921364e-004
-4.546549e-004,4.153117e-004
-3.300267e-004,4.412422e-004
-1.721751e-004,4.660382e-004
-3.004385e-005,4.853240e-004
7.481241e-005,4.943996e-004
1.396385e-004,4.945617e-004
1.678379e-004,4.937514e-004
1.694586e-004,4.966686e-004
1.739964e-004,5.015305e-004
2.265056e-004,5.034753e-004
3.608578e-004,4.987754e-004
5.760806e-004,4.895377e-004
8.289027e-004,4.801379e-004
1.064870e-003,4.751139e-004
1.239577e-003,4.697657e-004
1.332440e-003,4.589073e-004
1.351078e-003,4.418904e-004
1.316720e-003,4.201737e-004
1.254973e-003,3.948915e-004
1.172806e-003,3.752816e-004
1.059684e-003,3.777126e-004
8.938910e-004,4.130428e-004
6.554927e-004,4.718725e-004
3.422202e-004,5.339436e-004
-2.647842e-005,5.788357e-004
-4.159214e-004,5.987698e-004
-7.946679e-004,5.966629e-004
-1.136626e-003,5.736496e-004
-1.423968e-003,5.323229e-004
-1.633518e-003,4.733311e-004
-1.705961e-003,3.960259e-004
-1.572095e-003,2.955454e-004
-1.220089e-003,1.691344e-004
-7.231971e-004,1.727922e-005
-2.092881e-004,-1.545100e-004
1.987924e-004,-3.402368e-004
4.358940e-004,-5.295291e-004
5.080132e-004,-7.042355e-004
4.605280e-004,-8.499322e-004
3.637749e-004,-9.577056e-004
2.851732e-004,-1.019939e-003
2.545429e-004,-1.040845e-003
2.537325e-004,-1.027880e-003
2.331503e-004,-9.886600e-004
1.373696e-004,-9.286959e-004
-6.974985e-005,-8.559286e-004
-4.034423e-004,-7.820268e-004
-8.487977e-004,-7.107180e-004
-1.332401e-003,-6.335750e-004
-1.728812e-003,-5.214258e-004
-1.902060e-003,-3.494746e-004
-1.774029e-003,-1.201522e-004
-1.359952e-003,1.375317e-004
-7.651721e-004,3.840331e-004
-1.431655e-004,5.879114e-004
3.689610e-004,7.326358e-004
6.930918e-004,8.180443e-004
8.209614e-004,8.475402e-004
7.951931e-004,8.222580e-004
6.901747e-004,7.447907e-004
5.730013e-004,6.165970e-004
4.845136e-004,4.407560e-004
4.363802e-004,2.231022e-004
4.140152e-004,-2.923353e-005
3.973225e-004,-3.008550e-004
3.757678e-004,-5.749074e-004
3.550234e-004,-8.431255e-004
3.449753e-004,-1.107130e-003
3.542131e-004,-1.355738e-003
3.848434e-004,-1.572581e-003
4.320045e-004,-1.745667e-003
4.864584e-004,-1.872240e-003
5.308643e-004,-1.943711e-003
5.537156e-004,-1.943549e-003
5.496639e-004,-1.857654e-003
5.227611e-004,-1.683758e-003
4.843516e-004,-1.431747e-003
4.474007e-004,-1.116205e-003
4.211461e-004,-7.630652e-004
4.002396e-004,-4.026320e-004
3.762539e-004,-6.083626e-005
3.462718e-004,2.495189e-004
3.044590e-004,5.234093e-004
2.407673e-004,7.637524e-004
1.425557e-004,9.718445e-004
-6.382317e-006,1.147361e-003
-2.136638e-004,1.290303e-003
-4.530343e-004,1.394187e-003
-6.684191e-004,1.457393e-003
-8.063366e-004,1.485917e-003
-8.411807e-004,1.495640e-003
-7.857543e-004,1.502933e-003
-6.693914e-004,1.511037e-003
-5.230465e-004,1.511361e-003
-3.655190e-004,1.499368e-003
-2.115570e-004,1.475706e-003
-7.137051e-005,1.441024e-003
4.661304e-005,1.384139e-003
1.367214e-004,1.294355e-003
1.914995e-004,1.165513e-003
2.051129e-004,1.001665e-003
1.733481e-004,8.169098e-004
9.312580e-005,6.302104e-004
-3.182657e-005,4.602039e-004
-1.643960e-004,3.201794e-004
-2.373254e-004,2.111094e-004
-1.969711e-004,1.300767e-004
-3.668853e-005,7.140904e-005
2.020337e-004,2.765140e-005
4.566384e-004,-8.489166e-006
6.760749e-004,-3.863332e-005
8.365198e-004,-6.164659e-005
9.441312e-004,-7.931171e-005
1.007823e-003,-9.649064e-005
1.036671e-003,-1.143178e-004
1.034888e-003,-1.344139e-004
9.959922e-004,-1.598582e-004
9.097734e-004,-1.919471e-004
7.822278e-004,-2.280877e-004
6.318311e-004,-2.647144e-004
4.781931e-004,-2.971275e-004
3.405996e-004,-3.206269e-004
2.303951e-004,-3.319715e-004
1.540623e-004,-3.358611e-004
1.091703e-004,-3.374817e-004
8.275361e-005,-3.394265e-004
5.244739e-005,-3.420196e-004
-8.975362e-006,-3.438023e-004
-1.199901e-004,-3.410472e-004
-2.930758e-004,-3.318095e-004
-5.314739e-004,-3.167374e-004
-8.261086e-004,-2.995585e-004
-1.159153e-003,-2.864312e-004
-1.494790e-003,-2.817312e-004
-1.775487e-003,-2.827037e-004
-1.937391e-003,-2.831898e-004
-1.934311e-003,-2.771934e-004
-1.764305e-003,-2.658489e-004
-1.474370e-003,-2.506147e-004
-1.135815e-003,-2.357047e-004
-8.180053e-004,-2.235498e-004
-5.614560e-004,-2.157707e-004
-3.747568e-004,-2.091260e-004
-2.467252e-004,-2.018331e-004
-1.569410e-004,-1.874093e-004
-9.438378e-005,-1.668270e-004
-5.970181e-005,-1.459206e-004
-4.706071e-005,-1.287416e-004
-5.305713e-005,-1.159385e-004
-7.590833e-005,-1.047560e-004
-1.164247e-004,-9.405965e-005
-1.661787e-004,-8.222889e-005
-2.065330e-004,-6.812920e-005
-2.180396e-004,-5.192267e-005
-1.919471e-004,-3.782299e-005
-1.311726e-004,-2.518189e-005
-4.333321e-005,-1.027188e-005
6.168512e-005,6.744974e-006
1.720516e-004,2.522042e-005
2.811216e-004,4.207521e-005
3.820883e-004,5.617490e-005
4.694416e-004,6.865393e-005
5.381573e-004,8.113296e-005
5.935837e-004,9.507057e-005
6.400964e-004,1.114392e-004
6.810990e-004,1.300767e-004
7.127018e-004,1.475797e-004
7.251808e-004,1.621656e-004
7.125397e-004,1.712413e-004
6.807749e-004,1.736723e-004
6.434998e-004,1.722137e-004
6.099523e-004,1.701068e-004
5.775391e-004,1.665414e-004
5.462606e-004,1.602208e-004
5.169268e-004,1.511452e-004
4.898618e-004,1.401247e-004
4.684692e-004,1.240803e-004
4.561522e-004,1.020394e-004
4.503179e-004,7.513654e-005
4.430249e-004,4.855783e-005
4.138531e-004,2.619281e-005
3.572923e-004,3.179537e-006
2.829043e-004,-2.761287e-005
2.085163e-004,-6.715681e-005
1.488763e-004,-1.101041e-004
1.086841e-004,-1.480274e-004
8.680524e-005,-1.759026e-004
8.923623e-005,-1.893541e-004
1.237561e-004,-1.872472e-004
1.984683e-004,-1.716889e-004
3.042970e-004,-1.491618e-004
4.130428e-004,-1.261486e-004
4.906721e-004,-1.052422e-004
5.162785e-004,-8.660465e-005
4.903480e-004,-6.667062e-005
4.357320e-004,-4.754691e-005
3.879227e-004,-2.923353e-005
3.914881e-004,-1.902341e-005
4.768966e-004,-1.675450e-005
6.355586e-004,-1.675450e-005
8.128582e-004,-1.659243e-005
9.326246e-004,-1.610624e-005
9.378107e-004,-1.464765e-005
8.138306e-004,-1.156841e-005
5.676532e-004,-1.399939e-005
2.169437e-004,-2.647842e-005
-2.081536e-004,-4.625038e-005
-6.672846e-004,-5.937768e-005
-1.104213e-003,-4.916756e-005
-1.443577e-003,-9.785688e-006
-1.598188e-003,5.568870e-005
-1.519262e-003,1.339663e-004
-1.237268e-003,2.107852e-004
-8.609526e-004,2.793389e-004
-5.361738e-004,3.349273e-004
-3.993907e-004,3.712299e-004
-5.186707e-004,3.814401e-004
-8.687317e-004,3.626405e-004
-1.355414e-003,3.169380e-004
-1.834317e-003,2.454672e-004
-2.150993e-003,1.456350e-004
-2.208364e-003,2.246531e-005
-2.001893e-003,-1.102662e-004
-1.618446e-003,-2.321393e-004
-1.185731e-003,-3.279199e-004
-8.167088e-004,-3.875599e-004
-5.672903e-004,-4.126800e-004
-4.311555e-004,-4.120317e-004
-3.591985e-004,-3.964735e-004
-2.893484e-004,-3.752429e-004
-1.843300e-004,-3.497987e-004
-4.106429e-005,-3.175477e-004
1.216493e-004,-2.676316e-004
2.785285e-004,-1.893541e-004
4.041292e-004,-7.315322e-005
4.859722e-004,9.134307e-005
5.269747e-004,2.953834e-004
5.428572e-004,5.130371e-004
5.524190e-004,7.118915e-004
5.626292e-004,8.686088e-004
5.731634e-004,9.666584e-004
5.822391e-004,1.006040e-003
5.887217e-004,9.976128e-004
5.882355e-004,9.543414e-004
5.785116e-004,8.817361e-004
5.593878e-004,7.806072e-004
5.342677e-004,6.417171e-004
5.140096e-004,4.522626e-004
5.028270e-004,2.117576e-004
5.023408e-004,-6.099833e-005
5.114165e-004,-3.347266e-004
5.237334e-004,-5.676145e-004
5.337815e-004,-7.212523e-004
5.383193e-004,-7.860785e-004
5.366987e-004,-7.771649e-004
5.264886e-004,-7.181731e-004
5.063924e-004,-6.309819e-004
4.731691e-004,-5.282326e-004
4.227667e-004,-4.170558e-004
3.613439e-004,-2.992343e-004
3.034866e-004,-1.791439e-004
2.585945e-004,-6.699475e-005
2.281262e-004,2.133085e-005
2.012234e-004,7.157111e-005
1.769136e-004,7.999851e-005
1.574657e-004,5.585077e-005
1.415833e-004,9.986281e-006
1.245665e-004,-5.046408e-005
1.093323e-004,-1.191798e-004
1.018773e-004,-1.935677e-004
1.036600e-004,-2.726556e-004
1.065772e-004,-3.444506e-004
9.490851e-005,-3.948528e-004
6.152305e-005,-4.102490e-004
2.181705e-005,-3.875599e-004
-8.720959e-007,-3.334301e-004
1.144487e-005,-2.640662e-004
5.714729e-005,-1.940539e-004
1.218114e-004,-1.358725e-004
1.855030e-004,-9.227693e-005
2.260194e-004,-6.051213e-005
2.352571e-004,-3.620233e-005
2.135403e-004,-1.205460e-005
1.671896e-004,1.501031e-005
1.138702e-004,4.564065e-005
7.529860e-005,7.529860e-005
5.730935e-005,9.993253e-005
5.406805e-005,1.188942e-004
5.455425e-005,1.294284e-004
4.839576e-005,1.297526e-004
2.992031e-005,1.278078e-004
-2.816880e-006,1.338042e-004
-4.057810e-005,1.519555e-004
-7.201877e-005,1.754550e-004
-8.903562e-005,1.960373e-004
-8.384954e-005,2.078681e-004
-6.180866e-005,2.141886e-004
-3.296103e-005,2.237505e-004
-7.192643e-006,2.363916e-004
1.663096e-005,2.482223e-004
4.677511e-005,2.571359e-004
8.664318e-005,2.665357e-004
1.320215e-004,2.803113e-004
1.728619e-004,2.970040e-004
2.026820e-004,3.133726e-004
2.175920e-004,3.253654e-004
2.138645e-004,3.320101e-004
1.924718e-004,3.394651e-004
1.589243e-004,3.491891e-004
1.169494e-004,3.606957e-004
7.691926e-005,3.756057e-004
4.580272e-005,3.900295e-004
2.392390e-005,3.999155e-004
1.565857e-005,3.979707e-004
2.975825e-005,3.848434e-004
6.492643e-005,3.658818e-004
1.114392e-004,3.451374e-004
1.522796e-004,3.282826e-004
1.785342e-004,3.158036e-004
1.939304e-004,3.049452e-004
2.075439e-004,2.911697e-004
2.269918e-004,2.722080e-004
2.448189e-004,2.508154e-004
2.397949e-004,2.316917e-004
1.942546e-004,2.192126e-004
1.041462e-004,2.151610e-004
-1.545797e-005,2.169437e-004
-1.467309e-004,2.159713e-004
-2.752487e-004,2.101370e-004
-3.985804e-004,2.034923e-004
-5.112157e-004,2.039785e-004
-6.084549e-004,2.130541e-004
-6.878669e-004,2.297469e-004
-7.470207e-004,2.488706e-004
-7.791097e-004,2.634565e-004
-7.838095e-004,2.710735e-004
-7.638755e-004,2.585945e-004
-7.259523e-004,2.065715e-004
-6.666363e-004,1.085220e-004
-5.736109e-004,-2.453363e-005
-4.390967e-004,-1.645581e-004
-2.708729e-004,-2.818933e-004
-9.017008e-005,-3.669776e-004
7.756752e-005,-4.220798e-004
2.096508e-004,-4.489826e-004
2.997591e-004,-4.462276e-004
3.509718e-004,-4.143007e-004
3.663680e-004,-3.579019e-004
3.469201e-004,-2.864312e-004
2.884145e-004,-2.143121e-004
1.793446e-004,-1.595340e-004
1.744129e-005,-1.227452e-004
-1.720131e-004,-9.843541e-005
-3.425058e-004,-7.574627e-005
-4.454172e-004,-4.381940e-005
-4.572480e-004,-2.330684e-006
-3.904771e-004,4.434413e-005
-2.817312e-004,8.291568e-005
-1.768750e-004,9.263960e-005
-1.138316e-004,5.811968e-005
-9.892161e-005,-2.566809e-005
-1.086455e-004,-1.425172e-004
-1.079973e-004,-2.630937e-004
-7.785312e-005,-3.622777e-004
-2.275091e-005,-4.194868e-004
3.834771e-005,-4.248349e-004
8.907416e-005,-3.841565e-004
1.248906e-004,-3.212752e-004
1.466074e-004,-2.647144e-004
1.569795e-004,-2.357047e-004
1.628139e-004,-2.395943e-004
1.680000e-004,-2.721694e-004
1.743205e-004,-3.180339e-004
1.864754e-004,-3.613053e-004
2.148369e-004,-3.873979e-004
2.608634e-004,-3.835083e-004
3.180725e-004,-3.485022e-004
3.747954e-004,-2.899966e-004
4.222805e-004,-2.227395e-004
4.613383e-004,-1.645581e-004
5.000719e-004,-1.242038e-004
5.519328e-004,-1.011905e-004
6.196762e-004,-8.709085e-005
6.990883e-004,-7.461182e-005
7.857933e-004,-5.435365e-005
8.671501e-004,-2.728874e-005
9.279247e-004,-2.168618e-006
9.525587e-004,1.598270e-005
9.274385e-004,2.376183e-005
8.418679e-004,2.003433e-005
6.904988e-004,1.209313e-005
4.653899e-004,8.527692e-006
1.584381e-004,1.468618e-005
-2.280877e-004,3.121684e-005
-6.781430e-004,5.941620e-005
-1.162718e-003,9.960841e-005
-1.625091e-003,1.504969e-004
-1.986010e-003,2.010613e-004
-2.181785e-003,2.406053e-004
-2.185675e-003,2.689667e-004
-2.013886e-003,2.940868e-004
-1.716171e-003,3.240689e-004
-1.358331e-003,3.600474e-004
-9.957909e-004,3.963501e-004
-6.629088e-004,4.284390e-004
-3.784843e-004,4.556660e-004
-1.499722e-004,4.791655e-004
2.392390e-005,4.958582e-004
1.440143e-004,4.987754e-004
2.133783e-004,4.811103e-004
2.500050e-004,4.399457e-004
2.825802e-004,3.757678e-004
3.324963e-004,2.882525e-004
4.076947e-004,1.808031e-004
4.989374e-004,5.212327e-005
5.960147e-004,-9.211487e-005
6.964952e-004,-2.397564e-004
7.908173e-004,-3.758912e-004
8.592089e-004,-4.873921e-004
8.789809e-004,-5.648594e-004
8.373301e-004,-6.073205e-004
7.360392e-004,-6.189891e-004
5.921251e-004,-6.100755e-004
4.363802e-004,-5.856037e-004
2.995970e-004,-5.471942e-004
2.039785e-004,-4.963057e-004
1.605450e-004,-4.386105e-004
1.600588e-004,-3.788084e-004
1.858272e-004,-3.168994e-004
2.339606e-004,-2.535319e-004
3.096451e-004,-1.938919e-004
4.177427e-004,-1.415448e-004
5.430193e-004,-9.908367e-005
6.417171e-004,-6.715681e-005
6.704027e-004,-4.009191e-005
6.059006e-004,-1.626830e-005
4.551798e-004,2.693341e-006
2.501671e-004,1.306552e-005
3.413401e-005,1.128280e-005
-1.485136e-004,1.002961e-007
-2.546664e-004,-1.416145e-005
-2.587180e-004,-2.372331e-005
-1.630995e-004,-2.048200e-005
-6.176923e-008,-5.896120e-006
1.783722e-004,1.452411e-005
3.044590e-004,3.154097e-005
3.209897e-004,4.304761e-005
2.043026e-004,5.179914e-005
-3.587821e-005,6.298164e-005
-3.551469e-004,7.999851e-005
-6.959701e-004,1.034980e-004
-9.881739e-004,1.263492e-004
-1.150401e-003,1.415833e-004
-1.123498e-003,1.470936e-004
-9.006586e-004,1.475797e-004
-5.248293e-004,1.493625e-004
-7.218083e-005,1.560072e-004
3.726885e-004,1.681620e-004
7.459252e-004,1.885823e-004
1.020950e-003,2.162954e-004
1.194036e-003,2.449810e-004
1.275879e-003,2.701012e-004
1.278635e-003,3.013798e-004
1.215105e-003,3.650715e-004
1.100038e-003,4.781931e-004
9.460760e-004,6.298863e-004
7.647247e-004,7.945448e-004
5.598741e-004,9.438071e-004
3.208276e-004,1.061143e-003
3.786152e-005,1.140717e-003
-2.929138e-004,1.180909e-003
-6.593434e-004,1.176857e-003
-1.027232e-003,1.128562e-003
-1.340342e-003,1.046719e-003
-1.529958e-003,9.498035e-004
-1.555727e-003,8.489988e-004
-1.413271e-003,7.235601e-004
-1.137598e-003,5.389676e-004
-7.941817e-004,2.833905e-004
-4.567618e-004,-2.583016e-005
-1.781716e-004,-3.519055e-004
1.355172e-005,-6.585331e-004
1.224596e-004,-9.217271e-004
1.764274e-004,-1.126254e-003
2.119197e-004,-1.264171e-003
2.655633e-004,-1.336776e-003
3.579406e-004,-1.352821e-003
4.796517e-004,-1.317815e-003
6.042800e-004,-1.235161e-003
7.045984e-004,-1.105509e-003
7.661834e-004,-9.416611e-004
7.681281e-004,-7.632272e-004
6.948746e-004,-5.862520e-004
5.405883e-004,-4.220798e-004
3.289309e-004,-2.718453e-004
1.022015e-004,-1.314967e-004
-1.079973e-004,5.448452e-006
-2.851347e-004,1.419075e-004
-4.151110e-004,2.741528e-004
-5.010056e-004,3.978086e-004
-5.570802e-004,5.123889e-004
-5.963000e-004,6.151384e-004
-6.152617e-004,6.953608e-004
-6.013241e-004,7.379840e-004
-5.452494e-004,7.287462e-004
-4.510895e-004,6.621373e-004
-3.319715e-004,5.480433e-004
-2.105846e-004,4.119083e-004
-1.109144e-004,2.833905e-004
-4.576419e-005,1.814514e-004
-1.383732e-005,1.094944e-004
-1.610624e-005,5.730935e-005
-5.321920e-005,1.403791e-005
-1.149661e-004,-2.485776e-005
-1.780095e-004,-5.808115e-005
-2.156086e-004,-8.320128e-005
-2.057227e-004,-9.908367e-005
-1.430034e-004,-1.045939e-004
-4.155049e-005,-1.018388e-004
7.448828e-005,-9.146661e-005
1.820997e-004,-7.072225e-005
2.613496e-004,-4.090223e-005
3.064038e-004,-9.461558e-006
3.218000e-004,1.371378e-005
3.162898e-004,2.846173e-005
2.991108e-004,4.547859e-005
2.735045e-004,7.319176e-005
2.368777e-004,1.120874e-004
1.944166e-004,1.556830e-004
1.545486e-004,1.926339e-004
1.240803e-004,2.125679e-004
1.140322e-004,2.099749e-004
1.222976e-004,1.944166e-004
1.381800e-004,1.777239e-004
1.547106e-004,1.686482e-004
1.699448e-004,1.644345e-004
1.955511e-004,1.608691e-004
2.483844e-004,1.564933e-004
3.303894e-004,1.490383e-004
4.230909e-004,1.370455e-004
5.029891e-004,1.179218e-004
5.563086e-004,9.069481e-005
5.746220e-004,5.909208e-005
5.571189e-004,2.635488e-005
5.080132e-004,-2.006553e-006
4.342734e-004,-2.048200e-005
3.550234e-004,-3.053005e-005
2.994350e-004,-3.555408e-005
2.936006e-004,-3.992984e-005
3.493511e-004,-4.787104e-005
4.509661e-004,-6.035007e-005
5.606844e-004,-7.590833e-005
6.467411e-004,-9.454585e-005
6.893643e-004,-1.169109e-004
6.763991e-004,-1.396000e-004
5.963388e-004,-1.561307e-004
4.482110e-004,-1.614788e-004
2.438466e-004,-1.540238e-004
1.630683e-005,-1.366828e-004
-1.784957e-004,-1.135075e-004
-2.849726e-004,-8.984595e-005
-2.867553e-004,-7.250496e-005
-2.136638e-004,-6.553616e-005
-1.292278e-004,-6.553616e-005
-9.989401e-005,-6.991193e-005
-1.757406e-004,-7.639453e-005
-3.598467e-004,-8.401160e-005
-6.071584e-004,-9.098041e-005
-8.531735e-004,-9.486997e-005
-1.055431e-003,-9.373552e-005
-1.204855e-003,-8.709085e-005
-1.319597e-003,-7.558420e-005
-1.425750e-003,-5.986387e-005
-1.538548e-003,-3.911951e-005
-1.651345e-003,-1.562004e-005
-1.734809e-003,7.393236e-006
-1.756364e-003,2.975825e-005
-1.702558e-003,4.726130e-005
-1.572905e-003,5.876794e-005
-1.384099e-003,5.990240e-005
-1.158018e-003,5.050261e-005
-9.170272e-004,3.559260e-005
-6.702017e-004,2.392390e-005
-4.170558e-004,2.052053e-005
-1.546721e-004,2.246531e-005
1.051186e-004,2.376183e-005
3.357376e-004,2.133085e-005
5.144958e-004,1.371378e-005
6.321552e-004,1.002961e-007
6.934160e-004,-1.545797e-005
7.076777e-004,-2.404744e-005
6.914712e-004,-2.064406e-005
6.673234e-004,-1.043395e-005
6.595443e-004,-5.896120e-006
6.835299e-004,-2.615429e-005
7.340944e-004,-8.757704e-005
7.869278e-004,-1.869231e-004
8.237166e-004,-3.060411e-004
8.327923e-004,-4.185144e-004
8.185305e-004,-5.037607e-004
7.917897e-004,-5.577285e-004
7.624559e-004,-5.786349e-004
7.358771e-004,-5.601594e-004
7.070294e-004,-5.023021e-004
6.614891e-004,-4.063595e-004
5.892079e-004,-2.830278e-004
4.901859e-004,-1.465688e-004
3.803056e-004,-1.254080e-005
2.760976e-004,1.091703e-004
1.895547e-004,2.161334e-004
1.261871e-004,3.089969e-004
9.101894e-005,3.921364e-004
8.518459e-005,4.678209e-004
1.034980e-004,5.284334e-004
1.339663e-004,5.673291e-004
1.615174e-004,5.827253e-004
1.731861e-004,5.730013e-004
1.641104e-004,5.375090e-004
1.393144e-004,4.830550e-004
1.043083e-004,4.222805e-004
6.314371e-005,3.684748e-004
1.663096e-005,3.263378e-004
-3.458168e-005,2.913317e-004
-8.287715e-005,2.587566e-004
-1.237176e-004,2.271538e-004
-1.562927e-004,1.978200e-004
-1.799543e-004,1.686482e-004
-1.942160e-004,1.394765e-004
-1.959987e-004,1.106288e-004
-1.729855e-004,8.550872e-005
-9.778715e-005,6.265751e-005
5.390598e-005,3.867184e-005
2.767458e-004,9.175954e-006
5.451261e-004,-2.453363e-005
8.426782e-004,-5.759496e-005
1.153358e-003,-8.384954e-005
1.449776e-003,-9.859748e-005
1.693199e-003,-9.956988e-005
1.845216e-003,-8.919769e-005
1.887840e-003,-7.704279e-005
1.828523e-003,-6.942573e-005
1.687850e-003,-6.861539e-005
1.487699e-003,-7.331530e-005
1.259835e-003,-8.174268e-005
1.036184e-003,-8.968389e-005
8.272820e-004,-9.341139e-005
5.997422e-004,-8.595638e-005
2.856594e-004,-6.456377e-005
-1.869231e-004,-3.636440e-005
-8.526873e-004,-1.173047e-005
-1.695589e-003,5.124321e-006
-2.647400e-003,1.582063e-005
-3.585923e-003,2.262738e-005
-4.335317e-003,2.700314e-005
-4.709367e-003,3.137890e-005
-4.592679e-003,4.045456e-005
-4.003405e-003,6.362991e-005
-3.087570e-003,1.117633e-004
-2.050512e-003,1.921477e-004
-1.082658e-003,2.968419e-004
-3.042584e-004,4.115842e-004
2.404432e-004,5.234093e-004
5.689497e-004,6.164349e-004
7.407391e-004,6.775336e-004
8.101031e-004,7.010330e-004
8.165857e-004,6.887161e-004
7.879001e-004,6.407447e-004
7.436562e-004,5.610085e-004
6.927677e-004,4.559901e-004
6.459308e-004,3.344411e-004
6.130316e-004,2.135403e-004
5.989318e-004,1.179218e-004
5.960147e-004,6.071273e-005
5.885597e-004,3.526847e-005
5.754323e-004,1.841368e-005
5.613327e-004,-1.805102e-005
5.520949e-004,-9.065628e-005
5.486915e-004,-1.929195e-004
5.423710e-004,-3.102548e-004
5.200059e-004,-4.269418e-004
4.775448e-004,-5.301774e-004
4.250357e-004,-6.185030e-004
3.783608e-004,-6.969426e-004
3.451374e-004,-7.750580e-004
3.253654e-004,-8.641939e-004
3.180725e-004,-9.675916e-004
3.164518e-004,-1.079903e-003
3.136967e-004,-1.187028e-003
3.093210e-004,-1.269519e-003
3.047831e-004,-1.316356e-003
3.044590e-004,-1.323163e-003
3.028383e-004,-1.290912e-003
2.919800e-004,-1.217496e-003
2.686426e-004,-1.103402e-003
2.384984e-004,-9.575436e-004
2.124059e-004,-7.889956e-004
1.987924e-004,-6.097514e-004
1.953890e-004,-4.303451e-004
1.952270e-004,-2.614731e-004
1.932822e-004,-1.079973e-004
1.869616e-004,3.462021e-005
1.785342e-004,1.681620e-004
1.686482e-004,2.913317e-004
1.485521e-004,3.950536e-004
1.104668e-004,4.720346e-004
6.379197e-005,5.196818e-004
2.781346e-005,5.436675e-004
1.857574e-005,5.525811e-004
4.353380e-005,5.545259e-004
9.652917e-005,5.582534e-004
1.592484e-004,5.721910e-004
2.124059e-004,5.992560e-004
2.331503e-004,6.345862e-004
2.102990e-004,6.718613e-004
1.493625e-004,7.039502e-004
6.606088e-005,7.316634e-004
-1.837515e-005,7.605111e-004
-8.628052e-005,7.932483e-004
-1.280934e-004,8.289027e-004
-1.436516e-004,8.621261e-004
-1.368449e-004,8.859497e-004
-1.130213e-004,9.052355e-004
-8.287715e-005,9.310039e-004
-5.483985e-005,9.624446e-004
-3.587821e-005,9.903199e-004
-3.587821e-005,1.008957e-003
-6.035007e-005,1.019168e-003
-1.063766e-004,1.025164e-003
-1.663408e-004,1.025650e-003
-2.220912e-004,1.013982e-003
-2.535319e-004,9.784892e-004
-2.536940e-004,9.081527e-004
-2.318152e-004,8.013516e-004
-2.113949e-004,6.624615e-004
-2.094502e-004,4.940755e-004
-2.292221e-004,3.028383e-004
-2.546664e-004,9.555677e-005
-2.613110e-004,-1.144799e-004
-2.258187e-004,-3.131719e-004
-1.528894e-004,-4.911196e-004
-6.197072e-005,-6.439472e-004
3.397195e-005,-7.676030e-004
1.326697e-004,-8.567389e-004
2.346088e-004,-9.110308e-004
3.328204e-004,-9.342061e-004
4.091532e-004,-9.359888e-004
4.407560e-004,-9.231857e-004
4.195254e-004,-9.034137e-004
3.538890e-004,-8.761868e-004
2.639427e-004,-8.381014e-004
1.699448e-004,-7.844578e-004
9.053275e-005,-7.173628e-004
3.834771e-005,-6.442713e-004
9.500085e-006,-5.705316e-004
-1.189254e-005,-4.992229e-004
-3.328516e-005,-4.352071e-004
-5.111234e-005,-3.783222e-004
-5.775702e-005,-3.311612e-004
-6.359137e-005,-2.956689e-004
-8.854943e-005,-2.724935e-004
-1.473791e-004,-2.538560e-004
-2.348944e-004,-2.290601e-004
-3.138202e-004,-1.950263e-004
-3.399127e-004,-1.556445e-004
-2.924276e-004,-1.165867e-004
-1.901644e-004,-8.222889e-005
-7.444975e-005,-5.840528e-005
6.744974e-006,-5.451572e-005
2.214118e-005,-7.153257e-005
-2.955766e-005,-1.015147e-004
-1.366828e-004,-1.287416e-004
-2.822175e-004,-1.428413e-004
-4.407173e-004,-1.376552e-004
-5.711799e-004,-1.162626e-004
-6.389232e-004,-8.141856e-005
-6.343853e-004,-3.814712e-005
-5.632387e-004,1.014835e-005
-4.360174e-004,6.217132e-005
-2.758969e-004,1.156529e-004
-1.130213e-004,1.694586e-004
2.052053e-005,2.271538e-004
1.041462e-004,2.945730e-004
1.325077e-004,3.725265e-004
1.133840e-004,4.564763e-004
5.795762e-005,5.412365e-004
-1.270286e-005,6.208107e-004
-7.558420e-005,6.870955e-004
-1.104282e-004,7.323117e-004
-1.075111e-004,7.569456e-004
-7.590833e-005,7.695867e-004
-3.312309e-005,7.773659e-004
5.610517e-006,7.785003e-004
3.154097e-005,7.699109e-004
4.596478e-005,7.400909e-004
5.811968e-005,6.841783e-004
7.772959e-005,6.060627e-004
1.047945e-004,5.148199e-004
1.269974e-004,4.209840e-004
1.339663e-004,3.341170e-004
1.229458e-004,2.566497e-004
9.782569e-005,1.882582e-004
7.270556e-005,1.286181e-004
6.006447e-005,7.918817e-005
6.249545e-005,3.980630e-005
7.481241e-005,1.063454e-005
9.377406e-005,-6.706447e-006
1.083599e-004,-1.254080e-005
9.669123e-005,-6.868513e-006
3.753739e-005,7.069105e-006
-7.201877e-005,2.311357e-005
-2.088019e-004,3.607880e-005
-3.214373e-004,4.223728e-005
-3.444506e-004,4.094075e-005
-2.417012e-004,3.154097e-005
-2.404744e-005,1.565857e-005
2.514636e-004,-5.479652e-007
5.089855e-004,-1.562004e-005
6.859610e-004,-3.231277e-005
7.519216e-004,-4.981582e-005
7.154569e-004,-6.796714e-005
6.177314e-004,-8.190475e-005
5.093097e-004,-8.725291e-005
4.248736e-004,-8.854943e-005
3.809539e-004,-9.033215e-005
3.825745e-004,-9.389759e-005
4.148255e-004,-9.989401e-005
4.499937e-004,-1.146419e-004
4.553419e-004,-1.392759e-004
4.089912e-004,-1.661787e-004
2.942489e-004,-1.896782e-004
1.000946e-004,-2.055606e-004
-1.639098e-004,-2.133397e-004
-4.609755e-004,-2.135018e-004
-7.424829e-004,-2.073433e-004
-9.453886e-004,-1.994021e-004
-1.005191e-003,-1.974573e-004
-8.956346e-004,-2.029675e-004
-6.530228e-004,-2.146363e-004
-3.564434e-004,-2.314910e-004
-9.924574e-005,-2.502906e-004
5.455425e-005,-2.660110e-004
9.150514e-005,-2.815692e-004
4.645098e-005,-3.159271e-004
-1.691656e-005,-3.870737e-004
-3.036798e-005,-4.911196e-004
4.564065e-005,-6.068342e-004
2.015475e-004,-7.107180e-004
3.890571e-004,-7.878611e-004
5.556603e-004,-8.272430e-004
6.653786e-004,-8.235155e-004
7.203188e-004,-7.747339e-004
7.456010e-004,-6.839773e-004
7.689385e-004,-5.609698e-004
7.982723e-004,-4.191627e-004
8.217718e-004,-2.723315e-004
8.251752e-004,-1.352242e-004
8.143168e-004,-1.643037e-005
8.018378e-004,8.534666e-005
7.926000e-004,1.780480e-004
7.752590e-004,2.629703e-004
7.230740e-004,3.352514e-004
5.992560e-004,3.875985e-004
3.741471e-004,4.209840e-004
4.061663e-005,4.383250e-004
-3.812394e-004,4.433490e-004
-8.471771e-004,4.417284e-004
-1.278757e-003,4.368664e-004
-1.587653e-003,4.320045e-004
-1.711309e-003,4.250357e-004
-1.644052e-003,4.117463e-004
-1.437905e-003,3.875985e-004
-1.177790e-003,3.558337e-004
-9.355026e-004,3.248792e-004
-7.444277e-004,2.963557e-004
-6.086170e-004,2.681563e-004
-5.084606e-004,2.363916e-004
-4.193247e-004,1.997648e-004
-3.112272e-004,1.628139e-004
-1.593720e-004,1.310491e-004
3.948217e-005,1.104668e-004
2.629703e-004,1.052807e-004
4.825689e-004,1.143563e-004
6.669993e-004,1.258630e-004
7.956792e-004,1.297526e-004
8.639088e-004,1.188942e-004
8.836808e-004,9.344993e-005
8.708776e-004,5.828175e-005
8.420300e-004,2.165498e-005
8.071859e-004,-6.544382e-006
7.708832e-004,-1.724069e-005
7.324737e-004,3.665733e-006
6.887161e-004,7.594687e-005
6.315070e-004,2.005751e-004
5.540397e-004,3.621543e-004
4.543695e-004,5.365367e-004
3.362238e-004,6.984400e-004
2.072198e-004,8.225822e-004
7.173317e-005,8.969702e-004
-7.315322e-005,9.256558e-004
-2.279256e-004,9.285730e-004
-3.752429e-004,9.177146e-004
-4.852853e-004,8.880566e-004
-5.465460e-004,8.225822e-004
-5.687489e-004,7.037881e-004
-5.705316e-004,5.234093e-004
-5.642111e-004,2.898731e-004
-5.439529e-004,2.068259e-005
-5.018159e-004,-2.605007e-004
-4.384484e-004,-5.290429e-004
-3.591985e-004,-7.661444e-004
-2.737901e-004,-9.578677e-004
-1.844921e-004,-1.101944e-003
-9.114248e-005,-1.206476e-003
3.179537e-006,-1.284591e-003
8.680524e-005,-1.348931e-003
1.485521e-004,-1.403223e-003
1.803169e-004,-1.441633e-003
1.827479e-004,-1.452815e-003
1.631380e-004,-1.427047e-003
1.289422e-004,-1.361897e-003
9.118101e-005,-1.270816e-003
6.541262e-005,-1.175197e-003
6.168512e-005,-1.089465e-003
7.967438e-005,-1.011835e-003
1.059290e-004,-9.269132e-004
1.257009e-004,-8.173570e-004
1.253768e-004,-6.711741e-004
1.013911e-004,-4.768579e-004
6.022653e-005,-2.444563e-004
1.355172e-005,-2.654814e-006
-2.842320e-005,2.115956e-004
-6.407757e-005,3.726885e-004
-9.438378e-005,4.765725e-004
-1.183694e-004,5.388056e-004
-1.357104e-004,5.762426e-004
-1.404103e-004,5.874252e-004
-1.230693e-004,5.645740e-004
-8.141856e-005,5.065545e-004
-1.562004e-005,4.253598e-004
5.941620e-005,3.461098e-004
1.274836e-004,2.960316e-004
1.658931e-004,2.882525e-004
1.615174e-004,3.175863e-004
1.104668e-004,3.663680e-004
3.494434e-005,4.211461e-004
-2.793700e-005,4.699278e-004
-4.479180e-005,5.065545e-004
-9.461558e-006,5.371849e-004
6.265751e-005,5.686256e-004
1.430419e-004,6.008766e-004
1.991165e-004,6.242140e-004
2.166196e-004,6.326414e-004
2.023578e-004,6.261588e-004
1.696206e-004,6.028214e-004
1.367214e-004,5.687877e-004
1.175977e-004,5.326470e-004
1.164632e-004,5.028270e-004
1.333180e-004,4.827309e-004
1.676758e-004,4.692795e-004
2.109473e-004,4.585832e-004
2.472499e-004,4.452938e-004
2.608634e-004,4.286011e-004
2.428742e-004,4.070464e-004
1.931201e-004,3.781987e-004
1.159770e-004,3.433547e-004
1.987227e-005,3.052694e-004
-8.271508e-005,2.673460e-004
-1.755785e-004,2.321778e-004
-2.384598e-004,2.028440e-004
-2.606628e-004,1.804790e-004
-2.488320e-004,1.624898e-004
-2.217671e-004,1.449867e-004
-1.968091e-004,1.299146e-004
-1.846542e-004,1.177597e-004
-1.749302e-004,1.091703e-004
-1.501342e-004,1.057669e-004
-9.632857e-005,1.088461e-004
-1.659243e-005,1.216493e-004
6.832980e-005,1.412592e-004
1.291043e-004,1.634622e-004
1.464453e-004,1.855030e-004
1.151667e-004,2.021958e-004
4.515445e-005,2.112714e-004
-4.365734e-005,2.133783e-004
-1.314967e-004,2.085163e-004
-2.078295e-004,1.968476e-004
-2.700626e-004,1.795066e-004
-3.196545e-004,1.629760e-004
-3.549848e-004,1.500107e-004
-3.739464e-004,1.373696e-004
-3.685983e-004,1.210010e-004
-3.207890e-004,9.863601e-005
-2.253326e-004,7.481241e-005
-1.010285e-004,5.212327e-005
2.262738e-005,3.867184e-005
1.250527e-004,3.769945e-005
2.067336e-004,5.601284e-005
2.820940e-004,9.847395e-005
3.608578e-004,1.600588e-004
4.443214e-004,2.261814e-004
5.334574e-004,2.848491e-004
6.274553e-004,3.316860e-004
7.178878e-004,3.652335e-004
7.971379e-004,3.801436e-004
8.566159e-004,3.697714e-004
8.898393e-004,3.299033e-004
8.914600e-004,2.592428e-004
8.522401e-004,1.560072e-004
7.512733e-004,2.100672e-005
5.678153e-004,-1.383035e-004
3.015418e-004,-3.143064e-004
-4.090223e-005,-4.937127e-004
-4.350450e-004,-6.606399e-004
-8.225431e-004,-7.993678e-004
-1.127550e-003,-9.017931e-004
-1.296584e-003,-9.696984e-004
-1.316356e-003,-1.006649e-003
-1.212310e-003,-1.016697e-003
-1.025125e-003,-1.002274e-003
-8.006644e-004,-9.682399e-004
-5.757177e-004,-9.201065e-004
-3.666535e-004,-8.611146e-004
-1.814128e-004,-7.962886e-004
-3.701266e-005,-7.270867e-004
3.899597e-005,-6.538332e-004
2.441009e-005,-5.737729e-004
-9.000802e-005,-4.886886e-004
-2.950206e-004,-4.000390e-004
-5.497872e-004,-3.097686e-004
-7.852681e-004,-2.199844e-004
-9.295062e-004,-1.344139e-004
-9.367992e-004,-6.245691e-005
-8.042298e-004,-1.221667e-005
-5.702075e-004,1.582063e-005
-2.992343e-004,3.073064e-005
-5.467778e-005,4.369587e-005
1.211631e-004,6.622294e-005
2.138645e-004,1.012291e-004
2.393087e-004,1.440143e-004
2.242366e-004,1.879340e-004
1.900409e-004,2.295848e-004
1.551968e-004,2.649151e-004
1.383420e-004,2.893870e-004
1.629760e-004,3.017039e-004
2.560015e-004,3.047831e-004
4.271425e-004,3.047831e-004
6.481997e-004,3.073762e-004
8.682846e-004,3.146691e-004
1.047529e-003,3.247172e-004
1.172320e-003,3.405996e-004
1.250273e-003,3.649094e-004
1.300351e-003,3.953777e-004
1.339247e-003,4.217943e-004
1.374578e-003,4.261701e-004
1.396132e-003,3.992672e-004
1.376360e-003,3.491891e-004
1.279283e-003,2.919800e-004
1.074756e-003,2.376881e-004
7.631041e-004,1.911753e-004
3.850055e-004,1.508211e-004
1.002961e-007,1.172735e-004
-3.575778e-004,9.280167e-005
-6.917564e-004,7.789165e-005
-1.023342e-003,7.319176e-005
-1.360924e-003,8.956036e-005
-1.692186e-003,1.466074e-004
-1.966886e-003,2.594049e-004
-2.094108e-003,4.204978e-004
-1.990548e-003,6.059006e-004
-1.636759e-003,7.869278e-004
-1.101458e-003,9.408899e-004
-5.087847e-004,1.055632e-003
1.727922e-005,1.124348e-003
4.008879e-004,1.142175e-003
6.302104e-004,1.103766e-003
7.374978e-004,1.005392e-003
7.749349e-004,8.462437e-004
7.932483e-004,6.311828e-004
8.180443e-004,3.691231e-004
8.462437e-004,7.384002e-005
8.692570e-004,-2.353806e-004
8.749293e-004,-5.352014e-004
8.522401e-004,-8.032574e-004
7.827141e-004,-1.030473e-003
6.460929e-004,-1.215551e-003
4.354078e-004,-1.354928e-003
1.584381e-004,-1.443091e-003
-1.669890e-004,-1.481014e-003
-5.100812e-004,-1.473073e-003
-8.168708e-004,-1.425102e-003
-1.021883e-003,-1.345852e-003
-1.080065e-003,-1.240347e-003
-9.949806e-004,-1.116368e-003
-8.202742e-004,-9.813671e-004
-6.326026e-004,-8.413427e-004
-4.875542e-004,-7.021286e-004
-3.958252e-004,-5.692351e-004
-3.352128e-004,-4.475241e-004
-2.767073e-004,-3.415334e-004
-2.086398e-004,-2.540181e-004
-1.426792e-004,-1.833576e-004
-9.195280e-005,-1.248521e-004
-6.180866e-005,-7.558420e-005
-4.381940e-005,-3.976777e-005
-1.173047e-005,-2.939559e-005
5.811968e-005,-4.997789e-005
1.793446e-004,-9.470791e-005
3.482167e-004,-1.442999e-004
5.363746e-004,-1.789819e-004
7.047605e-004,-1.848162e-004
8.165857e-004,-1.543479e-004
8.528884e-004,-8.871149e-005
8.144788e-004,9.175954e-006
7.292324e-004,1.315353e-004
6.274553e-004,2.718839e-004
5.294057e-004,4.237391e-004
4.399457e-004,5.900182e-004
3.615060e-004,7.695867e-004
2.995970e-004,9.543414e-004
2.608634e-004,1.132938e-003
2.477361e-004,1.289817e-003
2.516257e-004,1.417201e-003
2.587566e-004,1.515250e-003
2.530843e-004,1.585911e-003
2.273159e-004,1.628048e-003
1.777239e-004,1.633720e-003
1.099806e-004,1.595635e-003
4.369587e-005,1.512009e-003
2.369211e-006,1.386570e-003
-6.176923e-008,1.225315e-003
3.186510e-005,1.031809e-003
7.789165e-005,8.089686e-004
1.184080e-004,5.678153e-004
1.415833e-004,3.216380e-004
1.423936e-004,7.837785e-005
1.224596e-004,-1.489998e-004
8.939829e-005,-3.478539e-004
6.233338e-005,-5.073262e-004
5.779555e-005,-6.243373e-004
7.335383e-005,-7.048837e-004
9.733949e-005,-7.612825e-004
1.203528e-004,-8.045539e-004
1.354248e-004,-8.387497e-004
1.396385e-004,-8.549562e-004
1.305629e-004,-8.366429e-004
1.098185e-004,-7.744097e-004
7.302970e-005,-6.755499e-004
7.231170e-006,-5.585388e-004
-9.908367e-005,-4.423380e-004
-2.376495e-004,-3.431540e-004
-3.742705e-004,-2.635799e-004
-4.661616e-004,-2.015090e-004
-4.893369e-004,-1.540238e-004
-4.540067e-004,-1.188556e-004
-3.906392e-004,-9.811128e-005
-3.180339e-004,-9.195280e-005
-2.301945e-004,-9.924574e-005
-1.178833e-004,-1.196660e-004
1.889987e-005,-1.491618e-004
1.692965e-004,-1.831956e-004
3.187208e-004,-2.177155e-004
4.538833e-004,-2.496423e-004
5.619809e-004,-2.788141e-004
6.396103e-004,-3.047445e-004
6.817472e-004,-3.301888e-004
6.849886e-004,-3.601709e-004
6.588960e-004,-3.977700e-004
6.099523e-004,-4.395829e-004
5.418848e-004,-4.724821e-004
4.482110e-004,-4.894990e-004
3.198552e-004,-4.843129e-004
1.493625e-004,-4.561135e-004
-7.137051e-005,-4.084663e-004
-3.407231e-004,-3.454229e-004
-6.507540e-004,-2.750866e-004
-9.849326e-004,-2.032917e-004
-1.314736e-003,-1.352242e-004
-1.603374e-003,-7.477388e-005
-1.820217e-003,-2.534396e-005
-1.960404e-003,1.160693e-005
-2.034630e-003,4.126489e-005
-2.046947e-003,6.978839e-005
-1.983417e-003,9.896015e-005
-1.822810e-003,1.289422e-004
-1.558482e-003,1.581140e-004
-1.204855e-003,1.856651e-004
-8.013126e-004,2.138645e-004
-4.040906e-004,2.470879e-004
-6.116039e-005,2.842008e-004
1.961994e-004,3.185587e-004
3.634508e-004,3.443271e-004
4.572867e-004,3.597233e-004
5.046097e-004,3.671783e-004
5.290816e-004,3.683128e-004
5.514466e-004,3.652335e-004
5.794840e-004,3.598854e-004
6.174073e-004,3.538890e-004
6.611650e-004,3.521062e-004
7.013571e-004,3.585888e-004
7.292324e-004,3.730126e-004
7.379840e-004,3.900295e-004
7.289083e-004,4.015361e-004
7.068674e-004,4.023465e-004
6.762370e-004,3.957018e-004
6.350724e-004,3.840331e-004
5.866149e-004,3.715541e-004
5.388056e-004,3.616681e-004
4.992616e-004,3.532407e-004
4.694416e-004,3.454615e-004
4.457800e-004,3.367100e-004
4.276287e-004,3.261758e-004
4.156358e-004,3.122381e-004
4.106118e-004,2.987867e-004
4.086671e-004,2.918179e-004
4.039671e-004,2.895490e-004
3.940812e-004,2.893870e-004
3.793332e-004,2.840388e-004
3.610198e-004,2.718839e-004
3.430306e-004,2.516257e-004
3.324963e-004,2.263435e-004
3.302274e-004,1.994406e-004
3.321722e-004,1.756171e-004
3.378445e-004,1.548727e-004
3.405996e-004,1.338042e-004
3.354135e-004,1.104668e-004
3.149933e-004,8.680524e-005
2.738286e-004,6.654708e-005
2.127300e-004,4.855783e-005
1.441764e-004,3.170304e-005
8.680524e-005,1.031041e-005
5.617490e-005,-1.950961e-005
5.358185e-005,-5.532604e-005
6.978839e-005,-9.243900e-005
9.344993e-005,-1.227452e-004
1.153287e-004,-1.464067e-004
1.312112e-004,-1.653684e-004
1.349386e-004,-1.831956e-004
1.214872e-004,-2.013469e-004
9.296373e-005,-2.232257e-004
5.034055e-005,-2.481838e-004
-4.437533e-006,-2.690902e-004
-6.391550e-005,-2.768693e-004
-1.167488e-004,-2.673075e-004
-1.499722e-004,-2.462390e-004
-1.635857e-004,-2.256567e-004
-1.674752e-004,-2.120432e-004
-1.781716e-004,-2.000504e-004
-2.044261e-004,-1.904885e-004
-2.465631e-004,-1.841680e-004
-2.959930e-004,-1.810887e-004
-3.366714e-004,-1.781716e-004
-3.606571e-004,-1.726613e-004
-3.650328e-004,-1.697442e-004
-3.465574e-004,-1.731475e-004
-3.076617e-004,-1.840059e-004
-2.514251e-004,-1.969711e-004
-1.796301e-004,-2.078295e-004
-1.003802e-004,-2.170672e-004
-3.328516e-005,-2.276015e-004
-3.303076e-006,-2.402425e-004
-2.275091e-005,-2.502906e-004
-8.660465e-005,-2.501286e-004
-1.746061e-004,-2.357047e-004
-2.570974e-004,-2.075054e-004
-3.044204e-004,-1.703924e-004
-3.021515e-004,-1.337657e-004
-2.558008e-004,-1.015147e-004
-1.989159e-004,-7.347736e-005
-1.642339e-004,-4.495386e-005
-1.592099e-004,-1.254080e-005
-1.502963e-004,2.181705e-005
-9.389759e-005,5.601284e-005
1.922400e-005,8.453633e-005
1.605450e-004,1.047945e-004
2.908455e-004,1.177597e-004
3.819262e-004,1.263492e-004
4.204978e-004,1.342904e-004
4.143393e-004,1.448246e-004
3.794953e-004,1.581140e-004
3.368721e-004,1.715654e-004
3.062417e-004,1.799928e-004
2.966799e-004,1.845306e-004
3.026763e-004,1.864754e-004
3.093210e-004,1.830721e-004
2.978143e-004,1.707551e-004
2.485465e-004,1.487142e-004
1.472556e-004,1.180839e-004
-1.254080e-005,8.080883e-005
-2.318152e-004,4.985435e-005
-5.001953e-004,3.348575e-005
-7.932093e-004,3.656499e-005
-1.081523e-003,5.763349e-005
-1.318787e-003,8.842590e-005
-1.444874e-003,1.175977e-004
-1.416188e-003,1.355869e-004
-1.233703e-003,1.415833e-004
-9.311269e-004,1.402868e-004
-5.624284e-004,1.376938e-004
-1.914609e-004,1.373696e-004
1.213252e-004,1.376938e-004
3.451374e-004,1.312112e-004
4.772207e-004,1.156529e-004
5.316747e-004,9.393612e-005
5.383193e-004,7.448828e-005
5.285954e-004,7.351589e-005
5.175750e-004,1.046324e-004
5.062304e-004,1.634622e-004
4.874308e-004,2.315296e-004
4.514523e-004,2.918179e-004
3.989431e-004,3.362238e-004
3.420582e-004,3.631267e-004
2.910076e-004,3.741471e-004
2.490327e-004,3.749574e-004
2.104611e-004,3.738230e-004
1.611932e-004,3.700955e-004
8.664318e-005,3.511338e-004
-2.145439e-005,3.020280e-004
-1.554824e-004,2.161334e-004
-2.925897e-004,9.701536e-005
-4.003631e-004,-4.754691e-005
-4.457413e-004,-2.071812e-004
-4.118697e-004,-3.627639e-004
-3.156029e-004,-4.859335e-004
-1.912988e-004,-5.429805e-004
-6.553616e-005,-5.194810e-004
4.985435e-005,-4.284004e-004
1.566554e-004,-2.919414e-004
2.495189e-004,-1.314967e-004
3.192070e-004,3.283749e-005
3.546993e-004,1.764274e-004
3.501615e-004,2.756114e-004
3.102934e-004,3.145071e-004
2.519498e-004,2.893870e-004
1.947408e-004,2.047888e-004
1.537382e-004,6.881599e-005
1.386662e-004,-1.032974e-004
1.506590e-004,-2.959930e-004
1.788584e-004,-4.987367e-004
2.098128e-004,-7.018045e-004
2.278021e-004,-8.923933e-004
2.227781e-004,-1.053000e-003
2.002510e-004,-1.171632e-003
1.707551e-004,-1.237268e-003
1.441764e-004,-1.236620e-003
1.218114e-004,-1.154939e-003
1.034980e-004,-9.904428e-004
9.296373e-005,-7.585274e-004
9.377406e-005,-4.852853e-004
1.117633e-004,-2.084778e-004
1.495245e-004,2.797553e-005
2.041406e-004,1.927960e-004
2.668598e-004,2.803113e-004
3.188828e-004,3.025142e-004
3.389789e-004,2.790148e-004
3.140208e-004,2.329882e-004
2.477361e-004,1.874478e-004
1.649207e-004,1.808031e-004
9.993253e-005,2.446569e-004
7.432621e-005,3.803056e-004
9.182927e-005,5.459364e-004
1.534141e-004,6.859610e-004
2.490327e-004,7.624559e-004
3.514580e-004,7.674799e-004
4.250357e-004,7.165913e-004
4.331389e-004,6.324793e-004
3.610198e-004,5.352402e-004
2.286124e-004,4.378388e-004
8.648112e-005,3.425444e-004
-1.302700e-005,2.448189e-004
-3.701266e-005,1.521176e-004
1.744129e-005,7.951231e-005
1.193804e-004,3.964424e-005
2.260194e-004,3.705119e-005
2.924662e-004,6.427817e-005
2.926282e-004,1.103047e-004
2.167816e-004,1.597346e-004
7.027458e-005,2.043026e-004
-1.373311e-004,2.430362e-004
-3.885323e-004,2.778803e-004
-6.601537e-004,3.117519e-004
-9.220513e-004,3.440029e-004
-1.132412e-003,3.679886e-004
-1.252340e-003,3.741471e-004
-1.252827e-003,3.561579e-004
-1.113774e-003,3.214759e-004
-8.436117e-004,2.825802e-004
-4.919299e-004,2.509774e-004
-1.271210e-004,2.344468e-004
1.918236e-004,2.307193e-004
4.326527e-004,2.375260e-004
5.919630e-004,2.483844e-004
7.015193e-004,2.519498e-004
8.073480e-004,2.406053e-004
9.332729e-004,2.141886e-004
1.059522e-003,1.790204e-004
1.148982e-003,1.430419e-004
1.173616e-003,1.117633e-004
1.129534e-003,8.469840e-005
1.024840e-003,5.520250e-005
8.674743e-004,1.776542e-005
6.734819e-004,-2.793700e-005
4.790034e-004,-7.866345e-005
3.127243e-004,-1.279313e-004
1.798307e-004,-1.747682e-004
6.346784e-005,-2.199844e-004
-5.856735e-005,-2.650386e-004
-1.984297e-004,-3.078238e-004
-3.549848e-004,-3.415334e-004
-5.223983e-004,-3.600088e-004
-7.005080e-004,-3.604950e-004
-9.027654e-004,-3.447747e-004
-1.142136e-003,-3.168994e-004
-1.426399e-003,-2.820554e-004
-1.730271e-003,-2.400805e-004
-1.987145e-003,-1.971332e-004
-2.119066e-003,-1.592099e-004
-2.075470e-003,-1.272830e-004
-1.858303e-003,-1.000561e-004
-1.524448e-003,-7.914964e-005
-1.159153e-003,-6.132246e-005
-8.397221e-004,-4.090223e-005
-6.099135e-004,-1.659243e-005
-4.624341e-004,8.041497e-006
-3.627639e-004,3.235129e-005
-2.771934e-004,6.006447e-005
-1.849783e-004,9.215340e-005
-7.736692e-005,1.261871e-004
4.547859e-005,1.590864e-004
1.738343e-004,1.856651e-004
2.978143e-004,2.010613e-004
4.081808e-004,2.038164e-004
5.010443e-004,1.983062e-004
5.733255e-004,1.885823e-004
6.230795e-004,1.796687e-004
6.490100e-004,1.751309e-004
6.585719e-004,1.773998e-004
6.661890e-004,1.811273e-004
6.817472e-004,1.808031e-004
7.058950e-004,1.788584e-004
7.276118e-004,1.782101e-004
7.318255e-004,1.799928e-004
7.091364e-004,1.804790e-004
6.554927e-004,1.778860e-004
5.773771e-004,1.714034e-004
4.953720e-004,1.642725e-004
4.297355e-004,1.618415e-004
3.961880e-004,1.631380e-004
3.986190e-004,1.620036e-004
4.316803e-004,1.550348e-004
4.775448e-004,1.410971e-004
5.164405e-004,1.222976e-004
5.332953e-004,1.007429e-004
5.225990e-004,8.097089e-005
4.851619e-004,7.157111e-005
4.308700e-004,7.059871e-005
3.726885e-004,7.610894e-005
3.200173e-004,8.340187e-005
2.744769e-004,8.793970e-005
2.394708e-004,8.777764e-005
2.143507e-004,7.789165e-005
2.088404e-004,5.909208e-005
2.243987e-004,3.397195e-005
2.467637e-004,8.203562e-006
2.514636e-004,-1.335113e-005
2.162954e-004,-3.134038e-005
1.316974e-004,-4.787104e-005
6.907040e-006,-6.359137e-005
-1.313347e-004,-7.590833e-005
-2.488320e-004,-8.044617e-005
-3.125237e-004,-8.352541e-005
-3.060411e-004,-9.276313e-005
-2.428356e-004,-1.052422e-004
-1.525652e-004,-1.203142e-004
-6.748094e-005,-1.347380e-004
-2.168618e-006,-1.438137e-004
4.207521e-005,-1.470550e-004
6.930219e-005,-1.464067e-004
8.194328e-005,-1.467309e-004
8.793970e-005,-1.511067e-004
9.474644e-005,-1.630995e-004
1.124116e-004,-1.783336e-004
1.480659e-004,-1.906506e-004
1.987924e-004,-1.977815e-004
2.569738e-004,-1.992400e-004
3.099692e-004,-1.955125e-004
3.464339e-004,-1.914609e-004
3.616681e-004,-1.891920e-004
3.525924e-004,-1.870851e-004
3.158036e-004,-1.836818e-004
2.553532e-004,-1.818991e-004
1.835583e-004,-1.825473e-004
1.148425e-004,-1.838438e-004
7.140904e-005,-1.840059e-004
7.513654e-005,-1.841680e-004
1.399627e-004,-1.840059e-004
2.534084e-004,-1.809267e-004
3.827366e-004,-1.752544e-004
4.900239e-004,-1.674752e-004
5.516087e-004,-1.616409e-004
5.634395e-004,-1.619650e-004
5.345919e-004,-1.676373e-004
4.812723e-004,-1.759026e-004
4.128807e-004,-1.817370e-004
3.211517e-004,-1.831956e-004
1.992786e-004,-1.814128e-004
5.909208e-005,-1.796301e-004
-7.801519e-005,-1.835197e-004
-1.943781e-004,-1.898403e-004
-2.909690e-004,-1.919471e-004
-3.854531e-004,-1.827094e-004
-5.107295e-004,-1.630995e-004
-6.959701e-004,-1.413827e-004
-9.421473e-004,-1.245279e-004
-1.222358e-003,-1.156143e-004
-1.478745e-003,-1.096179e-004
-1.635139e-003,-9.665270e-005
-1.630763e-003,-7.428769e-005
-1.450870e-003,-3.960571e-005
-1.135653e-003,6.582909e-006
-7.677651e-004,5.925414e-005
-4.355313e-004,1.090082e-004
-1.943781e-004,1.501728e-004
-6.310517e-005,1.772377e-004
-3.166451e-005,1.924718e-004
-7.979791e-005,2.012234e-004
-1.776853e-004,2.085163e-004
-2.865932e-004,2.213195e-004
-3.721637e-004,2.430362e-004
-4.175420e-004,2.694529e-004
-4.301831e-004,2.965178e-004
-4.238625e-004,3.214759e-004
-4.058733e-004,3.410858e-004
-3.830221e-004,3.532407e-004
-3.515814e-004,3.579406e-004
-3.070135e-004,3.568061e-004
-2.480217e-004,3.504856e-004
-1.736337e-004,3.401134e-004
-7.801519e-005,3.269861e-004
4.693717e-005,3.125623e-004
2.043026e-004,2.970040e-004
3.838710e-004,2.799871e-004
5.699221e-004,2.629703e-004
7.431700e-004,2.504913e-004
8.909738e-004,2.443328e-004
1.007175e-003,2.412535e-004
1.078484e-003,2.384984e-004
1.089180e-003,2.354192e-004
1.037643e-003,2.370398e-004
9.386210e-004,2.472499e-004
8.143168e-004,2.618358e-004
6.854748e-004,2.722080e-004
5.634395e-004,2.707494e-004
4.506420e-004,2.543808e-004
3.441650e-004,2.242366e-004
2.290986e-004,1.833962e-004
9.101894e-005,1.354248e-004
-7.039812e-005,8.405014e-005
-2.436459e-004,3.494434e-005
-4.117076e-004,-9.785688e-006
-5.587008e-004,-4.803310e-005
-6.739292e-004,-7.590833e-005
-7.509103e-004,-9.503204e-005
-7.875370e-004,-1.065387e-004
-7.854302e-004,-1.135075e-004
-7.445897e-004,-1.195039e-004
-6.676087e-004,-1.250141e-004
-5.687489e-004,-1.269589e-004
-4.632444e-004,-1.246900e-004
-3.627639e-004,-1.128592e-004
-2.661730e-004,-6.731888e-005
-1.673132e-004,4.547859e-005
-6.456377e-005,2.383363e-004
3.478228e-005,4.905101e-004
1.242423e-004,7.546768e-004
2.085163e-004,9.836752e-004
2.934386e-004,1.144444e-003
3.746333e-004,1.231635e-003
4.392974e-004,1.254325e-003
4.744656e-004,1.222236e-003
4.759242e-004,1.136827e-003
4.532350e-004,9.890234e-004
4.289252e-004,7.781762e-004
4.239012e-004,5.230852e-004
4.410801e-004,2.498430e-004
4.725208e-004,-2.291298e-005
5.070407e-004,-2.882139e-004
5.344298e-004,-5.470322e-004
5.443158e-004,-8.061745e-004
5.318367e-004,-1.067100e-003
4.982892e-004,-1.329808e-003
4.475628e-004,-1.593488e-003
3.725265e-004,-1.856682e-003
2.610255e-004,-2.098808e-003
1.054428e-004,-2.289397e-003
-8.822530e-005,-2.403815e-003
-2.935620e-004,-2.429746e-003
-4.731304e-004,-2.369944e-003
-5.891691e-004,-2.232674e-003
-6.293613e-004,-2.026851e-003
-6.014861e-004,-1.764791e-003
-5.196431e-004,-1.466429e-003
-3.967976e-004,-1.149105e-003
-2.478596e-004,-8.084435e-004
-9.341139e-005,-4.390967e-004
4.110282e-005,-6.083626e-005
1.354248e-004,2.921420e-004
1.809652e-004,5.846701e-004
1.793446e-004,7.935724e-004
1.459591e-004,9.160939e-004
9.847395e-005,9.697376e-004
4.531652e-005,9.765443e-004
-9.947754e-006,9.629308e-004
-6.213279e-005,9.486690e-004
-1.016767e-004,9.493173e-004
-1.280934e-004,9.663342e-004
-1.465688e-004,9.906441e-004
-1.559686e-004,1.012685e-003
-1.434896e-004,1.024516e-003
-9.324933e-005,1.021112e-003
-8.165035e-006,1.004582e-003
8.988449e-005,9.805959e-004
1.752929e-004,9.489932e-004
2.346088e-004,9.023183e-004
2.743149e-004,8.295510e-004
3.114278e-004,7.293945e-004
3.534027e-004,6.144901e-004
3.974845e-004,4.978030e-004
4.386491e-004,3.931088e-004
4.728449e-004,3.049452e-004
5.055821e-004,2.320158e-004
5.456123e-004,1.723757e-004
5.885597e-004,1.291043e-004
6.214589e-004,1.044704e-004
6.268070e-004,9.701536e-005
5.775391e-004,1.015532e-004
4.482110e-004,1.117633e-004
2.274780e-004,1.206769e-004
-7.509801e-005,1.167873e-004
-4.321279e-004,9.393612e-005
-7.914266e-004,5.520250e-005
-1.082658e-003,1.306552e-005
-1.249099e-003,-2.129233e-005
-1.271950e-003,-4.106429e-005
-1.168877e-003,-4.722278e-005
-9.880118e-004,-4.527799e-005
-7.860785e-004,-4.106429e-005
-6.105618e-004,-3.636440e-005
-4.776682e-004,-3.360929e-005
-3.826980e-004,-3.101625e-005
-3.159271e-004,-2.291298e-005
-2.807589e-004,-5.734056e-006
-2.815692e-004,1.549650e-005
-3.121996e-004,3.316162e-005
-3.557951e-004,4.483033e-005
-3.906392e-004,4.871989e-005
-3.893426e-004,4.774750e-005
-3.254889e-004,4.466826e-005
-1.823853e-004,3.705119e-005
2.846173e-005,2.505836e-005
2.769079e-004,1.160693e-005
5.316747e-004,1.234753e-006
7.712074e-004,-4.113403e-006
9.755720e-004,-4.923729e-006
1.120783e-003,-3.951337e-006
1.193226e-003,-1.358292e-006
1.197116e-003,6.582909e-006
1.154654e-003,2.165498e-005
1.085939e-003,3.948217e-005
1.004582e-003,5.601284e-005
9.219283e-004,6.800567e-005
8.498091e-004,7.092284e-005
7.974620e-004,6.654708e-005
7.653730e-004,5.795762e-005
7.319876e-004,4.661304e-005
6.707268e-004,3.413401e-005
5.529052e-004,2.424803e-005
3.689610e-004,2.052053e-005
1.297526e-004,2.797553e-005
-1.420310e-004,4.774750e-005
-4.245108e-004,7.610894e-005
-6.937013e-004,1.039842e-004
-9.074653e-004,1.265113e-004
-1.023180e-003,1.440143e-004
-1.019290e-003,1.566554e-004
-8.956346e-004,1.629760e-004
-6.687432e-004,1.613553e-004
-3.783222e-004,1.548727e-004
-7.623246e-005,1.493625e-004
1.775618e-004,1.464453e-004
3.397893e-004,1.469315e-004
3.966742e-004,1.490383e-004
3.666921e-004,1.517934e-004
2.906835e-004,1.519555e-004
2.130541e-004,1.449867e-004
1.658931e-004,1.279698e-004
1.688103e-004,9.863601e-005
2.344468e-004,6.217132e-005
3.534027e-004,2.441009e-005
4.887274e-004,-7.678839e-006
5.914768e-004,-3.085418e-005
6.263209e-004,-4.738484e-005
5.704083e-004,-5.856735e-005
4.237391e-004,-6.359137e-005
2.070577e-004,-6.407757e-005
-5.111234e-005,-6.667062e-005
-3.254889e-004,-7.072225e-005
-5.891691e-004,-7.769106e-005
-7.943438e-004,-8.611845e-005
-8.766730e-004,-9.940781e-005
-7.898060e-004,-1.224211e-004
-5.416840e-004,-1.535376e-004
-2.063709e-004,-1.864369e-004
1.030118e-004,-2.167431e-004
2.691288e-004,-2.417012e-004
2.177540e-004,-2.567732e-004
-4.155049e-005,-2.622834e-004
-4.371519e-004,-2.619593e-004
-8.724593e-004,-2.583939e-004
-1.238079e-003,-2.574215e-004
-1.429640e-003,-2.627696e-004
-1.387665e-003,-2.705488e-004
-1.126902e-003,-2.752487e-004
-7.329211e-004,-2.739521e-004
-3.196545e-004,-2.658489e-004
5.124321e-006,-2.494803e-004
1.714034e-004,-2.293842e-004
1.631380e-004,-2.128535e-004
3.154097e-005,-2.010227e-004
-1.316588e-004,-1.947022e-004
-2.285739e-004,-1.919471e-004
-2.039399e-004,-1.904885e-004
-6.731888e-005,-1.883817e-004
1.210010e-004,-1.846542e-004
2.848491e-004,-1.815749e-004
3.770643e-004,-1.823853e-004
3.913261e-004,-1.854645e-004
3.542131e-004,-1.851404e-004
3.017039e-004,-1.804405e-004
2.608634e-004,-1.700683e-004
2.451431e-004,-1.535376e-004
2.516257e-004,-1.316588e-004
2.777182e-004,-1.099421e-004
3.166139e-004,-9.243900e-005
3.529166e-004,-7.380149e-005
3.715541e-004,-5.224680e-005
3.628026e-004,-2.793700e-005
3.256896e-004,-2.168618e-006
2.748010e-004,2.489629e-005
2.367157e-004,4.790957e-005
2.279642e-004,6.557468e-005
2.542187e-004,7.853991e-005
3.051073e-004,8.567078e-005
3.558337e-004,8.615699e-005
3.856538e-004,8.323981e-005
3.785229e-004,8.145709e-005
3.349273e-004,8.453633e-005
2.730183e-004,9.474644e-005
2.234263e-004,1.098185e-004
2.080301e-004,1.260251e-004
2.258573e-004,1.398006e-004
2.572980e-004,1.504969e-004
2.710735e-004,1.581140e-004
2.435224e-004,1.642725e-004
1.762653e-004,1.683241e-004
9.182927e-005,1.757791e-004
1.322759e-005,1.879340e-004
-4.349527e-005,2.064095e-004
-7.153257e-005,2.271538e-004
-7.866345e-005,2.427121e-004
-8.158062e-005,2.482223e-004
-9.049421e-005,2.453052e-004
-1.114006e-004,2.414156e-004
-1.431655e-004,2.380122e-004
-1.767130e-004,2.401191e-004
-1.990780e-004,2.475741e-004
-2.039399e-004,2.577842e-004
-1.955125e-004,2.649151e-004
-1.836818e-004,2.637806e-004
-1.684476e-004,2.529222e-004
-1.423551e-004,2.341226e-004
-9.681477e-005,2.114335e-004
-3.701266e-005,1.877720e-004
2.619281e-005,1.696206e-004
7.578480e-005,1.566554e-004
9.523264e-005,1.454729e-004
8.242948e-005,1.307250e-004
4.953022e-005,1.124116e-004
1.679302e-005,9.037068e-005
1.558884e-006,6.995045e-005
1.079661e-005,5.406805e-005
3.688912e-005,4.596478e-005
6.622294e-005,4.207521e-005
8.923623e-005,3.883391e-005
1.013911e-004,3.769945e-005
9.993253e-005,3.672706e-005
8.486046e-005,3.510641e-005
5.909208e-005,2.781346e-005
2.538249e-005,6.258778e-006
-1.221667e-005,-4.057810e-005
-4.722278e-005,-1.161005e-004
-7.315322e-005,-2.021572e-004
-8.644259e-005,-2.770314e-004
-8.952183e-005,-3.250027e-004
-8.174268e-005,-3.416954e-004
-6.893953e-005,-3.306750e-004
-5.937768e-005,-2.854588e-004
-6.197072e-005,-1.878955e-004
-7.752899e-005,-3.231277e-005
-1.011905e-004,1.636242e-004
-1.290658e-004,3.673404e-004
-1.530514e-004,5.546879e-004
-1.746061e-004,7.076777e-004
-2.003745e-004,8.191788e-004
-2.301945e-004,8.909738e-004
-2.617972e-004,9.186870e-004
-2.849726e-004,8.901635e-004
-2.859450e-004,7.989206e-004
-2.566112e-004,6.567892e-004
-2.018331e-004,4.824068e-004
-1.245279e-004,2.874421e-004
-2.890940e-005,7.724339e-005
7.935024e-005,-1.378173e-004
1.895547e-004,-3.402368e-004
2.854973e-004,-5.099192e-004
3.521062e-004,-6.303337e-004
3.804677e-004,-6.959701e-004
3.639370e-004,-7.146077e-004
3.106175e-004,-7.037492e-004
2.362295e-004,-6.820326e-004
1.647587e-004,-6.651777e-004
1.261871e-004,-6.685811e-004
1.404489e-004,-7.011562e-004
2.025199e-004,-7.570688e-004
2.950592e-004,-8.227052e-004
4.028327e-004,-8.815349e-004
5.081752e-004,-9.184858e-004
5.955285e-004,-9.215650e-004
6.585719e-004,-8.888278e-004
7.052467e-004,-8.265948e-004
7.470596e-004,-7.468587e-004
7.919518e-004,-6.599916e-004
8.394370e-004,-5.713420e-004
8.849773e-004,-4.813957e-004
9.104217e-004,-3.890185e-004
8.895152e-004,-2.885380e-004
8.028102e-004,-1.775233e-004
6.488480e-004,-5.743289e-005
4.274666e-004,6.800567e-005
1.432040e-004,2.021958e-004
-1.982676e-004,3.550234e-004
-5.791211e-004,5.250300e-004
-9.790981e-004,6.974676e-004
-1.364976e-003,8.532125e-004
-1.682138e-003,9.786512e-004
-1.880181e-003,1.067949e-003
-1.938687e-003,1.121269e-003
-1.875968e-003,1.145903e-003
-1.738536e-003,1.147686e-003
-1.576147e-003,1.130020e-003
-1.416026e-003,1.088694e-003
-1.263685e-003,1.019005e-003
-1.099837e-003,9.175525e-004
-9.066550e-004,7.844968e-004
-6.805740e-004,6.298863e-004
-4.403932e-004,4.640934e-004
-2.188499e-004,3.018659e-004
-4.673658e-005,1.511452e-004
6.832980e-005,1.371378e-005
1.414213e-004,-1.096179e-004
1.971717e-004,-2.159328e-004
2.553532e-004,-2.930758e-004
3.172622e-004,-3.332680e-004
3.734989e-004,-3.365093e-004
4.013741e-004,-3.089583e-004
3.793332e-004,-2.609869e-004
2.952213e-004,-2.070192e-004
1.574657e-004,-1.590478e-004
-8.327101e-006,-1.193418e-004
-1.739578e-004,-8.660465e-005
-3.060411e-004,-5.970181e-005
-3.690845e-004,-3.798505e-005
-3.412093e-004,-1.967167e-005
-2.269532e-004,-8.002969e-006
-6.310517e-005,-1.682422e-006
1.056048e-004,-2.654814e-006
2.537325e-004,-1.124428e-005
3.778746e-004,-2.583016e-005
4.833792e-004,-4.317115e-005
5.772150e-004,-7.120844e-005
6.699165e-004,-1.214487e-004
7.679661e-004,-1.974573e-004
8.575883e-004,-2.883759e-004
9.102596e-004,-3.695707e-004
9.060458e-004,-4.217557e-004
8.470541e-004,-4.382863e-004
7.556491e-004,-4.154351e-004
6.642442e-004,-3.514194e-004
5.992560e-004,-2.548284e-004
5.759185e-004,-1.361966e-004
5.880735e-004,-9.623623e-006
6.110868e-004,1.096565e-004
6.174073e-004,2.080301e-004
5.801322e-004,2.793389e-004
4.840274e-004,3.279585e-004
3.354135e-004,3.589129e-004
1.615174e-004,3.778746e-004
-1.043395e-005,3.937570e-004
-1.676373e-004,4.128807e-004
-3.057169e-004,4.389733e-004
-4.227281e-004,4.728449e-004
-5.152673e-004,5.073649e-004
-5.781487e-004,5.292437e-004
-6.160720e-004,5.336195e-004
-6.322784e-004,5.185474e-004
-6.183409e-004,4.849998e-004
-5.565940e-004,4.394595e-004
-4.394208e-004,3.905157e-004
-2.801106e-004,3.440029e-004
-1.149661e-004,3.028383e-004
3.137890e-005,2.592428e-004
1.496866e-004,2.046267e-004
2.350950e-004,1.347766e-004
2.861456e-004,4.823370e-005
3.047831e-004,-4.544006e-005
2.968419e-004,-1.310105e-004
2.773941e-004,-1.968091e-004
2.639427e-004,-2.417012e-004
2.697770e-004,-2.661730e-004
2.979764e-004,-2.674695e-004
3.365480e-004,-2.485079e-004
3.713920e-004,-2.162569e-004
3.898674e-004,-1.750923e-004
3.863020e-004,-1.240417e-004
3.581026e-004,-6.229485e-005
3.096451e-004,2.531276e-006
2.532463e-004,6.362991e-005
2.067336e-004,1.104668e-004
1.825859e-004,1.407730e-004
1.773998e-004,1.543865e-004
1.728619e-004,1.527658e-004
1.594105e-004,1.454729e-004
1.402868e-004,1.432040e-004
1.265113e-004,1.482280e-004
1.299146e-004,1.532520e-004
1.686482e-004,1.519555e-004
2.521119e-004,1.441764e-004
3.681507e-004,1.339663e-004
4.822447e-004,1.268354e-004
5.592257e-004,1.227837e-004
5.770530e-004,1.153287e-004
5.347540e-004,9.831188e-005
4.491834e-004,6.136099e-005
3.470822e-004,4.244267e-007
2.542187e-004,-8.206682e-005
1.872858e-004,-1.739578e-004
1.608691e-004,-2.533699e-004
1.939304e-004,-2.922655e-004
2.927903e-004,-2.755728e-004
4.323286e-004,-2.165810e-004
5.608465e-004,-1.488377e-004
6.285898e-004,-1.057284e-004
6.172452e-004,-1.060525e-004
5.376711e-004,-1.494860e-004
4.170944e-004,-2.243602e-004
2.762596e-004,-3.186821e-004
1.294284e-004,-4.233763e-004
-1.432352e-005,-5.303394e-004
-1.502963e-004,-6.253097e-004
-2.899966e-004,-6.873807e-004
-4.389346e-004,-6.833291e-004
-5.920863e-004,-5.943552e-004
-7.316245e-004,-4.274280e-004
-8.387497e-004,-2.123673e-004
-9.131377e-004,1.160693e-005
-9.820154e-004,2.091646e-004
-1.075851e-003,3.668542e-004
-1.211662e-003,4.793275e-004
-1.387827e-003,5.426951e-004
-1.554754e-003,5.540397e-004
-1.625253e-003,5.162785e-004
-1.528176e-003,4.412422e-004
-1.240347e-003,3.360618e-004
-7.951541e-004,1.900409e-004
-2.723315e-004,-1.270286e-005
2.258573e-004,-2.778417e-004
6.130316e-004,-5.812279e-004
8.439748e-004,-8.821832e-004
9.157698e-004,-1.139219e-003
8.512677e-004,-1.329321e-003
6.869333e-004,-1.451195e-003
4.559901e-004,-1.514562e-003
1.859892e-004,-1.528176e-003
-1.084835e-004,-1.496249e-003
-4.151110e-004,-1.420240e-003
-7.188214e-004,-1.304363e-003
-9.904428e-004,-1.152832e-003
-1.185407e-003,-9.667812e-004
-1.247802e-003,-7.497758e-004
-1.147646e-003,-5.186707e-004
-9.113550e-004,-2.904828e-004
-6.118583e-004,-7.866345e-005
-3.298647e-004,1.069013e-004
-1.152902e-004,2.623220e-004
1.484824e-005,3.880847e-004
6.800567e-005,4.903480e-004
6.525056e-005,5.725152e-004
2.700314e-005,6.332897e-004
-2.420950e-005,6.718613e-004
-6.310517e-005,6.908230e-004
-6.812920e-005,6.981159e-004
-3.166451e-005,7.000606e-004
3.591673e-005,7.034640e-004
1.203528e-004,7.081639e-004
2.083542e-004,7.146465e-004
2.880904e-004,7.209671e-004
3.444891e-004,7.287462e-004
3.616681e-004,7.334462e-004
3.357376e-004,7.326358e-004
2.785285e-004,7.285841e-004
2.128921e-004,7.235601e-004
1.631380e-004,7.183740e-004
1.428799e-004,7.138362e-004
1.521176e-004,7.092984e-004
1.822617e-004,7.042743e-004
2.192126e-004,6.950366e-004
2.521119e-004,6.830437e-004
2.778803e-004,6.650545e-004
2.984626e-004,6.415551e-004
3.169380e-004,6.110868e-004
3.383307e-004,5.793219e-004
3.568061e-004,5.488536e-004
3.660439e-004,5.190336e-004
3.649094e-004,4.908342e-004
3.538890e-004,4.663623e-004
3.381686e-004,4.480489e-004
3.219621e-004,4.333010e-004
3.091589e-004,4.133669e-004
3.005694e-004,3.820883e-004
2.995970e-004,3.388169e-004
3.070520e-004,2.846870e-004
3.200173e-004,2.268297e-004
3.311998e-004,1.725378e-004
3.381686e-004,1.269974e-004
3.427064e-004,8.988449e-005
3.472443e-004,5.844381e-005
3.527545e-004,3.218923e-005
3.563199e-004,1.079661e-005
3.509718e-004,-6.868513e-006
3.311998e-004,-2.048200e-005
2.981384e-004,-3.215070e-005
2.584324e-004,-4.479180e-005
2.203471e-004,-6.261898e-005
1.895547e-004,-8.465986e-005
1.691344e-004,-1.049180e-004
1.568175e-004,-1.107524e-004
1.540623e-004,-8.822530e-005
1.626518e-004,-3.409549e-005
1.832341e-004,4.466826e-005
2.132162e-004,1.321835e-004
2.430362e-004,2.119197e-004
2.597290e-004,2.728562e-004
2.532463e-004,3.111037e-004
2.187264e-004,3.281205e-004
1.558451e-004,3.211517e-004
7.124698e-005,2.903593e-004
-2.437157e-005,2.412535e-004
-1.211246e-004,1.790204e-004
-2.086398e-004,1.028497e-004
-2.804347e-004,7.069105e-006
-3.374817e-004,-1.115627e-004
-3.825359e-004,-2.439701e-004
-4.178661e-004,-3.786463e-004
-4.467137e-004,-5.074882e-004
-4.663236e-004,-6.244993e-004
-4.752372e-004,-7.173628e-004
-4.721580e-004,-7.818647e-004
-4.625961e-004,-8.152502e-004
-4.543308e-004,-8.146020e-004
-4.496309e-004,-7.852681e-004
-4.455793e-004,-7.376209e-004
-4.374760e-004,-6.765223e-004
-4.230522e-004,-6.044033e-004
-3.990665e-004,-5.206155e-004
-3.648708e-004,-4.284004e-004
-3.254889e-004,-3.324577e-004
-2.849726e-004,-2.408908e-004
-2.420253e-004,-1.598582e-004
-1.898403e-004,-9.632857e-005
-1.125351e-004,-4.949169e-005
-2.168618e-006,-9.947754e-006
1.276457e-004,2.667901e-005
2.529222e-004,6.217132e-005
3.571303e-004,9.490851e-005
4.329769e-004,1.255389e-004
4.900239e-004,1.529279e-004
5.514466e-004,1.756171e-004
6.272933e-004,1.923098e-004
7.045984e-004,2.033302e-004
7.645627e-004,2.111094e-004
7.921138e-004,2.167816e-004
7.885484e-004,2.182402e-004
7.684522e-004,2.164575e-004
7.347427e-004,2.132162e-004
6.866092e-004,2.070577e-004
6.263209e-004,1.944166e-004
5.559844e-004,1.765894e-004
4.694416e-004,1.555210e-004
3.590750e-004,1.331559e-004
2.115956e-004,1.125736e-004
1.014835e-005,9.523264e-005
-2.525595e-004,8.178122e-005
-5.627525e-004,6.962632e-005
-8.925553e-004,5.828175e-005
-1.206152e-003,5.034055e-005
-1.463187e-003,4.920609e-005
-1.642432e-003,5.163707e-005
-1.738050e-003,5.131294e-005
-1.738536e-003,3.964424e-005
-1.623632e-003,1.225520e-005
-1.383775e-003,-2.583016e-005
-1.030635e-003,-6.440170e-005
-6.082929e-004,-9.276313e-005
-1.810887e-004,-1.086455e-004
1.898788e-004,-1.183694e-004
4.649037e-004,-1.300382e-004
6.292380e-004,-1.446240e-004
6.929298e-004,-1.582375e-004
6.843403e-004,-1.666649e-004
6.319932e-004,-1.673132e-004
5.542018e-004,-1.582375e-004
4.610142e-004,-1.412206e-004
3.634508e-004,-1.188556e-004
2.760976e-004,-9.697683e-005
2.107852e-004,-8.433573e-005
1.654069e-004,-8.433573e-005
1.357490e-004,-9.146661e-005
1.206769e-004,-9.989401e-005
1.245665e-004,-1.070249e-004
1.556830e-004,-1.091317e-004
2.172679e-004,-1.050801e-004
3.017039e-004,-9.746302e-005
3.929467e-004,-8.757704e-005
4.788414e-004,-7.817725e-005
5.574431e-004,-7.072225e-005
6.337758e-004,-6.504996e-005
7.104329e-004,-5.597430e-005
7.752590e-004,-4.203669e-005
8.099410e-004,-2.664048e-005
7.972999e-004,-8.975362e-006
7.321496e-004,9.986281e-006
6.366931e-004,2.927205e-005
5.428572e-004,4.888196e-005
4.699278e-004,6.589881e-005
4.119083e-004,7.724339e-005
3.499994e-004,8.178122e-005
2.589186e-004,8.323981e-005
1.245665e-004,8.939829e-005
-4.722278e-005,1.064152e-004
-2.285739e-004,1.320215e-004
-3.810773e-004,1.598967e-004
-4.815578e-004,1.837203e-004
-5.374703e-004,2.015475e-004
-5.724764e-004,2.156472e-004
-6.084549e-004,2.313675e-004
-6.536711e-004,2.491947e-004
-7.011562e-004,2.649151e-004
-7.353520e-004,2.756114e-004
-7.369727e-004,2.801492e-004
-6.919185e-004,2.752873e-004
-5.974344e-004,2.574601e-004
-4.687546e-004,2.303951e-004
-3.342404e-004,2.018716e-004
-2.104225e-004,1.801549e-004
-9.940781e-005,1.692965e-004
2.207145e-006,1.673517e-004
9.247754e-005,1.696206e-004
1.658931e-004,1.726999e-004
2.151610e-004,1.688103e-004
2.397949e-004,1.516314e-004
2.506533e-004,1.232699e-004
2.595669e-004,9.247754e-005
2.613496e-004,6.832980e-005
2.425500e-004,5.455425e-005
1.945787e-004,5.066468e-005
1.294284e-004,5.341979e-005
6.071273e-005,5.779555e-005
-1.034161e-006,5.876794e-005
-5.597430e-005,5.212327e-005
-1.123730e-004,3.737532e-005
-1.781716e-004,1.663096e-005
-2.588801e-004,-7.030578e-006
-3.431540e-004,-3.409549e-005
-3.788084e-004,-5.791909e-005
-2.972895e-004,-7.493595e-005
-5.743289e-005,-8.401160e-005
3.141829e-004,-8.741498e-005
7.418735e-004,-8.790117e-005
1.142662e-003,-8.968389e-005
1.452369e-003,-9.551824e-005
1.642148e-003,-1.097800e-004
1.715402e-003,-1.313347e-004
1.699843e-003,-1.553203e-004
1.627238e-003,-1.759026e-004
1.517681e-003,-1.843300e-004
1.373443e-003,-1.767130e-004
1.186905e-003,-1.561307e-004
9.418624e-004,-1.303623e-004
6.217830e-004,-1.092938e-004
2.130541e-004,-1.031353e-004
-2.833519e-004,-1.128592e-004
-8.437737e-004,-1.287416e-004
-1.423968e-003,-1.400862e-004
-1.979852e-003,-1.417068e-004
-2.486306e-003,-1.289037e-004
-2.904922e-003,-1.065387e-004
-3.170710e-003,-7.947377e-005
-3.222895e-003,-4.544006e-005
-3.041543e-003,3.017472e-006
-2.656475e-003,7.400208e-005
-2.125062e-003,1.675138e-004
-1.510024e-003,2.743149e-004
-8.748902e-004,3.820883e-004
-2.922655e-004,4.765725e-004
1.722137e-004,5.423710e-004
4.838654e-004,5.561466e-004
6.485239e-004,4.901859e-004
6.977918e-004,3.383307e-004
6.799645e-004,1.269974e-004
6.373413e-004,-1.013526e-004
5.966629e-004,-3.015032e-004
5.764047e-004,-4.569239e-004
5.825632e-004,-5.768522e-004
6.073592e-004,-6.727948e-004
6.339379e-004,-7.449139e-004
6.464170e-004,-7.870508e-004
6.373413e-004,-7.925610e-004
6.104385e-004,-7.565826e-004
5.726772e-004,-6.753879e-004
5.285954e-004,-5.541630e-004
4.838654e-004,-4.044147e-004
4.451317e-004,-2.366771e-004
4.140152e-004,-6.164659e-005
3.840331e-004,1.085220e-004
3.529166e-004,2.676702e-004
3.167760e-004,4.146635e-004
2.757735e-004,5.501501e-004
2.347709e-004,6.734819e-004
2.054371e-004,7.760693e-004
1.961994e-004,8.464058e-004
2.096508e-004,8.804395e-004
2.307193e-004,8.833567e-004
2.487085e-004,8.640709e-004
2.553532e-004,8.298751e-004
2.459534e-004,7.844968e-004
2.255332e-004,7.345806e-004
2.047888e-004,6.836920e-004
1.908512e-004,6.240520e-004
1.863134e-004,5.446399e-004
1.919856e-004,4.418904e-004
2.026820e-004,3.209897e-004
2.122438e-004,1.916615e-004
2.137024e-004,6.687121e-005
2.125679e-004,-3.992984e-005
2.179161e-004,-1.230693e-004
2.292607e-004,-1.851404e-004
2.388225e-004,-2.331117e-004
2.378501e-004,-2.684419e-004
2.218057e-004,-2.908069e-004
1.910133e-004,-3.003688e-004
1.532520e-004,-2.992343e-004
1.122495e-004,-2.870794e-004
7.124698e-005,-2.512630e-004
3.591673e-005,-1.710407e-004
8.527692e-006,-3.879538e-005
-9.299493e-006,1.295905e-004
-1.837515e-005,3.075383e-004
-2.015787e-005,4.692795e-004
-1.562004e-005,5.977973e-004
-6.544382e-006,6.827196e-004
-6.176923e-008,7.175637e-004
-2.978945e-006,6.981159e-004
-1.643037e-005,6.248623e-004
-3.863332e-005,5.008822e-004
-6.877746e-005,3.313618e-004
-1.045939e-004,1.255389e-004
-1.451102e-004,-1.099421e-004
-1.840059e-004,-3.668155e-004
-2.102605e-004,-6.332509e-004
-2.102605e-004,-8.857486e-004
-1.789819e-004,-1.101295e-003
-1.232314e-004,-1.263847e-003
-5.953974e-005,-1.365786e-003
7.485573e-007,-1.409544e-003
4.531652e-005,-1.397227e-003
6.751948e-005,-1.340018e-003
7.270556e-005,-1.251368e-003
7.270556e-005,-1.141164e-003
7.432621e-005,-1.014753e-003
8.016057e-005,-8.745661e-004
9.020862e-005,-7.235213e-004
9.993253e-005,-5.679386e-004
1.046324e-004,-4.228902e-004
1.049566e-004,-2.980999e-004
1.030118e-004,-1.948643e-004
9.766362e-005,-1.050801e-004
8.599492e-005,-1.659243e-005
6.087479e-005,8.793970e-005
1.906194e-005,2.206712e-004
-3.863332e-005,3.741471e-004
-1.049180e-004,5.302161e-004
-1.684476e-004,6.639201e-004
-2.220912e-004,7.564594e-004
-2.687660e-004,8.073480e-004
-3.052308e-004,8.253373e-004
-3.292164e-004,8.246890e-004
-3.324577e-004,8.216097e-004
-3.157650e-004,8.267959e-004
-2.867553e-004,8.410576e-004
-2.506147e-004,8.455954e-004
-2.036158e-004,8.143168e-004
-1.361966e-004,7.272876e-004
-4.738484e-005,5.849942e-004
5.633696e-005,4.063981e-004
1.600588e-004,2.226160e-004
2.396328e-004,6.119892e-005
2.731804e-004,-5.483985e-005
2.595669e-004,-1.126972e-004
2.265056e-004,-1.165867e-004
2.145127e-004,-8.109443e-005
2.477361e-004,-9.947754e-006
3.200173e-004,1.013911e-004
4.093153e-004,2.462775e-004
4.914824e-004,3.965121e-004
5.375090e-004,5.088235e-004
5.185474e-004,5.535535e-004
4.266563e-004,5.258403e-004
2.735045e-004,4.438352e-004
7.221937e-005,3.368721e-004
-1.669890e-004,2.307193e-004
-4.353692e-004,1.362352e-004
-7.335693e-004,5.196120e-005
-1.053810e-003,-2.647842e-005
-1.361734e-003,-1.007043e-004
-1.597215e-003,-1.694200e-004
-1.695103e-003,-2.271153e-004
-1.613098e-003,-2.694143e-004
-1.353145e-003,-2.938862e-004
-9.742362e-004,-2.917793e-004
-5.677765e-004,-2.472114e-004
-2.186879e-004,-1.538618e-004
2.489629e-005,-3.312309e-005
1.592484e-004,7.384002e-005
2.140265e-004,1.292664e-004
2.287745e-004,1.175977e-004
2.315296e-004,4.596478e-005
2.339606e-004,-6.164659e-005
2.367157e-004,-1.771992e-004
2.342847e-004,-2.859450e-004
2.299089e-004,-3.822118e-004
2.284504e-004,-4.674581e-004
2.333123e-004,-5.408737e-004
2.393087e-004,-5.980827e-004
2.448189e-004,-6.274165e-004
2.503292e-004,-6.154237e-004
2.610255e-004,-5.572423e-004
2.725321e-004,-4.609755e-004
2.752873e-004,-3.421817e-004
2.654013e-004,-2.172293e-004
2.482223e-004,-9.551824e-005
2.384984e-004,1.468618e-005
2.483844e-004,1.080358e-004
2.790148e-004,1.780480e-004
3.162898e-004,2.214815e-004
3.449753e-004,2.391467e-004
3.658818e-004,2.350950e-004
3.866261e-004,2.156472e-004
4.114222e-004,1.916615e-004
4.344354e-004,1.730240e-004
4.490213e-004,1.623277e-004
4.559901e-004,1.594105e-004
4.655520e-004,1.603829e-004
4.796517e-004,1.637863e-004
4.900239e-004,1.696206e-004
4.861343e-004,1.762653e-004
4.637693e-004,1.829100e-004
4.289252e-004,1.895547e-004
3.918123e-004,1.960373e-004
3.593992e-004,2.010613e-004
3.247172e-004,2.034923e-004
2.744769e-004,2.051129e-004
1.999268e-004,2.091646e-004
9.555677e-005,2.190506e-004
-3.539201e-005,2.325020e-004
-1.791439e-004,2.459534e-004
-3.121996e-004,2.551911e-004
-4.104111e-004,2.550291e-004
-4.564377e-004,2.517878e-004
-4.470379e-004,2.487085e-004
-3.872358e-004,2.508154e-004
-2.844864e-004,2.574601e-004
-1.517549e-004,2.615117e-004
-1.286493e-005,2.582704e-004
1.038221e-004,2.487085e-004
1.817755e-004,2.342847e-004
2.154851e-004,2.162954e-004
2.166196e-004,1.953890e-004
2.018716e-004,1.777239e-004
1.858272e-004,1.663793e-004
1.799928e-004,1.582761e-004
1.897167e-004,1.485521e-004
2.137024e-004,1.347766e-004
2.431983e-004,1.166253e-004
2.696149e-004,9.733949e-005
2.887387e-004,8.356394e-005
2.905214e-004,7.643307e-005
2.668598e-004,7.384002e-005
2.175920e-004,7.546067e-005
1.571416e-004,7.546067e-005
1.015532e-004,6.995045e-005
6.087479e-005,5.779555e-005
3.850978e-005,3.867184e-005
3.526847e-005,1.501031e-005
4.369587e-005,-7.030578e-006
5.536457e-005,-2.631635e-005
6.119892e-005,-4.317115e-005
4.985435e-005,-6.213279e-005
1.241726e-005,-8.255302e-005
-4.284701e-005,-1.031353e-004
-1.018388e-004,-1.224211e-004
-1.545100e-004,-1.407345e-004
-1.909747e-004,-1.587237e-004
-2.055606e-004,-1.767130e-004
-1.984297e-004,-1.895161e-004
-1.689338e-004,-1.947022e-004
-1.086455e-004,-1.935677e-004
-1.237873e-005,-1.901644e-004
1.135460e-004,-1.867610e-004
2.482223e-004,-1.869231e-004
3.658818e-004,-1.901644e-004
4.399457e-004,-1.934057e-004
4.579349e-004,-1.961608e-004
4.172565e-004,-2.006986e-004
3.274723e-004,-2.079916e-004
2.138645e-004,-2.151224e-004
9.344993e-005,-2.175534e-004
-2.712668e-005,-2.139880e-004
-1.339277e-004,-2.099363e-004
-2.084778e-004,-2.068571e-004
-2.481838e-004,-2.024813e-004
-2.632558e-004,-1.984297e-004
-2.754107e-004,-1.963229e-004
-3.109030e-004,-1.971332e-004
-3.979321e-004,-1.974573e-004
-5.499493e-004,-1.937298e-004
-7.496137e-004,-1.878955e-004
-9.624055e-004,-1.799543e-004
-1.135653e-003,-1.712027e-004
-1.199669e-003,-1.621271e-004
-1.106644e-003,-1.525652e-004
-8.646801e-004,-1.428413e-004
-5.358497e-004,-1.349001e-004
-1.989159e-004,-1.279313e-004
8.518459e-005,-1.191798e-004
2.911697e-004,-1.054042e-004
4.268184e-004,-8.547019e-005
5.193577e-004,-6.083626e-005
5.832114e-004,-3.263690e-005
6.169211e-004,-1.196227e-006
6.112488e-004,3.040651e-005
5.636016e-004,5.568870e-005
4.809482e-004,6.832980e-005
3.738230e-004,7.205730e-005
2.495189e-004,7.319176e-005
1.073875e-004,7.708133e-005
-4.106429e-005,8.323981e-005
-1.733096e-004,9.101894e-005
-2.606628e-004,9.960841e-005
-2.874036e-004,1.104668e-004
-2.647144e-004,1.257009e-004
-2.185258e-004,1.441764e-004
-1.702304e-004,1.668655e-004
-1.415448e-004,1.919856e-004
-1.501342e-004,2.138645e-004
-2.016710e-004,2.325020e-004
-2.836761e-004,2.506533e-004
-3.742705e-004,2.694529e-004
-4.535205e-004,2.889007e-004
-5.110537e-004,3.060797e-004
-5.369841e-004,3.180725e-004
-5.279084e-004,3.235827e-004
-4.872300e-004,3.235827e-004
-4.300210e-004,3.224483e-004
-3.758912e-004,3.256896e-004
-3.303509e-004,3.367100e-004
-2.840002e-004,3.540510e-004
-2.267911e-004,3.696093e-004
-1.593720e-004,3.712299e-004
-8.935975e-005,3.532407e-004
-2.485776e-005,3.294171e-004
2.489629e-005,3.198552e-004
5.828175e-005,3.402755e-004
8.178122e-005,3.893813e-004
1.081979e-004,4.480489e-004
1.482280e-004,4.997478e-004
2.034923e-004,5.354022e-004
2.628082e-004,5.532294e-004
3.169380e-004,5.545259e-004
3.611819e-004,5.366987e-004
3.921364e-004,4.978030e-004
4.127187e-004,4.295735e-004
4.214702e-004,3.294171e-004
4.162841e-004,1.965235e-004
4.031568e-004,4.207521e-005
3.982949e-004,-1.246900e-004
4.192013e-004,-2.924276e-004
4.681450e-004,-4.476861e-004
5.350781e-004,-5.629146e-004
6.026593e-004,-6.110480e-004
6.485239e-004,-5.883588e-004
6.614891e-004,-5.185087e-004
6.400964e-004,-4.408794e-004
5.900182e-004,-3.854531e-004
5.240576e-004,-3.653570e-004
4.553419e-004,-3.741085e-004
3.984569e-004,-3.940425e-004
3.589129e-004,-4.149489e-004
3.339549e-004,-4.425001e-004
3.156415e-004,-4.859335e-004
2.944109e-004,-5.455735e-004
2.628082e-004,-6.146134e-004
2.232643e-004,-6.899738e-004
1.791825e-004,-7.724650e-004
1.258630e-004,-8.625733e-004
4.385793e-005,-9.585159e-004
-7.785312e-005,-1.048300e-003
-2.374874e-004,-1.116205e-003
-4.138145e-004,-1.145215e-003
-5.817142e-004,-1.123498e-003
-7.238454e-004,-1.044897e-003
-8.191398e-004,-9.173513e-004
-8.489598e-004,-7.617687e-004
-8.011505e-004,-5.992171e-004
-6.808981e-004,-4.449310e-004
-5.100812e-004,-3.000446e-004
-3.198166e-004,-1.540238e-004
-1.434896e-004,-8.720959e-007
-4.599598e-006,1.551968e-004
8.956036e-005,3.023522e-004
1.394765e-004,4.273046e-004
1.503349e-004,5.268127e-004
1.284560e-004,6.034696e-004
8.761557e-005,6.613270e-004
4.418206e-005,6.971435e-004
8.041497e-006,7.102708e-004
-1.610624e-005,7.089743e-004
-2.129233e-005,6.984400e-004
-2.816880e-006,6.840162e-004
3.834771e-005,6.708889e-004
9.928428e-005,6.605167e-004
1.751309e-004,6.541961e-004
2.560015e-004,6.478756e-004
3.290929e-004,6.383138e-004
3.910019e-004,6.276174e-004
4.486972e-004,6.178935e-004
5.034753e-004,6.107626e-004
5.561466e-004,6.052523e-004
6.054144e-004,5.971491e-004
6.501445e-004,5.814288e-004
6.895264e-004,5.585775e-004
7.224257e-004,5.328091e-004
7.420356e-004,5.110924e-004
7.528940e-004,4.956961e-004
7.530560e-004,4.835413e-004
7.271256e-004,4.704139e-004
6.503066e-004,4.504799e-004
4.940755e-004,4.217943e-004
2.386605e-004,3.843572e-004
-1.115627e-004,3.461098e-004
-5.141329e-004,3.127243e-004
-9.121653e-004,2.867939e-004
