-1.156143e-004,-6.172064e-004
-1.024871e-004,-3.598467e-004
-1.013526e-004,-2.437157e-005
-1.034594e-004,3.365480e-004
-1.054042e-004,6.519272e-004
-1.055663e-004,8.775223e-004
-1.007043e-004,9.930751e-004
-8.984595e-005,1.004582e-003
-7.396356e-005,9.308419e-004
-5.694670e-005,8.041067e-004
-4.090223e-005,6.498204e-004
-2.696461e-005,4.746277e-004
-2.372331e-005,2.738286e-004
-3.587821e-005,4.223728e-005
-6.310517e-005,-2.139880e-004
-9.762509e-005,-4.818819e-004
-1.318209e-004,-7.275729e-004
-1.601823e-004,-8.969311e-004
-1.784957e-004,-9.567332e-004
-1.806025e-004,-9.111929e-004
-1.690959e-004,-7.954782e-004
-1.511067e-004,-6.518884e-004
-1.302002e-004,-5.134846e-004
-1.065387e-004,-4.024699e-004
-7.444975e-005,-3.271096e-004
-3.344723e-005,-2.859450e-004
1.047248e-005,-2.711970e-004
4.677511e-005,-2.694143e-004
7.124698e-005,-2.655248e-004
8.664318e-005,-2.593663e-004
9.847395e-005,-2.614731e-004
1.096565e-004,-2.830278e-004
1.179218e-004,-3.251648e-004
1.192183e-004,-3.851289e-004
1.201907e-004,-4.538446e-004
1.252147e-004,-5.186707e-004
1.347766e-004,-5.637249e-004
1.470936e-004,-5.757177e-004
1.564933e-004,-5.494631e-004
1.548727e-004,-4.856094e-004
1.359110e-004,-3.914495e-004
1.056048e-004,-2.804347e-004
7.092284e-005,-1.695821e-004
3.510641e-005,-7.817725e-005
-2.492749e-006,-9.299493e-006
-3.992984e-005,3.980630e-005
-6.602235e-005,7.837785e-005
-4.608832e-005,1.083599e-004
4.871989e-005,1.231079e-004
2.180782e-004,1.192183e-004
4.229288e-004,1.051186e-004
6.054144e-004,9.798775e-005
7.211292e-004,1.112771e-004
7.569456e-004,1.412592e-004
7.222636e-004,1.731861e-004
6.405826e-004,1.953890e-004
5.255162e-004,2.020337e-004
3.840331e-004,1.968476e-004
2.242366e-004,1.874478e-004
5.017848e-005,1.848548e-004
-1.329553e-004,1.950649e-004
-3.040963e-004,2.188885e-004
-4.269418e-004,2.611876e-004
-4.843129e-004,3.200173e-004
-4.967919e-004,3.871123e-004
-5.117019e-004,4.538833e-004
-5.775004e-004,5.141716e-004
-7.081250e-004,5.668429e-004
-8.722972e-004,6.144901e-004
-1.022694e-003,6.584098e-004
-1.120743e-003,6.990883e-004
-1.130629e-003,7.289083e-004
-1.022046e-003,7.409012e-004
-7.914266e-004,7.355530e-004
-4.698891e-004,7.230740e-004
-1.178833e-004,7.097846e-004
1.976579e-004,6.963331e-004
4.290873e-004,6.733199e-004
5.665187e-004,6.268070e-004
6.237278e-004,5.543638e-004
6.256726e-004,4.590694e-004
5.989318e-004,3.504856e-004
5.623050e-004,2.480603e-004
5.313505e-004,1.649207e-004
5.144958e-004,9.993253e-005
5.138475e-004,4.580272e-005
5.191956e-004,-1.124428e-005
5.146578e-004,-7.720486e-005
4.935893e-004,-1.460826e-004
4.615004e-004,-2.063709e-004
4.297355e-004,-2.494803e-004
4.072085e-004,-2.700626e-004
3.942432e-004,-2.684419e-004
3.885709e-004,-2.481838e-004
3.833848e-004,-2.178775e-004
3.747954e-004,-1.896782e-004
3.610198e-004,-1.674752e-004
3.431926e-004,-1.475412e-004
3.252034e-004,-1.242038e-004
3.101313e-004,-1.023250e-004
2.936006e-004,-9.438378e-005
2.709115e-004,-1.190177e-004
2.404432e-004,-1.809267e-004
2.046267e-004,-2.679557e-004
1.663793e-004,-3.587123e-004
1.289422e-004,-4.290486e-004
9.134307e-005,-4.630823e-004
5.439218e-005,-4.531963e-004
1.614476e-005,-3.980942e-004
-1.837515e-005,-3.026377e-004
-3.830919e-005,-1.747682e-004
-3.150244e-005,-2.988179e-005
2.369211e-006,1.182459e-004
5.196120e-005,2.564877e-004
1.005808e-004,3.734989e-004
1.320215e-004,4.577728e-004
1.357490e-004,5.070407e-004
1.128978e-004,5.276231e-004
7.432621e-005,5.258403e-004
2.943412e-005,5.083373e-004
-1.318906e-005,4.788414e-004
-4.673658e-005,4.399457e-004
-7.104638e-005,3.966742e-004
-8.676672e-005,3.566440e-004
-1.023250e-004,3.248792e-004
-1.240417e-004,3.023522e-004
-1.511067e-004,2.840388e-004
-1.814128e-004,2.663737e-004
-2.088019e-004,2.470879e-004
-2.301945e-004,2.196988e-004
-2.397564e-004,1.822617e-004
-2.350565e-004,1.385041e-004
-2.201465e-004,9.458438e-005
-2.024813e-004,5.341979e-005
-1.827094e-004,1.144487e-005
-1.571031e-004,-3.490581e-005
-1.266348e-004,-8.644259e-005
-9.535618e-005,-1.423551e-004
-6.391550e-005,-1.990780e-004
-3.360929e-005,-2.572594e-004
-1.682422e-006,-3.162512e-004
3.121684e-005,-3.729740e-004
6.298164e-005,-4.170558e-004
8.777764e-005,-4.381243e-004
9.717743e-005,-4.292107e-004
8.664318e-005,-3.937184e-004
6.606088e-005,-3.403989e-004
4.661304e-005,-2.776796e-004
3.672706e-005,-2.141500e-004
3.932010e-005,-1.582375e-004
5.552663e-005,-1.115627e-004
8.550872e-005,-7.331530e-005
1.304008e-004,-4.446767e-005
1.858272e-004,-2.890940e-005
2.420638e-004,-2.583016e-005
2.853353e-004,-3.020592e-005
3.002453e-004,-3.539201e-005
2.816078e-004,-3.863332e-005
2.381743e-004,-4.138842e-005
1.814514e-004,-4.446767e-005
1.239182e-004,-4.625038e-005
7.513654e-005,-5.046408e-005
4.175109e-005,-6.699475e-005
1.922400e-005,-9.973194e-005
-7.100305e-007,-1.391138e-004
-2.696461e-005,-1.721751e-004
-6.456377e-005,-1.932436e-004
-1.185315e-004,-2.045882e-004
-1.945401e-004,-2.099363e-004
-3.008550e-004,-2.107467e-004
-4.326141e-004,-2.097743e-004
-5.700454e-004,-2.065330e-004
-6.870566e-004,-2.013469e-004
-7.779752e-004,-1.947022e-004
-8.518770e-004,-1.818991e-004
-9.168651e-004,-1.613168e-004
-9.588401e-004,-1.323071e-004
-9.594883e-004,-9.681477e-005
-9.035757e-004,-5.970181e-005
-7.935334e-004,-2.518189e-005
-6.454058e-004,9.500085e-006
-4.817198e-004,4.839576e-005
-3.198166e-004,8.956036e-005
-1.669890e-004,1.320215e-004
-3.393342e-005,1.756171e-004
7.157111e-005,2.347709e-004
1.427178e-004,3.232586e-004
1.736723e-004,4.383250e-004
1.667035e-004,5.710566e-004
1.381800e-004,7.321496e-004
1.070634e-004,9.467243e-004
9.328786e-005,1.206353e-003
1.112771e-004,1.471817e-003
1.730240e-004,1.689795e-003
2.913317e-004,1.813289e-003
4.733311e-004,1.806321e-003
7.005468e-004,1.654789e-003
9.269523e-004,1.376846e-003
1.108790e-003,1.012037e-003
1.213808e-003,5.992560e-004
1.235039e-003,1.626518e-004
1.183826e-003,-2.854588e-004
1.087883e-003,-7.369727e-004
9.737893e-004,-1.183300e-003
8.554814e-004,-1.609532e-003
7.391184e-004,-1.994924e-003
6.334517e-004,-2.316138e-003
5.423710e-004,-2.557129e-003
4.647417e-004,-2.707850e-003
3.924605e-004,-2.760197e-003
3.206656e-004,-2.705581e-003
2.522740e-004,-2.542543e-003
1.911753e-004,-2.283238e-003
1.339663e-004,-1.946304e-003
7.205730e-005,-1.563506e-003
9.106227e-007,-1.170011e-003
-7.931171e-005,-7.990437e-004
-1.618029e-004,-4.721580e-004
-2.420253e-004,-1.974573e-004
-3.167374e-004,2.635488e-005
-3.718396e-004,2.093267e-004
-3.830221e-004,3.592371e-004
-3.298647e-004,4.815964e-004
-2.062088e-004,5.772150e-004
-2.307504e-005,6.512789e-004
1.822617e-004,7.115673e-004
3.603715e-004,7.645627e-004
4.697657e-004,8.122100e-004
4.982892e-004,8.549952e-004
4.657141e-004,8.896773e-004
4.047775e-004,9.133389e-004
3.367100e-004,9.263040e-004
2.632944e-004,9.306798e-004
1.743205e-004,9.261420e-004
5.163707e-005,9.138250e-004
-1.185315e-004,8.961599e-004
-3.462333e-004,8.747673e-004
-6.249856e-004,8.515919e-004
-9.314510e-004,8.284165e-004
-1.237754e-003,8.088066e-004
-1.507917e-003,7.982723e-004
-1.692834e-003,8.003792e-004
-1.761550e-003,8.109135e-004
-1.726219e-003,8.229063e-004
-1.629952e-003,8.261476e-004
-1.517317e-003,8.141547e-004
-1.416188e-003,7.765555e-004
-1.325594e-003,7.070294e-004
-1.212310e-003,6.172452e-004
-1.040683e-003,5.321609e-004
-8.011505e-004,4.743035e-004
-5.181845e-004,4.512903e-004
-2.417012e-004,4.582590e-004
-2.664048e-005,4.840274e-004
9.571884e-005,5.174129e-004
1.342904e-004,5.503122e-004
1.218114e-004,5.710566e-004
9.944634e-005,5.608465e-004
9.766362e-005,5.055821e-004
1.210010e-004,4.086671e-004
1.670276e-004,2.900352e-004
2.384984e-004,1.764274e-004
3.316860e-004,8.356394e-005
4.331389e-004,1.825161e-005
5.204921e-004,-2.745081e-005
5.843459e-004,-6.326724e-005
6.305345e-004,-9.324933e-005
6.833679e-004,-1.193418e-004
7.715315e-004,-1.384655e-004
8.947013e-004,-1.501342e-004
1.015602e-003,-1.582375e-004
1.093069e-003,-1.634236e-004
1.102145e-003,-1.624512e-004
1.045584e-003,-1.579134e-004
9.431589e-004,-1.574272e-004
8.156133e-004,-1.652063e-004
6.770474e-004,-1.806025e-004
5.324850e-004,-2.044261e-004
3.723644e-004,-2.378116e-004
1.770756e-004,-2.825416e-004
-5.678463e-005,-3.397507e-004
-3.212752e-004,-4.018217e-004
-6.016482e-004,-4.580583e-004
-8.663007e-004,-4.967919e-004
-1.062562e-003,-5.112157e-004
-1.134195e-003,-5.032745e-004
-1.050731e-003,-4.783165e-004
-8.311326e-004,-4.441207e-004
-5.343911e-004,-4.066836e-004
-2.335979e-004,-3.682741e-004
1.517237e-005,-3.297026e-004
1.819376e-004,-2.899966e-004
2.681563e-004,-2.489941e-004
3.072141e-004,-2.112329e-004
3.375204e-004,-1.806025e-004
3.939191e-004,-1.577513e-004
4.971547e-004,-1.405724e-004
6.457687e-004,-1.235555e-004
8.212856e-004,-1.034594e-004
9.911302e-004,-7.882551e-005
1.126779e-003,-5.581224e-005
1.210081e-003,-2.923353e-005
1.237794e-003,2.765140e-005
1.217536e-003,1.355869e-004
1.156113e-003,2.842008e-004
1.048826e-003,4.428628e-004
8.755776e-004,5.846701e-004
6.007145e-004,6.947125e-004
2.021958e-004,7.658592e-004
-3.068514e-004,7.972999e-004
-8.653284e-004,7.877381e-004
-1.365948e-003,7.349047e-004
-1.679058e-003,6.386379e-004
-1.717792e-003,5.033132e-004
-1.480852e-003,3.397893e-004
-1.054783e-003,1.560072e-004
-5.651835e-004,-4.219875e-005
-1.290658e-004,-2.480217e-004
1.770756e-004,-4.540067e-004
3.287688e-004,-6.531850e-004
3.504856e-004,-8.358325e-004
2.971661e-004,-9.907669e-004
2.287745e-004,-1.106157e-003
1.858272e-004,-1.172766e-003
1.845306e-004,-1.190756e-003
2.122438e-004,-1.165149e-003
2.480603e-004,-1.105671e-003
2.809595e-004,-1.022532e-003
3.085106e-004,-9.233478e-004
3.394651e-004,-8.233535e-004
3.832228e-004,-7.363244e-004
4.381629e-004,-6.690673e-004
4.982892e-004,-6.167202e-004
5.579292e-004,-5.708557e-004
6.175694e-004,-5.219121e-004
6.738061e-004,-4.653512e-004
7.199947e-004,-3.997148e-004
7.438183e-004,-3.305129e-004
7.313393e-004,-2.595283e-004
6.791542e-004,-1.925954e-004
5.961767e-004,-1.352242e-004
4.986133e-004,-8.903562e-005
4.060740e-004,-5.500191e-005
3.349273e-004,-3.555408e-005
2.874421e-004,-3.717473e-005
2.457913e-004,-6.472583e-005
1.855030e-004,-1.159385e-004
8.793970e-005,-1.891920e-004
-4.057810e-005,-2.822175e-004
-1.694200e-004,-3.929081e-004
-2.656868e-004,-5.048952e-004
-3.071755e-004,-5.941931e-004
-2.980999e-004,-6.374646e-004
-2.559629e-004,-6.217443e-004
-2.034537e-004,-5.454115e-004
-1.611547e-004,-4.131662e-004
-1.396000e-004,-2.344082e-004
-1.418689e-004,-2.177852e-005
-1.686097e-004,2.083542e-004
-2.193361e-004,4.412422e-004
-2.836761e-004,6.621373e-004
-3.434782e-004,8.603434e-004
-3.784843e-004,1.038778e-003
-3.835083e-004,1.205705e-003
-3.721637e-004,1.363719e-003
-3.660052e-004,1.510713e-003
-3.799429e-004,1.635179e-003
-4.091146e-004,1.722208e-003
-4.368278e-004,1.763859e-003
-4.497930e-004,1.780228e-003
-4.389346e-004,1.821393e-003
-4.050630e-004,1.928194e-003
-3.604950e-004,2.091556e-003
-3.243544e-004,2.265615e-003
-3.058790e-004,2.392675e-003
-3.068514e-004,2.423468e-003
-3.104168e-004,2.335952e-003
-2.945344e-004,2.140987e-003
-2.441321e-004,1.871957e-003
-1.671511e-004,1.560791e-003
-8.174268e-005,1.220939e-003
-9.947754e-006,8.535367e-004
3.251336e-005,4.546936e-004
4.580272e-005,2.667901e-005
3.235129e-005,-4.180282e-004
-1.844488e-006,-8.523631e-004
-4.770897e-005,-1.247316e-003
-9.730096e-005,-1.577443e-003
-1.431655e-004,-1.826214e-003
-1.854645e-004,-1.984552e-003
-2.216050e-004,-2.051161e-003
-2.480217e-004,-2.035602e-003
-2.553146e-004,-1.948249e-003
-2.408908e-004,-1.807900e-003
-2.138259e-004,-1.634814e-003
-1.891920e-004,-1.450222e-003
-1.778474e-004,-1.265144e-003
-1.836818e-004,-1.084279e-003
-1.992400e-004,-9.098963e-004
-2.126914e-004,-7.402140e-004
-2.146363e-004,-5.752315e-004
-1.924333e-004,-4.178661e-004
-1.287416e-004,-2.721694e-004
-1.318906e-005,-1.426792e-004
1.558451e-004,-3.555408e-005
3.566440e-004,4.645098e-005
5.561466e-004,1.028497e-004
7.159431e-004,1.435281e-004
8.191788e-004,1.770756e-004
8.687708e-004,2.077060e-004
8.778464e-004,2.341226e-004
8.527263e-004,2.519498e-004
8.013516e-004,2.590807e-004
7.261531e-004,2.538946e-004
6.248623e-004,2.393087e-004
4.837033e-004,2.205092e-004
2.903593e-004,2.000889e-004
4.920609e-005,1.752929e-004
-2.211189e-004,1.483901e-004
-5.003574e-004,1.255389e-004
-7.815406e-004,1.127357e-004
-1.065479e-003,1.107909e-004
-1.348769e-003,1.169494e-004
-1.612612e-003,1.252147e-004
-1.800283e-003,1.289422e-004
-1.832696e-003,1.305629e-004
-1.657504e-003,1.376938e-004
-1.290912e-003,1.540623e-004
-8.160605e-004,1.770756e-004
-3.342404e-004,1.992786e-004
7.562274e-005,2.107852e-004
3.913261e-004,2.115956e-004
6.512789e-004,2.078681e-004
9.107458e-004,2.051129e-004
1.200195e-003,2.044647e-004
1.509254e-003,2.023578e-004
1.794328e-003,1.994406e-004
2.005986e-003,1.940925e-004
2.127859e-003,1.848548e-004
2.184420e-003,1.707551e-004
2.200141e-003,1.548727e-004
2.166269e-003,1.457970e-004
2.043423e-003,1.419075e-004
1.796435e-003,1.347766e-004
1.421576e-003,1.216493e-004
9.371624e-004,1.043083e-004
3.853296e-004,8.761557e-005
-1.705545e-004,7.562274e-005
-6.627468e-004,6.573675e-005
-1.081037e-003,4.855783e-005
-1.462701e-003,2.278944e-005
-1.842582e-003,-9.137427e-006
-2.206906e-003,-3.263690e-005
-2.480634e-003,-2.728874e-005
-2.574956e-003,2.619281e-005
-2.458755e-003,1.258630e-004
-2.194751e-003,2.503292e-004
-1.914701e-003,3.699334e-004
-1.753122e-003,4.593935e-004
-1.779377e-003,5.012064e-004
-1.955218e-003,4.806241e-004
-2.156503e-003,3.932708e-004
-2.235915e-003,2.592428e-004
-2.089246e-003,1.046324e-004
-1.697048e-003,-4.673658e-005
-1.128360e-003,-1.833576e-004
-5.021401e-004,-3.091203e-004
6.411610e-005,-4.342347e-004
4.943996e-004,-5.676145e-004
7.710453e-004,-7.141214e-004
9.250075e-004,-8.638698e-004
1.004258e-003,-9.988702e-004
1.044936e-003,-1.106157e-003
1.062763e-003,-1.176008e-003
1.061953e-003,-1.199669e-003
1.046070e-003,-1.174063e-003
1.015440e-003,-1.106157e-003
9.703859e-004,-1.006973e-003
9.207938e-004,-8.881796e-004
8.783326e-004,-7.530171e-004
8.418679e-004,-6.009999e-004
8.005413e-004,-4.343968e-004
7.460872e-004,-2.580697e-004
6.794783e-004,-8.336335e-005
6.161107e-004,7.675720e-005
5.726772e-004,2.143507e-004
5.603603e-004,3.274723e-004
5.841838e-004,4.157979e-004
6.341000e-004,4.796517e-004
6.992503e-004,5.221128e-004
7.736384e-004,5.499881e-004
8.522401e-004,5.652222e-004
9.220903e-004,5.660325e-004
9.694134e-004,5.477191e-004
9.846477e-004,5.135234e-004
9.650377e-004,4.752759e-004
9.100975e-004,4.375147e-004
8.251752e-004,4.021844e-004
7.279359e-004,3.689610e-004
6.409068e-004,3.358997e-004
5.815908e-004,3.025142e-004
5.590637e-004,2.710735e-004
5.733255e-004,2.438466e-004
6.175694e-004,2.193747e-004
6.700786e-004,1.927960e-004
7.101087e-004,1.621656e-004
7.217774e-004,1.316974e-004
6.963331e-004,1.070634e-004
6.336138e-004,9.474644e-005
5.412365e-004,9.150514e-005
4.370285e-004,9.312580e-005
3.457857e-004,9.733949e-005
2.845250e-004,1.025256e-004
2.542187e-004,1.070634e-004
2.433604e-004,1.039842e-004
2.397949e-004,9.393612e-005
2.428742e-004,8.502253e-005
2.485465e-004,8.486046e-005
2.380122e-004,9.393612e-005
1.780480e-004,1.111150e-004
3.640293e-005,1.302388e-004
-1.924333e-004,1.454729e-004
-4.718339e-004,1.501728e-004
-7.355141e-004,1.428799e-004
-9.115170e-004,1.263492e-004
-9.309648e-004,1.047945e-004
-7.458862e-004,8.194328e-005
-3.776739e-004,6.265751e-005
7.675720e-005,5.228533e-005
4.922928e-004,5.098881e-005
7.797969e-004,5.568870e-005
9.139871e-004,6.314371e-005
9.267902e-004,7.546067e-005
8.695811e-004,9.490851e-005
7.767176e-004,1.182459e-004
6.627856e-004,1.438522e-004
5.334574e-004,1.722137e-004
3.804677e-004,2.018716e-004
1.725378e-004,2.325020e-004
-1.253383e-004,2.572980e-004
-5.287188e-004,2.699391e-004
-1.012646e-003,2.704253e-004
-1.530282e-003,2.658874e-004
-2.027985e-003,2.666978e-004
-2.443521e-003,2.809595e-004
-2.709309e-003,3.101313e-004
-2.762466e-003,3.472443e-004
-2.583708e-003,3.828986e-004
-2.215009e-003,4.060740e-004
-1.751340e-003,4.136911e-004
-1.305012e-003,4.016982e-004
-9.690502e-004,3.692851e-004
-7.844578e-004,3.240689e-004
-7.222248e-004,2.773941e-004
-7.078009e-004,2.367157e-004
-6.625847e-004,2.008992e-004
-5.447632e-004,1.675138e-004
-3.647087e-004,1.376938e-004
-1.613168e-004,1.127357e-004
1.841368e-005,8.988449e-005
1.394765e-004,6.168512e-005
1.934442e-004,2.359977e-005
1.989545e-004,-2.388537e-005
1.863134e-004,-7.995997e-005
1.829100e-004,-1.420310e-004
1.970097e-004,-2.083157e-004
2.206712e-004,-2.744383e-004
2.467637e-004,-3.322956e-004
2.782044e-004,-3.741085e-004
3.201794e-004,-3.969597e-004
3.752816e-004,-4.039285e-004
4.371906e-004,-4.023079e-004
4.918066e-004,-4.014975e-004
5.297299e-004,-4.034423e-004
5.616568e-004,-3.995528e-004
6.131936e-004,-3.831841e-004
7.099467e-004,-3.538503e-004
8.442989e-004,-3.186821e-004
9.861062e-004,-2.914552e-004
1.101983e-003,-2.818933e-004
1.168754e-003,-2.934000e-004
1.167782e-003,-3.190063e-004
1.095500e-003,-3.499608e-004
9.645515e-004,-3.781601e-004
7.974620e-004,-3.950149e-004
6.190279e-004,-3.964735e-004
4.509661e-004,-3.786463e-004
3.115899e-004,-3.454229e-004
2.185644e-004,-3.087962e-004
1.723757e-004,-2.817312e-004
1.566554e-004,-2.713591e-004
1.487142e-004,-2.750866e-004
1.124116e-004,-2.869174e-004
1.419998e-005,-2.987481e-004
-1.587237e-004,-3.031239e-004
-3.916115e-004,-2.989102e-004
-6.531850e-004,-2.912931e-004
-8.868831e-004,-2.771934e-004
-1.013618e-003,-2.533699e-004
-9.711570e-004,-2.206326e-004
-7.481552e-004,-1.807646e-004
-4.018217e-004,-1.342519e-004
-2.145439e-005,-8.433573e-005
3.286068e-004,-4.333321e-005
6.216210e-004,-1.934754e-005
8.519160e-004,-1.189254e-005
1.018357e-003,-1.286493e-005
1.111545e-003,-1.691656e-005
1.121107e-003,-1.967167e-005
1.039102e-003,-1.594417e-005
8.585607e-004,-2.492749e-006
5.814288e-004,2.084466e-005
2.226160e-004,5.730935e-005
-1.977815e-004,1.070634e-004
-6.629088e-004,1.663793e-004
-1.146998e-003,2.279642e-004
-1.603698e-003,2.853353e-004
-1.969479e-003,3.376824e-004
-2.190375e-003,4.000776e-004
-2.249853e-003,4.926169e-004
-2.168982e-003,6.149763e-004
-1.978879e-003,7.413874e-004
-1.715199e-003,8.468920e-004
-1.425750e-003,9.318143e-004
-1.154615e-003,1.029702e-003
-9.107067e-004,1.163730e-003
-6.653398e-004,1.325310e-003
-3.768636e-004,1.487375e-003
-1.967167e-005,1.616866e-003
3.932708e-004,1.680882e-003
8.078342e-004,1.656734e-003
1.152385e-003,1.534212e-003
1.378143e-003,1.313641e-003
1.471979e-003,1.008471e-003
1.447021e-003,6.438239e-004
1.333251e-003,2.433604e-004
1.170861e-003,-1.726613e-004
1.004744e-003,-5.896553e-004
8.622882e-004,-1.005353e-003
7.519216e-004,-1.422833e-003
6.665131e-004,-1.827348e-003
5.995801e-004,-2.188430e-003
5.514466e-004,-2.469128e-003
5.204921e-004,-2.642213e-003
4.987754e-004,-2.700557e-003
4.811103e-004,-2.647238e-003
4.574487e-004,-2.490196e-003
4.260080e-004,-2.241101e-003
3.952156e-004,-1.917781e-003
3.736609e-004,-1.550703e-003
3.657197e-004,-1.177790e-003
3.671783e-004,-8.329154e-004
3.655576e-004,-5.241810e-004
3.569682e-004,-2.457528e-004
3.501615e-004,7.393236e-006
3.543751e-004,2.417397e-004
3.606957e-004,4.634451e-004
3.561579e-004,6.759129e-004
3.393030e-004,8.759017e-004
3.208276e-004,1.055470e-003
3.106175e-004,1.203274e-003
3.094830e-004,1.313154e-003
3.133726e-004,1.380250e-003
3.258516e-004,1.398563e-003
3.532407e-004,1.367122e-003
3.921364e-004,1.291762e-003
4.331389e-004,1.171509e-003
4.632831e-004,1.009444e-003
4.676588e-004,8.243649e-004
4.326527e-004,6.426895e-004
3.504856e-004,4.879170e-004
2.096508e-004,3.673404e-004
6.744974e-006,2.756114e-004
-2.455907e-004,2.043026e-004
-5.165638e-004,1.488763e-004
-7.667927e-004,1.064152e-004
-9.591642e-004,7.529860e-005
-1.074555e-003,5.876794e-005
-1.121067e-003,6.541262e-005
-1.125443e-003,9.928428e-005
-1.102754e-003,1.597346e-004
-1.057700e-003,2.389846e-004
-9.990323e-004,3.264999e-004
-9.457127e-004,4.107739e-004
-9.144342e-004,4.885653e-004
-9.145963e-004,5.595500e-004
-9.372854e-004,6.234037e-004
-9.504127e-004,6.828817e-004
-9.160548e-004,7.452769e-004
-8.202742e-004,8.177201e-004
-6.727948e-004,9.039390e-004
-4.987367e-004,1.004582e-003
-3.326198e-004,1.116083e-003
-2.013469e-004,1.221101e-003
-1.122110e-004,1.294193e-003
-5.257093e-005,1.309265e-003
-2.006553e-006,1.253190e-003
5.212327e-005,1.135207e-003
1.106288e-004,9.770306e-004
1.759412e-004,7.981102e-004
2.419018e-004,6.130316e-004
2.929524e-004,4.239012e-004
3.151553e-004,2.245608e-004
3.039728e-004,1.014835e-005
2.655633e-004,-2.191741e-004
2.200230e-004,-4.564377e-004
1.874478e-004,-6.820326e-004
1.798307e-004,-8.711627e-004
1.996027e-004,-1.010539e-003
2.430362e-004,-1.108913e-003
2.960316e-004,-1.182490e-003
3.415720e-004,-1.243913e-003
3.666921e-004,-1.291722e-003
3.686369e-004,-1.314249e-003
3.561579e-004,-1.302581e-003
3.401134e-004,-1.249747e-003
3.256896e-004,-1.158018e-003
3.117519e-004,-1.040521e-003
3.025142e-004,-9.118411e-004
3.010556e-004,-7.802441e-004
3.151553e-004,-6.496195e-004
3.461098e-004,-5.188328e-004
3.871123e-004,-3.940425e-004
4.214702e-004,-2.836761e-004
4.371906e-004,-1.935677e-004
4.324906e-004,-1.183694e-004
4.062361e-004,-2.161646e-005
3.561579e-004,1.341283e-004
2.864697e-004,3.585888e-004
2.065715e-004,6.295622e-004
1.268354e-004,9.060458e-004
5.860588e-005,1.136503e-003
9.986281e-006,1.274421e-003
-1.254080e-005,1.293545e-003
-1.358292e-006,1.193712e-003
4.256141e-005,9.974508e-004
1.094944e-004,7.337703e-004
1.850168e-004,4.292493e-004
2.547049e-004,1.031738e-004
3.320101e-004,-2.310048e-004
4.550177e-004,-5.682627e-004
6.412309e-004,-9.004966e-004
8.661778e-004,-1.216524e-003
1.074594e-003,-1.497221e-003
1.216887e-003,-1.717792e-003
1.279607e-003,-1.858303e-003
1.281390e-003,-1.910002e-003
1.245735e-003,-1.879371e-003
1.183826e-003,-1.788939e-003
1.109114e-003,-1.666741e-003
1.024516e-003,-1.537413e-003
9.008598e-004,-1.410354e-003
6.998986e-004,-1.277460e-003
3.833848e-004,-1.123174e-003
-6.829127e-005,-9.447403e-004
-6.528608e-004,-7.530171e-004
-1.345204e-003,-5.668041e-004
-2.084222e-003,-3.995528e-004
-2.767166e-003,-2.579077e-004
-3.257739e-003,-1.336036e-004
-3.435039e-003,-1.837515e-005
-3.232781e-003,9.393612e-005
-2.666037e-003,2.039785e-004
-1.843879e-003,3.088348e-004
-9.393922e-004,4.086671e-004
-1.361966e-004,5.031512e-004
4.321665e-004,5.892079e-004
7.336082e-004,6.613270e-004
8.258235e-004,7.177258e-004
7.976240e-004,7.590525e-004
7.334462e-004,7.926000e-004
6.893643e-004,8.217718e-004
6.716992e-004,8.504574e-004
6.601926e-004,8.825464e-004
6.276174e-004,9.217662e-004
5.577672e-004,9.648756e-004
4.509661e-004,1.005554e-003
3.114278e-004,1.035374e-003
1.318594e-004,1.052229e-003
-1.123730e-004,1.057091e-003
-4.471999e-004,1.052553e-003
-8.633836e-004,1.042181e-003
-1.320894e-003,1.026785e-003
-1.735943e-003,1.002475e-003
-1.993141e-003,9.677928e-004
-1.993789e-003,9.233868e-004
-1.708392e-003,8.726604e-004
-1.195455e-003,8.167478e-004
-5.638869e-004,7.566215e-004
6.119892e-005,6.958470e-004
5.749461e-004,6.336138e-004
9.177146e-004,5.710566e-004
1.084804e-003,5.140096e-004
1.107331e-003,4.639314e-004
1.033753e-003,4.156358e-004
9.110699e-004,3.653956e-004
7.694247e-004,3.107795e-004
6.290760e-004,2.466017e-004
5.060683e-004,1.749688e-004
4.052637e-004,1.026876e-004
3.237448e-004,5.649903e-005
2.545429e-004,6.476436e-005
1.876099e-004,1.255389e-004
1.179218e-004,2.122438e-004
5.212327e-005,2.927903e-004
4.476060e-006,3.462718e-004
-8.651231e-006,3.652335e-004
2.992031e-005,3.540510e-004
1.396385e-004,3.185587e-004
3.316860e-004,2.637806e-004
5.943940e-004,1.895547e-004
8.861118e-004,9.118101e-005
1.156923e-003,-3.231277e-005
1.371822e-003,-1.724993e-004
1.513954e-003,-3.237062e-004
1.568732e-003,-4.796130e-004
1.524812e-003,-6.288751e-004
1.381870e-003,-7.611204e-004
1.170213e-003,-8.706765e-004
9.514242e-004,-9.478196e-004
7.900069e-004,-9.805568e-004
7.120535e-004,-9.646744e-004
6.916333e-004,-9.055205e-004
6.699165e-004,-8.217328e-004
5.759185e-004,-7.426449e-004
3.478926e-004,-6.914323e-004
-3.879538e-005,-6.805740e-004
-5.567560e-004,-6.993735e-004
-1.145377e-003,-7.228730e-004
-1.736267e-003,-7.256281e-004
-2.245315e-003,-6.962943e-004
-2.564746e-003,-6.410300e-004
-2.605749e-003,-5.781487e-004
-2.355033e-003,-5.236948e-004
-1.890068e-003,-4.870680e-004
-1.338073e-003,-4.658375e-004
-8.139537e-004,-4.484965e-004
-3.854531e-004,-4.264556e-004
-8.044617e-005,-3.935563e-004
1.107909e-004,-3.486642e-004
2.200230e-004,-2.964792e-004
2.762596e-004,-2.394322e-004
2.995970e-004,-1.812508e-004
2.936006e-004,-1.237176e-004
2.487085e-004,-6.699475e-005
1.665414e-004,-1.173047e-005
7.481241e-005,4.013043e-005
8.689758e-006,8.583286e-005
-8.327101e-006,1.258630e-004
2.635488e-005,1.608691e-004
9.490851e-005,1.950649e-004
1.741585e-004,2.308813e-004
2.441707e-004,2.649151e-004
2.945730e-004,2.916559e-004
3.234207e-004,3.101313e-004
3.407616e-004,3.226103e-004
3.647473e-004,3.347652e-004
4.101256e-004,3.491891e-004
4.749518e-004,3.683128e-004
5.436675e-004,3.895433e-004
5.973112e-004,4.119083e-004
6.178935e-004,4.331389e-004
6.005525e-004,4.545315e-004
5.519328e-004,4.781931e-004
4.895377e-004,5.070407e-004
4.292493e-004,5.379952e-004
3.780367e-004,5.676532e-004
3.350894e-004,5.926113e-004
2.961937e-004,6.039558e-004
2.644289e-004,5.971491e-004
2.511395e-004,5.686256e-004
2.649151e-004,5.238955e-004
3.015418e-004,4.720346e-004
3.410858e-004,4.213082e-004
3.611819e-004,3.780367e-004
3.452995e-004,3.475684e-004
2.932765e-004,3.250413e-004
2.231022e-004,3.042970e-004
1.508211e-004,2.814457e-004
8.534666e-005,2.530843e-004
3.251336e-005,2.219677e-004
-8.002969e-006,1.934442e-004
-4.754691e-005,1.704310e-004
-1.054042e-004,1.537382e-004
-1.955125e-004,1.435281e-004
-3.143064e-004,1.380179e-004
-4.339106e-004,1.427178e-004
-5.236948e-004,1.754550e-004
-5.585388e-004,2.448189e-004
-4.870680e-004,3.310377e-004
-2.637420e-004,4.174185e-004
1.054428e-004,5.101200e-004
5.436675e-004,6.115729e-004
9.562862e-004,7.055709e-004
1.275717e-003,7.768797e-004
1.479596e-003,8.162616e-004
1.579590e-003,8.207994e-004
1.602280e-003,7.908173e-004
1.572946e-003,7.266394e-004
1.508606e-003,6.261588e-004
1.395160e-003,4.798138e-004
1.192416e-003,2.741528e-004
8.488368e-004,1.002961e-007
3.284447e-004,-3.389403e-004
-3.674638e-004,-7.228730e-004
-1.199507e-003,-1.119123e-003
-2.101401e-003,-1.493656e-003
-2.965048e-003,-1.820379e-003
-3.658042e-003,-2.085842e-003
-4.067584e-003,-2.279025e-003
-4.125441e-003,-2.384367e-003
-3.827726e-003,-2.392795e-003
-3.245584e-003,-2.309493e-003
-2.509158e-003,-2.151317e-003
-1.759119e-003,-1.939011e-003
-1.114423e-003,-1.687162e-003
-6.334129e-004,-1.410840e-003
-2.998826e-004,-1.123823e-003
-6.310517e-005,-8.334015e-004
1.279698e-004,-5.395772e-004
3.081865e-004,-2.489941e-004
4.867825e-004,2.197911e-005
6.566271e-004,2.560015e-004
8.023240e-004,4.381629e-004
9.097734e-004,5.642498e-004
9.724927e-004,6.402585e-004
1.004096e-003,6.791542e-004
1.037643e-003,6.939021e-004
1.107493e-003,6.960090e-004
1.223856e-003,6.956849e-004
1.341030e-003,6.997365e-004
1.359181e-003,7.193465e-004
1.182692e-003,7.624559e-004
7.994067e-004,8.243649e-004
2.986247e-004,8.851394e-004
-1.984297e-004,9.222524e-004
-5.815520e-004,9.175525e-004
-7.625790e-004,8.655295e-004
-6.721465e-004,7.765555e-004
-3.027998e-004,6.723474e-004
2.691288e-004,5.689497e-004
9.086389e-004,4.760863e-004
1.474896e-003,3.989431e-004
1.840354e-003,3.418961e-004
1.922846e-003,3.055935e-004
1.711674e-003,2.854973e-004
1.256107e-003,2.760976e-004
6.313449e-004,2.751252e-004
-9.308726e-005,2.749631e-004
-8.510666e-004,2.707494e-004
-1.571447e-003,2.613496e-004
-2.175789e-003,2.483844e-004
-2.598618e-003,2.370398e-004
-2.837989e-003,2.315296e-004
-2.936201e-003,2.308813e-004
-2.926801e-003,2.271538e-004
-2.793259e-003,2.177540e-004
-2.479338e-003,2.028440e-004
-1.957001e-003,1.819376e-004
-1.269357e-003,1.504969e-004
-5.305015e-004,1.090082e-004
1.318594e-004,6.314371e-005
6.263209e-004,1.938607e-005
9.326246e-004,-1.934754e-005
1.080428e-003,-5.208474e-005
1.117379e-003,-7.882551e-005
1.085452e-003,-9.973194e-005
1.008795e-003,-1.118868e-004
9.015080e-004,-1.169109e-004
7.780141e-004,-1.157764e-004
6.528996e-004,-1.105903e-004
5.452881e-004,-1.021629e-004
4.752759e-004,-8.806324e-005
4.533971e-004,-7.299116e-005
4.764104e-004,-6.083626e-005
5.350781e-004,-5.467778e-005
6.196762e-004,-5.030202e-005
7.183740e-004,-4.300908e-005
8.204753e-004,-2.923353e-005
9.147974e-004,-1.124428e-005
9.883752e-004,5.286387e-006
1.032781e-003,1.031041e-005
1.047205e-003,-4.761664e-006
1.042991e-003,-3.863332e-005
1.032619e-003,-8.611845e-005
1.025812e-003,-1.366828e-004
1.021112e-003,-1.781716e-004
1.013171e-003,-2.002124e-004
9.961543e-004,-1.963229e-004
9.674687e-004,-1.712027e-004
9.267902e-004,-1.314967e-004
8.723363e-004,-8.692878e-005
8.078342e-004,-4.381940e-005
7.371737e-004,-7.354709e-006
6.658648e-004,1.808955e-005
5.973112e-004,3.235129e-005
5.347540e-004,3.753739e-005
4.856481e-004,3.624086e-005
4.558281e-004,3.413401e-005
4.501558e-004,3.559260e-005
4.621486e-004,4.434413e-005
4.762483e-004,6.038860e-005
4.809482e-004,7.870197e-005
4.764104e-004,9.344993e-005
4.671726e-004,1.022015e-004
4.514523e-004,1.060910e-004
4.243874e-004,9.879808e-005
3.869503e-004,8.161915e-005
3.427064e-004,5.957827e-005
2.903593e-004,4.045456e-005
2.279642e-004,2.813760e-005
1.535762e-004,2.035846e-005
7.367795e-005,9.013889e-006
-3.465141e-006,-1.383732e-005
-8.044617e-005,-4.706071e-005
-1.666649e-004,-8.303922e-005
-2.627696e-004,-1.102662e-004
-3.519055e-004,-1.277692e-004
-4.172179e-004,-1.379794e-004
-4.502792e-004,-1.433275e-004
-4.525481e-004,-1.415448e-004
-4.311555e-004,-1.267968e-004
-3.914495e-004,-9.762509e-005
-3.348887e-004,-5.402952e-005
-2.697385e-004,3.017472e-006
-2.075054e-004,7.076078e-005
-1.545100e-004,1.415833e-004
-1.107524e-004,2.070577e-004
-7.120844e-005,2.619979e-004
-3.085418e-005,3.034866e-004
2.693341e-006,3.313618e-004
1.646890e-005,3.472443e-004
7.069105e-006,3.512959e-004
-1.918548e-005,3.493511e-004
-6.261898e-005,3.425444e-004
-1.267968e-004,3.299033e-004
-2.144742e-004,3.153174e-004
-3.290543e-004,3.010556e-004
-4.753993e-004,2.827423e-004
-6.479988e-004,2.563256e-004
-8.325911e-004,2.188885e-004
-1.015563e-003,1.730240e-004
-1.182976e-003,1.292664e-004
-1.322191e-003,1.116012e-004
-1.413271e-003,1.368834e-004
-1.442281e-003,1.919856e-004
-1.411489e-003,2.428742e-004
-1.319597e-003,2.631324e-004
-1.160935e-003,2.412535e-004
-9.376095e-004,1.798307e-004
-6.732810e-004,9.166720e-005
-4.100870e-004,-3.303076e-006
-1.895161e-004,-9.243900e-005
-3.668853e-005,-1.724993e-004
4.612685e-005,-2.451045e-004
8.113296e-005,-3.194925e-004
9.280167e-005,-4.055492e-004
1.022015e-004,-5.112157e-004
1.172735e-004,-6.327647e-004
1.389903e-004,-7.580412e-004
1.709172e-004,-8.654904e-004
2.138645e-004,-9.350164e-004
2.585945e-004,-9.594883e-004
2.903593e-004,-9.476576e-004
2.992729e-004,-9.157307e-004
2.877662e-004,-8.677593e-004
2.626462e-004,-7.936955e-004
2.313675e-004,-6.846256e-004
1.927960e-004,-5.486528e-004
1.451488e-004,-4.084663e-004
9.231547e-005,-2.909690e-004
4.628891e-005,-2.066950e-004
1.565857e-005,-1.455964e-004
5.124321e-006,-9.438378e-005
1.663096e-005,-4.932962e-005
4.839576e-005,-9.623623e-006
9.442231e-005,2.359977e-005
1.482280e-004,5.293359e-005
2.088404e-004,8.016057e-005
2.705873e-004,1.015532e-004
3.235827e-004,1.094944e-004
3.555096e-004,9.814982e-005
3.584268e-004,7.465034e-005
3.300653e-004,5.341979e-005
2.824181e-004,4.564065e-005
2.360674e-004,5.520250e-005
2.041406e-004,9.231547e-005
1.871237e-004,1.837203e-004
1.717275e-004,3.456236e-004
1.456350e-004,5.660325e-004
1.047945e-004,8.144788e-004
5.374392e-005,1.055632e-003
-2.330684e-006,1.254001e-003
-5.905355e-005,1.384139e-003
-1.092938e-004,1.437621e-003
-1.541859e-004,1.428545e-003
-1.969711e-004,1.387705e-003
-2.418632e-004,1.339733e-003
-2.874036e-004,1.288034e-003
-3.287302e-004,1.212674e-003
-3.645466e-004,1.086101e-003
-3.958252e-004,8.807636e-004
-4.181903e-004,5.932595e-004
-4.264556e-004,2.506533e-004
-4.146248e-004,-1.054042e-004
-3.799429e-004,-4.293727e-004
-3.125237e-004,-6.865704e-004
-1.862748e-004,-8.609526e-004
2.473423e-005,-9.567332e-004
3.214759e-004,-9.982219e-004
6.644063e-004,-1.018642e-003
9.927510e-004,-1.040521e-003
1.244115e-003,-1.065965e-003
1.382357e-003,-1.084441e-003
1.403101e-003,-1.079255e-003
1.321744e-003,-1.035983e-003
1.172644e-003,-9.525195e-004
9.925888e-004,-8.437737e-004
8.148030e-004,-7.278970e-004
6.528996e-004,-6.163961e-004
5.073649e-004,-5.162397e-004
3.743092e-004,-4.277521e-004
2.339606e-004,-3.418575e-004
5.001642e-005,-2.428356e-004
-2.193361e-004,-1.138316e-004
-6.000275e-004,4.823370e-005
-1.078768e-003,2.252090e-004
-1.600943e-003,3.879227e-004
-2.087301e-003,5.138475e-004
-2.453893e-003,5.900182e-004
-2.633462e-003,6.135177e-004
-2.600239e-003,5.943940e-004
-2.381774e-003,5.464226e-004
-2.043381e-003,4.825689e-004
-1.650211e-003,4.123946e-004
-1.245372e-003,3.441650e-004
-8.432875e-004,2.798251e-004
-4.551412e-004,2.203471e-004
-1.070249e-004,1.628139e-004
1.739964e-004,1.059290e-004
3.649094e-004,5.147500e-005
4.577728e-004,5.934648e-006
4.640934e-004,-2.988179e-005
4.183910e-004,-5.370539e-005
3.671783e-004,-6.375344e-005
3.422202e-004,-6.278104e-005
3.462718e-004,-5.532604e-005
3.623164e-004,-4.868137e-005
3.681507e-004,-5.192267e-005
3.534027e-004,-6.602235e-005
3.276344e-004,-8.790117e-005
3.135347e-004,-1.084835e-004
3.248792e-004,-1.180453e-004
3.582647e-004,-1.118868e-004
4.002396e-004,-9.292520e-005
4.357320e-004,-6.634648e-005
4.589073e-004,-3.409549e-005
4.814344e-004,3.017472e-006
5.151440e-004,4.191315e-005
5.689497e-004,8.405014e-005
6.475514e-004,1.312112e-004
7.459252e-004,1.778860e-004
8.478644e-004,2.198609e-004
9.352177e-004,2.542187e-004
9.955061e-004,2.824181e-004
1.025650e-003,3.067279e-004
1.029378e-003,3.323342e-004
1.020140e-003,3.624784e-004
1.010740e-003,3.968363e-004
1.009282e-003,4.323286e-004
1.019168e-003,4.645796e-004
1.055146e-003,4.966686e-004
1.153196e-003,5.331332e-004
1.324337e-003,5.747841e-004
1.531133e-003,6.172452e-004
1.707947e-003,6.556547e-004
1.808914e-003,6.822334e-004
1.821068e-003,6.853127e-004
1.763373e-003,6.538720e-004
1.657868e-003,5.856425e-004
1.520923e-003,4.950479e-004
1.360154e-003,4.015361e-004
1.170375e-003,3.185587e-004
9.178767e-004,2.504913e-004
5.566327e-004,1.958752e-004
4.790957e-005,1.506590e-004
-6.087790e-004,1.163011e-004
-1.392041e-003,8.972242e-005
-2.254877e-003,5.893001e-005
-3.109287e-003,4.638125e-006
-3.818812e-003,-8.141856e-005
-4.213929e-003,-1.958367e-004
-4.161420e-003,-3.232200e-004
-3.641512e-003,-4.418518e-004
-2.774621e-003,-5.305015e-004
-1.765277e-003,-5.800935e-004
-8.235155e-004,-5.888450e-004
-1.081593e-004,-5.570802e-004
3.177483e-004,-4.862577e-004
4.888894e-004,-3.886944e-004
4.934272e-004,-2.846485e-004
4.159600e-004,-1.916230e-004
3.148312e-004,-1.159385e-004
2.182402e-004,-5.208474e-005
1.312112e-004,1.883015e-006
4.110282e-005,4.807163e-005
-6.829127e-005,9.361199e-005
-2.162569e-004,1.389903e-004
-4.275900e-004,1.835583e-004
-7.126629e-004,2.209954e-004
-1.040521e-003,2.464396e-004
-1.327215e-003,2.569738e-004
-1.455732e-003,2.555152e-004
-1.339532e-003,2.469258e-004
-9.909290e-004,2.313675e-004
-5.167259e-004,2.070577e-004
-5.710876e-005,1.726999e-004
2.867939e-004,1.295905e-004
4.947237e-004,8.469840e-005
6.292380e-004,4.531652e-005
7.715315e-004,1.257933e-005
9.676307e-004,-2.145439e-005
1.206029e-003,-6.812920e-005
1.440052e-003,-1.310105e-004
1.622052e-003,-2.088019e-004
1.724315e-003,-2.945344e-004
1.743439e-003,-3.726499e-004
1.699033e-003,-4.313175e-004
1.614921e-003,-4.671340e-004
1.504878e-003,-4.899852e-004
1.371984e-003,-5.082985e-004
1.205381e-003,-5.212637e-004
9.917786e-004,-5.222362e-004
7.250187e-004,-5.050572e-004
4.170944e-004,-4.692408e-004
9.199134e-005,-4.170558e-004
-2.298704e-004,-3.564434e-004
-5.397392e-004,-2.979378e-004
-8.353463e-004,-2.460769e-004
-1.090923e-003,-1.985918e-004
-1.242130e-003,-1.525652e-004
-1.232893e-003,-1.076731e-004
-1.052514e-003,-6.942573e-005
-7.445897e-004,-4.171256e-005
-3.906392e-004,-3.036798e-005
-6.845333e-005,-3.895745e-005
1.751309e-004,-6.213279e-005
3.292550e-004,-8.644259e-005
4.093153e-004,-1.008664e-004
4.441593e-004,-1.013526e-004
4.571246e-004,-9.422172e-005
4.555039e-004,-8.757704e-005
4.362182e-004,-7.542214e-005
3.913261e-004,-2.858527e-005
3.179104e-004,8.129502e-005
2.232643e-004,2.501671e-004
1.274836e-004,4.490213e-004
4.823370e-005,6.410689e-004
-9.785688e-006,7.984344e-004
-5.565017e-005,9.023183e-004
-9.665270e-005,9.439692e-004
-1.363587e-004,9.217662e-004
-1.690959e-004,8.421920e-004
-1.781716e-004,7.101087e-004
-1.426792e-004,5.295678e-004
-3.198864e-005,3.062417e-004
2.060853e-004,4.677511e-005
6.016869e-004,-2.434839e-004
1.106359e-003,-5.523803e-004
1.611680e-003,-8.611146e-004
2.005986e-003,-1.143270e-003
2.229312e-003,-1.370162e-003
2.281012e-003,-1.515858e-003
2.197223e-003,-1.564154e-003
2.015872e-003,-1.515372e-003
1.775690e-003,-1.394148e-003
1.509416e-003,-1.234351e-003
1.225153e-003,-1.065641e-003
9.023183e-004,-9.009827e-004
5.016926e-004,-7.403760e-004
-1.529591e-005,-5.745832e-004
-6.655019e-004,-3.948528e-004
-1.449250e-003,-2.015090e-004
-2.334289e-003,1.072688e-006
-3.212199e-003,1.997648e-004
-3.897090e-003,3.726885e-004
-4.216847e-003,5.106062e-004
-4.096756e-003,6.063868e-004
-3.568906e-003,6.598685e-004
-2.764249e-003,6.776956e-004
-1.856844e-003,6.678096e-004
-1.008432e-003,6.430136e-004
-3.428299e-004,6.112488e-004
7.108491e-005,5.806184e-004
2.265056e-004,5.514466e-004
1.850168e-004,5.195198e-004
4.256141e-005,4.736553e-004
-9.989401e-005,4.002396e-004
-1.750923e-004,2.952213e-004
-1.726613e-004,1.739964e-004
-1.227452e-004,6.314371e-005
-6.586029e-005,-1.545797e-005
-3.506788e-005,-3.895745e-005
-4.365734e-005,9.338019e-006
-8.012204e-005,1.216493e-004
-1.284175e-004,2.713977e-004
-1.911368e-004,4.230909e-004
-2.711970e-004,5.569569e-004
-3.348887e-004,6.650545e-004
-2.969654e-004,7.467355e-004
-7.947377e-005,7.994067e-004
3.203414e-004,8.211235e-004
8.225822e-004,8.099410e-004
1.318989e-003,7.661834e-004
1.731770e-003,6.930918e-004
2.028513e-003,5.969870e-004
2.202085e-003,4.832171e-004
2.244871e-003,3.606957e-004
2.135800e-003,2.415777e-004
1.852185e-003,1.344524e-004
1.392567e-003,4.645098e-005
7.809313e-004,-1.837515e-005
5.471631e-005,-6.035007e-005
-7.525309e-004,-8.806324e-005
-1.611639e-003,-1.114006e-004
-2.460700e-003,-1.394379e-004
-3.168279e-003,-1.747682e-004
-3.589002e-003,-2.135018e-004
-3.642646e-003,-2.449425e-004
-3.348982e-003,-2.559629e-004
-2.804441e-003,-2.374874e-004
-2.117121e-003,-1.888679e-004
-1.379724e-003,-1.183694e-004
-6.690673e-004,-3.798505e-005
-4.608832e-005,4.029250e-005
4.451317e-004,1.049566e-004
7.786624e-004,1.449867e-004
9.656859e-004,1.569795e-004
1.041857e-003,1.479039e-004
1.066653e-003,1.261871e-004
1.092097e-003,1.022015e-004
1.135207e-003,8.583286e-005
1.175075e-003,7.918817e-005
1.170537e-003,8.080883e-005
1.096473e-003,9.409818e-005
9.559621e-004,1.213252e-004
7.645627e-004,1.603829e-004
5.404262e-004,2.041406e-004
2.897111e-004,2.451431e-004
1.922400e-005,2.778803e-004
-2.298704e-004,3.065659e-004
-3.831841e-004,3.459477e-004
-3.779981e-004,4.081808e-004
-2.000504e-004,4.927790e-004
1.025256e-004,5.858046e-004
4.485351e-004,6.731578e-004
7.699109e-004,7.389564e-004
1.022733e-003,7.705591e-004
1.183340e-003,7.590525e-004
1.252704e-003,7.033019e-004
1.245897e-003,6.071971e-004
1.191119e-003,4.809482e-004
1.117704e-003,3.384927e-004
1.042667e-003,1.900409e-004
9.716824e-004,3.413401e-005
9.011839e-004,-1.371690e-004
8.250132e-004,-3.266234e-004
7.405770e-004,-5.243430e-004
6.548444e-004,-7.144455e-004
5.930975e-004,-8.787798e-004
6.071971e-004,-1.004543e-003
7.300428e-004,-1.090113e-003
9.250075e-004,-1.138733e-003
1.109438e-003,-1.153967e-003
1.215591e-003,-1.139381e-003
1.233418e-003,-1.096109e-003
1.196305e-003,-1.027556e-003
1.137800e-003,-9.377715e-004
1.064222e-003,-8.298361e-004
9.676307e-004,-7.147697e-004
8.462437e-004,-5.993792e-004
6.932539e-004,-4.882024e-004
4.861343e-004,-3.848048e-004
1.811273e-004,-2.852967e-004
-2.554767e-004,-1.883817e-004
-8.290258e-004,-9.794922e-005
-1.509538e-003,-1.643037e-005
-2.211930e-003,4.288554e-005
-2.785155e-003,6.476436e-005
-3.063098e-003,4.871989e-005
-2.962942e-003,1.160693e-005
-2.530550e-003,-2.323711e-005
-1.921994e-003,-4.106429e-005
-1.329808e-003,-3.928157e-005
-8.967691e-004,-1.853722e-005
-6.744154e-004,1.857574e-005
-6.068342e-004,6.557468e-005
-5.666421e-004,1.171115e-004
-4.416897e-004,1.663793e-004
-1.872472e-004,2.111094e-004
1.762653e-004,2.467637e-004
5.827253e-004,2.735045e-004
9.554758e-004,2.884145e-004
1.228880e-003,2.953834e-004
1.361450e-003,3.013798e-004
1.348647e-003,3.117519e-004
1.228394e-003,3.269861e-004
1.058387e-003,3.449753e-004
9.002115e-004,3.600474e-004
7.866036e-004,3.743092e-004
7.131880e-004,3.974845e-004
6.462549e-004,4.357320e-004
5.561466e-004,4.866205e-004
4.271425e-004,5.376711e-004
2.628082e-004,5.778633e-004
7.886404e-005,5.990939e-004
-1.076731e-004,5.981215e-004
-2.833519e-004,5.765668e-004
-4.288866e-004,5.315126e-004
-5.305015e-004,4.568005e-004
-5.998655e-004,3.545372e-004
-6.731189e-004,2.336365e-004
-7.821888e-004,1.052807e-004
-9.369612e-004,-2.064406e-005
-1.118150e-003,-1.342519e-004
-1.281188e-003,-2.287359e-004
-1.378589e-003,-3.027998e-004
-1.376158e-003,-3.533641e-004
-1.268061e-003,-3.726499e-004
-1.072124e-003,-3.611433e-004
-8.152502e-004,-3.272716e-004
-5.326084e-004,-2.818933e-004
-2.605007e-004,-2.298704e-004
-2.874733e-005,-1.744440e-004
1.448246e-004,-1.173971e-004
2.581083e-004,-6.002594e-005
3.201794e-004,-4.113403e-006
3.430306e-004,4.807163e-005
3.414099e-004,9.977047e-005
3.253654e-004,1.550348e-004
3.042970e-004,2.133783e-004
2.876042e-004,2.658874e-004
2.786906e-004,3.023522e-004
2.783665e-004,3.158036e-004
2.825802e-004,3.023522e-004
2.884145e-004,2.704253e-004
2.924662e-004,2.341226e-004
2.812837e-004,1.987924e-004
2.453052e-004,1.610312e-004
1.756171e-004,1.154908e-004
8.080883e-005,6.508849e-005
-3.951337e-006,1.209313e-005
-4.430560e-005,-4.187462e-005
-2.145439e-005,-9.989401e-005
5.390598e-005,-1.611547e-004
1.535762e-004,-2.201465e-004
2.446569e-004,-2.710350e-004
3.023522e-004,-3.181960e-004
3.109416e-004,-3.676259e-004
2.666978e-004,-4.157593e-004
1.798307e-004,-4.559515e-004
7.935024e-005,-4.857715e-004
5.864920e-007,-5.023021e-004
-3.425755e-005,-5.003574e-004
-2.015787e-005,-4.762096e-004
2.910999e-005,-4.337485e-004
9.344993e-005,-3.864254e-004
1.513072e-004,-3.580640e-004
1.853410e-004,-3.694086e-004
1.866375e-004,-4.183523e-004
1.513072e-004,-4.823681e-004
8.437427e-005,-5.308256e-004
3.989864e-006,-5.441150e-004
-7.039812e-005,-5.095950e-004
-1.195039e-004,-4.237005e-004
-1.323071e-004,-2.979378e-004
-1.088076e-004,-1.468929e-004
-6.051213e-005,4.126489e-005
-2.238346e-007,2.882525e-004
6.087479e-005,5.871011e-004
1.119254e-004,9.039390e-004
1.414213e-004,1.199547e-003
1.430419e-004,1.442645e-003
1.279698e-004,1.606655e-003
1.133840e-004,1.678613e-003
1.091703e-004,1.653168e-003
1.229458e-004,1.541505e-003
1.492004e-004,1.369553e-003
1.812893e-004,1.157410e-003
2.041406e-004,9.128526e-004
2.036544e-004,6.402585e-004
1.696206e-004,3.440029e-004
1.069013e-004,3.624086e-005
3.202716e-005,-2.645523e-004
-3.166451e-005,-5.316359e-004
-7.169464e-005,-7.463724e-004
-7.963584e-005,-8.979035e-004
-5.257093e-005,-9.865533e-004
3.989864e-006,-1.024963e-003
7.302970e-005,-1.028852e-003
1.412592e-004,-1.017832e-003
1.989545e-004,-1.005353e-003
2.370398e-004,-9.865533e-004
2.456293e-004,-9.494403e-004
2.252090e-004,-8.813728e-004
1.829100e-004,-7.758683e-004
1.307250e-004,-6.384369e-004
8.194328e-005,-4.891749e-004
4.742337e-005,-3.554710e-004
2.813760e-005,-2.535319e-004
1.971020e-005,-1.841680e-004
1.808955e-005,-1.408965e-004
1.727922e-005,-1.094559e-004
1.841368e-005,-7.947377e-005
2.084466e-005,-4.868137e-005
2.603075e-005,-1.740276e-005
4.402000e-005,1.419998e-005
8.631905e-005,4.790957e-005
1.542244e-004,8.421220e-005
2.367157e-004,1.193804e-004
3.088348e-004,1.475797e-004
3.452995e-004,1.652449e-004
3.339549e-004,1.793446e-004
2.926282e-004,1.984683e-004
2.582704e-004,2.247229e-004
2.576221e-004,2.521119e-004
2.948972e-004,2.746390e-004
3.551855e-004,2.892249e-004
4.133669e-004,2.981384e-004
4.415663e-004,3.070520e-004
4.261701e-004,3.200173e-004
3.675024e-004,3.297412e-004
2.574601e-004,3.282826e-004
7.918817e-005,3.132105e-004
-1.793060e-004,2.877662e-004
-5.045711e-004,2.603772e-004
-8.423151e-004,2.410915e-004
-1.108913e-003,2.477361e-004
-1.236782e-003,3.030004e-004
-1.210689e-003,4.128807e-004
-1.072772e-003,5.563086e-004
-8.906106e-004,7.007089e-004
-7.220627e-004,8.216097e-004
-5.964621e-004,9.039390e-004
-5.201293e-004,9.382969e-004
-4.985746e-004,9.183628e-004
-5.272602e-004,8.465679e-004
-5.877105e-004,7.293945e-004
-6.496195e-004,5.730013e-004
-6.898117e-004,3.890571e-004
-7.040734e-004,1.897167e-004
-7.120146e-004,-1.237873e-005
-7.360002e-004,-2.092881e-004
-7.945059e-004,-3.984183e-004
-8.885037e-004,-5.760419e-004
-1.005191e-003,-7.337314e-004
-1.116368e-003,-8.573871e-004
-1.171308e-003,-9.325854e-004
-1.109723e-003,-9.502506e-004
-8.949863e-004,-8.987138e-004
-5.382806e-004,-7.616066e-004
-9.940781e-005,-5.486528e-004
3.418961e-004,-3.034480e-004
7.172396e-004,-7.671866e-005
9.903199e-004,1.028497e-004
1.164216e-003,2.256952e-004
1.267938e-003,2.983005e-004
1.332602e-003,3.341170e-004
1.374415e-003,3.431926e-004
1.391756e-003,3.292550e-004
1.376198e-003,2.911697e-004
1.325796e-003,2.276400e-004
1.247518e-003,1.432040e-004
1.157410e-003,4.142696e-005
1.068273e-003,-6.829127e-005
9.877268e-004,-1.786577e-004
9.164180e-004,-2.797865e-004
8.519160e-004,-3.640605e-004
7.992447e-004,-4.305072e-004
7.692626e-004,-4.843129e-004
7.768797e-004,-5.321222e-004
8.199891e-004,-5.804176e-004
8.765499e-004,-6.246614e-004
9.170663e-004,-6.515643e-004
9.060458e-004,-6.444334e-004
8.209614e-004,-5.920863e-004
6.624615e-004,-4.966299e-004
4.605280e-004,-3.669776e-004
2.692908e-004,-2.185258e-004
1.357490e-004,-6.504996e-005
6.816773e-005,8.259155e-005
3.559260e-005,2.180782e-004
3.017472e-006,3.373583e-004
-4.560212e-005,4.375147e-004
-1.076731e-004,5.164405e-004
-1.784957e-004,5.728393e-004
-2.663351e-004,6.094660e-004
-4.010113e-004,6.277795e-004
-6.063480e-004,6.313449e-004
-8.763488e-004,6.206486e-004
-1.182166e-003,5.950422e-004
-1.462701e-003,5.556603e-004
-1.632221e-003,5.055821e-004
-1.627846e-003,4.477248e-004
-1.456219e-003,3.871123e-004
-1.185894e-003,3.230965e-004
-9.073032e-004,2.605393e-004
-6.880290e-004,2.041406e-004
-5.549733e-004,1.607070e-004
-4.802613e-004,1.318594e-004
-4.037664e-004,1.104668e-004
-2.700626e-004,9.263960e-005
-6.018800e-005,7.594687e-005
2.085163e-004,5.860588e-005
4.848378e-004,3.834771e-005
7.010330e-004,1.825161e-005
8.007033e-004,-6.176923e-008
7.710453e-004,-1.221667e-005
6.418792e-004,-1.691656e-005
4.775448e-004,-1.367526e-005
3.483787e-004,-6.058186e-006
2.913317e-004,-2.006553e-006
3.020280e-004,-2.161646e-005
3.540510e-004,-7.720486e-005
4.161220e-004,-1.572651e-004
4.632831e-004,-2.386219e-004
4.780310e-004,-3.055549e-004
4.540453e-004,-3.507711e-004
4.023465e-004,-3.600088e-004
3.388169e-004,-3.002067e-004
2.911697e-004,-1.572651e-004
3.046211e-004,4.272347e-005
3.937570e-004,2.454672e-004
5.153061e-004,4.157979e-004
5.918010e-004,5.405883e-004
5.629533e-004,6.234037e-004
4.339493e-004,6.723474e-004
2.744769e-004,6.904988e-004
1.662173e-004,6.762370e-004
1.597346e-004,6.230795e-004
2.534084e-004,5.242196e-004
3.897054e-004,3.770643e-004
4.739794e-004,1.790204e-004
4.102877e-004,-5.840528e-005
1.448246e-004,-3.083100e-004
-3.178718e-004,-5.358497e-004
-9.249684e-004,-7.108802e-004
-1.594298e-003,-8.225431e-004
-2.220681e-003,-8.731075e-004
-2.667172e-003,-8.742420e-004
-2.812383e-003,-8.393980e-004
-2.613042e-003,-7.752200e-004
-2.127331e-003,-6.794395e-004
-1.492197e-003,-5.518941e-004
-8.580354e-004,-4.032803e-004
-3.412093e-004,-2.549905e-004
1.002961e-007,-1.290658e-004
1.688103e-004,-3.668853e-005
2.172679e-004,3.737532e-005
2.153231e-004,1.171115e-004
2.164575e-004,2.175920e-004
2.438466e-004,3.316860e-004
2.936006e-004,4.276287e-004
3.470822e-004,4.733311e-004
3.812780e-004,4.504799e-004
3.879227e-004,3.702575e-004
3.884089e-004,2.668598e-004
4.342734e-004,1.785342e-004
5.600362e-004,1.279698e-004
7.507871e-004,1.159770e-004
9.520725e-004,1.265113e-004
1.110248e-003,1.422316e-004
1.200843e-003,1.571416e-004
1.228718e-003,1.718896e-004
1.216726e-003,1.872858e-004
1.189985e-003,1.996027e-004
1.170699e-003,2.085163e-004
1.172968e-003,2.111094e-004
1.191281e-003,2.057612e-004
1.198088e-003,1.958752e-004
1.166161e-003,1.819376e-004
1.072163e-003,1.658931e-004
8.966461e-004,1.496866e-004
6.284277e-004,1.347766e-004
2.694529e-004,1.232699e-004
-1.627754e-004,1.119254e-004
-6.199615e-004,9.750156e-005
-1.021073e-003,8.307774e-005
-1.300312e-003,7.400208e-005
-1.423319e-003,7.140904e-005
-1.388151e-003,7.140904e-005
-1.220576e-003,6.606088e-005
-9.580297e-004,4.790957e-005
-6.426507e-004,1.922400e-005
-3.185201e-004,-1.578211e-005
-2.015787e-005,-5.402952e-005
2.268297e-004,-9.503204e-005
4.026706e-004,-1.384655e-004
4.978030e-004,-1.861127e-004
5.162785e-004,-2.318152e-004
4.738173e-004,-2.711970e-004
3.901916e-004,-3.006929e-004
2.770700e-004,-3.170615e-004
1.406109e-004,-3.227338e-004
-8.975362e-006,-3.232200e-004
-1.527273e-004,-3.217614e-004
-2.661730e-004,-3.178718e-004
-3.314853e-004,-3.121996e-004
-3.438023e-004,-3.016653e-004
-3.190063e-004,-2.848105e-004
-2.801106e-004,-2.616352e-004
-2.465631e-004,-2.365151e-004
-2.219292e-004,-2.086398e-004
-1.969711e-004,-1.783336e-004
-1.583996e-004,-1.475412e-004
-9.924574e-005,-1.229073e-004
-2.275091e-005,-1.101041e-004
6.071273e-005,-1.054042e-004
1.396385e-004,-1.016767e-004
2.038164e-004,-9.308726e-005
2.401191e-004,-7.850138e-005
2.504913e-004,-6.748094e-005
2.475741e-004,-8.935975e-005
2.467637e-004,-1.656925e-004
2.678322e-004,-2.874036e-004
3.277964e-004,-4.220798e-004
4.242253e-004,-5.339049e-004
5.428572e-004,-5.951655e-004
6.712130e-004,-5.933828e-004
8.047550e-004,-5.249913e-004
9.350556e-004,-4.002010e-004
1.048988e-003,-2.405667e-004
1.126293e-003,-6.796714e-005
1.144444e-003,9.701536e-005
1.077997e-003,2.461155e-004
9.141492e-004,3.722023e-004
6.627856e-004,4.734932e-004
3.581026e-004,5.509604e-004
5.374392e-005,6.135177e-004
-2.062088e-004,6.682958e-004
-4.092767e-004,7.190223e-004
-5.778245e-004,7.715315e-004
-7.562584e-004,8.293889e-004
-9.980599e-004,8.908117e-004
-1.340990e-003,9.502898e-004
-1.775325e-003,9.989094e-004
-2.227812e-003,1.027919e-003
-2.594566e-003,1.033591e-003
-2.797797e-003,1.016088e-003
-2.796824e-003,9.736272e-004
-2.592135e-003,9.076665e-004
-2.219547e-003,8.287407e-004
-1.748260e-003,7.434942e-004
-1.268385e-003,6.528996e-004
-8.528493e-004,5.556603e-004
-5.330946e-004,4.504799e-004
-2.950206e-004,3.418961e-004
-1.036215e-004,2.355812e-004
7.319176e-005,1.336421e-004
2.477361e-004,3.559260e-005
4.099636e-004,-5.743289e-005
5.470709e-004,-1.400862e-004
6.512789e-004,-2.076674e-004
7.191843e-004,-2.590421e-004
7.550009e-004,-2.927517e-004
7.569456e-004,-3.144685e-004
7.178878e-004,-3.246786e-004
6.165970e-004,-3.037722e-004
4.414042e-004,-2.324634e-004
2.034923e-004,-1.161005e-004
-6.067420e-005,1.971020e-005
-2.823795e-004,1.419075e-004
-3.788084e-004,2.240746e-004
-3.071755e-004,2.576221e-004
-8.579432e-005,2.428742e-004
2.166196e-004,1.900409e-004
5.141716e-004,1.172735e-004
7.558112e-004,3.299956e-005
9.630929e-004,-6.407757e-005
1.202626e-003,-1.807646e-004
1.512657e-003,-3.241924e-004
1.865961e-003,-4.943609e-004
2.199006e-003,-6.831670e-004
2.452478e-003,-8.791040e-004
2.591692e-003,-1.068558e-003
2.603847e-003,-1.231596e-003
2.498990e-003,-1.347311e-003
2.307266e-003,-1.404358e-003
2.061412e-003,-1.400954e-003
1.771314e-003,-1.345042e-003
1.413959e-003,-1.250395e-003
9.418624e-004,-1.135491e-003
3.224483e-004,-1.021235e-003
-4.386105e-004,-9.244822e-004
-1.276488e-003,-8.502563e-004
-2.093460e-003,-7.901301e-004
-2.750473e-003,-7.319486e-004
-3.101994e-003,-6.655019e-004
-3.081898e-003,-5.891691e-004
-2.738805e-003,-5.008436e-004
-2.227974e-003,-4.053871e-004
-1.731081e-003,-3.097686e-004
-1.378103e-003,-2.235498e-004
-1.205017e-003,-1.506204e-004
-1.159639e-003,-9.130454e-005
-1.136788e-003,-3.506788e-005
-1.036145e-003,2.975825e-005
-8.129813e-004,1.000946e-004
-4.883645e-004,1.696206e-004
-1.232314e-004,2.357433e-004
2.146748e-004,3.036487e-004
4.799758e-004,3.806297e-004
6.629477e-004,4.707381e-004
7.938966e-004,5.713807e-004
9.157698e-004,6.776956e-004
1.053688e-003,7.903311e-004
1.189174e-003,9.099355e-004
1.277500e-003,1.034078e-003
1.293220e-003,1.155303e-003
1.252218e-003,1.263562e-003
1.197926e-003,1.344757e-003
1.180585e-003,1.389163e-003
1.222560e-003,1.393215e-003
1.313154e-003,1.357398e-003
1.416552e-003,1.287710e-003
1.489158e-003,1.194036e-003
1.495640e-003,1.085290e-003
1.417363e-003,9.642274e-004
1.258700e-003,8.267959e-004
1.043802e-003,6.660269e-004
8.050791e-004,4.807861e-004
5.728393e-004,2.770700e-004
3.619922e-004,7.302970e-005
1.726999e-004,-1.109144e-004
2.623614e-007,-2.572594e-004
-1.609926e-004,-3.535262e-004
-3.275957e-004,-4.021458e-004
-5.227224e-004,-4.120317e-004
-7.787855e-004,-4.005251e-004
-1.105347e-003,-3.844807e-004
-1.462215e-003,-3.726499e-004
-1.791856e-003,-3.640605e-004
-2.057319e-003,-3.491504e-004
-2.237698e-003,-3.194925e-004
-2.319865e-003,-2.697385e-004
-2.282590e-003,-2.060468e-004
-2.094756e-003,-1.402483e-004
-1.745019e-003,-8.352541e-005
-1.263847e-003,-4.025397e-005
-7.199558e-004,-8.165035e-006
-1.912988e-004,1.663096e-005
2.548670e-004,3.705119e-005
5.755944e-004,4.985435e-005
7.669937e-004,5.374392e-005
8.451093e-004,5.131294e-005
8.418679e-004,4.936815e-005
7.921138e-004,5.552663e-005
7.224257e-004,7.335383e-005
6.550064e-004,1.030118e-004
6.036317e-004,1.490383e-004
5.683015e-004,2.308813e-004
5.339436e-004,3.647473e-004
4.804620e-004,5.420469e-004
3.989431e-004,7.308531e-004
3.002453e-004,8.951875e-004
2.044647e-004,1.000206e-003
1.252147e-004,1.025002e-003
6.136099e-005,9.705480e-004
8.365628e-006,8.553194e-004
-2.858527e-005,6.974676e-004
-3.636440e-005,5.042856e-004
-2.816880e-006,2.799871e-004
6.184718e-005,3.121684e-005
1.307250e-004,-2.391081e-004
1.799928e-004,-5.248293e-004
2.018716e-004,-8.155743e-004
2.051129e-004,-1.084279e-003
2.133783e-004,-1.301446e-003
2.616738e-004,-1.450708e-003
3.691231e-004,-1.531093e-003
5.214646e-004,-1.553620e-003
6.755888e-004,-1.534334e-003
7.841726e-004,-1.484742e-003
8.280924e-004,-1.408895e-003
8.392748e-004,-1.317653e-003
8.665019e-004,-1.228031e-003
9.323005e-004,-1.145215e-003
1.020464e-003,-1.058672e-003
1.083994e-003,-9.568953e-004
1.069732e-003,-8.322670e-004
9.577448e-004,-6.854360e-004
7.658592e-004,-5.193190e-004
5.221128e-004,-3.334301e-004
2.384984e-004,-1.292278e-004
-9.373552e-005,8.453633e-005
-4.799371e-004,2.936006e-004
-9.089239e-004,4.832171e-004
-1.351038e-003,6.473894e-004
-1.778404e-003,7.922759e-004
-2.158934e-003,9.287350e-004
-2.436066e-003,1.065842e-003
-2.551943e-003,1.196305e-003
-2.500244e-003,1.292410e-003
-2.337530e-003,1.328713e-003
-2.156665e-003,1.295652e-003
-2.021340e-003,1.200033e-003
-1.917457e-003,1.065194e-003
-1.780187e-003,9.183628e-004
-1.562533e-003,7.849830e-004
-1.272112e-003,6.823955e-004
-9.531678e-004,6.050903e-004
-6.564262e-004,5.345919e-004
-4.313175e-004,4.537212e-004
-2.998826e-004,3.563199e-004
-2.511010e-004,2.474120e-004
-2.522354e-004,1.323456e-004
-2.731418e-004,2.133085e-005
-2.968033e-004,-7.282909e-005
-3.039342e-004,-1.447861e-004
-2.645523e-004,-1.925954e-004
-1.491618e-004,-2.175534e-004
4.839576e-005,-2.233878e-004
3.065659e-004,-2.157707e-004
5.762426e-004,-2.016710e-004
8.060515e-004,-1.870851e-004
9.679549e-004,-1.734716e-004
1.058387e-003,-1.619650e-004
1.092583e-003,-1.488377e-004
1.100363e-003,-1.336036e-004
1.101983e-003,-1.139937e-004
1.104738e-003,-8.968389e-005
1.099876e-003,-6.521203e-005
1.076863e-003,-4.495386e-005
1.035698e-003,-3.247483e-005
9.797857e-004,-2.194059e-005
9.091251e-004,-6.058186e-006
8.240407e-004,1.841368e-005
7.321496e-004,4.758544e-005
6.490100e-004,7.189524e-005
5.937457e-004,8.583286e-005
5.725152e-004,8.745350e-005
5.778633e-004,7.983644e-005
5.979594e-004,6.735741e-005
6.204865e-004,5.277153e-005
6.371793e-004,3.980630e-005
6.498204e-004,2.765140e-005
6.621373e-004,1.063454e-005
6.760749e-004,-8.489166e-006
6.843403e-004,-2.583016e-005
6.838542e-004,-4.074016e-005
6.802886e-004,-5.710876e-005
6.762370e-004,-7.526008e-005
6.619753e-004,-9.405965e-005
6.349103e-004,-1.279313e-004
6.010387e-004,-1.909747e-004
5.666808e-004,-2.867553e-004
5.354022e-004,-4.002010e-004
5.112545e-004,-5.097571e-004
4.956961e-004,-5.990551e-004
4.867825e-004,-6.586951e-004
4.730070e-004,-6.765223e-004
4.397836e-004,-6.411921e-004
3.807918e-004,-5.439529e-004
2.981384e-004,-3.739464e-004
2.060853e-004,-1.355484e-004
1.453108e-004,1.388282e-004
1.757791e-004,3.974845e-004
3.260137e-004,5.955285e-004
5.527431e-004,7.089743e-004
7.705591e-004,7.434942e-004
9.096113e-004,7.232360e-004
9.465622e-004,6.723474e-004
8.998874e-004,6.101143e-004
8.105893e-004,5.448020e-004
7.208050e-004,4.798138e-004
6.446343e-004,4.187151e-004
5.532294e-004,3.697714e-004
3.796573e-004,3.368721e-004
6.103686e-005,3.226103e-004
-4.253211e-004,3.206656e-004
-1.051217e-003,3.052694e-004
-1.759767e-003,2.548670e-004
-2.465886e-003,1.749688e-004
-3.052402e-003,8.388807e-005
-3.382206e-003,-1.844488e-006
-3.355303e-003,-7.380149e-005
-2.968452e-003,-1.300382e-004
-2.330075e-003,-1.666649e-004
-1.604832e-003,-1.812508e-004
-9.521954e-004,-1.788198e-004
-4.713477e-004,-1.690959e-004
-1.853024e-004,-1.585616e-004
-5.516398e-005,-1.433275e-004
-1.270286e-005,-1.201522e-004
1.306552e-005,-8.628052e-005
7.481241e-005,-4.527799e-005
1.905271e-004,-1.358292e-006
3.402755e-004,4.061663e-005
4.820827e-004,7.740546e-005
5.752703e-004,1.060910e-004
6.037938e-004,1.278078e-004
5.822391e-004,1.428799e-004
5.329712e-004,1.511452e-004
4.736553e-004,1.508211e-004
4.060740e-004,1.410971e-004
3.263378e-004,1.252147e-004
2.355812e-004,1.109530e-004
1.370455e-004,1.023635e-004
3.299956e-005,9.555677e-005
-7.688073e-005,8.259155e-005
-1.904885e-004,5.666109e-005
-2.891863e-004,7.717366e-006
-3.460712e-004,-6.245691e-005
-3.391024e-004,-1.439758e-004
-2.658489e-004,-2.264670e-004
-1.480274e-004,-2.992343e-004
-2.226472e-005,-3.509331e-004
8.032264e-005,-3.732982e-004
1.464453e-004,-3.643846e-004
1.816135e-004,-3.335922e-004
2.033302e-004,-2.935620e-004
2.326641e-004,-2.533699e-004
2.850112e-004,-2.178775e-004
3.521062e-004,-1.924333e-004
4.167703e-004,-1.781716e-004
4.608521e-004,-1.759026e-004
4.713863e-004,-1.789819e-004
4.467524e-004,-1.822232e-004
3.966742e-004,-1.814128e-004
3.323342e-004,-1.703924e-004
2.624841e-004,-1.464067e-004
1.978200e-004,-1.177212e-004
1.534141e-004,-9.308726e-005
1.410971e-004,-7.574627e-005
1.529279e-004,-6.294311e-005
1.715654e-004,-5.127441e-005
1.796687e-004,-4.106429e-005
1.663793e-004,-3.360929e-005
1.336421e-004,-3.117831e-005
9.085688e-005,-3.279896e-005
4.645098e-005,-3.652646e-005
5.124321e-006,-4.544006e-005
-3.458168e-005,-5.889148e-005
-8.077030e-005,-7.120844e-005
-1.378173e-004,-7.639453e-005
-2.028055e-004,-7.477388e-005
-2.660110e-004,-6.715681e-005
-3.057169e-004,-5.370539e-005
-3.037722e-004,-4.009191e-005
-2.470493e-004,-3.150244e-005
-1.365208e-004,-3.134038e-005
7.555301e-006,-3.587821e-005
1.521176e-004,-3.733679e-005
2.658874e-004,-3.425755e-005
3.344411e-004,-3.101625e-005
3.571303e-004,-2.955766e-005
3.491891e-004,-2.761287e-005
3.240689e-004,-1.869928e-005
2.830664e-004,1.072688e-006
2.219677e-004,2.943412e-005
1.375317e-004,6.217132e-005
3.299956e-005,9.571884e-005
-8.482193e-005,1.247285e-004
-2.071812e-004,1.456350e-004
-3.164132e-004,1.587623e-004
-3.967976e-004,1.686482e-004
-4.431483e-004,1.770756e-004
-4.565997e-004,1.814514e-004
-4.412035e-004,1.835583e-004
-4.071698e-004,1.856651e-004
-3.720016e-004,1.897167e-004
-3.510952e-004,1.961994e-004
-3.462333e-004,2.031682e-004
-3.468815e-004,2.047888e-004
-3.447747e-004,1.974959e-004
-3.368335e-004,1.856651e-004
-3.301888e-004,1.746447e-004
-3.400748e-004,1.681620e-004
-3.707051e-004,1.665414e-004
-4.040906e-004,1.663793e-004
-4.008493e-004,1.637863e-004
-3.280820e-004,1.597346e-004
-1.784957e-004,1.566554e-004
3.364782e-005,1.587623e-004
2.791768e-004,1.633001e-004
5.225990e-004,1.650828e-004
7.339324e-004,1.621656e-004
8.865980e-004,1.574657e-004
9.630929e-004,1.543865e-004
9.574206e-004,1.547106e-004
8.689329e-004,1.560072e-004
7.055709e-004,1.472556e-004
4.981271e-004,1.237561e-004
2.976523e-004,8.972242e-005
1.516314e-004,5.455425e-005
8.680524e-005,2.829966e-005
9.166720e-005,3.786152e-005
1.278078e-004,1.253768e-004
1.634622e-004,3.232586e-004
1.906891e-004,6.251864e-004
2.151610e-004,9.899958e-004
2.496809e-004,1.354805e-003
2.936006e-004,1.660461e-003
3.380065e-004,1.866285e-003
3.859779e-004,1.952180e-003
4.399457e-004,1.911501e-003
4.955341e-004,1.753487e-003
5.384815e-004,1.487537e-003
5.585775e-004,1.121431e-003
5.624671e-004,6.661890e-004
5.856425e-004,1.401247e-004
6.736440e-004,-4.329382e-004
8.566159e-004,-1.023504e-003
1.120783e-003,-1.595919e-003
1.417363e-003,-2.113394e-003
1.673589e-003,-2.545622e-003
1.818151e-003,-2.866837e-003
1.804862e-003,-3.056940e-003
1.616866e-003,-3.103777e-003
1.272476e-003,-3.013992e-003
8.130203e-004,-2.813355e-003
2.760976e-004,-2.535574e-003
-3.097686e-004,-2.212416e-003
-9.298304e-004,-1.871592e-003
-1.578416e-003,-1.541627e-003
-2.233484e-003,-1.242616e-003
-2.841230e-003,-9.774775e-004
-3.320459e-003,-7.340555e-004
-3.601805e-003,-4.961436e-004
-3.665659e-003,-2.476975e-004
-3.568258e-003,1.468618e-005
-3.418185e-003,2.820940e-004
-3.303442e-003,5.370228e-004
-3.240398e-003,7.644006e-004
-3.191940e-003,9.546655e-004
-3.106370e-003,1.101821e-003
-2.943494e-003,1.202626e-003
-2.670251e-003,1.254163e-003
-2.252284e-003,1.258538e-003
-1.678410e-003,1.221101e-003
-9.922255e-004,1.156923e-003
-2.862691e-004,1.077511e-003
3.328204e-004,9.912923e-004
7.945448e-004,9.071803e-004
1.093069e-003,8.301992e-004
1.263238e-003,7.619697e-004
1.348485e-003,7.073536e-004
1.387381e-003,6.663511e-004
1.411853e-003,6.376655e-004
1.440538e-003,6.200004e-004
1.478624e-003,6.115729e-004
1.523516e-003,6.044420e-004
1.570353e-003,5.909906e-004
1.608600e-003,5.673291e-004
1.613786e-003,5.350781e-004
1.562574e-003,4.956961e-004
1.453341e-003,4.530729e-004
1.306186e-003,4.117463e-004
1.146065e-003,3.736609e-004
9.862683e-004,3.410858e-004
8.358715e-004,3.162898e-004
7.052467e-004,2.991108e-004
6.102764e-004,2.863077e-004
5.717048e-004,2.728562e-004
6.005525e-004,2.525981e-004
6.820714e-004,2.214815e-004
7.822278e-004,1.833962e-004
8.677984e-004,1.470936e-004
9.091251e-004,1.179218e-004
8.951875e-004,9.717743e-005
8.347370e-004,8.777764e-005
7.559733e-004,8.664318e-005
6.901747e-004,8.729144e-005
6.504686e-004,7.983644e-005
6.350724e-004,6.379197e-005
6.371793e-004,4.985435e-005
6.420412e-004,4.693717e-005
6.381517e-004,5.325772e-005
6.198382e-004,6.136099e-005
5.906665e-004,6.217132e-005
5.585775e-004,5.212327e-005
5.282713e-004,3.688912e-005
4.979651e-004,2.457216e-005
4.653899e-004,1.857574e-005
4.277907e-004,1.598270e-005
3.864641e-004,1.387585e-005
3.457857e-004,6.582909e-006
3.075383e-004,-7.030578e-006
2.738286e-004,-2.420950e-005
2.472499e-004,-4.122636e-005
2.303951e-004,-5.840528e-005
2.258573e-004,-8.028410e-005
2.313675e-004,-1.099421e-004
2.401191e-004,-1.475412e-004
2.441707e-004,-1.859507e-004
2.399570e-004,-2.102605e-004
2.297469e-004,-2.104225e-004
2.171058e-004,-1.893541e-004
2.067336e-004,-1.601823e-004
1.903650e-004,-1.332795e-004
1.621656e-004,-1.144799e-004
1.315353e-004,-9.811128e-005
1.122495e-004,-8.012204e-005
1.081979e-004,-5.467778e-005
1.081979e-004,-2.177852e-005
1.000946e-004,1.808955e-005
7.610894e-005,6.119892e-005
3.024445e-005,1.017153e-004
-3.263690e-005,1.258630e-004
-1.067007e-004,1.208390e-004
-1.835197e-004,8.388807e-005
-2.523975e-004,1.517237e-005
-3.087962e-004,-8.660465e-005
-3.583881e-004,-2.144742e-004
-4.152731e-004,-3.535262e-004
-4.810716e-004,-4.783165e-004
-5.523803e-004,-5.671282e-004
-6.191512e-004,-6.131548e-004
-6.732810e-004,-6.173685e-004
-7.144455e-004,-5.851175e-004
-7.520447e-004,-5.181845e-004
-8.110365e-004,-4.186764e-004
-9.050344e-004,-2.909690e-004
-1.021073e-003,-1.489998e-004
-1.123336e-003,-7.354709e-006
-1.178438e-003,1.206769e-004
-1.171956e-003,2.266676e-004
-1.101295e-003,3.077003e-004
-9.743983e-004,3.653956e-004
-8.113607e-004,4.034809e-004
-6.159099e-004,4.251977e-004
-3.614674e-004,4.378388e-004
-3.685060e-005,4.462662e-004
3.222862e-004,4.527488e-004
6.417171e-004,4.558281e-004
8.543470e-004,4.545315e-004
9.323005e-004,4.451317e-004
8.938910e-004,4.271425e-004
7.817416e-004,3.961880e-004
6.460929e-004,3.475684e-004
5.302161e-004,2.793389e-004
4.457800e-004,2.017096e-004
3.590750e-004,1.286181e-004
2.033302e-004,6.411610e-005
-7.963584e-005,8.527692e-006
-5.120260e-004,-3.895745e-005
-1.070665e-003,-8.125649e-005
-1.690241e-003,-1.206384e-004
-2.268977e-003,-1.579134e-004
-2.672844e-003,-1.943781e-004
-2.778835e-003,-2.277635e-004
-2.532495e-003,-2.536940e-004
-1.983093e-003,-2.744383e-004
-1.276002e-003,-2.883759e-004
-5.898174e-004,-2.964792e-004
-5.775702e-005,-3.021515e-004
2.652392e-004,-3.047445e-004
4.021844e-004,-3.036101e-004
4.185530e-004,-3.044204e-004
3.851676e-004,-3.112272e-004
3.605336e-004,-3.271096e-004
3.705817e-004,-3.468815e-004
4.096394e-004,-3.632501e-004
4.611762e-004,-3.689224e-004
5.110924e-004,-3.626019e-004
5.503122e-004,-3.497987e-004
5.765668e-004,-3.344025e-004
5.913147e-004,-3.128478e-004
5.963388e-004,-2.864312e-004
5.918010e-004,-2.587180e-004
5.781874e-004,-2.313290e-004
5.511225e-004,-2.049123e-004
5.117406e-004,-1.801163e-004
4.692795e-004,-1.418689e-004
4.345975e-004,-5.775702e-005
4.125566e-004,8.842590e-005
4.038051e-004,2.827423e-004
4.044533e-004,4.888894e-004
4.094774e-004,6.742922e-004
4.143393e-004,8.157754e-004
4.133669e-004,8.997253e-004
4.046154e-004,9.183628e-004
3.947294e-004,8.694191e-004
3.853296e-004,7.561353e-004
3.733368e-004,5.875872e-004
3.532407e-004,3.731747e-004
3.206656e-004,1.206769e-004
2.799871e-004,-1.587237e-004
2.384984e-004,-4.501171e-004
2.008992e-004,-7.301659e-004
1.717275e-004,-9.706708e-004
1.701068e-004,-1.149753e-003
2.179161e-004,-1.262388e-003
3.192070e-004,-1.320732e-003
4.493454e-004,-1.340180e-003
5.830494e-004,-1.321866e-003
7.144845e-004,-1.262388e-003
8.468920e-004,-1.159963e-003
9.763823e-004,-1.022046e-003
1.092097e-003,-8.591699e-004
1.191281e-003,-6.692294e-004
1.279769e-003,-4.397449e-004
1.359667e-003,-1.742820e-004
1.431787e-003,1.054428e-004
1.484458e-003,3.707437e-004
1.497261e-003,5.984457e-004
1.435190e-003,7.757452e-004
1.249301e-003,8.867600e-004
8.875704e-004,9.235489e-004
3.201794e-004,8.971323e-004
-4.204592e-004,8.361956e-004
-1.234999e-003,7.752590e-004
-2.005296e-003,7.397667e-004
-2.617580e-003,7.313393e-004
-2.986117e-003,7.344186e-004
-3.075091e-003,7.287462e-004
-2.904436e-003,7.013571e-004
-2.546595e-003,6.532237e-004
-2.096053e-003,5.971491e-004
-1.647456e-003,5.482053e-004
-1.262550e-003,5.180612e-004
-9.523575e-004,5.094717e-004
-6.993735e-004,5.084993e-004
-4.961436e-004,4.929411e-004
-3.403989e-004,4.474007e-004
-2.196603e-004,3.653956e-004
-1.135075e-004,2.529222e-004
-4.275467e-006,1.210010e-004
1.214872e-004,-1.043395e-005
2.619979e-004,-1.259865e-004
3.995914e-004,-2.143121e-004
5.114165e-004,-2.700626e-004
5.807805e-004,-2.987481e-004
6.013628e-004,-3.141443e-004
5.742979e-004,-3.318095e-004
5.039615e-004,-3.643846e-004
3.901916e-004,-4.066836e-004
2.333123e-004,-4.400691e-004
2.700314e-005,-4.475241e-004
-2.288980e-004,-4.225660e-004
-5.121881e-004,-3.676259e-004
-7.700340e-004,-2.925897e-004
-9.306407e-004,-2.089640e-004
-9.447403e-004,-1.311726e-004
-8.194639e-004,-6.910160e-005
-6.115342e-004,-2.194059e-005
-3.955011e-004,1.873781e-005
-2.301945e-004,5.990240e-005
-1.323071e-004,1.009049e-004
-7.736692e-005,1.391524e-004
-9.461558e-006,1.670276e-004
1.192183e-004,1.837203e-004
3.164518e-004,1.913374e-004
5.553362e-004,1.937684e-004
7.956792e-004,1.957132e-004
9.972887e-004,1.957132e-004
1.130182e-003,1.942546e-004
1.178964e-003,1.957132e-004
1.143472e-003,2.119197e-004
1.045584e-003,2.466017e-004
9.216042e-004,2.945730e-004
8.102651e-004,3.465960e-004
7.349047e-004,3.924605e-004
7.033019e-004,4.277907e-004
7.039502e-004,4.508040e-004
7.162672e-004,4.616624e-004
7.264773e-004,4.608521e-004
7.274497e-004,4.462662e-004
7.143224e-004,4.245494e-004
6.799645e-004,3.991052e-004
6.212969e-004,3.749574e-004
5.430193e-004,3.592371e-004
4.558281e-004,3.577785e-004
3.756057e-004,3.655576e-004
3.183966e-004,3.692851e-004
2.880904e-004,3.631267e-004
2.723701e-004,3.444891e-004
2.550291e-004,3.164518e-004
2.269918e-004,2.837146e-004
1.931201e-004,2.469258e-004
1.655690e-004,2.057612e-004
1.543865e-004,1.577899e-004
1.551968e-004,1.038221e-004
1.492004e-004,5.179914e-005
1.206769e-004,1.160693e-005
6.654708e-005,-1.270286e-005
9.106227e-007,-2.388537e-005
-5.694670e-005,-3.036798e-005
-9.697683e-005,-4.074016e-005
-1.154523e-004,-5.289507e-005
-1.123730e-004,-5.937768e-005
-9.551824e-005,-5.500191e-005
-7.266703e-005,-4.430560e-005
-4.900550e-005,-3.506788e-005
-2.615429e-005,-3.312309e-005
-8.813297e-006,-3.863332e-005
-5.479652e-007,-4.592625e-005
-1.358292e-006,-5.046408e-005
-7.678839e-006,-4.949169e-005
-1.221667e-005,-4.641245e-005
-9.623623e-006,-4.835724e-005
-7.100305e-007,-5.775702e-005
1.209313e-005,-7.234290e-005
2.538249e-005,-8.790117e-005
3.494434e-005,-9.762509e-005
3.818565e-005,-9.519411e-005
3.040651e-005,-8.287715e-005
1.501031e-005,-6.796714e-005
-5.479652e-007,-5.629844e-005
-7.840905e-006,-4.997789e-005
-9.137427e-006,-4.851930e-005
-1.302700e-005,-5.402952e-005
-2.307504e-005,-6.910160e-005
-3.976777e-005,-8.806324e-005
-5.856735e-005,-1.021629e-004
-7.655660e-005,-1.062146e-004
-1.008664e-004,-1.075111e-004
-1.383035e-004,-1.139937e-004
-1.870851e-004,-1.305243e-004
-2.488320e-004,-1.600202e-004
-3.258130e-004,-2.006986e-004
-4.215936e-004,-2.421874e-004
-5.348772e-004,-2.718453e-004
-6.533470e-004,-2.836761e-004
-7.612825e-004,-2.802727e-004
-8.379394e-004,-2.767073e-004
-8.638698e-004,-2.877277e-004
-8.282154e-004,-3.250027e-004
-7.419967e-004,-3.924218e-004
-6.251476e-004,-4.791268e-004
-5.001953e-004,-5.651835e-004
-3.836704e-004,-6.300096e-004
-2.883759e-004,-6.633950e-004
-2.159328e-004,-6.659881e-004
-1.661787e-004,-6.444334e-004
-1.336036e-004,-6.050515e-004
-1.114006e-004,-5.569181e-004
-9.162867e-005,-5.121881e-004
-6.618442e-005,-4.729683e-004
-2.501983e-005,-4.348830e-004
3.640293e-005,-3.958252e-004
1.182459e-004,-3.622777e-004
2.065715e-004,-3.371576e-004
2.777182e-004,-3.175477e-004
3.106175e-004,-2.995585e-004
2.997591e-004,-2.793003e-004
2.519498e-004,-2.551526e-004
1.885823e-004,-2.229016e-004
1.247285e-004,-1.830335e-004
6.622294e-005,-1.434896e-004
1.241726e-005,-1.172350e-004
-3.701266e-005,-1.195039e-004
-8.336335e-005,-1.536997e-004
-1.199901e-004,-2.075054e-004
-1.089697e-004,-2.587180e-004
-1.682422e-006,-2.887001e-004
2.240746e-004,-2.882139e-004
5.250300e-004,-2.520733e-004
8.212856e-004,-1.653684e-004
1.039588e-003,-3.141010e-006
1.148334e-003,2.472499e-004
1.149468e-003,5.671670e-004
1.071191e-003,9.126905e-004
9.587171e-004,1.236497e-003
8.468920e-004,1.493534e-003
7.308531e-004,1.657382e-003
5.571189e-004,1.723991e-003
2.696149e-004,1.704381e-003
-1.658546e-004,1.621403e-003
-7.500999e-004,1.495478e-003
-1.438878e-003,1.339895e-003
-2.117445e-003,1.159354e-003
-2.620335e-003,9.519104e-004
-2.820972e-003,7.099467e-004
-2.694075e-003,4.399457e-004
-2.319703e-003,1.613553e-004
-1.853441e-003,-9.875954e-005
-1.447143e-003,-3.188442e-004
-1.190756e-003,-4.873921e-004
-1.106482e-003,-5.993792e-004
-1.163529e-003,-6.528608e-004
-1.282971e-003,-6.538332e-004
-1.370324e-003,-6.176926e-004
-1.345528e-003,-5.583767e-004
-1.182004e-003,-4.860956e-004
-8.985517e-004,-4.089525e-004
-5.254775e-004,-3.352128e-004
-8.935975e-005,-2.705488e-004
3.747954e-004,-2.120432e-004
8.177201e-004,-1.545100e-004
1.196791e-003,-9.422172e-005
1.481865e-003,-3.085418e-005
1.669699e-003,3.105477e-005
1.782659e-003,8.129502e-005
1.850889e-003,1.117633e-004
1.902588e-003,1.218114e-004
1.952180e-003,1.190562e-004
1.994803e-003,1.081979e-004
2.020247e-003,9.604298e-005
2.019923e-003,8.972242e-005
1.990103e-003,9.166720e-005
1.929166e-003,9.847395e-005
1.832575e-003,1.059290e-004
1.685582e-003,1.090082e-004
1.462741e-003,1.028497e-004
1.143472e-003,8.745350e-005
7.319876e-004,6.719535e-005
2.572980e-004,4.790957e-005
-2.105846e-004,3.283749e-005
-5.872243e-004,1.533444e-005
-8.382635e-004,-5.409925e-006
-9.800706e-004,-2.745081e-005
-1.034849e-003,-4.398147e-005
-1.011511e-003,-5.046408e-005
-9.196203e-004,-5.013995e-005
-7.810544e-004,-5.095028e-005
-6.214201e-004,-6.148453e-005
-4.540067e-004,-8.077030e-005
-2.799486e-004,-9.827335e-005
-1.000561e-004,-1.002181e-004
7.076078e-005,-8.498399e-005
2.088404e-004,-5.937768e-005
2.947351e-004,-3.134038e-005
3.302274e-004,-9.623623e-006
3.417340e-004,2.207145e-006
3.563199e-004,7.393236e-006
3.854917e-004,1.225520e-005
4.290873e-004,2.181705e-005
4.717105e-004,3.640293e-005
4.932652e-004,5.082674e-005
4.859722e-004,5.909208e-005
4.576108e-004,6.103686e-005
4.242253e-004,6.022653e-005
3.927847e-004,7.011252e-005
3.592371e-004,9.523264e-005
3.104554e-004,1.299146e-004
2.373639e-004,1.649207e-004
1.352628e-004,1.916615e-004
1.176900e-005,2.028440e-004
-1.161005e-004,1.997648e-004
-2.342462e-004,1.856651e-004
-3.332680e-004,1.673517e-004
-4.097628e-004,1.483901e-004
-4.562756e-004,1.286181e-004
-4.651892e-004,1.091703e-004
-4.400691e-004,9.247754e-005
-4.052250e-004,8.129502e-005
-3.890185e-004,7.886404e-005
-3.932322e-004,8.486046e-005
-3.901529e-004,9.409818e-005
-3.491504e-004,1.030118e-004
-2.540181e-004,1.122495e-004
-1.143178e-004,1.373696e-004
4.369587e-005,1.950649e-004
1.971717e-004,2.950592e-004
3.209897e-004,4.318424e-004
3.931088e-004,5.840218e-004
3.955397e-004,7.243705e-004
3.229345e-004,8.323060e-004
1.837203e-004,8.922703e-004
-5.247859e-006,8.987529e-004
-2.194982e-004,8.520781e-004
-4.352071e-004,7.593766e-004
-6.403818e-004,6.310208e-004
-8.288636e-004,4.725208e-004
-9.808809e-004,2.895490e-004
-1.045383e-003,8.875003e-005
-9.734259e-004,-1.099421e-004
-7.570688e-004,-2.734659e-004
-4.400691e-004,-3.849669e-004
-1.054042e-004,-4.483344e-004
1.680000e-004,-4.802613e-004
3.333067e-004,-4.946851e-004
3.871123e-004,-5.023021e-004
3.605336e-004,-5.134846e-004
3.000832e-004,-5.327704e-004
2.419018e-004,-5.595111e-004
2.065715e-004,-5.928966e-004
1.953890e-004,-6.332509e-004
2.047888e-004,-6.792775e-004
2.347709e-004,-7.311383e-004
2.807975e-004,-7.904542e-004
3.297412e-004,-8.557665e-004
3.636129e-004,-9.254546e-004
3.657197e-004,-9.920634e-004
3.326584e-004,-1.045383e-003
2.689667e-004,-1.077148e-003
1.884202e-004,-1.083792e-003
1.140322e-004,-1.060455e-003
6.265751e-005,-1.007460e-003
4.239934e-005,-9.314510e-004
5.098881e-005,-8.395600e-004
7.853991e-005,-7.377830e-004
1.090082e-004,-6.314681e-004
1.287802e-004,-5.266119e-004
1.365593e-004,-4.271038e-004
1.422316e-004,-3.321336e-004
1.516314e-004,-2.407288e-004
1.608691e-004,-1.525652e-004
1.660552e-004,-6.893953e-005
1.642725e-004,5.124321e-006
1.537382e-004,5.974033e-005
1.339663e-004,8.972242e-005
1.047945e-004,1.038221e-004
6.865393e-005,1.150046e-004
3.137890e-005,1.355869e-004
7.485573e-007,1.701068e-004
-1.302700e-005,2.219677e-004
-5.896120e-006,2.871180e-004
1.825161e-005,3.611819e-004
5.277153e-005,4.371906e-004
8.307774e-005,5.140096e-004
9.847395e-005,5.908285e-004
1.004187e-004,6.644063e-004
9.636710e-005,7.287462e-004
9.085688e-005,7.812555e-004
8.469840e-005,8.170719e-004
7.740546e-005,8.290648e-004
6.606088e-005,8.146409e-004
5.034055e-005,7.830382e-004
3.559260e-005,7.434942e-004
3.121684e-005,7.055709e-004
3.721326e-005,6.751026e-004
4.871989e-005,6.512789e-004
6.217132e-005,6.305345e-004
7.529860e-005,6.149763e-004
8.696731e-005,6.073592e-004
9.636710e-005,6.110868e-004
9.701536e-005,6.225934e-004
8.761557e-005,6.328035e-004
7.286763e-005,6.308587e-004
6.184718e-005,6.083316e-004
5.974033e-005,5.668429e-004
6.832980e-005,5.133613e-004
8.745350e-005,4.537212e-004
1.125736e-004,3.893813e-004
1.344524e-004,3.253654e-004
1.438522e-004,2.666978e-004
1.378558e-004,2.149989e-004
1.153287e-004,1.759412e-004
6.995045e-005,1.576278e-004
-2.330684e-006,1.620036e-004
-9.405965e-005,1.837203e-004
-1.878955e-004,2.148369e-004
-2.648765e-004,2.425500e-004
-3.112272e-004,2.548670e-004
-3.222476e-004,2.425500e-004
-3.087962e-004,2.023578e-004
-2.898345e-004,1.415833e-004
-2.867553e-004,7.254349e-005
-3.128478e-004,2.531276e-006
-3.690845e-004,-6.569822e-005
-4.428242e-004,-1.321450e-004
-5.186707e-004,-1.956746e-004
-5.920863e-004,-2.511010e-004
-6.674466e-004,-2.950206e-004
-7.510723e-004,-3.274337e-004
-8.440978e-004,-3.488263e-004
-9.259408e-004,-3.621157e-004
-9.641882e-004,-3.702189e-004
-9.335579e-004,-3.736223e-004
-8.348601e-004,-3.728119e-004
-6.902979e-004,-3.658432e-004
-5.295291e-004,-3.533641e-004
-3.660052e-004,-3.418575e-004
-1.929195e-004,-3.374817e-004
-7.100305e-007,-3.434782e-004
2.091646e-004,-3.580640e-004
4.164462e-004,-3.778360e-004
5.965008e-004,-3.969597e-004
7.272876e-004,-4.071698e-004
7.981102e-004,-4.091146e-004
8.172340e-004,-4.040906e-004
7.992447e-004,-3.909633e-004
7.564594e-004,-3.695707e-004
6.958470e-004,-3.305129e-004
6.264829e-004,-2.449425e-004
5.509604e-004,-9.292520e-005
4.681450e-004,1.159770e-004
3.887330e-004,3.449753e-004
3.410858e-004,5.572810e-004
3.482167e-004,7.250187e-004
4.021844e-004,8.253373e-004
4.640934e-004,8.488368e-004
4.781931e-004,8.011895e-004
4.023465e-004,6.945504e-004
2.341226e-004,5.435055e-004
5.448452e-006,3.568061e-004
-2.173914e-004,1.341283e-004
-3.402368e-004,-1.242038e-004
-2.987481e-004,-4.133283e-004
-9.713889e-005,-7.112043e-004
2.107852e-004,-9.857429e-004
5.522569e-004,-1.219117e-003
8.627744e-004,-1.409706e-003
1.110735e-003,-1.558806e-003
1.290303e-003,-1.662203e-003
1.401967e-003,-1.704827e-003
1.439728e-003,-1.676627e-003
1.379601e-003,-1.580361e-003
1.180261e-003,-1.425426e-003
7.979482e-004,-1.215389e-003
2.284504e-004,-9.573814e-004
-4.651892e-004,-6.625847e-004
-1.192700e-003,-3.530400e-004
-1.882937e-003,-5.613637e-005
-2.476258e-003,2.143507e-004
-2.894550e-003,4.511282e-004
-3.062450e-003,6.574374e-004
-2.950625e-003,8.306854e-004
-2.606559e-003,9.651998e-004
-2.152289e-003,1.056119e-003
-1.726868e-003,1.107169e-003
-1.418944e-003,1.130182e-003
-1.227868e-003,1.142175e-003
-1.079741e-003,1.155141e-003
-8.985517e-004,1.167458e-003
-6.590193e-004,1.175399e-003
-3.895047e-004,1.170213e-003
-1.271210e-004,1.138610e-003
1.085220e-004,1.069246e-003
3.179104e-004,9.642274e-004
5.049339e-004,8.329543e-004
6.634339e-004,6.930918e-004
7.796348e-004,5.559844e-004
8.489988e-004,4.260080e-004
8.815739e-004,3.023522e-004
8.903255e-004,1.889064e-004
8.825464e-004,9.426025e-005
8.575883e-004,2.278944e-005
8.126961e-004,-2.518189e-005
7.551629e-004,-5.710876e-005
7.112432e-004,-8.336335e-005
7.028158e-004,-1.068628e-004
7.368495e-004,-1.289037e-004
8.075100e-004,-1.493239e-004
8.932427e-004,-1.673132e-004
9.684411e-004,-1.844921e-004
1.011226e-003,-2.019951e-004
1.012847e-003,-2.172293e-004
9.780029e-004,-2.277635e-004
9.196594e-004,-2.326255e-004
8.541849e-004,-2.347323e-004
7.974620e-004,-2.379736e-004
7.579181e-004,-2.429977e-004
7.318255e-004,-2.488320e-004
7.165913e-004,-2.515871e-004
7.154569e-004,-2.532078e-004
7.327979e-004,-2.528836e-004
7.652109e-004,-2.493182e-004
8.057273e-004,-2.413770e-004
8.410576e-004,-2.284118e-004
8.477023e-004,-2.096122e-004
8.088066e-004,-1.836818e-004
7.196706e-004,-1.528894e-004
5.893700e-004,-1.212866e-004
4.344354e-004,-9.243900e-005
2.778803e-004,-6.796714e-005
1.406109e-004,-4.787104e-005
3.202716e-005,-3.117831e-005
-5.224680e-005,-1.448558e-005
-1.323071e-004,3.017472e-006
-2.290601e-004,2.262738e-005
-3.577399e-004,4.272347e-005
-5.151053e-004,6.152305e-005
-6.843015e-004,7.772959e-005
-8.440978e-004,9.215340e-005
-9.734259e-004,1.078737e-004
-1.057538e-003,1.313732e-004
-1.090437e-003,1.618415e-004
-1.082496e-003,1.981441e-004
-1.041493e-003,2.409294e-004
-9.641882e-004,2.867939e-004
-8.465288e-004,3.266619e-004
-6.940254e-004,3.532407e-004
-5.253154e-004,3.574544e-004
-3.634122e-004,3.423823e-004
-2.230636e-004,3.132105e-004
-1.062146e-004,2.760976e-004
-9.299493e-006,2.389846e-004
7.448828e-005,2.073819e-004
1.500107e-004,1.824238e-004
2.214815e-004,1.607070e-004
2.927903e-004,1.389903e-004
3.600474e-004,1.130598e-004
4.138531e-004,8.567078e-005
4.464283e-004,6.168512e-005
4.558281e-004,4.304761e-005
4.470765e-004,3.121684e-005
4.232529e-004,2.732727e-005
3.848434e-004,3.591673e-005
3.373583e-004,5.196120e-005
2.929524e-004,6.849186e-005
2.607014e-004,7.870197e-005
2.303951e-004,7.789165e-005
1.879340e-004,6.395404e-005
1.274836e-004,4.013043e-005
5.098881e-005,1.371378e-005
-3.717473e-005,-1.156841e-005
-1.246900e-004,-3.215070e-005
-1.976194e-004,-4.868137e-005
-2.483458e-004,-6.294311e-005
-2.852967e-004,-7.639453e-005
-3.230579e-004,-8.482193e-005
-3.698948e-004,-8.903562e-005
-4.212695e-004,-9.179074e-005
-4.567618e-004,-9.535618e-005
-4.604893e-004,-9.973194e-005
-4.321279e-004,-1.021629e-004
-3.895047e-004,-9.859748e-005
-3.543365e-004,-9.227693e-005
-3.397507e-004,-9.017008e-005
-3.459091e-004,-9.811128e-005
-3.595226e-004,-1.164247e-004
-3.692465e-004,-1.412206e-004
-3.805911e-004,-1.671511e-004
-4.102490e-004,-1.872472e-004
-4.608134e-004,-1.995642e-004
-5.034366e-004,-2.065330e-004
-4.912817e-004,-2.126914e-004
-3.959873e-004,-2.199844e-004
-2.201465e-004,-2.295462e-004
-5.479652e-007,-2.386219e-004
2.023578e-004,-2.428356e-004
3.435168e-004,-2.370013e-004
4.085050e-004,-2.066950e-004
4.110980e-004,-1.386276e-004
3.803056e-004,-3.360929e-005
3.469201e-004,9.199134e-005
3.240689e-004,2.154851e-004
3.128864e-004,3.138588e-004
3.077003e-004,3.747954e-004
3.051073e-004,3.960259e-004
3.021901e-004,3.809539e-004
2.895490e-004,3.365480e-004
2.610255e-004,2.654013e-004
2.250470e-004,1.756171e-004
2.111094e-004,7.157111e-005
2.422259e-004,-4.446767e-005
3.128864e-004,-1.708786e-004
4.081808e-004,-3.055549e-004
5.172509e-004,-4.446069e-004
6.297242e-004,-5.753936e-004
7.535422e-004,-6.841394e-004
8.984288e-004,-7.611204e-004
1.050932e-003,-8.027712e-004
1.168106e-003,-8.131433e-004
1.208298e-003,-8.001782e-004
1.140879e-003,-7.714926e-004
9.608240e-004,-7.324349e-004
6.893643e-004,-6.843015e-004
3.637749e-004,-6.222305e-004
3.316162e-005,-5.480045e-004
-2.574215e-004,-4.614617e-004
-4.786406e-004,-3.626019e-004
-6.199615e-004,-2.530457e-004
-6.922426e-004,-1.361966e-004
-7.180111e-004,-1.545797e-005
-7.308142e-004,1.106288e-004
-7.763545e-004,2.415777e-004
-9.035757e-004,3.809539e-004
-1.135167e-003,5.435055e-004
-1.455246e-003,7.340944e-004
-1.810980e-003,9.347314e-004
-2.139000e-003,1.118676e-003
-2.361678e-003,1.264373e-003
-2.392795e-003,1.364043e-003
-2.174492e-003,1.419145e-003
-1.719899e-003,1.434218e-003
-1.114261e-003,1.408773e-003
-4.721580e-004,1.338113e-003
1.018773e-004,1.225801e-003
5.503122e-004,1.084156e-003
8.668260e-004,9.290591e-004
1.067301e-003,7.697488e-004
1.175723e-003,6.047662e-004
1.204084e-003,4.287631e-004
1.158382e-003,2.423880e-004
1.050770e-003,5.795762e-005
9.066941e-004,-1.067007e-004
7.600249e-004,-2.389460e-004
6.379896e-004,-3.324577e-004
5.486915e-004,-3.843186e-004
4.840274e-004,-3.993907e-004
4.389733e-004,-3.909633e-004
4.141773e-004,-3.744326e-004
4.123946e-004,-3.561192e-004
4.333010e-004,-3.382920e-004
4.662003e-004,-3.138202e-004
4.966686e-004,-2.744383e-004
5.084993e-004,-2.193361e-004
4.921307e-004,-1.600202e-004
4.401077e-004,-1.126972e-004
3.456236e-004,-8.984595e-005
2.010613e-004,-9.568031e-005
5.772582e-006,-1.292278e-004
-2.327876e-004,-1.801163e-004
-5.068399e-004,-2.332737e-004
-8.024471e-004,-2.747625e-004
-1.079255e-003,-2.964792e-004
-1.273247e-003,-3.024756e-004
-1.326080e-003,-2.976137e-004
-1.221548e-003,-2.681178e-004
-9.894704e-004,-1.807646e-004
-6.945116e-004,-2.420950e-005
-4.058733e-004,1.825859e-004
-1.710407e-004,4.023465e-004
-6.706447e-006,5.965008e-004
9.636710e-005,7.326358e-004
1.581140e-004,7.906552e-004
1.949028e-004,7.606731e-004
2.190506e-004,6.478756e-004
2.394708e-004,4.687933e-004
2.592428e-004,2.451431e-004
2.754493e-004,-2.492749e-006
2.837146e-004,-2.608248e-004
2.825802e-004,-5.230465e-004
2.735045e-004,-7.784614e-004
2.600531e-004,-1.009242e-003
2.446569e-004,-1.198211e-003
2.268297e-004,-1.334994e-003
2.088404e-004,-1.413595e-003
1.971717e-004,-1.428830e-003
1.968476e-004,-1.381182e-003
2.085163e-004,-1.280378e-003
2.276400e-004,-1.141326e-003
2.532463e-004,-9.784499e-004
2.921420e-004,-8.019609e-004
3.534027e-004,-6.144513e-004
4.524247e-004,-4.186764e-004
6.242140e-004,-2.199844e-004
8.903255e-004,-3.004385e-005
1.220939e-003,1.378558e-004
1.549284e-003,2.807975e-004
1.810048e-003,4.076947e-004
1.961742e-003,5.234093e-004
1.992048e-003,6.242140e-004
1.916849e-003,7.049226e-004
1.783307e-003,7.608352e-004
1.648793e-003,7.880622e-004
1.546691e-003,7.864416e-004
1.451396e-003,7.614834e-004
1.284631e-003,7.221015e-004
9.650377e-004,6.755888e-004
4.420525e-004,6.303725e-004
-2.919414e-004,5.909906e-004
-1.180221e-003,5.582534e-004
-2.120524e-003,5.310264e-004
-2.953056e-003,5.101200e-004
-3.497921e-003,4.979651e-004
-3.651235e-003,4.924549e-004
-3.433419e-003,4.900239e-004
-2.967966e-003,4.859722e-004
-2.402194e-003,4.757621e-004
-1.839179e-003,4.624728e-004
-1.331914e-003,4.512903e-004
-9.009827e-004,4.486972e-004
-5.598353e-004,4.572867e-004
-3.031239e-004,4.704139e-004
-1.063766e-004,4.767345e-004
5.811968e-005,4.647417e-004
2.043026e-004,4.167703e-004
3.196932e-004,3.218000e-004
3.825745e-004,1.874478e-004
3.824125e-004,4.013043e-005
3.175863e-004,-9.162867e-005
1.992786e-004,-1.875713e-004
5.504044e-005,-2.415391e-004
-7.558420e-005,-2.598524e-004
-1.566169e-004,-2.535319e-004
-1.744440e-004,-2.308428e-004
-1.337657e-004,-1.964849e-004
-4.819517e-005,-1.606685e-004
6.476436e-005,-1.327933e-004
1.837203e-004,-1.149661e-004
2.867939e-004,-1.016767e-004
3.626405e-004,-8.660465e-005
4.132049e-004,-6.116039e-005
4.451317e-004,-2.501983e-005
4.697657e-004,1.452411e-005
4.990995e-004,4.304761e-005
5.470709e-004,5.487838e-005
6.212969e-004,5.244739e-005
7.144845e-004,4.466826e-005
8.062135e-004,3.478228e-005
8.703915e-004,2.035846e-005
8.912979e-004,-1.682422e-006
8.629364e-004,-3.231277e-005
7.851450e-004,-6.618442e-005
6.655407e-004,-9.438378e-005
5.263265e-004,-1.164247e-004
4.016982e-004,-1.459206e-004
3.232586e-004,-2.070192e-004
3.122381e-004,-3.181960e-004
3.574544e-004,-4.697270e-004
4.230909e-004,-6.326026e-004
4.697657e-004,-7.766787e-004
4.759242e-004,-8.744040e-004
4.412422e-004,-9.084377e-004
3.853296e-004,-8.729455e-004
3.350894e-004,-7.737615e-004
3.148312e-004,-6.282268e-004
3.299033e-004,-4.582204e-004
3.655576e-004,-2.883759e-004
3.997535e-004,-1.332795e-004
4.130428e-004,2.531276e-006
3.919743e-004,1.188942e-004
3.269861e-004,2.154851e-004
2.115956e-004,2.953834e-004
4.953022e-005,3.605336e-004
-1.483515e-004,4.104497e-004
-3.679500e-004,4.525868e-004
-5.961379e-004,4.935893e-004
-8.115227e-004,5.388056e-004
-9.855808e-004,5.862907e-004
-1.086872e-003,6.303725e-004
-1.099837e-003,6.626236e-004
-1.029014e-003,6.716992e-004
-8.946622e-004,6.545202e-004
-7.358382e-004,6.088178e-004
-5.971103e-004,5.401021e-004
-5.066779e-004,4.598797e-004
-4.668098e-004,3.770643e-004
-4.587066e-004,2.944109e-004
-4.501171e-004,2.140265e-004
-4.121938e-004,1.402868e-004
-3.285682e-004,7.691926e-005
-2.039399e-004,2.716521e-005
-6.294311e-005,-4.437533e-006
6.103686e-005,-1.626830e-005
1.482280e-004,-1.221667e-005
1.984683e-004,-2.816880e-006
2.206712e-004,7.555301e-006
2.231022e-004,1.630683e-005
2.133783e-004,2.052053e-005
1.961994e-004,1.825161e-005
1.833962e-004,1.452411e-005
1.827479e-004,1.031041e-005
1.974959e-004,4.476060e-006
2.231022e-004,-3.303076e-006
2.459534e-004,-1.124428e-005
2.553532e-004,-1.934754e-005
2.564877e-004,-2.874733e-005
2.663737e-004,-4.171256e-005
2.973281e-004,-6.132246e-005
3.407616e-004,-8.352541e-005
3.874365e-004,-1.028112e-004
4.274666e-004,-1.157764e-004
4.542074e-004,-1.242038e-004
4.610142e-004,-1.332795e-004
4.358940e-004,-1.418689e-004
3.846814e-004,-1.536997e-004
3.209897e-004,-1.720131e-004
2.602152e-004,-1.990780e-004
2.109473e-004,-2.279256e-004
1.809652e-004,-2.522354e-004
1.877720e-004,-2.724935e-004
2.551911e-004,-2.908069e-004
3.921364e-004,-3.086341e-004
5.755944e-004,-3.280820e-004
7.519216e-004,-3.483401e-004
8.690950e-004,-3.658432e-004
8.990770e-004,-3.771877e-004
8.494850e-004,-3.802670e-004
7.426839e-004,-3.742705e-004
5.947181e-004,-3.580640e-004
4.068843e-004,-3.352128e-004
1.717275e-004,-3.113892e-004
-9.665270e-005,-2.914552e-004
-3.497987e-004,-2.767073e-004
-5.433047e-004,-2.707109e-004
-6.705259e-004,-2.705488e-004
-7.747339e-004,-2.605007e-004
-9.184858e-004,-2.188499e-004
-1.142460e-003,-1.313347e-004
-1.445846e-003,-1.034161e-006
-1.777918e-003,1.539003e-004
-2.066232e-003,3.088348e-004
-2.216954e-003,4.391353e-004
-2.138676e-003,5.297299e-004
-1.802552e-003,5.781874e-004
-1.268709e-003,5.901803e-004
-6.533470e-004,5.715428e-004
-8.838737e-005,5.290816e-004
3.273102e-004,4.673347e-004
5.653843e-004,3.850055e-004
6.645683e-004,2.793389e-004
6.864472e-004,1.446626e-004
6.807749e-004,-1.610624e-005
6.674855e-004,-1.883817e-004
6.506307e-004,-3.472056e-004
6.251864e-004,-4.779923e-004
5.798081e-004,-5.740970e-004
5.013684e-004,-6.363301e-004
3.778746e-004,-6.674466e-004
2.033302e-004,-6.703638e-004
-2.356124e-005,-6.454058e-004
-2.896725e-004,-5.904656e-004
-5.805797e-004,-5.087847e-004
-8.786177e-004,-4.055492e-004
-1.143108e-003,-2.885380e-004
-1.300798e-003,-1.674752e-004
-1.280053e-003,-5.208474e-005
-1.060617e-003,5.520250e-005
-6.909461e-004,1.524417e-004
-2.716832e-004,2.388225e-004
9.442231e-005,3.162898e-004
3.491891e-004,3.864641e-004
4.877550e-004,4.488593e-004
5.404262e-004,5.000719e-004
5.441537e-004,5.409124e-004
5.282713e-004,5.742979e-004
5.036374e-004,6.013628e-004
4.728449e-004,6.232416e-004
4.328148e-004,6.397723e-004
3.807918e-004,6.514410e-004
3.167760e-004,6.563030e-004
2.438466e-004,6.561409e-004
1.683241e-004,6.507927e-004
9.993253e-005,6.397723e-004
4.223728e-005,6.222692e-004
-5.409925e-006,5.953664e-004
-3.911951e-005,5.543638e-004
-4.803310e-005,5.010443e-004
-2.826114e-005,4.401077e-004
7.231170e-006,3.769022e-004
3.688912e-005,3.190449e-004
5.455425e-005,2.736666e-004
7.497447e-005,2.431983e-004
1.154908e-004,2.240746e-004
1.796687e-004,2.101370e-004
2.618358e-004,1.944166e-004
3.561579e-004,1.720516e-004
4.561522e-004,1.386662e-004
5.511225e-004,8.858796e-005
6.292380e-004,1.646890e-005
6.799645e-004,-8.141856e-005
7.008709e-004,-1.987538e-004
6.984400e-004,-3.186821e-004
6.836920e-004,-4.230522e-004
6.691061e-004,-4.933886e-004
6.595443e-004,-5.230465e-004
6.509548e-004,-5.173742e-004
6.328035e-004,-4.870680e-004
6.052523e-004,-4.459034e-004
5.738117e-004,-4.016596e-004
5.423710e-004,-3.591985e-004
5.076890e-004,-3.191683e-004
4.647417e-004,-2.827037e-004
4.115842e-004,-2.509389e-004
3.389789e-004,-2.224154e-004
2.331503e-004,-1.989159e-004
9.101894e-005,-1.838438e-004
-6.067420e-005,-1.762268e-004
-1.658546e-004,-1.733096e-004
-1.786577e-004,-1.708786e-004
-9.892161e-005,-1.598582e-004
3.543054e-005,-1.096179e-004
1.725378e-004,1.403791e-005
2.791768e-004,2.161334e-004
3.498373e-004,4.814344e-004
3.987811e-004,7.838485e-004
4.402698e-004,1.084642e-003
4.781931e-004,1.334709e-003
5.041235e-004,1.495965e-003
4.999099e-004,1.551391e-003
4.485351e-004,1.506499e-003
3.393030e-004,1.374902e-003
1.749688e-004,1.167458e-003
-3.247483e-005,8.964840e-004
-2.703867e-004,5.736496e-004
-5.309877e-004,2.101370e-004
-8.055263e-004,-1.809267e-004
-1.074393e-003,-5.744212e-004
-1.301608e-003,-9.397164e-004
-1.439039e-003,-1.249747e-003
-1.437581e-003,-1.488307e-003
-1.275840e-003,-1.647942e-003
-9.961150e-004,-1.728812e-003
-6.794395e-004,-1.737078e-003
-3.966356e-004,-1.681976e-003
-1.836818e-004,-1.575337e-003
-4.527799e-005,-1.429478e-003
3.575467e-005,-1.256716e-003
8.356394e-005,-1.064507e-003
1.245665e-004,-8.591699e-004
1.707551e-004,-6.476747e-004
2.112714e-004,-4.363416e-004
2.240746e-004,-2.337599e-004
1.835583e-004,-5.159854e-005
8.194328e-005,9.588091e-005
-6.423963e-005,1.987924e-004
-2.287359e-004,2.582704e-004
-3.835083e-004,2.843629e-004
-5.112157e-004,2.903593e-004
-6.063480e-004,2.869559e-004
-6.640433e-004,2.871180e-004
-6.800878e-004,3.030004e-004
-6.494574e-004,3.380065e-004
-5.692351e-004,3.845193e-004
-4.428242e-004,4.311941e-004
-2.864312e-004,4.663623e-004
-1.287416e-004,4.859722e-004
3.665733e-006,4.901859e-004
9.636710e-005,4.840274e-004
1.504969e-004,4.704139e-004
1.752929e-004,4.530729e-004
1.808031e-004,4.321665e-004
1.765894e-004,4.085050e-004
1.680000e-004,3.828986e-004
1.610312e-004,3.585888e-004
1.626518e-004,3.367100e-004
1.709172e-004,3.140208e-004
1.788584e-004,2.850112e-004
1.806411e-004,2.469258e-004
1.765894e-004,2.021958e-004
1.694586e-004,1.537382e-004
1.675138e-004,1.062531e-004
1.863134e-004,6.411610e-005
2.453052e-004,3.170304e-005
3.475684e-004,6.096713e-006
4.715484e-004,-1.594417e-005
5.867769e-004,-3.393342e-005
6.997365e-004,-4.576419e-005
8.703915e-004,-4.819517e-005
1.143796e-003,-3.960571e-005
1.480082e-003,-2.501983e-005
1.777311e-003,-1.254080e-005
1.939377e-003,-6.868513e-006
1.930949e-003,-1.010982e-005
1.803727e-003,-1.691656e-005
1.656410e-003,-2.258885e-005
1.581211e-003,-2.939559e-005
1.623834e-003,-3.830919e-005
1.757701e-003,-4.997789e-005
1.884923e-003,-5.856735e-005
1.871795e-003,-6.278104e-005
1.609573e-003,-5.613637e-005
1.057415e-003,-3.360929e-005
2.336365e-004,6.744974e-006
-7.914266e-004,5.795762e-005
-1.900278e-003,1.094944e-004
-2.974286e-003,1.579519e-004
-3.903410e-003,1.986303e-004
-4.609047e-003,2.331503e-004
-4.968512e-003,2.602152e-004
-4.968188e-003,2.807975e-004
-4.968350e-003,2.970040e-004
-4.804338e-003,3.021901e-004
-4.282160e-003,2.769079e-004
-3.628060e-003,2.031682e-004
-2.899736e-003,8.502253e-005
-2.134786e-003,-4.819517e-005
-1.351686e-003,-1.611547e-004
-5.775004e-004,-2.258187e-004
1.315353e-004,-2.361909e-004
7.039502e-004,-1.990780e-004
1.100200e-003,-1.298761e-004
1.322554e-003,-4.009191e-005
1.396294e-003,6.055066e-005
1.357561e-003,1.691344e-004
1.255459e-003,2.791768e-004
1.141689e-003,3.788470e-004
1.054336e-003,4.589073e-004
1.006527e-003,5.183853e-004
9.874027e-004,5.587396e-004
9.784892e-004,5.849942e-004
9.676307e-004,6.039558e-004
9.442933e-004,6.217830e-004
9.070183e-004,6.413930e-004
8.682846e-004,6.624615e-004
8.397611e-004,6.747784e-004
8.227442e-004,6.702406e-004
8.120479e-004,6.475514e-004
8.000550e-004,6.083316e-004
7.853071e-004,5.566327e-004
7.707212e-004,4.914824e-004
7.546768e-004,4.140152e-004
7.357151e-004,3.281205e-004
7.152948e-004,2.383363e-004
7.026537e-004,1.496866e-004
7.013571e-004,5.925414e-005
7.037881e-004,-3.555408e-005
6.964952e-004,-1.313347e-004
6.736440e-004,-2.217671e-004
6.375034e-004,-2.998826e-004
5.892079e-004,-3.666535e-004
5.376711e-004,-4.230522e-004
4.901859e-004,-4.692408e-004
4.582590e-004,-5.035987e-004
4.480489e-004,-5.261258e-004
4.564763e-004,-5.381186e-004
4.775448e-004,-5.454115e-004
5.005581e-004,-5.501114e-004
5.157923e-004,-5.556216e-004
5.190336e-004,-5.646973e-004
5.088235e-004,-5.745832e-004
4.869446e-004,-5.799314e-004
4.561522e-004,-5.817142e-004
4.211461e-004,-5.810658e-004
3.794953e-004,-5.744212e-004
3.302274e-004,-5.612939e-004
2.773941e-004,-5.410357e-004
2.248849e-004,-5.155915e-004
1.822617e-004,-4.831784e-004
1.576278e-004,-4.433104e-004
1.498487e-004,-4.006872e-004
1.516314e-004,-3.624398e-004
1.561692e-004,-3.361852e-004
1.582761e-004,-3.219235e-004
1.530900e-004,-3.143064e-004
1.417454e-004,-3.040963e-004
1.323456e-004,-2.891863e-004
1.255389e-004,-2.705488e-004
1.177597e-004,-2.486699e-004
1.041462e-004,-2.248464e-004
7.999851e-005,-2.028055e-004
4.774750e-005,-1.862748e-004
1.112074e-005,-1.759026e-004
-2.566809e-005,-1.702304e-004
-5.889148e-005,-1.614788e-004
-8.222889e-005,-1.434896e-004
-9.195280e-005,-1.148040e-004
-9.341139e-005,-8.077030e-005
-9.827335e-005,-4.122636e-005
-1.099421e-004,1.744129e-005
-1.225832e-004,1.083599e-004
-1.285796e-004,2.307193e-004
-1.267968e-004,3.574544e-004
-1.263107e-004,4.553419e-004
-1.394379e-004,5.084993e-004
-1.694200e-004,5.206542e-004
-2.099363e-004,5.054200e-004
-2.528836e-004,4.775448e-004
-2.943724e-004,4.443214e-004
-3.339163e-004,4.083429e-004
-3.669776e-004,3.681507e-004
-3.852910e-004,3.205035e-004
-3.851289e-004,2.615117e-004
-3.640605e-004,1.793446e-004
-3.331060e-004,6.881599e-005
-3.023136e-004,-6.731888e-005
-2.767073e-004,-2.164190e-004
-2.587180e-004,-3.591985e-004
-2.438080e-004,-4.752372e-004
-2.233878e-004,-5.499493e-004
-1.919471e-004,-5.797693e-004
-1.494860e-004,-5.676145e-004
-1.003802e-004,-5.199672e-004
-5.273300e-005,-4.387725e-004
-1.659243e-005,-3.279199e-004
-5.247859e-006,-1.900023e-004
-2.096820e-005,-3.393342e-005
-5.435365e-005,1.304008e-004
-8.822530e-005,3.127243e-004
-1.065387e-004,5.261644e-004
-1.015147e-004,7.561353e-004
-8.190475e-005,9.697376e-004
-5.905355e-005,1.131155e-003
-4.398147e-005,1.219319e-003
-4.576419e-005,1.235849e-003
-6.407757e-005,1.190309e-003
-9.470791e-005,1.091611e-003
-1.267968e-004,9.520725e-004
-1.554824e-004,7.733142e-004
-1.856265e-004,5.564707e-004
-2.222533e-004,3.020280e-004
-2.634179e-004,1.403791e-005
-3.023136e-004,-2.929138e-004
-3.295405e-004,-5.943552e-004
-3.369955e-004,-8.632215e-004
-3.186821e-004,-1.076824e-003
-2.616352e-004,-1.222358e-003
-1.579134e-004,-1.297232e-003
-1.934754e-005,-1.305660e-003
1.304008e-004,-1.254447e-003
2.585945e-004,-1.151860e-003
3.349273e-004,-1.016373e-003
3.362238e-004,-8.687317e-004
2.605393e-004,-7.283832e-004
1.221355e-004,-6.044033e-004
-5.824322e-005,-4.977643e-004
-2.690902e-004,-4.032803e-004
-5.035987e-004,-3.070135e-004
-7.598239e-004,-2.011848e-004
-1.020263e-003,-8.206682e-005
-1.234513e-003,4.158902e-005
-1.340504e-003,1.540623e-004
-1.293829e-003,2.394708e-004
-1.084117e-003,2.897111e-004
-7.413484e-004,3.059176e-004
-3.365093e-004,3.038107e-004
3.705119e-005,3.017039e-004
2.976523e-004,3.098072e-004
4.123946e-004,3.260137e-004
4.021844e-004,3.443271e-004
3.162898e-004,3.585888e-004
2.078681e-004,3.694472e-004
1.125736e-004,3.859779e-004
4.888196e-005,4.180668e-004
3.510641e-005,4.678209e-004
8.178122e-005,5.268127e-004
1.675138e-004,5.833735e-004
2.406053e-004,6.300483e-004
2.328261e-004,6.614891e-004
9.636710e-005,6.767232e-004
-1.679614e-004,6.798024e-004
-5.222362e-004,6.770474e-004
-8.891520e-004,6.738061e-004
-1.173901e-003,6.689441e-004
-1.301446e-003,6.567892e-004
-1.253799e-003,6.311828e-004
-1.063534e-003,5.924492e-004
-7.938576e-004,5.512846e-004
-5.034366e-004,5.242196e-004
-2.306807e-004,5.157923e-004
1.371378e-005,5.156302e-004
2.357433e-004,5.127130e-004
4.401077e-004,5.034753e-004
6.261588e-004,4.924549e-004
7.828761e-004,4.864584e-004
8.963220e-004,4.871067e-004
9.629308e-004,4.913204e-004
9.940475e-004,4.914824e-004
1.007985e-003,4.841895e-004
1.018843e-003,4.681450e-004
1.031647e-003,4.417284e-004
1.041533e-003,4.044533e-004
1.037319e-003,3.584268e-004
1.003285e-003,3.070520e-004
9.357039e-004,2.684805e-004
8.483506e-004,2.739907e-004
7.614834e-004,3.357376e-004
6.986021e-004,4.350837e-004
6.747784e-004,5.368608e-004
6.851507e-004,6.115729e-004
7.036261e-004,6.434998e-004
7.050846e-004,6.303725e-004
6.786680e-004,5.835356e-004
6.302104e-004,5.128751e-004
5.762426e-004,4.222805e-004
5.341057e-004,3.122381e-004
5.078511e-004,1.848548e-004
4.905101e-004,4.369587e-005
4.777069e-004,-1.060525e-004
4.692795e-004,-2.603387e-004
4.579349e-004,-4.118697e-004
4.274666e-004,-5.583767e-004
3.645853e-004,-6.977529e-004
2.725321e-004,-8.299981e-004
1.589243e-004,-9.486300e-004
3.397195e-005,-1.047976e-003
-8.692878e-005,-1.116854e-003
-1.956746e-004,-1.153967e-003
-2.912931e-004,-1.166770e-003
-3.721637e-004,-1.166284e-003
-4.254832e-004,-1.157046e-003
-4.369898e-004,-1.137274e-003
-4.057112e-004,-1.102430e-003
-3.449367e-004,-1.047976e-003
-2.708729e-004,-9.739121e-004
-1.995642e-004,-8.873693e-004
-1.420310e-004,-7.920748e-004
-1.060525e-004,-6.969426e-004
-9.308726e-005,-6.084549e-004
-1.047560e-004,-5.330946e-004
-1.436516e-004,-4.732924e-004
-2.120432e-004,-4.259694e-004
-2.972895e-004,-3.872358e-004
-3.778360e-004,-3.596847e-004
-4.246728e-004,-3.559572e-004
-4.147869e-004,-3.828600e-004
-3.450988e-004,-4.251591e-004
-2.253326e-004,-4.601652e-004
-7.769106e-005,-4.731304e-004
7.092284e-005,-4.634065e-004
1.963614e-004,-4.361795e-004
2.856594e-004,-3.993907e-004
3.427064e-004,-3.595226e-004
3.880847e-004,-3.156029e-004
4.380009e-004,-2.596904e-004
4.931031e-004,-1.835197e-004
5.329712e-004,-8.871149e-005
5.269747e-004,2.149292e-005
4.509661e-004,1.342904e-004
3.004074e-004,2.292607e-004
8.972242e-005,2.939248e-004
-1.603444e-004,3.253654e-004
-4.288866e-004,3.363859e-004
-7.031010e-004,3.451374e-004
-9.807189e-004,3.723644e-004
-1.248451e-003,4.264942e-004
-1.459460e-003,4.989374e-004
-1.547623e-003,5.767288e-004
-1.468697e-003,6.469032e-004
-1.232893e-003,7.031399e-004
-8.964449e-004,7.446287e-004
-5.339049e-004,7.712074e-004
-2.126914e-004,7.770417e-004
2.748934e-005,7.496527e-004
1.786963e-004,6.716992e-004
2.555152e-004,5.337815e-004
2.809595e-004,3.459477e-004
2.751252e-004,1.407730e-004
2.469258e-004,-4.641245e-005
1.981441e-004,-1.916230e-004
1.328318e-004,-2.898345e-004
7.076078e-005,-3.387782e-004
3.170304e-005,-3.337542e-004
2.408596e-005,-2.802727e-004
4.693717e-005,-1.921092e-004
9.344993e-005,-8.449780e-005
1.540623e-004,2.651694e-005
2.158093e-004,1.273216e-004
2.717218e-004,2.094887e-004
3.164518e-004,2.762596e-004
3.454615e-004,3.358997e-004
3.589129e-004,3.893813e-004
3.618301e-004,4.386491e-004
3.534027e-004,4.822447e-004
3.339549e-004,5.211404e-004
3.038107e-004,5.537156e-004
2.595669e-004,5.788357e-004
2.018716e-004,5.971491e-004
1.394765e-004,6.104385e-004
8.194328e-005,6.190279e-004
3.980630e-005,6.149763e-004
2.181705e-005,5.901803e-004
3.105477e-005,5.370228e-004
6.314371e-005,4.545315e-004
1.025256e-004,3.485408e-004
1.368834e-004,2.297469e-004
1.647587e-004,1.094944e-004
1.926339e-004,-3.789272e-006
2.235884e-004,-9.892161e-005
2.608634e-004,-1.713648e-004
3.023522e-004,-2.177155e-004
3.352514e-004,-2.423494e-004
3.438409e-004,-2.515871e-004
3.245551e-004,-2.532078e-004
2.806354e-004,-2.501286e-004
2.208333e-004,-2.418632e-004
1.610312e-004,-2.284118e-004
1.175977e-004,-2.117191e-004
1.036600e-004,-1.925954e-004
1.305629e-004,-1.760647e-004
1.937684e-004,-1.665028e-004
2.801492e-004,-1.629374e-004
3.715541e-004,-1.536997e-004
4.441593e-004,-1.128592e-004
4.777069e-004,-1.950961e-005
4.627969e-004,1.235941e-004
3.966742e-004,2.895490e-004
2.796630e-004,4.438352e-004
1.198666e-004,5.577672e-004
-6.521203e-005,6.172452e-004
-2.493182e-004,6.211348e-004
-4.045768e-004,5.781874e-004
-5.164018e-004,5.029891e-004
-5.852795e-004,4.047775e-004
-6.253097e-004,2.905214e-004
-6.533470e-004,1.611932e-004
-6.802498e-004,1.792748e-005
-7.071526e-004,-1.400862e-004
-7.240074e-004,-3.131719e-004
-7.189835e-004,-4.925782e-004
-6.877048e-004,-6.658260e-004
-6.309819e-004,-8.210845e-004
-5.559457e-004,-9.484679e-004
-4.658375e-004,-1.045059e-003
-3.626019e-004,-1.107454e-003
-2.449425e-004,-1.128360e-003
-1.143178e-004,-1.103402e-003
2.116879e-005,-1.033552e-003
1.470936e-004,-9.285338e-004
2.485465e-004,-8.021229e-004
3.354135e-004,-6.689052e-004
4.258460e-004,-5.374703e-004
5.222749e-004,-4.143007e-004
6.029835e-004,-3.016653e-004
6.491721e-004,-2.002124e-004
6.718613e-004,-1.086455e-004
7.174017e-004,-3.053005e-005
8.285785e-004,3.283749e-005
1.011226e-003,8.388807e-005
1.225639e-003,1.250527e-004
1.417687e-003,1.629760e-004
1.548636e-003,2.004130e-004
1.599525e-003,2.388225e-004
1.575701e-003,2.759355e-004
1.489968e-003,3.083486e-004
1.349295e-003,3.346032e-004
1.154330e-003,3.512959e-004
8.812498e-004,3.589129e-004
4.898618e-004,3.592371e-004
-6.148453e-005,3.548613e-004
-7.802441e-004,3.499994e-004
-1.617474e-003,3.480546e-004
-2.473179e-003,3.462718e-004
-3.204582e-003,3.417340e-004
-3.661284e-003,3.354135e-004
-3.753013e-003,3.248792e-004
-3.489170e-003,3.124002e-004
-2.967155e-003,2.995970e-004
-2.317920e-003,2.879283e-004
-1.655559e-003,2.807975e-004
-1.053972e-003,2.812837e-004
-5.484907e-004,2.882525e-004
-1.470550e-004,2.978143e-004
1.542244e-004,3.065659e-004
3.508097e-004,3.114278e-004
4.297355e-004,3.068900e-004
3.877606e-004,2.885766e-004
2.563256e-004,2.550291e-004
1.052807e-004,2.093267e-004
6.258778e-006,1.556830e-004
-1.448558e-005,9.977047e-005
2.424803e-005,4.969229e-005
8.453633e-005,1.338965e-005
1.428799e-004,-6.382317e-006
1.931201e-004,-1.513384e-005
2.459534e-004,-1.740276e-005
3.034866e-004,-1.902341e-005
3.508097e-004,-2.145439e-005
3.723644e-004,-2.226472e-005
3.613439e-004,-1.626830e-005
3.290929e-004,-4.923729e-006
2.921420e-004,6.744974e-006
2.607014e-004,1.582063e-005
2.362295e-004,4.077869e-005
2.174299e-004,1.169494e-004
2.044647e-004,2.595669e-004
1.963614e-004,4.490213e-004
1.974959e-004,6.467411e-004
2.112714e-004,8.144788e-004
2.433604e-004,9.256558e-004
2.984626e-004,9.713583e-004
3.751195e-004,9.527208e-004
4.595556e-004,8.724983e-004
5.324850e-004,7.363633e-004
5.874252e-004,5.527431e-004
6.563030e-004,3.308757e-004
7.866036e-004,7.529860e-005
9.852959e-004,-2.070192e-004
1.205057e-003,-4.995471e-004
1.376684e-003,-7.818647e-004
1.456258e-003,-1.027232e-003
1.442645e-003,-1.213607e-003
1.370202e-003,-1.327863e-003
1.287386e-003,-1.364328e-003
1.228394e-003,-1.332076e-003
1.210405e-003,-1.251368e-003
1.221263e-003,-1.144243e-003
1.212188e-003,-1.025449e-003
1.112193e-003,-9.003344e-004
8.559676e-004,-7.716547e-004
4.098015e-004,-6.376266e-004
-2.086398e-004,-4.967919e-004
-9.144342e-004,-3.502849e-004
-1.578254e-003,-2.042641e-004
-2.046623e-003,-6.634648e-005
-2.188754e-003,5.471631e-005
-1.958135e-003,1.558451e-004
-1.420726e-003,2.354192e-004
-7.236833e-004,2.910076e-004
-4.236082e-005,3.235827e-004
4.733311e-004,3.383307e-004
7.443045e-004,3.438409e-004
7.669937e-004,3.467581e-004
5.919630e-004,3.535648e-004
3.005694e-004,3.678266e-004
-2.971972e-005,3.910019e-004
-3.676259e-004,4.203358e-004
-7.018045e-004,4.522626e-004
-9.914152e-004,4.806241e-004
-1.165149e-003,5.003960e-004
-1.170011e-003,5.101200e-004
-1.009404e-003,5.091476e-004
-7.475069e-004,4.963444e-004
-4.659995e-004,4.699278e-004
-2.284118e-004,4.342734e-004
-5.986387e-005,4.015361e-004
4.564065e-005,3.798194e-004
1.109530e-004,3.700955e-004
1.563313e-004,3.665301e-004
1.898788e-004,3.650715e-004
2.034923e-004,3.555096e-004
1.793446e-004,3.344411e-004
1.185701e-004,3.055935e-004
4.645098e-005,2.752873e-004
-2.006553e-006,2.470879e-004
-5.479652e-007,2.205092e-004
6.152305e-005,1.910133e-004
1.701068e-004,1.555210e-004
2.921420e-004,1.120874e-004
3.921364e-004,6.687121e-005
4.504799e-004,2.408596e-005
4.640934e-004,-1.286493e-005
4.444835e-004,-4.495386e-005
4.093153e-004,-7.963584e-005
3.757678e-004,-1.319829e-004
3.542131e-004,-2.128535e-004
3.487029e-004,-3.196545e-004
3.487029e-004,-4.347209e-004
3.438409e-004,-5.314739e-004
3.273102e-004,-5.875485e-004
2.968419e-004,-5.967862e-004
2.537325e-004,-5.710179e-004
2.017096e-004,-5.272602e-004
1.487142e-004,-4.773441e-004
1.028497e-004,-4.259694e-004
7.173317e-005,-3.726499e-004
6.006447e-005,-3.185201e-004
6.589881e-005,-2.666592e-004
8.275361e-005,-2.165810e-004
1.046324e-004,-1.647201e-004
1.260251e-004,-1.094559e-004
1.448246e-004,-4.722278e-005
1.571416e-004,1.873781e-005
1.615174e-004,8.242948e-005
1.558451e-004,1.386662e-004
1.329939e-004,1.932822e-004
9.377406e-005,2.696149e-004
4.807163e-005,3.875985e-004
6.420843e-006,5.433434e-004
-1.805102e-005,7.102708e-004
-2.420950e-005,8.556435e-004
-1.918548e-005,9.580689e-004
-1.383732e-005,1.006689e-003
-1.821308e-005,1.004582e-003
-3.393342e-005,9.556379e-004
-6.051213e-005,8.630985e-004
-8.692878e-005,7.347427e-004
-9.924574e-005,5.786736e-004
-9.341139e-005,4.034809e-004
-7.833932e-005,2.128921e-004
-6.569822e-005,1.290346e-005
-6.310517e-005,-1.853024e-004
-7.444975e-005,-3.681121e-004
-9.503204e-005,-5.212637e-004
-1.143178e-004,-6.334129e-004
-1.250141e-004,-7.005080e-004
-1.230693e-004,-7.244936e-004
-1.086455e-004,-7.103939e-004
-8.077030e-005,-6.653398e-004
-3.976777e-005,-5.975965e-004
1.112074e-005,-5.183466e-004
6.411610e-005,-4.363416e-004
1.026876e-004,-3.562813e-004
1.122495e-004,-2.885380e-004
8.956036e-005,-2.499665e-004
4.029250e-005,-2.493182e-004
-2.242678e-005,-2.833519e-004
-8.417367e-005,-3.379679e-004
-1.357104e-004,-3.891806e-004
-1.741199e-004,-4.193247e-004
-2.011848e-004,-4.180282e-004
-2.183637e-004,-3.771877e-004
-2.329496e-004,-2.961551e-004
-2.540181e-004,-1.900023e-004
-2.867553e-004,-8.514606e-005
-3.334301e-004,2.855407e-006
-3.903150e-004,7.400208e-005
-4.455793e-004,1.385041e-004
-4.810716e-004,2.005751e-004
-4.826922e-004,2.550291e-004
-4.446069e-004,2.940868e-004
-3.762153e-004,3.240689e-004
-2.982619e-004,3.683128e-004
-2.301945e-004,4.461041e-004
-1.969711e-004,5.566327e-004
-2.123673e-004,6.819093e-004
-2.686040e-004,7.961654e-004
-3.376438e-004,8.760638e-004
-3.844807e-004,9.120423e-004
-3.718396e-004,9.003736e-004
-2.679557e-004,8.430023e-004
-5.694670e-005,7.443045e-004
2.491947e-004,6.133557e-004
6.049282e-004,4.561522e-004
9.454277e-004,2.756114e-004
1.211053e-003,7.254349e-005
1.369067e-003,-1.483515e-004
1.418821e-003,-3.773498e-004
1.371174e-003,-5.982448e-004
1.247356e-003,-7.941817e-004
1.069732e-003,-9.507368e-004
8.577504e-004,-1.060293e-003
6.200004e-004,-1.116043e-003
3.474063e-004,-1.119609e-003
2.133085e-005,-1.079255e-003
-3.656811e-004,-1.007622e-003
-7.966127e-004,-9.184858e-004
-1.230462e-003,-8.230293e-004
-1.603374e-003,-7.240074e-004
-1.855548e-003,-6.206098e-004
-1.963321e-003,-5.128364e-004
-1.958459e-003,-4.063595e-004
-1.902547e-003,-3.078238e-004
-1.827996e-003,-2.224154e-004
-1.717306e-003,-1.478653e-004
-1.532713e-003,-8.271508e-005
-1.249747e-003,-2.129233e-005
-8.786177e-004,4.256141e-005
-4.629203e-004,1.093323e-004
-6.067420e-005,1.705930e-004
2.736666e-004,2.239125e-004
5.091476e-004,2.683184e-004
6.457687e-004,3.064038e-004
7.010330e-004,3.391410e-004
7.039502e-004,3.632887e-004
6.780197e-004,3.796573e-004
6.473894e-004,3.935950e-004
6.238899e-004,4.099636e-004
6.102764e-004,4.269804e-004
6.050903e-004,4.399457e-004
6.076833e-004,4.462662e-004
6.156246e-004,4.491834e-004
6.162729e-004,4.503179e-004
6.031455e-004,4.498317e-004
5.817529e-004,4.516144e-004
5.613327e-004,4.563143e-004
5.443158e-004,4.634451e-004
5.295678e-004,4.721967e-004
5.156302e-004,4.788414e-004
4.918066e-004,4.824068e-004
4.475628e-004,5.039615e-004
3.903536e-004,5.833735e-004
3.587509e-004,7.409012e-004
3.971604e-004,9.545035e-004
5.128751e-004,1.173454e-003
6.725095e-004,1.348809e-003
8.295510e-004,1.449938e-003
9.395934e-004,1.463389e-003
9.765443e-004,1.389325e-003
9.365142e-004,1.241359e-003
8.449472e-004,1.039426e-003
7.245325e-004,8.023240e-004
5.853184e-004,5.388056e-004
4.318424e-004,2.530843e-004
2.647530e-004,-5.419158e-005
8.972242e-005,-3.726499e-004
-7.704279e-005,-6.826808e-004
-2.188499e-004,-9.611089e-004
-3.347266e-004,-1.188162e-003
-4.329382e-004,-1.352497e-003
-5.288809e-004,-1.447467e-003
-6.309819e-004,-1.475018e-003
-7.416725e-004,-1.443577e-003
-8.507425e-004,-1.364814e-003
-9.429576e-004,-1.252988e-003
-1.003732e-003,-1.123174e-003
-1.012808e-003,-9.847705e-004
-9.426335e-004,-8.408565e-004
-7.744097e-004,-6.977529e-004
-5.129984e-004,-5.606457e-004
-1.890299e-004,-4.311555e-004
1.490383e-004,-3.170615e-004
4.512903e-004,-2.287359e-004
6.783439e-004,-1.750923e-004
8.125341e-004,-1.532135e-004
8.682846e-004,-1.485136e-004
8.773603e-004,-1.431655e-004
8.721742e-004,-1.216107e-004
8.669881e-004,-8.109443e-005
8.629364e-004,-2.631635e-005
8.457575e-004,3.267542e-005
7.911414e-004,8.356394e-005
6.736440e-004,1.177597e-004
4.739794e-004,1.367214e-004
1.832341e-004,1.482280e-004
-1.890299e-004,1.639484e-004
-6.176926e-004,1.910133e-004
-1.056565e-003,2.292607e-004
-1.432719e-003,2.728562e-004
-1.673710e-003,3.149933e-004
-1.739509e-003,3.509718e-004
-1.640811e-003,3.816021e-004
-1.433691e-003,4.052637e-004
-1.190107e-003,4.256839e-004
-9.577056e-004,4.485351e-004
-7.398899e-004,4.760863e-004
-5.131605e-004,5.075270e-004
-2.632558e-004,5.358884e-004
-1.844488e-006,5.509604e-004
2.401191e-004,5.527431e-004
4.274666e-004,5.412365e-004
5.449640e-004,5.109303e-004
5.937457e-004,4.550177e-004
5.914768e-004,3.723644e-004
5.584154e-004,2.748010e-004
5.070407e-004,1.842065e-004
4.472386e-004,1.185701e-004
3.906778e-004,8.745350e-005
3.449753e-004,8.210535e-005
3.111037e-004,8.826383e-005
2.812837e-004,9.507057e-005
2.538946e-004,9.798775e-005
2.326641e-004,9.409818e-005
2.252090e-004,8.583286e-005
2.305572e-004,7.238143e-005
2.425500e-004,5.147500e-005
2.525981e-004,2.311357e-005
2.490327e-004,-1.027188e-005
2.278021e-004,-4.349527e-005
1.910133e-004,-6.829127e-005
1.438522e-004,-8.012204e-005
9.620504e-005,-8.482193e-005
5.957827e-005,-8.401160e-005
4.450620e-005,-8.028410e-005
5.779555e-005,-7.882551e-005
9.847395e-005,-8.093236e-005
1.568175e-004,-8.433573e-005
2.179161e-004,-9.162867e-005
2.662116e-004,-1.021629e-004
2.960316e-004,-1.133454e-004
3.036487e-004,-1.208004e-004
2.978143e-004,-1.196660e-004
2.887387e-004,-1.107524e-004
2.829043e-004,-9.989401e-005
2.746390e-004,-9.470791e-005
2.542187e-004,-1.002181e-004
2.179161e-004,-1.115627e-004
1.717275e-004,-1.180453e-004
1.222976e-004,-1.157764e-004
7.432621e-005,-1.075111e-004
3.202716e-005,-9.811128e-005
4.476060e-006,-9.179074e-005
-4.113403e-006,-9.065628e-005
-2.238346e-007,-9.600444e-005
1.128280e-005,-1.047560e-004
3.154097e-005,-1.102662e-004
6.622294e-005,-1.130213e-004
1.177597e-004,-1.151281e-004
1.855030e-004,-1.211246e-004
2.655633e-004,-1.344139e-004
3.401134e-004,-1.546721e-004
3.793332e-004,-1.768750e-004
3.623164e-004,-1.950263e-004
2.851732e-004,-2.071812e-004
1.692965e-004,-2.110708e-004
5.034055e-005,-2.058847e-004
-4.349527e-005,-1.963229e-004
-1.018388e-004,-1.867610e-004
-1.313347e-004,-1.789819e-004
-1.524032e-004,-1.728234e-004
-1.729855e-004,-1.661787e-004
-1.877334e-004,-1.567789e-004
-1.896782e-004,-1.441378e-004
-1.789819e-004,-1.306864e-004
-1.606685e-004,-1.193418e-004
-1.426792e-004,-1.112386e-004
-1.251762e-004,-1.026491e-004
-1.131834e-004,-9.324933e-005
-1.135075e-004,-8.628052e-005
-1.253383e-004,-8.222889e-005
-1.405724e-004,-7.558420e-005
-1.627754e-004,-6.197072e-005
-2.084778e-004,-4.009191e-005
-2.802727e-004,-1.254080e-005
-3.569296e-004,1.452411e-005
-4.006872e-004,3.526847e-005
-3.791325e-004,5.293359e-005
-2.904828e-004,7.011252e-005
-1.549962e-004,8.939829e-005
-1.075808e-005,1.114392e-004
1.007429e-004,1.368834e-004
1.573037e-004,1.628139e-004
1.563313e-004,1.877720e-004
1.064152e-004,2.102990e-004
2.505836e-005,2.312055e-004
-6.926366e-005,2.487085e-004
-1.616409e-004,2.581083e-004
-2.318152e-004,2.610255e-004
-2.481838e-004,2.632944e-004
-1.773612e-004,2.662116e-004
-5.571990e-006,2.728562e-004
2.435224e-004,2.867939e-004
5.110924e-004,3.064038e-004
7.298806e-004,3.295791e-004
8.481885e-004,3.692851e-004
8.519160e-004,4.435111e-004
7.629421e-004,5.504743e-004
6.248623e-004,6.686199e-004
4.785172e-004,7.759072e-004
3.498373e-004,8.572642e-004
2.435224e-004,9.075044e-004
1.493625e-004,9.251696e-004
6.379197e-005,9.045873e-004
-7.516774e-006,8.483506e-004
-6.197072e-005,7.634282e-004
-1.118868e-004,6.584098e-004
-1.979435e-004,5.360505e-004
-3.729740e-004,3.981328e-004
-6.648536e-004,2.485465e-004
-1.056890e-003,9.555677e-005
-1.497221e-003,-5.856735e-005
-1.899143e-003,-2.178775e-004
-2.165255e-003,-3.826980e-004
-2.229433e-003,-5.481666e-004
-2.074660e-003,-7.050458e-004
-1.739833e-003,-8.371290e-004
-1.310684e-003,-9.197823e-004
-8.851003e-004,-9.374474e-004
-5.390910e-004,-8.912588e-004
-3.071755e-004,-8.026091e-004
-1.737958e-004,-7.006701e-004
-8.968389e-005,-6.063480e-004
-2.238346e-007,-5.277464e-004
1.195424e-004,-4.603272e-004
2.632944e-004,-4.026320e-004
4.081808e-004,-3.622777e-004
5.269747e-004,-3.450988e-004
6.054144e-004,-3.541745e-004
6.449584e-004,-3.846427e-004
6.590580e-004,-4.277521e-004
6.618132e-004,-4.723200e-004
6.592202e-004,-5.125122e-004
6.535479e-004,-5.439529e-004
