-1.244075e-003,-1.582375e-004
-1.230786e-003,-1.114006e-004
-1.067586e-003,-7.299116e-005
-7.765166e-004,-4.835724e-005
-4.094387e-004,-3.425755e-005
-2.826114e-005,-2.388537e-005
3.039728e-004,-1.092015e-005
5.483674e-004,1.014835e-005
6.880678e-004,4.191315e-005
7.107570e-004,8.080883e-005
6.135177e-004,1.177597e-004
4.089912e-004,1.456350e-004
1.381800e-004,1.660552e-004
-1.423551e-004,1.851789e-004
-3.776739e-004,2.028440e-004
-5.339049e-004,2.200230e-004
-5.736109e-004,2.389846e-004
-4.629203e-004,2.598910e-004
-2.055606e-004,2.736666e-004
1.441764e-004,2.793389e-004
4.974789e-004,2.799871e-004
7.767176e-004,2.819319e-004
9.480208e-004,2.879283e-004
1.019816e-003,2.963557e-004
1.019654e-003,3.010556e-004
9.720065e-004,3.041349e-004
8.943772e-004,3.111037e-004
8.055653e-004,3.205035e-004
7.329599e-004,3.247172e-004
6.930918e-004,3.169380e-004
6.747784e-004,2.952213e-004
6.584098e-004,2.629703e-004
6.201624e-004,2.297469e-004
5.433434e-004,2.081922e-004
4.339493e-004,1.991165e-004
3.171001e-004,2.015475e-004
2.162954e-004,2.140265e-004
1.500107e-004,2.344468e-004
1.269974e-004,2.660495e-004
1.441764e-004,3.098072e-004
1.817755e-004,3.540510e-004
2.128921e-004,3.814401e-004
2.299089e-004,3.781987e-004
2.344468e-004,3.396272e-004
2.320158e-004,2.741528e-004
2.281262e-004,2.013854e-004
2.198609e-004,1.321835e-004
2.044647e-004,7.416415e-005
1.806411e-004,2.554455e-005
1.310491e-004,-2.307504e-005
2.343770e-005,-7.363943e-005
-1.702304e-004,-1.246900e-004
-4.465517e-004,-1.697442e-004
-7.562584e-004,-2.018331e-004
-1.011511e-003,-2.204706e-004
-1.136302e-003,-2.245222e-004
-1.111668e-003,-2.135018e-004
-9.946565e-004,-1.948643e-004
-8.833176e-004,-1.765509e-004
-8.491218e-004,-1.669890e-004
-8.927174e-004,-1.671511e-004
-9.445783e-004,-1.747682e-004
-9.176755e-004,-1.874093e-004
-7.721409e-004,-2.003745e-004
-5.300153e-004,-2.068571e-004
-2.402425e-004,-2.073433e-004
5.471631e-005,-2.057227e-004
3.193690e-004,-1.981056e-004
5.341057e-004,-1.835197e-004
6.815852e-004,-1.684476e-004
7.449528e-004,-1.569410e-004
7.452769e-004,-1.457585e-004
7.248566e-004,-1.344139e-004
7.180499e-004,-1.243659e-004
7.326358e-004,-1.190177e-004
7.668316e-004,-1.217728e-004
8.109135e-004,-1.298761e-004
8.447851e-004,-1.363587e-004
8.376542e-004,-1.392759e-004
7.584042e-004,-1.379794e-004
6.020110e-004,-1.329553e-004
3.863020e-004,-1.251762e-004
1.250527e-004,-1.175591e-004
-1.789819e-004,-1.148040e-004
-5.337428e-004,-1.109144e-004
-9.444162e-004,-9.811128e-005
-1.399172e-003,-7.542214e-005
-1.862678e-003,-4.430560e-005
-2.312410e-003,-9.299493e-006
-2.745773e-003,2.327564e-005
-3.125655e-003,4.726130e-005
-3.374751e-003,6.606088e-005
-3.411540e-003,8.372601e-005
-3.220140e-003,1.047945e-004
-2.863919e-003,1.307250e-004
-2.429259e-003,1.623277e-004
-1.978231e-003,1.986303e-004
-1.531579e-003,2.365536e-004
-1.074717e-003,2.707494e-004
-5.854416e-004,2.968419e-004
-6.553616e-005,3.208276e-004
4.569625e-004,3.456236e-004
9.324626e-004,3.692851e-004
1.310400e-003,3.866261e-004
1.559819e-003,3.903536e-004
1.670509e-003,3.799815e-004
1.635665e-003,3.603715e-004
1.451883e-003,3.350894e-004
1.143796e-003,3.098072e-004
7.861174e-004,2.929524e-004
4.966686e-004,2.897111e-004
3.811159e-004,2.929524e-004
4.705760e-004,2.939248e-004
7.172396e-004,2.900352e-004
1.020626e-003,2.806354e-004
1.272638e-003,2.666978e-004
1.412987e-003,2.501671e-004
1.449128e-003,2.370398e-004
1.431138e-003,2.333123e-004
1.404560e-003,2.419018e-004
1.387056e-003,2.563256e-004
1.373605e-003,2.660495e-004
1.343623e-003,2.671840e-004
1.274097e-003,2.623220e-004
1.154330e-003,2.517878e-004
9.927510e-004,2.287745e-004
8.066997e-004,1.910133e-004
6.211348e-004,1.370455e-004
4.684692e-004,7.189524e-005
3.775505e-004,6.582909e-006
3.642611e-004,-4.819517e-005
4.196875e-004,-8.757704e-005
5.117406e-004,-1.136696e-004
6.034696e-004,-1.298761e-004
6.695924e-004,-1.426792e-004
6.989262e-004,-1.546721e-004
6.982779e-004,-1.643960e-004
6.823955e-004,-1.710407e-004
6.585719e-004,-1.776853e-004
6.295622e-004,-1.901644e-004
5.995801e-004,-2.071812e-004
5.751082e-004,-2.199844e-004
5.647360e-004,-2.211189e-004
5.666808e-004,-2.157707e-004
5.666808e-004,-2.117191e-004
5.470709e-004,-2.126914e-004
4.995857e-004,-2.203085e-004
4.235771e-004,-2.321393e-004
3.326584e-004,-2.447804e-004
2.482223e-004,-2.535319e-004
1.859892e-004,-2.535319e-004
1.464453e-004,-2.413770e-004
1.169494e-004,-2.246843e-004
8.745350e-005,-2.128535e-004
5.795762e-005,-2.096122e-004
3.656499e-005,-2.131776e-004
2.813760e-005,-2.199844e-004
2.829966e-005,-2.277635e-004
2.667901e-005,-2.363530e-004
1.225520e-005,-2.441321e-004
-2.404744e-005,-2.502906e-004
-7.607040e-005,-2.506147e-004
-1.318209e-004,-2.426735e-004
-1.767130e-004,-2.250084e-004
-1.938919e-004,-1.976194e-004
-1.750923e-004,-1.634236e-004
-1.310105e-004,-1.237176e-004
-8.320128e-005,-8.141856e-005
-5.451572e-005,-4.252288e-005
-5.321920e-005,-1.108221e-005
-7.234290e-005,1.403791e-005
-9.665270e-005,3.769945e-005
-1.161005e-004,6.508849e-005
-1.297140e-004,1.018773e-004
-1.415448e-004,1.469315e-004
-1.493239e-004,1.924718e-004
-1.454344e-004,2.292607e-004
-1.331174e-004,2.605393e-004
-1.214487e-004,2.916559e-004
-1.178833e-004,3.232586e-004
-1.212866e-004,3.542131e-004
-1.323071e-004,3.804677e-004
-1.517549e-004,4.004017e-004
-1.796301e-004,4.138531e-004
-2.178775e-004,4.255218e-004
-2.859450e-004,4.323286e-004
-3.998769e-004,4.298976e-004
-5.499493e-004,4.183910e-004
-7.082871e-004,3.982949e-004
-8.510666e-004,3.731747e-004
-9.565711e-004,3.512959e-004
-1.005353e-003,3.365480e-004
-9.948185e-004,3.263378e-004
-9.402025e-004,3.167760e-004
-8.620871e-004,3.036487e-004
-7.692237e-004,2.843629e-004
-6.650157e-004,2.621599e-004
-5.530285e-004,2.367157e-004
-4.399070e-004,2.059233e-004
-3.378059e-004,1.718896e-004
-2.585559e-004,1.409351e-004
-1.995642e-004,1.231079e-004
-1.426792e-004,1.218114e-004
-7.120844e-005,1.266733e-004
1.760335e-005,1.242423e-004
1.085220e-004,1.059290e-004
1.694586e-004,7.578480e-005
1.748067e-004,3.980630e-005
1.211631e-004,6.096713e-006
2.570662e-005,-2.177852e-005
-8.903562e-005,-4.317115e-005
-1.937298e-004,-6.002594e-005
-2.545043e-004,-7.380149e-005
-2.541802e-004,-8.287715e-005
-2.029675e-004,-8.158062e-005
-1.251762e-004,-7.104638e-005
-5.467778e-005,-6.116039e-005
-2.096820e-005,-5.662256e-005
-3.474375e-005,-5.921561e-005
-8.044617e-005,-6.634648e-005
-1.287416e-004,-7.428769e-005
-1.541859e-004,-7.995997e-005
-1.520790e-004,-8.125649e-005
-1.297140e-004,-7.817725e-005
-9.632857e-005,-7.250496e-005
-5.710876e-005,-6.861539e-005
-1.335113e-005,-7.266703e-005
3.688912e-005,-8.287715e-005
8.826383e-005,-9.600444e-005
1.292664e-004,-1.073490e-004
1.517934e-004,-1.141558e-004
1.555210e-004,-1.157764e-004
1.488763e-004,-1.148040e-004
1.354248e-004,-1.148040e-004
1.258630e-004,-1.143178e-004
1.248906e-004,-1.169109e-004
1.344524e-004,-1.246900e-004
1.495245e-004,-1.361966e-004
1.629760e-004,-1.507825e-004
1.686482e-004,-1.600202e-004
1.663793e-004,-1.600202e-004
1.582761e-004,-1.511067e-004
1.459591e-004,-1.387897e-004
1.376938e-004,-1.269589e-004
1.365593e-004,-1.159385e-004
1.419075e-004,-1.005423e-004
1.474177e-004,-7.250496e-005
1.527658e-004,-3.069211e-005
1.540623e-004,1.582063e-005
1.443384e-004,5.390598e-005
1.231079e-004,7.497447e-005
9.766362e-005,8.097089e-005
7.918817e-005,8.064677e-005
8.129502e-005,8.242948e-005
1.094944e-004,9.328786e-005
1.537382e-004,1.111150e-004
1.939304e-004,1.294284e-004
2.083542e-004,1.475797e-004
1.827479e-004,1.723757e-004
1.188942e-004,2.062474e-004
3.413401e-005,2.433604e-004
-4.349527e-005,2.738286e-004
-9.017008e-005,2.927903e-004
-9.827335e-005,2.999212e-004
-6.780507e-005,3.004074e-004
-8.651231e-006,3.046211e-004
5.698522e-005,3.148312e-004
1.106288e-004,3.253654e-004
1.487142e-004,3.274723e-004
1.754550e-004,3.161277e-004
1.966855e-004,2.905214e-004
2.085163e-004,2.572980e-004
2.051129e-004,2.278021e-004
1.914995e-004,2.106232e-004
1.837203e-004,2.068957e-004
1.986303e-004,2.090025e-004
2.404432e-004,2.161334e-004
2.927903e-004,2.290986e-004
3.290929e-004,2.422259e-004
3.245551e-004,2.490327e-004
2.744769e-004,2.464396e-004
1.989545e-004,2.325020e-004
1.258630e-004,2.057612e-004
7.821578e-005,1.658931e-004
6.427817e-005,1.172735e-004
7.497447e-005,6.541262e-005
8.550872e-005,1.825161e-005
6.249545e-005,-1.610624e-005
-1.497178e-005,-3.522994e-005
-1.391138e-004,-4.300908e-005
-2.775176e-004,-4.738484e-005
-3.914495e-004,-5.062615e-005
-4.491447e-004,-5.516398e-005
-4.335865e-004,-6.197072e-005
-3.494746e-004,-6.958779e-005
-2.225774e-004,-8.206682e-005
-8.401160e-005,-1.023250e-004
4.855783e-005,-1.344139e-004
1.577899e-004,-1.731475e-004
2.242366e-004,-2.060468e-004
2.419018e-004,-2.238740e-004
2.310434e-004,-2.250084e-004
2.201850e-004,-2.117191e-004
2.299089e-004,-1.914609e-004
2.705873e-004,-1.781716e-004
3.342791e-004,-1.770371e-004
4.042913e-004,-1.883817e-004
4.636072e-004,-2.041020e-004
5.010443e-004,-2.180396e-004
5.091476e-004,-2.263049e-004
4.903480e-004,-2.321393e-004
4.514523e-004,-2.363530e-004
4.068843e-004,-2.387840e-004
3.702575e-004,-2.363530e-004
3.464339e-004,-2.340841e-004
3.208276e-004,-2.392702e-004
2.652392e-004,-2.491561e-004
1.436902e-004,-2.465631e-004
-6.861539e-005,-2.169052e-004
-3.720016e-004,-1.600202e-004
-7.256281e-004,-9.049421e-005
-1.034687e-003,-2.761287e-005
-1.199021e-003,1.322759e-005
-1.164501e-003,2.927205e-005
-9.416611e-004,2.586868e-005
-6.006758e-004,1.517237e-005
-2.373254e-004,9.986281e-006
7.416415e-005,2.052053e-005
2.934386e-004,4.483033e-005
4.164462e-004,7.124698e-005
4.639314e-004,8.891209e-005
4.679830e-004,9.474644e-005
4.585832e-004,9.263960e-005
4.495075e-004,9.004655e-005
4.427008e-004,9.409818e-005
4.316803e-004,1.094944e-004
4.119083e-004,1.339663e-004
3.854917e-004,1.647587e-004
3.602095e-004,1.955511e-004
3.415720e-004,2.252090e-004
3.256896e-004,2.545429e-004
3.062417e-004,2.814457e-004
2.756114e-004,3.018659e-004
2.271538e-004,3.136967e-004
1.641104e-004,3.188828e-004
9.490851e-005,3.230965e-004
2.975825e-005,3.242310e-004
-2.258885e-005,3.232586e-004
-5.678463e-005,3.214759e-004
-8.887356e-005,3.172622e-004
-1.489998e-004,3.128864e-004
-2.598524e-004,3.119140e-004
-4.204592e-004,3.153174e-004
-5.916001e-004,3.162898e-004
-7.107180e-004,3.098072e-004
-7.176869e-004,2.958695e-004
-5.911139e-004,2.744769e-004
-3.632501e-004,2.453052e-004
-9.989401e-005,2.122438e-004
1.433661e-004,1.853410e-004
3.423823e-004,1.704310e-004
4.901859e-004,1.636242e-004
5.918010e-004,1.589243e-004
6.541961e-004,1.534141e-004
6.903367e-004,1.462832e-004
7.149707e-004,1.383420e-004
7.363633e-004,1.304008e-004
7.478700e-004,1.187321e-004
7.420356e-004,9.831188e-005
7.232360e-004,7.140904e-005
6.984400e-004,4.580272e-005
6.751026e-004,2.262738e-005
6.503066e-004,1.234753e-006
6.225934e-004,-1.999580e-005
5.926113e-004,-4.025397e-005
5.580913e-004,-5.710876e-005
5.161164e-004,-6.715681e-005
4.642555e-004,-7.104638e-005
3.898674e-004,-7.574627e-005
2.428742e-004,-8.660465e-005
-3.360929e-005,-1.062146e-004
-4.403932e-004,-1.323071e-004
-9.123273e-004,-1.592099e-004
-1.332563e-003,-1.827094e-004
-1.592840e-003,-2.003745e-004
-1.643566e-003,-2.110708e-004
-1.500787e-003,-2.211189e-004
-1.222844e-003,-2.334358e-004
-8.883416e-004,-2.438080e-004
-5.614560e-004,-2.449425e-004
-2.823795e-004,-2.347323e-004
-7.688073e-005,-2.194982e-004
3.040651e-005,-2.071812e-004
2.441009e-005,-1.990780e-004
-9.438378e-005,-1.964849e-004
-3.102548e-004,-1.942160e-004
-5.877105e-004,-1.906506e-004
-8.633836e-004,-1.861127e-004
-1.052676e-003,-1.801163e-004
-1.099513e-003,-1.729855e-004
-9.829877e-004,-1.637477e-004
-7.243316e-004,-1.472171e-004
-3.775118e-004,-1.199901e-004
4.244267e-007,-8.125649e-005
3.529166e-004,-3.020592e-005
6.337758e-004,2.781346e-005
8.182063e-004,8.145709e-005
9.052355e-004,1.216493e-004
9.105837e-004,1.401247e-004
8.501333e-004,1.401247e-004
7.396046e-004,1.352628e-004
5.987698e-004,1.388282e-004
4.508040e-004,1.477418e-004
3.175863e-004,1.558451e-004
2.161334e-004,1.581140e-004
1.490383e-004,1.576278e-004
1.059290e-004,1.634622e-004
7.967438e-005,1.808031e-004
6.962632e-005,2.068957e-004
7.627100e-005,2.342847e-004
1.004187e-004,2.566497e-004
1.381800e-004,2.735045e-004
1.767515e-004,2.874421e-004
2.072198e-004,3.026763e-004
2.282883e-004,3.164518e-004
2.375260e-004,3.252034e-004
2.391467e-004,3.266619e-004
2.355812e-004,3.245551e-004
2.260194e-004,3.209897e-004
2.099749e-004,3.156415e-004
1.893926e-004,3.051073e-004
1.654069e-004,2.893870e-004
1.469315e-004,2.710735e-004
1.420695e-004,2.550291e-004
1.456350e-004,2.428742e-004
1.522796e-004,2.365536e-004
1.647587e-004,2.407673e-004
1.963614e-004,2.509774e-004
2.600531e-004,2.581083e-004
3.550234e-004,2.547049e-004
4.694416e-004,2.389846e-004
5.892079e-004,2.141886e-004
6.903367e-004,1.843686e-004
7.490044e-004,1.504969e-004
7.564594e-004,1.146805e-004
7.256670e-004,7.821578e-005
6.909850e-004,4.385793e-005
6.877437e-004,1.873781e-005
7.229118e-004,1.883015e-006
7.559733e-004,-1.043395e-005
7.196706e-004,-2.242678e-005
5.561466e-004,-3.863332e-005
2.581083e-004,-6.067420e-005
-1.358725e-004,-8.287715e-005
-5.452494e-004,-9.697683e-005
-8.680834e-004,-1.010285e-004
-1.024801e-003,-1.003802e-004
-9.956289e-004,-1.029732e-004
-8.228673e-004,-1.172350e-004
-5.903036e-004,-1.431655e-004
-3.920977e-004,-1.780095e-004
-2.885380e-004,-2.131776e-004
-2.822175e-004,-2.400805e-004
-3.055549e-004,-2.538560e-004
-2.776796e-004,-2.538560e-004
-1.624512e-004,-2.444563e-004
2.586868e-005,-2.358668e-004
2.482223e-004,-2.347323e-004
4.730070e-004,-2.394322e-004
6.715371e-004,-2.444563e-004
8.112376e-004,-2.481838e-004
8.666640e-004,-2.511010e-004
8.271200e-004,-2.525595e-004
7.020054e-004,-2.520733e-004
5.133613e-004,-2.541802e-004
2.803113e-004,-2.622834e-004
1.889987e-005,-2.663351e-004
-2.575835e-004,-2.507768e-004
-5.332566e-004,-2.071812e-004
-8.066607e-004,-1.410586e-004
-1.082658e-003,-6.991193e-005
-1.341476e-003,-1.416145e-005
-1.529796e-003,1.484824e-005
-1.597540e-003,1.776542e-005
-1.545192e-003,2.531276e-006
-1.431260e-003,-2.388537e-005
-1.333049e-003,-4.479180e-005
-1.288643e-003,-5.143648e-005
-1.284915e-003,-4.025397e-005
-1.277785e-003,-1.286493e-005
-1.218631e-003,2.116879e-005
-1.074393e-003,5.050261e-005
-8.492839e-004,6.703327e-005
-5.745832e-004,7.205730e-005
-2.980999e-004,7.465034e-005
-5.986387e-005,8.178122e-005
1.169494e-004,9.863601e-005
2.287745e-004,1.273216e-004
2.863077e-004,1.691344e-004
3.052694e-004,2.232643e-004
2.991108e-004,2.832284e-004
2.897111e-004,3.431926e-004
3.025142e-004,3.966742e-004
3.530786e-004,4.328148e-004
4.402698e-004,4.446456e-004
5.496639e-004,4.355699e-004
6.580857e-004,4.224426e-004
7.467355e-004,4.198496e-004
8.131823e-004,4.298976e-004
8.635847e-004,4.454559e-004
9.002115e-004,4.533971e-004
9.104217e-004,4.467524e-004
8.810877e-004,4.227667e-004
8.089686e-004,3.884089e-004
7.013571e-004,3.525924e-004
5.828873e-004,3.159656e-004
4.835413e-004,2.825802e-004
4.263322e-004,2.626462e-004
4.154738e-004,2.558394e-004
4.414042e-004,2.500050e-004
4.817585e-004,2.341226e-004
5.151440e-004,2.026820e-004
5.363746e-004,1.642725e-004
5.443158e-004,1.271595e-004
5.255162e-004,9.960841e-005
4.618245e-004,8.145709e-005
3.487029e-004,6.995045e-005
2.010613e-004,6.265751e-005
4.953022e-005,5.536457e-005
-5.889148e-005,4.385793e-005
-8.239095e-005,2.651694e-005
-5.896120e-006,3.503668e-006
1.560072e-004,-2.388537e-005
3.644232e-004,-4.900550e-005
5.661946e-004,-6.440170e-005
7.183740e-004,-6.926366e-005
8.133444e-004,-7.088431e-005
8.768741e-004,-7.979791e-005
9.395934e-004,-1.007043e-004
1.011550e-003,-1.305243e-004
1.081563e-003,-1.621271e-004
1.114786e-003,-1.903264e-004
1.057415e-003,-2.135018e-004
8.613158e-004,-2.327876e-004
4.966686e-004,-2.447804e-004
-2.793700e-005,-2.498044e-004
-6.363301e-004,-2.483458e-004
-1.216686e-003,-2.417012e-004
-1.673548e-003,-2.334358e-004
-1.943549e-003,-2.232257e-004
-1.983417e-003,-2.112329e-004
-1.788453e-003,-2.010227e-004
-1.400468e-003,-1.929195e-004
-8.964449e-004,-1.865989e-004
-3.577399e-004,-1.844921e-004
1.420695e-004,-1.854645e-004
5.465847e-004,-1.903264e-004
8.282544e-004,-1.974573e-004
9.835132e-004,-2.062088e-004
1.026136e-003,-2.113949e-004
9.804339e-004,-2.079916e-004
8.788189e-004,-2.019951e-004
7.603490e-004,-1.969711e-004
6.676476e-004,-1.908126e-004
6.290760e-004,-1.768750e-004
6.493342e-004,-1.533756e-004
7.080019e-004,-1.248521e-004
7.742866e-004,-1.007043e-004
8.165857e-004,-8.368748e-005
7.913035e-004,-7.088431e-005
6.592202e-004,-5.516398e-005
4.085050e-004,-3.166451e-005
6.055066e-005,-1.034161e-006
-3.267854e-004,3.105477e-005
-6.849497e-004,6.184718e-005
-9.666192e-004,9.474644e-005
-1.149591e-003,1.315353e-004
-1.242292e-003,1.726999e-004
-1.280702e-003,2.159713e-004
-1.311494e-003,2.600531e-004
-1.349580e-003,3.018659e-004
-1.368865e-003,3.346032e-004
-1.321542e-003,3.569682e-004
-1.181680e-003,3.692851e-004
-9.709949e-004,3.723644e-004
-7.598239e-004,3.657197e-004
-6.266062e-004,3.540510e-004
-6.047274e-004,3.459477e-004
-6.622606e-004,3.496752e-004
-7.411864e-004,3.610198e-004
-7.936955e-004,3.736609e-004
-8.094159e-004,3.803056e-004
-7.996919e-004,3.804677e-004
-7.758683e-004,3.746333e-004
-7.366485e-004,3.639370e-004
-6.844635e-004,3.401134e-004
-6.300096e-004,3.015418e-004
-5.784728e-004,2.608634e-004
-5.282326e-004,2.279642e-004
-4.627582e-004,2.031682e-004
-3.697327e-004,1.827479e-004
-2.575835e-004,1.634622e-004
-1.588858e-004,1.498487e-004
-9.649064e-005,1.430419e-004
-6.829127e-005,1.386662e-004
-4.381940e-005,1.300767e-004
2.197911e-005,1.167873e-004
1.592484e-004,9.944634e-005
3.590750e-004,7.870197e-005
5.781874e-004,5.244739e-005
7.663454e-004,2.376183e-005
8.925945e-004,-3.303076e-006
9.454277e-004,-2.826114e-005
9.366762e-004,-4.981582e-005
8.922703e-004,-6.634648e-005
8.344129e-004,-7.801519e-005
7.759072e-004,-8.401160e-005
7.282600e-004,-8.887356e-005
7.071915e-004,-1.008664e-004
7.256670e-004,-1.242038e-004
7.710453e-004,-1.569410e-004
8.148030e-004,-1.893541e-004
8.347370e-004,-2.107467e-004
8.344129e-004,-2.170672e-004
8.314957e-004,-2.144742e-004
8.381404e-004,-2.118811e-004
8.520781e-004,-2.138259e-004
8.650433e-004,-2.180396e-004
8.681226e-004,-2.238740e-004
8.514298e-004,-2.297083e-004
8.122100e-004,-2.321393e-004
7.550009e-004,-2.263049e-004
6.917953e-004,-2.146363e-004
6.378276e-004,-2.045882e-004
6.107626e-004,-1.969711e-004
6.120591e-004,-1.904885e-004
6.237278e-004,-1.810887e-004
6.237278e-004,-1.663408e-004
5.969870e-004,-1.475412e-004
5.354022e-004,-1.235555e-004
4.392974e-004,-9.811128e-005
3.229345e-004,-7.299116e-005
2.057612e-004,-5.095028e-005
1.049566e-004,-3.263690e-005
2.797553e-005,-1.545797e-005
-2.599222e-005,4.313994e-006
-6.099833e-005,2.910999e-005
-7.931171e-005,5.730935e-005
-7.850138e-005,8.323981e-005
-5.030202e-005,1.051186e-004
-2.006553e-006,1.250527e-004
4.515445e-005,1.427178e-004
7.319176e-005,1.590864e-004
7.529860e-005,1.725378e-004
5.520250e-005,1.769136e-004
1.306552e-005,1.723757e-004
-4.884343e-005,1.658931e-004
-1.269589e-004,1.694586e-004
-2.154466e-004,1.887444e-004
-3.036101e-004,2.161334e-004
-3.729740e-004,2.417397e-004
-4.107352e-004,2.613496e-004
-4.190006e-004,2.757735e-004
-4.086284e-004,2.832284e-004
-3.899909e-004,2.858215e-004
-3.640605e-004,2.845250e-004
-3.282440e-004,2.814457e-004
-2.731418e-004,2.809595e-004
-2.002124e-004,2.861456e-004
-1.412206e-004,2.929524e-004
-1.287416e-004,2.965178e-004
-1.630995e-004,2.945730e-004
-2.207947e-004,2.872801e-004
-2.807589e-004,2.773941e-004
-3.235441e-004,2.671840e-004
-3.366714e-004,2.551911e-004
-3.248407e-004,2.370398e-004
-3.000446e-004,2.141886e-004
-2.702246e-004,1.921477e-004
-2.376495e-004,1.752929e-004
-2.023193e-004,1.628139e-004
-1.648822e-004,1.496866e-004
-1.298761e-004,1.305629e-004
-1.041077e-004,1.072255e-004
-8.935975e-005,8.631905e-005
-8.222889e-005,7.059871e-005
-7.218083e-005,6.233338e-005
-4.787104e-005,6.006447e-005
-1.189254e-005,5.811968e-005
2.570662e-005,5.115087e-005
5.212327e-005,3.543054e-005
5.698522e-005,1.484824e-005
3.867184e-005,-1.034161e-006
4.962256e-006,-8.002969e-006
-3.458168e-005,-3.789272e-006
-6.893953e-005,1.241726e-005
-7.882551e-005,3.640293e-005
-4.916756e-005,6.136099e-005
2.651694e-005,7.886404e-005
1.409351e-004,7.708133e-005
2.767458e-004,4.612685e-005
3.984569e-004,-1.545797e-005
4.757621e-004,-9.324933e-005
4.971547e-004,-1.618029e-004
4.775448e-004,-2.055606e-004
4.380009e-004,-2.246843e-004
3.900295e-004,-2.246843e-004
3.378445e-004,-2.154466e-004
2.793389e-004,-2.018331e-004
2.043026e-004,-1.916230e-004
1.025256e-004,-1.898403e-004
-2.113026e-005,-1.950263e-004
-1.397621e-004,-2.003745e-004
-2.232257e-004,-2.018331e-004
-2.650386e-004,-2.024813e-004
-2.846485e-004,-2.015090e-004
-3.050687e-004,-1.929195e-004
-3.332680e-004,-1.780095e-004
-3.536883e-004,-1.690959e-004
-3.444506e-004,-1.681235e-004
-2.987481e-004,-1.712027e-004
-2.321393e-004,-1.734716e-004
-1.789819e-004,-1.699062e-004
-1.702304e-004,-1.603444e-004
-2.109087e-004,-1.467309e-004
-2.922655e-004,-1.251762e-004
-3.990665e-004,-9.503204e-005
-5.313118e-004,-6.067420e-005
-6.949978e-004,-2.583016e-005
-8.719731e-004,7.069105e-006
-1.025125e-003,3.137890e-005
-1.125767e-003,3.802358e-005
-1.161746e-003,3.510641e-005
-1.120743e-003,3.656499e-005
-9.872015e-004,4.904402e-005
-7.557723e-004,6.508849e-005
-4.431483e-004,7.853991e-005
-9.697683e-005,9.377406e-005
2.237505e-004,1.156529e-004
4.804620e-004,1.475797e-004
6.621373e-004,1.869616e-004
7.791486e-004,2.325020e-004
8.525642e-004,2.788527e-004
8.961599e-004,3.192070e-004
9.079906e-004,3.464339e-004
8.765499e-004,3.522683e-004
7.935724e-004,3.386548e-004
6.622995e-004,3.148312e-004
5.021787e-004,2.897111e-004
3.521062e-004,2.671840e-004
2.401191e-004,2.490327e-004
1.707551e-004,2.378501e-004
1.276457e-004,2.354192e-004
9.523264e-005,2.440086e-004
7.140904e-005,2.600531e-004
5.844381e-005,2.739907e-004
5.001642e-005,2.799871e-004
4.223728e-005,2.786906e-004
3.526847e-005,2.730183e-004
2.295151e-005,2.657254e-004
7.069105e-006,2.589186e-004
7.485573e-007,2.534084e-004
2.019640e-005,2.509774e-004
6.930219e-005,2.500050e-004
1.498487e-004,2.464396e-004
2.585945e-004,2.388225e-004
3.869503e-004,2.278021e-004
5.157923e-004,2.109473e-004
6.242140e-004,1.906891e-004
6.979538e-004,1.676758e-004
7.332841e-004,1.388282e-004
7.391184e-004,1.013911e-004
7.373357e-004,5.828175e-005
7.561353e-004,1.630683e-005
8.066997e-004,-1.869928e-005
8.820602e-004,-4.511593e-005
9.635791e-004,-6.796714e-005
1.026299e-003,-9.260107e-005
1.045584e-003,-1.240417e-004
1.016737e-003,-1.601823e-004
9.514242e-004,-1.959987e-004
8.642329e-004,-2.279256e-004
7.577559e-004,-2.520733e-004
6.099523e-004,-2.617972e-004
3.919743e-004,-2.600145e-004
8.907416e-005,-2.540181e-004
-2.919414e-004,-2.512630e-004
-7.071526e-004,-2.558008e-004
-1.074068e-003,-2.697385e-004
-1.301932e-003,-2.844864e-004
-1.353955e-003,-2.882139e-004
-1.277460e-003,-2.794623e-004
-1.167742e-003,-2.611490e-004
-1.107940e-003,-2.381357e-004
-1.129171e-003,-2.175534e-004
-1.202262e-003,-2.081536e-004
-1.264171e-003,-2.105846e-004
-1.258661e-003,-2.180396e-004
-1.159477e-003,-2.258187e-004
-9.800706e-004,-2.251705e-004
-7.659824e-004,-2.075054e-004
-5.627525e-004,-1.728234e-004
-3.890185e-004,-1.331174e-004
-2.261429e-004,-1.003802e-004
-3.604027e-005,-7.736692e-005
1.858272e-004,-5.970181e-005
4.080188e-004,-4.203669e-005
5.935837e-004,-1.950961e-005
7.253428e-004,1.112074e-005
8.107513e-004,4.126489e-005
8.582365e-004,6.444023e-005
8.707156e-004,7.967438e-005
8.494850e-004,9.004655e-005
8.013516e-004,9.588091e-005
7.222636e-004,9.928428e-005
5.877494e-004,1.031738e-004
3.686369e-004,1.130598e-004
7.351589e-005,1.320215e-004
-2.386219e-004,1.645966e-004
-4.886886e-004,2.099749e-004
-6.291993e-004,2.582704e-004
-6.624226e-004,2.961937e-004
-6.476747e-004,3.161277e-004
-6.507540e-004,3.175863e-004
-6.961322e-004,3.065659e-004
-7.596618e-004,2.931144e-004
-7.808923e-004,2.803113e-004
-7.074767e-004,2.743149e-004
-5.245051e-004,2.825802e-004
-2.567732e-004,3.062417e-004
5.698522e-005,3.294171e-004
3.801436e-004,3.418961e-004
6.705648e-004,3.467581e-004
8.759017e-004,3.511338e-004
9.590413e-004,3.574544e-004
9.204697e-004,3.637749e-004
8.041067e-004,3.636129e-004
6.751026e-004,3.504856e-004
5.848321e-004,3.250413e-004
5.493398e-004,2.921420e-004
5.587396e-004,2.564877e-004
5.833735e-004,2.214815e-004
5.977973e-004,1.910133e-004
5.937457e-004,1.668655e-004
5.781874e-004,1.464453e-004
5.679773e-004,1.268354e-004
5.824011e-004,1.026876e-004
6.290760e-004,7.302970e-005
6.966573e-004,3.932010e-005
7.577559e-004,7.717366e-006
7.778521e-004,-1.967167e-005
7.256670e-004,-4.252288e-005
5.971491e-004,-5.775702e-005
4.018603e-004,-6.391550e-005
1.449867e-004,-5.840528e-005
-1.650443e-004,-4.268495e-005
-4.922541e-004,-2.210265e-005
-7.804062e-004,-7.840905e-006
-9.682399e-004,-8.002969e-006
-1.010215e-003,-2.631635e-005
-9.027654e-004,-6.116039e-005
-6.865704e-004,-1.068628e-004
-4.334244e-004,-1.543479e-004
-2.191741e-004,-1.966470e-004
-8.514606e-005,-2.258187e-004
-2.339918e-005,-2.376495e-004
2.531276e-006,-2.370013e-004
2.505836e-005,-2.340841e-004
5.423012e-005,-2.335979e-004
8.097089e-005,-2.329496e-004
8.956036e-005,-2.233878e-004
6.978839e-005,-2.023193e-004
2.813760e-005,-1.755785e-004
-1.675450e-005,-1.561307e-004
-3.749886e-005,-1.512687e-004
-1.059602e-005,-1.558065e-004
6.444023e-005,-1.601823e-004
1.624898e-004,-1.632615e-004
2.493568e-004,-1.673132e-004
2.885766e-004,-1.703924e-004
2.619979e-004,-1.674752e-004
1.798307e-004,-1.574272e-004
7.789165e-005,-1.439758e-004
-2.816880e-006,-1.285796e-004
-4.430560e-005,-1.083214e-004
-5.159854e-005,-8.158062e-005
-4.057810e-005,-5.159854e-005
-2.080613e-005,-2.129233e-005
-4.599598e-006,7.069105e-006
2.855407e-006,3.267542e-005
4.476060e-006,5.487838e-005
1.160693e-005,7.011252e-005
2.230325e-005,7.805372e-005
3.008238e-005,8.372601e-005
3.170304e-005,9.409818e-005
3.218923e-005,1.124116e-004
3.056858e-005,1.368834e-004
1.517237e-005,1.620036e-004
-1.659243e-005,1.861513e-004
-5.500191e-005,2.077060e-004
-8.417367e-005,2.271538e-004
-1.002181e-004,2.488706e-004
-1.230693e-004,2.756114e-004
-1.763888e-004,3.005694e-004
-2.784900e-004,3.158036e-004
-4.296969e-004,3.198552e-004
-6.100755e-004,3.159656e-004
-7.904542e-004,3.085106e-004
-9.201065e-004,3.013798e-004
-9.324234e-004,2.955454e-004
-7.894818e-004,2.895490e-004
-5.120260e-004,2.846870e-004
-1.707166e-004,2.783665e-004
1.440143e-004,2.715597e-004
3.679886e-004,2.647530e-004
4.895377e-004,2.623220e-004
5.285954e-004,2.718839e-004
5.114165e-004,2.882525e-004
4.558281e-004,3.034866e-004
3.845193e-004,3.067279e-004
3.221241e-004,3.005694e-004
2.874421e-004,2.856594e-004
2.843629e-004,2.668598e-004
2.953834e-004,2.453052e-004
2.952213e-004,2.216436e-004
2.722080e-004,1.921477e-004
2.419018e-004,1.561692e-004
2.284504e-004,1.174356e-004
2.457913e-004,8.178122e-005
2.874421e-004,4.758544e-005
3.310377e-004,1.209313e-005
3.546993e-004,-2.485776e-005
3.436788e-004,-5.872941e-005
2.885766e-004,-8.255302e-005
1.864754e-004,-9.665270e-005
4.677511e-005,-1.050801e-004
-9.632857e-005,-1.104282e-004
-1.956746e-004,-1.182074e-004
-2.198223e-004,-1.324691e-004
-1.744440e-004,-1.540238e-004
-9.697683e-005,-1.768750e-004
-2.907146e-005,-1.968091e-004
7.555301e-006,-2.110708e-004
9.986281e-006,-2.250084e-004
-8.975362e-006,-2.389460e-004
-3.409549e-005,-2.420253e-004
-5.143648e-005,-2.250084e-004
-5.321920e-005,-1.950263e-004
-3.847125e-005,-1.643960e-004
-8.165035e-006,-1.442999e-004
3.526847e-005,-1.396000e-004
8.048470e-005,-1.434896e-004
1.143563e-004,-1.483515e-004
1.326697e-004,-1.488377e-004
1.409351e-004,-1.465688e-004
1.517934e-004,-1.485136e-004
1.712413e-004,-1.595340e-004
1.906891e-004,-1.755785e-004
2.033302e-004,-1.895161e-004
2.101370e-004,-1.966470e-004
2.166196e-004,-1.945401e-004
2.294227e-004,-1.840059e-004
2.469258e-004,-1.682856e-004
2.592428e-004,-1.511067e-004
2.519498e-004,-1.300382e-004
2.102990e-004,-1.070249e-004
1.206769e-004,-8.401160e-005
-7.678839e-006,-6.002594e-005
-1.428413e-004,-2.826114e-005
-2.543422e-004,1.257933e-005
-3.293785e-004,5.536457e-005
-3.681121e-004,9.409818e-005
-3.828600e-004,1.206769e-004
-3.862634e-004,1.383420e-004
-3.958252e-004,1.498487e-004
-4.256453e-004,1.508211e-004
-4.719959e-004,1.464453e-004
-5.102433e-004,1.427178e-004
-5.023021e-004,1.493625e-004
-4.343968e-004,1.746447e-004
-3.157650e-004,2.117576e-004
-1.724993e-004,2.475741e-004
-2.955766e-005,2.720459e-004
8.777764e-005,2.837146e-004
1.660552e-004,2.853353e-004
2.075439e-004,2.863077e-004
2.265056e-004,2.906835e-004
2.378501e-004,2.978143e-004
2.466017e-004,3.033245e-004
2.538946e-004,3.042970e-004
2.564877e-004,2.987867e-004
2.461155e-004,2.830664e-004
2.158093e-004,2.639427e-004
1.691344e-004,2.474120e-004
1.161391e-004,2.362295e-004
7.351589e-005,2.302331e-004
5.325772e-005,2.282883e-004
5.504044e-005,2.253711e-004
6.136099e-005,2.153231e-004
6.233338e-005,1.986303e-004
6.638502e-005,1.772377e-004
9.037068e-005,1.513072e-004
1.409351e-004,1.201907e-004
2.132162e-004,8.567078e-005
3.017039e-004,5.763349e-005
3.940812e-004,4.142696e-005
4.781931e-004,3.526847e-005
5.418848e-004,2.992031e-005
5.707325e-004,2.149292e-005
5.606844e-004,1.403791e-005
5.214646e-004,1.241726e-005
4.639314e-004,1.646890e-005
3.854917e-004,2.700314e-005
2.819319e-004,3.688912e-005
1.639484e-004,4.191315e-005
5.795762e-005,4.904402e-005
3.179537e-006,6.071273e-005
2.829966e-005,7.221937e-005
1.297526e-004,7.529860e-005
2.691288e-004,6.395404e-005
3.913261e-004,4.045456e-005
4.519385e-004,1.014835e-005
4.436732e-004,-2.501983e-005
3.806297e-004,-5.953974e-005
2.825802e-004,-8.660465e-005
1.662173e-004,-1.008664e-004
5.277153e-005,-1.039456e-004
-1.983374e-005,-9.762509e-005
-2.566809e-005,-8.563225e-005
1.776542e-005,-7.639453e-005
5.050261e-005,-7.850138e-005
1.565857e-005,-9.730096e-005
-9.179074e-005,-1.279313e-004
-1.972953e-004,-1.634236e-004
-2.063709e-004,-1.921092e-004
-8.158062e-005,-2.055606e-004
1.404489e-004,-2.039399e-004
3.660439e-004,-1.919471e-004
4.958582e-004,-1.737958e-004
4.728449e-004,-1.561307e-004
2.965178e-004,-1.439758e-004
-4.761664e-006,-1.383035e-004
-3.940425e-004,-1.353863e-004
-8.056884e-004,-1.290658e-004
-1.149267e-003,-1.152902e-004
-1.340990e-003,-9.503204e-005
-1.356872e-003,-7.039812e-005
-1.258661e-003,-4.689865e-005
-1.154453e-003,-2.323711e-005
-1.126578e-003,1.396819e-006
-1.179087e-003,2.813760e-005
-1.234837e-003,5.747142e-005
-1.176980e-003,7.853991e-005
-9.236719e-004,8.696731e-005
-4.718339e-004,8.453633e-005
9.377406e-005,8.242948e-005
6.167590e-004,8.939829e-005
9.382969e-004,1.112771e-004
9.875648e-004,1.472556e-004
8.151271e-004,1.931201e-004
5.540397e-004,2.419018e-004
3.263378e-004,2.856594e-004
1.872858e-004,3.161277e-004
1.360731e-004,3.268240e-004
1.419075e-004,3.188828e-004
1.728619e-004,2.971661e-004
2.002510e-004,2.756114e-004
1.908512e-004,2.636185e-004
1.017153e-004,2.623220e-004
-9.227693e-005,2.655633e-004
-3.708672e-004,2.610255e-004
-6.807360e-004,2.441707e-004
-9.564091e-004,2.235884e-004
-1.142460e-003,2.085163e-004
-1.207934e-003,2.026820e-004
-1.157208e-003,2.072198e-004
-1.007946e-003,2.211574e-004
-7.825130e-004,2.352571e-004
-5.125122e-004,2.407673e-004
-2.267911e-004,2.342847e-004
4.823370e-005,2.198609e-004
2.905214e-004,2.028440e-004
4.786793e-004,1.808031e-004
6.023352e-004,1.561692e-004
6.739681e-004,1.321835e-004
7.120535e-004,1.054428e-004
7.386322e-004,7.627100e-005
7.673178e-004,4.807163e-005
8.037825e-004,2.408596e-005
8.438127e-004,6.744974e-006
8.771982e-004,-8.327101e-006
8.956737e-004,-2.842320e-005
8.997253e-004,-5.613637e-005
8.929186e-004,-8.692878e-005
8.807636e-004,-1.169109e-004
8.656915e-004,-1.410586e-004
8.477023e-004,-1.605064e-004
8.227442e-004,-1.755785e-004
7.880622e-004,-1.869231e-004
7.537043e-004,-1.959987e-004
7.285841e-004,-2.096122e-004
7.086502e-004,-2.282497e-004
6.870955e-004,-2.504527e-004
6.582477e-004,-2.674695e-004
6.183797e-004,-2.721694e-004
5.657084e-004,-2.676316e-004
5.018546e-004,-2.592042e-004
4.383250e-004,-2.426735e-004
3.814401e-004,-2.159328e-004
3.313618e-004,-1.861127e-004
2.806354e-004,-1.611547e-004
2.234263e-004,-1.441378e-004
1.675138e-004,-1.319829e-004
1.305629e-004,-1.266348e-004
1.302388e-004,-1.311726e-004
1.736723e-004,-1.392759e-004
2.415777e-004,-1.408965e-004
3.070520e-004,-1.295519e-004
3.386548e-004,-1.063766e-004
3.247172e-004,-7.688073e-005
2.760976e-004,-4.949169e-005
2.077060e-004,-2.955766e-005
1.269974e-004,-1.869928e-005
3.607880e-005,-2.031993e-005
-5.678463e-005,-3.150244e-005
-1.358725e-004,-4.544006e-005
-1.833576e-004,-5.565017e-005
-1.857886e-004,-5.111234e-005
-1.535376e-004,-2.696461e-005
-1.092938e-004,1.079661e-005
-7.558420e-005,5.666109e-005
-6.748094e-005,1.056048e-004
-9.730096e-005,1.501728e-004
-1.878955e-004,1.825859e-004
-3.617915e-004,1.987924e-004
-6.172064e-004,1.965235e-004
-9.128135e-004,1.812893e-004
-1.190269e-003,1.650828e-004
-1.390420e-003,1.577899e-004
-1.474856e-003,1.613553e-004
-1.436446e-003,1.731861e-004
-1.305336e-003,1.898788e-004
-1.140029e-003,2.081922e-004
-9.972495e-004,2.274780e-004
-9.045482e-004,2.482223e-004
-8.525252e-004,2.694529e-004
-8.032574e-004,2.910076e-004
-7.146077e-004,3.135347e-004
-5.679386e-004,3.321722e-004
-3.695707e-004,3.384927e-004
-1.417068e-004,3.303894e-004
8.518459e-005,3.102934e-004
2.830664e-004,2.851732e-004
4.294114e-004,2.636185e-004
5.216266e-004,2.535705e-004
5.616568e-004,2.569738e-004
5.589016e-004,2.713977e-004
5.261644e-004,2.906835e-004
4.793275e-004,3.072141e-004
4.331389e-004,3.177483e-004
4.015361e-004,3.226103e-004
4.000776e-004,3.195311e-004
4.281149e-004,3.068900e-004
4.734932e-004,2.809595e-004
5.177371e-004,2.474120e-004
5.443158e-004,2.130541e-004
5.379952e-004,1.780480e-004
4.968306e-004,1.448246e-004
4.310321e-004,1.114392e-004
3.459477e-004,7.562274e-005
2.472499e-004,3.478228e-005
1.503349e-004,-7.030578e-006
7.173317e-005,-4.187462e-005
2.505836e-005,-6.829127e-005
1.808955e-005,-8.692878e-005
4.953022e-005,-1.005423e-004
1.043083e-004,-1.133454e-004
1.649207e-004,-1.264727e-004
2.146748e-004,-1.353863e-004
2.451431e-004,-1.389517e-004
2.553532e-004,-1.400862e-004
2.517878e-004,-1.470550e-004
2.433604e-004,-1.643960e-004
2.365536e-004,-1.909747e-004
2.325020e-004,-2.110708e-004
2.213195e-004,-2.122053e-004
1.908512e-004,-1.992400e-004
1.341283e-004,-1.880575e-004
6.200925e-005,-1.814128e-004
-1.448558e-005,-1.771992e-004
-8.871149e-005,-1.707166e-004
-1.522411e-004,-1.627754e-004
-1.917850e-004,-1.543479e-004
-2.021572e-004,-1.473791e-004
-1.864369e-004,-1.439758e-004
-1.475412e-004,-1.486757e-004
-9.568031e-005,-1.600202e-004
-4.284701e-005,-1.707166e-004
3.665733e-006,-1.728234e-004
4.742337e-005,-1.658546e-004
9.863601e-005,-1.530514e-004
1.644345e-004,-1.400862e-004
2.417397e-004,-1.305243e-004
3.101313e-004,-1.209625e-004
3.465960e-004,-1.120489e-004
3.430306e-004,-1.036215e-004
3.083486e-004,-9.211487e-005
2.624841e-004,-7.266703e-005
2.299089e-004,-4.835724e-005
2.316917e-004,-2.194059e-005
2.728562e-004,4.313994e-006
3.391410e-004,3.105477e-005
4.085050e-004,5.876794e-005
4.555039e-004,8.486046e-005
4.603659e-004,1.099806e-004
4.226047e-004,1.349386e-004
3.610198e-004,1.611932e-004
2.906835e-004,1.871237e-004
2.209954e-004,2.153231e-004
1.517934e-004,2.401191e-004
7.886404e-005,2.561635e-004
-6.544382e-006,2.642668e-004
-1.173971e-004,2.681563e-004
-2.630937e-004,2.655633e-004
-4.515757e-004,2.594049e-004
-6.776568e-004,2.585945e-004
-9.108688e-004,2.702632e-004
-1.113288e-003,2.919800e-004
-1.246344e-003,3.114278e-004
-1.283619e-003,3.216380e-004
-1.211824e-003,3.230965e-004
-1.039386e-003,3.166139e-004
-8.027712e-004,3.041349e-004
-5.546492e-004,2.919800e-004
-3.447747e-004,2.864697e-004
-2.000504e-004,2.871180e-004
-1.164247e-004,2.863077e-004
-7.461182e-005,2.807975e-004
-5.062615e-005,2.760976e-004
-2.842320e-005,2.759355e-004
-1.682422e-006,2.739907e-004
2.522042e-005,2.681563e-004
5.050261e-005,2.585945e-004
8.080883e-005,2.462775e-004
1.171115e-004,2.286124e-004
1.514693e-004,2.028440e-004
1.775618e-004,1.696206e-004
1.861513e-004,1.389903e-004
1.655690e-004,1.156529e-004
1.229458e-004,9.717743e-005
8.323981e-005,7.675720e-005
6.832980e-005,4.677511e-005
8.939829e-005,8.365628e-006
1.440143e-004,-3.247483e-005
2.114335e-004,-6.910160e-005
2.657254e-004,-9.324933e-005
2.853353e-004,-1.024871e-004
2.720459e-004,-1.003802e-004
2.423880e-004,-9.405965e-005
2.188885e-004,-9.243900e-005
2.120818e-004,-1.026491e-004
2.211574e-004,-1.302002e-004
2.299089e-004,-1.713648e-004
2.269918e-004,-2.183637e-004
2.205092e-004,-2.611490e-004
2.224539e-004,-2.869174e-004
2.295848e-004,-2.891863e-004
2.325020e-004,-2.718453e-004
2.203471e-004,-2.485079e-004
1.829100e-004,-2.324634e-004
1.167873e-004,-2.300324e-004
3.170304e-005,-2.387840e-004
-5.451572e-005,-2.476975e-004
-1.133454e-004,-2.498044e-004
-1.203142e-004,-2.451045e-004
-6.650855e-005,-2.379736e-004
3.672706e-005,-2.301945e-004
1.749688e-004,-2.293842e-004
3.303894e-004,-2.365151e-004
4.796517e-004,-2.457528e-004
5.982835e-004,-2.423494e-004
6.668373e-004,-2.182017e-004
6.692683e-004,-1.728234e-004
6.068730e-004,-1.131834e-004
4.900239e-004,-5.500191e-005
3.193690e-004,-1.464765e-005
8.907416e-005,8.365628e-006
-1.942160e-004,2.230325e-005
-4.912817e-004,3.640293e-005
-7.400519e-004,5.358185e-005
-8.804005e-004,7.302970e-005
-8.804005e-004,9.263960e-005
-7.502620e-004,1.088461e-004
-5.339049e-004,1.222976e-004
-2.875656e-004,1.347766e-004
-5.694670e-005,1.485521e-004
1.347766e-004,1.639484e-004
2.806354e-004,1.783722e-004
3.817642e-004,1.908512e-004
4.495075e-004,2.039785e-004
5.029891e-004,2.198609e-004
5.499881e-004,2.380122e-004
5.738117e-004,2.603772e-004
5.375090e-004,2.858215e-004
4.002396e-004,3.149933e-004
1.496866e-004,3.412479e-004
-1.533756e-004,3.564820e-004
-4.036044e-004,3.540510e-004
-5.094330e-004,3.378445e-004
-4.403932e-004,3.146691e-004
-2.295462e-004,2.911697e-004
4.564065e-005,2.710735e-004
2.992729e-004,2.542187e-004
4.760863e-004,2.399570e-004
5.564707e-004,2.239125e-004
5.529052e-004,2.117576e-004
4.937514e-004,2.049509e-004
4.076947e-004,2.015475e-004
3.162898e-004,1.984683e-004
2.401191e-004,1.945787e-004
1.966855e-004,1.957132e-004
1.892305e-004,1.971717e-004
2.065715e-004,1.923098e-004
2.284504e-004,1.798307e-004
2.436845e-004,1.589243e-004
2.474120e-004,1.329939e-004
2.360674e-004,1.051186e-004
2.051129e-004,7.578480e-005
1.514693e-004,4.677511e-005
7.724339e-005,2.133085e-005
-1.156841e-005,9.106227e-007
-1.079973e-004,-1.805102e-005
-1.985918e-004,-3.766092e-005
-2.746004e-004,-5.921561e-005
-3.403989e-004,-8.109443e-005
-4.034423e-004,-9.859748e-005
-4.559515e-004,-1.045939e-004
-4.873921e-004,-9.892161e-005
-4.813957e-004,-9.081835e-005
-4.350450e-004,-8.822530e-005
-3.629260e-004,-9.584238e-005
-2.848105e-004,-1.152902e-004
-2.112329e-004,-1.397621e-004
-1.407345e-004,-1.603444e-004
-6.845333e-005,-1.744440e-004
9.106227e-007,-1.814128e-004
5.082674e-005,-1.859507e-004
7.643307e-005,-1.861127e-004
8.761557e-005,-1.773612e-004
1.022015e-004,-1.548341e-004
1.312112e-004,-1.199901e-004
1.756171e-004,-8.109443e-005
2.278021e-004,-4.706071e-005
2.741528e-004,-2.145439e-005
3.020280e-004,-6.706447e-006
3.070520e-004,-4.599598e-006
2.966799e-004,-1.594417e-005
2.793389e-004,-3.814712e-005
2.527602e-004,-6.748094e-005
2.073819e-004,-9.730096e-005
1.409351e-004,-1.203142e-004
7.254349e-005,-1.326312e-004
3.737532e-005,-1.371690e-004
5.649903e-005,-1.340898e-004
1.263492e-004,-1.246900e-004
2.115956e-004,-1.151281e-004
2.696149e-004,-1.055663e-004
2.699391e-004,-8.773911e-005
2.085163e-004,-6.018800e-005
1.080358e-004,-2.631635e-005
6.258778e-006,8.851824e-006
-5.743289e-005,4.272347e-005
-5.289507e-005,7.902610e-005
2.100672e-005,1.214872e-004
1.331559e-004,1.662173e-004
2.438466e-004,2.031682e-004
3.250413e-004,2.206712e-004
3.665301e-004,2.130541e-004
3.851676e-004,1.884202e-004
4.096394e-004,1.637863e-004
4.498317e-004,1.513072e-004
5.000719e-004,1.560072e-004
5.537156e-004,1.764274e-004
5.879114e-004,1.991165e-004
5.778633e-004,2.091646e-004
5.060683e-004,2.028440e-004
3.709058e-004,1.902029e-004
1.765894e-004,1.799928e-004
-5.791909e-005,1.819376e-004
-3.036101e-004,1.931201e-004
-5.305015e-004,2.078681e-004
-7.269246e-004,2.209954e-004
-9.139480e-004,2.273159e-004
-1.120419e-003,2.278021e-004
-1.334183e-003,2.214815e-004
-1.489280e-003,2.114335e-004
-1.514886e-003,2.021958e-004
-1.376806e-003,1.976579e-004
-1.100809e-003,1.929580e-004
-7.617687e-004,1.879340e-004
-4.413656e-004,1.840444e-004
-1.909747e-004,1.829100e-004
-3.490581e-005,1.885823e-004
1.663096e-005,2.030061e-004
-3.733679e-005,2.268297e-004
-1.609926e-004,2.532463e-004
-2.885380e-004,2.725321e-004
-3.588744e-004,2.817699e-004
-3.335922e-004,2.816078e-004
-2.024813e-004,2.688046e-004
1.614476e-005,2.394708e-004
2.795009e-004,1.937684e-004
5.339436e-004,1.376938e-004
7.308531e-004,7.724339e-005
8.292268e-004,1.987227e-005
8.164236e-004,-2.696461e-005
7.097846e-004,-5.953974e-005
5.520949e-004,-7.914964e-005
4.015361e-004,-9.454585e-005
3.023522e-004,-1.170729e-004
2.658874e-004,-1.496481e-004
2.785285e-004,-1.853024e-004
3.107795e-004,-2.203085e-004
3.226103e-004,-2.498044e-004
2.926282e-004,-2.676316e-004
2.273159e-004,-2.739521e-004
1.479039e-004,-2.723315e-004
7.724339e-005,-2.656868e-004
3.218923e-005,-2.613110e-004
2.684107e-005,-2.588801e-004
5.471631e-005,-2.507768e-004
8.858796e-005,-2.368392e-004
1.081979e-004,-2.240360e-004
1.073875e-004,-2.207947e-004
9.474644e-005,-2.267911e-004
8.388807e-005,-2.344082e-004
8.486046e-005,-2.353806e-004
9.847395e-005,-2.263049e-004
1.141943e-004,-2.073433e-004
1.135460e-004,-1.840059e-004
8.875003e-005,-1.608306e-004
5.017848e-005,-1.405724e-004
1.387585e-005,-1.225832e-004
-1.189254e-005,-1.034594e-004
-2.566809e-005,-8.433573e-005
-2.826114e-005,-6.278104e-005
-1.902341e-005,-3.895745e-005
6.582909e-006,-1.464765e-005
4.774750e-005,4.638125e-006
1.004187e-004,1.922400e-005
1.534141e-004,3.073064e-005
1.953890e-004,4.450620e-005
2.213195e-004,6.200925e-005
2.297469e-004,8.048470e-005
2.299089e-004,9.555677e-005
2.226160e-004,1.047945e-004
2.067336e-004,1.103047e-004
1.799928e-004,1.200286e-004
1.517934e-004,1.378558e-004
1.401247e-004,1.621656e-004
1.658931e-004,1.895547e-004
2.381743e-004,2.206712e-004
3.459477e-004,2.548670e-004
4.519385e-004,2.911697e-004
5.109303e-004,3.230965e-004
5.000719e-004,3.493511e-004
4.287631e-004,3.652335e-004
3.405996e-004,3.722023e-004
2.895490e-004,3.725265e-004
3.093210e-004,3.686369e-004
4.016982e-004,3.600474e-004
5.370228e-004,3.496752e-004
6.731578e-004,3.388169e-004
7.725039e-004,3.273102e-004
8.193408e-004,3.146691e-004
8.138306e-004,2.968419e-004
7.632662e-004,2.709115e-004
6.564650e-004,2.410915e-004
4.721967e-004,2.175920e-004
2.115956e-004,2.067336e-004
-9.049421e-005,2.070577e-004
-3.946908e-004,2.109473e-004
-6.757120e-004,2.107852e-004
-9.358267e-004,2.004130e-004
-1.188487e-003,1.804790e-004
-1.425264e-003,1.545486e-004
-1.607101e-003,1.292664e-004
-1.690889e-003,1.096565e-004
-1.652966e-003,9.733949e-005
-1.501435e-003,8.907416e-005
-1.270816e-003,8.048470e-005
-1.015401e-003,6.589881e-005
-7.962886e-004,4.418206e-005
-6.523746e-004,1.501031e-005
-5.802555e-004,-1.529591e-005
-5.392530e-004,-4.155049e-005
-4.786406e-004,-6.553616e-005
-3.648708e-004,-9.114248e-005
-2.019951e-004,-1.173971e-004
-2.006553e-006,-1.400862e-004
2.412535e-004,-1.614788e-004
5.263265e-004,-1.810887e-004
8.159374e-004,-1.958367e-004
1.042505e-003,-2.028055e-004
1.151575e-003,-2.034537e-004
1.142986e-003,-1.966470e-004
1.075728e-003,-1.853024e-004
1.018357e-003,-1.757406e-004
1.002637e-003,-1.755785e-004
9.982612e-004,-1.856265e-004
9.263040e-004,-1.989159e-004
7.036261e-004,-2.052365e-004
2.780424e-004,-1.976194e-004
-3.280820e-004,-1.788198e-004
-9.904428e-004,-1.567789e-004
-1.539844e-003,-1.396000e-004
-1.842744e-003,-1.368449e-004
-1.869323e-003,-1.434896e-004
-1.680517e-003,-1.507825e-004
-1.381344e-003,-1.530514e-004
-1.053162e-003,-1.519170e-004
-7.223868e-004,-1.486757e-004
-3.938804e-004,-1.378173e-004
-8.158062e-005,-1.141558e-004
1.846927e-004,-8.044617e-005
3.715541e-004,-4.268495e-005
4.691174e-004,-8.813297e-006
4.931031e-004,2.035846e-005
4.709002e-004,4.466826e-005
4.274666e-004,6.265751e-005
3.671783e-004,7.902610e-005
2.877662e-004,9.750156e-005
2.010613e-004,1.175977e-004
1.240803e-004,1.329939e-004
7.384002e-005,1.367214e-004
6.508849e-005,1.304008e-004
1.075496e-004,1.184080e-004
2.099749e-004,1.062531e-004
3.644232e-004,1.018773e-004
5.347540e-004,1.133840e-004
6.676476e-004,1.438522e-004
7.217774e-004,1.893926e-004
6.898505e-004,2.391467e-004
6.039558e-004,2.780424e-004
5.170888e-004,2.970040e-004
4.785172e-004,2.984626e-004
5.025029e-004,2.887387e-004
5.648981e-004,2.710735e-004
6.175694e-004,2.537325e-004
6.131936e-004,2.444948e-004
5.371849e-004,2.425500e-004
4.115842e-004,2.459534e-004
2.820940e-004,2.493568e-004
1.851789e-004,2.488706e-004
1.404489e-004,2.456293e-004
1.539003e-004,2.440086e-004
2.172679e-004,2.469258e-004
3.130485e-004,2.538946e-004
4.112601e-004,2.662116e-004
4.901859e-004,2.796630e-004
5.365367e-004,2.851732e-004
5.452881e-004,2.777182e-004
5.195198e-004,2.594049e-004
4.713863e-004,2.357433e-004
4.164462e-004,2.080301e-004
3.754436e-004,1.780480e-004
3.589129e-004,1.474177e-004
3.634508e-004,1.177597e-004
3.726885e-004,8.712937e-005
3.673404e-004,5.487838e-005
3.375204e-004,1.954813e-005
2.796630e-004,-2.096820e-005
2.049509e-004,-5.970181e-005
1.316974e-004,-8.741498e-005
7.627100e-005,-1.000561e-004
4.466826e-005,-9.778715e-005
3.380988e-005,-8.222889e-005
3.121684e-005,-5.905355e-005
2.813760e-005,-4.074016e-005
2.311357e-005,-4.203669e-005
1.614476e-005,-7.039812e-005
5.772582e-006,-1.186936e-004
-3.465141e-006,-1.707166e-004
-3.465141e-006,-2.143121e-004
6.907040e-006,-2.439701e-004
2.165498e-005,-2.587180e-004
2.311357e-005,-2.624455e-004
-3.627206e-006,-2.575835e-004
-4.900550e-005,-2.470493e-004
-9.130454e-005,-2.404046e-004
-1.125351e-004,-2.451045e-004
-1.018388e-004,-2.546664e-004
-5.257093e-005,-2.582318e-004
2.635488e-005,-2.475355e-004
1.112771e-004,-2.253326e-004
1.837203e-004,-1.994021e-004
2.396328e-004,-1.789819e-004
2.767458e-004,-1.647201e-004
2.934386e-004,-1.564548e-004
2.782044e-004,-1.530514e-004
2.046267e-004,-1.478653e-004
5.763349e-005,-1.329553e-004
-1.417068e-004,-1.044318e-004
-3.399127e-004,-6.602235e-005
-4.859335e-004,-2.728874e-005
-5.713420e-004,6.258778e-006
-6.350336e-004,3.510641e-005
-7.282211e-004,6.136099e-005
-8.915829e-004,8.356394e-005
-1.128847e-003,1.012291e-004
-1.391392e-003,1.120874e-004
-1.595271e-003,1.156529e-004
-1.657990e-003,1.158149e-004
-1.546975e-003,1.159770e-004
-1.299825e-003,1.198666e-004
-9.936841e-004,1.328318e-004
-7.013183e-004,1.547106e-004
-4.651892e-004,1.765894e-004
-2.932379e-004,1.918236e-004
-1.632615e-004,1.986303e-004
-4.446767e-005,1.999268e-004
8.502253e-005,2.010613e-004
2.269918e-004,2.067336e-004
3.624784e-004,2.172679e-004
4.678209e-004,2.363916e-004
5.279472e-004,2.637806e-004
5.388056e-004,2.911697e-004
5.106062e-004,3.117519e-004
4.566384e-004,3.239069e-004
3.869503e-004,3.260137e-004
3.169380e-004,3.177483e-004
2.551911e-004,3.012177e-004
2.067336e-004,2.809595e-004
1.705930e-004,2.628082e-004
1.445005e-004,2.491947e-004
1.205148e-004,2.417397e-004
9.588091e-005,2.359054e-004
7.270556e-005,2.320158e-004
4.920609e-005,2.302331e-004
2.392390e-005,2.286124e-004
1.883015e-006,2.266676e-004
-9.137427e-006,2.263435e-004
1.558884e-006,2.292607e-004
3.462021e-005,2.300710e-004
7.805372e-005,2.252090e-004
1.216493e-004,2.140265e-004
1.602208e-004,1.950649e-004
1.924718e-004,1.681620e-004
2.128921e-004,1.388282e-004
2.219677e-004,1.083599e-004
2.185644e-004,7.951231e-005
1.992786e-004,5.082674e-005
1.645966e-004,2.019640e-005
1.175977e-004,-1.221667e-005
7.043665e-005,-4.268495e-005
4.223728e-005,-6.861539e-005
4.547859e-005,-8.595638e-005
8.275361e-005,-9.535618e-005
1.477418e-004,-1.010285e-004
2.219677e-004,-1.107524e-004
2.850112e-004,-1.323071e-004
3.222862e-004,-1.642339e-004
3.352514e-004,-1.984297e-004
3.367100e-004,-2.258187e-004
3.418961e-004,-2.352185e-004
3.655576e-004,-2.272773e-004
4.198496e-004,-2.136638e-004
5.080132e-004,-2.076674e-004
6.175694e-004,-2.149604e-004
7.306910e-004,-2.331117e-004
8.235546e-004,-2.541802e-004
8.710398e-004,-2.645523e-004
8.538608e-004,-2.603387e-004
7.700729e-004,-2.426735e-004
6.360448e-004,-2.159328e-004
4.817585e-004,-1.878955e-004
3.380065e-004,-1.663408e-004
2.229401e-004,-1.540238e-004
1.376938e-004,-1.483515e-004
6.654708e-005,-1.426792e-004
-2.145439e-005,-1.277692e-004
-1.438137e-004,-1.060525e-004
-2.946965e-004,-8.579432e-005
-4.506033e-004,-7.850138e-005
-5.815520e-004,-8.352541e-005
-6.737672e-004,-9.422172e-005
-7.496137e-004,-1.023250e-004
-8.483115e-004,-9.794922e-005
-9.927117e-004,-7.574627e-005
-1.178763e-003,-3.847125e-005
-1.375834e-003,7.069105e-006
-1.521531e-003,4.969229e-005
-1.543572e-003,8.486046e-005
-1.390420e-003,1.073875e-004
-1.075851e-003,1.150046e-004
-6.716604e-004,1.122495e-004
-2.689281e-004,1.049566e-004
6.249545e-005,1.025256e-004
2.876042e-004,1.158149e-004
4.041292e-004,1.454729e-004
4.230909e-004,1.889064e-004
3.733368e-004,2.381743e-004
2.992729e-004,2.833905e-004
2.375260e-004,3.135347e-004
2.094887e-004,3.243930e-004
2.137024e-004,3.214759e-004
2.334744e-004,3.120761e-004
2.590807e-004,3.041349e-004
2.819319e-004,3.041349e-004
2.914938e-004,3.109416e-004
2.819319e-004,3.175863e-004
2.480603e-004,3.203414e-004
1.960373e-004,3.156415e-004
1.457970e-004,3.026763e-004
1.151667e-004,2.850112e-004
1.088461e-004,2.689667e-004
1.308870e-004,2.582704e-004
1.788584e-004,2.568118e-004
2.372019e-004,2.610255e-004
2.853353e-004,2.678322e-004
3.098072e-004,2.726942e-004
3.127243e-004,2.730183e-004
3.026763e-004,2.736666e-004
2.913317e-004,2.739907e-004
2.809595e-004,2.658874e-004
2.702632e-004,2.436845e-004
2.637806e-004,2.090025e-004
2.649151e-004,1.692965e-004
2.673460e-004,1.320215e-004
2.629703e-004,1.022015e-004
2.495189e-004,7.675720e-005
2.378501e-004,4.661304e-005
2.389846e-004,1.322759e-005
2.530843e-004,-1.772689e-005
2.735045e-004,-4.333321e-005
2.942489e-004,-6.018800e-005
3.149933e-004,-6.537409e-005
3.394651e-004,-6.618442e-005
3.606957e-004,-7.299116e-005
3.671783e-004,-9.098041e-005
3.548613e-004,-1.169109e-004
3.281205e-004,-1.454344e-004
2.950592e-004,-1.702304e-004
2.608634e-004,-1.890299e-004
2.312055e-004,-2.003745e-004
2.091646e-004,-2.100984e-004
1.914995e-004,-2.254946e-004
1.684862e-004,-2.470493e-004
1.370455e-004,-2.637420e-004
1.012291e-004,-2.707109e-004
6.411610e-005,-2.664971e-004
3.267542e-005,-2.523975e-004
2.035846e-005,-2.303566e-004
3.073064e-005,-2.052365e-004
5.666109e-005,-1.901644e-004
8.275361e-005,-1.924333e-004
9.344993e-005,-2.112329e-004
8.275361e-005,-2.381357e-004
5.471631e-005,-2.593663e-004
1.646890e-005,-2.640662e-004
-2.372331e-005,-2.473734e-004
-5.759496e-005,-2.110708e-004
-7.914964e-005,-1.677994e-004
-8.174268e-005,-1.332795e-004
-5.710876e-005,-1.143178e-004
-3.465141e-006,-1.086455e-004
7.205730e-005,-1.031353e-004
1.621656e-004,-8.871149e-005
2.582704e-004,-6.261898e-005
3.509718e-004,-2.275091e-005
4.172565e-004,3.380988e-005
4.367043e-004,1.052807e-004
4.063981e-004,1.830721e-004
3.375204e-004,2.553532e-004
2.436845e-004,3.172622e-004
1.354248e-004,3.649094e-004
1.906194e-005,3.940812e-004
-1.015147e-004,4.002396e-004
-2.237119e-004,3.819262e-004
-3.450988e-004,3.446512e-004
-4.574101e-004,2.999212e-004
-5.470322e-004,2.607014e-004
-6.052136e-004,2.316917e-004
-6.351956e-004,2.159713e-004
-6.465403e-004,2.120818e-004
-6.731189e-004,2.145127e-004
-7.768407e-004,2.184023e-004
-9.961150e-004,2.190506e-004
-1.289453e-003,2.182402e-004
-1.548758e-003,2.192126e-004
-1.660907e-003,2.255332e-004
-1.567071e-003,2.360674e-004
-1.279891e-003,2.453052e-004
-8.632215e-004,2.537325e-004
-3.977700e-004,2.608634e-004
4.142696e-005,2.655633e-004
4.075326e-004,2.636185e-004
6.900126e-004,2.534084e-004
8.917841e-004,2.381743e-004
1.021112e-003,2.200230e-004
1.089504e-003,2.010613e-004
1.100200e-003,1.820997e-004
1.047529e-003,1.605450e-004
9.237110e-004,1.357490e-004
7.413874e-004,1.098185e-004
5.386435e-004,8.469840e-005
3.678266e-004,6.281957e-005
2.605393e-004,4.726130e-005
2.216436e-004,3.980630e-005
2.331503e-004,3.705119e-005
2.701012e-004,3.510641e-005
3.111037e-004,2.959619e-005
3.436788e-004,1.630683e-005
3.555096e-004,-2.816880e-006
3.331446e-004,-2.420950e-005
2.616738e-004,-4.009191e-005
1.412592e-004,-4.673658e-005
-4.113403e-006,-4.819517e-005
-1.376552e-004,-5.208474e-005
-2.185258e-004,-5.694670e-005
-2.334358e-004,-6.715681e-005
-1.990780e-004,-9.000802e-005
-1.465688e-004,-1.302002e-004
-9.568031e-005,-1.796301e-004
-5.565017e-005,-2.245222e-004
-3.101625e-005,-2.575835e-004
-2.566809e-005,-2.750866e-004
-4.349527e-005,-2.744383e-004
-7.801519e-005,-2.538560e-004
-1.133454e-004,-2.170672e-004
-1.303623e-004,-1.786577e-004
-1.162626e-004,-1.548341e-004
-6.942573e-005,-1.502963e-004
1.072688e-006,-1.606685e-004
7.076078e-005,-1.750923e-004
1.133840e-004,-1.859507e-004
1.185701e-004,-1.893541e-004
9.539470e-005,-1.882196e-004
6.865393e-005,-1.851404e-004
6.055066e-005,-1.801163e-004
8.275361e-005,-1.710407e-004
1.291043e-004,-1.582375e-004
1.777239e-004,-1.449482e-004
2.039785e-004,-1.310105e-004
1.921477e-004,-1.107524e-004
1.399627e-004,-8.628052e-005
5.666109e-005,-5.953974e-005
-2.842320e-005,-3.377136e-005
-7.526008e-005,-1.092015e-005
-5.419158e-005,1.079661e-005
2.522042e-005,3.721326e-005
1.166253e-004,7.011252e-005
1.692965e-004,1.034980e-004
1.586002e-004,1.286181e-004
9.733949e-005,1.414213e-004
1.193106e-005,1.441764e-004
-7.461182e-005,1.404489e-004
-1.498101e-004,1.355869e-004
-2.088019e-004,1.365593e-004
-2.483458e-004,1.482280e-004
-2.622834e-004,1.723757e-004
-2.305186e-004,2.017096e-004
-1.276072e-004,2.290986e-004
5.066468e-005,2.543808e-004
2.743149e-004,2.777182e-004
4.919686e-004,2.944109e-004
6.689441e-004,3.012177e-004
7.992447e-004,3.015418e-004
8.977805e-004,3.002453e-004
9.783271e-004,3.012177e-004
1.049150e-003,3.042970e-004
1.115597e-003,3.028383e-004
1.174102e-003,2.937627e-004
1.210729e-003,2.866318e-004
1.208784e-003,2.869559e-004
1.169402e-003,2.903593e-004
1.109924e-003,2.942489e-004
1.045746e-003,2.948972e-004
9.731410e-004,2.893870e-004
8.608295e-004,2.749631e-004
6.786680e-004,2.547049e-004
4.245494e-004,2.318537e-004
1.294284e-004,2.115956e-004
-1.660166e-004,1.999268e-004
-4.444448e-004,1.968476e-004
-7.199558e-004,1.992786e-004
-1.010539e-003,2.000889e-004
-1.324459e-003,1.929580e-004
-1.662366e-003,1.748067e-004
-1.996706e-003,1.467694e-004
-2.267032e-003,1.158149e-004
-2.418401e-003,8.988449e-005
-2.439794e-003,7.205730e-005
-2.367512e-003,5.876794e-005
-2.253904e-003,4.402000e-005
-2.123766e-003,2.473423e-005
-1.973531e-003,3.827799e-006
-1.801418e-003,-1.497178e-005
-1.622822e-003,-2.647842e-005
-1.456381e-003,-2.858527e-005
-1.303553e-003,-2.696461e-005
-1.122850e-003,-2.793700e-005
-8.601423e-004,-4.203669e-005
-4.959816e-004,-7.477388e-005
-7.769106e-005,-1.173971e-004
3.039728e-004,-1.562927e-004
5.700842e-004,-1.809267e-004
6.979538e-004,-1.893541e-004
7.120535e-004,-1.898403e-004
6.644063e-004,-1.875713e-004
6.062248e-004,-1.857886e-004
5.718669e-004,-1.825473e-004
5.778633e-004,-1.802784e-004
6.204865e-004,-1.840059e-004
6.833679e-004,-1.937298e-004
7.470596e-004,-2.029675e-004
7.966516e-004,-2.068571e-004
8.282544e-004,-2.024813e-004
8.515919e-004,-1.938919e-004
8.682846e-004,-1.922712e-004
8.715259e-004,-1.982676e-004
8.502954e-004,-2.086398e-004
8.081583e-004,-2.172293e-004
7.584042e-004,-2.146363e-004
7.177258e-004,-2.000504e-004
6.917953e-004,-1.762268e-004
6.759129e-004,-1.477033e-004
6.648925e-004,-1.182074e-004
6.546823e-004,-8.676672e-005
6.397723e-004,-5.078821e-005
6.208107e-004,-1.173047e-005
6.062248e-004,2.408596e-005
6.029835e-004,5.309566e-005
6.104385e-004,7.481241e-005
6.237278e-004,8.567078e-005
6.337758e-004,8.340187e-005
6.276174e-004,7.302970e-005
6.000663e-004,6.168512e-005
5.589016e-004,6.006447e-005
5.148199e-004,7.659513e-005
4.783552e-004,1.090082e-004
4.569625e-004,1.496866e-004
4.508040e-004,1.921477e-004
4.527488e-004,2.320158e-004
4.543695e-004,2.668598e-004
4.478869e-004,2.931144e-004
4.250357e-004,3.085106e-004
3.794953e-004,3.141829e-004
3.115899e-004,3.164518e-004
2.226160e-004,3.198552e-004
1.135460e-004,3.219621e-004
1.558884e-006,3.175863e-004
-7.704279e-005,3.028383e-004
-8.482193e-005,2.825802e-004
-1.156841e-005,2.560015e-004
1.156529e-004,2.232643e-004
2.511395e-004,1.914995e-004
3.569682e-004,1.680000e-004
4.183910e-004,1.576278e-004
4.389733e-004,1.564933e-004
4.284390e-004,1.589243e-004
3.952156e-004,1.600588e-004
3.401134e-004,1.563313e-004
2.624841e-004,1.479039e-004
1.634622e-004,1.376938e-004
5.066468e-005,1.258630e-004
-6.699475e-005,1.098185e-004
-1.827094e-004,8.729144e-005
-2.893484e-004,6.136099e-005
-3.744326e-004,3.591673e-005
-4.243487e-004,1.744129e-005
-4.284004e-004,9.662150e-006
-3.972838e-004,1.387585e-005
-3.598467e-004,2.894792e-005
-3.450988e-004,5.277153e-005
-3.603330e-004,8.648112e-005
-3.959873e-004,1.295905e-004
-4.371519e-004,1.767515e-004
-4.604893e-004,2.222919e-004
-4.423380e-004,2.522740e-004
-3.695707e-004,2.509774e-004
-2.436459e-004,2.070577e-004
-8.530812e-005,1.229458e-004
5.990240e-005,1.808955e-005
1.427178e-004,-8.222889e-005
1.329939e-004,-1.621271e-004
3.429608e-005,-2.183637e-004
-1.204763e-004,-2.574215e-004
-2.760590e-004,-2.877277e-004
-3.750809e-004,-3.136581e-004
-3.854531e-004,-3.340784e-004
-3.062031e-004,-3.433161e-004
-1.749302e-004,-3.348887e-004
-4.981582e-005,-3.092824e-004
2.700314e-005,-2.750866e-004
4.158902e-005,-2.408908e-004
7.879432e-006,-2.154466e-004
-5.435365e-005,-2.002124e-004
-1.258245e-004,-1.943781e-004
-1.896782e-004,-1.911368e-004
-2.399184e-004,-1.846542e-004
-2.703867e-004,-1.716889e-004
-2.877277e-004,-1.519170e-004
-3.110651e-004,-1.326312e-004
-3.580640e-004,-1.212866e-004
-4.308313e-004,-1.170729e-004
-5.053814e-004,-1.172350e-004
-5.473563e-004,-1.173971e-004
-5.382806e-004,-1.133454e-004
-4.826922e-004,-1.036215e-004
-3.971218e-004,-8.903562e-005
-2.987481e-004,-7.088431e-005
-2.060468e-004,-4.949169e-005
-1.274451e-004,-2.437157e-005
-6.521203e-005,3.665733e-006
-1.351319e-005,3.137890e-005
3.073064e-005,4.888196e-005
7.027458e-005,5.504044e-005
1.075496e-004,5.828175e-005
1.357490e-004,7.286763e-005
1.545486e-004,1.049566e-004
1.712413e-004,1.480659e-004
1.923098e-004,1.908512e-004
2.208333e-004,2.252090e-004
2.553532e-004,2.569738e-004
2.872801e-004,2.914938e-004
3.096451e-004,3.258516e-004
3.224483e-004,3.538890e-004
3.235827e-004,3.718782e-004
3.083486e-004,3.840331e-004
2.762596e-004,3.935950e-004
2.263435e-004,3.992672e-004
1.668655e-004,4.012120e-004
1.065772e-004,3.960259e-004
5.260946e-005,3.837090e-004
1.274139e-005,3.645853e-004
-1.189254e-005,3.415720e-004
-2.550602e-005,3.185587e-004
-3.150244e-005,3.000832e-004
-1.869928e-005,2.892249e-004
2.538249e-005,2.840388e-004
9.620504e-005,2.773941e-004
1.731861e-004,2.623220e-004
2.321778e-004,2.378501e-004
2.658874e-004,2.085163e-004
2.793389e-004,1.829100e-004
2.736666e-004,1.620036e-004
2.490327e-004,1.430419e-004
2.067336e-004,1.271595e-004
1.633001e-004,1.099806e-004
1.456350e-004,8.340187e-005
1.761032e-004,4.677511e-005
2.525981e-004,7.717366e-006
3.519442e-004,-2.793700e-005
4.517764e-004,-5.678463e-005
5.402642e-004,-7.380149e-005
6.118971e-004,-7.995997e-005
6.679717e-004,-8.919769e-005
6.994124e-004,-1.078352e-004
6.793162e-004,-1.373311e-004
5.726772e-004,-1.742820e-004
3.637749e-004,-2.109087e-004
5.957827e-005,-2.421874e-004
-3.120375e-004,-2.635799e-004
-6.930530e-004,-2.686040e-004
-9.946565e-004,-2.583939e-004
-1.123498e-003,-2.441321e-004
-1.037442e-003,-2.324634e-004
-7.732753e-004,-2.277635e-004
-4.248349e-004,-2.282497e-004
-9.892161e-005,-2.224154e-004
1.321835e-004,-2.031296e-004
2.441707e-004,-1.733096e-004
2.415777e-004,-1.396000e-004
1.427178e-004,-1.055663e-004
-1.043395e-005,-7.509801e-005
-1.682856e-004,-4.835724e-005
-2.883759e-004,-2.080613e-005
-3.543365e-004,6.420843e-006
-3.818876e-004,2.651694e-005
-3.867496e-004,3.559260e-005
-3.744326e-004,3.364782e-005
-3.497987e-004,2.197911e-005
-3.123616e-004,3.341602e-006
-2.674695e-004,-1.756482e-005
-2.217671e-004,-3.166451e-005
-1.695821e-004,-3.036798e-005
-9.892161e-005,-1.173047e-005
-7.030578e-006,1.825161e-005
8.680524e-005,4.790957e-005
1.526038e-004,6.930219e-005
1.767515e-004,7.756752e-005
1.611932e-004,7.546067e-005
1.174356e-004,6.476436e-005
5.504044e-005,5.115087e-005
-8.002969e-006,4.045456e-005
-5.192267e-005,3.834771e-005
-6.067420e-005,4.677511e-005
-3.506788e-005,6.946425e-005
9.013889e-006,1.075496e-004
5.131294e-005,1.577899e-004
8.291568e-005,2.068957e-004
1.073875e-004,2.391467e-004
1.313732e-004,2.538946e-004
1.657311e-004,2.561635e-004
2.175920e-004,2.548670e-004
2.887387e-004,2.561635e-004
3.666921e-004,2.631324e-004
4.352458e-004,2.722080e-004
4.851619e-004,2.770700e-004
5.162785e-004,2.707494e-004
5.318367e-004,2.558394e-004
5.264886e-004,2.373639e-004
4.934272e-004,2.242366e-004
4.407560e-004,2.190506e-004
3.822504e-004,2.240746e-004
3.247172e-004,2.362295e-004
2.728562e-004,2.496809e-004
2.297469e-004,2.623220e-004
1.999268e-004,2.722080e-004
1.851789e-004,2.759355e-004
1.872858e-004,2.697770e-004
1.989545e-004,2.534084e-004
2.057612e-004,2.337985e-004
1.913374e-004,2.135403e-004
1.542244e-004,1.893926e-004
9.928428e-005,1.569795e-004
3.445814e-005,1.156529e-004
-3.020592e-005,6.832980e-005
-8.401160e-005,2.327564e-005
-1.203142e-004,-1.124428e-005
-1.384655e-004,-3.409549e-005
-1.436516e-004,-4.997789e-005
-1.457585e-004,-6.213279e-005
-1.462447e-004,-6.618442e-005
-1.418689e-004,-5.953974e-005
-1.255003e-004,-4.754691e-005
-9.243900e-005,-3.717473e-005
-4.787104e-005,-3.101625e-005
9.106227e-007,-3.425755e-005
4.564065e-005,-4.997789e-005
8.421220e-005,-7.623246e-005
1.188942e-004,-1.044318e-004
1.496866e-004,-1.290658e-004
1.707551e-004,-1.489998e-004
1.799928e-004,-1.687718e-004
1.822617e-004,-1.911368e-004
1.892305e-004,-2.138259e-004
2.057612e-004,-2.319772e-004
2.252090e-004,-2.392702e-004
2.342847e-004,-2.295462e-004
2.237505e-004,-2.109087e-004
1.924718e-004,-1.964849e-004
1.540623e-004,-1.916230e-004
1.295905e-004,-1.961608e-004
1.321835e-004,-2.045882e-004
1.600588e-004,-2.104225e-004
2.051129e-004,-2.120432e-004
2.511395e-004,-2.157707e-004
2.739907e-004,-2.219292e-004
2.566497e-004,-2.253326e-004
1.999268e-004,-2.183637e-004
1.169494e-004,-1.951884e-004
2.538249e-005,-1.608306e-004
-6.180866e-005,-1.279313e-004
-1.396000e-004,-1.021629e-004
-1.953505e-004,-8.417367e-005
-2.214430e-004,-7.072225e-005
-2.167431e-004,-5.500191e-005
-1.953505e-004,-2.858527e-005
-1.806025e-004,9.013889e-006
-1.985918e-004,5.293359e-005
-2.574215e-004,9.344993e-005
-3.514194e-004,1.218114e-004
-4.638926e-004,1.325077e-004
-5.640491e-004,1.291043e-004
-6.188271e-004,1.222976e-004
-6.186650e-004,1.177597e-004
-5.715040e-004,1.172735e-004
-4.894990e-004,1.253768e-004
-3.856151e-004,1.508211e-004
-2.734659e-004,1.926339e-004
-1.622891e-004,2.423880e-004
-5.970181e-005,2.895490e-004
2.813760e-005,3.263378e-004
9.539470e-005,3.491891e-004
1.504969e-004,3.605336e-004
1.953890e-004,3.662059e-004
2.347709e-004,3.676645e-004
2.778803e-004,3.631267e-004
3.240689e-004,3.509718e-004
3.621543e-004,3.326584e-004
3.825745e-004,3.140208e-004
3.830607e-004,3.017039e-004
3.733368e-004,2.955454e-004
3.670162e-004,2.945730e-004
3.647473e-004,2.995970e-004
3.490270e-004,3.119140e-004
3.106175e-004,3.287688e-004
2.498430e-004,3.430306e-004
1.636242e-004,3.451374e-004
5.179914e-005,3.336308e-004
-6.877746e-005,3.104554e-004
-1.750923e-004,2.773941e-004
-2.460769e-004,2.396328e-004
-2.744383e-004,2.039785e-004
-2.729798e-004,1.731861e-004
-2.556388e-004,1.446626e-004
-2.259808e-004,1.135460e-004
-1.796301e-004,8.097089e-005
-1.272830e-004,5.147500e-005
-8.660465e-005,2.619281e-005
-6.569822e-005,6.258778e-006
-6.537409e-005,-7.840905e-006
-8.255302e-005,-2.015787e-005
-1.079973e-004,-3.279896e-005
-1.217728e-004,-4.868137e-005
-1.005423e-004,-6.683268e-005
-3.766092e-005,-8.271508e-005
5.439218e-005,-9.730096e-005
1.561692e-004,-1.131834e-004
2.488706e-004,-1.345760e-004
3.219621e-004,-1.609926e-004
3.694472e-004,-1.865989e-004
3.929467e-004,-2.065330e-004
3.948915e-004,-2.216050e-004
3.804677e-004,-2.365151e-004
3.574544e-004,-2.549905e-004
3.386548e-004,-2.721694e-004
3.320101e-004,-2.794623e-004
3.386548e-004,-2.733039e-004
3.501615e-004,-2.564491e-004
3.581026e-004,-2.310048e-004
3.579406e-004,-2.068571e-004
3.521062e-004,-1.904885e-004
3.564820e-004,-1.827094e-004
3.747954e-004,-1.799543e-004
3.897054e-004,-1.752544e-004
3.780367e-004,-1.729855e-004
3.292550e-004,-1.750923e-004
2.433604e-004,-1.788198e-004
1.253768e-004,-1.780095e-004
-6.382317e-006,-1.713648e-004
-1.326312e-004,-1.574272e-004
-2.395943e-004,-1.370070e-004
-3.259751e-004,-1.102662e-004
-3.942046e-004,-8.125649e-005
-4.437966e-004,-5.305713e-005
-4.784786e-004,-3.004385e-005
-5.031124e-004,-1.626830e-005
-5.165638e-004,-8.651231e-006
-5.070020e-004,-4.761664e-006
-4.679443e-004,1.396819e-006
-4.112214e-004,1.387585e-005
-3.569296e-004,3.251336e-005
-3.232200e-004,5.666109e-005
-3.026377e-004,8.615699e-005
-2.661730e-004,1.216493e-004
-1.870851e-004,1.571416e-004
-6.261898e-005,1.866375e-004
8.761557e-005,2.099749e-004
2.286124e-004,2.290986e-004
3.261758e-004,2.498430e-004
3.521062e-004,2.739907e-004
3.020280e-004,2.963557e-004
2.044647e-004,3.127243e-004
1.018773e-004,3.218000e-004
2.084466e-005,3.252034e-004
-3.814712e-005,3.264999e-004
-8.595638e-005,3.271482e-004
-1.276072e-004,3.224483e-004
-1.588858e-004,3.141829e-004
-1.687718e-004,3.046211e-004
-1.465688e-004,2.965178e-004
-9.713889e-005,2.872801e-004
-4.057810e-005,2.793389e-004
-1.034161e-006,2.757735e-004
3.503668e-006,2.785285e-004
-1.805102e-005,2.879283e-004
-3.004385e-005,3.017039e-004
-2.654814e-006,3.133726e-004
6.427817e-005,3.099692e-004
1.480659e-004,2.866318e-004
2.195368e-004,2.529222e-004
2.670219e-004,2.245608e-004
3.023522e-004,2.094887e-004
3.414099e-004,2.028440e-004
3.914881e-004,1.929580e-004
4.486972e-004,1.738343e-004
5.033132e-004,1.407730e-004
5.451261e-004,9.652917e-005
5.663567e-004,4.402000e-005
5.687877e-004,-5.085794e-006
5.636016e-004,-3.830919e-005
5.592257e-004,-5.694670e-005
5.520949e-004,-6.294311e-005
5.232473e-004,-6.018800e-005
4.386491e-004,-5.500191e-005
2.678322e-004,-5.208474e-005
-1.108221e-005,-5.354332e-005
-4.097628e-004,-5.791909e-005
-9.103825e-004,-6.310517e-005
-1.433367e-003,-7.558420e-005
-1.855548e-003,-1.021629e-004
-2.055374e-003,-1.379794e-004
-1.961052e-003,-1.794681e-004
-1.578902e-003,-2.185258e-004
-9.865533e-004,-2.488320e-004
-3.036101e-004,-2.710350e-004
3.323342e-004,-2.888622e-004
7.976240e-004,-2.998826e-004
1.031485e-003,-2.977757e-004
1.048988e-003,-2.830278e-004
9.220903e-004,-2.613110e-004
7.360392e-004,-2.431597e-004
5.595500e-004,-2.344082e-004
4.391353e-004,-2.358668e-004
3.934329e-004,-2.423494e-004
4.101256e-004,-2.455907e-004
4.540453e-004,-2.415391e-004
4.819206e-004,-2.274394e-004
4.645796e-004,-2.050744e-004
3.953777e-004,-1.809267e-004
2.796630e-004,-1.622891e-004
1.227837e-004,-1.520790e-004
-6.683268e-005,-1.502963e-004
-2.627696e-004,-1.462447e-004
-3.951770e-004,-1.253383e-004
-3.708672e-004,-7.995997e-005
-1.415448e-004,-1.480971e-005
2.457913e-004,5.034055e-005
6.613270e-004,9.977047e-005
9.686031e-004,1.260251e-004
1.086911e-003,1.307250e-004
1.019654e-003,1.193804e-004
8.486747e-004,1.009049e-004
6.600305e-004,8.453633e-005
4.804620e-004,7.756752e-005
2.911697e-004,8.259155e-005
6.638502e-005,9.960841e-005
-1.919471e-004,1.289422e-004
-4.643789e-004,1.694586e-004
-7.092595e-004,2.167816e-004
-8.667869e-004,2.658874e-004
-8.823453e-004,3.143450e-004
-7.478310e-004,3.534027e-004
-5.082985e-004,3.769022e-004
-2.386219e-004,3.832228e-004
-1.092015e-005,3.731747e-004
1.334801e-004,3.538890e-004
1.895547e-004,3.295791e-004
1.655690e-004,3.055935e-004
7.205730e-005,2.851732e-004
-6.845333e-005,2.696149e-004
-2.125294e-004,2.581083e-004
-2.961551e-004,2.500050e-004
-2.739521e-004,2.469258e-004
-1.447861e-004,2.493568e-004
5.730935e-005,2.560015e-004
2.760976e-004,2.589186e-004
4.527488e-004,2.504913e-004
5.397780e-004,2.279642e-004
5.138475e-004,2.000889e-004
3.764160e-004,1.795066e-004
1.576278e-004,1.756171e-004
-8.352541e-005,1.869616e-004
-2.734659e-004,2.028440e-004
-3.619536e-004,2.101370e-004
-3.433161e-004,2.044647e-004
-2.501286e-004,1.902029e-004
-1.366828e-004,1.680000e-004
-4.851930e-005,1.417454e-004
-1.034161e-006,1.187321e-004
1.419998e-005,1.091703e-004
1.112074e-005,1.148425e-004
6.907040e-006,1.279698e-004
2.359977e-005,1.346145e-004
6.897806e-005,1.193804e-004
1.381800e-004,7.951231e-005
2.143507e-004,2.343770e-005
2.869559e-004,-3.976777e-005
3.441650e-004,-1.008664e-004
3.775505e-004,-1.530514e-004
3.816021e-004,-1.911368e-004
3.582647e-004,-2.167431e-004
3.177483e-004,-2.339220e-004
2.728562e-004,-2.475355e-004
2.355812e-004,-2.567732e-004
2.162954e-004,-2.632558e-004
2.182402e-004,-2.674695e-004
2.448189e-004,-2.694143e-004
2.848491e-004,-2.695764e-004
3.208276e-004,-2.668213e-004
3.349273e-004,-2.583939e-004
3.154794e-004,-2.473734e-004
2.543808e-004,-2.384598e-004
1.577899e-004,-2.310048e-004
3.769945e-005,-2.237119e-004
-9.130454e-005,-2.182017e-004
-2.023193e-004,-2.139880e-004
-2.671454e-004,-2.083157e-004
-2.805968e-004,-1.985918e-004
-2.496423e-004,-1.835197e-004
-1.934057e-004,-1.676373e-004
-1.311726e-004,-1.543479e-004
-7.185670e-005,-1.397621e-004
-2.048200e-005,-1.186936e-004
1.857574e-005,-9.373552e-005
3.672706e-005,-6.958779e-005
2.894792e-005,-5.338126e-005
-2.006553e-006,-4.365734e-005
-5.516398e-005,-3.863332e-005
-1.310105e-004,-3.360929e-005
-2.381357e-004,-2.566809e-005
-3.773498e-004,-1.383732e-005
-5.311498e-004,-2.238346e-007
-6.646916e-004,1.727922e-005
-7.361624e-004,3.980630e-005
-7.097457e-004,6.768154e-005
-5.812279e-004,1.018773e-004
-3.762153e-004,1.461212e-004
-1.454344e-004,1.957132e-004
5.649903e-005,2.417397e-004
1.880961e-004,2.804733e-004
2.435224e-004,3.149933e-004
2.381743e-004,3.474063e-004
1.837203e-004,3.734989e-004
9.053275e-005,3.867882e-004
-2.647842e-005,3.814401e-004
-1.494860e-004,3.650715e-004
-2.548284e-004,3.499994e-004
-3.105789e-004,3.397893e-004
-2.917793e-004,3.339549e-004
-2.006986e-004,3.256896e-004
-6.261898e-005,3.106175e-004
8.356394e-005,2.918179e-004
1.968476e-004,2.749631e-004
2.615117e-004,2.621599e-004
2.960316e-004,2.500050e-004
3.282826e-004,2.370398e-004
3.649094e-004,2.282883e-004
3.892192e-004,2.256952e-004
3.814401e-004,2.279642e-004
3.393030e-004,2.303951e-004
2.751252e-004,2.263435e-004
2.120818e-004,2.156472e-004
1.738343e-004,2.000889e-004
1.759412e-004,1.788584e-004
2.111094e-004,1.576278e-004
2.668598e-004,1.432040e-004
3.213138e-004,1.336421e-004
3.490270e-004,1.184080e-004
3.365480e-004,8.777764e-005
2.882525e-004,4.304761e-005
2.261814e-004,-5.085794e-006
1.728619e-004,-4.252288e-005
1.383420e-004,-6.261898e-005
1.192183e-004,-6.569822e-005
1.036600e-004,-5.970181e-005
8.583286e-005,-5.678463e-005
7.335383e-005,-6.180866e-005
7.173317e-005,-7.752899e-005
7.870197e-005,-9.616651e-005
7.999851e-005,-1.169109e-004
6.265751e-005,-1.394379e-004
2.489629e-005,-1.624512e-004
-2.437157e-005,-1.857886e-004
-6.521203e-005,-2.055606e-004
-7.850138e-005,-2.237119e-004
-5.597430e-005,-2.412149e-004
-7.354709e-006,-2.535319e-004
3.008238e-005,-2.574215e-004
2.489629e-005,-2.517492e-004
-2.550602e-005,-2.363530e-004
-1.003802e-004,-2.113949e-004
-1.689338e-004,-1.783336e-004
-2.122053e-004,-1.391138e-004
-2.219292e-004,-1.000561e-004
-1.997262e-004,-7.072225e-005
-1.522411e-004,-5.937768e-005
-9.503204e-005,-6.699475e-005
-4.819517e-005,-8.449780e-005
-1.610624e-005,-1.021629e-004
8.365628e-006,-1.159385e-004
2.684107e-005,-1.248521e-004
3.672706e-005,-1.306864e-004
3.624086e-005,-1.363587e-004
2.457216e-005,-1.407345e-004
3.503668e-006,-1.370070e-004
-1.869928e-005,-1.198280e-004
-2.874733e-005,-9.470791e-005
-1.594417e-005,-6.764301e-005
1.792748e-005,-3.490581e-005
5.876794e-005,9.338019e-006
9.037068e-005,6.168512e-005
1.007429e-004,1.153287e-004
8.712937e-005,1.623277e-004
5.682316e-005,1.992786e-004
2.457216e-005,2.219677e-004
4.151929e-006,2.313675e-004
1.558884e-006,2.357433e-004
2.019640e-005,2.441707e-004
6.281957e-005,2.598910e-004
1.248906e-004,2.822560e-004
1.942546e-004,3.036487e-004
2.568118e-004,3.182346e-004
2.984626e-004,3.203414e-004
3.122381e-004,3.135347e-004
2.991108e-004,3.049452e-004
2.663737e-004,3.020280e-004
2.214815e-004,3.047831e-004
1.637863e-004,3.104554e-004
8.631905e-005,3.171001e-004
-3.465141e-006,3.180725e-004
-7.963584e-005,3.133726e-004
-1.125351e-004,3.041349e-004
-9.389759e-005,2.950592e-004
-3.620233e-005,2.872801e-004
3.202716e-005,2.793389e-004
8.307774e-005,2.692908e-004
9.733949e-005,2.542187e-004
5.990240e-005,2.346088e-004
-3.717473e-005,2.174299e-004
-1.883817e-004,2.047888e-004
-3.736223e-004,1.944166e-004
-5.648594e-004,1.820997e-004
-7.325969e-004,1.665414e-004
-8.449082e-004,1.485521e-004
-8.632215e-004,1.326697e-004
-7.671168e-004,1.247285e-004
-5.703696e-004,1.187321e-004
-3.160891e-004,1.080358e-004
-4.592625e-005,8.486046e-005
2.153231e-004,4.628891e-005
4.485351e-004,-3.858999e-007
6.410689e-004,-4.414354e-005
7.819037e-004,-7.574627e-005
8.681226e-004,-9.292520e-005
9.089631e-004,-9.859748e-005
9.175525e-004,-9.600444e-005
9.088010e-004,-9.503204e-005
8.959978e-004,-1.078352e-004
8.759017e-004,-1.379794e-004
8.374922e-004,-1.752544e-004
7.716935e-004,-2.083157e-004
6.809369e-004,-2.308428e-004
5.731634e-004,-2.452666e-004
4.600418e-004,-2.558008e-004
3.420582e-004,-2.605007e-004
2.007372e-004,-2.580697e-004
1.760335e-005,-2.511010e-004
-2.172293e-004,-2.465631e-004
-5.092709e-004,-2.421874e-004
-8.423151e-004,-2.350565e-004
-1.146674e-003,-2.285739e-004
-1.321542e-003,-2.259808e-004
-1.309063e-003,-2.245222e-004
-1.141812e-003,-2.159328e-004
-9.147583e-004,-1.981056e-004
-7.162283e-004,-1.755785e-004
-5.964621e-004,-1.577513e-004
-5.541630e-004,-1.470550e-004
-5.651835e-004,-1.366828e-004
-6.087790e-004,-1.229073e-004
-6.690673e-004,-1.052422e-004
-7.283832e-004,-8.336335e-005
-7.536653e-004,-5.678463e-005
-7.079630e-004,-2.955766e-005
-5.786349e-004,-6.544382e-006
-3.822118e-004,1.257933e-005
-1.587237e-004,3.105477e-005
3.996837e-005,5.341979e-005
1.751309e-004,7.772959e-005
2.438466e-004,9.636710e-005
2.709115e-004,1.062531e-004
2.889007e-004,1.103047e-004
3.183966e-004,1.188942e-004
3.696093e-004,1.349386e-004
4.414042e-004,1.513072e-004
5.258403e-004,1.629760e-004
6.083316e-004,1.717275e-004
6.749405e-004,1.759412e-004
7.096225e-004,1.775618e-004
6.998986e-004,1.825859e-004
6.446343e-004,1.974959e-004
5.661946e-004,2.218057e-004
4.926169e-004,2.513016e-004
4.488593e-004,2.762596e-004
4.478869e-004,2.901973e-004
4.875929e-004,2.926282e-004
5.504743e-004,2.893870e-004
6.118971e-004,2.830664e-004
6.561409e-004,2.782044e-004
6.718613e-004,2.803113e-004
6.569512e-004,2.895490e-004
6.284277e-004,2.953834e-004
6.044420e-004,2.952213e-004
5.856425e-004,2.874421e-004
5.661946e-004,2.738286e-004
5.366987e-004,2.572980e-004
4.922928e-004,2.430362e-004
4.303838e-004,2.278021e-004
3.579406e-004,2.080301e-004
2.869559e-004,1.837203e-004
2.240746e-004,1.563313e-004
1.689724e-004,1.305629e-004
1.156529e-004,1.146805e-004
6.411610e-005,1.093323e-004
1.695509e-005,1.057669e-004
-2.453363e-005,9.150514e-005
-6.148453e-005,6.606088e-005
-9.859748e-005,3.543054e-005
-1.392759e-004,4.313994e-006
-1.765509e-004,-2.145439e-005
-2.037779e-004,-4.106429e-005
-2.178775e-004,-5.095028e-005
-2.188499e-004,-5.289507e-005
-2.026434e-004,-5.273300e-005
-1.653684e-004,-5.143648e-005
-1.015147e-004,-5.111234e-005
-2.015787e-005,-5.565017e-005
7.092284e-005,-6.504996e-005
1.709172e-004,-7.817725e-005
2.744769e-004,-9.405965e-005
3.736609e-004,-1.099421e-004
4.569625e-004,-1.235555e-004
5.084993e-004,-1.342519e-004
5.033132e-004,-1.489998e-004
4.255218e-004,-1.703924e-004
2.825802e-004,-1.934057e-004
1.030118e-004,-2.075054e-004
-7.153257e-005,-2.086398e-004
-1.974573e-004,-2.049123e-004
-2.415391e-004,-2.036158e-004
-2.073433e-004,-2.063709e-004
-1.326312e-004,-2.117191e-004
-6.926366e-005,-2.182017e-004
-6.197072e-005,-2.220912e-004
-1.211246e-004,-2.232257e-004
-2.240360e-004,-2.177155e-004
-3.368335e-004,-2.034537e-004
-4.335865e-004,-1.786577e-004
-5.253154e-004,-1.446240e-004
-6.481609e-004,-1.107524e-004
-8.236776e-004,-8.838737e-005
-1.037928e-003,-7.720486e-005
-1.240347e-003,-6.861539e-005
-1.347148e-003,-5.435365e-005
-1.285888e-003,-2.664048e-005
-1.046841e-003,1.306552e-005
-6.898117e-004,5.682316e-005
-3.013411e-004,9.182927e-005
4.693717e-005,1.130598e-004
3.133726e-004,1.221355e-004
4.790034e-004,1.252147e-004
5.401021e-004,1.363972e-004
5.159543e-004,1.634622e-004
4.443214e-004,2.086784e-004
3.658818e-004,2.607014e-004
3.028383e-004,3.030004e-004
2.542187e-004,3.255275e-004
2.148369e-004,3.279585e-004
1.801549e-004,3.192070e-004
1.461212e-004,3.073762e-004
1.138702e-004,2.905214e-004
9.215340e-005,2.688046e-004
8.388807e-005,2.457913e-004
7.529860e-005,2.250470e-004
4.920609e-005,2.065715e-004
2.045080e-006,1.934442e-004
-5.581224e-005,1.880961e-004
-9.827335e-005,1.872858e-004
-1.007043e-004,1.897167e-004
-5.289507e-005,1.944166e-004
3.332369e-005,2.012234e-004
1.305629e-004,2.070577e-004
2.031682e-004,2.101370e-004
2.346088e-004,2.124059e-004
2.242366e-004,2.141886e-004
1.822617e-004,2.177540e-004
1.252147e-004,2.256952e-004
6.687121e-005,2.380122e-004
1.160693e-005,2.506533e-004
-3.782299e-005,2.589186e-004
-7.655660e-005,2.581083e-004
-9.211487e-005,2.530843e-004
-6.958779e-005,2.470879e-004
4.638125e-006,2.354192e-004
1.287802e-004,2.065715e-004
2.688046e-004,1.586002e-004
3.696093e-004,1.051186e-004
3.816021e-004,5.828175e-005
2.984626e-004,2.441009e-005
1.689724e-004,3.341602e-006
7.351589e-005,-1.156841e-005
6.816773e-005,-2.664048e-005
1.547106e-004,-4.511593e-005
2.968419e-004,-6.748094e-005
4.553419e-004,-8.887356e-005
6.153004e-004,-1.123730e-004
7.718556e-004,-1.441378e-004
9.062079e-004,-1.848162e-004
9.854579e-004,-2.240360e-004
9.895095e-004,-2.551526e-004
9.141492e-004,-2.775176e-004
7.759072e-004,-2.922655e-004
5.953664e-004,-2.992343e-004
3.817642e-004,-2.963172e-004
1.328318e-004,-2.849726e-004
-1.434896e-004,-2.677937e-004
-4.224039e-004,-2.485079e-004
-6.787913e-004,-2.279256e-004
-8.930415e-004,-2.076674e-004
-1.051541e-003,-1.861127e-004
-1.148619e-003,-1.663408e-004
-1.175683e-003,-1.520790e-004
-1.145377e-003,-1.428413e-004
-1.098702e-003,-1.368449e-004
-1.075041e-003,-1.344139e-004
-1.077472e-003,-1.357104e-004
-1.069044e-003,-1.350622e-004
-9.962771e-004,-1.326312e-004
-8.296740e-004,-1.274451e-004
-5.747453e-004,-1.209625e-004
-2.687660e-004,-1.154523e-004
3.721326e-005,-1.118868e-004
2.887387e-004,-1.041077e-004
4.446456e-004,-8.903562e-005
5.015305e-004,-6.245691e-005
4.906721e-004,-2.890940e-005
4.559901e-004,5.286387e-006
4.290873e-004,3.251336e-005
4.208219e-004,5.017848e-005
4.175806e-004,5.990240e-005
4.036430e-004,6.541262e-005
3.772264e-004,6.978839e-005
3.516200e-004,7.627100e-005
3.452995e-004,8.972242e-005
3.624784e-004,1.103047e-004
3.932708e-004,1.360731e-004
4.337872e-004,1.650828e-004
4.916445e-004,1.999268e-004
5.731634e-004,2.417397e-004
6.736440e-004,2.853353e-004
7.695867e-004,3.234207e-004
8.298751e-004,3.524304e-004
8.284165e-004,3.722023e-004
7.575939e-004,3.809539e-004
6.243761e-004,3.773884e-004
4.501558e-004,3.624784e-004
2.545429e-004,3.407616e-004
6.038860e-005,3.183966e-004
-1.015147e-004,3.010556e-004
-2.062088e-004,2.919800e-004
-2.554767e-004,2.919800e-004
-2.752487e-004,2.971661e-004
-3.087962e-004,3.025142e-004
-3.980942e-004,3.031625e-004
-5.742591e-004,2.965178e-004
-8.444220e-004,2.838767e-004
-1.175197e-003,2.705873e-004
-1.488632e-003,2.590807e-004
-1.691699e-003,2.524360e-004
-1.714875e-003,2.487085e-004
-1.536927e-003,2.449810e-004
-1.188487e-003,2.414156e-004
-7.437794e-004,2.342847e-004
-2.927517e-004,2.188885e-004
9.458438e-005,1.892305e-004
3.806297e-004,1.501728e-004
5.582534e-004,1.098185e-004
6.349103e-004,7.481241e-005
6.362069e-004,4.596478e-005
5.934216e-004,2.068259e-005
5.465847e-004,-4.599598e-006
5.225990e-004,-3.263690e-005
5.272989e-004,-6.116039e-005
5.438296e-004,-8.741498e-005
5.509604e-004,-1.036215e-004
5.360505e-004,-1.086455e-004
5.012064e-004,-1.058904e-004
4.585832e-004,-1.023250e-004
4.232529e-004,-1.050801e-004
4.039671e-004,-1.180453e-004
4.049396e-004,-1.391138e-004
4.239012e-004,-1.622891e-004
4.438352e-004,-1.831956e-004
4.504799e-004,-2.053985e-004
4.410801e-004,-2.250084e-004
4.255218e-004,-2.370013e-004
4.112601e-004,-2.444563e-004
3.939191e-004,-2.501286e-004
3.626405e-004,-2.517492e-004
3.106175e-004,-2.442942e-004
2.402811e-004,-2.310048e-004
1.620036e-004,-2.169052e-004
9.053275e-005,-2.041020e-004
4.110282e-005,-1.925954e-004
2.035846e-005,-1.793060e-004
2.441009e-005,-1.640719e-004
5.066468e-005,-1.496481e-004
9.620504e-005,-1.371690e-004
1.517934e-004,-1.264727e-004
2.046267e-004,-1.225832e-004
2.396328e-004,-1.297140e-004
2.537325e-004,-1.438137e-004
2.597290e-004,-1.551583e-004
2.720459e-004,-1.502963e-004
2.898731e-004,-1.274451e-004
3.046211e-004,-9.292520e-005
3.094830e-004,-5.305713e-005
3.033245e-004,-1.626830e-005
2.885766e-004,1.954813e-005
2.694529e-004,5.585077e-005
2.500050e-004,8.793970e-005
2.227781e-004,1.070634e-004
1.718896e-004,1.140322e-004
8.437427e-005,1.159770e-004
-2.518189e-005,1.153287e-004
-1.233935e-004,1.171115e-004
-1.747682e-004,1.273216e-004
-1.629374e-004,1.511452e-004
-1.055663e-004,1.838824e-004
-3.668853e-005,2.211574e-004
1.468618e-005,2.589186e-004
3.818565e-005,2.931144e-004
3.721326e-005,3.187208e-004
2.943412e-005,3.331446e-004
3.089271e-005,3.328204e-004
4.758544e-005,3.203414e-004
7.286763e-005,3.038107e-004
9.150514e-005,2.879283e-004
9.717743e-005,2.762596e-004
9.620504e-005,2.679943e-004
1.018773e-004,2.641047e-004
1.244044e-004,2.607014e-004
1.696206e-004,2.581083e-004
2.339606e-004,2.548670e-004
3.004074e-004,2.513016e-004
3.412479e-004,2.491947e-004
3.423823e-004,2.506533e-004
2.945730e-004,2.538946e-004
1.796687e-004,2.555152e-004
-1.902341e-005,2.522740e-004
-3.005308e-004,2.430362e-004
-6.350336e-004,2.282883e-004
-9.724535e-004,2.078681e-004
-1.244561e-003,1.822617e-004
-1.383937e-003,1.530900e-004
-1.362869e-003,1.197045e-004
-1.216686e-003,8.356394e-005
-1.026259e-003,5.309566e-005
-8.773212e-004,3.316162e-005
-8.047160e-004,1.776542e-005
-7.802441e-004,3.503668e-006
-7.421587e-004,-1.043395e-005
-6.361681e-004,-2.129233e-005
-4.450931e-004,-2.712668e-005
-1.969711e-004,-2.809907e-005
5.277153e-005,-2.566809e-005
2.496809e-004,-2.793700e-005
3.713920e-004,-4.106429e-005
4.320045e-004,-6.796714e-005
4.602039e-004,-1.026491e-004
4.825689e-004,-1.319829e-004
5.143337e-004,-1.465688e-004
5.493398e-004,-1.489998e-004
5.637637e-004,-1.477033e-004
5.404262e-004,-1.533756e-004
4.814344e-004,-1.715269e-004
4.034809e-004,-2.005366e-004
3.182346e-004,-2.331117e-004
2.355812e-004,-2.590421e-004
1.569795e-004,-2.711970e-004
6.816773e-005,-2.660110e-004
-5.597430e-005,-2.499665e-004
-2.261429e-004,-2.326255e-004
-4.168937e-004,-2.170672e-004
-5.697213e-004,-2.026434e-004
-6.277406e-004,-1.853024e-004
-5.690731e-004,-1.674752e-004
-4.138145e-004,-1.538618e-004
-2.146363e-004,-1.468929e-004
-2.372331e-005,-1.399241e-004
1.248906e-004,-1.289037e-004
2.161334e-004,-1.076731e-004
2.548670e-004,-7.850138e-005
2.568118e-004,-4.349527e-005
2.448189e-004,-1.189254e-005
2.433604e-004,9.986281e-006
2.665357e-004,2.457216e-005
3.222862e-004,3.559260e-005
3.968363e-004,4.936815e-005
4.592314e-004,6.508849e-005
4.885653e-004,8.421220e-005
4.744656e-004,1.083599e-004
4.026706e-004,1.370455e-004
2.521119e-004,1.641104e-004
1.355172e-005,1.809652e-004
-2.831898e-004,1.843686e-004
-5.486528e-004,1.764274e-004
-6.797637e-004,1.670276e-004
-6.293613e-004,1.652449e-004
-4.313175e-004,1.773998e-004
-1.741199e-004,2.007372e-004
4.969229e-005,2.269918e-004
1.829100e-004,2.490327e-004
2.180782e-004,2.644289e-004
1.961994e-004,2.743149e-004
1.780480e-004,2.837146e-004
1.997648e-004,2.960316e-004
2.550291e-004,3.102934e-004
3.075383e-004,3.221241e-004
3.328204e-004,3.305515e-004
3.336308e-004,3.346032e-004
3.333067e-004,3.316860e-004
3.647473e-004,3.227724e-004
4.569625e-004,3.107795e-004
6.037938e-004,2.979764e-004
7.695867e-004,2.867939e-004
9.125285e-004,2.735045e-004
1.002799e-003,2.571359e-004
1.028892e-003,2.352571e-004
1.002637e-003,2.115956e-004
9.428347e-004,1.885823e-004
8.614778e-004,1.676758e-004
7.692626e-004,1.503349e-004
6.757508e-004,1.357490e-004
5.864528e-004,1.187321e-004
5.021787e-004,9.831188e-005
4.125566e-004,7.821578e-005
2.895490e-004,5.941620e-005
9.085688e-005,3.818565e-005
-2.199844e-004,1.193106e-005
-6.249856e-004,-1.788895e-005
-1.038900e-003,-4.787104e-005
-1.353307e-003,-6.974985e-005
-1.493656e-003,-7.785312e-005
-1.457029e-003,-7.542214e-005
-1.314411e-003,-6.812920e-005
-1.151050e-003,-6.132246e-005
-1.010377e-003,-6.180866e-005
-8.805625e-004,-7.347736e-005
-7.282211e-004,-9.341139e-005
-5.316359e-004,-1.159385e-004
-2.887001e-004,-1.374932e-004
-2.696461e-005,-1.569410e-004
2.096508e-004,-1.729855e-004
3.828986e-004,-1.864369e-004
4.747897e-004,-1.968091e-004
4.835413e-004,-2.024813e-004
4.323286e-004,-2.021572e-004
3.611819e-004,-1.994021e-004
3.010556e-004,-1.977815e-004
2.642668e-004,-1.984297e-004
2.488706e-004,-1.994021e-004
2.469258e-004,-2.029675e-004
2.506533e-004,-2.099363e-004
2.514636e-004,-2.162569e-004
2.417397e-004,-2.183637e-004
2.198609e-004,-2.112329e-004
1.887444e-004,-1.979435e-004
1.595726e-004,-1.812508e-004
1.453108e-004,-1.634236e-004
1.496866e-004,-1.465688e-004
1.678379e-004,-1.314967e-004
1.840444e-004,-1.185315e-004
1.879340e-004,-1.060525e-004
1.817755e-004,-8.790117e-005
1.725378e-004,-6.213279e-005
1.697827e-004,-3.328516e-005
1.790204e-004,-6.544382e-006
1.945787e-004,2.003433e-005
1.997648e-004,4.807163e-005
1.848548e-004,7.529860e-005
1.474177e-004,9.750156e-005
1.002567e-004,1.137081e-004
5.374392e-005,1.253768e-004
1.063454e-005,1.354248e-004
-2.550602e-005,1.513072e-004
-5.192267e-005,1.765894e-004
-7.752899e-005,2.064095e-004
-1.225832e-004,2.363916e-004
-1.890299e-004,2.665357e-004
-2.592042e-004,2.921420e-004
-3.112272e-004,3.085106e-004
-3.298647e-004,3.177483e-004
-3.062031e-004,3.240689e-004
-2.439701e-004,3.286068e-004
-1.621271e-004,3.281205e-004
-8.709085e-005,3.205035e-004
-3.587821e-005,3.072141e-004
-1.075808e-005,2.913317e-004
-5.247859e-006,2.741528e-004
-1.562004e-005,2.595669e-004
-4.268495e-005,2.524360e-004
-8.125649e-005,2.517878e-004
-1.216107e-004,2.555152e-004
-1.525652e-004,2.589186e-004
-1.673132e-004,2.607014e-004
-1.668270e-004,2.603772e-004
-1.583996e-004,2.594049e-004
-1.454344e-004,2.540567e-004
-1.240417e-004,2.417397e-004
-9.162867e-005,2.245608e-004
-5.208474e-005,2.033302e-004
-1.367526e-005,1.790204e-004
2.035846e-005,1.477418e-004
5.520250e-005,1.078737e-004
9.490851e-005,6.881599e-005
1.373696e-004,3.348575e-005
1.791825e-004,1.072688e-006
2.247229e-004,-2.939559e-005
2.775562e-004,-5.500191e-005
3.295791e-004,-7.234290e-005
3.707437e-004,-8.222889e-005
3.861400e-004,-8.709085e-005
3.689610e-004,-8.887356e-005
3.378445e-004,-9.033215e-005
3.125623e-004,-9.033215e-005
3.077003e-004,-8.887356e-005
3.274723e-004,-8.773911e-005
3.589129e-004,-8.741498e-005
3.833848e-004,-8.854943e-005
3.908399e-004,-9.243900e-005
3.746333e-004,-9.940781e-005
3.401134e-004,-1.133454e-004
2.942489e-004,-1.344139e-004
2.365536e-004,-1.554824e-004
1.574657e-004,-1.666649e-004
5.098881e-005,-1.621271e-004
-7.947377e-005,-1.381414e-004
-2.178775e-004,-1.031353e-004
-3.439643e-004,-7.655660e-005
-4.374760e-004,-7.007399e-005
-4.878783e-004,-8.255302e-005
-4.953333e-004,-1.096179e-004
-4.734545e-004,-1.504584e-004
-4.311555e-004,-1.950263e-004
-3.778360e-004,-2.293842e-004
-3.175477e-004,-2.447804e-004
-2.574215e-004,-2.376495e-004
-2.000504e-004,-2.136638e-004
-1.423551e-004,-1.812508e-004
-7.590833e-005,-1.442999e-004
-1.358292e-006,-1.076731e-004
6.622294e-005,-7.412562e-005
1.099806e-004,-4.560212e-005
1.331559e-004,-2.145439e-005
1.691344e-004,-2.978945e-006
2.530843e-004,1.403791e-005
3.905157e-004,2.975825e-005
5.381573e-004,4.564065e-005
6.473894e-004,6.200925e-005
7.044364e-004,7.481241e-005
7.431700e-004,8.129502e-005
7.958413e-004,7.983644e-005
8.517539e-004,7.497447e-005
8.596951e-004,7.043665e-005
7.744487e-004,7.562274e-005
5.989318e-004,9.442231e-005
3.796573e-004,1.248906e-004
1.765894e-004,1.618415e-004
2.359977e-005,2.031682e-004
-7.850138e-005,2.461155e-004
-1.603444e-004,2.819319e-004
-2.501286e-004,3.023522e-004
-3.553089e-004,3.081865e-004
-4.606514e-004,3.072141e-004
-5.475183e-004,3.055935e-004
-6.167202e-004,3.042970e-004
-6.920806e-004,2.994350e-004
-8.001782e-004,2.872801e-004
-9.588401e-004,2.704253e-004
-1.171632e-003,2.558394e-004
-1.423319e-003,2.474120e-004
-1.653614e-003,2.477361e-004
-1.766250e-003,2.551911e-004
-1.683272e-003,2.629703e-004
-1.405816e-003,2.665357e-004
-1.007460e-003,2.650771e-004
-5.872243e-004,2.613496e-004
-2.182017e-004,2.545429e-004
6.476436e-005,2.448189e-004
2.587566e-004,2.354192e-004
3.788470e-004,2.292607e-004
4.418904e-004,2.240746e-004
4.632831e-004,2.133783e-004
4.655520e-004,1.918236e-004
4.738173e-004,1.548727e-004
4.997478e-004,1.051186e-004
5.428572e-004,5.228533e-005
6.031455e-004,3.341602e-006
6.721854e-004,-3.879538e-005
7.319876e-004,-7.363943e-005
7.666696e-004,-9.908367e-005
7.726660e-004,-1.141558e-004
7.632662e-004,-1.195039e-004
7.488423e-004,-1.169109e-004
7.360392e-004,-1.083214e-004
7.261531e-004,-1.008664e-004
7.149707e-004,-9.973194e-005
6.932539e-004,-1.089697e-004
6.564650e-004,-1.295519e-004
6.065489e-004,-1.593720e-004
5.524190e-004,-1.919471e-004
5.012064e-004,-2.214430e-004
4.595556e-004,-2.418632e-004
4.290873e-004,-2.512630e-004
4.025085e-004,-2.532078e-004
3.700955e-004,-2.480217e-004
3.300653e-004,-2.334358e-004
2.846870e-004,-2.097743e-004
2.370398e-004,-1.872472e-004
1.897167e-004,-1.736337e-004
1.409351e-004,-1.752544e-004
9.118101e-005,-1.874093e-004
4.645098e-005,-2.029675e-004
8.851824e-006,-2.133397e-004
-2.372331e-005,-2.115570e-004
-5.127441e-005,-1.974573e-004
-6.877746e-005,-1.757406e-004
-7.185670e-005,-1.520790e-004
-5.273300e-005,-1.297140e-004
-1.010982e-005,-1.112386e-004
4.353380e-005,-9.713889e-005
9.766362e-005,-8.611845e-005
1.492004e-004,-7.299116e-005
1.840444e-004,-5.435365e-005
1.877720e-004,-3.117831e-005
1.529279e-004,-6.058186e-006
7.416415e-005,1.873781e-005
-5.111234e-005,4.191315e-005
-2.167431e-004,6.914012e-005
-3.870737e-004,1.077117e-004
-5.100812e-004,1.526038e-004
-5.491390e-004,1.936063e-004
-4.972781e-004,2.205092e-004
-3.788084e-004,2.268297e-004
-2.376495e-004,2.182402e-004
-1.075111e-004,2.034923e-004
-5.247859e-006,1.916615e-004
6.298164e-005,1.897167e-004
9.085688e-005,2.028440e-004
7.691926e-005,2.294227e-004
2.149292e-005,2.649151e-004
-5.905355e-005,2.999212e-004
-1.378173e-004,3.253654e-004
-1.856265e-004,3.365480e-004
-1.851404e-004,3.324963e-004
-1.451102e-004,3.211517e-004
-8.595638e-005,3.107795e-004
-2.501983e-005,3.062417e-004
2.424803e-005,3.059176e-004
5.260946e-005,3.078624e-004
6.281957e-005,3.111037e-004
6.492643e-005,3.109416e-004
5.925414e-005,3.072141e-004
4.126489e-005,3.039728e-004
1.452411e-005,3.059176e-004
-3.858999e-007,3.106175e-004
1.484824e-005,3.143450e-004
6.395404e-005,3.094830e-004
1.325077e-004,2.919800e-004
1.976579e-004,2.619979e-004
2.558394e-004,2.274780e-004
3.083486e-004,1.944166e-004
3.404375e-004,1.652449e-004
3.234207e-004,1.404489e-004
2.248849e-004,1.219734e-004
4.402000e-005,1.056048e-004
-1.775233e-004,8.259155e-005
-3.776739e-004,5.179914e-005
-5.065158e-004,2.084466e-005
-5.433047e-004,-7.100305e-007
-4.976023e-004,-1.237873e-005
-3.990665e-004,-1.967167e-005
-2.859450e-004,-2.939559e-005
-1.992400e-004,-4.560212e-005
-1.626133e-004,-6.926366e-005
-1.699062e-004,-9.114248e-005
-1.888679e-004,-1.026491e-004
-1.833576e-004,-1.104282e-004
-1.350622e-004,-1.224211e-004
-5.824322e-005,-1.394379e-004
1.176900e-005,-1.621271e-004
5.536457e-005,-1.908126e-004
9.134307e-005,-2.183637e-004
1.432040e-004,-2.371633e-004
2.141886e-004,-2.421874e-004
2.798251e-004,-2.376495e-004
3.185587e-004,-2.298704e-004
3.311998e-004,-2.207947e-004
3.391410e-004,-2.105846e-004
3.645853e-004,-1.998883e-004
4.122325e-004,-1.901644e-004
4.666864e-004,-1.807646e-004
5.025029e-004,-1.720131e-004
5.039615e-004,-1.622891e-004
4.649037e-004,-1.502963e-004
3.913261e-004,-1.392759e-004
2.991108e-004,-1.332795e-004
2.023578e-004,-1.308485e-004
1.093323e-004,-1.272830e-004
2.975825e-005,-1.212866e-004
-2.761287e-005,-1.135075e-004
-6.407757e-005,-1.071869e-004
-8.822530e-005,-1.002181e-004
-1.034594e-004,-9.243900e-005
-1.110765e-004,-8.255302e-005
-1.180453e-004,-6.796714e-005
-1.311726e-004,-5.078821e-005
-1.507825e-004,-2.988179e-005
-1.673132e-004,-7.354709e-006
-1.689338e-004,1.679302e-005
-1.442999e-004,4.320967e-005
-9.503204e-005,6.670914e-005
-3.004385e-005,8.194328e-005
3.397195e-005,9.231547e-005
7.870197e-005,1.028497e-004
8.891209e-005,1.137081e-004
6.233338e-005,1.295905e-004
8.365628e-006,1.539003e-004
-5.759496e-005,1.845306e-004
-1.164247e-004,2.193747e-004
-1.511067e-004,2.558394e-004
-1.517549e-004,2.890628e-004
-1.229073e-004,3.119140e-004
-8.336335e-005,3.198552e-004
-5.176061e-005,3.117519e-004
-3.198864e-005,2.945730e-004
-1.626830e-005,2.759355e-004
4.313994e-006,2.611876e-004
3.526847e-005,2.543808e-004
7.124698e-005,2.561635e-004
1.005808e-004,2.649151e-004
1.151667e-004,2.754493e-004
1.098185e-004,2.858215e-004
8.745350e-005,2.919800e-004
6.541262e-005,2.919800e-004
6.622294e-005,2.825802e-004
9.426025e-005,2.666978e-004
1.385041e-004,2.480603e-004
1.788584e-004,2.321778e-004
1.991165e-004,2.172679e-004
1.905271e-004,1.978200e-004
1.608691e-004,1.655690e-004
1.284560e-004,1.171115e-004
1.133840e-004,5.925414e-005
1.260251e-004,7.069105e-006
1.582761e-004,-3.053005e-005
1.986303e-004,-5.095028e-005
2.347709e-004,-6.197072e-005
2.645909e-004,-7.185670e-005
2.970040e-004,-8.336335e-005
3.347652e-004,-9.535618e-005
3.681507e-004,-1.133454e-004
3.783608e-004,-1.386276e-004
3.606957e-004,-1.642339e-004
3.263378e-004,-1.806025e-004
2.948972e-004,-1.810887e-004
2.730183e-004,-1.637477e-004
2.483844e-004,-1.365208e-004
2.026820e-004,-1.094559e-004
1.329939e-004,-8.903562e-005
5.714729e-005,-6.715681e-005
-7.100305e-007,-3.166451e-005
-2.761287e-005,1.663096e-005
-3.425755e-005,7.140904e-005
-4.689865e-005,1.232699e-004
-9.584238e-005,1.611932e-004
-2.010227e-004,1.746447e-004
-3.663294e-004,1.649207e-004
-5.909518e-004,1.342904e-004
-8.768350e-004,8.761557e-005
-1.222682e-003,3.218923e-005
-1.590571e-003,-2.647842e-005
-1.899791e-003,-8.287715e-005
-2.068016e-003,-1.331174e-004
-2.046136e-003,-1.788198e-004
-1.832372e-003,-2.133397e-004
-1.463836e-003,-2.227395e-004
-1.014590e-003,-1.995642e-004
-5.765280e-004,-1.438137e-004
-2.282497e-004,-7.007399e-005
-2.492749e-006,-3.141010e-006
1.218114e-004,3.591673e-005
1.976579e-004,4.564065e-005
2.705873e-004,3.705119e-005
3.582647e-004,2.619281e-005
4.587452e-004,2.408596e-005
5.564707e-004,2.765140e-005
6.349103e-004,2.667901e-005
6.841783e-004,2.068259e-005
6.943883e-004,1.144487e-005
6.621373e-004,4.476060e-006
5.986077e-004,3.827799e-006
5.268127e-004,9.338019e-006
4.710622e-004,1.614476e-005
4.472386e-004,2.214118e-005
4.613383e-004,3.186510e-005
5.110924e-004,5.017848e-005
5.832114e-004,7.627100e-005
6.606788e-004,1.056048e-004
7.289083e-004,1.344524e-004
7.757452e-004,1.597346e-004
7.930862e-004,1.825859e-004
7.759072e-004,1.999268e-004
7.327979e-004,2.120818e-004
6.814231e-004,2.175920e-004
6.394482e-004,2.143507e-004
6.148142e-004,2.020337e-004
6.041179e-004,1.840444e-004
5.968250e-004,1.663793e-004
5.825632e-004,1.584381e-004
5.574431e-004,1.579519e-004
5.201680e-004,1.618415e-004
4.752759e-004,1.689724e-004
4.337872e-004,1.765894e-004
4.054258e-004,1.790204e-004
3.914881e-004,1.735102e-004
3.910019e-004,1.621656e-004
4.025085e-004,1.483901e-004
4.295735e-004,1.329939e-004
4.623107e-004,1.188942e-004
4.762483e-004,1.114392e-004
4.499937e-004,1.138702e-004
3.791712e-004,1.237561e-004
2.746390e-004,1.334801e-004
1.589243e-004,1.331559e-004
5.260946e-005,1.174356e-004
-4.187462e-005,9.523264e-005
-1.363587e-004,7.740546e-005
-2.397564e-004,6.865393e-005
-3.475298e-004,6.525056e-005
-4.467137e-004,6.038860e-005
-5.181845e-004,4.936815e-005
-5.497872e-004,3.267542e-005
-5.395772e-004,1.193106e-005
-4.904714e-004,-8.327101e-006
-4.134903e-004,-3.279896e-005
-3.301888e-004,-6.342931e-005
-2.619593e-004,-9.811128e-005
-2.298704e-004,-1.337657e-004
-2.444563e-004,-1.619650e-004
-3.055549e-004,-1.799543e-004
-4.008493e-004,-1.900023e-004
-5.001953e-004,-1.935677e-004
-5.509217e-004,-1.909747e-004
-5.100812e-004,-1.878955e-004
-3.685983e-004,-1.893541e-004
-1.543479e-004,-1.909747e-004
8.988449e-005,-1.909747e-004
3.305515e-004,-1.917850e-004
5.363746e-004,-1.932436e-004
6.815852e-004,-1.961608e-004
7.559733e-004,-2.011848e-004
7.705591e-004,-2.055606e-004
7.494906e-004,-2.050744e-004
7.110811e-004,-2.003745e-004
6.631098e-004,-1.964849e-004
6.091419e-004,-1.917850e-004
5.501501e-004,-1.825473e-004
4.900239e-004,-1.707166e-004
4.289252e-004,-1.606685e-004
3.619922e-004,-1.496481e-004
2.913317e-004,-1.314967e-004
2.120818e-004,-1.008664e-004
8.923623e-005,-6.018800e-005
-1.280934e-004,-1.707863e-005
-4.658375e-004,2.165498e-005
-9.040619e-004,5.487838e-005
-1.381344e-003,7.837785e-005
-1.819245e-003,9.328786e-005
-2.127007e-003,1.049566e-004
-2.222464e-003,1.169494e-004
-2.079360e-003,1.320215e-004
-1.751664e-003,1.524417e-004
-1.338073e-003,1.722137e-004
-9.346923e-004,1.866375e-004
-6.006758e-004,2.002510e-004
-3.454229e-004,2.171058e-004
-1.472171e-004,2.337985e-004
1.646890e-005,2.474120e-004
1.529279e-004,2.585945e-004
2.558394e-004,2.728562e-004
3.222862e-004,2.931144e-004
3.653956e-004,3.180725e-004
4.080188e-004,3.396272e-004
4.629590e-004,3.527545e-004
5.242196e-004,3.553475e-004
5.851563e-004,3.516200e-004
6.423654e-004,3.467581e-004
6.916333e-004,3.391410e-004
7.266394e-004,3.297412e-004
7.391184e-004,3.177483e-004
7.269635e-004,3.081865e-004
6.950366e-004,3.054314e-004
6.454446e-004,3.093210e-004
5.845079e-004,3.156415e-004
5.225990e-004,3.164518e-004
4.674968e-004,3.080245e-004
4.245494e-004,2.937627e-004
3.913261e-004,2.746390e-004
3.655576e-004,2.513016e-004
3.501615e-004,2.299089e-004
3.427064e-004,2.109473e-004
3.354135e-004,1.927960e-004
3.161277e-004,1.731861e-004
2.733424e-004,1.498487e-004
1.971717e-004,1.232699e-004
8.615699e-005,9.344993e-005
-3.911951e-005,6.444023e-005
-1.350622e-004,3.867184e-005
-1.668270e-004,1.565857e-005
-1.272830e-004,-5.409925e-006
-3.911951e-005,-2.615429e-005
6.119892e-005,-4.803310e-005
1.451488e-004,-6.715681e-005
2.020337e-004,-8.060823e-005
2.286124e-004,-8.952183e-005
2.166196e-004,-9.713889e-005
1.639484e-004,-1.110765e-004
8.178122e-005,-1.323071e-004
-1.156841e-005,-1.556445e-004
-8.806324e-005,-1.757406e-004
-1.227452e-004,-1.908126e-004
-1.031353e-004,-2.019951e-004
-3.539201e-005,-2.094502e-004
5.293359e-005,-2.144742e-004
1.307250e-004,-2.212809e-004
1.715654e-004,-2.292221e-004
1.684862e-004,-2.347323e-004
1.300767e-004,-2.340841e-004
7.319176e-005,-2.284118e-004
1.760335e-005,-2.251705e-004
-2.145439e-005,-2.298704e-004
-3.976777e-005,-2.379736e-004
-4.981582e-005,-2.407288e-004
-6.618442e-005,-2.313290e-004
-9.535618e-005,-2.115570e-004
-1.308485e-004,-1.878955e-004
-1.577513e-004,-1.686097e-004
-1.618029e-004,-1.538618e-004
-1.464067e-004,-1.413827e-004
-1.245279e-004,-1.292278e-004
-1.161005e-004,-1.204763e-004
-1.326312e-004,-1.151281e-004
-1.771992e-004,-1.073490e-004
-2.350565e-004,-8.968389e-005
-2.733039e-004,-5.905355e-005
-2.603387e-004,-1.934754e-005
-1.841680e-004,2.165498e-005
-5.111234e-005,5.455425e-005
1.125736e-004,7.416415e-005
2.619979e-004,8.340187e-005
3.412479e-004,9.539470e-005
3.158036e-004,1.169494e-004
2.004130e-004,1.406109e-004
5.147500e-005,1.594105e-004
-7.315322e-005,1.761032e-004
-1.442999e-004,1.937684e-004
-1.776853e-004,2.135403e-004
-2.070192e-004,2.302331e-004
-2.546664e-004,2.470879e-004
-3.086341e-004,2.684805e-004
-3.428299e-004,2.926282e-004
-3.379679e-004,3.112658e-004
-2.906449e-004,3.219621e-004
-2.122053e-004,3.243930e-004
-1.240417e-004,3.258516e-004
-4.446767e-005,3.295791e-004
2.424803e-005,3.341170e-004
8.210535e-005,3.347652e-004
1.304008e-004,3.264999e-004
1.670276e-004,3.111037e-004
1.923098e-004,2.947351e-004
2.102990e-004,2.835526e-004
2.276400e-004,2.780424e-004
2.401191e-004,2.741528e-004
2.409294e-004,2.704253e-004
2.362295e-004,2.644289e-004
2.350950e-004,2.509774e-004
2.462775e-004,2.282883e-004
2.657254e-004,1.997648e-004
2.837146e-004,1.702689e-004
2.910076e-004,1.459591e-004
2.728562e-004,1.318594e-004
2.122438e-004,1.252147e-004
1.156529e-004,1.188942e-004
9.500085e-006,1.098185e-004
-6.764301e-005,9.604298e-005
-9.649064e-005,7.400208e-005
-7.428769e-005,4.369587e-005
-3.951337e-006,7.717366e-006
9.620504e-005,-3.053005e-005
2.034923e-004,-6.423963e-005
3.000832e-004,-8.903562e-005
3.747954e-004,-1.034594e-004
4.239012e-004,-1.091317e-004
4.493454e-004,-1.084835e-004
4.543695e-004,-1.054042e-004
4.519385e-004,-1.070249e-004
4.619866e-004,-1.219349e-004
4.845136e-004,-1.470550e-004
5.072028e-004,-1.676373e-004
5.198439e-004,-1.796301e-004
5.146578e-004,-1.843300e-004
4.830550e-004,-1.883817e-004
4.258460e-004,-1.955125e-004
3.326584e-004,-2.060468e-004
1.735102e-004,-2.146363e-004
-8.514606e-005,-2.183637e-004
-4.331002e-004,-2.128535e-004
-8.128192e-004,-2.031296e-004
-1.134843e-003,-1.982676e-004
-1.313115e-003,-1.997262e-004
-1.297070e-003,-2.044261e-004
-1.093354e-003,-2.073433e-004
-7.573929e-004,-2.015090e-004
-3.755671e-004,-1.877334e-004
-4.236082e-005,-1.686097e-004
1.720516e-004,-1.460826e-004
2.344468e-004,-1.214487e-004
1.589243e-004,-9.908367e-005
3.179537e-006,-8.125649e-005
-1.592099e-004,-6.699475e-005
-2.713591e-004,-5.143648e-005
-3.039342e-004,-2.955766e-005
-2.585559e-004,-2.006553e-006
-1.540238e-004,2.457216e-005
-1.578211e-005,3.932010e-005
1.347766e-004,3.948217e-005
2.730183e-004,2.975825e-005
3.644232e-004,2.035846e-005
3.843572e-004,2.424803e-005
3.328204e-004,4.693717e-005
2.378501e-004,8.016057e-005
1.409351e-004,1.109530e-004
7.967438e-005,1.292664e-004
7.578480e-005,1.362352e-004
1.248906e-004,1.399627e-004
2.055991e-004,1.482280e-004
2.932765e-004,1.647587e-004
3.660439e-004,1.926339e-004
4.055878e-004,2.282883e-004
3.926226e-004,2.686426e-004
3.140208e-004,3.052694e-004
1.795066e-004,3.324963e-004
2.181705e-005,3.511338e-004
-1.238797e-004,3.618301e-004
-2.217671e-004,3.673404e-004
-2.473734e-004,3.702575e-004
-1.937298e-004,3.673404e-004
-7.363943e-005,3.572923e-004
8.518459e-005,3.393030e-004
2.534084e-004,3.185587e-004
4.000776e-004,2.995970e-004
4.999099e-004,2.835526e-004
5.391297e-004,2.663737e-004
5.135234e-004,2.461155e-004
4.175806e-004,2.252090e-004
2.600531e-004,2.062474e-004
6.444023e-005,1.897167e-004
-1.321450e-004,1.786963e-004
-2.997205e-004,1.726999e-004
-4.269418e-004,1.634622e-004
-5.189948e-004,1.448246e-004
-5.787970e-004,1.197045e-004
-6.003517e-004,9.199134e-005
-5.797693e-004,6.525056e-005
-5.185087e-004,4.337174e-005
-4.266177e-004,2.992031e-005
-3.183580e-004,2.359977e-005
-2.092881e-004,1.695509e-005
-1.216107e-004,1.720949e-006
-6.667062e-005,-2.226472e-005
-3.166451e-005,-5.111234e-005
1.095867e-005,-7.752899e-005
9.490851e-005,-9.211487e-005
2.388225e-004,-9.243900e-005
4.277907e-004,-8.579432e-005
6.201624e-004,-8.158062e-005
7.718556e-004,-8.838737e-005
8.465679e-004,-1.096179e-004
8.198270e-004,-1.430034e-004
6.849886e-004,-1.797922e-004
4.634451e-004,-2.151224e-004
1.955511e-004,-2.465631e-004
-6.553616e-005,-2.723315e-004
-2.522354e-004,-2.861070e-004
-2.958309e-004,-2.854588e-004
-1.750923e-004,-2.718453e-004
5.779555e-005,-2.488320e-004
3.072141e-004,-2.225774e-004
4.935893e-004,-2.000504e-004
5.859666e-004,-1.872472e-004
5.872631e-004,-1.859507e-004
5.044477e-004,-1.891920e-004
3.281205e-004,-1.898403e-004
5.212327e-005,-1.802784e-004
-2.922655e-004,-1.619650e-004
-6.133168e-004,-1.425172e-004
-7.998540e-004,-1.264727e-004
-7.810544e-004,-1.135075e-004
-5.567560e-004,-1.002181e-004
-1.925954e-004,-8.401160e-005
2.052750e-004,-6.893953e-005
5.337815e-004,-5.791909e-005
7.350668e-004,-4.544006e-005
8.042688e-004,-2.550602e-005
7.715315e-004,6.582909e-006
6.786680e-004,4.645098e-005
5.616568e-004,8.161915e-005
4.302217e-004,1.046324e-004
2.723701e-004,1.151667e-004
7.173317e-005,1.182459e-004
-1.671511e-004,1.185701e-004
-4.298589e-004,1.208390e-004
-6.941874e-004,1.258630e-004
-9.194582e-004,1.333180e-004
-1.057214e-003,1.462832e-004
-1.067262e-003,1.628139e-004
-9.379336e-004,1.843686e-004
-6.988873e-004,2.119197e-004
-4.099249e-004,2.419018e-004
-1.426792e-004,2.739907e-004
3.721326e-005,3.054314e-004
1.007429e-004,3.318480e-004
7.627100e-005,3.495132e-004
2.327564e-005,3.550234e-004
-5.896120e-006,3.501615e-004
1.290346e-005,3.422202e-004
7.546067e-005,3.407616e-004
1.527658e-004,3.480546e-004
2.154851e-004,3.600474e-004
2.506533e-004,3.687990e-004
2.613496e-004,3.705817e-004
2.598910e-004,3.657197e-004
2.534084e-004,3.550234e-004
2.425500e-004,3.407616e-004
2.278021e-004,3.250413e-004
2.094887e-004,3.089969e-004
1.957132e-004,2.919800e-004
2.012234e-004,2.748010e-004
2.350950e-004,2.561635e-004
2.919800e-004,2.365536e-004
3.569682e-004,2.148369e-004
4.217943e-004,1.877720e-004
4.751139e-004,1.547106e-004
4.721967e-004,1.132219e-004
3.362238e-004,6.573675e-005
1.160693e-005,1.387585e-005
-4.642168e-004,-3.782299e-005
-9.611089e-004,-7.769106e-005
-1.309387e-003,-1.002181e-004
-1.381182e-003,-1.060525e-004
-1.148294e-003,-1.034594e-004
-6.917564e-004,-9.827335e-005
-1.546721e-004,-9.211487e-005
3.099692e-004,-8.935975e-005
5.997422e-004,-9.859748e-005
6.955228e-004,-1.211246e-004
6.402585e-004,-1.457585e-004
5.055821e-004,-1.635857e-004
3.606957e-004,-1.755785e-004
2.388225e-004,-1.919471e-004
1.338042e-004,-2.241981e-004
2.343770e-005,-2.695764e-004
-1.047560e-004,-3.175477e-004
-2.533699e-004,-3.557951e-004
-3.997148e-004,-3.741085e-004
-4.935506e-004,-3.715154e-004
-4.898231e-004,-3.546606e-004
-3.718396e-004,-3.316474e-004
-1.621271e-004,-3.063652e-004
8.226741e-005,-2.801106e-004
2.945730e-004,-2.545043e-004
4.253598e-004,-2.282497e-004
4.587452e-004,-2.042641e-004
4.025085e-004,-1.865989e-004
2.762596e-004,-1.739578e-004
1.109530e-004,-1.630995e-004
-4.252288e-005,-1.481895e-004
-1.302002e-004,-1.227452e-004
-1.245279e-004,-8.482193e-005
-3.409549e-005,-3.701266e-005
9.960841e-005,1.922400e-005
2.312055e-004,8.226741e-005
3.307136e-004,1.492004e-004
3.820883e-004,2.125679e-004
3.798194e-004,2.603772e-004
3.376824e-004,2.829043e-004
2.906835e-004,2.759355e-004
2.765838e-004,2.457913e-004
3.096451e-004,2.057612e-004
3.832228e-004,1.694586e-004
4.734932e-004,1.401247e-004
5.512846e-004,1.184080e-004
5.973112e-004,1.075496e-004
6.002283e-004,1.127357e-004
5.584154e-004,1.331559e-004
4.848378e-004,1.644345e-004
3.982949e-004,1.994406e-004
3.132105e-004,2.323399e-004
2.325020e-004,2.605393e-004
1.532520e-004,2.793389e-004
7.319176e-005,2.874421e-004
-9.623623e-006,2.866318e-004
-9.276313e-005,2.816078e-004
-1.634236e-004,2.775562e-004
-2.060468e-004,2.722080e-004
-2.042641e-004,2.647530e-004
-1.598582e-004,2.521119e-004
-9.551824e-005,2.295848e-004
-4.560212e-005,1.957132e-004
-3.441962e-005,1.587623e-004
-6.391550e-005,1.300767e-004
-1.165867e-004,1.216493e-004
-1.629374e-004,1.351007e-004
-1.767130e-004,1.662173e-004
-1.486757e-004,2.039785e-004
-9.713889e-005,2.354192e-004
-4.965376e-005,2.514636e-004
-2.048200e-005,2.433604e-004
-1.302700e-005,2.154851e-004
-2.339918e-005,1.791825e-004
-4.398147e-005,1.482280e-004
-5.986387e-005,1.328318e-004
-6.099833e-005,1.289422e-004
-5.159854e-005,1.260251e-004
-3.944364e-005,1.146805e-004
-2.550602e-005,9.393612e-005
-2.978945e-006,6.768154e-005
3.316162e-005,3.850978e-005
7.853991e-005,8.527692e-006
1.271595e-004,-1.918548e-005
1.688103e-004,-4.284701e-005
1.999268e-004,-6.035007e-005
2.198609e-004,-7.185670e-005
2.386605e-004,-7.866345e-005
2.618358e-004,-8.384954e-005
2.879283e-004,-9.049421e-005
3.060797e-004,-1.024871e-004
3.004074e-004,-1.212866e-004
2.611876e-004,-1.467309e-004
1.936063e-004,-1.723372e-004
1.145184e-004,-1.942160e-004
4.936815e-005,-2.088019e-004
2.019640e-005,-2.131776e-004
2.878586e-005,-2.131776e-004
5.098881e-005,-2.143121e-004
5.714729e-005,-2.164190e-004
2.554455e-005,-2.144742e-004
-4.284701e-005,-2.058847e-004
-1.267968e-004,-1.909747e-004
-2.041020e-004,-1.724993e-004
-2.580697e-004,-1.588858e-004
-2.827037e-004,-1.562927e-004
-2.809209e-004,-1.618029e-004
-2.619593e-004,-1.653684e-004
-2.460769e-004,-1.530514e-004
-2.522354e-004,-1.230693e-004
-2.835140e-004,-8.579432e-005
-3.191683e-004,-5.759496e-005
-3.297026e-004,-4.430560e-005
-3.034480e-004,-4.252288e-005
-2.499665e-004,-4.689865e-005
-1.963229e-004,-4.997789e-005
-1.695821e-004,-5.046408e-005
-1.776853e-004,-4.770897e-005
-2.055606e-004,-3.766092e-005
-2.243602e-004,-2.113026e-005
-2.117191e-004,-2.168618e-006
-1.595340e-004,1.468618e-005
-7.218083e-005,3.040651e-005
2.489629e-005,5.098881e-005
1.041462e-004,7.384002e-005
1.611932e-004,9.328786e-005
2.007372e-004,1.070634e-004
2.299089e-004,1.179218e-004
2.498430e-004,1.323456e-004
2.616738e-004,1.513072e-004
2.613496e-004,1.743205e-004
2.402811e-004,1.999268e-004
1.902029e-004,2.266676e-004
1.151667e-004,2.506533e-004
3.121684e-005,2.657254e-004
-3.830919e-005,2.676702e-004
-7.623246e-005,2.600531e-004
-7.347736e-005,2.517878e-004
-3.604027e-005,2.504913e-004
1.889987e-005,2.576221e-004
7.124698e-005,2.707494e-004
1.038221e-004,2.871180e-004
1.069013e-004,3.018659e-004
8.437427e-005,3.070520e-004
4.353380e-005,3.042970e-004
-7.354709e-006,3.002453e-004
-6.067420e-005,3.012177e-004
-1.062146e-004,3.023522e-004
-1.392759e-004,2.974902e-004
-1.535376e-004,2.832284e-004
-1.496481e-004,2.663737e-004
-1.345760e-004,2.522740e-004
-1.190177e-004,2.436845e-004
-1.081593e-004,2.383363e-004
-9.794922e-005,2.355812e-004
-8.660465e-005,2.320158e-004
-7.461182e-005,2.179161e-004
-6.667062e-005,1.905271e-004
-6.683268e-005,1.527658e-004
-6.407757e-005,1.103047e-004
-4.608832e-005,6.751948e-005
-7.354709e-006,3.089271e-005
4.564065e-005,2.855407e-006
1.038221e-004,-1.918548e-005
1.680000e-004,-3.895745e-005
2.346088e-004,-5.710876e-005
2.987867e-004,-7.104638e-005
3.579406e-004,-7.979791e-005
4.217943e-004,-8.725291e-005
4.927790e-004,-9.973194e-005
5.647360e-004,-1.182074e-004
6.282657e-004,-1.413827e-004
6.660269e-004,-1.663408e-004
6.627856e-004,-1.898403e-004
6.128695e-004,-2.063709e-004
5.266506e-004,-2.151224e-004
4.170944e-004,-2.198223e-004
2.919800e-004,-2.225774e-004
1.582761e-004,-2.266291e-004
2.522042e-005,-2.318152e-004
-1.042698e-004,-2.373254e-004
-2.258187e-004,-2.384598e-004
-3.358611e-004,-2.323013e-004
-4.353692e-004,-2.136638e-004
-5.283947e-004,-1.841680e-004
-6.196374e-004,-1.538618e-004
-7.019666e-004,-1.311726e-004
-7.622549e-004,-1.195039e-004
-7.954782e-004,-1.177212e-004
-8.048780e-004,-1.198280e-004
-7.967748e-004,-1.209625e-004
-7.716547e-004,-1.216107e-004
-7.131490e-004,-1.232314e-004
-5.967862e-004,-1.243659e-004
-4.159214e-004,-1.146419e-004
-1.880575e-004,-8.887356e-005
5.131294e-005,-4.981582e-005
2.637806e-004,-6.220252e-006
4.214702e-004,3.591673e-005
5.117406e-004,7.027458e-005
5.358884e-004,9.182927e-005
5.080132e-004,1.005808e-004
4.388112e-004,9.652917e-005
3.341170e-004,8.712937e-005
2.203471e-004,7.837785e-005
1.284560e-004,7.562274e-005
8.340187e-005,8.129502e-005
9.571884e-005,9.150514e-005
1.592484e-004,1.010670e-004
2.456293e-004,1.111150e-004
3.156415e-004,1.273216e-004
3.344411e-004,1.511452e-004
2.814457e-004,1.809652e-004
1.577899e-004,2.132162e-004
-4.923729e-006,2.383363e-004
-1.721751e-004,2.493568e-004
-3.126857e-004,2.493568e-004
-3.958252e-004,2.527602e-004
-3.950149e-004,2.683184e-004
-3.044204e-004,2.929524e-004
-1.459206e-004,3.208276e-004
2.716521e-005,3.457857e-004
1.641104e-004,3.559958e-004
2.423880e-004,3.506476e-004
2.736666e-004,3.346032e-004
2.845250e-004,3.195311e-004
2.957075e-004,3.128864e-004
3.109416e-004,3.145071e-004
3.243930e-004,3.185587e-004
3.320101e-004,3.195311e-004
3.352514e-004,3.102934e-004
3.334687e-004,2.853353e-004
3.266619e-004,2.448189e-004
3.099692e-004,1.974959e-004
2.765838e-004,1.496866e-004
2.271538e-004,1.047945e-004
1.709172e-004,6.768154e-005
1.163011e-004,4.175109e-005
6.573675e-005,2.765140e-005
3.089271e-005,1.938607e-005
2.894792e-005,9.500085e-006
8.080883e-005,-8.720959e-007
1.921477e-004,-9.785688e-006
3.326584e-004,-1.950961e-005
4.600418e-004,-3.555408e-005
5.464226e-004,-5.694670e-005
6.024973e-004,-7.428769e-005
6.621373e-004,-8.417367e-005
7.527319e-004,-8.611845e-005
8.677984e-004,-8.530812e-005
9.613102e-004,-8.887356e-005
9.835132e-004,-1.041077e-004
9.203076e-004,-1.336036e-004
8.003792e-004,-1.699062e-004
6.755888e-004,-2.006986e-004
5.833735e-004,-2.191741e-004
5.375090e-004,-2.248464e-004
5.305402e-004,-2.230636e-004
5.467468e-004,-2.229016e-004
5.623050e-004,-2.259808e-004
5.525811e-004,-2.327876e-004
5.018546e-004,-2.404046e-004
3.999155e-004,-2.462390e-004
2.540567e-004,-2.454286e-004
7.935024e-005,-2.348944e-004
-1.143178e-004,-2.141500e-004
-3.342404e-004,-1.896782e-004
-6.014861e-004,-1.682856e-004
-9.244822e-004,-1.538618e-004
-1.278595e-003,-1.478653e-004
-1.595595e-003,-1.470550e-004
-1.781970e-003,-1.433275e-004
-1.775973e-003,-1.316588e-004
-1.577930e-003,-1.120489e-004
-1.242454e-003,-8.757704e-005
-8.569010e-004,-5.775702e-005
-5.079744e-004,-1.950961e-005
-2.527216e-004,2.343770e-005
-1.067007e-004,6.573675e-005
-4.074016e-005,9.977047e-005
-3.465141e-006,1.192183e-004
4.223728e-005,1.245665e-004
1.177597e-004,1.216493e-004
2.219677e-004,1.177597e-004
3.397893e-004,1.177597e-004
4.530729e-004,1.239182e-004
5.460985e-004,1.315353e-004
5.971491e-004,1.380179e-004
5.843459e-004,1.380179e-004
5.015305e-004,1.376938e-004
3.702575e-004,1.470936e-004
2.300710e-004,1.739964e-004
1.210010e-004,2.133783e-004
6.881599e-005,2.569738e-004
7.448828e-005,2.979764e-004
1.159770e-004,3.286068e-004
1.495245e-004,3.440029e-004
1.175977e-004,3.441650e-004
-1.529591e-005,3.336308e-004
-2.587180e-004,3.180725e-004
-5.958138e-004,3.039728e-004
-9.799085e-004,2.887387e-004
-1.327215e-003,2.686426e-004
-1.539844e-003,2.457913e-004
-1.550865e-003,2.274780e-004
-1.345852e-003,2.208333e-004
-9.740742e-004,2.261814e-004
-5.352014e-004,2.389846e-004
-1.399241e-004,2.538946e-004
1.299146e-004,2.692908e-004
2.431983e-004,2.811216e-004
2.312055e-004,2.856594e-004
1.670276e-004,2.795009e-004
1.198666e-004,2.624841e-004
1.221355e-004,2.389846e-004
1.696206e-004,2.166196e-004
2.357433e-004,1.936063e-004
2.961937e-004,1.624898e-004
3.380065e-004,1.208390e-004
3.582647e-004,7.351589e-005
3.579406e-004,2.619281e-005
3.454615e-004,-1.464765e-005
3.347652e-004,-4.414354e-005
3.350894e-004,-6.067420e-005
3.516200e-004,-6.586029e-005
3.820883e-004,-6.326724e-005
4.133669e-004,-5.937768e-005
4.334631e-004,-6.164659e-005
4.326527e-004,-7.412562e-005
4.099636e-004,-9.260107e-005
3.739850e-004,-1.144799e-004
3.444891e-004,-1.371690e-004
3.310377e-004,-1.614788e-004
3.239069e-004,-1.851404e-004
3.052694e-004,-2.037779e-004
2.746390e-004,-2.139880e-004
2.516257e-004,-2.164190e-004
2.514636e-004,-2.128535e-004
2.775562e-004,-2.047502e-004
3.174242e-004,-1.971332e-004
3.508097e-004,-1.950263e-004
3.605336e-004,-1.968091e-004
3.391410e-004,-2.018331e-004
2.906835e-004,-2.073433e-004
2.281262e-004,-2.125294e-004
1.670276e-004,-2.190120e-004
1.261871e-004,-2.264670e-004
1.156529e-004,-2.340841e-004
1.351007e-004,-2.348944e-004
1.676758e-004,-2.245222e-004
1.892305e-004,-2.023193e-004
1.772377e-004,-1.715269e-004
1.281319e-004,-1.394379e-004
5.617490e-005,-1.156143e-004
-1.610624e-005,-1.075111e-004
-7.250496e-005,-1.109144e-004
-1.146419e-004,-1.101041e-004
-1.574272e-004,-9.649064e-005
-2.113949e-004,-6.504996e-005
-2.791382e-004,-2.129233e-005
-3.564434e-004,2.651694e-005
-4.313175e-004,7.659513e-005
-4.856094e-004,1.328318e-004
-4.990608e-004,1.949028e-004
-4.551412e-004,2.584324e-004
-3.585502e-004,3.141829e-004
-2.382978e-004,3.504856e-004
-1.400862e-004,3.579406e-004
-1.049180e-004,3.405996e-004
-1.402483e-004,3.132105e-004
