2.816078e-004,1.266733e-004
2.133783e-004,1.333180e-004
1.644345e-004,1.320215e-004
1.284560e-004,1.232699e-004
9.798775e-005,1.122495e-004
6.395403e-005,1.034980e-004
2.554455e-005,9.507057e-005
-1.545797e-005,8.502253e-005
-5.581224e-005,7.465034e-005
-8.952182e-005,6.379197e-005
-1.112386e-004,5.601283e-005
-1.261486e-004,5.082674e-005
-1.376552e-004,4.223728e-005
-1.486757e-004,2.408596e-005
-1.593720e-004,-1.520357e-006
-1.705545e-004,-2.226472e-005
-1.806025e-004,-3.150244e-005
-1.874093e-004,-3.020592e-005
-1.885437e-004,-2.761287e-005
-1.880575e-004,-2.647842e-005
-1.901644e-004,-2.501983e-005
-2.006986e-004,-2.242678e-005
-2.230636e-004,-2.048200e-005
-2.533698e-004,-1.999580e-005
-2.840002e-004,-1.788895e-005
-3.107410e-004,-1.448558e-005
-3.308370e-004,-1.270286e-005
-3.455850e-004,-1.918548e-005
-3.583881e-004,-3.344722e-005
-3.671397e-004,-4.916756e-005
-3.676258e-004,-5.953974e-005
-3.504469e-004,-6.423963e-005
-3.016653e-004,-6.148453e-005
-2.193361e-004,-5.289506e-005
-1.084835e-004,-4.122636e-005
1.971020e-005,-2.907146e-005
1.509831e-004,-1.837515e-005
2.634565e-004,-8.327101e-006
3.305515e-004,3.827798e-006
3.313618e-004,1.630683e-005
2.639427e-004,2.392390e-005
1.495245e-004,2.651694e-005
2.408596e-005,2.878586e-005
-8.336334e-005,3.462021e-005
-1.569410e-004,4.142695e-005
-1.972952e-004,4.207521e-005
-2.172293e-004,3.688912e-005
-2.331117e-004,3.202716e-005
-2.575835e-004,3.316162e-005
-2.857829e-004,4.304760e-005
-3.109030e-004,5.406805e-005
-3.297026e-004,5.990240e-005
-3.332680e-004,5.585077e-005
-3.107410e-004,4.483032e-005
-2.605007e-004,3.413401e-005
-1.893540e-004,2.894792e-005
-1.057284e-004,2.716520e-005
-1.724069e-005,2.084466e-005
6.444023e-005,9.824214e-006
1.278078e-004,-2.168618e-006
1.663793e-004,-1.108221e-005
1.850168e-004,-1.529591e-005
1.923098e-004,-1.886135e-005
1.955511e-004,-3.020592e-005
1.996027e-004,-5.435365e-005
2.025199e-004,-8.368747e-005
1.942546e-004,-1.068628e-004
1.726999e-004,-1.148040e-004
1.472556e-004,-1.041077e-004
1.341283e-004,-7.898758e-005
1.496866e-004,-4.803310e-005
1.949028e-004,-1.707863e-005
2.553532e-004,9.175954e-006
3.143450e-004,3.154097e-005
3.499994e-004,4.953022e-005
3.467580e-004,6.476436e-005
3.085106e-004,7.562274e-005
2.524360e-004,8.113296e-005
2.033302e-004,8.437427e-005
1.676758e-004,8.972242e-005
1.127357e-004,9.652916e-005
-3.879538e-005,1.059289e-004
-3.319715e-004,1.140322e-004
-7.035872e-004,1.187321e-004
-1.014590e-003,1.163011e-004
-1.150077e-003,1.090082e-004
-1.076013e-003,1.049566e-004
-8.458805e-004,1.077117e-004
-5.523803e-004,1.153287e-004
-2.805968e-004,1.312111e-004
-8.271508e-005,1.530900e-004
2.959618e-005,1.752929e-004
7.562274e-005,1.900409e-004
8.923622e-005,1.929580e-004
9.847395e-005,1.855030e-004
1.172735e-004,1.730240e-004
1.446626e-004,1.581140e-004
1.756170e-004,1.412592e-004
2.031682e-004,1.200286e-004
2.268297e-004,9.361198e-005
2.558394e-004,6.670914e-005
2.968419e-004,4.466826e-005
3.399513e-004,3.105477e-005
3.715541e-004,3.073064e-005
3.816021e-004,4.158902e-005
3.676645e-004,5.876794e-005
3.438409e-004,7.691926e-005
3.264999e-004,8.988448e-005
3.260137e-004,9.636710e-005
3.404375e-004,9.442231e-005
3.603715e-004,8.356393e-005
3.739850e-004,6.832980e-005
3.715541e-004,5.471631e-005
3.475684e-004,4.418206e-005
2.994350e-004,3.380988e-005
2.303951e-004,2.214118e-005
1.483901e-004,8.689757e-006
7.027457e-005,-4.761663e-006
1.711715e-005,-1.805102e-005
-1.520357e-006,-3.085418e-005
6.907039e-006,-3.911951e-005
2.829966e-005,-4.041603e-005
5.131293e-005,-3.701266e-005
6.978838e-005,-3.069211e-005
8.129502e-005,-2.161646e-005
9.604297e-005,-1.189254e-005
1.307249e-004,-2.168618e-006
1.983062e-004,7.069104e-006
3.015418e-004,1.889987e-005
4.333010e-004,3.737532e-005
5.721910e-004,5.941620e-005
6.848265e-004,7.578480e-005
7.415494e-004,7.951231e-005
7.293944e-004,7.157111e-005
6.540340e-004,5.974033e-005
5.459364e-004,5.196120e-005
4.324906e-004,5.439218e-005
3.334687e-004,6.541262e-005
2.592428e-004,7.918817e-005
2.081922e-004,9.328785e-005
1.832341e-004,1.059289e-004
1.835582e-004,1.122495e-004
2.026820e-004,1.054428e-004
2.313675e-004,8.226741e-005
2.602152e-004,4.223728e-005
2.772320e-004,-6.544382e-006
2.660495e-004,-5.613637e-005
2.182402e-004,-1.031353e-004
1.313732e-004,-1.494860e-004
1.160693e-005,-1.909747e-004
-1.208004e-004,-2.217671e-004
-2.423494e-004,-2.391081e-004
-3.392644e-004,-2.395943e-004
-4.086284e-004,-2.220912e-004
-4.595169e-004,-1.942160e-004
-5.045710e-004,-1.673132e-004
-5.478425e-004,-1.501342e-004
-5.825244e-004,-1.459205e-004
-5.995412e-004,-1.551583e-004
-5.956517e-004,-1.733096e-004
-5.736108e-004,-1.958366e-004
-5.410357e-004,-2.183637e-004
-5.023021e-004,-2.368392e-004
-4.603272e-004,-2.483458e-004
-4.097628e-004,-2.498044e-004
-3.493125e-004,-2.345703e-004
-2.820554e-004,-2.003745e-004
-2.089639e-004,-1.515928e-004
-1.258244e-004,-9.713889e-005
-2.323711e-005,-4.349527e-005
9.604297e-005,6.096713e-006
2.133783e-004,4.807163e-005
3.031625e-004,8.388807e-005
3.470822e-004,1.163011e-004
3.407616e-004,1.445005e-004
2.978143e-004,1.699447e-004
2.363915e-004,1.936063e-004
1.688103e-004,2.162954e-004
1.041462e-004,2.372019e-004
4.256141e-005,2.548670e-004
-2.194059e-005,2.665357e-004
-8.725291e-005,2.726942e-004
-1.397621e-004,2.728562e-004
-1.663408e-004,2.694529e-004
-1.621271e-004,2.649151e-004
-1.345760e-004,2.585945e-004
-9.924574e-005,2.470879e-004
-6.845333e-005,2.295848e-004
-5.078821e-005,2.080301e-004
-4.544005e-005,1.869616e-004
-5.143647e-005,1.710792e-004
-5.791909e-005,1.626518e-004
-5.402952e-005,1.623277e-004
-3.409548e-005,1.613553e-004
1.396819e-006,1.495245e-004
3.624086e-005,1.260251e-004
3.218923e-005,9.182927e-005
-4.965375e-005,5.212327e-005
-2.152845e-004,1.112074e-005
-4.190006e-004,-3.085418e-005
-5.838209e-004,-7.218083e-005
-6.452437e-004,-1.092938e-004
-5.843071e-004,-1.425172e-004
-4.237005e-004,-1.700683e-004
-2.194982e-004,-1.896782e-004
-3.377135e-005,-1.976194e-004
8.242948e-005,-1.880575e-004
1.086841e-004,-1.605064e-004
6.281957e-005,-1.220969e-004
-1.610623e-005,-7.671866e-005
-9.292519e-005,-2.615428e-005
-1.442999e-004,2.311357e-005
-1.606685e-004,6.541262e-005
-1.449481e-004,9.960840e-005
-1.067007e-004,1.286181e-004
-5.872941e-005,1.517934e-004
-1.448558e-005,1.662173e-004
2.376183e-005,1.749688e-004
5.844381e-005,1.819376e-004
8.680524e-005,1.864754e-004
1.112771e-004,1.842065e-004
1.355869e-004,1.738343e-004
1.699447e-004,1.551968e-004
2.184023e-004,1.305629e-004
2.704253e-004,1.062531e-004
3.177483e-004,8.648111e-005
3.670162e-004,7.189524e-005
4.329768e-004,6.119892e-005
5.217887e-004,5.455424e-005
6.084936e-004,4.726130e-005
6.558168e-004,3.251336e-005
6.483617e-004,3.503668e-006
5.911527e-004,-3.296103e-005
4.872688e-004,-5.970180e-005
3.062417e-004,-6.537409e-005
9.338019e-006,-5.159854e-005
-3.791325e-004,-2.777494e-005
-7.575550e-004,-2.006553e-006
-1.009404e-003,2.343770e-005
-1.061103e-003,4.969228e-005
-9.050343e-004,7.367795e-005
-5.997033e-004,9.247753e-005
-2.421873e-004,1.028497e-004
7.432621e-005,1.041462e-004
2.913317e-004,8.988448e-005
3.918122e-004,5.795762e-005
3.958639e-004,1.306552e-005
3.386548e-004,-3.166451e-005
2.491947e-004,-6.197072e-005
1.474177e-004,-6.764300e-005
5.196120e-005,-4.689864e-005
-2.258885e-005,-7.840905e-006
-7.218083e-005,3.737532e-005
-9.875954e-005,7.578480e-005
-1.062145e-004,9.896014e-005
-1.000561e-004,1.114392e-004
-8.401160e-005,1.171115e-004
-6.213279e-005,1.179218e-004
-3.717472e-005,1.146805e-004
-9.299492e-006,1.085220e-004
2.068259e-005,1.030118e-004
4.839576e-005,1.013911e-004
7.465034e-005,1.020394e-004
9.977046e-005,1.007429e-004
1.286181e-004,9.701536e-005
1.605450e-004,8.842590e-005
1.984682e-004,7.254349e-005
2.441707e-004,4.871989e-005
2.927903e-004,2.278944e-005
3.342790e-004,2.693341e-006
3.603715e-004,-9.137427e-006
3.640990e-004,-9.947754e-006
3.384927e-004,-4.113402e-006
2.835526e-004,4.962256e-006
2.107852e-004,1.274139e-005
1.383420e-004,1.565857e-005
7.821578e-005,1.257933e-005
2.975825e-005,5.934647e-006
-1.675450e-005,-5.479652e-007
-6.342930e-005,-5.409925e-006
-1.034594e-004,-7.678839e-006
-1.261486e-004,-1.092015e-005
-1.203142e-004,-1.675450e-005
-9.146661e-005,-2.258885e-005
-5.192267e-005,-2.728874e-005
-1.416145e-005,-3.069211e-005
7.879431e-006,-2.826113e-005
-7.100305e-007,-1.902341e-005
-3.814712e-005,-3.951337e-006
-8.644258e-005,9.500084e-006
-1.216107e-004,1.598270e-005
-1.297140e-004,1.582063e-005
-1.198280e-004,8.689757e-006
-9.713889e-005,-7.678839e-006
-4.997788e-005,-2.874733e-005
4.045456e-005,-4.608832e-005
1.892305e-004,-5.192267e-005
3.754436e-004,-4.657451e-005
5.457744e-004,-3.490581e-005
6.485238e-004,-2.210265e-005
6.689440e-004,-1.432352e-005
6.221071e-004,-9.461557e-006
5.305402e-004,-2.816880e-006
4.185530e-004,9.500084e-006
3.130485e-004,2.522042e-005
2.365536e-004,3.559260e-005
1.820997e-004,3.494434e-005
1.127357e-004,2.570661e-005
-3.441962e-005,1.695509e-005
-3.065272e-004,1.517237e-005
-6.629088e-004,1.695509e-005
-9.844463e-004,1.808955e-005
-1.143918e-003,1.419998e-005
-1.067424e-003,8.365628e-006
-7.564205e-004,3.341602e-006
-2.909690e-004,5.610517e-006
1.991165e-004,1.646889e-005
5.817529e-004,3.267542e-005
7.699108e-004,4.239934e-005
7.438183e-004,3.948217e-005
5.524190e-004,2.635488e-005
2.966798e-004,1.322759e-005
7.967437e-005,9.824214e-006
-4.138842e-005,2.116879e-005
-6.521203e-005,3.786152e-005
-2.680255e-005,4.888196e-005
3.445814e-005,4.969228e-005
9.215340e-005,3.818564e-005
1.370455e-004,1.938607e-005
1.607070e-004,-1.844488e-006
1.493625e-004,-1.772689e-005
1.057669e-004,-2.226472e-005
6.103685e-005,-1.724069e-005
4.515445e-005,-5.896120e-006
6.719534e-005,5.610517e-006
1.122495e-004,1.517237e-005
1.547106e-004,2.214118e-005
1.707551e-004,2.732727e-005
1.485521e-004,2.878586e-005
8.469840e-005,2.878586e-005
-9.137427e-006,3.105477e-005
-1.071869e-004,3.154097e-005
-1.799543e-004,2.570661e-005
-2.000504e-004,1.565857e-005
-1.533756e-004,5.448451e-006
-4.268495e-005,-4.761663e-006
1.090082e-004,-1.545797e-005
2.696149e-004,-2.372330e-005
4.076946e-004,-2.680255e-005
5.078511e-004,-1.983374e-005
5.814287e-004,-3.951337e-006
6.503065e-004,1.517237e-005
7.151327e-004,3.543053e-005
7.572697e-004,5.131293e-005
7.511112e-004,5.115087e-005
6.772094e-004,2.748933e-005
5.303781e-004,-1.335112e-005
3.192069e-004,-4.884343e-005
7.286762e-005,-6.035006e-005
-1.585616e-004,-4.430560e-005
-3.337542e-004,-1.140634e-005
-4.381243e-004,2.408596e-005
-4.736166e-004,4.871989e-005
-4.603272e-004,5.698522e-005
-4.178661e-004,5.212327e-005
-3.583881e-004,4.207521e-005
-2.930758e-004,3.218923e-005
-2.402425e-004,1.938607e-005
-2.243601e-004,-4.275467e-006
-2.533698e-004,-4.155049e-005
-3.162512e-004,-8.482193e-005
-3.966356e-004,-1.201522e-004
-4.781544e-004,-1.360346e-004
-5.484907e-004,-1.310105e-004
-5.956517e-004,-1.125351e-004
-6.087790e-004,-9.162867e-005
-5.865761e-004,-7.493595e-005
-5.295291e-004,-6.634648e-005
-4.413656e-004,-6.553616e-005
-3.376438e-004,-6.634648e-005
-2.412149e-004,-6.099833e-005
-1.703924e-004,-4.754691e-005
-1.373311e-004,-2.566809e-005
-1.394379e-004,2.207145e-006
-1.645580e-004,2.797553e-005
-1.982676e-004,5.098881e-005
-2.319772e-004,7.335382e-005
-2.669833e-004,9.782569e-005
-3.113892e-004,1.219734e-004
-3.530400e-004,1.438522e-004
-3.530400e-004,1.573037e-004
-2.742762e-004,1.589243e-004
-9.730095e-005,1.513072e-004
1.594105e-004,1.423936e-004
4.392974e-004,1.378558e-004
6.757508e-004,1.389903e-004
8.141547e-004,1.501728e-004
8.363576e-004,1.692965e-004
7.656971e-004,1.880961e-004
6.402585e-004,2.041405e-004
4.905100e-004,2.221298e-004
3.299032e-004,2.415776e-004
1.647587e-004,2.574600e-004
-2.238345e-007,2.594048e-004
-1.629374e-004,2.435224e-004
-3.177098e-004,2.104611e-004
-4.478482e-004,1.712413e-004
-5.366600e-004,1.399627e-004
-5.739350e-004,1.222975e-004
-5.608077e-004,1.141943e-004
-5.074882e-004,1.086841e-004
-4.279141e-004,9.814982e-005
-3.358611e-004,7.789165e-005
-2.431597e-004,4.904402e-005
-1.579134e-004,1.614476e-005
-8.336334e-005,-1.043395e-005
-1.886135e-005,-2.858526e-005
3.267542e-005,-4.009190e-005
7.302969e-005,-4.706071e-005
1.044704e-004,-4.738484e-005
1.393144e-004,-3.928157e-005
1.914994e-004,-2.437157e-005
2.681563e-004,-6.706447e-006
3.645853e-004,7.231170e-006
4.647416e-004,1.257933e-005
5.469088e-004,7.393235e-006
5.942319e-004,-6.382316e-006
5.995801e-004,-2.015787e-005
5.723531e-004,-2.842320e-005
5.282713e-004,-2.518189e-005
4.825688e-004,-1.302699e-005
4.457800e-004,1.558884e-006
4.188771e-004,1.419998e-005
4.041292e-004,2.246531e-005
4.005638e-004,2.797553e-005
4.038051e-004,3.478227e-005
3.991052e-004,4.564065e-005
3.699334e-004,6.071273e-005
3.025142e-004,7.578480e-005
1.987924e-004,8.356393e-005
8.194328e-005,8.145709e-005
-3.085418e-005,7.286762e-005
-1.708786e-004,6.136099e-005
-4.047388e-004,5.131293e-005
-7.591756e-004,4.742337e-005
-1.161746e-003,5.082674e-005
-1.480690e-003,5.925414e-005
-1.605967e-003,6.751947e-005
-1.511321e-003,7.270556e-005
-1.248937e-003,7.432621e-005
-9.113549e-004,7.157111e-005
-5.912759e-004,7.011251e-005
-3.450988e-004,7.189524e-005
-1.874093e-004,7.011251e-005
-1.164247e-004,5.795762e-005
-1.229073e-004,3.818564e-005
-1.671511e-004,2.165498e-005
-1.796301e-004,1.808955e-005
-1.242038e-004,2.716520e-005
-1.869928e-005,4.726130e-005
9.426025e-005,7.384001e-005
1.851789e-004,1.018773e-004
2.475740e-004,1.227837e-004
2.885766e-004,1.287802e-004
3.300653e-004,1.185700e-004
3.835469e-004,9.814982e-005
4.407560e-004,7.708132e-005
4.747897e-004,6.379197e-005
4.739794e-004,6.314371e-005
4.524247e-004,7.124698e-005
4.427008e-004,8.145709e-005
4.739794e-004,8.793970e-005
5.342677e-004,8.810177e-005
5.529052e-004,8.453633e-005
4.665244e-004,8.210535e-005
3.106175e-004,7.351588e-005
2.010613e-004,4.726130e-005
2.349330e-004,-5.479652e-007
4.179047e-004,-5.435365e-005
6.708889e-004,-9.454584e-005
8.950254e-004,-1.110765e-004
1.021599e-003,-1.068628e-004
1.030512e-003,-9.486997e-005
9.596895e-004,-8.984595e-005
8.809257e-004,-9.794922e-005
8.549952e-004,-1.188556e-004
8.865979e-004,-1.502963e-004
9.282487e-004,-1.966470e-004
9.256557e-004,-2.575835e-004
8.600192e-004,-3.262992e-004
7.480319e-004,-3.846427e-004
6.188658e-004,-4.131662e-004
4.966685e-004,-4.055491e-004
3.804677e-004,-3.624398e-004
2.490327e-004,-2.953447e-004
8.680524e-005,-2.186879e-004
-8.514606e-005,-1.444620e-004
-2.203085e-004,-8.352540e-005
-2.844864e-004,-3.976777e-005
-2.723315e-004,-1.626830e-005
-2.084778e-004,-1.448558e-005
-1.342519e-004,-3.668853e-005
-8.174268e-005,-7.088431e-005
-5.791909e-005,-1.029732e-004
-5.824321e-005,-1.232314e-004
-7.331529e-005,-1.379793e-004
-9.422171e-005,-1.613168e-004
-1.128592e-004,-1.959987e-004
-1.318209e-004,-2.233878e-004
-1.605064e-004,-2.206326e-004
-2.005366e-004,-1.859507e-004
-2.480217e-004,-1.345760e-004
-2.946965e-004,-8.498399e-005
-3.331059e-004,-4.527799e-005
-3.637363e-004,-1.302699e-005
-3.873978e-004,1.889987e-005
-4.027940e-004,5.471631e-005
-4.040906e-004,9.361198e-005
-3.919356e-004,1.341283e-004
-3.716775e-004,1.722137e-004
-3.527158e-004,2.038164e-004
-3.486642e-004,2.248849e-004
-3.655190e-004,2.360674e-004
-3.951770e-004,2.404432e-004
-4.249970e-004,2.386605e-004
-4.465517e-004,2.349330e-004
-4.528722e-004,2.372019e-004
-4.421759e-004,2.503292e-004
-4.149489e-004,2.738286e-004
-3.708672e-004,3.005694e-004
-3.133340e-004,3.214759e-004
-2.481837e-004,3.303894e-004
-1.890299e-004,3.264999e-004
-1.454343e-004,3.161277e-004
-1.136696e-004,3.026763e-004
-8.595638e-005,2.869559e-004
-5.905355e-005,2.722080e-004
-3.182657e-005,2.585945e-004
-2.006553e-006,2.433604e-004
2.424803e-005,2.211574e-004
4.239934e-005,1.905270e-004
4.888196e-005,1.624898e-004
4.337174e-005,1.438522e-004
2.797553e-005,1.329939e-004
6.096713e-006,1.242423e-004
-2.080613e-005,1.127357e-004
-5.467778e-005,9.912220e-005
-9.470791e-005,8.599491e-005
-1.310105e-004,7.708132e-005
-1.569410e-004,7.400208e-005
-1.718510e-004,7.513654e-005
-1.781715e-004,7.627100e-005
-1.765509e-004,7.951231e-005
-1.671511e-004,8.988448e-005
-1.509446e-004,1.096565e-004
-1.287416e-004,1.308870e-004
-1.010285e-004,1.475797e-004
-6.958779e-005,1.573037e-004
-4.219875e-005,1.527658e-004
-2.064406e-005,1.333180e-004
-8.720958e-007,1.036600e-004
2.424803e-005,7.627100e-005
5.957827e-005,6.055066e-005
1.017153e-004,5.763348e-005
1.414213e-004,6.152305e-005
1.620035e-004,6.865393e-005
1.509831e-004,7.448828e-005
1.030118e-004,7.691926e-005
3.105477e-005,7.481241e-005
-4.106429e-005,6.832980e-005
-8.871149e-005,6.152305e-005
-1.034594e-004,5.828174e-005
-9.179074e-005,5.763348e-005
-6.812920e-005,5.714729e-005
-4.333321e-005,5.487837e-005
-2.631635e-005,5.115087e-005
-1.562004e-005,4.499239e-005
-1.075808e-005,3.802358e-005
-8.489165e-006,3.218923e-005
-1.520357e-006,3.202716e-005
1.338965e-005,3.753739e-005
3.218923e-005,4.077869e-005
4.677511e-005,3.575467e-005
4.726130e-005,2.230324e-005
2.829966e-005,4.476060e-006
-9.785687e-006,-1.059601e-005
-6.132245e-005,-2.048200e-005
-1.149661e-004,-2.874733e-005
-1.600202e-004,-3.652646e-005
-1.935677e-004,-4.657451e-005
-2.170672e-004,-6.067420e-005
-2.292221e-004,-7.607040e-005
-2.287359e-004,-8.935975e-005
-2.097743e-004,-1.010285e-004
-1.635857e-004,-1.118868e-004
-8.692878e-005,-1.237176e-004
1.452411e-005,-1.374931e-004
1.253768e-004,-1.522411e-004
2.365536e-004,-1.608306e-004
3.427064e-004,-1.541859e-004
4.433490e-004,-1.371690e-004
5.409124e-004,-1.212866e-004
6.399344e-004,-1.133454e-004
7.386322e-004,-1.122110e-004
8.277682e-004,-1.092938e-004
8.877324e-004,-9.875954e-005
9.044252e-004,-7.850138e-005
8.726603e-004,-5.467778e-005
7.888725e-004,-3.782299e-005
6.520892e-004,-2.939559e-005
4.718725e-004,-2.437157e-005
2.769079e-004,-1.837515e-005
1.135460e-004,-1.351319e-005
1.209313e-005,-1.302699e-005
-1.821308e-005,-1.772689e-005
5.448451e-006,-2.615428e-005
5.293359e-005,-3.474375e-005
9.199134e-005,-3.992984e-005
9.669123e-005,-3.717472e-005
5.990240e-005,-2.680255e-005
-2.330684e-006,-1.367526e-005
-5.937767e-005,-4.275467e-006
-9.114247e-005,-8.720958e-007
-9.843541e-005,-4.599598e-006
-9.989400e-005,-1.302699e-005
-1.248521e-004,-2.161646e-005
-1.932436e-004,-2.583015e-005
-3.010170e-004,-2.501983e-005
-4.121938e-004,-2.015787e-005
-4.773441e-004,-1.335112e-005
-4.600031e-004,-6.706447e-006
-3.575778e-004,1.234753e-006
-2.006986e-004,1.193106e-005
-4.106429e-005,2.765140e-005
6.022653e-005,4.920609e-005
5.601283e-005,7.627100e-005
-6.456376e-005,1.064151e-004
-2.634179e-004,1.376937e-004
-4.517377e-004,1.650828e-004
-5.355255e-004,1.830720e-004
-4.724821e-004,1.884202e-004
-2.844864e-004,1.808031e-004
-1.156841e-005,1.623277e-004
3.120761e-004,1.373696e-004
6.339379e-004,1.072255e-004
8.958357e-004,6.930219e-005
1.046719e-003,2.214118e-005
1.068760e-003,-3.085418e-005
9.817304e-004,-8.287714e-005
8.225821e-004,-1.230693e-004
6.300483e-004,-1.475412e-004
4.423766e-004,-1.590478e-004
2.924662e-004,-1.592099e-004
1.889064e-004,-1.507825e-004
1.224596e-004,-1.391138e-004
8.502253e-005,-1.308485e-004
6.930219e-005,-1.319829e-004
6.314371e-005,-1.387897e-004
5.974033e-005,-1.475412e-004
5.406805e-005,-1.467309e-004
4.320967e-005,-1.284175e-004
2.635488e-005,-9.146661e-005
2.531276e-006,-4.479180e-005
-2.939559e-005,2.045080e-006
-6.116039e-005,4.385793e-005
-8.595638e-005,7.853991e-005
-1.037836e-004,1.015532e-004
-1.177212e-004,1.114392e-004
-1.305243e-004,1.109530e-004
-1.420310e-004,1.096565e-004
-1.554824e-004,1.128978e-004
-1.703924e-004,1.179218e-004
-1.848162e-004,1.198666e-004
-1.932436e-004,1.177597e-004
-1.945401e-004,1.088461e-004
-1.994021e-004,8.729143e-005
-2.201465e-004,5.682316e-005
-2.592042e-004,2.748933e-005
-3.078238e-004,9.986280e-006
-3.512573e-004,1.144487e-005
-3.779980e-004,3.267542e-005
-3.805911e-004,6.233338e-005
-3.653569e-004,8.664317e-005
-3.468815e-004,9.685329e-005
-3.366714e-004,9.199134e-005
-3.326198e-004,7.951231e-005
-3.264613e-004,6.541262e-005
-3.123616e-004,5.406805e-005
-2.908069e-004,5.001641e-005
-2.663351e-004,5.163707e-005
-2.408908e-004,5.260946e-005
-2.185258e-004,4.596478e-005
-1.981056e-004,2.862379e-005
-1.746061e-004,7.231170e-006
-1.425172e-004,-4.275467e-006
-1.031353e-004,1.234753e-006
-6.132245e-005,1.987226e-005
-1.950961e-005,4.369587e-005
1.906194e-005,7.043664e-005
4.564065e-005,9.555677e-005
5.455424e-005,1.143563e-004
4.693717e-005,1.192183e-004
2.586868e-005,1.133840e-004
-7.516774e-006,1.043083e-004
-4.236081e-005,9.588090e-005
-6.245691e-005,9.442231e-005
-5.986387e-005,1.034980e-004
-4.041603e-005,1.172735e-004
-1.772689e-005,1.281319e-004
-4.599598e-006,1.346145e-004
-3.951337e-006,1.394765e-004
-7.030578e-006,1.425557e-004
-7.516774e-006,1.446626e-004
-5.896120e-006,1.448246e-004
-3.951337e-006,1.449867e-004
-5.247859e-006,1.461212e-004
-9.137427e-006,1.511452e-004
-1.189254e-005,1.566554e-004
-6.706447e-006,1.628139e-004
8.851824e-006,1.696206e-004
2.797553e-005,1.772377e-004
4.596478e-005,1.856651e-004
5.909207e-005,1.900409e-004
6.136099e-005,1.884202e-004
5.001641e-005,1.827479e-004
3.170303e-005,1.743205e-004
1.825161e-005,1.605450e-004
1.646889e-005,1.370455e-004
3.624086e-005,1.080358e-004
7.772959e-005,7.935023e-005
1.297525e-004,5.811968e-005
1.783722e-004,4.596478e-005
2.162954e-004,4.094075e-005
2.423880e-004,3.867184e-005
2.560015e-004,3.235129e-005
2.582704e-004,2.262737e-005
2.517877e-004,1.176900e-005
2.325020e-004,3.503668e-006
2.057612e-004,-3.789271e-006
1.829100e-004,-1.464765e-005
1.735102e-004,-3.312309e-005
1.814514e-004,-5.775702e-005
1.882581e-004,-8.514606e-005
1.765894e-004,-1.104282e-004
1.398006e-004,-1.303623e-004
8.178122e-005,-1.478653e-004
9.338019e-006,-1.621271e-004
-6.748093e-005,-1.705545e-004
-1.426792e-004,-1.707165e-004
-2.039399e-004,-1.590478e-004
-2.335979e-004,-1.353863e-004
-2.199844e-004,-1.084835e-004
-1.648822e-004,-8.644258e-005
-8.676671e-005,-7.137050e-005
-1.189254e-005,-6.245691e-005
3.883391e-005,-5.986387e-005
6.281957e-005,-6.261898e-005
6.930219e-005,-6.521203e-005
7.335382e-005,-6.634648e-005
8.939829e-005,-6.488790e-005
1.206769e-004,-6.359137e-005
1.590864e-004,-6.602235e-005
1.965235e-004,-7.266703e-005
2.245608e-004,-7.866345e-005
2.415776e-004,-7.720485e-005
2.394708e-004,-6.440169e-005
2.112714e-004,-4.171255e-005
1.584381e-004,-1.562004e-005
9.604297e-005,6.420843e-006
4.677511e-005,1.711715e-005
3.364782e-005,2.035846e-005
6.217131e-005,2.246531e-005
1.197045e-004,2.797553e-005
1.838824e-004,3.802358e-005
2.344468e-004,5.455424e-005
2.529222e-004,7.691926e-005
2.354192e-004,9.458438e-005
1.974959e-004,1.018773e-004
1.644345e-004,1.033359e-004
1.571416e-004,1.013911e-004
1.829100e-004,9.539470e-005
2.372019e-004,8.907416e-005
3.013797e-004,8.178122e-005
3.561578e-004,7.627100e-005
3.864641e-004,7.448828e-005
3.866261e-004,7.935023e-005
3.577785e-004,8.712937e-005
3.052693e-004,8.988448e-005
2.420638e-004,8.032263e-005
1.871237e-004,5.131293e-005
1.576278e-004,5.864920e-007
1.587622e-004,-6.650855e-005
1.801549e-004,-1.349001e-004
2.085163e-004,-1.872472e-004
2.342847e-004,-2.152845e-004
2.407673e-004,-2.191741e-004
2.162954e-004,-1.995642e-004
1.564933e-004,-1.643960e-004
6.800567e-005,-1.250141e-004
-3.782299e-005,-8.336334e-005
-1.519170e-004,-3.458168e-005
-2.655248e-004,2.684107e-005
-3.673017e-004,9.328785e-005
-4.376381e-004,1.503348e-004
-4.567618e-004,1.879340e-004
-4.214316e-004,2.036543e-004
-3.446126e-004,2.031682e-004
-2.480217e-004,1.927960e-004
-1.494860e-004,1.817755e-004
-6.083626e-005,1.731861e-004
1.549650e-005,1.623277e-004
6.881599e-005,1.480659e-004
8.437427e-005,1.326697e-004
4.904402e-005,1.182459e-004
-3.798505e-005,1.033359e-004
-1.509446e-004,8.777764e-005
-2.480217e-004,6.914012e-005
-2.963171e-004,4.920609e-005
-2.912931e-004,3.137890e-005
-2.523974e-004,2.295151e-005
-2.058847e-004,2.635488e-005
-1.749302e-004,3.883391e-005
-1.643960e-004,5.487837e-005
-1.608306e-004,6.573675e-005
-1.514308e-004,6.492643e-005
-1.250141e-004,5.034054e-005
-8.255302e-005,2.084466e-005
-3.587821e-005,-2.485776e-005
3.827798e-006,-8.028410e-005
2.408596e-005,-1.305243e-004
4.800190e-006,-1.622891e-004
-5.889147e-005,-1.712027e-004
-1.562927e-004,-1.590478e-004
-2.561249e-004,-1.337657e-004
-3.134960e-004,-1.036215e-004
-3.016653e-004,-7.493595e-005
-2.225774e-004,-5.273300e-005
-9.665269e-005,-3.895744e-005
4.596478e-005,-2.988179e-005
1.736723e-004,-2.258885e-005
2.663736e-004,-1.140634e-005
3.195311e-004,4.476060e-006
3.256896e-004,2.214118e-005
2.791768e-004,4.175108e-005
1.893926e-004,6.346784e-005
7.983643e-005,8.372600e-005
-1.918548e-005,9.701536e-005
-8.368747e-005,1.054428e-004
-1.079973e-004,1.106288e-004
-1.016767e-004,1.135460e-004
-7.428768e-005,1.159770e-004
-3.685059e-005,1.197045e-004
4.151929e-006,1.226217e-004
4.612685e-005,1.257009e-004
8.988448e-005,1.281319e-004
1.385041e-004,1.305629e-004
1.913374e-004,1.342904e-004
2.462775e-004,1.404489e-004
3.015418e-004,1.448246e-004
3.563199e-004,1.446626e-004
4.021844e-004,1.376937e-004
4.308700e-004,1.294284e-004
4.365423e-004,1.273216e-004
4.234150e-004,1.367214e-004
3.935950e-004,1.530900e-004
3.201793e-004,1.650828e-004
1.367214e-004,1.684862e-004
-1.953505e-004,1.600588e-004
-6.100755e-004,1.347766e-004
-9.721293e-004,9.490851e-005
-1.164825e-003,4.920609e-005
-1.139381e-003,8.689757e-006
-9.277235e-004,-1.497178e-005
-6.189891e-004,-1.610623e-005
-3.087962e-004,3.827798e-006
-6.083626e-005,3.656499e-005
1.083599e-004,6.865393e-005
2.107852e-004,9.231547e-005
2.628082e-004,1.067393e-004
2.738286e-004,1.138701e-004
2.540566e-004,1.159770e-004
2.120818e-004,1.133840e-004
1.566554e-004,1.106288e-004
9.782569e-005,1.132219e-004
4.628891e-005,1.200286e-004
1.241726e-005,1.231079e-004
2.623614e-007,1.164632e-004
-2.978945e-006,9.328785e-005
-9.299492e-006,5.228533e-005
-2.031993e-005,3.503668e-006
-3.020592e-005,-3.944364e-005
-2.923352e-005,-6.618442e-005
-6.382316e-006,-7.088431e-005
4.418206e-005,-5.840528e-005
1.190562e-004,-4.511592e-005
2.047888e-004,-4.090223e-005
2.867939e-004,-4.527799e-005
3.496752e-004,-4.965375e-005
3.838710e-004,-4.787104e-005
3.910019e-004,-4.527799e-005
3.841952e-004,-4.738484e-005
3.757677e-004,-5.775702e-005
3.662059e-004,-6.926366e-005
3.517821e-004,-7.542214e-005
3.268240e-004,-7.428768e-005
2.978143e-004,-6.877746e-005
2.762596e-004,-6.342930e-005
2.692908e-004,-6.164659e-005
2.681563e-004,-6.586029e-005
2.608634e-004,-7.396355e-005
2.393087e-004,-7.769105e-005
2.064095e-004,-7.347736e-005
1.720516e-004,-6.002593e-005
1.346145e-004,-4.057810e-005
9.069480e-005,-1.724069e-005
4.061663e-005,6.420843e-006
-1.108221e-005,2.684107e-005
-5.143647e-005,4.547859e-005
-6.342930e-005,5.990240e-005
-4.868136e-005,7.059870e-005
-2.809907e-005,7.546067e-005
-2.680255e-005,7.529860e-005
-5.402952e-005,7.108490e-005
-9.017008e-005,6.379197e-005
-1.032974e-004,6.087479e-005
-7.363942e-005,6.638501e-005
-8.813297e-006,7.529860e-005
6.849186e-005,8.048469e-005
1.406109e-004,7.124698e-005
2.085163e-004,4.531652e-005
2.871180e-004,5.610517e-006
3.882468e-004,-3.944364e-005
5.003960e-004,-7.995997e-005
5.853183e-004,-1.126972e-004
6.091419e-004,-1.431654e-004
5.576051e-004,-1.767129e-004
4.589073e-004,-2.188499e-004
3.652335e-004,-2.655248e-004
3.081865e-004,-3.063652e-004
2.645909e-004,-3.287302e-004
1.785342e-004,-3.250027e-004
1.436204e-005,-2.946965e-004
-2.088019e-004,-2.405667e-004
-4.356933e-004,-1.718510e-004
-6.163961e-004,-9.746302e-005
-7.188214e-004,-2.275091e-005
-7.335693e-004,4.888196e-005
-6.732810e-004,1.114392e-004
-5.642110e-004,1.579519e-004
-4.379622e-004,1.898788e-004
-3.238682e-004,2.107852e-004
-2.408908e-004,2.245608e-004
-2.015089e-004,2.303951e-004
-2.183637e-004,2.310434e-004
-2.906448e-004,2.276400e-004
-4.010113e-004,2.211574e-004
-5.368220e-004,2.072198e-004
-6.813843e-004,1.795066e-004
-7.865646e-004,1.351007e-004
-7.948300e-004,7.756751e-005
-6.894875e-004,2.003433e-005
-5.057055e-004,-2.923352e-005
-3.010170e-004,-6.375343e-005
-1.067007e-004,-8.514606e-005
8.486046e-005,-9.422171e-005
2.885766e-004,-9.389758e-005
5.086614e-004,-8.271508e-005
7.326358e-004,-5.840528e-005
9.173904e-004,-2.226472e-005
1.004258e-003,1.695509e-005
9.496414e-004,4.969228e-005
7.587283e-004,7.173317e-005
4.935893e-004,8.631904e-005
2.273159e-004,9.879807e-005
1.452411e-005,1.140322e-004
-1.297140e-004,1.304008e-004
-2.229016e-004,1.433660e-004
-2.930758e-004,1.440143e-004
-3.572537e-004,1.349386e-004
-4.123559e-004,1.244044e-004
-4.400690e-004,1.232699e-004
-4.272659e-004,1.373696e-004
-3.734602e-004,1.600588e-004
-2.938861e-004,1.830720e-004
-1.995642e-004,1.989545e-004
-9.924574e-005,2.062474e-004
-4.113402e-006,2.033302e-004
7.400208e-005,1.921477e-004
1.271595e-004,1.770756e-004
1.469315e-004,1.624898e-004
1.299146e-004,1.514693e-004
7.935023e-005,1.451487e-004
1.160693e-005,1.451487e-004
-5.565017e-005,1.517934e-004
-1.039456e-004,1.584381e-004
-1.167488e-004,1.613553e-004
-9.665269e-005,1.555209e-004
-5.921561e-005,1.420695e-004
-2.339917e-005,1.258630e-004
-4.923729e-006,1.117633e-004
-1.156841e-005,9.993253e-005
-3.604027e-005,8.583285e-005
-6.440169e-005,6.281957e-005
-8.822530e-005,2.781346e-005
-9.859748e-005,-1.416145e-005
-8.628051e-005,-5.176060e-005
-5.224680e-005,-7.282909e-005
-8.813297e-006,-7.363942e-005
3.348575e-005,-6.051213e-005
6.654707e-005,-4.203669e-005
8.388807e-005,-2.664048e-005
8.923622e-005,-1.416145e-005
9.166720e-005,-7.516774e-006
9.766362e-005,-8.002969e-006
1.026876e-004,-1.432352e-005
1.030118e-004,-2.113026e-005
1.009049e-004,-2.599222e-005
1.044704e-004,-2.777494e-005
1.143563e-004,-2.745081e-005
1.234320e-004,-2.469570e-005
1.250527e-004,-2.258885e-005
1.166253e-004,-2.599222e-005
1.000946e-004,-3.279896e-005
8.080882e-005,-3.863331e-005
6.330577e-005,-4.090223e-005
4.564065e-005,-3.506787e-005
1.727922e-005,-2.501983e-005
-2.664048e-005,-1.416145e-005
-8.838737e-005,-4.599598e-006
-1.626133e-004,2.369210e-006
-2.394322e-004,8.203561e-006
-2.992343e-004,1.193106e-005
-3.274337e-004,1.484824e-005
-3.211131e-004,1.808955e-005
-2.895104e-004,2.181705e-005
-2.436459e-004,2.295151e-005
-1.914609e-004,2.084466e-005
-1.442999e-004,1.257933e-005
-9.989400e-005,-3.141010e-006
-4.835723e-005,-2.404744e-005
1.938607e-005,-4.317114e-005
1.122495e-004,-4.981582e-005
2.303951e-004,-3.587821e-005
3.623164e-004,-5.734055e-006
4.896997e-004,2.894792e-005
5.966629e-004,5.893001e-005
6.721854e-004,7.724339e-005
7.188602e-004,7.481241e-005
7.472216e-004,4.742337e-005
7.729901e-004,6.582909e-006
8.084824e-004,-2.939559e-005
8.496470e-004,-5.159854e-005
8.807636e-004,-5.953974e-005
8.966460e-004,-6.002593e-005
9.002115e-004,-5.419158e-005
8.854635e-004,-4.787104e-005
8.113996e-004,-4.511592e-005
6.196762e-004,-4.738484e-005
2.926282e-004,-5.354332e-005
-1.143178e-004,-5.727082e-005
-4.830163e-004,-5.240886e-005
-6.977528e-004,-4.252288e-005
-7.016424e-004,-2.842320e-005
-5.189948e-004,-1.092015e-005
-2.384598e-004,7.879431e-006
4.515445e-005,2.311357e-005
2.621599e-004,3.267542e-005
3.786849e-004,3.834771e-005
3.927846e-004,4.288554e-005
3.277964e-004,4.628891e-005
2.184023e-004,4.726130e-005
1.013911e-004,4.726130e-005
2.855406e-006,4.483032e-005
-6.650855e-005,3.688912e-005
-1.016767e-004,2.116879e-005
-1.084835e-004,-2.654814e-006
-9.794922e-005,-2.939559e-005
-8.384953e-005,-4.608832e-005
-7.833932e-005,-4.317114e-005
-9.162867e-005,-2.080613e-005
-1.306864e-004,1.338965e-005
-1.932436e-004,4.790957e-005
-2.679557e-004,7.335382e-005
-3.395886e-004,8.421220e-005
-3.969597e-004,8.437427e-005
-4.232143e-004,7.853991e-005
-4.096008e-004,7.238143e-005
-3.572537e-004,6.573675e-005
-2.744383e-004,5.585077e-005
-1.768750e-004,4.175108e-005
-8.498399e-005,2.635488e-005
-1.578211e-005,1.436204e-005
1.679302e-005,8.689757e-006
1.436204e-005,6.420843e-006
-6.220251e-006,1.396819e-006
-2.388537e-005,-7.030578e-006
-1.643037e-005,-1.740276e-005
2.068259e-005,-2.550602e-005
6.816773e-005,-2.761287e-005
9.053274e-005,-1.950961e-005
5.957827e-005,1.396819e-006
-1.934754e-005,3.494434e-005
-1.125351e-004,7.351588e-005
-1.802784e-004,1.054428e-004
-2.028055e-004,1.224596e-004
-1.843300e-004,1.252147e-004
-1.358725e-004,1.171115e-004
-7.704279e-005,1.043083e-004
-3.004385e-005,9.344992e-005
-6.868512e-006,8.777764e-005
-1.092015e-005,8.810177e-005
-3.668853e-005,9.474644e-005
-7.412562e-005,1.083599e-004
-1.092938e-004,1.268354e-004
-1.327932e-004,1.470936e-004
-1.391138e-004,1.613553e-004
-1.324691e-004,1.641104e-004
-1.225831e-004,1.534141e-004
-1.157764e-004,1.349386e-004
-1.120489e-004,1.137081e-004
-1.073490e-004,9.523264e-005
-9.827335e-005,8.161915e-005
-8.287714e-005,7.092283e-005
-6.440169e-005,5.682316e-005
-5.013995e-005,3.607880e-005
-4.803310e-005,9.662150e-006
-5.824321e-005,-1.853721e-005
-7.072224e-005,-4.090223e-005
-7.461181e-005,-4.965375e-005
-5.629843e-005,-4.381940e-005
-7.354708e-006,-3.377135e-005
6.622294e-005,-2.534396e-005
1.441764e-004,-1.934754e-005
2.065715e-004,-1.075808e-005
2.419018e-004,2.531276e-006
2.357433e-004,1.679302e-005
1.851789e-004,2.441009e-005
1.028497e-004,2.197911e-005
1.517237e-005,1.419998e-005
-4.673658e-005,9.662150e-006
-6.018800e-005,1.873781e-005
-1.529591e-005,4.142695e-005
8.178122e-005,6.476436e-005
2.033302e-004,7.983643e-005
3.099692e-004,8.972242e-005
3.739850e-004,9.896014e-005
3.885709e-004,1.130598e-004
3.658818e-004,1.315353e-004
3.292550e-004,1.501728e-004
3.067279e-004,1.645966e-004
3.179104e-004,1.705930e-004
3.597233e-004,1.675138e-004
4.038051e-004,1.545486e-004
4.098015e-004,1.341283e-004
3.485408e-004,1.086841e-004
2.164575e-004,8.080882e-005
3.105477e-005,4.969228e-005
-1.864369e-004,1.646889e-005
-4.094387e-004,-1.707863e-005
-6.032688e-004,-5.192267e-005
-7.434553e-004,-9.422171e-005
-8.316187e-004,-1.464067e-004
-8.851003e-004,-1.979435e-004
-9.254545e-004,-2.326255e-004
-9.638640e-004,-2.404046e-004
-9.886600e-004,-2.254946e-004
-9.525195e-004,-2.008607e-004
-7.983954e-004,-1.789819e-004
-5.073261e-004,-1.643960e-004
-1.092938e-004,-1.549962e-004
3.284447e-004,-1.439758e-004
7.337703e-004,-1.279313e-004
1.065356e-003,-1.105903e-004
1.306186e-003,-9.665269e-005
1.447345e-003,-8.433573e-005
1.483810e-003,-7.218083e-005
1.417687e-003,-5.856734e-005
1.260321e-003,-4.057810e-005
1.040398e-003,-1.545797e-005
7.909793e-004,1.727922e-005
5.360504e-004,4.920609e-005
2.979764e-004,7.562274e-005
9.523264e-005,9.555677e-005
-5.565017e-005,1.083599e-004
-1.506204e-004,1.148425e-004
-1.966470e-004,1.166253e-004
-2.058847e-004,1.143563e-004
-1.972952e-004,1.069013e-004
-1.877334e-004,9.409818e-005
-1.814128e-004,7.935023e-005
-1.773612e-004,6.411610e-005
-1.771991e-004,4.564065e-005
-1.875713e-004,2.327564e-005
-2.138259e-004,-1.358292e-006
-2.498044e-004,-1.934754e-005
-2.809209e-004,-2.566809e-005
-2.916172e-004,-1.545797e-005
-2.744383e-004,9.986280e-006
-2.295462e-004,4.564065e-005
-1.572651e-004,8.226741e-005
-6.002593e-005,1.086841e-004
4.790957e-005,1.208390e-004
1.409351e-004,1.235941e-004
1.895547e-004,1.221355e-004
1.816135e-004,1.188942e-004
1.325077e-004,1.133840e-004
6.930219e-005,1.078737e-004
1.630683e-005,1.007429e-004
-1.237873e-005,9.166720e-005
-1.675450e-005,8.275361e-005
-8.327101e-006,7.886404e-005
3.989864e-006,8.210535e-005
1.452411e-005,9.312579e-005
1.338965e-005,1.072255e-004
-2.492749e-006,1.211631e-004
-2.890940e-005,1.305629e-004
-5.743289e-005,1.292664e-004
-7.866345e-005,1.172735e-004
-8.854943e-005,1.005808e-004
-8.660465e-005,8.388807e-005
-7.639453e-005,7.221937e-005
-6.829127e-005,6.573675e-005
-6.829127e-005,6.670914e-005
-7.639453e-005,7.902610e-005
-8.919769e-005,9.701536e-005
-1.057284e-004,1.111150e-004
-1.246900e-004,1.135460e-004
-1.506204e-004,1.005808e-004
-1.883817e-004,7.529860e-005
-2.402425e-004,4.645098e-005
-2.987481e-004,2.457216e-005
-3.462333e-004,1.517237e-005
-3.676258e-004,1.565857e-005
-3.548227e-004,2.035846e-005
-3.128478e-004,2.408596e-005
-2.538560e-004,2.684107e-005
-1.945401e-004,2.586868e-005
-1.481895e-004,2.035846e-005
-1.164247e-004,1.582063e-005
-8.887356e-005,1.419998e-005
-5.791909e-005,1.193106e-005
-2.291298e-005,6.744974e-006
1.193106e-005,-3.465141e-006
4.256141e-005,-1.659243e-005
6.654707e-005,-2.939559e-005
8.275361e-005,-3.733679e-005
9.555677e-005,-4.138842e-005
1.101426e-004,-4.057810e-005
1.287802e-004,-3.944364e-005
1.527658e-004,-3.863331e-005
1.767515e-004,-3.668853e-005
1.910132e-004,-3.279896e-005
1.916615e-004,-2.518189e-005
1.762653e-004,-1.286493e-005
1.461212e-004,1.883015e-006
1.111150e-004,1.598270e-005
7.805372e-005,2.424803e-005
5.228533e-005,2.570661e-005
3.672705e-005,2.149292e-005
2.910999e-005,1.193106e-005
2.538249e-005,2.045080e-006
2.311357e-005,-1.358292e-006
2.116879e-005,4.962256e-006
1.695509e-005,1.776542e-005
5.934647e-006,3.056858e-005
-1.108221e-005,3.818564e-005
-2.728874e-005,3.915804e-005
-3.166451e-005,3.867184e-005
-1.853721e-005,4.126489e-005
7.069104e-006,4.677511e-005
1.906194e-005,5.179913e-005
-7.354708e-006,5.536457e-005
-7.363942e-005,5.682316e-005
-1.493239e-004,5.876794e-005
-1.937298e-004,6.136099e-005
-1.846541e-004,6.362990e-005
-1.196660e-004,6.217131e-005
-1.513384e-005,5.682316e-005
1.083599e-004,4.709924e-005
2.300710e-004,4.045456e-005
3.250413e-004,4.223728e-005
3.744712e-004,5.471631e-005
3.767402e-004,7.756751e-005
3.417340e-004,1.046324e-004
2.825802e-004,1.174356e-004
2.094887e-004,9.928427e-005
1.184080e-004,5.082674e-005
-1.043395e-005,-1.659243e-005
-1.794681e-004,-8.579432e-005
-3.420196e-004,-1.373311e-004
-4.293727e-004,-1.618029e-004
-4.065215e-004,-1.583996e-004
-2.856208e-004,-1.357104e-004
-1.167488e-004,-1.041077e-004
5.196120e-005,-7.007398e-005
1.942546e-004,-3.539201e-005
3.128864e-004,-3.141010e-006
4.240632e-004,1.760335e-005
5.430192e-004,2.149292e-005
6.725095e-004,1.014835e-005
8.016757e-004,-1.124428e-005
9.037769e-004,-3.522994e-005
9.523966e-004,-5.921561e-005
9.470484e-004,-8.644258e-005
9.104216e-004,-1.196660e-004
8.647191e-004,-1.558065e-004
8.084824e-004,-1.874093e-004
6.953607e-004,-2.071812e-004
4.634451e-004,-2.178775e-004
1.197045e-004,-2.251705e-004
-2.407287e-004,-2.342461e-004
-4.971160e-004,-2.368392e-004
-5.896553e-004,-2.207947e-004
-5.431426e-004,-1.791439e-004
-4.350450e-004,-1.135075e-004
-3.472056e-004,-3.458168e-005
-3.243544e-004,4.418206e-005
-3.624398e-004,1.119254e-004
-4.220798e-004,1.670276e-004
-4.651892e-004,2.088404e-004
-4.766958e-004,2.401191e-004
-4.621099e-004,2.644288e-004
-4.282383e-004,2.788527e-004
-3.807532e-004,2.814457e-004
-3.225717e-004,2.731804e-004
-2.551526e-004,2.569738e-004
-1.750923e-004,2.349330e-004
-7.736692e-005,2.067336e-004
3.591673e-005,1.730240e-004
1.587622e-004,1.401247e-004
2.765838e-004,1.120874e-004
3.754436e-004,9.409818e-005
4.483731e-004,8.664317e-005
4.931031e-004,8.761556e-005
5.125509e-004,9.280166e-005
5.123889e-004,9.977046e-005
5.008822e-004,1.080358e-004
4.775448e-004,1.163011e-004
4.303838e-004,1.255388e-004
3.469201e-004,1.313732e-004
2.261814e-004,1.304008e-004
8.194328e-005,1.201907e-004
-5.791909e-005,9.782569e-005
-1.648822e-004,6.476436e-005
-2.250084e-004,3.202716e-005
-2.392702e-004,9.986280e-006
-2.139880e-004,3.989864e-006
-1.595340e-004,1.095867e-005
-8.773910e-005,2.084466e-005
-1.886135e-005,2.246531e-005
2.538249e-005,1.582063e-005
3.510640e-005,5.934647e-006
1.922400e-005,-2.816880e-006
-3.951337e-006,-7.192643e-006
-1.383732e-005,-4.923729e-006
1.072688e-006,5.934647e-006
3.380988e-005,2.359977e-005
5.941620e-005,4.580272e-005
5.196120e-005,6.751947e-005
6.582909e-006,8.291567e-005
-6.067420e-005,9.263960e-005
-1.255003e-004,1.026876e-004
-1.676373e-004,1.174356e-004
-1.750923e-004,1.359110e-004
-1.511066e-004,1.555209e-004
-1.151281e-004,1.714033e-004
-8.741497e-005,1.808031e-004
-8.239095e-005,1.848548e-004
-9.778715e-005,1.843686e-004
-1.195039e-004,1.791825e-004
-1.347380e-004,1.675138e-004
-1.407345e-004,1.428798e-004
-1.428413e-004,1.081979e-004
-1.520790e-004,7.238143e-005
-1.759026e-004,4.304760e-005
-2.079916e-004,2.927205e-005
-2.280877e-004,3.251336e-005
-2.246843e-004,4.677511e-005
-2.066950e-004,6.022653e-005
-1.932436e-004,6.444023e-005
-2.026434e-004,5.811968e-005
-2.504527e-004,4.596478e-005
-3.395886e-004,3.526847e-005
-4.574100e-004,2.862379e-005
-5.778245e-004,1.938607e-005
-6.674466e-004,5.772582e-006
-6.972667e-004,-9.137427e-006
-6.484850e-004,-2.291298e-005
-5.303394e-004,-3.571614e-005
-3.718396e-004,-5.078821e-005
-1.972952e-004,-7.039811e-005
-2.388537e-005,-9.049421e-005
1.329939e-004,-1.034594e-004
2.530843e-004,-1.010285e-004
3.115899e-004,-8.790116e-005
3.036486e-004,-7.315322e-005
2.619979e-004,-6.375343e-005
2.393087e-004,-5.953974e-005
2.861456e-004,-5.986387e-005
4.135290e-004,-6.245691e-005
5.788357e-004,-6.812920e-005
7.161051e-004,-7.477388e-005
7.726659e-004,-8.449779e-005
7.204809e-004,-1.003802e-004
5.736496e-004,-1.201522e-004
3.845193e-004,-1.418689e-004
2.172678e-004,-1.605064e-004
1.214872e-004,-1.734716e-004
1.073875e-004,-1.746061e-004
1.553589e-004,-1.601823e-004
2.282883e-004,-1.368449e-004
2.995970e-004,-1.102662e-004
3.504856e-004,-8.514606e-005
3.631267e-004,-6.278104e-005
3.323342e-004,-4.560212e-005
2.726942e-004,-3.036798e-005
2.088404e-004,-1.416145e-005
1.587622e-004,9.106226e-007
1.347766e-004,1.209313e-005
1.378558e-004,1.906194e-005
1.598967e-004,2.214118e-005
1.846927e-004,2.619281e-005
1.949028e-004,3.899597e-005
1.785342e-004,6.038860e-005
1.289422e-004,8.064676e-005
4.758544e-005,9.004655e-005
-5.046408e-005,8.550872e-005
-1.421931e-004,7.254349e-005
-2.097743e-004,5.649903e-005
-2.444563e-004,4.126489e-005
-2.512630e-004,2.846173e-005
-2.415391e-004,1.679302e-005
-2.293842e-004,7.555300e-006
-2.395943e-004,3.017472e-006
-2.833519e-004,5.124321e-006
-3.483401e-004,1.257933e-005
-3.938804e-004,2.197911e-005
-3.734602e-004,3.137890e-005
-2.686040e-004,3.948217e-005
-1.007043e-004,4.920609e-005
8.113296e-005,6.087479e-005
2.334744e-004,7.432621e-005
3.303894e-004,8.939829e-005
3.613439e-004,1.077117e-004
3.370341e-004,1.252147e-004
2.816078e-004,1.367214e-004
2.140265e-004,1.404489e-004
1.265113e-004,1.383420e-004
-2.291298e-005,1.341283e-004
-2.653627e-004,1.315353e-004
-5.653455e-004,1.325077e-004
-8.314567e-004,1.354248e-004
-9.656468e-004,1.365593e-004
-9.233477e-004,1.342904e-004
-7.296797e-004,1.276457e-004
-4.559515e-004,1.185700e-004
-1.851403e-004,1.098185e-004
2.424803e-005,1.017153e-004
1.513072e-004,9.377405e-005
2.104611e-004,8.599491e-005
2.350950e-004,7.805372e-005
2.545429e-004,6.816773e-005
2.814457e-004,5.147500e-005
3.159656e-004,2.035846e-005
3.485408e-004,-2.809907e-005
3.650714e-004,-7.866345e-005
3.555096e-004,-1.130213e-004
3.229344e-004,-1.199901e-004
2.738286e-004,-9.892161e-005
2.179161e-004,-6.197072e-005
1.675138e-004,-2.599222e-005
1.329939e-004,-7.100305e-007
1.158149e-004,1.225519e-005
1.148425e-004,1.225519e-005
1.180839e-004,3.179537e-006
1.111150e-004,-8.651231e-006
8.988448e-005,-1.270286e-005
6.265751e-005,-6.868512e-006
4.094075e-005,3.503668e-006
3.024445e-005,1.338965e-005
2.910999e-005,1.954813e-005
3.364782e-005,2.489629e-005
4.110282e-005,2.813760e-005
4.904402e-005,2.959618e-005
5.293359e-005,3.024445e-005
4.564065e-005,3.316162e-005
2.165498e-005,3.705119e-005
-1.707863e-005,4.207521e-005
-5.402952e-005,5.017848e-005
-6.342930e-005,6.006446e-005
-3.101624e-005,6.881599e-005
3.786152e-005,7.870197e-005
1.198666e-004,8.956035e-005
1.910132e-004,9.490851e-005
2.349330e-004,9.101894e-005
2.440086e-004,8.275361e-005
2.213195e-004,7.821578e-005
1.731861e-004,8.178122e-005
1.096565e-004,8.842590e-005
3.996836e-005,8.972242e-005
-3.409548e-005,8.307774e-005
-1.112386e-004,7.400208e-005
-1.882196e-004,7.011251e-005
-2.622834e-004,6.914012e-005
-3.266234e-004,6.006446e-005
-3.710292e-004,3.462021e-005
-3.883702e-004,-7.516774e-006
-3.724878e-004,-5.111234e-005
-3.190063e-004,-7.590833e-005
-2.259808e-004,-7.477388e-005
-9.438377e-005,-5.548810e-005
6.233338e-005,-3.296103e-005
2.250470e-004,-1.399939e-005
3.820883e-004,1.883015e-006
5.295678e-004,1.711715e-005
6.686199e-004,2.878586e-005
7.922758e-004,3.624086e-005
8.893531e-004,4.094075e-005
9.527207e-004,4.904402e-005
9.792994e-004,6.362990e-005
9.626067e-004,8.048469e-005
8.950254e-004,9.798775e-005
7.614834e-004,1.081979e-004
5.342677e-004,1.026876e-004
1.843686e-004,8.064676e-005
-2.605007e-004,4.531652e-005
-7.034251e-004,2.369210e-006
-1.042466e-003,-3.814712e-005
-1.218631e-003,-6.861539e-005
-1.222196e-003,-8.352540e-005
-1.092220e-003,-8.514606e-005
-8.904485e-004,-7.736692e-005
-6.693914e-004,-6.229485e-005
-4.478482e-004,-4.252288e-005
-2.194982e-004,-1.934754e-005
2.052053e-005,4.800190e-006
2.637806e-004,2.765140e-005
4.739794e-004,4.385793e-005
6.037937e-004,4.466826e-005
6.224313e-004,2.635488e-005
5.323229e-004,-2.492749e-006
3.741471e-004,-2.761287e-005
2.106232e-004,-3.701266e-005
8.810177e-005,-3.166451e-005
1.565857e-005,-1.853721e-005
-2.501983e-005,-6.220251e-006
-4.754691e-005,2.531276e-006
-5.548810e-005,1.031041e-005
-4.268495e-005,1.906194e-005
-4.761663e-006,3.024445e-005
5.001641e-005,4.191315e-005
1.080358e-004,5.374392e-005
1.550348e-004,6.589881e-005
1.848548e-004,7.902610e-005
2.054371e-004,9.020861e-005
2.294227e-004,9.231547e-005
2.623220e-004,8.210535e-005
3.088348e-004,6.233338e-005
3.670162e-004,4.061663e-005
4.234150e-004,2.230324e-005
4.511281e-004,9.986280e-006
4.286011e-004,7.393235e-006
3.506476e-004,1.598270e-005
2.402811e-004,3.121684e-005
1.287802e-004,4.402000e-005
3.559260e-005,5.034054e-005
-4.187462e-005,5.066468e-005
-1.130213e-004,4.807163e-005
-1.846541e-004,4.320967e-005
-2.574215e-004,4.077869e-005
-3.267854e-004,4.402000e-005
-3.836703e-004,5.390598e-005
-4.168937e-004,6.881599e-005
-4.313175e-004,8.599491e-005
-4.460654e-004,1.023635e-004
-4.651892e-004,1.128978e-004
-4.747510e-004,1.167873e-004
-4.609755e-004,1.125736e-004
-4.232143e-004,1.028497e-004
-3.732981e-004,9.037068e-005
-3.194925e-004,7.918817e-005
-2.671454e-004,7.335382e-005
-2.198223e-004,6.995045e-005
-1.810887e-004,6.346784e-005
-1.533756e-004,5.082674e-005
-1.394379e-004,3.364782e-005
-1.402483e-004,1.598270e-005
-1.519170e-004,3.179537e-006
-1.720131e-004,-3.858999e-007
-2.015089e-004,1.720949e-006
-2.360288e-004,2.207145e-006
-2.677937e-004,2.623614e-007
-2.885380e-004,-3.858999e-007
-2.950206e-004,4.151929e-006
-2.883759e-004,1.549650e-005
-2.760590e-004,3.575467e-005
-2.658489e-004,6.249544e-005
-2.549905e-004,9.101894e-005
-2.348944e-004,1.177597e-004
-2.041020e-004,1.389903e-004
-1.731475e-004,1.513072e-004
-1.588858e-004,1.537382e-004
-1.574272e-004,1.441764e-004
-1.413827e-004,1.234320e-004
-7.509801e-005,9.652916e-005
6.119892e-005,6.832980e-005
2.623220e-004,3.899597e-005
4.908342e-004,5.448451e-006
6.883919e-004,-2.761287e-005
8.078341e-004,-5.386745e-005
8.253373e-004,-6.456376e-005
7.459251e-004,-6.083626e-005
5.989318e-004,-5.240886e-005
4.222805e-004,-5.240886e-005
2.639427e-004,-6.423963e-005
1.665414e-004,-8.125648e-005
1.466074e-004,-8.887356e-005
1.945787e-004,-7.882551e-005
2.843629e-004,-4.965375e-005
3.833848e-004,-7.030578e-006
4.619866e-004,4.029249e-005
5.026649e-004,8.372600e-005
4.937514e-004,1.179218e-004
4.326527e-004,1.407730e-004
3.268240e-004,1.415833e-004
1.947408e-004,1.143563e-004
6.897806e-005,6.281957e-005
-1.740276e-005,9.106226e-007
-5.013995e-005,-5.111234e-005
-2.842320e-005,-8.433573e-005
3.121684e-005,-9.875954e-005
1.075496e-004,-9.551824e-005
1.796687e-004,-7.785312e-005
2.312054e-004,-5.451571e-005
2.641047e-004,-4.090223e-005
2.918179e-004,-4.689864e-005
3.289309e-004,-7.007398e-005
3.884088e-004,-9.681476e-005
4.700898e-004,-1.110765e-004
5.507984e-004,-9.989400e-005
5.973111e-004,-6.180866e-005
5.943940e-004,-9.461557e-006
5.465847e-004,3.559260e-005
4.598797e-004,6.071273e-005
3.229344e-004,6.508849e-005
9.782569e-005,5.406805e-005
-2.329496e-004,3.624086e-005
-6.172064e-004,1.663096e-005
-9.505747e-004,-3.141010e-006
-1.151860e-003,-1.869928e-005
-1.211500e-003,-2.988179e-005
-1.183138e-003,-4.090223e-005
-1.126902e-003,-5.662256e-005
-1.074230e-003,-7.914964e-005
-1.021559e-003,-1.018388e-004
-9.476575e-004,-1.125351e-004
-8.402083e-004,-1.071869e-004
-7.061802e-004,-9.000801e-005
-5.622663e-004,-6.569822e-005
-4.259694e-004,-3.604027e-005
-3.058790e-004,-2.168618e-006
-1.992400e-004,3.218923e-005
-9.811128e-005,6.006446e-005
2.623614e-007,7.983643e-005
9.361198e-005,9.393611e-005
1.788584e-004,1.073875e-004
2.522740e-004,1.201907e-004
3.125622e-004,1.295905e-004
3.634508e-004,1.359110e-004
4.146634e-004,1.428798e-004
4.710622e-004,1.519555e-004
5.264885e-004,1.605450e-004
5.674911e-004,1.629759e-004
5.832114e-004,1.540623e-004
5.670049e-004,1.315353e-004
5.232472e-004,9.944633e-005
4.705760e-004,6.573675e-005
4.266563e-004,3.705119e-005
4.059119e-004,1.938607e-005
4.031568e-004,1.695509e-005
4.078567e-004,2.878586e-005
4.156358e-004,4.774750e-005
4.234150e-004,6.670914e-005
4.321665e-004,8.161915e-005
4.407560e-004,9.328785e-005
4.428628e-004,1.005808e-004
4.397836e-004,1.070634e-004
4.407560e-004,1.114392e-004
4.636072e-004,1.114392e-004
5.161164e-004,1.080358e-004
5.879113e-004,1.020394e-004
6.551685e-004,9.798775e-005
6.757508e-004,1.000946e-004
5.893700e-004,1.103047e-004
3.506476e-004,1.242423e-004
-5.409925e-006,1.347766e-004
-3.673017e-004,1.406109e-004
-6.269303e-004,1.386661e-004
-7.390795e-004,1.269974e-004
-7.196317e-004,1.069013e-004
-6.210959e-004,8.615698e-005
-5.050572e-004,6.914012e-005
-4.269418e-004,5.714729e-005
-4.258073e-004,4.742337e-005
-5.105674e-004,3.737532e-005
-6.603157e-004,2.829966e-005
-8.346980e-004,2.473422e-005
-9.920634e-004,2.554455e-005
-1.105347e-003,2.603075e-005
-1.166932e-003,2.035846e-005
-1.178925e-003,5.934647e-006
-1.137922e-003,-1.740276e-005
-1.029501e-003,-4.997788e-005
-8.353463e-004,-8.465986e-005
-5.578905e-004,-1.125351e-004
-2.230636e-004,-1.264727e-004
1.188942e-004,-1.274451e-004
4.107739e-004,-1.183694e-004
6.099522e-004,-1.008664e-004
7.016812e-004,-7.639453e-005
7.055708e-004,-4.722277e-005
6.647304e-004,-1.886135e-005
6.311828e-004,3.665733e-006
6.478755e-004,1.938607e-005
7.289082e-004,3.137890e-005
8.494850e-004,4.288554e-005
9.674686e-004,5.374392e-005
1.041209e-003,6.508849e-005
1.043964e-003,7.400208e-005
9.857820e-004,7.675719e-005
8.968081e-004,6.930219e-005
8.141547e-004,5.649903e-005
7.537042e-004,4.418206e-005
7.161051e-004,3.526847e-005
6.869333e-004,2.376183e-005
6.355586e-004,2.045080e-006
5.365366e-004,-2.583015e-005
3.924605e-004,-4.625038e-005
2.258573e-004,-5.046408e-005
5.893001e-005,-4.252288e-005
-9.762508e-005,-3.085418e-005
-2.418632e-004,-1.918548e-005
-3.621157e-004,-9.137427e-006
-4.459034e-004,4.244267e-007
-4.906334e-004,1.095867e-005
-5.089468e-004,2.068259e-005
-5.194810e-004,2.732727e-005
-5.202913e-004,3.170303e-005
-4.893369e-004,3.867184e-005
-4.173799e-004,4.774750e-005
-3.180339e-004,5.552663e-005
-2.138259e-004,5.536457e-005
-1.214487e-004,4.645098e-005
-4.981582e-005,3.008238e-005
-4.113402e-006,9.013888e-006
2.084466e-005,-1.108221e-005
3.332369e-005,-2.583015e-005
3.899597e-005,-3.247483e-005
4.175108e-005,-3.134038e-005
3.899597e-005,-2.275091e-005
1.808955e-005,-1.335112e-005
-3.441962e-005,-1.351319e-005
-1.206384e-004,-2.599222e-005
-2.272773e-004,-4.544005e-005
-3.241924e-004,-5.872941e-005
-3.851289e-004,-5.321919e-005
-4.008492e-004,-2.955766e-005
-3.762153e-004,2.369210e-006
-3.262992e-004,3.137890e-005
-2.658489e-004,5.017848e-005
-2.021572e-004,5.925414e-005
-1.454343e-004,6.152305e-005
-9.632856e-005,6.362990e-005
-5.840528e-005,6.995045e-005
-2.890940e-005,7.870197e-005
8.041497e-006,8.210535e-005
8.810177e-005,8.032263e-005
2.376881e-004,7.708132e-005
4.535591e-004,7.497447e-005
6.968193e-004,7.546067e-005
9.091251e-004,7.789165e-005
1.055308e-003,8.323980e-005
1.137313e-003,8.972242e-005
1.180585e-003,9.344992e-005
1.207164e-003,9.442231e-005
1.224018e-003,9.717742e-005
1.204733e-003,1.036600e-004
1.079456e-003,1.094944e-004
7.548388e-004,1.146805e-004
1.936063e-004,1.163011e-004
-5.358497e-004,1.169494e-004
-1.287022e-003,1.128978e-004
-1.897036e-003,1.010670e-004
-2.224247e-003,8.210535e-005
-2.215657e-003,6.087479e-005
-1.934473e-003,3.753739e-005
-1.517317e-003,9.500084e-006
-1.086872e-003,-2.145439e-005
-6.996976e-004,-5.257093e-005
-3.557951e-004,-8.239095e-005
-4.754691e-005,-1.092938e-004
2.195368e-004,-1.339277e-004
4.198496e-004,-1.515928e-004
5.250300e-004,-1.556445e-004
5.214645e-004,-1.412206e-004
4.243874e-004,-1.083214e-004
2.782044e-004,-6.748093e-005
1.274836e-004,-3.053005e-005
1.072688e-006,-5.085794e-006
-8.741497e-005,7.717366e-006
-1.459205e-004,1.241726e-005
-1.972952e-004,1.517237e-005
-2.666592e-004,1.792748e-005
-3.673017e-004,1.987226e-005
-4.998712e-004,2.441009e-005
-6.343853e-004,3.299956e-005
-7.029389e-004,4.094075e-005
-6.455678e-004,4.175108e-005
-4.527101e-004,3.332369e-005
-1.726613e-004,1.922400e-005
1.193804e-004,1.047248e-005
3.514579e-004,1.209313e-005
4.914824e-004,1.971020e-005
5.452881e-004,2.068259e-005
5.417227e-004,7.717366e-006
5.211404e-004,-1.594417e-005
5.172509e-004,-3.733679e-005
5.452881e-004,-4.381940e-005
6.000663e-004,-3.020592e-005
6.605167e-004,-2.654814e-006
6.843403e-004,3.089270e-005
6.029834e-004,6.168512e-005
3.692851e-004,8.194328e-005
1.436204e-005,9.215340e-005
-3.627639e-004,9.571883e-005
-6.549676e-004,9.701536e-005
-7.883473e-004,1.015532e-004
-7.466965e-004,1.114392e-004
-5.927345e-004,1.216493e-004
-4.329382e-004,1.265113e-004
-3.416954e-004,1.226217e-004
-3.209511e-004,1.091703e-004
-3.196545e-004,9.344992e-005
-2.851347e-004,8.502253e-005
-1.929195e-004,8.972242e-005
-5.775702e-005,1.039842e-004
8.696730e-005,1.156529e-004
2.044647e-004,1.182459e-004
2.652392e-004,1.130598e-004
2.513016e-004,1.015532e-004
1.741585e-004,8.453633e-005
6.670914e-005,7.027457e-005
-2.858526e-005,6.589881e-005
-6.796713e-005,7.221937e-005
-2.826113e-005,8.226741e-005
8.372600e-005,8.437427e-005
2.337985e-004,6.816773e-005
3.937570e-004,3.850977e-005
5.426951e-004,9.662150e-006
6.601926e-004,-4.923729e-006
7.250187e-004,4.151929e-006
7.290703e-004,3.105477e-005
6.788300e-004,5.925414e-005
5.921251e-004,7.221937e-005
4.935893e-004,6.476436e-005
4.042912e-004,4.466826e-005
3.256896e-004,2.473422e-005
2.521119e-004,1.452411e-005
1.782101e-004,1.646889e-005
9.960840e-005,3.056858e-005
1.614476e-005,4.985435e-005
-6.618442e-005,6.800567e-005
-1.417068e-004,8.064676e-005
-2.015089e-004,8.875003e-005
-2.321393e-004,9.069480e-005
-2.185258e-004,8.583285e-005
-1.572651e-004,7.076077e-005
-6.002593e-005,4.790957e-005
5.957827e-005,2.116879e-005
1.910132e-004,-5.247859e-006
3.328204e-004,-2.583015e-005
4.952099e-004,-4.057810e-005
6.751025e-004,-5.078821e-005
8.541849e-004,-5.824321e-005
1.009444e-003,-6.812920e-005
1.128238e-003,-8.692878e-005
1.192091e-003,-1.161005e-004
1.175399e-003,-1.520790e-004
1.068273e-003,-1.914609e-004
8.887048e-004,-2.232257e-004
6.713750e-004,-2.399184e-004
4.392974e-004,-2.337599e-004
1.735102e-004,-2.091260e-004
-1.754164e-004,-1.754164e-004
-6.176926e-004,-1.387897e-004
-1.096109e-003,-1.065387e-004
-1.509376e-003,-8.352540e-005
-1.739671e-003,-6.861539e-005
-1.696399e-003,-5.338126e-005
-1.380858e-003,-3.085418e-005
-8.998482e-004,-3.465141e-006
-4.000389e-004,2.603075e-005
1.558884e-006,5.228533e-005
2.576221e-004,7.610893e-005
3.809539e-004,9.652916e-005
4.049395e-004,1.148425e-004
3.593991e-004,1.318594e-004
2.723700e-004,1.404489e-004
1.796687e-004,1.402868e-004
1.109530e-004,1.386661e-004
7.789165e-005,1.407730e-004
7.983643e-005,1.500107e-004
9.896014e-005,1.650828e-004
1.075496e-004,1.827479e-004
8.486046e-005,1.986303e-004
3.008238e-005,2.055991e-004
-3.814712e-005,1.983062e-004
-9.730095e-005,1.775618e-004
-1.303623e-004,1.470936e-004
-1.334415e-004,1.128978e-004
-1.138316e-004,8.178122e-005
-8.368747e-005,6.136099e-005
-5.581224e-005,5.617490e-005
-3.944364e-005,6.298164e-005
-3.458168e-005,7.724339e-005
-2.631635e-005,9.280166e-005
-2.816880e-006,9.896014e-005
3.348575e-005,9.361198e-005
7.384001e-005,8.340186e-005
1.119254e-004,7.432621e-005
1.428798e-004,7.011251e-005
1.691344e-004,7.059870e-005
2.013854e-004,7.011251e-005
2.425500e-004,6.541262e-005
2.833905e-004,5.439218e-005
3.130485e-004,4.077869e-005
3.232586e-004,3.235129e-005
3.073762e-004,3.429608e-005
2.611876e-004,4.434413e-005
1.916615e-004,5.552663e-005
1.090082e-004,6.249544e-005
2.278944e-005,6.557468e-005
-5.710876e-005,6.719534e-005
-1.201522e-004,6.897806e-005
-1.522411e-004,7.335382e-005
-1.470550e-004,8.372600e-005
-1.136696e-004,1.020394e-004
-7.169464e-005,1.219734e-004
-3.863331e-005,1.336421e-004
-3.506787e-005,1.329939e-004
-7.363942e-005,1.166253e-004
-1.449481e-004,8.518459e-005
-2.220912e-004,4.385793e-005
-2.841623e-004,-2.006553e-006
-3.217614e-004,-4.706071e-005
-3.303509e-004,-8.822530e-005
-3.139823e-004,-1.232314e-004
-2.797865e-004,-1.506204e-004
-2.391081e-004,-1.643960e-004
-2.000504e-004,-1.621271e-004
-1.677994e-004,-1.446240e-004
-1.483515e-004,-1.169109e-004
-1.501342e-004,-8.239095e-005
-1.755785e-004,-4.462973e-005
-2.159328e-004,-9.623623e-006
-2.525595e-004,1.663096e-005
-2.661730e-004,3.332369e-005
-2.472113e-004,4.077869e-005
-2.002124e-004,4.385793e-005
-1.426792e-004,4.418206e-005
-9.811128e-005,4.320967e-005
-8.044616e-005,4.191315e-005
-8.919769e-005,4.045456e-005
-1.092938e-004,4.337174e-005
-1.276072e-004,5.179913e-005
-1.349001e-004,6.038860e-005
-1.316588e-004,6.427816e-005
-1.220969e-004,6.071273e-005
-1.122110e-004,5.260946e-005
-1.065387e-004,4.839576e-005
-1.042698e-004,5.260946e-005
-1.028112e-004,6.557468e-005
-1.020008e-004,7.999850e-005
-1.122110e-004,8.631904e-005
-1.410586e-004,8.194328e-005
-1.802784e-004,7.157111e-005
-2.065330e-004,5.341978e-005
-2.078295e-004,3.040651e-005
-1.823852e-004,8.365628e-006
-1.412206e-004,-1.027188e-005
-1.011905e-004,-2.501983e-005
-6.537409e-005,-3.944364e-005
-1.950961e-005,-5.759496e-005
5.358185e-005,-7.769105e-005
1.548727e-004,-9.843541e-005
2.641047e-004,-1.131834e-004
3.506476e-004,-1.208004e-004
3.913260e-004,-1.214487e-004
3.827366e-004,-1.196660e-004
3.511338e-004,-1.167488e-004
3.321721e-004,-1.099420e-004
3.467580e-004,-9.276313e-005
4.010499e-004,-6.342930e-005
4.830550e-004,-2.761287e-005
5.648981e-004,5.934647e-006
6.148142e-004,2.910999e-005
6.093039e-004,4.207521e-005
5.379952e-004,5.066468e-005
3.966742e-004,6.038860e-005
1.999268e-004,7.351588e-005
-1.092015e-005,8.583285e-005
-1.853024e-004,9.069480e-005
-2.963171e-004,8.745350e-005
-3.569296e-004,7.513654e-005
-4.016596e-004,5.439218e-005
-4.504412e-004,2.959618e-005
-5.044090e-004,7.717366e-006
-5.416840e-004,-1.059601e-005
-5.374703e-004,-2.777494e-005
-4.963057e-004,-4.430560e-005
-4.279141e-004,-5.710876e-005
-3.295405e-004,-7.039811e-005
-1.966470e-004,-8.741497e-005
-4.171255e-005,-1.060525e-004
1.163011e-004,-1.211245e-004
2.752873e-004,-1.242038e-004
4.486972e-004,-1.099420e-004
6.556546e-004,-8.077029e-005
8.974564e-004,-4.138842e-005
1.145579e-003,2.531276e-006
1.347999e-003,4.175108e-005
1.462093e-003,6.670914e-005
1.475220e-003,6.816773e-005
1.400832e-003,4.239934e-005
1.240063e-003,2.531276e-006
9.647135e-004,-3.182657e-005
5.426951e-004,-4.787104e-005
1.436204e-005,-4.462973e-005
-4.946851e-004,-2.874733e-005
-8.556044e-004,-8.813297e-006
-1.007946e-003,1.014835e-005
-9.711569e-004,2.489629e-005
-8.178432e-004,3.510640e-005
-6.332508e-004,4.013043e-005
-4.758855e-004,4.564065e-005
-3.663293e-004,5.536457e-005
-3.026377e-004,7.173317e-005
-2.724935e-004,9.069480e-005
-2.538560e-004,1.090082e-004
-2.329496e-004,1.263492e-004
-2.010227e-004,1.407730e-004
-1.605064e-004,1.480659e-004
-1.190177e-004,1.467694e-004
-8.595638e-005,1.396385e-004
-6.926366e-005,1.321835e-004
-6.829127e-005,1.274836e-004
-6.748093e-005,1.269974e-004
-4.997788e-005,1.299146e-004
-6.706447e-006,1.370455e-004
5.763348e-005,1.446626e-004
1.300767e-004,1.493625e-004
1.874478e-004,1.469315e-004
2.182402e-004,1.357490e-004
2.192126e-004,1.203528e-004
2.034923e-004,1.075496e-004
1.866375e-004,1.015532e-004
1.751308e-004,1.013911e-004
1.710792e-004,1.060910e-004
1.692965e-004,1.150046e-004
1.654069e-004,1.239182e-004
1.535762e-004,1.268354e-004
1.328318e-004,1.216493e-004
1.133840e-004,1.085220e-004
1.022014e-004,9.247753e-005
9.879807e-005,7.902610e-005
9.831188e-005,7.416414e-005
9.393611e-005,7.610893e-005
8.226741e-005,7.999850e-005
6.233338e-005,8.242948e-005
3.494434e-005,8.226741e-005
9.338019e-006,7.999850e-005
-6.544382e-006,8.048469e-005
-9.461557e-006,8.275361e-005
-1.520357e-006,8.729143e-005
1.403791e-005,9.182927e-005
3.040651e-005,9.555677e-005
4.061663e-005,9.879807e-005
3.980630e-005,1.017153e-004
2.392390e-005,1.051186e-004
-6.220251e-006,1.062531e-004
-4.074016e-005,1.054428e-004
-6.958779e-005,1.062531e-004
-8.433573e-005,1.098185e-004
-8.336334e-005,1.120874e-004
-7.428768e-005,1.054428e-004
-6.440169e-005,9.166720e-005
-5.257093e-005,7.562274e-005
-3.506787e-005,6.622294e-005
-1.432352e-005,6.460230e-005
1.403791e-005,6.865393e-005
5.325772e-005,7.027457e-005
1.025256e-004,6.184718e-005
1.540623e-004,3.818564e-005
1.947408e-004,2.531276e-006
2.161334e-004,-3.733679e-005
2.143507e-004,-7.412562e-005
1.927960e-004,-1.050801e-004
1.600588e-004,-1.303623e-004
1.333180e-004,-1.536997e-004
1.219734e-004,-1.729855e-004
1.208390e-004,-1.862748e-004
1.163011e-004,-1.898402e-004
8.793970e-005,-1.825473e-004
1.760335e-005,-1.613168e-004
-1.028112e-004,-1.302002e-004
-2.648765e-004,-9.568031e-005
-4.543308e-004,-6.407756e-005
-6.517263e-004,-3.911951e-005
-8.402083e-004,-2.356124e-005
-1.003570e-003,-1.788895e-005
-1.117502e-003,-1.869928e-005
-1.145215e-003,-2.226472e-005
-1.058348e-003,-2.356124e-005
-8.692179e-004,-1.934754e-005
-6.303337e-004,-1.399939e-005
-4.008492e-004,-1.059601e-005
-2.092881e-004,-1.027188e-005
-5.840528e-005,-1.221667e-005
6.395403e-005,-1.610623e-005
1.710792e-004,-2.258885e-005
2.744769e-004,-2.777494e-005
3.803056e-004,-2.809907e-005
4.772207e-004,-2.550602e-005
5.350781e-004,-2.437157e-005
5.334574e-004,-2.745081e-005
4.854860e-004,-3.328516e-005
4.339492e-004,-3.539201e-005
4.381629e-004,-2.566809e-005
5.326470e-004,-4.437533e-006
7.060570e-004,2.246531e-005
9.100975e-004,4.483032e-005
1.087235e-003,5.341978e-005
1.189498e-003,4.628891e-005
1.184312e-003,2.894792e-005
1.064222e-003,1.371378e-005
8.397610e-004,5.934647e-006
5.376711e-004,3.341602e-006
1.940925e-004,4.638125e-006
-1.394379e-004,6.907039e-006
-4.066836e-004,9.824214e-006
-5.630766e-004,1.468617e-005
-5.813900e-004,2.035846e-005
-4.635685e-004,2.181705e-005
-2.425115e-004,2.197911e-005
2.603075e-005,2.295151e-005
2.806354e-004,2.732727e-005
4.802999e-004,2.910999e-005
6.071971e-004,2.165498e-005
6.686199e-004,2.369210e-006
6.869333e-004,-2.372330e-005
6.866092e-004,-4.722277e-005
6.798024e-004,-6.213279e-005
6.733198e-004,-6.650855e-005
6.728336e-004,-6.051213e-005
6.721854e-004,-4.349527e-005
6.550064e-004,-1.918548e-005
6.007145e-004,9.986280e-006
4.919686e-004,3.996836e-005
3.177483e-004,6.557468e-005
8.194328e-005,8.550872e-005
-1.930815e-004,9.620503e-005
-4.721580e-004,9.409818e-005
-7.099077e-004,8.437427e-005
-8.692179e-004,7.902610e-005
-9.322613e-004,8.307774e-005
-9.087618e-004,9.231547e-005
-8.444219e-004,9.458438e-005
-8.076331e-004,8.323980e-005
-8.345360e-004,6.184718e-005
-9.094101e-004,3.899597e-005
-9.763431e-004,2.278944e-005
-9.815291e-004,1.889987e-005
-9.001723e-004,2.813760e-005
-7.397278e-004,4.612685e-005
-5.373082e-004,6.573675e-005
-3.407230e-004,7.999850e-005
-1.919471e-004,8.972242e-005
-1.054042e-004,9.490851e-005
-7.542214e-005,9.685329e-005
-8.255302e-005,9.555677e-005
-1.078352e-004,9.814982e-005
-1.353863e-004,1.039842e-004
-1.595340e-004,1.096565e-004
-1.809267e-004,1.150046e-004
-2.021572e-004,1.161391e-004
-2.237119e-004,1.128978e-004
-2.407287e-004,1.064151e-004
-2.454286e-004,9.701536e-005
-2.306807e-004,8.307774e-005
-1.935677e-004,6.525056e-005
-1.381414e-004,4.774750e-005
-7.979790e-005,3.526847e-005
-3.263690e-005,2.424803e-005
-1.682422e-006,8.041497e-006
1.954813e-005,-1.302699e-005
3.867184e-005,-3.522994e-005
5.617490e-005,-5.111234e-005
7.481241e-005,-5.646050e-005
9.474644e-005,-4.965375e-005
1.174356e-004,-3.182657e-005
1.372075e-004,-5.896120e-006
1.466074e-004,2.133085e-005
1.399627e-004,4.612685e-005
1.174356e-004,6.444023e-005
9.069480e-005,7.708132e-005
6.703327e-005,8.631904e-005
4.758544e-005,9.766362e-005
3.380988e-005,1.114392e-004
3.170303e-005,1.257009e-004
4.564065e-005,1.347766e-004
7.772959e-005,1.333180e-004
1.248906e-004,1.138701e-004
1.748067e-004,7.448828e-005
2.141886e-004,1.744128e-005
2.368777e-004,-4.625038e-005
2.404432e-004,-9.519411e-005
2.265056e-004,-1.159385e-004
2.013854e-004,-1.112386e-004
1.715654e-004,-9.017008e-005
1.401247e-004,-6.618442e-005
1.059289e-004,-4.738484e-005
6.265751e-005,-3.701266e-005
6.096713e-006,-3.555407e-005
-6.132245e-005,-4.203669e-005
-1.272830e-004,-4.706071e-005
-1.784957e-004,-4.479180e-005
-1.995642e-004,-3.117831e-005
-1.835197e-004,-9.461557e-006
-1.421931e-004,1.792748e-005
-9.357345e-005,5.034054e-005
-4.965375e-005,8.988448e-005
-1.869928e-005,1.300767e-004
-3.858999e-007,1.592484e-004
9.500084e-006,1.715654e-004
2.489629e-005,1.705930e-004
6.103685e-005,1.634621e-004
1.279698e-004,1.582760e-004
2.187264e-004,1.584381e-004
3.130485e-004,1.660552e-004
3.913260e-004,1.767515e-004
4.508040e-004,1.842065e-004
4.994237e-004,1.880961e-004
5.428572e-004,1.856651e-004
5.822390e-004,1.759412e-004
6.172452e-004,1.519555e-004
6.558168e-004,1.101426e-004
7.057329e-004,5.050261e-005
7.721797e-004,-2.291298e-005
8.504573e-004,-1.032974e-004
9.212799e-004,-1.822232e-004
9.611481e-004,-2.404046e-004
9.570965e-004,-2.592042e-004
8.950254e-004,-2.331117e-004
7.457631e-004,-1.757406e-004
4.978030e-004,-1.114006e-004
1.973338e-004,-6.245691e-005
-6.456376e-005,-4.236081e-005
-2.122052e-004,-4.932962e-005
-2.310048e-004,-7.169464e-005
-1.896782e-004,-9.373551e-005
-2.060468e-004,-1.024870e-004
-3.603329e-004,-9.179074e-005
-6.424886e-004,-6.310517e-005
-9.693743e-004,-2.518189e-005
-1.205666e-003,1.095867e-005
-1.222034e-003,3.850977e-005
-9.977357e-004,5.390598e-005
-6.716603e-004,5.844381e-005
-4.556273e-004,5.828174e-005
-4.663236e-004,6.136099e-005
-6.567503e-004,7.302969e-005
-8.752143e-004,8.891209e-005
-9.771533e-004,1.054428e-004
-8.938518e-004,1.198666e-004
-6.520504e-004,1.297525e-004
-3.425058e-004,1.338042e-004
-5.872941e-005,1.302387e-004
1.432040e-004,1.163011e-004
2.534084e-004,9.312579e-005
3.039728e-004,6.703327e-005
3.316860e-004,4.661304e-005
3.572923e-004,3.802358e-005
3.880847e-004,4.061663e-005
4.300596e-004,4.483032e-005
4.911583e-004,4.077869e-005
5.742979e-004,3.008238e-005
6.692682e-004,1.711715e-005
7.533801e-004,9.500084e-006
8.062135e-004,8.851824e-006
8.144788e-004,1.160693e-005
7.793106e-004,1.468617e-005
7.109190e-004,2.052053e-005
6.200003e-004,3.218923e-005
5.125509e-004,4.936815e-005
3.948915e-004,6.557468e-005
2.739907e-004,7.497447e-005
1.629759e-004,7.643306e-005
6.946425e-005,7.027457e-005
-4.113402e-006,5.941620e-005
-5.435365e-005,5.293359e-005
-7.607040e-005,5.763348e-005
-6.877746e-005,7.027457e-005
-4.025397e-005,8.356393e-005
-3.141010e-006,9.280166e-005
3.786152e-005,9.636710e-005
7.999850e-005,9.847395e-005
1.164632e-004,9.652916e-005
1.372075e-004,8.567078e-005
1.372075e-004,6.411610e-005
1.174356e-004,3.867184e-005
8.712937e-005,2.149292e-005
6.281957e-005,1.679302e-005
5.893001e-005,2.084466e-005
7.238143e-005,2.441009e-005
9.361198e-005,2.149292e-005
1.077117e-004,1.403791e-005
1.020394e-004,4.638125e-006
8.048469e-005,-7.100305e-007
5.390598e-005,2.207145e-006
3.170303e-005,9.662150e-006
9.106226e-007,1.565857e-005
-6.180866e-005,1.403791e-005
-1.695821e-004,5.124321e-006
-3.058790e-004,-7.354708e-006
-4.178661e-004,-1.837515e-005
-4.567618e-004,-2.096819e-005
-4.126800e-004,-1.302699e-005
-3.199787e-004,-3.303075e-006
-2.306807e-004,3.017472e-006
-1.728234e-004,7.231170e-006
-1.452723e-004,1.257933e-005
-1.310105e-004,2.311357e-005
-1.196660e-004,4.175108e-005
-1.032974e-004,6.735740e-005
-8.077029e-005,9.328785e-005
-5.646050e-005,1.101426e-004
-3.587821e-005,1.099806e-004
-2.161646e-005,9.150514e-005
-1.724069e-005,6.606088e-005
-3.101624e-005,4.774750e-005
-6.634648e-005,4.547859e-005
-1.089697e-004,5.714729e-005
-1.387897e-004,6.995045e-005
-1.418689e-004,6.995045e-005
-1.255003e-004,5.115087e-005
-1.041077e-004,1.663096e-005
-9.195280e-005,-2.356124e-005
-9.324932e-005,-5.905355e-005
-9.649063e-005,-8.482193e-005
-8.725291e-005,-9.908367e-005
-5.159854e-005,-9.875954e-005
7.717366e-006,-8.644258e-005
7.562274e-005,-6.877746e-005
1.304008e-004,-5.208473e-005
1.534141e-004,-3.798505e-005
1.318594e-004,-2.501983e-005
6.314371e-005,-1.302699e-005
-4.106429e-005,-6.058186e-006
-1.580754e-004,-5.409925e-006
-2.551526e-004,-9.461557e-006
-3.104168e-004,-1.513384e-005
-3.241924e-004,-1.562004e-005
-3.100927e-004,-9.137427e-006
-2.737901e-004,4.638125e-006
-2.170672e-004,2.068259e-005
-1.387897e-004,3.073064e-005
-3.620233e-005,2.862379e-005
7.740545e-005,1.306552e-005
1.829100e-004,-1.837515e-005
2.701011e-004,-6.326724e-005
3.376824e-004,-1.102662e-004
3.869503e-004,-1.460826e-004
4.195254e-004,-1.630995e-004
4.316803e-004,-1.619650e-004
4.065602e-004,-1.454343e-004
3.196932e-004,-1.229073e-004
1.697827e-004,-1.028112e-004
-9.947754e-006,-8.935975e-005
-1.750923e-004,-8.109442e-005
-2.861070e-004,-7.056018e-005
-3.290543e-004,-5.111234e-005
-3.217614e-004,-2.275091e-005
-2.878897e-004,1.338965e-005
-2.520733e-004,4.953022e-005
-2.235498e-004,7.870197e-005
-1.974573e-004,9.993253e-005
-1.713648e-004,1.169494e-004
-1.498101e-004,1.308870e-004
-1.383035e-004,1.435281e-004
-1.302002e-004,1.530900e-004
-1.178833e-004,1.519555e-004
-9.438377e-005,1.333180e-004
-5.921561e-005,9.814982e-005
-1.902341e-005,6.103685e-005
1.857574e-005,3.429608e-005
4.580272e-005,2.003433e-005
6.087479e-005,1.727922e-005
5.974033e-005,2.327564e-005
3.251336e-005,3.397195e-005
-2.501983e-005,4.320967e-005
-1.068628e-004,5.228533e-005
-1.830335e-004,6.541262e-005
-2.173913e-004,8.421220e-005
-1.909747e-004,1.070634e-004
-1.105903e-004,1.304008e-004
-4.761663e-006,1.485521e-004
1.034980e-004,1.579519e-004
2.033302e-004,1.587622e-004
2.923041e-004,1.551968e-004
3.657197e-004,1.472556e-004
4.167703e-004,1.342904e-004
4.483731e-004,1.166253e-004
4.657140e-004,9.960840e-005
4.744656e-004,8.826383e-005
4.824068e-004,8.793970e-005
4.843515e-004,1.012291e-004
4.744656e-004,1.211631e-004
4.495075e-004,1.349386e-004
4.044533e-004,1.352628e-004
3.396272e-004,1.250527e-004
2.649151e-004,1.111150e-004
1.934442e-004,9.798775e-005
1.347766e-004,9.231547e-005
8.550872e-005,9.263960e-005
4.126489e-005,9.507057e-005
2.045080e-006,9.182927e-005
-2.680255e-005,8.016056e-005
-3.182657e-005,5.325772e-005
-1.886135e-005,1.014835e-005
-4.923729e-006,-3.863331e-005
-5.896120e-006,-7.979790e-005
-1.967167e-005,-1.018388e-004
-2.939559e-005,-1.000561e-004
-2.307504e-005,-8.012203e-005
9.106226e-007,-5.338126e-005
3.397195e-005,-3.312309e-005
6.670914e-005,-2.777494e-005
9.344992e-005,-3.555407e-005
1.154908e-004,-4.381940e-005
1.318594e-004,-3.976777e-005
1.393144e-004,-2.291298e-005
1.347766e-004,2.855406e-006
1.166253e-004,2.862379e-005
9.085687e-005,4.531652e-005
7.173317e-005,4.871989e-005
6.897806e-005,3.932010e-005
8.242948e-005,2.116879e-005
1.064151e-004,-3.858999e-007
1.260251e-004,-1.902341e-005
1.244044e-004,-2.858526e-005
1.018773e-004,-2.809907e-005
7.481241e-005,-1.788895e-005
5.277152e-005,9.106226e-007
9.175954e-006,2.181705e-005
-1.024870e-004,3.915804e-005
-2.971275e-004,5.358185e-005
-5.282326e-004,6.281957e-005
-7.134731e-004,6.557468e-005
-7.970989e-004,6.298164e-005
-7.666306e-004,5.666109e-005
-6.536711e-004,4.969228e-005
-4.980884e-004,4.045456e-005
-3.353749e-004,3.056858e-005
-1.942160e-004,2.165498e-005
-1.094559e-004,1.565857e-005
-1.191798e-004,1.695509e-005
-2.494803e-004,2.603075e-005
-4.885265e-004,3.883391e-005
-7.546377e-004,5.682316e-005
-9.215650e-004,7.319175e-005
-8.857485e-004,8.502253e-005
-6.225546e-004,9.053274e-005
-1.951884e-004,9.069480e-005
2.790147e-004,8.567078e-005
6.836920e-004,7.772959e-005
9.509380e-004,7.205730e-005
1.066815e-003,7.367795e-005
1.057739e-003,7.837785e-005
9.723306e-004,8.356393e-005
8.582365e-004,8.242948e-005
7.522457e-004,7.416414e-005
6.694302e-004,6.119892e-005
6.091419e-004,4.661304e-005
5.663566e-004,3.802358e-005
5.358884e-004,4.094075e-005
5.107682e-004,5.179913e-005
4.840274e-004,6.087479e-005
4.514523e-004,6.249544e-005
4.136910e-004,6.071273e-005
3.723644e-004,6.087479e-005
3.290929e-004,6.184718e-005
2.811216e-004,6.265751e-005
2.177540e-004,6.573675e-005
1.279698e-004,6.719534e-005
7.717366e-006,6.589881e-005
-1.276072e-004,5.844381e-005
-2.520733e-004,4.369587e-005
-3.452609e-004,2.376183e-005
-4.042526e-004,8.203561e-006
-4.412035e-004,3.341602e-006
-4.708614e-004,7.069104e-006
-4.930644e-004,1.257933e-005
-5.000332e-004,1.711715e-005
-4.823681e-004,1.501031e-005
-4.353692e-004,7.393235e-006
-3.687603e-004,-5.247859e-006
-3.023136e-004,-2.096819e-005
-2.523974e-004,-3.377135e-005
-2.264670e-004,-3.928157e-005
-2.186879e-004,-3.782299e-005
-2.151224e-004,-3.895744e-005
-1.985918e-004,-5.111234e-005
-1.621271e-004,-7.639453e-005
-1.092938e-004,-1.118868e-004
-5.402952e-005,-1.519170e-004
-1.934754e-005,-1.909747e-004
-2.258885e-005,-2.220912e-004
-7.558420e-005,-2.360288e-004
-1.682856e-004,-2.264670e-004
-2.619593e-004,-1.959987e-004
-3.113892e-004,-1.528894e-004
-2.959930e-004,-1.086455e-004
-2.293842e-004,-7.282909e-005
-1.447861e-004,-4.981582e-005
-7.704279e-005,-3.604027e-005
-4.625038e-005,-2.793700e-005
-4.511592e-005,-1.691656e-005
-3.879538e-005,-1.034161e-006
8.041497e-006,1.906194e-005
1.156529e-004,3.607880e-005
2.790147e-004,4.693717e-005
4.772207e-004,5.358185e-005
6.772094e-004,6.022653e-005
8.477023e-004,6.768153e-005
9.588792e-004,7.448828e-005
9.883750e-004,7.853991e-005
9.329487e-004,7.983643e-005
8.105892e-004,8.113296e-005
6.507927e-004,8.178122e-005
4.846757e-004,7.967437e-005
3.354135e-004,7.578480e-005
2.166196e-004,7.319175e-005
1.342904e-004,7.384001e-005
8.745350e-005,7.562274e-005
7.513654e-005,7.691926e-005
9.231547e-005,8.048469e-005
1.297525e-004,9.182927e-005
1.733481e-004,1.080358e-004
2.046267e-004,1.231079e-004
2.062474e-004,1.318594e-004
1.717275e-004,1.313732e-004
1.067393e-004,1.257009e-004
2.278944e-005,1.158149e-004
-6.602235e-005,1.020394e-004
-1.485136e-004,8.875003e-005
-2.211188e-004,7.983643e-005
-2.864312e-004,7.821578e-005
-3.496366e-004,8.064676e-005
-4.185144e-004,7.529860e-005
-4.878783e-004,5.925414e-005
-5.491390e-004,3.705119e-005
-5.907897e-004,1.987226e-005
-6.084549e-004,1.403791e-005
-6.024585e-004,2.068259e-005
-5.710178e-004,3.267542e-005
-5.149432e-004,4.369587e-005
-4.413656e-004,4.645098e-005
-3.614674e-004,4.272347e-005
-2.807589e-004,3.786152e-005
-2.028055e-004,3.462021e-005
-1.305243e-004,3.380988e-005
-6.748093e-005,3.348575e-005
-1.675450e-005,3.251336e-005
2.473422e-005,3.008238e-005
6.022653e-005,2.570661e-005
9.571883e-005,2.019640e-005
1.391524e-004,2.068259e-005
1.905270e-004,2.797553e-005
2.376881e-004,3.769945e-005
2.663736e-004,4.402000e-005
2.688046e-004,4.693717e-005
2.443327e-004,4.855782e-005
1.971717e-004,5.179913e-005
1.365593e-004,5.504044e-005
7.238143e-005,5.471631e-005
1.808955e-005,4.807163e-005
-8.489165e-006,3.526847e-005
-3.465141e-006,1.533444e-005
1.987226e-005,-5.247859e-006
3.607880e-005,-2.534396e-005
2.619281e-005,-4.511592e-005
-1.302699e-005,-6.002593e-005
-7.428768e-005,-6.683268e-005
-1.387897e-004,-6.618442e-005
-1.880575e-004,-6.197072e-005
-2.039399e-004,-5.435365e-005
-1.752544e-004,-3.798505e-005
-9.470791e-005,-1.286493e-005
3.834771e-005,1.679302e-005
2.090025e-004,4.645098e-005
3.796573e-004,7.675719e-005
5.050959e-004,1.077117e-004
5.452881e-004,1.367214e-004
4.864584e-004,1.603829e-004
3.527545e-004,1.790204e-004
1.927960e-004,1.921477e-004
5.585077e-005,1.971717e-004
-3.020592e-005,1.950649e-004
-6.699474e-005,1.876099e-004
-7.104637e-005,1.749688e-004
-5.710876e-005,1.542244e-004
-3.522994e-005,1.281319e-004
-8.975361e-006,1.072255e-004
1.614476e-005,1.009049e-004
3.445814e-005,1.078737e-004
4.693717e-005,1.193804e-004
5.779555e-005,1.274836e-004
6.444023e-005,1.263492e-004
5.601283e-005,1.124116e-004
2.392390e-005,8.988448e-005
-3.085418e-005,6.330577e-005
-9.794922e-005,3.024445e-005
-1.616409e-004,-1.189254e-005
-2.050744e-004,-6.018800e-005
-2.146362e-004,-1.065387e-004
-1.882196e-004,-1.410586e-004
-1.361966e-004,-1.574272e-004
-7.720485e-005,-1.574272e-004
-2.307504e-005,-1.472171e-004
2.392390e-005,-1.276072e-004
6.687120e-005,-9.551824e-005
1.081979e-004,-5.419158e-005
1.466074e-004,-1.286493e-005
1.769136e-004,1.533444e-005
1.859892e-004,1.776542e-005
1.670276e-004,-8.002969e-006
1.201907e-004,-5.565017e-005
5.050261e-005,-1.139937e-004
-3.247483e-005,-1.661787e-004
-1.169109e-004,-2.003745e-004
-1.846541e-004,-2.057227e-004
-2.203085e-004,-1.801163e-004
-2.170672e-004,-1.292278e-004
-1.775233e-004,-6.245691e-005
-1.161005e-004,1.558884e-006
-4.803310e-005,5.277152e-005
9.986280e-006,8.729143e-005
3.737532e-005,1.012291e-004
1.971020e-005,9.652916e-005
-4.430560e-005,8.145709e-005
-1.415448e-004,6.832980e-005
-2.483458e-004,6.476436e-005
-3.369955e-004,7.221937e-005
-3.880461e-004,8.745350e-005
-3.993907e-004,1.018773e-004
-3.830221e-004,1.034980e-004
-3.515814e-004,8.372600e-005
-3.110651e-004,4.239934e-005
-2.574215e-004,-1.027188e-005
-1.822232e-004,-5.646050e-005
-7.963584e-005,-8.174268e-005
4.807163e-005,-8.255302e-005
1.913374e-004,-6.310517e-005
3.465960e-004,-3.020592e-005
5.166026e-004,6.420843e-006
6.992503e-004,3.818564e-005
8.783326e-004,6.298164e-005
1.019005e-003,7.918817e-005
1.079780e-003,8.761556e-005
1.043964e-003,9.037068e-005
9.498034e-004,8.680524e-005
8.690949e-004,7.675719e-005
8.637467e-004,6.184718e-005
9.363521e-004,4.677511e-005
1.026785e-003,3.267542e-005
1.038129e-003,1.646889e-005
8.885428e-004,-3.141010e-006
5.728393e-004,-2.388537e-005
1.741585e-004,-4.284701e-005
-1.901644e-004,-5.646050e-005
-4.305072e-004,-6.164659e-005
-5.219121e-004,-5.208473e-005
-4.961436e-004,-2.485776e-005
-4.112214e-004,1.484824e-005
-3.222476e-004,5.649903e-005
-2.682798e-004,8.988448e-005
-2.674695e-004,1.120874e-004
-3.156029e-004,1.250527e-004
-3.945287e-004,1.326697e-004
-4.779923e-004,1.347766e-004
-5.462218e-004,1.320215e-004
-5.932207e-004,1.221355e-004
-6.173684e-004,1.070634e-004
-6.084549e-004,8.939829e-005
-5.630766e-004,7.221937e-005
-4.815578e-004,5.974033e-005
-3.736223e-004,5.423011e-005
-2.478596e-004,5.536457e-005
-1.177212e-004,6.233338e-005
1.720949e-006,7.367795e-005
9.409818e-005,8.729143e-005
1.527658e-004,1.013911e-004
1.804790e-004,1.096565e-004
1.869616e-004,1.073875e-004
1.858272e-004,9.539470e-005
1.879340e-004,7.902610e-005
1.949028e-004,6.362990e-005
2.072198e-004,5.244739e-005
2.211574e-004,4.402000e-005
2.349330e-004,3.688912e-005
2.420638e-004,2.603075e-005
2.367157e-004,1.128280e-005
2.115955e-004,-2.330684e-006
1.705930e-004,-1.027188e-005
1.300767e-004,-1.351319e-005
1.052807e-004,-1.286493e-005
9.896014e-005,-1.092015e-005
1.020394e-004,-6.058186e-006
9.977046e-005,2.369210e-006
7.837785e-005,1.193106e-005
3.607880e-005,1.695509e-005
-1.756482e-005,1.695509e-005
-6.780506e-005,1.452411e-005
-1.044318e-004,1.501031e-005
-1.282554e-004,2.003433e-005
-1.374931e-004,3.073064e-005
-1.229073e-004,4.596478e-005
-8.514606e-005,6.362990e-005
-4.446767e-005,7.772959e-005
-2.745081e-005,8.486046e-005
-4.576419e-005,8.307774e-005
-8.952182e-005,7.465034e-005
-1.412206e-004,6.573675e-005
-1.859507e-004,6.427816e-005
-2.107467e-004,6.978838e-005
-2.123673e-004,7.546067e-005
-1.976194e-004,7.351588e-005
-1.806025e-004,5.714729e-005
-1.661787e-004,2.992031e-005
-1.515928e-004,-1.520357e-006
-1.280934e-004,-2.501983e-005
-9.422171e-005,-2.988179e-005
-5.111234e-005,-1.075808e-005
2.369210e-006,2.910999e-005
5.876794e-005,7.756751e-005
1.072255e-004,1.180839e-004
1.351007e-004,1.402868e-004
1.423936e-004,1.404489e-004
1.365593e-004,1.167873e-004
1.299146e-004,7.610893e-005
1.287802e-004,2.943412e-005
1.339663e-004,-1.529591e-005
1.440143e-004,-5.208473e-005
1.598967e-004,-7.623246e-005
1.801549e-004,-8.822530e-005
1.989545e-004,-9.486997e-005
2.078680e-004,-1.028112e-004
1.989545e-004,-1.133454e-004
1.712413e-004,-1.222590e-004
1.284560e-004,-1.229073e-004
7.367795e-005,-1.143178e-004
1.014835e-005,-9.584237e-005
-5.257093e-005,-6.958779e-005
-1.011905e-004,-4.025397e-005
-1.266348e-004,-1.821308e-005
-1.314967e-004,-8.002969e-006
-1.248521e-004,-2.978945e-006
-1.151281e-004,1.234753e-006
-1.118868e-004,1.720949e-006
-1.222590e-004,-3.627206e-006
-1.442999e-004,-1.464765e-005
-1.739578e-004,-2.664048e-005
-2.049123e-004,-3.231276e-005
-2.387839e-004,-3.085418e-005
-2.843243e-004,-2.194059e-005
-3.577399e-004,-8.813297e-006
-4.614617e-004,5.124321e-006
-5.690730e-004,1.744128e-005
-6.314681e-004,2.262737e-005
-6.150996e-004,1.954813e-005
-5.125122e-004,1.468617e-005
-3.438023e-004,1.225519e-005
-1.493239e-004,1.452411e-005
2.586868e-005,2.165498e-005
1.498487e-004,2.894792e-005
2.159713e-004,3.429608e-005
2.415776e-004,3.607880e-005
2.537325e-004,3.769945e-005
2.731804e-004,4.434413e-005
3.166139e-004,6.055066e-005
3.866261e-004,8.793970e-005
4.700898e-004,1.237561e-004
5.397779e-004,1.579519e-004
5.708945e-004,1.795066e-004
5.525811e-004,1.817755e-004
4.900239e-004,1.602208e-004
3.995913e-004,1.141943e-004
3.051073e-004,6.152305e-005
2.256952e-004,2.003433e-005
1.697827e-004,-5.571990e-006
1.398006e-004,-1.707863e-005
1.286181e-004,-1.821308e-005
1.308870e-004,-1.448558e-005
1.432040e-004,-9.137427e-006
1.598967e-004,-7.192643e-006
1.741585e-004,-7.516774e-006
1.790204e-004,-4.923729e-006
1.726999e-004,-2.238345e-007
1.639483e-004,5.772582e-006
1.613553e-004,1.274139e-005
1.668655e-004,2.035846e-005
1.806411e-004,2.732727e-005
1.970097e-004,3.137890e-005
2.115955e-004,2.441009e-005
2.171058e-004,2.531276e-006
2.033302e-004,-2.842320e-005
1.728619e-004,-5.759496e-005
1.347766e-004,-7.137050e-005
1.049566e-004,-6.148453e-005
8.777764e-005,-3.328516e-005
8.016056e-005,2.207145e-006
7.610893e-005,3.267542e-005
7.805372e-005,4.936815e-005
8.453633e-005,5.358185e-005
8.745350e-005,5.147500e-005
7.772959e-005,4.985435e-005
5.034054e-005,5.358185e-005
3.827798e-006,6.411610e-005
-5.467778e-005,7.870197e-005
-1.144799e-004,9.166720e-005
-1.708786e-004,1.020394e-004
-2.201465e-004,1.120874e-004
-2.569353e-004,1.242423e-004
-2.724935e-004,1.342904e-004
-2.559629e-004,1.357490e-004
-2.050744e-004,1.299146e-004
-1.376552e-004,1.234320e-004
-7.023605e-005,1.210010e-004
-1.237873e-005,1.221355e-004
3.867184e-005,1.242423e-004
8.340186e-005,1.232699e-004
1.182459e-004,1.197045e-004
1.378558e-004,1.164632e-004
1.367214e-004,1.148425e-004
1.148425e-004,1.190562e-004
8.016056e-005,1.260251e-004
4.758544e-005,1.266733e-004
2.765140e-005,1.141943e-004
2.052053e-005,8.842590e-005
2.262737e-005,5.358185e-005
3.380988e-005,1.776542e-005
5.196120e-005,-1.010982e-005
7.238143e-005,-2.696461e-005
8.761556e-005,-3.377135e-005
9.328785e-005,-3.749886e-005
8.648111e-005,-4.252288e-005
6.703327e-005,-4.608832e-005
4.353380e-005,-4.527799e-005
2.052053e-005,-3.636440e-005
-2.501983e-005,-2.210265e-005
-1.470550e-004,-1.335112e-005
-3.791325e-004,-1.513384e-005
-6.839773e-004,-2.242678e-005
-9.664571e-004,-2.955766e-005
-1.123174e-003,-3.053005e-005
-1.107940e-003,-2.339917e-005
-9.427955e-004,-6.544382e-006
-6.940254e-004,1.776542e-005
-4.397449e-004,4.661304e-005
-2.449424e-004,7.302969e-005
-1.339277e-004,9.296372e-005
-9.486997e-005,1.036600e-004
-9.843541e-005,1.049566e-004
-1.144799e-004,1.007429e-004
-1.110765e-004,9.798775e-005
-5.856734e-005,9.831188e-005
4.158902e-005,1.015532e-004
1.527658e-004,1.067393e-004
2.384984e-004,1.065772e-004
2.863077e-004,9.247753e-005
3.080244e-004,6.249544e-005
3.295791e-004,2.846173e-005
3.718782e-004,9.824214e-006
4.380009e-004,1.419998e-005
5.110924e-004,3.656499e-005
5.754323e-004,6.346784e-005
6.294001e-004,8.080882e-005
6.773715e-004,8.064676e-005
7.096225e-004,6.719534e-005
6.835299e-004,4.661304e-005
5.611706e-004,2.489629e-005
3.525924e-004,3.017472e-006
1.278078e-004,-1.837515e-005
-2.971972e-005,-4.025397e-005
-7.493595e-005,-5.791909e-005
-2.194059e-005,-6.926366e-005
7.691926e-005,-7.574627e-005
1.701068e-004,-8.222889e-005
2.245608e-004,-8.984595e-005
2.344468e-004,-1.005423e-004
2.091646e-004,-1.161005e-004
1.561692e-004,-1.370070e-004
7.335382e-005,-1.593720e-004
-3.053005e-005,-1.721751e-004
-1.104282e-004,-1.677994e-004
-9.260106e-005,-1.472171e-004
7.416414e-005,-1.170729e-004
3.525924e-004,-8.482193e-005
6.102764e-004,-5.548810e-005
6.913091e-004,-3.215070e-005
5.018546e-004,-1.610623e-005
7.335382e-005,-8.489165e-006
-4.491447e-004,-8.975361e-006
-8.857485e-004,-1.707863e-005
-1.089951e-003,-2.988179e-005
-1.016697e-003,-4.187462e-005
-7.468586e-004,-4.544005e-005
-4.277521e-004,-3.879538e-005
-1.835197e-004,-2.469570e-005
-6.926366e-005,-4.275467e-006
-7.396355e-005,2.343770e-005
-1.494860e-004,5.633696e-005
-2.429977e-004,8.761556e-005
-3.144684e-004,1.077117e-004
-3.347266e-004,1.138701e-004
-2.922655e-004,1.107909e-004
-1.921091e-004,1.026876e-004
-6.148453e-005,9.442231e-005
6.687120e-005,8.550872e-005
1.705930e-004,7.335382e-005
2.487085e-004,5.844381e-005
3.172621e-004,4.175108e-005
4.025085e-004,2.214118e-005
5.255162e-004,-1.196226e-006
6.843403e-004,-2.761287e-005
8.524021e-004,-4.673658e-005
9.984232e-004,-4.641245e-005
1.094690e-003,-2.177852e-005
1.124996e-003,1.322759e-005
1.083183e-003,4.013043e-005
9.783270e-004,4.969228e-005
8.246890e-004,4.564065e-005
6.396102e-004,3.429608e-005
4.373526e-004,2.084466e-005
2.373639e-004,1.031041e-005
6.233338e-005,1.014835e-005
-6.359137e-005,2.392390e-005
-1.306864e-004,4.645098e-005
-1.444620e-004,6.557468e-005
-1.143178e-004,7.643306e-005
-5.208473e-005,8.307774e-005
2.878586e-005,9.101894e-005
1.067393e-004,1.002567e-004
1.600588e-004,1.112771e-004
1.754550e-004,1.211631e-004
1.461212e-004,1.305629e-004
8.129502e-005,1.409351e-004
-1.358292e-006,1.503348e-004
-8.336334e-005,1.543865e-004
-1.493239e-004,1.513072e-004
-1.896782e-004,1.394765e-004
-2.094501e-004,1.201907e-004
-2.156086e-004,1.010670e-004
-2.138259e-004,8.939829e-005
-2.099363e-004,8.761556e-005
-2.143121e-004,9.263960e-005
-2.314910e-004,1.013911e-004
-2.634179e-004,1.039842e-004
-3.071755e-004,9.750155e-005
-3.533641e-004,8.696730e-005
-3.992286e-004,7.805372e-005
-4.478482e-004,7.124698e-005
-5.094330e-004,6.427816e-005
-6.099135e-004,5.341978e-005
-7.732753e-004,3.802358e-005
-9.803947e-004,1.922400e-005
-1.168390e-003,4.244267e-007
-1.270167e-003,-1.189254e-005
-1.250233e-003,-1.545797e-005
-1.113450e-003,-1.010982e-005
-8.972552e-004,-2.816880e-006
-6.501056e-004,1.558884e-006
-4.154351e-004,-3.858999e-007
-2.182017e-004,-8.651231e-006
-7.428768e-005,-1.837515e-005
1.047248e-005,-2.275091e-005
4.191315e-005,-1.756482e-005
3.429608e-005,-4.761663e-006
7.231170e-006,1.063454e-005
-2.145439e-005,2.359977e-005
-3.960571e-005,3.251336e-005
-4.155049e-005,3.818564e-005
-2.469570e-005,4.191315e-005
1.128280e-005,4.337174e-005
6.800567e-005,4.807163e-005
1.396385e-004,6.638501e-005
2.216436e-004,9.863601e-005
3.072141e-004,1.316973e-004
3.775505e-004,1.449867e-004
4.188771e-004,1.279698e-004
4.308700e-004,8.502253e-005
4.216323e-004,3.672705e-005
4.021844e-004,2.045080e-006
3.846813e-004,-9.785687e-006
3.777125e-004,-1.520357e-006
3.840331e-004,1.257933e-005
4.008879e-004,2.084466e-005
4.128807e-004,1.565857e-005
4.047775e-004,-2.168618e-006
3.736609e-004,-2.404744e-005
3.239068e-004,-4.203669e-005
2.666978e-004,-5.629843e-005
2.083542e-004,-6.780506e-005
1.435281e-004,-8.109442e-005
6.573675e-005,-9.584237e-005
-2.583015e-005,-1.101041e-004
-1.148040e-004,-1.173971e-004
-1.835197e-004,-1.112386e-004
-2.207947e-004,-9.033214e-005
-2.272773e-004,-5.937767e-005
-2.120432e-004,-2.469570e-005
-1.827094e-004,4.476060e-006
-1.430034e-004,2.116879e-005
-9.584237e-005,2.392390e-005
-4.641245e-005,1.306552e-005
-2.816880e-006,-1.092015e-005
3.559260e-005,-4.446767e-005
7.967437e-005,-8.028410e-005
1.412592e-004,-1.102662e-004
2.256952e-004,-1.266348e-004
3.271481e-004,-1.229073e-004
4.271425e-004,-1.023250e-004
5.050959e-004,-7.072224e-005
5.469088e-004,-3.296103e-005
5.483674e-004,5.934647e-006
5.219507e-004,4.239934e-005
4.905100e-004,7.335382e-005
4.666864e-004,9.814982e-005
4.504799e-004,1.163011e-004
4.289252e-004,1.312111e-004
3.890571e-004,1.461212e-004
3.232586e-004,1.620035e-004
2.453051e-004,1.791825e-004
1.754550e-004,1.947408e-004
1.232699e-004,2.057612e-004
9.199134e-005,2.114335e-004
8.064676e-005,2.101370e-004
8.615698e-005,2.013854e-004
1.046324e-004,1.851789e-004
1.269974e-004,1.639483e-004
1.435281e-004,1.399627e-004
1.462832e-004,1.195424e-004
1.286181e-004,1.080358e-004
9.312579e-005,1.091703e-004
5.649903e-005,1.188942e-004
4.223728e-005,1.323456e-004
5.974033e-005,1.436902e-004
9.166720e-005,1.514693e-004
1.012291e-004,1.522796e-004
6.719534e-005,1.483901e-004
6.096713e-006,1.425557e-004
-4.592625e-005,1.346145e-004
-6.618442e-005,1.250527e-004
-5.451571e-005,1.099806e-004
-3.539201e-005,9.215340e-005
-3.960571e-005,7.189524e-005
-8.255302e-005,5.082674e-005
-1.590478e-004,2.992031e-005
-2.489941e-004,9.824214e-006
-3.246786e-004,-1.351319e-005
-3.648708e-004,-4.252288e-005
-3.619536e-004,-7.266703e-005
-3.222476e-004,-9.632856e-005
-2.643903e-004,-1.073490e-004
-2.000504e-004,-1.037836e-004
-1.329553e-004,-8.806324e-005
-5.937767e-005,-7.299116e-005
2.165498e-005,-6.942573e-005
1.039842e-004,-8.012203e-005
1.746447e-004,-9.956987e-005
2.278021e-004,-1.242038e-004
2.613496e-004,-1.452723e-004
2.704253e-004,-1.543479e-004
2.551911e-004,-1.491618e-004
2.054371e-004,-1.253383e-004
8.745350e-005,-8.709084e-005
-1.318209e-004,-4.430560e-005
-4.303451e-004,-8.651231e-006
-7.240074e-004,1.322759e-005
-9.181616e-004,2.019640e-005
-9.607848e-004,1.387585e-005
-8.554424e-004,-5.479652e-007
-6.475126e-004,-1.448558e-005
-4.018217e-004,-2.404744e-005
-1.734716e-004,-3.393342e-005
3.503668e-006,-5.143647e-005
1.234320e-004,-7.688072e-005
2.012234e-004,-9.811128e-005
2.480603e-004,-1.026491e-004
2.658874e-004,-9.114247e-005
2.666978e-004,-6.472583e-005
2.803112e-004,-2.566809e-005
3.320101e-004,1.906194e-005
4.221185e-004,6.589881e-005
5.169267e-004,1.091703e-004
5.679773e-004,1.394765e-004
5.441537e-004,1.526038e-004
4.495075e-004,1.479039e-004
3.208276e-004,1.286181e-004
1.994406e-004,1.007429e-004
1.187321e-004,7.027457e-005
9.328785e-005,4.807163e-005
1.187321e-004,3.964423e-005
1.710792e-004,4.418206e-005
2.166196e-004,5.374392e-005
2.312054e-004,5.828174e-005
2.096508e-004,5.017848e-005
1.615174e-004,2.813760e-005
1.067393e-004,-1.358292e-006
6.217131e-005,-2.858526e-005
3.737532e-005,-4.673658e-005
2.781346e-005,-5.127441e-005
2.278944e-005,-4.495386e-005
1.144487e-005,-3.458168e-005
-1.562004e-005,-2.388537e-005
-5.921561e-005,-8.327101e-006
-1.141557e-004,1.501031e-005
-1.700683e-004,4.353380e-005
-2.232257e-004,7.059870e-005
-2.715212e-004,9.247753e-005
-3.104168e-004,1.086841e-004
-3.331059e-004,1.187321e-004
-3.386162e-004,1.227837e-004
-3.363473e-004,1.208390e-004
-3.366714e-004,1.132219e-004
-3.407230e-004,9.928427e-005
-3.394265e-004,8.502253e-005
-3.243544e-004,7.400208e-005
-2.899966e-004,6.411610e-005
-2.382978e-004,4.807163e-005
-1.776853e-004,2.651694e-005
-1.198280e-004,5.124321e-006
-7.363942e-005,-1.464765e-005
-4.317114e-005,-3.766092e-005
-2.631635e-005,-6.958779e-005
-1.270286e-005,-1.049180e-004
6.582909e-006,-1.370070e-004
3.526847e-005,-1.545100e-004
7.189524e-005,-1.546721e-004
1.112771e-004,-1.412206e-004
1.456350e-004,-1.243659e-004
1.712413e-004,-1.086455e-004
1.837203e-004,-9.405964e-005
1.811273e-004,-7.833932e-005
1.691344e-004,-5.921561e-005
1.590864e-004,-3.198863e-005
1.608691e-004,3.989864e-006
1.738343e-004,4.499239e-005
1.882581e-004,8.729143e-005
1.897167e-004,1.295905e-004
1.761032e-004,1.738343e-004
1.524417e-004,2.167816e-004
1.247285e-004,2.485465e-004
9.782569e-005,2.619979e-004
7.432621e-005,2.548670e-004
5.504044e-005,2.326641e-004
3.996836e-005,2.033302e-004
3.688912e-005,1.769136e-004
5.244739e-005,1.600588e-004
8.956035e-005,1.516314e-004
1.430419e-004,1.467694e-004
2.064095e-004,1.388282e-004
2.749631e-004,1.219734e-004
3.326584e-004,9.701536e-005
3.546993e-004,6.816773e-005
3.302274e-004,4.207521e-005
2.710735e-004,2.586868e-005
2.145127e-004,2.181705e-005
1.966855e-004,2.522042e-005
2.346088e-004,2.894792e-005
3.171001e-004,2.359977e-005
4.159599e-004,9.662150e-006
4.990995e-004,-5.409925e-006
5.399400e-004,-1.513384e-005
5.203301e-004,-1.448558e-005
4.321665e-004,7.485573e-007
2.833905e-004,2.797553e-005
9.701536e-005,5.860587e-005
-1.161005e-004,8.388807e-005
-3.758912e-004,1.049566e-004
-6.924047e-004,1.240803e-004
-1.037280e-003,1.381799e-004
-1.358655e-003,1.469315e-004
-1.586357e-003,1.492004e-004
-1.633194e-003,1.453108e-004
-1.447143e-003,1.367214e-004
-1.061103e-003,1.265113e-004
-5.718281e-004,1.163011e-004
-8.044616e-005,1.085220e-004
3.331445e-004,1.017153e-004
6.214589e-004,9.199134e-005
7.681281e-004,7.335382e-005
7.810934e-004,4.596478e-005
6.893643e-004,1.290346e-005
5.271368e-004,-1.886135e-005
3.277964e-004,-4.349527e-005
1.294284e-004,-5.646050e-005
-2.356124e-005,-5.953974e-005
-9.584237e-005,-5.889147e-005
-8.077029e-005,-6.245691e-005
-1.092015e-005,-7.979790e-005
5.795762e-005,-1.112386e-004
7.837785e-005,-1.477033e-004
3.932010e-005,-1.801163e-004
-3.863331e-005,-1.981056e-004
-1.118868e-004,-1.948643e-004
-1.310105e-004,-1.695821e-004
-6.132245e-005,-1.298761e-004
9.361198e-005,-8.595638e-005
2.976522e-004,-4.770897e-005
4.948858e-004,-2.210265e-005
6.405826e-004,-7.516774e-006
7.141603e-004,-7.100305e-007
7.195084e-004,1.072688e-006
6.788300e-004,1.234753e-006
6.177314e-004,3.989864e-006
5.517707e-004,1.193106e-005
4.887274e-004,2.781346e-005
4.187151e-004,4.742337e-005
3.161277e-004,6.638501e-005
1.725378e-004,8.048469e-005
2.003433e-005,8.939829e-005
-9.211487e-005,9.361198e-005
-1.441378e-004,9.426025e-005
-1.708786e-004,9.231547e-005
-2.348944e-004,9.118101e-005
-3.642225e-004,8.988448e-005
-5.274222e-004,8.372600e-005
-6.608019e-004,6.897806e-005
-7.167145e-004,5.163707e-005
-6.870566e-004,4.077869e-005
-5.962999e-004,3.462021e-005
-4.800992e-004,2.813760e-005
-3.643846e-004,1.841368e-005
-2.660109e-004,8.203561e-006
-1.964849e-004,1.072688e-006
-1.585616e-004,3.341602e-006
-1.436516e-004,1.808955e-005
-1.378173e-004,4.061663e-005
-1.224211e-004,6.346784e-005
-8.320127e-005,7.789165e-005
-1.772689e-005,7.643306e-005
6.541262e-005,5.909207e-005
1.543865e-004,3.024445e-005
2.389846e-004,-7.100305e-007
3.132105e-004,-2.599222e-005
3.775505e-004,-4.057810e-005
4.376767e-004,-4.138842e-005
4.956961e-004,-2.420950e-005
5.452881e-004,9.500084e-006
5.757564e-004,5.568870e-005
5.828873e-004,1.044704e-004
5.665187e-004,1.461212e-004
5.264885e-004,1.697827e-004
4.553419e-004,1.709171e-004
3.357376e-004,1.493625e-004
1.321835e-004,1.107909e-004
-1.601823e-004,6.233338e-005
-4.807474e-004,1.306552e-005
-7.366485e-004,-2.939559e-005
-8.593319e-004,-6.456376e-005
-8.346980e-004,-9.551824e-005
-6.948357e-004,-1.295519e-004
-4.992229e-004,-1.637477e-004
-3.120375e-004,-1.921091e-004
-1.786577e-004,-2.031296e-004
-1.067007e-004,-1.880575e-004
-8.012203e-005,-1.478653e-004
-7.542214e-005,-9.243900e-005
-7.477388e-005,-3.863331e-005
-6.456376e-005,1.072688e-006
-3.895744e-005,2.019640e-005
7.393235e-006,2.068259e-005
7.157111e-005,8.203561e-006
1.410971e-004,-1.367526e-005
1.970097e-004,-4.365734e-005
2.297469e-004,-7.947377e-005
2.404432e-004,-1.159385e-004
2.396328e-004,-1.399241e-004
2.370398e-004,-1.434896e-004
2.401191e-004,-1.272830e-004
2.556773e-004,-9.665269e-005
2.867939e-004,-6.148453e-005
3.290929e-004,-2.761287e-005
3.710678e-004,4.800190e-006
4.062360e-004,4.272347e-005
4.279528e-004,9.231547e-005
4.344354e-004,1.526038e-004
4.119083e-004,2.164575e-004
3.433547e-004,2.725321e-004
2.234263e-004,3.146691e-004
7.529860e-005,3.349273e-004
-6.375343e-005,3.384927e-004
-1.648822e-004,3.346032e-004
-2.180396e-004,3.295791e-004
-2.258187e-004,3.253654e-004
-2.081536e-004,3.198552e-004
-1.878955e-004,3.036486e-004
-1.762267e-004,2.696149e-004
-1.689338e-004,2.185644e-004
-1.616409e-004,1.582760e-004
-1.527273e-004,1.012291e-004
-1.436516e-004,5.909207e-005
-1.321450e-004,3.656499e-005
-1.133454e-004,3.267542e-005
-8.368747e-005,4.223728e-005
-4.365734e-005,5.504044e-005
1.002961e-007,6.087479e-005
4.158902e-005,5.585077e-005
7.481241e-005,3.737532e-005
9.928427e-005,4.800190e-006
1.198666e-004,-3.782299e-005
1.360731e-004,-8.060822e-005
1.394765e-004,-1.092938e-004
1.218114e-004,-1.167488e-004
8.956035e-005,-1.031353e-004
6.914012e-005,-7.477388e-005
8.810177e-005,-4.317114e-005
1.516314e-004,-2.145439e-005
2.383363e-004,-1.173047e-005
3.135346e-004,-1.108221e-005
3.540510e-004,-1.286493e-005
3.545372e-004,-1.221667e-005
3.208276e-004,-7.192643e-006
2.563256e-004,-2.006553e-006
1.564933e-004,-1.844488e-006
1.549650e-005,-8.975361e-006
-1.447861e-004,-1.999580e-005
-2.846484e-004,-3.036798e-005
-3.690844e-004,-3.198863e-005
-3.929080e-004,-1.788895e-005
-3.906391e-004,9.175954e-006
-4.049009e-004,3.721326e-005
-4.518998e-004,5.115087e-005
-5.147811e-004,5.066468e-005
-5.520561e-004,4.434413e-005
-5.121881e-004,4.499239e-005
-3.734602e-004,5.423011e-005
-1.645580e-004,6.768153e-005
5.649903e-005,7.659513e-005
2.394708e-004,7.108490e-005
3.650714e-004,4.693717e-005
4.402698e-004,8.527692e-006
4.809482e-004,-3.085418e-005
4.995857e-004,-5.727082e-005
5.052580e-004,-6.326724e-005
4.995857e-004,-5.224680e-005
4.830550e-004,-3.668853e-005
4.545315e-004,-2.988179e-005
4.119083e-004,-3.928157e-005
3.517821e-004,-5.856734e-005
2.709115e-004,-7.363942e-005
1.715654e-004,-7.282909e-005
6.687120e-005,-5.030201e-005
-2.518189e-005,-9.623623e-006
-8.676671e-005,3.737532e-005
-9.956987e-005,7.902610e-005
-5.759496e-005,1.064151e-004
3.478227e-005,1.154908e-004
1.649207e-004,1.086841e-004
3.070520e-004,9.215340e-005
4.211461e-004,7.319175e-005
4.721966e-004,5.601283e-005
4.446455e-004,3.656499e-005
3.410858e-004,7.069104e-006
1.793446e-004,-3.571614e-005
-1.545797e-005,-8.060822e-005
-2.154466e-004,-1.126972e-004
-3.864254e-004,-1.214487e-004
-4.946851e-004,-1.045939e-004
-5.144570e-004,-7.056018e-005
-4.352071e-004,-3.053005e-005
-2.830278e-004,-2.330684e-006
-1.156143e-004,-2.238345e-007
1.452411e-005,-2.388537e-005
8.858796e-005,-6.197072e-005
1.112771e-004,-1.015147e-004
1.106288e-004,-1.313347e-004
1.179218e-004,-1.425172e-004
1.524417e-004,-1.323070e-004
2.122438e-004,-1.045939e-004
2.757734e-004,-7.007398e-005
3.295791e-004,-3.571614e-005
3.744712e-004,-3.303075e-006
4.151496e-004,2.457216e-005
4.508040e-004,4.483032e-005
4.741414e-004,5.633696e-005
4.783551e-004,5.990240e-005
4.593935e-004,5.779555e-005
4.136910e-004,5.309565e-005
3.342790e-004,5.131293e-005
2.195368e-004,5.471631e-005
8.129502e-005,6.152305e-005
-6.213279e-005,7.027457e-005
-1.901644e-004,7.805372e-005
-2.872415e-004,8.696730e-005
-3.462333e-004,1.004187e-004
-3.660052e-004,1.195424e-004
-3.509331e-004,1.362352e-004
-3.118754e-004,1.446626e-004
-2.543422e-004,1.477418e-004
-1.835197e-004,1.482280e-004
-1.062145e-004,1.493625e-004
-3.717472e-005,1.534141e-004
9.338019e-006,1.574657e-004
2.424803e-005,1.587622e-004
2.207145e-006,1.579519e-004
-5.370539e-005,1.590864e-004
-1.374931e-004,1.652449e-004
-2.545043e-004,1.783722e-004
-4.410414e-004,1.931201e-004
-7.372968e-004,2.028440e-004
-1.128360e-003,2.013854e-004
-1.533199e-003,1.887443e-004
-1.841286e-003,1.673517e-004
-1.945656e-003,1.441764e-004
-1.797204e-003,1.237561e-004
-1.442281e-003,1.062531e-004
-9.849325e-004,8.842590e-005
-5.225603e-004,6.978838e-005
-1.141557e-004,5.309565e-005
2.002510e-004,3.899597e-005
3.765781e-004,2.376183e-005
3.756057e-004,6.258778e-006
2.044647e-004,-1.173047e-005
-5.889147e-005,-2.534396e-005
-3.005308e-004,-2.874733e-005
-4.389346e-004,-1.853721e-005
-4.551411e-004,1.072688e-006
-3.786463e-004,1.889987e-005
-2.575835e-004,2.278944e-005
-1.311726e-004,1.176900e-005
-2.307504e-005,-1.358292e-006
6.362990e-005,-3.858999e-007
1.349386e-004,2.667901e-005
1.950649e-004,7.740545e-005
2.441707e-004,1.367214e-004
2.833905e-004,1.835582e-004
3.172621e-004,2.073818e-004
3.576164e-004,2.146748e-004
4.138531e-004,2.101370e-004
4.773827e-004,1.978200e-004
5.250300e-004,1.773998e-004
5.362125e-004,1.501728e-004
5.169267e-004,1.141943e-004
4.992615e-004,7.465034e-005
5.238955e-004,4.564065e-005
6.136798e-004,3.607880e-005
7.475458e-004,3.899597e-005
8.694190e-004,3.883391e-005
9.284109e-004,2.619281e-005
9.036148e-004,-2.238345e-007
8.028101e-004,-4.057810e-005
6.532237e-004,-9.081834e-005
4.851619e-004,-1.410586e-004
3.187208e-004,-1.801163e-004
1.517934e-004,-2.034537e-004
-1.237873e-005,-2.123673e-004
-1.541859e-004,-2.146362e-004
-2.407287e-004,-2.172293e-004
-2.515871e-004,-2.259808e-004
-1.900023e-004,-2.392702e-004
-7.914964e-005,-2.502906e-004
5.390598e-005,-2.530457e-004
1.889064e-004,-2.428356e-004
3.154794e-004,-2.209568e-004
4.264942e-004,-1.945401e-004
5.209784e-004,-1.724992e-004
6.050903e-004,-1.567789e-004
6.896884e-004,-1.420310e-004
7.749348e-004,-1.220969e-004
8.519160e-004,-9.568031e-005
9.088010e-004,-6.764300e-005
9.373245e-004,-4.625038e-005
9.207938e-004,-4.560212e-005
8.287406e-004,-1.005423e-004
6.399344e-004,-2.371633e-004
3.869503e-004,-4.373140e-004
1.423936e-004,-6.413541e-004
-3.296103e-005,-7.740856e-004
-1.209625e-004,-7.870508e-004
-1.349001e-004,-6.821946e-004
-1.021629e-004,-5.005194e-004
-4.430560e-005,-2.995584e-004
2.165498e-005,-1.274451e-004
8.469840e-005,-9.299492e-006
1.312111e-004,5.293359e-005
1.524417e-004,6.832980e-005
1.440143e-004,4.191315e-005
1.046324e-004,-5.808115e-005
3.721326e-005,-2.898345e-004
-5.548810e-005,-6.646915e-004
-1.656925e-004,-1.107616e-003
-2.822175e-004,-1.482959e-003
-3.801049e-004,-1.663662e-003
-4.347209e-004,-1.593650e-003
-4.413656e-004,-1.307605e-003
-4.154351e-004,-8.927173e-004
-3.839945e-004,-4.394208e-004
-3.695707e-004,-1.740276e-005
-3.737843e-004,3.452995e-004
-3.883702e-004,6.598684e-004
-4.037664e-004,9.572585e-004
-4.099249e-004,1.270693e-003
-4.016596e-004,1.620107e-003
-3.799428e-004,1.999827e-003
-3.499608e-004,2.374848e-003
-3.209511e-004,2.688770e-003
-2.945344e-004,2.891677e-003
-2.684419e-004,2.961203e-003
-2.382978e-004,2.903994e-003
-2.042640e-004,2.751976e-003
-1.653684e-004,2.552634e-003
-1.164247e-004,2.348269e-003
-5.710876e-005,2.159138e-003
8.527692e-006,1.987348e-003
7.254349e-005,1.822851e-003
1.263492e-004,1.647334e-003
1.605450e-004,1.445562e-003
1.709171e-004,1.212836e-003
1.587622e-004,9.592033e-004
1.323456e-004,7.016812e-004
1.072255e-004,4.603659e-004
9.393611e-005,2.470879e-004
9.166720e-005,6.832980e-005
9.474644e-005,-7.169464e-005
1.007429e-004,-1.752544e-004
1.137081e-004,-2.523974e-004
1.368834e-004,-3.259751e-004
1.579519e-004,-4.206212e-004
1.550348e-004,-5.507596e-004
1.221355e-004,-7.097456e-004
7.513654e-005,-8.829935e-004
3.543053e-005,-1.049110e-003
1.419998e-005,-1.184921e-003
1.193106e-005,-1.270654e-003
2.230324e-005,-1.302905e-003
3.526847e-005,-1.292046e-003
4.013043e-005,-1.254447e-003
2.927205e-005,-1.208420e-003
2.623614e-007,-1.164663e-003
-3.976777e-005,-1.129495e-003
-7.979790e-005,-1.104699e-003
-1.049180e-004,-1.087844e-003
-1.057284e-004,-1.073420e-003
-8.206682e-005,-1.054945e-003
-4.851930e-005,-1.031607e-003
-2.096819e-005,-1.001139e-003
-5.479652e-007,-9.624055e-004
2.651694e-005,-9.173513e-004
6.930219e-005,-8.667869e-004
1.180839e-004,-8.105503e-004
1.440143e-004,-7.526929e-004
1.177597e-004,-6.982390e-004
2.457216e-005,-6.517263e-004
-1.279313e-004,-6.095893e-004
-3.175477e-004,-5.674524e-004
-5.089468e-004,-5.230465e-004
-6.593434e-004,-4.792888e-004
-7.415105e-004,-4.382863e-004
-7.520447e-004,-4.013354e-004
-7.266005e-004,-3.660052e-004
-7.210902e-004,-3.303509e-004
-7.706822e-004,-2.901587e-004
-8.661386e-004,-2.485079e-004
-9.620813e-004,-2.133397e-004
-1.011673e-003,-1.903264e-004
-9.875256e-004,-1.776853e-004
-8.935277e-004,-1.700683e-004
-7.522067e-004,-1.661787e-004
-5.901415e-004,-1.652063e-004
-4.198109e-004,-1.600202e-004
-2.481837e-004,-1.454343e-004
-7.850138e-005,-1.246900e-004
8.421220e-005,-1.089697e-004
2.399570e-004,-1.020008e-004
3.939191e-004,-9.843541e-005
5.610085e-004,-9.098041e-005
7.460872e-004,-7.898758e-005
9.370003e-004,-6.229485e-005
1.115597e-003,-4.511592e-005
1.259835e-003,-2.971972e-005
1.353185e-003,-1.756482e-005
1.397753e-003,-4.599598e-006
1.416390e-003,1.533444e-005
1.432111e-003,4.790957e-005
1.448965e-003,9.150514e-005
1.445562e-003,1.445005e-004
1.392729e-003,1.987924e-004
1.272152e-003,2.474120e-004
1.085452e-003,2.859835e-004
8.559676e-004,3.088348e-004
6.204865e-004,3.109416e-004
4.132048e-004,2.995970e-004
2.522740e-004,2.827422e-004
1.414213e-004,2.665357e-004
7.157111e-005,2.545429e-004
2.311357e-005,2.517877e-004
-2.064406e-005,2.615117e-004
-6.245691e-005,2.770700e-004
-9.162867e-005,2.905214e-004
-9.794922e-005,2.927903e-004
-8.595638e-005,2.783665e-004
-7.769105e-005,2.436845e-004
-1.029732e-004,1.671896e-004
-1.699062e-004,2.693341e-006
-2.605007e-004,-2.686040e-004
-3.347266e-004,-5.974344e-004
-3.483401e-004,-8.851003e-004
-2.658489e-004,-1.034200e-003
-8.271508e-005,-9.940082e-004
1.639483e-004,-7.770028e-004
4.162841e-004,-4.450931e-004
6.201623e-004,-7.688072e-005
7.373357e-004,2.590807e-004
7.562974e-004,5.217887e-004
6.951987e-004,7.086501e-004
5.896941e-004,8.441368e-004
4.715484e-004,9.619584e-004
3.538889e-004,1.084966e-003
2.331502e-004,1.217698e-003
9.150514e-005,1.340381e-003
-8.611845e-005,1.426276e-003
-2.968033e-004,1.455610e-003
-5.105674e-004,1.420442e-003
-6.805739e-004,1.322392e-003
-7.757063e-004,1.175561e-003
-7.985575e-004,1.003933e-003
-7.781372e-004,8.384645e-004
-7.491275e-004,7.034640e-004
-7.337313e-004,6.114109e-004
-7.400519e-004,5.634395e-004
-7.752200e-004,5.482053e-004
-8.479874e-004,5.503122e-004
-9.588400e-004,5.486915e-004
-1.083306e-003,5.013684e-004
-1.183787e-003,3.691231e-004
-1.240671e-003,1.503348e-004
-1.258012e-003,-1.029732e-004
-1.239699e-003,-3.096065e-004
-1.170173e-003,-4.091146e-004
-1.029501e-003,-3.833462e-004
-8.248120e-004,-2.663351e-004
-5.865761e-004,-1.152902e-004
-3.438023e-004,9.986280e-006
-1.156143e-004,7.594687e-005
7.999850e-005,7.886404e-005
2.321778e-004,3.818564e-005
3.360618e-004,-6.058186e-006
3.841952e-004,-8.002969e-006
3.401134e-004,5.244739e-005
1.618415e-004,1.620035e-004
-1.420310e-004,2.804733e-004
-5.000332e-004,3.691231e-004
-8.035815e-004,4.096394e-004
-9.471713e-004,4.010499e-004
-8.805625e-004,3.527545e-004
-6.405438e-004,2.846870e-004
-3.211131e-004,2.213195e-004
-3.951337e-006,1.838824e-004
2.754493e-004,1.824238e-004
5.088234e-004,2.154851e-004
6.872574e-004,2.631323e-004
7.775279e-004,2.978143e-004
7.378219e-004,2.999211e-004
5.699221e-004,2.608634e-004
3.397892e-004,1.889064e-004
1.355869e-004,1.041462e-004
1.193106e-005,2.457216e-005
-2.761287e-005,-4.187462e-005
-9.947754e-006,-9.713889e-005
3.186510e-005,-1.478653e-004
8.129502e-005,-2.026434e-004
1.320215e-004,-2.621213e-004
1.746447e-004,-3.220855e-004
2.119197e-004,-3.771877e-004
2.555152e-004,-4.233763e-004
3.138588e-004,-4.582204e-004
3.822504e-004,-4.822060e-004
4.417284e-004,-5.026262e-004
4.705760e-004,-5.219121e-004
4.658761e-004,-5.382806e-004
4.464283e-004,-5.514079e-004
4.367043e-004,-5.595111e-004
4.485351e-004,-5.557836e-004
4.773827e-004,-5.360117e-004
5.021787e-004,-5.070020e-004
5.021787e-004,-4.763717e-004
4.715484e-004,-4.481723e-004
4.201737e-004,-4.232143e-004
3.666921e-004,-3.964735e-004
3.311998e-004,-3.627639e-004
3.227724e-004,-3.220855e-004
3.352514e-004,-2.768693e-004
3.501614e-004,-2.264670e-004
3.511338e-004,-1.716889e-004
3.346032e-004,-1.177212e-004
3.158036e-004,-7.104637e-005
3.098072e-004,-4.349527e-005
3.219621e-004,-3.847125e-005
3.483787e-004,-5.435365e-005
3.757677e-004,-8.498399e-005
3.926225e-004,-1.186936e-004
3.895433e-004,-1.431654e-004
3.686369e-004,-1.548341e-004
3.370341e-004,-1.585616e-004
3.017039e-004,-1.572651e-004
2.702632e-004,-1.530514e-004
2.461155e-004,-1.514308e-004
2.312054e-004,-1.528894e-004
2.229401e-004,-1.572651e-004
2.208333e-004,-1.611547e-004
2.299089e-004,-1.621271e-004
2.574600e-004,-1.579134e-004
2.976522e-004,-1.488377e-004
3.294171e-004,-1.361966e-004
3.286067e-004,-1.203142e-004
2.809595e-004,-1.013526e-004
1.884202e-004,-7.866345e-005
7.789165e-005,-5.062615e-005
-1.351319e-005,-2.307504e-005
-6.164659e-005,-3.141010e-006
-7.412562e-005,8.689757e-006
-8.028410e-005,1.355172e-005
-1.084835e-004,1.630683e-005
-1.665028e-004,1.825161e-005
-2.413770e-004,1.808955e-005
-3.105789e-004,1.128280e-005
-3.538503e-004,-1.844488e-006
-3.577399e-004,-1.562004e-005
-3.151167e-004,-2.291298e-005
-2.378116e-004,-2.145439e-005
-1.441378e-004,-1.416145e-005
-5.192267e-005,-6.544382e-006
2.829966e-005,6.096713e-006
9.717742e-005,2.635488e-005
1.560071e-004,5.682316e-005
2.073818e-004,9.701536e-005
2.542187e-004,1.407730e-004
2.885766e-004,1.780480e-004
2.960316e-004,2.052750e-004
2.696149e-004,2.205091e-004
2.124059e-004,2.255332e-004
1.435281e-004,2.247228e-004
8.583285e-005,2.208333e-004
6.087479e-005,2.133783e-004
7.999850e-005,2.049509e-004
1.342904e-004,2.018716e-004
1.910132e-004,2.039785e-004
2.211574e-004,2.057612e-004
2.091646e-004,2.034923e-004
1.579519e-004,1.949028e-004
8.388807e-005,1.782101e-004
8.203561e-006,1.558451e-004
-4.932962e-005,1.307249e-004
-7.785312e-005,1.039842e-004
-7.801519e-005,8.145709e-005
-7.056018e-005,7.108490e-005
-7.704279e-005,7.140904e-005
-1.065387e-004,7.837785e-005
-1.592099e-004,8.810177e-005
-2.340841e-004,9.685329e-005
-3.126857e-004,1.039842e-004
-3.775118e-004,1.140322e-004
-4.178661e-004,1.292664e-004
-4.334243e-004,1.456350e-004
-4.256452e-004,1.555209e-004
-4.000389e-004,1.584381e-004
-3.677879e-004,1.616794e-004
-3.373197e-004,1.726999e-004
-3.162512e-004,1.927960e-004
-3.060411e-004,2.148369e-004
-3.047445e-004,2.289365e-004
-3.060411e-004,2.323399e-004
-3.094444e-004,2.289365e-004
-3.206269e-004,2.226160e-004
-3.446126e-004,2.151610e-004
-3.703810e-004,2.083542e-004
-3.857772e-004,2.005751e-004
-3.878840e-004,1.906891e-004
-3.844807e-004,1.778859e-004
-3.797808e-004,1.641104e-004
-3.690844e-004,1.470936e-004
-3.478539e-004,1.247285e-004
-3.139823e-004,9.150514e-005
-2.609869e-004,4.677511e-005
-1.815749e-004,-3.141010e-006
-7.234290e-005,-4.819516e-005
6.541262e-005,-8.190475e-005
2.154851e-004,-1.011905e-004
3.516200e-004,-1.096179e-004
4.514523e-004,-1.114006e-004
4.979650e-004,-1.139937e-004
4.939134e-004,-1.233935e-004
4.611762e-004,-1.397621e-004
4.164462e-004,-1.595340e-004
3.662059e-004,-1.765509e-004
3.117519e-004,-1.869231e-004
2.558394e-004,-1.838438e-004
2.030061e-004,-1.639098e-004
1.532520e-004,-1.251762e-004
8.858796e-005,-6.942573e-005
-8.975361e-006,-7.678839e-006
-1.366828e-004,4.888196e-005
-2.648765e-004,9.312579e-005
-3.512573e-004,1.253768e-004
-3.745946e-004,1.516314e-004
-3.361852e-004,1.795066e-004
-2.595283e-004,2.086784e-004
-1.861127e-004,2.360674e-004
-1.535376e-004,2.581083e-004
-1.827094e-004,2.678322e-004
-2.830278e-004,2.600531e-004
-4.535204e-004,2.367157e-004
-6.679328e-004,2.088404e-004
-8.690558e-004,1.927960e-004
-9.925496e-004,1.976579e-004
-9.985460e-004,2.192126e-004
-8.883416e-004,2.459534e-004
-6.924047e-004,2.603772e-004
-4.538446e-004,2.529222e-004
-2.047502e-004,2.231022e-004
3.769945e-005,1.738343e-004
2.683184e-004,1.107909e-004
4.849998e-004,4.126489e-005
6.768852e-004,-2.129233e-005
8.274441e-004,-6.326724e-005
9.245212e-004,-7.671866e-005
9.653618e-004,-6.569822e-005
9.603378e-004,-4.284701e-005
9.335970e-004,-1.399939e-005
9.037769e-004,1.906194e-005
8.752534e-004,5.179913e-005
8.334405e-004,7.578480e-005
7.655350e-004,8.194328e-005
6.684579e-004,6.508849e-005
5.550120e-004,3.202716e-005
4.548556e-004,-7.678839e-006
3.888950e-004,-4.560212e-005
3.579406e-004,-7.088431e-005
3.491890e-004,-7.574627e-005
3.529165e-004,-6.521203e-005
3.589129e-004,-4.819516e-005
3.657197e-004,-3.004385e-005
3.764160e-004,-1.691656e-005
3.871123e-004,-1.140634e-005
3.924605e-004,-7.840905e-006
3.856537e-004,-5.479652e-007
3.618301e-004,1.014835e-005
3.205035e-004,1.906194e-005
2.668598e-004,2.084466e-005
2.051129e-004,1.468617e-005
1.273216e-004,6.096713e-006
1.873781e-005,-1.682422e-006
-1.162626e-004,-7.192643e-006
-2.512630e-004,-1.237873e-005
-3.386162e-004,-1.724069e-005
-3.386162e-004,-2.647842e-005
-2.455907e-004,-4.738484e-005
-9.843541e-005,-8.514606e-005
3.640293e-005,-1.378173e-004
7.578480e-005,-1.917850e-004
-5.289506e-005,-2.300324e-004
-3.397506e-004,-2.425115e-004
-6.849497e-004,-2.329496e-004
-9.718052e-004,-2.122052e-004
-1.128847e-003,-1.893540e-004
-1.150887e-003,-1.639098e-004
-1.077148e-003,-1.329553e-004
-9.602986e-004,-9.892161e-005
-8.384255e-004,-6.926366e-005
-7.376209e-004,-4.997788e-005
-6.690673e-004,-4.673658e-005
-6.316302e-004,-5.532604e-005
-6.084549e-004,-6.440169e-005
-5.809038e-004,-6.310517e-005
-5.311497e-004,-4.900549e-005
-4.439586e-004,-2.988179e-005
-2.985860e-004,-1.983374e-005
-8.498399e-005,-2.615428e-005
1.884202e-004,-4.706071e-005
4.940755e-004,-7.752898e-005
7.913035e-004,-1.149661e-004
1.043477e-003,-1.520790e-004
1.219318e-003,-1.836818e-004
1.280741e-003,-2.045882e-004
1.180423e-003,-2.141500e-004
8.963219e-004,-2.094501e-004
4.686312e-004,-1.904885e-004
-7.516774e-006,-1.582375e-004
-4.131662e-004,-1.188556e-004
-6.382748e-004,-7.850138e-005
-6.303337e-004,-3.960571e-005
-4.254832e-004,-2.816880e-006
-1.303623e-004,2.797553e-005
1.359110e-004,5.147500e-005
2.777182e-004,7.270556e-005
2.611876e-004,9.539470e-005
1.247285e-004,1.171115e-004
-6.002593e-005,1.318594e-004
-2.167431e-004,1.320215e-004
-2.906448e-004,1.104668e-004
-2.664971e-004,6.995045e-005
-1.640719e-004,2.700314e-005
-1.999580e-005,4.313994e-006
1.305629e-004,1.144487e-005
2.574600e-004,3.932010e-005
3.474063e-004,6.849186e-005
3.997534e-004,8.858796e-005
4.247115e-004,9.960840e-005
4.341113e-004,1.127357e-004
4.409180e-004,1.389903e-004
4.501558e-004,1.858272e-004
4.564763e-004,2.451431e-004
4.561522e-004,3.031625e-004
4.499937e-004,3.446512e-004
4.443214e-004,3.585888e-004
4.452938e-004,3.441650e-004
4.474007e-004,3.114278e-004
4.397836e-004,2.764217e-004
4.075326e-004,2.480603e-004
3.464339e-004,2.310434e-004
2.705873e-004,2.250470e-004
1.999268e-004,2.243987e-004
1.485521e-004,2.229401e-004
1.198666e-004,2.175920e-004
1.075496e-004,2.031682e-004
1.046324e-004,1.819376e-004
1.078737e-004,1.626518e-004
1.279698e-004,1.508210e-004
1.720516e-004,1.479039e-004
2.396328e-004,1.558451e-004
3.136967e-004,1.717275e-004
3.700955e-004,1.902029e-004
3.874364e-004,2.025199e-004
3.535648e-004,2.046267e-004
2.688046e-004,1.936063e-004
1.516314e-004,1.731861e-004
3.056858e-005,1.519555e-004
-7.509801e-005,1.326697e-004
-1.627753e-004,1.109530e-004
-2.433218e-004,8.275361e-005
-3.303509e-004,5.115087e-005
-4.356933e-004,1.825161e-005
-5.559457e-004,-1.578211e-005
-6.679328e-004,-4.803310e-005
-7.436173e-004,-7.363942e-005
-7.619307e-004,-8.854943e-005
-7.314624e-004,-9.000801e-005
-6.810601e-004,-7.801519e-005
-6.424886e-004,-5.889147e-005
-6.319543e-004,-3.992984e-005
-6.454058e-004,-2.890940e-005
-6.569124e-004,-3.263690e-005
-6.382748e-004,-4.916756e-005
-5.719902e-004,-7.234290e-005
-4.543308e-004,-9.114247e-005
-3.011791e-004,-1.021629e-004
-1.439758e-004,-1.058904e-004
-1.351319e-005,-1.024870e-004
7.610893e-005,-9.827335e-005
1.224596e-004,-9.568031e-005
1.292664e-004,-9.600443e-005
1.069013e-004,-9.843541e-005
6.978838e-005,-1.003802e-004
3.218923e-005,-1.016767e-004
9.175954e-006,-1.032974e-004
1.501031e-005,-1.068628e-004
5.066468e-005,-1.079973e-004
1.166253e-004,-1.047560e-004
2.287745e-004,-9.762508e-005
3.932708e-004,-8.692878e-005
5.952043e-004,-7.088431e-005
7.870898e-004,-4.965375e-005
9.178766e-004,-2.988179e-005
9.647135e-004,-1.545797e-005
9.285729e-004,-9.461557e-006
8.332784e-004,-1.302699e-005
7.128638e-004,-2.372330e-005
5.874252e-004,-3.685059e-005
4.496696e-004,-4.949169e-005
2.858215e-004,-6.067420e-005
1.078737e-004,-7.104637e-005
-4.949169e-005,-8.028410e-005
-1.462447e-004,-8.838737e-005
-1.556445e-004,-9.503204e-005
-7.801519e-005,-1.029732e-004
4.726130e-005,-1.146419e-004
1.616794e-004,-1.327932e-004
2.216436e-004,-1.566169e-004
2.221298e-004,-1.736337e-004
1.887443e-004,-1.690959e-004
1.532520e-004,-1.378173e-004
1.320215e-004,-8.352540e-005
1.151667e-004,-1.480971e-005
8.550872e-005,5.893001e-005
3.283749e-005,1.310491e-004
-4.349527e-005,1.965235e-004
-1.340898e-004,2.513016e-004
-2.240360e-004,2.927903e-004
