-6.714982e-004,-2.842320e-005
-6.479988e-004,-3.134038e-005
-6.191512e-004,-2.712668e-005
-5.924104e-004,-1.902341e-005
-5.723143e-004,-9.137427e-006
-5.570801e-004,4.476060e-006
-5.402254e-004,2.084466e-005
-5.199672e-004,3.932010e-005
-4.976022e-004,5.601283e-005
-4.711856e-004,6.703327e-005
-4.361795e-004,7.221937e-005
-3.898288e-004,7.432621e-005
-3.342404e-004,7.886404e-005
-2.770314e-004,8.534666e-005
-2.324634e-004,9.215340e-005
-2.086398e-004,9.944633e-005
-2.065330e-004,1.044704e-004
-2.216050e-004,1.041462e-004
-2.420253e-004,9.928427e-005
-2.498044e-004,9.182927e-005
-2.347323e-004,8.405013e-005
-1.974573e-004,7.724339e-005
-1.480274e-004,7.011251e-005
-1.013526e-004,6.184718e-005
-6.699474e-005,5.212327e-005
-4.949169e-005,3.948217e-005
-4.706071e-005,2.684107e-005
-5.759496e-005,1.792748e-005
-7.623246e-005,1.533444e-005
-9.243900e-005,2.003433e-005
-9.665269e-005,2.846173e-005
-8.628051e-005,3.543053e-005
-6.197072e-005,3.915804e-005
-2.939559e-005,3.964423e-005
7.879431e-006,3.688912e-005
4.823369e-005,3.316162e-005
8.793970e-005,3.235129e-005
1.229458e-004,3.510640e-005
1.508210e-004,4.061663e-005
1.639483e-004,4.288554e-005
1.598967e-004,4.029249e-005
1.453108e-004,3.462021e-005
1.316973e-004,2.667901e-005
1.198666e-004,1.971020e-005
1.103047e-004,1.549650e-005
1.039842e-004,1.031041e-005
1.012291e-004,5.124321e-006
1.026876e-004,6.258778e-006
1.077117e-004,1.176900e-005
1.167873e-004,1.711715e-005
1.308870e-004,1.971020e-005
1.508210e-004,1.695509e-005
1.707551e-004,1.063454e-005
1.855030e-004,2.623614e-007
1.979821e-004,-1.205460e-005
2.177540e-004,-2.501983e-005
2.525981e-004,-3.733679e-005
3.008935e-004,-4.997788e-005
3.470822e-004,-6.067420e-005
3.777125e-004,-6.472583e-005
3.833848e-004,-5.775702e-005
3.683128e-004,-4.219875e-005
3.427064e-004,-2.388537e-005
3.179104e-004,-5.085794e-006
3.004074e-004,1.047248e-005
2.889007e-004,1.938607e-005
2.782044e-004,2.441009e-005
2.710735e-004,3.056858e-005
2.704253e-004,3.867184e-005
2.780423e-004,4.612685e-005
2.945730e-004,5.017848e-005
3.135346e-004,4.985435e-005
3.250413e-004,4.450619e-005
3.232586e-004,3.429608e-005
3.114278e-004,2.181705e-005
2.986246e-004,1.549650e-005
2.966798e-004,1.889987e-005
3.115899e-004,2.813760e-005
3.358997e-004,3.769945e-005
3.572923e-004,4.758544e-005
3.687989e-004,6.330577e-005
3.697713e-004,8.210535e-005
3.587509e-004,9.539470e-005
3.375203e-004,9.669123e-005
3.089968e-004,8.340186e-005
2.756114e-004,6.281957e-005
2.357433e-004,4.256141e-005
1.900409e-004,2.943412e-005
1.409351e-004,2.376183e-005
9.263960e-005,1.906194e-005
5.050261e-005,1.290346e-005
1.646889e-005,6.744974e-006
-6.544382e-006,5.286386e-006
-1.351319e-005,1.355172e-005
-5.085794e-006,2.700314e-005
1.436204e-005,3.688912e-005
3.948217e-005,3.591673e-005
6.071273e-005,2.716520e-005
6.881599e-005,1.760335e-005
5.747142e-005,1.565857e-005
2.667901e-005,2.343770e-005
-1.010982e-005,3.688912e-005
-3.134038e-005,5.066468e-005
-2.339917e-005,5.860587e-005
1.225519e-005,5.844381e-005
6.800567e-005,5.179913e-005
1.394765e-004,4.337174e-005
2.190506e-004,3.429608e-005
2.961937e-004,2.894792e-005
3.538889e-004,2.878586e-005
3.806297e-004,3.137890e-005
3.665300e-004,2.975825e-005
3.109416e-004,2.149292e-005
2.289365e-004,1.290346e-005
1.457970e-004,8.689757e-006
8.032263e-005,1.306552e-005
3.688912e-005,2.376183e-005
3.503668e-006,3.429608e-005
-3.150244e-005,3.672705e-005
-6.683268e-005,2.424803e-005
-9.341139e-005,2.045080e-006
-1.008664e-004,-1.821308e-005
-8.676671e-005,-3.036798e-005
-5.727082e-005,-3.328516e-005
-2.501983e-005,-2.712668e-005
-7.678839e-006,-1.432352e-005
-1.383732e-005,4.244267e-007
-3.620233e-005,1.144487e-005
-6.375343e-005,1.630683e-005
-8.790116e-005,1.873781e-005
-1.096179e-004,2.359977e-005
-1.305243e-004,3.445814e-005
-1.556445e-004,4.580272e-005
-1.849783e-004,4.920609e-005
-2.126914e-004,4.256141e-005
-2.355427e-004,3.154097e-005
-2.499665e-004,2.262737e-005
-2.545043e-004,1.889987e-005
-2.501285e-004,2.100672e-005
-2.402425e-004,3.040651e-005
-2.297083e-004,4.385793e-005
-2.185258e-004,5.682316e-005
-2.084778e-004,6.411610e-005
-2.013469e-004,6.379197e-005
-1.958366e-004,5.034054e-005
-1.890299e-004,2.748933e-005
-1.794681e-004,1.883015e-006
-1.694200e-004,-1.367526e-005
-1.575892e-004,-1.010982e-005
-1.386276e-004,7.393235e-006
-1.136696e-004,2.797553e-005
-8.725291e-005,4.304760e-005
-6.893953e-005,5.017848e-005
-6.521203e-005,5.115087e-005
-7.720485e-005,5.001641e-005
-1.020008e-004,4.839576e-005
-1.334415e-004,4.758544e-005
-1.611547e-004,5.050261e-005
-1.796301e-004,5.585077e-005
-1.956746e-004,6.087479e-005
-2.126914e-004,6.249544e-005
-2.301945e-004,5.828174e-005
-2.455907e-004,4.661304e-005
-2.554767e-004,3.218923e-005
-2.566112e-004,2.149292e-005
-2.457528e-004,1.873781e-005
-2.178775e-004,2.035846e-005
-1.684476e-004,2.278944e-005
-9.875954e-005,2.392390e-005
-2.534396e-005,2.684107e-005
3.121684e-005,3.462021e-005
6.152305e-005,4.726130e-005
7.059870e-005,5.990240e-005
7.675719e-005,6.719534e-005
9.782569e-005,6.946425e-005
1.508210e-004,6.930219e-005
2.483844e-004,6.525056e-005
3.809539e-004,5.876794e-005
5.123889e-004,5.568870e-005
6.055764e-004,6.136099e-005
6.481997e-004,7.189524e-005
6.472273e-004,8.064676e-005
6.122212e-004,8.113296e-005
5.375090e-004,7.189524e-005
4.063981e-004,5.844381e-005
2.310434e-004,4.547859e-005
6.573675e-005,3.591673e-005
-2.728874e-005,2.635488e-005
-1.675450e-005,1.176900e-005
9.199134e-005,-1.221667e-005
2.480603e-004,-4.592625e-005
3.765781e-004,-8.498399e-005
4.230909e-004,-1.193418e-004
3.726885e-004,-1.347380e-004
2.491947e-004,-1.308485e-004
8.648111e-005,-1.102662e-004
-8.271508e-005,-7.882551e-005
-2.198223e-004,-4.544005e-005
-2.934000e-004,-2.080613e-005
-3.036101e-004,-1.545797e-005
-2.854588e-004,-2.988179e-005
-2.937241e-004,-5.500191e-005
-3.575778e-004,-8.044616e-005
-4.554653e-004,-1.028112e-004
-5.303394e-004,-1.208004e-004
-5.340669e-004,-1.271210e-004
-4.523860e-004,-1.136696e-004
-3.086341e-004,-8.028410e-005
-1.514308e-004,-3.571614e-005
-2.453363e-005,9.500084e-006
5.471631e-005,4.742337e-005
9.182927e-005,7.546067e-005
1.023635e-004,9.296372e-005
9.944633e-005,9.896014e-005
8.583285e-005,9.993253e-005
6.427816e-005,9.977046e-005
4.839576e-005,9.944633e-005
7.059870e-005,9.750155e-005
1.441764e-004,9.312579e-005
2.501671e-004,8.453633e-005
3.470822e-004,7.367795e-005
3.971604e-004,6.071273e-005
3.931088e-004,4.434413e-005
3.602095e-004,2.586868e-005
3.284447e-004,9.338019e-006
3.083486e-004,-3.465141e-006
2.845250e-004,-1.675450e-005
2.321778e-004,-3.117831e-005
1.449867e-004,-4.511592e-005
3.429608e-005,-5.743289e-005
-7.623246e-005,-6.213279e-005
-1.677994e-004,-5.257093e-005
-2.316531e-004,-2.696461e-005
-2.731418e-004,9.662150e-006
-3.130099e-004,4.953022e-005
-3.781601e-004,8.486046e-005
-4.779923e-004,1.078737e-004
-5.869002e-004,1.153287e-004
-6.590192e-004,1.081979e-004
-6.559400e-004,9.328785e-005
-5.681007e-004,7.821578e-005
-4.220798e-004,6.832980e-005
-2.611490e-004,6.573675e-005
-1.214487e-004,7.011251e-005
-2.712668e-005,8.048469e-005
1.857574e-005,9.361198e-005
2.716520e-005,1.052807e-004
1.630683e-005,1.133840e-004
2.531276e-006,1.154908e-004
-3.141010e-006,1.119254e-004
2.855406e-006,1.064151e-004
1.744128e-005,1.049566e-004
3.932010e-005,1.088461e-004
6.638501e-005,1.163011e-004
1.009049e-004,1.260251e-004
1.380179e-004,1.375317e-004
1.645966e-004,1.449867e-004
1.678379e-004,1.428798e-004
1.464453e-004,1.336421e-004
1.067393e-004,1.257009e-004
6.622294e-005,1.245665e-004
3.478227e-005,1.284560e-004
1.549650e-005,1.346145e-004
2.369210e-006,1.376937e-004
-1.092015e-005,1.362352e-004
-2.275091e-005,1.310491e-004
-2.420950e-005,1.200286e-004
-1.189254e-005,1.072255e-004
1.274139e-005,9.490851e-005
4.839576e-005,8.534666e-005
9.312579e-005,7.902610e-005
1.417454e-004,7.432621e-005
1.937684e-004,6.832980e-005
2.553532e-004,5.828174e-005
3.247172e-004,4.223728e-005
3.864641e-004,2.165498e-005
4.229288e-004,-4.437533e-006
4.201737e-004,-3.247483e-005
3.723644e-004,-5.759496e-005
2.876042e-004,-7.720485e-005
1.926339e-004,-9.049421e-005
1.257009e-004,-9.811128e-005
1.114392e-004,-1.002181e-004
1.498487e-004,-9.778715e-005
2.140265e-004,-9.000801e-005
2.676701e-004,-7.671866e-005
2.688046e-004,-6.407756e-005
1.530900e-004,-5.905355e-005
-1.104282e-004,-6.294311e-005
-4.527101e-004,-6.667061e-005
-7.343796e-004,-6.342930e-005
-8.376152e-004,-5.419158e-005
-7.361623e-004,-4.511592e-005
-4.878783e-004,-3.571614e-005
-1.773612e-004,-2.469570e-005
1.276457e-004,-1.221667e-005
3.780367e-004,-6.058186e-006
5.574430e-004,-7.840905e-006
6.600305e-004,-1.237873e-005
6.896884e-004,-1.529591e-005
6.610029e-004,-1.691656e-005
5.979594e-004,-1.675450e-005
5.230852e-004,-1.092015e-005
4.414042e-004,2.623614e-007
3.452995e-004,9.338019e-006
2.295848e-004,1.419998e-005
1.056048e-004,1.565857e-005
-5.734055e-006,1.241726e-005
-8.158062e-005,2.855406e-006
-1.068628e-004,-9.785687e-006
-7.347736e-005,-1.821308e-005
2.116879e-005,-2.031993e-005
1.772377e-004,-1.545797e-005
3.804677e-004,-7.840905e-006
5.916388e-004,-3.789271e-006
7.564594e-004,-4.599598e-006
8.452713e-004,-7.192643e-006
8.583986e-004,-5.409925e-006
8.092927e-004,3.017472e-006
7.128638e-004,1.322759e-005
5.817529e-004,2.019640e-005
4.253598e-004,2.441009e-005
2.628082e-004,2.635488e-005
1.367214e-004,2.781346e-005
8.194328e-005,2.748933e-005
1.033359e-004,2.214118e-005
1.683241e-004,1.419998e-005
1.937684e-004,5.610517e-006
6.849186e-005,1.002961e-007
-2.669833e-004,1.558884e-006
-7.656582e-004,4.962256e-006
-1.299339e-003,6.258778e-006
-1.726868e-003,4.638125e-006
-1.953111e-003,1.883015e-006
-1.952625e-003,-8.720958e-007
-1.761874e-003,4.244267e-007
-1.446657e-003,8.851824e-006
-1.069855e-003,2.359977e-005
-6.666363e-004,3.802358e-005
-2.605007e-004,4.871989e-005
1.154908e-004,5.423011e-005
4.292493e-004,5.471631e-005
6.635959e-004,5.309565e-005
8.160995e-004,5.293359e-005
8.851393e-004,5.617490e-005
8.404093e-004,6.136099e-005
6.316690e-004,6.638501e-005
2.525981e-004,6.751947e-005
-2.185258e-004,6.557468e-005
-6.347094e-004,6.670914e-005
-8.496080e-004,7.270556e-005
-7.959644e-004,7.967437e-005
-5.186707e-004,8.437427e-005
-1.436516e-004,8.437427e-005
1.939304e-004,7.918817e-005
4.063981e-004,7.124698e-005
4.785172e-004,6.784360e-005
4.394594e-004,6.930219e-005
3.425443e-004,7.221937e-005
2.378501e-004,7.448828e-005
1.603829e-004,7.772959e-005
1.219734e-004,8.097089e-005
1.133840e-004,8.356393e-005
1.190562e-004,8.259154e-005
1.287802e-004,7.691926e-005
1.415833e-004,6.865393e-005
1.551968e-004,5.941620e-005
1.631380e-004,5.293359e-005
1.545486e-004,4.790957e-005
1.304008e-004,4.077869e-005
9.993253e-005,3.445814e-005
6.832980e-005,3.105477e-005
3.948217e-005,3.121684e-005
1.031041e-005,3.218923e-005
-2.031993e-005,3.283749e-005
-5.159854e-005,3.056858e-005
-7.769105e-005,2.457216e-005
-9.162867e-005,1.792748e-005
-9.033214e-005,1.144487e-005
-7.833932e-005,3.341602e-006
-6.229485e-005,-7.192643e-006
-4.625038e-005,-1.902341e-005
-3.085418e-005,-3.004385e-005
-1.545797e-005,-3.685059e-005
7.485573e-007,-3.555407e-005
2.133085e-005,-2.469570e-005
4.531652e-005,-6.706447e-006
6.670914e-005,9.986280e-006
7.562274e-005,2.052053e-005
6.525056e-005,2.278944e-005
4.158902e-005,2.100672e-005
2.359977e-005,1.760335e-005
3.186510e-005,1.533444e-005
7.351588e-005,1.776542e-005
1.388282e-004,2.392390e-005
2.004130e-004,2.813760e-005
2.258573e-004,2.878586e-005
1.976579e-004,2.603075e-005
1.065772e-004,2.522042e-005
-4.057810e-005,2.716520e-005
-2.233878e-004,2.992031e-005
-4.193247e-004,2.975825e-005
-6.058618e-004,2.667901e-005
-7.614445e-004,2.700314e-005
-8.750523e-004,3.672705e-005
-9.418231e-004,5.763348e-005
-9.648364e-004,8.453633e-005
-9.504127e-004,1.111150e-004
-9.024413e-004,1.331559e-004
-8.230293e-004,1.480659e-004
-7.095836e-004,1.600588e-004
-5.502734e-004,1.667035e-004
-3.309991e-004,1.668655e-004
-3.036798e-005,1.587622e-004
3.730126e-004,1.388282e-004
8.666639e-004,1.104668e-004
1.391594e-003,8.129502e-005
1.872443e-003,5.487837e-005
2.244547e-003,3.154097e-005
2.465280e-003,1.436204e-005
2.505797e-003,4.962256e-006
2.344217e-003,-2.238345e-007
1.981027e-003,-9.137427e-006
1.479596e-003,-2.583015e-005
9.635790e-004,-5.111234e-005
5.310263e-004,-8.222889e-005
1.658931e-004,-1.101041e-004
-2.444563e-004,-1.297140e-004
-7.463724e-004,-1.384655e-004
-1.277136e-003,-1.363587e-004
-1.756201e-003,-1.253383e-004
-2.119390e-003,-1.114006e-004
-2.310141e-003,-1.007043e-004
-2.272704e-003,-9.308726e-005
-1.981634e-003,-8.514606e-005
-1.489442e-003,-7.493595e-005
-8.851003e-004,-5.743289e-005
-2.368392e-004,-3.263690e-005
4.044533e-004,-3.465141e-006
9.886991e-004,2.667901e-005
1.465658e-003,5.050261e-005
1.782821e-003,6.525056e-005
1.901453e-003,7.173317e-005
1.816368e-003,7.416414e-005
1.573918e-003,7.546067e-005
1.251245e-003,7.529860e-005
9.172283e-004,7.302969e-005
6.177314e-004,6.946425e-005
3.681507e-004,6.557468e-005
1.733481e-004,5.909207e-005
3.283749e-005,4.612685e-005
-5.970180e-005,2.570661e-005
-1.075111e-004,2.855406e-006
-1.175591e-004,-1.513384e-005
-1.011905e-004,-2.372330e-005
-7.655659e-005,-2.453363e-005
-6.618442e-005,-2.096819e-005
-8.303921e-005,-1.529591e-005
-1.245279e-004,-1.173047e-005
-1.818990e-004,-1.513384e-005
-2.460769e-004,-2.501983e-005
-3.066893e-004,-3.458168e-005
-3.556330e-004,-3.733679e-005
-3.877220e-004,-2.858526e-005
-3.959873e-004,-1.010982e-005
-3.828600e-004,8.365628e-006
-3.617915e-004,2.214118e-005
-3.463953e-004,2.910999e-005
-3.418575e-004,3.218923e-005
-3.442885e-004,3.656499e-005
-3.442885e-004,4.661304e-005
-3.347266e-004,6.071273e-005
-3.107410e-004,7.643306e-005
-2.755728e-004,8.939829e-005
-2.392702e-004,9.296372e-005
-2.094501e-004,8.599491e-005
-1.950263e-004,7.529860e-005
-2.002124e-004,6.735740e-005
-2.241981e-004,6.492643e-005
-2.546663e-004,6.768153e-005
-2.741142e-004,7.221937e-005
-2.715212e-004,7.594687e-005
-2.491561e-004,7.805372e-005
-2.107467e-004,8.226741e-005
-1.668270e-004,8.810177e-005
-1.258244e-004,9.393611e-005
-9.373551e-005,9.555677e-005
-7.218083e-005,9.296372e-005
-5.483985e-005,8.712937e-005
-3.296103e-005,8.048469e-005
-3.858999e-007,7.384001e-005
4.142695e-005,6.622294e-005
9.182927e-005,6.217131e-005
1.399627e-004,6.119892e-005
1.694586e-004,6.006446e-005
1.714033e-004,5.925414e-005
1.474177e-004,6.249544e-005
1.085220e-004,7.189524e-005
6.411610e-005,8.518459e-005
2.311357e-005,9.474644e-005
-1.383732e-005,9.571883e-005
-4.349527e-005,8.793970e-005
-5.856734e-005,7.513654e-005
-4.511592e-005,6.460230e-005
8.689757e-006,6.022653e-005
1.012291e-004,6.136099e-005
2.167816e-004,6.978838e-005
3.169380e-004,8.048469e-005
3.619922e-004,8.567078e-005
3.303894e-004,8.356393e-005
2.362295e-004,7.837785e-005
1.124116e-004,7.059870e-005
3.341602e-006,6.249544e-005
-5.321919e-005,5.730935e-005
-3.701266e-005,5.471631e-005
5.455424e-005,5.260946e-005
2.111093e-004,4.871989e-005
4.008879e-004,4.483032e-005
5.713807e-004,4.191315e-005
6.775335e-004,4.191315e-005
7.060570e-004,4.288554e-005
6.718612e-004,4.385793e-005
5.778632e-004,4.175108e-005
3.897054e-004,3.316162e-005
8.664317e-005,1.776542e-005
-2.877277e-004,-6.176923e-008
-6.486471e-004,-1.367526e-005
-9.197823e-004,-2.080613e-005
-1.077148e-003,-2.194059e-005
-1.173739e-003,-2.113026e-005
-1.301608e-003,-2.242678e-005
-1.505648e-003,-2.858526e-005
-1.748260e-003,-3.928157e-005
-1.914863e-003,-5.581224e-005
-1.869323e-003,-7.380149e-005
-1.542113e-003,-8.887356e-005
-9.719673e-004,-9.486997e-005
-2.801106e-004,-8.790116e-005
3.853296e-004,-7.266703e-005
9.088010e-004,-5.662256e-005
1.242980e-003,-4.511592e-005
1.384950e-003,-4.138842e-005
1.363395e-003,-4.300908e-005
1.229529e-003,-4.657451e-005
1.042019e-003,-4.965375e-005
8.488367e-004,-5.143647e-005
6.849886e-004,-5.143647e-005
5.652222e-004,-5.095028e-005
4.838654e-004,-5.500191e-005
4.302217e-004,-6.537409e-005
3.932708e-004,-8.093235e-005
3.644232e-004,-9.681476e-005
3.393030e-004,-1.041077e-004
3.180725e-004,-1.015147e-004
3.020280e-004,-9.195280e-005
2.923041e-004,-8.384953e-005
2.911697e-004,-8.384953e-005
3.005694e-004,-9.243900e-005
3.154794e-004,-1.021629e-004
3.258516e-004,-1.000561e-004
3.234207e-004,-7.817725e-005
3.077003e-004,-4.284701e-005
2.900352e-004,-3.141010e-006
2.770700e-004,3.721326e-005
2.717218e-004,7.286762e-005
2.756114e-004,9.896014e-005
2.882525e-004,1.119254e-004
3.059176e-004,1.161391e-004
3.180725e-004,1.141943e-004
3.169380e-004,1.101426e-004
2.973281e-004,1.073875e-004
2.569738e-004,1.059289e-004
1.958752e-004,1.067393e-004
1.216493e-004,1.135460e-004
4.871989e-005,1.245665e-004
-6.706447e-006,1.336421e-004
-3.863331e-005,1.315353e-004
-5.111234e-005,1.163011e-004
-5.111234e-005,9.571883e-005
-4.333321e-005,7.562274e-005
-2.664048e-005,5.779555e-005
-7.354708e-006,4.742337e-005
1.355172e-005,4.612685e-005
3.624086e-005,5.082674e-005
5.763348e-005,5.682316e-005
7.221937e-005,6.525056e-005
6.314371e-005,7.821578e-005
1.889987e-005,9.199134e-005
-5.646050e-005,1.046324e-004
-1.425172e-004,1.140322e-004
-2.147983e-004,1.169494e-004
-2.525595e-004,1.122495e-004
-2.533698e-004,1.052807e-004
-2.297083e-004,1.031738e-004
-1.976194e-004,1.060910e-004
-1.629374e-004,1.083599e-004
-1.258244e-004,1.051186e-004
-8.595638e-005,9.652916e-005
-5.159854e-005,8.534666e-005
-3.020592e-005,7.724339e-005
-3.069211e-005,7.448828e-005
-5.354332e-005,7.610893e-005
-8.806324e-005,7.578480e-005
-1.151281e-004,7.043664e-005
-1.188556e-004,5.957827e-005
-9.973194e-005,4.094075e-005
-6.715681e-005,1.436204e-005
-3.069211e-005,-1.497178e-005
5.448451e-006,-3.814712e-005
3.899597e-005,-5.338126e-005
6.314371e-005,-6.083626e-005
7.076077e-005,-5.986387e-005
5.520250e-005,-4.965375e-005
1.776542e-005,-3.312309e-005
-3.522994e-005,-1.351319e-005
-9.665269e-005,3.665733e-006
-1.635857e-004,1.436204e-005
-2.232257e-004,1.873781e-005
-2.588801e-004,1.906194e-005
-2.622834e-004,1.776542e-005
-2.382978e-004,1.241726e-005
-1.945401e-004,2.531276e-006
-1.430034e-004,-5.571990e-006
-9.276313e-005,-3.465141e-006
-4.527799e-005,1.257933e-005
2.855406e-006,3.640293e-005
5.293359e-005,5.811968e-005
1.000946e-004,7.173317e-005
1.363972e-004,8.032263e-005
1.534141e-004,8.469840e-005
1.548727e-004,8.129502e-005
1.456350e-004,7.384001e-005
1.321835e-004,7.157111e-005
1.172735e-004,7.659513e-005
1.010670e-004,8.242948e-005
7.935023e-005,8.291567e-005
5.050261e-005,7.513654e-005
1.776542e-005,5.455424e-005
-1.173047e-005,1.873781e-005
-3.134038e-005,-2.955766e-005
-3.604027e-005,-8.028410e-005
-2.631635e-005,-1.191798e-004
-5.409925e-006,-1.350622e-004
2.230324e-005,-1.321450e-004
4.839576e-005,-1.246900e-004
5.666109e-005,-1.274451e-004
3.721326e-005,-1.430034e-004
-2.492749e-006,-1.621271e-004
-4.187462e-005,-1.689338e-004
-6.488790e-005,-1.559686e-004
-6.812920e-005,-1.222590e-004
-5.710876e-005,-7.607040e-005
-3.733679e-005,-2.923352e-005
-1.529591e-005,7.231170e-006
3.341602e-006,3.429608e-005
9.824214e-006,5.828174e-005
3.665733e-006,8.259154e-005
-1.237873e-005,1.083599e-004
-2.939559e-005,1.378558e-004
-3.944364e-005,1.739964e-004
-3.539201e-005,2.124059e-004
-1.869928e-005,2.425500e-004
7.231170e-006,2.572980e-004
3.380988e-005,2.535705e-004
4.807163e-005,2.329882e-004
4.823369e-005,2.002510e-004
3.867184e-005,1.624898e-004
2.538249e-005,1.240803e-004
1.533444e-005,8.875003e-005
6.907039e-006,6.006446e-005
-7.516774e-006,3.980630e-005
-3.425755e-005,3.137890e-005
-7.428768e-005,3.170303e-005
-1.246900e-004,3.462021e-005
-1.750923e-004,3.737532e-005
-2.125294e-004,4.304760e-005
-2.272773e-004,5.649903e-005
-2.178775e-004,7.497447e-005
-1.906506e-004,9.069480e-005
-1.498101e-004,9.847395e-005
-9.746302e-005,9.944633e-005
-3.928157e-005,9.798775e-005
1.744128e-005,9.928427e-005
6.654707e-005,1.057669e-004
1.028497e-004,1.180839e-004
1.260251e-004,1.276457e-004
1.404489e-004,1.289422e-004
1.509831e-004,1.222975e-004
1.584381e-004,1.090082e-004
1.636242e-004,8.875003e-005
1.642725e-004,6.314371e-005
1.611932e-004,3.624086e-005
1.513072e-004,9.824214e-006
1.313732e-004,-1.724069e-005
1.023635e-004,-4.706071e-005
6.865393e-005,-7.769105e-005
4.677511e-005,-1.032974e-004
4.839576e-005,-1.204763e-004
6.719534e-005,-1.267968e-004
8.550872e-005,-1.220969e-004
8.486046e-005,-1.126972e-004
6.136099e-005,-1.024870e-004
2.295151e-005,-9.049421e-005
-1.999580e-005,-7.931171e-005
-5.240886e-005,-6.958779e-005
-6.877746e-005,-5.840528e-005
-7.315322e-005,-4.576419e-005
-7.363942e-005,-3.474375e-005
-7.104637e-005,-2.890940e-005
-5.953974e-005,-3.409548e-005
-3.782299e-005,-5.159854e-005
-1.140634e-005,-8.222889e-005
8.203561e-006,-1.216107e-004
1.646889e-005,-1.595340e-004
2.181705e-005,-1.896782e-004
3.121684e-005,-2.092881e-004
4.434413e-005,-2.188499e-004
5.747142e-005,-2.280877e-004
7.513654e-005,-2.452666e-004
9.652916e-005,-2.810830e-004
1.172735e-004,-3.400748e-004
1.349386e-004,-4.053871e-004
1.445005e-004,-4.538446e-004
1.485521e-004,-4.731303e-004
1.556830e-004,-4.661616e-004
1.741585e-004,-4.395829e-004
2.072198e-004,-3.916115e-004
2.453051e-004,-3.149546e-004
2.718839e-004,-2.075054e-004
2.725321e-004,-7.850138e-005
2.475740e-004,4.985435e-005
2.039785e-004,1.514693e-004
1.577899e-004,1.981441e-004
1.231079e-004,1.851789e-004
1.073875e-004,1.310491e-004
1.109530e-004,6.881599e-005
1.278078e-004,2.797553e-005
1.500107e-004,2.457216e-005
1.715654e-004,6.914012e-005
1.898788e-004,1.704310e-004
2.043026e-004,3.289309e-004
2.119197e-004,5.290816e-004
2.099749e-004,7.394425e-004
1.900409e-004,9.220903e-004
1.467694e-004,1.044612e-003
8.939829e-005,1.086749e-003
3.105477e-005,1.050770e-003
-1.821308e-005,9.579068e-004
-7.104637e-005,8.323060e-004
-1.498101e-004,6.950366e-004
-2.791382e-004,5.558224e-004
-4.596789e-004,4.247115e-004
-6.525366e-004,3.106175e-004
-7.886714e-004,2.206712e-004
-8.087676e-004,1.615174e-004
-6.982390e-004,1.349386e-004
-5.076503e-004,1.346145e-004
-3.196545e-004,1.573037e-004
-2.013469e-004,1.958752e-004
-1.702303e-004,2.397949e-004
-2.011848e-004,2.760976e-004
-2.442942e-004,2.974902e-004
-2.634179e-004,2.987867e-004
-2.447804e-004,2.775562e-004
-1.924333e-004,2.409294e-004
-1.222590e-004,2.018716e-004
-5.062615e-005,1.715654e-004
1.565857e-005,1.534141e-004
7.400208e-005,1.415833e-004
1.269974e-004,1.313732e-004
1.655690e-004,1.116012e-004
1.715654e-004,7.627100e-005
1.373696e-004,2.716520e-005
6.930219e-005,-2.534396e-005
-1.562004e-005,-7.039811e-005
-9.389758e-005,-9.989400e-005
-1.399241e-004,-1.146419e-004
-1.407345e-004,-1.191798e-004
-9.843541e-005,-1.185315e-004
-3.069211e-005,-1.182074e-004
4.175108e-005,-1.242038e-004
1.094944e-004,-1.417068e-004
1.741585e-004,-1.720131e-004
2.373639e-004,-2.136638e-004
2.931144e-004,-2.601766e-004
3.365479e-004,-3.042583e-004
3.681507e-004,-3.408851e-004
3.869503e-004,-3.677879e-004
3.892192e-004,-3.882081e-004
3.687989e-004,-4.089525e-004
3.281205e-004,-4.301830e-004
2.723700e-004,-4.491447e-004
2.132162e-004,-4.577342e-004
1.602208e-004,-4.514136e-004
1.193804e-004,-4.343967e-004
8.437427e-005,-4.117076e-004
5.179913e-005,-3.852910e-004
2.246531e-005,-3.559572e-004
-7.030578e-006,-3.280819e-004
-3.879538e-005,-3.018273e-004
-6.812920e-005,-2.752486e-004
-8.401160e-005,-2.488320e-004
-8.352540e-005,-2.240360e-004
-7.526008e-005,-2.026434e-004
-6.602235e-005,-1.843300e-004
-6.375343e-005,-1.679614e-004
-7.282909e-005,-1.530514e-004
-9.065627e-005,-1.391138e-004
-1.041077e-004,-1.238797e-004
-1.000561e-004,-1.096179e-004
-7.315322e-005,-9.778715e-005
-2.356124e-005,-9.000801e-005
6.119892e-005,-9.049421e-005
1.908512e-004,-1.050801e-004
3.647473e-004,-1.436516e-004
5.626291e-004,-2.031296e-004
7.468975e-004,-2.703867e-004
8.744430e-004,-3.214373e-004
9.107458e-004,-3.318094e-004
8.417058e-004,-2.955068e-004
6.859609e-004,-2.254946e-004
4.905100e-004,-1.451102e-004
2.739907e-004,-7.347736e-005
1.883015e-006,-1.578211e-005
-3.233821e-004,2.635488e-005
-5.997033e-004,5.682316e-005
-6.953219e-004,7.675719e-005
-5.522182e-004,8.534666e-005
-2.274394e-004,8.502253e-005
1.407730e-004,8.664317e-005
4.156358e-004,9.782569e-005
5.295678e-004,1.201907e-004
4.934272e-004,1.472556e-004
3.772264e-004,1.668655e-004
2.825802e-004,1.715654e-004
2.897111e-004,1.564933e-004
4.153117e-004,1.219734e-004
6.201623e-004,7.367795e-005
8.298751e-004,2.651694e-005
9.671445e-004,-1.221667e-005
9.802718e-004,-3.879538e-005
8.595330e-004,-4.851930e-005
6.355586e-004,-4.333321e-005
3.660438e-004,-3.215070e-005
1.130598e-004,-1.724069e-005
-7.542214e-005,8.041497e-006
-1.804405e-004,5.017848e-005
-2.194982e-004,1.041462e-004
-2.233878e-004,1.592484e-004
-2.164190e-004,2.047888e-004
-2.112329e-004,2.362295e-004
-2.214430e-004,2.564876e-004
-2.596904e-004,2.720459e-004
-3.262992e-004,2.809595e-004
-4.049009e-004,2.864697e-004
-4.698891e-004,2.919800e-004
-4.961436e-004,3.017039e-004
-4.724821e-004,3.111037e-004
-4.063595e-004,3.083486e-004
-3.172235e-004,2.892249e-004
-2.293842e-004,2.594048e-004
-1.637477e-004,2.205091e-004
-1.276072e-004,1.581140e-004
-1.203142e-004,5.925414e-005
-1.349001e-004,-6.731887e-005
-1.626133e-004,-1.833576e-004
-1.956746e-004,-2.451045e-004
-2.264670e-004,-2.284118e-004
-2.472113e-004,-1.389517e-004
-2.569353e-004,-1.286493e-005
-2.613110e-004,9.831188e-005
-2.653627e-004,1.500107e-004
-2.702246e-004,1.226217e-004
-2.702246e-004,2.457216e-005
-2.617972e-004,-1.162626e-004
-2.502906e-004,-2.677937e-004
-2.481837e-004,-3.963114e-004
-2.733039e-004,-4.724821e-004
-3.416954e-004,-4.781544e-004
-4.507653e-004,-4.091146e-004
-5.702075e-004,-2.773555e-004
-6.526987e-004,-1.094559e-004
-6.616123e-004,6.881599e-005
-5.909518e-004,2.397949e-004
-4.672960e-004,3.911640e-004
-3.342404e-004,5.131992e-004
-2.310048e-004,6.016869e-004
-1.765509e-004,6.629477e-004
-1.632615e-004,7.044364e-004
-1.582375e-004,7.337703e-004
-1.300381e-004,7.613213e-004
-6.845333e-005,7.981102e-004
1.387585e-005,8.473782e-004
9.247753e-005,9.086389e-004
1.529279e-004,9.718444e-004
1.934442e-004,1.027109e-003
2.206712e-004,1.061629e-003
2.368777e-004,1.076053e-003
2.386605e-004,1.078159e-003
2.205091e-004,1.071029e-003
1.880961e-004,1.053039e-003
1.506590e-004,1.018843e-003
1.104668e-004,9.728168e-004
5.909207e-005,9.238730e-004
-1.448558e-005,8.768740e-004
-1.105903e-004,8.313336e-004
-2.125294e-004,7.844967e-004
-2.956689e-004,7.365253e-004
-3.360231e-004,6.810990e-004
-3.230579e-004,6.062247e-004
-2.645523e-004,5.057441e-004
-1.851403e-004,3.888950e-004
-1.178833e-004,2.681563e-004
-8.222889e-005,1.509831e-004
-8.109442e-005,3.915804e-005
-1.039456e-004,-7.218083e-005
-1.331174e-004,-1.885437e-004
-1.468929e-004,-3.112271e-004
-1.246900e-004,-4.433104e-004
-5.419158e-005,-5.786348e-004
4.726130e-005,-7.056940e-004
1.482280e-004,-8.149261e-004
2.200230e-004,-9.016310e-004
2.509774e-004,-9.633778e-004
2.466016e-004,-1.005353e-003
2.263435e-004,-1.027880e-003
2.221298e-004,-1.030797e-003
2.686426e-004,-1.013294e-003
3.858158e-004,-9.807188e-004
5.640878e-004,-9.442541e-004
7.614834e-004,-9.111929e-004
9.264661e-004,-8.808866e-004
1.016250e-003,-8.457184e-004
1.012523e-003,-7.980713e-004
9.178766e-004,-7.360002e-004
7.488423e-004,-6.664742e-004
5.272989e-004,-5.990550e-004
2.798251e-004,-5.421702e-004
2.975825e-005,-4.966299e-004
-2.057227e-004,-4.622720e-004
-4.117076e-004,-4.360174e-004
-5.779866e-004,-4.143007e-004
-6.917564e-004,-3.984183e-004
-7.449138e-004,-3.882081e-004
-7.298418e-004,-3.804290e-004
-6.439472e-004,-3.767015e-004
-4.950092e-004,-3.760532e-004
-2.977757e-004,-3.744326e-004
-7.234290e-005,-3.708672e-004
1.576278e-004,-3.647087e-004
3.574544e-004,-3.509331e-004
4.621486e-004,-3.259751e-004
4.067222e-004,-2.872415e-004
1.769136e-004,-2.404046e-004
-1.669890e-004,-1.925954e-004
-5.094330e-004,-1.477033e-004
-7.483172e-004,-1.107524e-004
-8.283774e-004,-8.595638e-005
-7.421587e-004,-6.958779e-005
-5.340669e-004,-5.111234e-005
-2.733039e-004,-2.404744e-005
-2.955766e-005,7.879431e-006
9.101894e-005,4.045456e-005
1.549650e-005,6.735740e-005
-1.990780e-004,8.356393e-005
-4.183523e-004,8.534666e-005
-5.154294e-004,7.481241e-005
-4.245108e-004,5.649903e-005
-1.371690e-004,4.094075e-005
2.937627e-004,3.267542e-005
7.637523e-004,2.975825e-005
1.173292e-003,2.910999e-005
1.459338e-003,3.105477e-005
1.594014e-003,3.737532e-005
1.583480e-003,4.985435e-005
1.459176e-003,6.946425e-005
1.261131e-003,9.409818e-005
1.027109e-003,1.245665e-004
7.775279e-004,1.573037e-004
5.319988e-004,1.866375e-004
3.341170e-004,2.077060e-004
2.372019e-004,2.188885e-004
2.738286e-004,2.239125e-004
4.217943e-004,2.231022e-004
6.136798e-004,2.180782e-004
7.755831e-004,2.111093e-004
8.613158e-004,2.064095e-004
8.596951e-004,2.080301e-004
7.817416e-004,2.107852e-004
6.491721e-004,2.120818e-004
4.859722e-004,2.145127e-004
3.219621e-004,2.240746e-004
1.846927e-004,2.422259e-004
8.858796e-005,2.650771e-004
3.170303e-005,2.908455e-004
-2.492749e-006,3.146691e-004
-3.215070e-005,3.290929e-004
-6.391550e-005,3.303894e-004
-1.000561e-004,3.208276e-004
-1.407345e-004,3.039728e-004
-1.862748e-004,2.887386e-004
-2.339220e-004,2.814457e-004
-2.773555e-004,2.788527e-004
-3.096065e-004,2.744769e-004
-3.269475e-004,2.684805e-004
-3.222476e-004,2.603772e-004
-2.980999e-004,2.550291e-004
-2.692523e-004,2.551911e-004
-2.545043e-004,2.563256e-004
-2.592042e-004,2.501671e-004
-2.758969e-004,2.331502e-004
-2.958309e-004,2.115955e-004
-3.071755e-004,1.911753e-004
-3.065272e-004,1.738343e-004
-2.955068e-004,1.608691e-004
-2.799485e-004,1.522796e-004
-2.681178e-004,1.487142e-004
-2.598524e-004,1.490383e-004
-2.387839e-004,1.526038e-004
-1.851403e-004,1.581140e-004
-9.681476e-005,1.650828e-004
8.041497e-006,1.739964e-004
1.056048e-004,1.803169e-004
1.645966e-004,1.816135e-004
1.535762e-004,1.791825e-004
5.228533e-005,1.736723e-004
-1.417068e-004,1.610312e-004
-4.100870e-004,1.422316e-004
-7.095836e-004,1.222975e-004
-9.907669e-004,1.028497e-004
-1.213282e-003,8.615698e-005
-1.355090e-003,7.238143e-005
-1.413757e-003,6.298164e-005
-1.395282e-003,5.876794e-005
-1.315222e-003,5.633696e-005
-1.189945e-003,5.260946e-005
-1.034200e-003,4.304760e-005
-8.625732e-004,2.684107e-005
-6.933770e-004,8.365628e-006
-5.515699e-004,-6.058186e-006
-4.634064e-004,-1.124428e-005
-4.352071e-004,-3.627206e-006
-4.428242e-004,1.355172e-005
-4.507653e-004,3.332369e-005
-4.243487e-004,4.839576e-005
-3.431540e-004,5.504044e-005
-2.109087e-004,5.666109e-005
-4.770897e-005,6.136099e-005
1.281319e-004,7.221937e-005
2.991108e-004,8.226741e-005
4.538833e-004,8.518459e-005
5.935836e-004,7.789165e-005
7.230739e-004,6.265751e-005
8.465678e-004,4.385793e-005
9.664962e-004,2.181705e-005
1.085776e-003,-4.761663e-006
1.189012e-003,-3.685059e-005
1.233256e-003,-7.234290e-005
1.172806e-003,-1.123730e-004
1.004744e-003,-1.541859e-004
7.984343e-004,-1.948643e-004
6.642442e-004,-2.326255e-004
6.942262e-004,-2.656868e-004
9.104216e-004,-2.893483e-004
1.251083e-003,-2.935620e-004
1.604549e-003,-2.715212e-004
1.875198e-003,-2.259808e-004
1.997072e-003,-1.647201e-004
1.924142e-003,-1.010285e-004
1.630965e-003,-4.171255e-005
1.131317e-003,9.175954e-006
4.790034e-004,4.709924e-005
-2.152845e-004,6.541262e-005
-8.003402e-004,6.119892e-005
-1.161259e-003,4.110282e-005
-1.263847e-003,1.517237e-005
-1.157370e-003,-5.085794e-006
-9.312889e-004,-1.092015e-005
-6.525366e-004,-8.720958e-007
-3.651949e-004,2.003433e-005
-1.096179e-004,4.110282e-005
7.627100e-005,5.536457e-005
1.597346e-004,5.779555e-005
1.331559e-004,5.034054e-005
1.711715e-005,4.126489e-005
-1.488377e-004,3.543053e-005
-3.233821e-004,3.526847e-005
-4.828543e-004,4.126489e-005
-6.319543e-004,5.017848e-005
-7.825129e-004,5.698522e-005
-9.233477e-004,5.649903e-005
-1.013618e-003,5.001641e-005
-1.014753e-003,4.061663e-005
-9.223753e-004,3.218923e-005
-7.731132e-004,2.748933e-005
-6.197994e-004,2.667901e-005
-5.003573e-004,2.878586e-005
-4.220798e-004,3.073064e-005
-3.681121e-004,3.154097e-005
-3.168994e-004,3.364782e-005
-2.540181e-004,3.348575e-005
-1.796301e-004,2.246531e-005
-1.071869e-004,-2.006553e-006
-5.419158e-005,-3.215070e-005
-3.215070e-005,-5.613637e-005
-3.911951e-005,-6.893953e-005
-6.342930e-005,-7.526008e-005
-8.725291e-005,-8.109442e-005
-9.697682e-005,-8.919769e-005
-9.000801e-005,-9.924574e-005
-6.829127e-005,-1.054042e-004
-3.020592e-005,-1.037836e-004
2.116879e-005,-9.778715e-005
7.675719e-005,-9.017008e-005
1.269974e-004,-8.401160e-005
1.654069e-004,-7.979790e-005
1.890685e-004,-7.444974e-005
2.012234e-004,-6.213279e-005
2.065715e-004,-3.960571e-005
2.081922e-004,-1.205460e-005
2.072198e-004,1.452411e-005
1.997648e-004,3.429608e-005
1.790204e-004,4.953022e-005
1.425557e-004,6.281957e-005
1.064151e-004,7.448828e-005
8.907416e-005,8.210535e-005
9.620503e-005,8.648111e-005
1.188942e-004,9.004655e-005
1.398006e-004,9.377405e-005
1.414213e-004,9.798775e-005
1.143563e-004,1.060910e-004
6.606088e-005,1.145184e-004
1.517237e-005,1.229458e-004
-1.837515e-005,1.299146e-004
-1.999580e-005,1.399627e-004
1.776542e-005,1.521176e-004
9.263960e-005,1.660552e-004
1.876099e-004,1.765894e-004
2.762596e-004,1.798307e-004
3.381686e-004,1.759412e-004
3.689610e-004,1.657311e-004
3.747953e-004,1.482280e-004
3.681507e-004,1.235941e-004
3.600474e-004,9.896014e-005
3.608577e-004,8.388807e-005
3.686369e-004,7.902610e-005
3.722023e-004,7.837785e-005
3.529165e-004,7.124698e-005
2.927903e-004,5.277152e-005
1.856651e-004,2.133085e-005
3.867184e-005,-2.826113e-005
-1.305243e-004,-9.211487e-005
-2.945344e-004,-1.541859e-004
-4.319658e-004,-1.977814e-004
-5.340669e-004,-2.133397e-004
-6.027826e-004,-2.005366e-004
-6.390853e-004,-1.666649e-004
-6.463781e-004,-1.253383e-004
-6.112100e-004,-8.628051e-005
-5.094330e-004,-5.435365e-005
-3.209511e-004,-3.539201e-005
-5.159854e-005,-2.793700e-005
2.660495e-004,-3.085418e-005
5.817529e-004,-4.155049e-005
8.462437e-004,-5.386745e-005
1.017871e-003,-6.278104e-005
1.050122e-003,-6.893953e-005
9.079906e-004,-7.218083e-005
6.212968e-004,-7.363942e-005
2.880904e-004,-7.558420e-005
2.765140e-005,-7.882551e-005
-7.801519e-005,-8.125648e-005
-1.562004e-005,-7.801519e-005
1.686482e-004,-6.861539e-005
3.892192e-004,-5.289506e-005
5.431813e-004,-3.522994e-005
5.378331e-004,-1.999580e-005
3.287688e-004,-8.327101e-006
-5.370539e-005,4.962256e-006
-5.110536e-004,2.165498e-005
-9.110307e-004,4.029249e-005
-1.146350e-003,5.666109e-005
-1.171632e-003,6.849186e-005
-1.006325e-003,7.837785e-005
-7.150938e-004,8.615698e-005
-3.784843e-004,9.231547e-005
-5.889147e-005,9.798775e-005
2.067336e-004,1.038221e-004
4.020223e-004,1.094944e-004
5.289195e-004,1.116012e-004
5.966629e-004,1.099806e-004
6.157866e-004,1.041462e-004
5.948801e-004,9.750155e-005
5.438296e-004,9.101894e-005
4.691174e-004,8.729143e-005
3.743092e-004,8.745350e-005
2.704253e-004,9.166720e-005
1.752929e-004,9.685329e-005
1.049566e-004,1.015532e-004
7.027457e-005,1.046324e-004
7.221937e-005,1.034980e-004
1.052807e-004,9.490851e-005
1.613553e-004,8.178122e-005
2.263435e-004,7.270556e-005
2.820940e-004,7.351588e-005
3.135346e-004,8.113296e-005
3.179104e-004,9.020861e-005
3.060797e-004,9.669123e-005
2.968419e-004,1.012291e-004
3.039728e-004,1.051186e-004
3.273102e-004,1.111150e-004
3.514579e-004,1.240803e-004
3.551854e-004,1.419075e-004
3.211517e-004,1.569795e-004
2.498430e-004,1.634621e-004
1.589243e-004,1.610312e-004
7.302969e-005,1.542244e-004
8.527692e-006,1.453108e-004
-3.668853e-005,1.334801e-004
-7.542214e-005,1.175977e-004
-1.230693e-004,9.669123e-005
-1.818990e-004,7.157111e-005
-2.429977e-004,4.466826e-005
-2.896725e-004,1.873781e-005
-3.156029e-004,-2.168618e-006
-3.209511e-004,-1.027188e-005
-3.107410e-004,-3.789271e-006
-2.940482e-004,1.355172e-005
-2.836761e-004,3.478227e-005
-2.872415e-004,5.649903e-005
-3.032860e-004,7.367795e-005
-3.227338e-004,8.518459e-005
-3.295405e-004,9.053274e-005
-3.016653e-004,8.761556e-005
-2.284118e-004,7.432621e-005
-1.203142e-004,5.325772e-005
-1.358292e-006,2.943412e-005
1.044704e-004,6.258778e-006
1.764274e-004,-1.043395e-005
2.026820e-004,-1.853721e-005
1.778859e-004,-1.918548e-005
1.175977e-004,-1.480971e-005
5.358185e-005,-7.030578e-006
1.419998e-005,4.476060e-006
1.176900e-005,1.727922e-005
4.483032e-005,2.748933e-005
1.072255e-004,3.121684e-005
1.885823e-004,2.829966e-005
2.665357e-004,2.197911e-005
3.124002e-004,1.971020e-005
3.107795e-004,2.165498e-005
2.683184e-004,2.181705e-005
2.090025e-004,1.257933e-005
1.594105e-004,-8.651231e-006
1.341283e-004,-3.863331e-005
1.211631e-004,-6.991192e-005
9.442231e-005,-9.762508e-005
3.786152e-005,-1.182074e-004
-4.576419e-005,-1.326312e-004
-1.378173e-004,-1.421931e-004
-2.089639e-004,-1.496480e-004
-2.371633e-004,-1.571030e-004
-2.152845e-004,-1.627753e-004
-1.512687e-004,-1.632615e-004
-6.359137e-005,-1.530514e-004
2.133085e-005,-1.292278e-004
7.659513e-005,-9.746302e-005
8.113296e-005,-6.310517e-005
2.862379e-005,-2.955766e-005
-7.218083e-005,3.827798e-006
-1.984297e-004,3.721326e-005
-3.152788e-004,6.816773e-005
-3.857772e-004,9.442231e-005
-3.833462e-004,1.122495e-004
-3.053928e-004,1.198666e-004
-1.763888e-004,1.206769e-004
-3.506787e-005,1.247285e-004
8.405013e-005,1.355869e-004
1.573037e-004,1.522796e-004
1.824238e-004,1.645966e-004
1.722137e-004,1.678379e-004
1.423936e-004,1.633001e-004
1.010670e-004,1.569795e-004
4.304760e-005,1.514693e-004
-4.625038e-005,1.490383e-004
-1.767129e-004,1.485521e-004
-3.298646e-004,1.479039e-004
-4.647030e-004,1.441764e-004
-5.376323e-004,1.331559e-004
-5.264499e-004,1.174356e-004
-4.437965e-004,9.847395e-005
-3.233821e-004,7.740545e-005
-2.031296e-004,5.860587e-005
-1.092938e-004,4.142695e-005
-5.338126e-005,2.246531e-005
-2.745081e-005,-2.168618e-006
-1.416145e-005,-3.101624e-005
7.879431e-006,-5.759496e-005
4.985435e-005,-7.801519e-005
1.069013e-004,-9.146661e-005
1.592484e-004,-9.875954e-005
1.835582e-004,-9.713889e-005
1.678379e-004,-8.660465e-005
1.158149e-004,-6.764300e-005
4.256141e-005,-4.479180e-005
-2.404744e-005,-2.420950e-005
-6.845333e-005,-9.137427e-006
-8.838737e-005,-1.358292e-006
-9.243900e-005,-2.816880e-006
-9.632856e-005,-1.367526e-005
-1.110765e-004,-3.101624e-005
-1.342519e-004,-5.046408e-005
-1.540238e-004,-6.294311e-005
-1.585616e-004,-6.569822e-005
-1.399241e-004,-5.581224e-005
-9.081834e-005,-3.652646e-005
-8.165034e-006,-1.237873e-005
9.344992e-005,1.257933e-005
1.890685e-004,3.526847e-005
2.535705e-004,5.147500e-005
2.778803e-004,5.909207e-005
2.801492e-004,5.649903e-005
2.955454e-004,4.807163e-005
3.517821e-004,3.688912e-005
4.431869e-004,2.522042e-005
5.300540e-004,1.436204e-005
5.653843e-004,3.827798e-006
5.196818e-004,-7.354708e-006
3.910019e-004,-2.177852e-005
2.023578e-004,-3.863331e-005
-9.137427e-006,-5.402952e-005
-2.071812e-004,-6.164659e-005
-3.655190e-004,-5.840528e-005
-4.671339e-004,-4.641245e-005
-5.061917e-004,-3.198863e-005
-4.865818e-004,-2.955766e-005
-4.204591e-004,-4.171255e-005
-3.245165e-004,-6.245691e-005
-2.130156e-004,-7.801519e-005
-9.454584e-005,-8.077029e-005
3.218923e-005,-6.877746e-005
1.688103e-004,-4.868136e-005
3.089968e-004,-2.842320e-005
4.347596e-004,-9.137427e-006
5.276230e-004,9.338019e-006
5.858045e-004,2.343770e-005
6.007145e-004,2.327564e-005
5.313505e-004,4.151929e-006
3.422202e-004,-2.988179e-005
5.633696e-005,-6.569822e-005
-2.381357e-004,-8.952182e-005
-4.412035e-004,-9.470791e-005
-4.980884e-004,-8.141856e-005
-4.133283e-004,-5.208473e-005
-2.483458e-004,-1.383732e-005
-9.098041e-005,2.230324e-005
-3.627206e-006,4.693717e-005
8.527692e-006,5.779555e-005
-1.675450e-005,6.184718e-005
-2.777494e-005,6.687120e-005
1.209313e-005,7.675719e-005
1.128978e-004,9.458438e-005
2.535705e-004,1.218114e-004
3.850055e-004,1.590864e-004
4.636072e-004,2.051129e-004
4.760862e-004,2.584324e-004
4.410801e-004,3.171001e-004
3.854917e-004,3.780367e-004
3.368721e-004,4.339492e-004
3.124002e-004,4.723587e-004
3.046211e-004,4.811102e-004
2.981384e-004,4.535591e-004
2.901973e-004,3.919743e-004
2.876042e-004,3.086727e-004
2.983005e-004,2.187264e-004
3.114278e-004,1.339663e-004
3.044590e-004,6.038860e-005
2.600531e-004,7.069104e-006
1.877719e-004,-1.497178e-005
1.138701e-004,-8.651231e-006
6.152305e-005,1.387585e-005
3.818564e-005,3.996836e-005
3.672705e-005,6.152305e-005
4.564065e-005,7.351588e-005
5.017848e-005,7.335382e-005
3.899597e-005,5.893001e-005
8.041497e-006,3.850977e-005
-3.798505e-005,2.246531e-005
-8.822530e-005,1.792748e-005
-1.329553e-004,2.084466e-005
-1.595340e-004,2.262737e-005
-1.627753e-004,1.744128e-005
-1.425172e-004,7.555300e-006
-1.101041e-004,-4.761663e-006
-8.158062e-005,-2.113026e-005
-6.942573e-005,-4.284701e-005
-7.850138e-005,-6.569822e-005
-1.154523e-004,-8.028410e-005
-1.841679e-004,-8.271508e-005
-2.805968e-004,-7.266703e-005
-3.865875e-004,-5.127441e-005
-4.792888e-004,-2.210265e-005
-5.411978e-004,4.476060e-006
-5.687489e-004,1.808955e-005
-5.723143e-004,1.695509e-005
-5.650214e-004,8.851824e-006
-5.533526e-004,1.072688e-006
-5.384427e-004,-7.100305e-007
-5.207775e-004,3.017472e-006
-4.982505e-004,7.879431e-006
-4.679442e-004,7.393235e-006
-4.259694e-004,2.693341e-006
-3.734602e-004,-2.168618e-006
-3.167374e-004,-2.654814e-006
-2.554767e-004,-8.720958e-007
-1.705545e-004,4.244267e-007
-3.522994e-005,-2.330684e-006
1.644345e-004,-1.173047e-005
4.169323e-004,-2.696461e-005
6.948745e-004,-4.171255e-005
9.820545e-004,-4.949169e-005
1.269559e-003,-5.095028e-005
1.535833e-003,-5.354332e-005
1.751380e-003,-6.035006e-005
1.897888e-003,-6.261898e-005
1.962876e-003,-5.354332e-005
1.925277e-003,-3.231276e-005
1.765966e-003,-6.220251e-006
1.494830e-003,1.614476e-005
1.147686e-003,2.992031e-005
7.634282e-004,3.656499e-005
3.587509e-004,4.094075e-005
-5.872941e-005,4.547859e-005
-4.813957e-004,5.293359e-005
-8.841279e-004,6.233338e-005
-1.192376e-003,7.221937e-005
-1.303553e-003,8.388807e-005
-1.166608e-003,9.539470e-005
-8.539837e-004,1.007429e-004
-5.377944e-004,9.409818e-005
-3.937184e-004,7.351588e-005
-5.146191e-004,3.850977e-005
-8.854244e-004,-2.654814e-006
-1.398847e-003,-3.685059e-005
-1.914539e-003,-5.176060e-005
-2.270435e-003,-4.511592e-005
-2.317110e-003,-2.501983e-005
-2.009672e-003,-6.544382e-006
-1.429964e-003,-4.599598e-006
-7.220627e-004,-2.566809e-005
-3.279896e-005,-7.153257e-005
5.196818e-004,-1.368449e-004
8.801153e-004,-2.104225e-004
1.063898e-003,-2.781658e-004
1.129696e-003,-3.309991e-004
1.142013e-003,-3.679500e-004
1.135044e-003,-3.922598e-004
1.104738e-003,-4.037664e-004
1.027109e-003,-4.018217e-004
8.898393e-004,-3.841565e-004
6.995744e-004,-3.506090e-004
4.927790e-004,-3.027998e-004
3.205035e-004,-2.423494e-004
2.242366e-004,-1.720131e-004
2.102990e-004,-9.665269e-005
2.561635e-004,-2.518189e-005
3.242310e-004,3.478227e-005
3.803056e-004,8.323980e-005
3.910019e-004,1.216493e-004
3.263378e-004,1.511452e-004
1.735102e-004,1.705930e-004
-4.787104e-005,1.848548e-004
-2.843243e-004,1.987924e-004
-4.822060e-004,2.140265e-004
-6.133168e-004,2.294227e-004
-6.808981e-004,2.435224e-004
-7.340555e-004,2.535705e-004
-8.356704e-004,2.561635e-004
-1.002111e-003,2.514636e-004
-1.186542e-003,2.393087e-004
-1.313601e-003,2.261814e-004
-1.315708e-003,2.175920e-004
-1.161584e-003,2.137024e-004
-8.710006e-004,2.114335e-004
-5.131605e-004,2.086784e-004
-1.723372e-004,2.064095e-004
9.539470e-005,2.031682e-004
2.707494e-004,1.961993e-004
3.623164e-004,1.872858e-004
3.945674e-004,1.795066e-004
3.952156e-004,1.720516e-004
3.827366e-004,1.650828e-004
3.649094e-004,1.564933e-004
3.435167e-004,1.443384e-004
3.242310e-004,1.300767e-004
3.130485e-004,1.174356e-004
3.078624e-004,1.070634e-004
3.028383e-004,1.007429e-004
2.978143e-004,9.896014e-005
2.950592e-004,1.012291e-004
2.939247e-004,1.043083e-004
2.948972e-004,1.057669e-004
3.028383e-004,1.022014e-004
3.209897e-004,9.312579e-005
3.440029e-004,8.291567e-005
3.663680e-004,7.610893e-005
3.859779e-004,7.416414e-005
4.093153e-004,7.254349e-005
4.375147e-004,7.205730e-005
4.584211e-004,7.027457e-005
4.441593e-004,6.606088e-005
3.809539e-004,6.071273e-005
2.780423e-004,5.990240e-005
1.626518e-004,6.330577e-005
5.552663e-005,6.719534e-005
-2.647842e-005,6.930219e-005
-7.558420e-005,7.092283e-005
-8.903562e-005,7.416414e-005
-7.201877e-005,7.918817e-005
-3.409548e-005,8.939829e-005
1.484824e-005,1.064151e-004
6.832980e-005,1.235941e-004
1.141943e-004,1.341283e-004
1.396385e-004,1.354248e-004
1.344524e-004,1.302387e-004
1.005808e-004,1.195424e-004
5.439218e-005,1.041462e-004
1.322759e-005,8.534666e-005
-1.367526e-005,6.508849e-005
-2.437157e-005,4.612685e-005
-1.659243e-005,3.121684e-005
5.286386e-006,2.003433e-005
4.142695e-005,1.112074e-005
9.620503e-005,2.369210e-006
1.723757e-004,-7.354708e-006
2.650771e-004,-2.080613e-005
3.553475e-004,-3.895744e-005
4.214702e-004,-6.051213e-005
4.537212e-004,-8.060822e-005
4.469145e-004,-9.292519e-005
4.075326e-004,-9.276313e-005
3.430306e-004,-7.574627e-005
2.587565e-004,-4.932962e-005
1.522796e-004,-2.226472e-005
2.019640e-005,-1.034161e-006
-1.243659e-004,1.095867e-005
-2.554767e-004,1.614476e-005
-3.499608e-004,1.695509e-005
-3.982562e-004,1.630683e-005
-4.047388e-004,1.193106e-005
-3.861013e-004,3.665733e-006
-3.544986e-004,-4.113402e-006
-3.151167e-004,-7.840905e-006
-2.663351e-004,-7.030578e-006
-2.110708e-004,-2.816880e-006
-1.538618e-004,1.883015e-006
-9.908367e-005,3.989864e-006
-4.819516e-005,9.106226e-007
-2.238345e-007,-8.002969e-006
4.855782e-005,-2.145439e-005
9.944633e-005,-3.798505e-005
1.488763e-004,-5.970180e-005
1.877719e-004,-8.417366e-005
2.143507e-004,-1.078352e-004
2.294227e-004,-1.256624e-004
2.386605e-004,-1.366828e-004
2.568118e-004,-1.396000e-004
2.924662e-004,-1.336036e-004
3.409237e-004,-1.133454e-004
3.788470e-004,-8.190475e-005
3.736609e-004,-5.078821e-005
3.125622e-004,-2.907146e-005
2.177540e-004,-1.918548e-005
1.211631e-004,-1.918548e-005
3.445814e-005,-2.534396e-005
-3.587821e-005,-3.636440e-005
-8.028410e-005,-5.305713e-005
-9.292519e-005,-7.266703e-005
-8.239095e-005,-9.389758e-005
-8.692878e-005,-1.162626e-004
-1.452723e-004,-1.349001e-004
-2.718453e-004,-1.493239e-004
-4.441207e-004,-1.601823e-004
-6.134789e-004,-1.689338e-004
-7.309762e-004,-1.729855e-004
-7.654961e-004,-1.708786e-004
-7.168766e-004,-1.648822e-004
-6.123444e-004,-1.585616e-004
-4.880404e-004,-1.511066e-004
-3.682741e-004,-1.438137e-004
-2.640661e-004,-1.536997e-004
-1.653684e-004,-2.156086e-004
-4.884343e-005,-3.523917e-004
9.199134e-005,-5.384427e-004
2.423880e-004,-7.060181e-004
3.770643e-004,-7.847819e-004
4.809482e-004,-7.348658e-004
5.490156e-004,-5.659938e-004
5.838597e-004,-3.254889e-004
5.934216e-004,-8.336334e-005
5.887217e-004,7.092283e-005
5.815907e-004,6.654707e-005
5.802942e-004,-8.935975e-005
5.836976e-004,-2.919414e-004
5.811046e-004,-4.112214e-004
5.601982e-004,-3.909633e-004
5.097958e-004,-2.668213e-004
4.282769e-004,-1.101041e-004
3.227724e-004,3.348575e-005
2.072198e-004,1.633001e-004
9.750155e-005,3.046211e-004
9.175954e-006,4.820826e-004
-4.932962e-005,7.101087e-004
-7.655659e-005,9.737892e-004
-7.396355e-005,1.234228e-003
-4.949169e-005,1.456258e-003
-1.367526e-005,1.615245e-003
2.181705e-005,1.702112e-003
4.920609e-005,1.720588e-003
6.606088e-005,1.676668e-003
6.573675e-005,1.581373e-003
4.304760e-005,1.451721e-003
-5.409925e-006,1.305537e-003
-8.044616e-005,1.160813e-003
-1.828714e-004,1.026298e-003
-3.040963e-004,9.011839e-004
-4.220798e-004,7.854691e-004
-5.071640e-004,6.725095e-004
-5.407116e-004,5.550120e-004
-5.149432e-004,4.367043e-004
-4.368277e-004,3.255275e-004
-3.241924e-004,2.239125e-004
-2.034537e-004,1.239182e-004
-1.018388e-004,1.225519e-005
-3.490581e-005,-1.182074e-004
-1.034161e-006,-2.632558e-004
9.824214e-006,-4.125179e-004
8.851824e-006,-5.544871e-004
-2.006553e-006,-6.825187e-004
-1.983374e-005,-7.838095e-004
-4.576419e-005,-8.428013e-004
-7.769105e-005,-8.557665e-004
-1.104282e-004,-8.272430e-004
-1.342519e-004,-7.624169e-004
-1.426792e-004,-6.617744e-004
-1.302002e-004,-5.332566e-004
-1.008664e-004,-3.943666e-004
-6.877746e-005,-2.689281e-004
-4.511592e-005,-1.804405e-004
-3.604027e-005,-1.366828e-004
-4.090223e-005,-1.339277e-004
-5.435365e-005,-1.616409e-004
-7.169464e-005,-2.084778e-004
-7.185670e-005,-2.742762e-004
-3.085418e-005,-3.600088e-004
4.547859e-005,-4.595169e-004
1.213252e-004,-5.582146e-004
1.587622e-004,-6.353577e-004
1.376937e-004,-6.836532e-004
6.476436e-005,-7.029389e-004
-3.717472e-005,-6.974287e-004
-1.349001e-004,-6.766843e-004
-2.047502e-004,-6.481609e-004
-2.340841e-004,-6.134789e-004
-2.254946e-004,-5.752315e-004
-1.882196e-004,-5.595111e-004
-1.363587e-004,-6.026205e-004
-9.146661e-005,-7.011562e-004
-6.796713e-005,-8.063366e-004
-6.861539e-005,-8.523631e-004
-8.109442e-005,-7.928851e-004
-8.352540e-005,-6.215821e-004
-6.261898e-005,-3.664914e-004
-1.902341e-005,-7.023605e-005
3.089270e-005,2.239125e-004
7.302969e-005,4.819206e-004
1.039842e-004,6.901746e-004
1.222975e-004,8.447851e-004
1.265113e-004,9.438071e-004
1.214872e-004,9.794615e-004
1.137081e-004,9.499656e-004
1.130598e-004,8.653674e-004
1.263492e-004,7.428459e-004
1.535762e-004,6.050903e-004
1.918236e-004,4.785172e-004
2.349330e-004,3.794953e-004
2.803112e-004,3.111037e-004
3.230965e-004,2.631323e-004
3.485408e-004,2.279641e-004
3.454615e-004,2.008992e-004
3.122381e-004,1.798307e-004
2.584324e-004,1.697827e-004
2.017096e-004,1.824238e-004
1.527658e-004,2.268297e-004
1.163011e-004,3.012177e-004
9.344992e-005,3.910019e-004
7.951231e-005,4.743035e-004
6.978838e-005,5.339436e-004
6.427816e-005,5.650601e-004
6.930219e-005,5.710566e-004
9.409818e-005,5.375090e-004
1.357490e-004,4.091532e-004
1.764274e-004,1.389903e-004
1.981441e-004,-2.656868e-004
1.981441e-004,-7.144455e-004
1.850168e-004,-1.079579e-003
1.722137e-004,-1.264495e-003
1.681620e-004,-1.255258e-003
1.684862e-004,-1.110209e-003
1.628139e-004,-9.126514e-004
1.401247e-004,-7.290315e-004
9.118101e-005,-6.069963e-004
1.857574e-005,-5.796073e-004
-6.132245e-005,-6.441093e-004
-1.272830e-004,-7.590135e-004
-1.639098e-004,-8.591698e-004
-1.634236e-004,-8.962828e-004
-1.250141e-004,-8.596560e-004
-5.646050e-005,-7.640375e-004
2.327564e-005,-6.356818e-004
8.923622e-005,-4.966299e-004
1.175977e-004,-3.543365e-004
9.766362e-005,-2.023193e-004
3.850977e-005,-2.307504e-005
-3.895744e-005,1.884202e-004
-1.139937e-004,4.104497e-004
-1.715269e-004,6.164348e-004
-2.097743e-004,7.799589e-004
-2.290600e-004,8.561296e-004
-2.188499e-004,7.964895e-004
-1.710407e-004,6.211348e-004
-8.854943e-005,4.067222e-004
8.851824e-006,2.077060e-004
1.078737e-004,3.850977e-005
2.025199e-004,-1.081593e-004
2.812837e-004,-2.515871e-004
3.350894e-004,-3.838324e-004
3.610198e-004,-4.585445e-004
3.610198e-004,-4.285624e-004
3.443271e-004,-2.671454e-004
3.175863e-004,2.894792e-005
2.728562e-004,4.326527e-004
1.762653e-004,8.950254e-004
-7.030578e-006,1.377008e-003
-2.556388e-004,1.850240e-003
-4.888507e-004,2.290573e-003
-6.159099e-004,2.659274e-003
-5.956517e-004,2.917608e-003
-4.493068e-004,3.046450e-003
-2.410529e-004,3.058929e-003
-4.317114e-005,2.982596e-003
8.696730e-005,2.836412e-003
1.372075e-004,2.626374e-003
1.344524e-004,2.356858e-003
1.211631e-004,2.047150e-003
1.323456e-004,1.727881e-003
1.795066e-004,1.430976e-003
2.503292e-004,1.179126e-003
3.136967e-004,9.796235e-004
3.349273e-004,8.323060e-004
2.942489e-004,7.352288e-004
1.843686e-004,6.781818e-004
7.879431e-006,6.384758e-004
-2.214430e-004,5.819149e-004
-4.713476e-004,4.809482e-004
-7.005080e-004,3.208276e-004
-8.713248e-004,1.057669e-004
-9.669433e-004,-1.421931e-004
-9.888221e-004,-3.925839e-004
-9.530057e-004,-6.243372e-004
-8.724592e-004,-8.295119e-004
-7.488034e-004,-1.010701e-003
-5.860899e-004,-1.179897e-003
-3.979321e-004,-1.347473e-003
-2.036158e-004,-1.517317e-003
-1.578211e-005,-1.677762e-003
1.586002e-004,-1.812762e-003
3.240689e-004,-1.907733e-003
4.866205e-004,-1.954245e-003
6.425274e-004,-1.952949e-003
7.689385e-004,-1.915998e-003
8.468920e-004,-1.864623e-003
8.767120e-004,-1.816490e-003
8.765499e-004,-1.783753e-003
8.609916e-004,-1.765115e-003
8.387886e-004,-1.749719e-003
8.164236e-004,-1.722330e-003
8.109134e-004,-1.673224e-003
8.410575e-004,-1.599646e-003
9.088010e-004,-1.503055e-003
9.956680e-004,-1.388151e-003
1.071353e-003,-1.259471e-003
1.111221e-003,-1.128198e-003
1.083994e-003,-1.005515e-003
9.451036e-004,-8.998482e-004
6.689440e-004,-8.180052e-004
2.858215e-004,-7.570687e-004
-1.222590e-004,-7.024527e-004
-4.408794e-004,-6.355197e-004
-5.807417e-004,-5.491390e-004
-5.204534e-004,-4.553032e-004
-3.297026e-004,-3.716775e-004
-1.384655e-004,-3.086341e-004
-5.046408e-005,-2.669833e-004
-9.243900e-005,-2.413770e-004
-2.522354e-004,-2.253325e-004
-5.214258e-004,-2.139880e-004
-8.799142e-004,-1.976194e-004
-1.273247e-003,-1.728234e-004
-1.627035e-003,-1.455964e-004
-1.875806e-003,-1.248521e-004
-1.999300e-003,-1.151281e-004
-2.012265e-003,-1.133454e-004
-1.924587e-003,-1.167488e-004
-1.725571e-003,-1.248521e-004
-1.399982e-003,-1.400862e-004
-9.531677e-004,-1.522411e-004
-4.296969e-004,-1.498101e-004
9.085687e-005,-1.308485e-004
5.161164e-004,-1.028112e-004
8.002171e-004,-7.898758e-005
9.661721e-004,-6.731887e-005
1.091125e-003,-6.780506e-005
1.244114e-003,-7.542214e-005
1.442807e-003,-8.336334e-005
1.652682e-003,-8.579432e-005
1.810696e-003,-7.995997e-005
1.842299e-003,-6.423963e-005
1.695468e-003,-4.009190e-005
1.377819e-003,-1.351319e-005
9.553137e-004,8.203561e-006
5.227610e-004,3.024445e-005
1.595726e-004,6.735740e-005
-9.697682e-005,1.304008e-004
-2.465631e-004,2.190506e-004
-2.930758e-004,3.264999e-004
-2.470493e-004,4.474007e-004
-1.310105e-004,5.777012e-004
4.313994e-006,7.201567e-004
8.907416e-005,8.728224e-004
6.768153e-005,1.029702e-003
-9.017008e-005,1.186095e-003
-3.966356e-004,1.332764e-003
-7.859163e-004,1.449128e-003
-1.108588e-003,1.515088e-003
-1.235485e-003,1.528054e-003
-1.138895e-003,1.499206e-003
-8.949863e-004,1.442807e-003
-6.210959e-004,1.367284e-003
-4.128421e-004,1.280417e-003
-3.081479e-004,1.189661e-003
-2.716832e-004,1.102631e-003
-2.246843e-004,1.025974e-003
-1.112386e-004,9.611481e-004
6.525056e-005,9.034527e-004
2.538946e-004,8.460816e-004
3.811159e-004,7.785003e-004
3.809539e-004,6.919574e-004
2.459534e-004,5.939078e-004
5.730935e-005,5.029890e-004
-6.326724e-005,4.295734e-004
-3.960571e-005,3.658818e-004
1.276457e-004,2.932765e-004
3.713920e-004,1.971717e-004
6.086557e-004,7.821578e-005
7.820657e-004,-4.300908e-005
8.716880e-004,-1.430034e-004
8.865979e-004,-2.125294e-004
8.532125e-004,-2.582318e-004
7.984343e-004,-2.891863e-004
7.374978e-004,-3.094444e-004
6.754267e-004,-3.241924e-004
6.059006e-004,-3.334301e-004
5.149819e-004,-3.293785e-004
3.835469e-004,-2.989102e-004
1.936063e-004,-2.386219e-004
-6.504996e-005,-1.556445e-004
-3.846427e-004,-6.391550e-005
-7.304900e-004,1.954813e-005
-1.050407e-003,7.853991e-005
-1.289129e-003,1.004187e-004
-1.401278e-003,8.307774e-005
-1.364976e-003,3.802358e-005
-1.195779e-003,-1.934754e-005
-9.413369e-004,-7.623246e-005
-6.697155e-004,-1.193418e-004
-4.428242e-004,-1.397621e-004
-2.833519e-004,-1.310105e-004
-1.749302e-004,-9.584237e-005
-8.611845e-005,-4.544005e-005
1.079661e-005,4.962256e-006
1.216493e-004,4.434413e-005
2.430362e-004,7.059870e-005
3.704196e-004,8.696730e-005
4.935893e-004,9.928427e-005
5.990939e-004,1.138701e-004
6.669993e-004,1.333180e-004
6.866092e-004,1.527658e-004
6.595443e-004,1.641104e-004
6.033076e-004,1.613553e-004
5.417227e-004,1.425557e-004
4.853239e-004,1.182459e-004
4.195254e-004,9.717742e-005
3.255275e-004,8.307774e-005
1.960373e-004,7.238143e-005
4.709924e-005,6.265751e-005
-8.968388e-005,5.017848e-005
-1.773612e-004,2.943412e-005
-1.932436e-004,-7.354708e-006
-1.438137e-004,-5.694669e-005
-6.699474e-005,-1.052422e-004
-2.048200e-005,-1.397621e-004
-4.625038e-005,-1.512687e-004
-1.321450e-004,-1.433275e-004
-2.263049e-004,-1.287416e-004
-2.814071e-004,-1.261486e-004
-2.652006e-004,-1.425172e-004
-1.799543e-004,-1.736337e-004
-6.893953e-005,-2.088019e-004
2.003433e-005,-2.363530e-004
6.946425e-005,-2.418632e-004
9.669123e-005,-2.188499e-004
1.222975e-004,-1.689338e-004
1.485521e-004,-1.003802e-004
1.633001e-004,-2.420950e-005
1.555209e-004,4.418206e-005
1.252147e-004,9.166720e-005
7.902610e-005,1.085220e-004
2.570661e-005,1.013911e-004
-2.388537e-005,9.377405e-005
-6.861539e-005,1.174356e-004
-9.373551e-005,1.814514e-004
-7.574627e-005,2.692908e-004
9.338019e-006,3.462718e-004
1.667035e-004,3.722023e-004
3.696093e-004,3.318480e-004
5.683014e-004,2.372019e-004
6.981159e-004,1.240803e-004
7.055708e-004,3.040651e-005
5.764047e-004,-2.356124e-005
3.530786e-004,-4.868136e-005
1.130598e-004,-7.007398e-005
-6.634648e-005,-1.073490e-004
-1.496480e-004,-1.734716e-004
-1.496480e-004,-2.747625e-004
-1.115627e-004,-4.011734e-004
-7.380149e-005,-5.251534e-004
-5.111234e-005,-6.150996e-004
-4.754691e-005,-6.526987e-004
-5.646050e-005,-6.441093e-004
-6.537409e-005,-6.065101e-004
-7.623246e-005,-5.580526e-004
-1.199901e-004,-5.078123e-004
-2.276015e-004,-4.525481e-004
-4.050630e-004,-3.846427e-004
-6.215821e-004,-2.945344e-004
-8.021229e-004,-1.802784e-004
-8.663007e-004,-4.803310e-005
-7.859163e-004,9.101894e-005
-5.909518e-004,2.208333e-004
-3.439643e-004,3.221241e-004
-1.229073e-004,3.824124e-004
9.824214e-006,3.971604e-004
3.753739e-005,3.734988e-004
3.017472e-006,3.242310e-004
-2.307504e-005,2.689667e-004
1.031041e-005,2.203471e-004
1.138701e-004,1.801549e-004
2.590807e-004,1.480659e-004
4.000776e-004,1.255388e-004
4.984512e-004,1.197045e-004
5.391297e-004,1.354248e-004
5.269747e-004,1.744826e-004
4.749518e-004,2.302331e-004
3.960259e-004,2.731804e-004
3.034866e-004,2.663736e-004
2.112714e-004,1.921477e-004
1.372075e-004,6.427816e-005
9.507057e-005,-7.963584e-005
8.210535e-005,-2.036158e-004
9.085687e-005,-2.888622e-004
1.141943e-004,-3.313232e-004
1.490383e-004,-3.412092e-004
1.884202e-004,-3.256510e-004
2.192126e-004,-2.749245e-004
2.355812e-004,-1.643960e-004
2.355812e-004,9.013888e-006
2.206712e-004,2.119197e-004
1.965235e-004,3.982948e-004
1.730240e-004,5.350781e-004
1.718895e-004,6.088177e-004
2.021958e-004,6.259967e-004
2.538946e-004,6.170831e-004
3.075383e-004,6.161107e-004
3.535648e-004,6.449584e-004
3.992672e-004,6.990882e-004
4.610142e-004,7.553250e-004
5.475571e-004,7.844967e-004
6.541961e-004,7.749348e-004
7.572697e-004,7.311772e-004
8.232304e-004,6.574374e-004
8.214476e-004,5.558224e-004
7.392805e-004,4.328148e-004
5.825632e-004,2.981384e-004
3.691231e-004,1.710792e-004
1.239182e-004,7.027457e-005
-1.258244e-004,-1.034161e-006
-3.643846e-004,-5.808115e-005
-5.784728e-004,-1.323070e-004
-7.432931e-004,-2.459148e-004
-8.337256e-004,-4.058733e-004
-8.505804e-004,-6.045653e-004
-8.361566e-004,-8.165467e-004
-8.479874e-004,-1.008918e-003
-9.089239e-004,-1.164663e-003
-9.925496e-004,-1.284753e-003
-1.035659e-003,-1.379075e-003
-9.688881e-004,-1.445846e-003
-7.721408e-004,-1.467077e-003
-4.890127e-004,-1.422671e-003
-2.011848e-004,-1.307767e-003
9.500084e-006,-1.137436e-003
1.039842e-004,-9.384198e-004
9.037068e-005,-7.288694e-004
2.531276e-006,-5.202913e-004
-1.225831e-004,-3.164132e-004
-2.715212e-004,-1.235555e-004
-4.713476e-004,3.543053e-005
-7.517206e-004,1.333180e-004
-1.061265e-003,1.526038e-004
-1.292370e-003,9.798775e-005
-1.353631e-003,3.503668e-006
-1.209069e-003,-8.498399e-005
-8.839659e-004,-1.314967e-004
-4.569239e-004,-1.216107e-004
-3.393342e-005,-6.067420e-005
2.961937e-004,3.299956e-005
4.796517e-004,1.399627e-004
5.000719e-004,2.399570e-004
4.016982e-004,3.002453e-004
2.790147e-004,2.783665e-004
2.273159e-004,1.598967e-004
2.892249e-004,-2.145439e-005
4.512902e-004,-2.084778e-004
6.592201e-004,-3.557951e-004
8.430023e-004,-4.502792e-004
9.457518e-004,-4.912817e-004
9.493173e-004,-4.715097e-004
8.733086e-004,-3.893426e-004
7.545147e-004,-2.472113e-004
6.238898e-004,-5.953974e-005
4.979650e-004,1.598967e-004
3.892192e-004,4.135290e-004
2.994350e-004,7.165913e-004
2.213195e-004,1.082211e-003
1.519555e-004,1.502609e-003
9.782569e-005,1.940835e-003
6.314371e-005,2.344541e-003
5.131293e-005,2.651495e-003
5.747142e-005,2.805782e-003
7.027457e-005,2.778555e-003
9.101894e-005,2.586506e-003
1.307249e-004,2.283118e-003
1.974959e-004,1.930463e-003
2.923041e-004,1.574242e-003
3.968363e-004,1.246708e-003
4.877549e-004,9.669825e-004
5.472329e-004,7.368495e-004
5.768909e-004,5.331332e-004
5.880735e-004,3.125622e-004
5.947181e-004,4.239934e-005
6.037937e-004,-2.946965e-004
6.156245e-004,-7.152559e-004
6.287518e-004,-1.217982e-003
6.412309e-004,-1.766736e-003
6.498203e-004,-2.290531e-003
6.409067e-004,-2.701853e-003
5.981215e-004,-2.928422e-003
5.130371e-004,-2.932311e-003
3.906778e-004,-2.717250e-003
2.441707e-004,-2.324241e-003
8.242948e-005,-1.817300e-003
-9.422171e-005,-1.276812e-003
-2.852967e-004,-7.669547e-004
-4.706994e-004,-2.961551e-004
-6.094273e-004,1.701068e-004
-6.642053e-004,6.533858e-004
-6.206097e-004,1.134396e-003
-5.042469e-004,1.566139e-003
-3.658432e-004,1.890433e-003
-2.486699e-004,2.051850e-003
-1.720131e-004,2.016520e-003
-1.446240e-004,1.792383e-003
-1.637477e-004,1.437459e-003
-2.182017e-004,1.035698e-003
-2.924276e-004,6.726715e-004
-3.728119e-004,4.127187e-004
-4.509274e-004,2.816078e-004
-5.201293e-004,2.692908e-004
-5.724764e-004,3.404375e-004
-5.964620e-004,4.488592e-004
-5.877105e-004,5.511225e-004
-5.478425e-004,6.144901e-004
-4.867438e-004,6.180555e-004
-4.186764e-004,5.511225e-004
-3.522297e-004,4.169323e-004
-2.924276e-004,2.278021e-004
-2.399184e-004,3.665733e-006
-1.942160e-004,-2.297083e-004
-1.574272e-004,-4.548170e-004
-1.250141e-004,-6.708500e-004
-8.093235e-005,-8.818590e-004
-1.578211e-005,-1.083468e-003
6.265751e-005,-1.258175e-003
1.321835e-004,-1.383127e-003
1.730240e-004,-1.436933e-003
1.824238e-004,-1.414568e-003
1.712413e-004,-1.319273e-003
1.543865e-004,-1.167094e-003
1.370455e-004,-9.812050e-004
1.257009e-004,-7.859163e-004
1.391524e-004,-5.911139e-004
1.872858e-004,-3.932322e-004
2.624841e-004,-1.955125e-004
3.350894e-004,-2.048200e-005
3.712299e-004,1.038221e-004
3.521062e-004,1.665414e-004
2.824181e-004,1.770756e-004
1.835582e-004,1.592484e-004
7.918817e-005,1.381799e-004
-1.302699e-005,1.274836e-004
-8.222889e-005,1.279698e-004
-1.233935e-004,1.260251e-004
-1.468929e-004,1.075496e-004
-1.632615e-004,6.055066e-005
-1.814128e-004,-1.918548e-005
-1.974573e-004,-1.298761e-004
-1.968091e-004,-2.637420e-004
-1.676373e-004,-4.074939e-004
-1.122110e-004,-5.446011e-004
-5.273300e-005,-6.619364e-004
-3.198863e-005,-7.504240e-004
-7.736692e-005,-8.100641e-004
-1.708786e-004,-8.403703e-004
-2.643903e-004,-8.387496e-004
-3.016653e-004,-7.977471e-004
-2.494803e-004,-7.172007e-004
-1.107524e-004,-6.089411e-004
6.735740e-005,-4.893369e-004
2.149989e-004,-3.788084e-004
2.783665e-004,-2.924276e-004
2.449810e-004,-2.313289e-004
1.370455e-004,-1.874093e-004
-1.464765e-005,-1.485136e-004
-1.870851e-004,-1.058904e-004
-3.637363e-004,-5.937767e-005
-5.270981e-004,-1.610623e-005
-6.431369e-004,1.355172e-005
-6.724706e-004,2.538249e-005
-6.071583e-004,2.181705e-005
-4.797750e-004,1.274139e-005
-3.314853e-004,8.851824e-006
-1.642339e-004,1.468617e-005
3.478227e-005,2.732727e-005
2.662116e-004,3.510640e-005
5.135234e-004,2.522042e-005
7.446286e-004,-5.479652e-007
9.125284e-004,-3.134038e-005
9.781650e-004,-5.613637e-005
9.337590e-004,-6.796713e-005
8.207993e-004,-6.991192e-005
7.041122e-004,-6.731887e-005
6.347482e-004,-6.067420e-005
6.289139e-004,-4.430560e-005
6.661889e-004,-1.156841e-005
7.076777e-004,3.786152e-005
7.144844e-004,1.004187e-004
6.728336e-004,1.773998e-004
5.843459e-004,2.699391e-004
4.600418e-004,3.634508e-004
3.098072e-004,4.371905e-004
1.266733e-004,4.841895e-004
-1.050801e-004,5.117406e-004
-3.684362e-004,5.360504e-004
-5.975965e-004,5.668428e-004
-7.079630e-004,6.102764e-004
-6.492953e-004,6.877437e-004
-4.335864e-004,8.240407e-004
-1.399241e-004,1.023543e-003
1.193804e-004,1.256594e-003
2.660495e-004,1.459500e-003
2.859835e-004,1.572946e-003
2.101370e-004,1.573594e-003
9.020861e-005,1.473275e-003
-2.145439e-005,1.314775e-003
-9.211487e-005,1.168592e-003
-1.172350e-004,1.097931e-003
-1.096179e-004,1.117541e-003
-8.919769e-005,1.183502e-003
-7.250496e-005,1.222398e-003
-6.812920e-005,1.172482e-003
-7.655659e-005,1.015926e-003
-8.741497e-005,7.752589e-004
-8.676671e-005,4.927790e-004
-5.921561e-005,2.172678e-004
-2.168618e-006,-9.623623e-006
6.379197e-005,-1.648822e-004
1.052807e-004,-2.340841e-004
9.020861e-005,-2.068571e-004
9.013888e-006,-9.438377e-005
-1.337657e-004,7.076077e-005
-3.211131e-004,2.386605e-004
-5.181845e-004,3.676645e-004
-6.786291e-004,4.452938e-004
-7.646858e-004,4.862963e-004
-7.663065e-004,5.060683e-004
-7.095836e-004,5.119027e-004
-6.455678e-004,5.110924e-004
-6.165581e-004,5.039615e-004
-6.274165e-004,4.875929e-004
-6.385990e-004,4.530729e-004
-5.971103e-004,3.908399e-004
-4.718338e-004,3.046211e-004
-2.684419e-004,2.083542e-004
-3.020592e-005,1.106288e-004
1.937684e-004,-5.734055e-006
3.681507e-004,-1.716889e-004
4.824068e-004,-4.092766e-004
5.460985e-004,-7.207661e-004
5.781874e-004,-1.086385e-003
5.913147e-004,-1.463187e-003
5.945560e-004,-1.788128e-003
5.979594e-004,-1.994600e-003
6.149763e-004,-2.039492e-003
6.449584e-004,-1.911946e-003
6.582477e-004,-1.640001e-003
6.128695e-004,-1.281512e-003
4.793275e-004,-8.938518e-004
2.632944e-004,-5.097571e-004
-1.520357e-006,-1.444620e-004
-2.653627e-004,2.025199e-004
-4.734545e-004,5.397779e-004
-5.972724e-004,8.757396e-004
-6.682570e-004,1.203274e-003
-7.594997e-004,1.509740e-003
-9.390680e-004,1.774556e-003
-1.236296e-003,1.968062e-003
-1.596729e-003,2.050878e-003
-1.878885e-003,1.992696e-003
-1.944521e-003,1.783631e-003
-1.745181e-003,1.449938e-003
-1.328349e-003,1.047529e-003
-7.889956e-004,6.469032e-004
-2.318151e-004,3.007315e-004
2.631323e-004,3.478227e-005
6.639201e-004,-1.556445e-004
9.681169e-004,-3.049066e-004
1.178802e-003,-4.540066e-004
1.317692e-003,-6.244993e-004
1.441024e-003,-8.150881e-004
1.600821e-003,-1.005677e-003
1.797083e-003,-1.171146e-003
1.988644e-003,-1.290588e-003
2.118135e-003,-1.346824e-003
2.137907e-003,-1.329645e-003
2.040181e-003,-1.246344e-003
1.856561e-003,-1.124795e-003
1.637124e-003,-9.964391e-004
1.425304e-003,-8.849382e-004
1.242980e-003,-7.945058e-004
1.084318e-003,-7.184972e-004
9.308418e-004,-6.478368e-004
7.754210e-004,-5.771763e-004
6.247002e-004,-5.099192e-004
4.872688e-004,-4.544929e-004
3.628025e-004,-4.206212e-004
2.550291e-004,-4.154351e-004
1.733481e-004,-4.400690e-004
1.193804e-004,-4.846370e-004
8.388807e-005,-5.329325e-004
5.147500e-005,-5.689110e-004
9.986280e-006,-5.700454e-004
-5.305713e-005,-5.227224e-004
-1.499722e-004,-4.347209e-004
-2.817312e-004,-3.355369e-004
-4.322899e-004,-2.549905e-004
-5.914380e-004,-2.047502e-004
-7.692236e-004,-1.773612e-004
-1.007622e-003,-1.585616e-004
-1.311818e-003,-1.407345e-004
-1.594784e-003,-1.209625e-004
-1.743560e-003,-9.794922e-005
-1.689268e-003,-7.363942e-005
-1.434664e-003,-5.354332e-005
-1.046679e-003,-3.928157e-005
-6.110479e-004,-2.680255e-005
-2.083157e-004,-9.461557e-006
9.863601e-005,1.549650e-005
2.739907e-004,4.466826e-005
3.256896e-004,6.589881e-005
2.906834e-004,7.546067e-005
2.166196e-004,7.027457e-005
1.417454e-004,4.823369e-005
8.826383e-005,1.047248e-005
5.568870e-005,-3.733679e-005
3.186510e-005,-8.854943e-005
2.855406e-006,-1.329553e-004
-4.138842e-005,-1.600202e-004
-1.015147e-004,-1.718510e-004
-1.613168e-004,-1.762267e-004
-1.982676e-004,-1.737958e-004
-1.987538e-004,-1.593720e-004
-1.682856e-004,-1.284175e-004
-1.233935e-004,-8.303921e-005
-7.769105e-005,-2.923352e-005
-3.960571e-005,2.133085e-005
-1.497178e-005,6.200925e-005
-8.489165e-006,8.907416e-005
-1.205460e-005,1.018773e-004
-1.156841e-005,9.863601e-005
9.338019e-006,7.643306e-005
5.212327e-005,4.158902e-005
9.879807e-005,2.693341e-006
1.279698e-004,-2.777494e-005
1.281319e-004,-4.803310e-005
1.018773e-004,-6.164659e-005
6.071273e-005,-6.715681e-005
1.403791e-005,-6.586029e-005
-3.263690e-005,-6.553616e-005
-7.412562e-005,-7.477388e-005
-9.778715e-005,-9.697682e-005
-9.827335e-005,-1.232314e-004
-7.931171e-005,-1.329553e-004
-5.321919e-005,-1.000561e-004
-3.717472e-005,-7.354708e-006
-4.009190e-005,1.423936e-004
-6.699474e-005,3.300653e-004
-1.196660e-004,5.303781e-004
-1.974573e-004,7.266394e-004
-2.919414e-004,9.057217e-004
-3.899909e-004,1.042991e-003
-4.817198e-004,1.107493e-003
-5.642110e-004,1.080590e-003
-6.340612e-004,9.656859e-004
-6.847876e-004,7.747728e-004
-7.053699e-004,5.289195e-004
-6.834911e-004,2.641047e-004
-6.131548e-004,3.948217e-005
-4.971160e-004,-9.503204e-005
-3.433161e-004,-1.203142e-004
-1.661787e-004,-5.419158e-005
2.684107e-005,7.221937e-005
2.380122e-004,2.302331e-004
4.647416e-004,4.067222e-004
6.754267e-004,6.015248e-004
8.329543e-004,8.256614e-004
9.083147e-004,1.088207e-003
8.875704e-004,1.387218e-003
7.817416e-004,1.707784e-003
6.250243e-004,2.011334e-003
4.684691e-004,2.245357e-003
3.537268e-004,2.357507e-003
2.932765e-004,2.320718e-003
2.743148e-004,2.143904e-003
2.691287e-004,1.863206e-003
2.576221e-004,1.527891e-003
2.321778e-004,1.182692e-003
1.780480e-004,8.511056e-004
7.983643e-005,5.433434e-004
-6.391550e-005,2.650771e-004
-2.292221e-004,1.760335e-005
-3.783222e-004,-1.974573e-004
-4.651892e-004,-3.870737e-004
-4.489826e-004,-5.726385e-004
-3.113892e-004,-7.821888e-004
-6.699474e-005,-1.023666e-003
2.336364e-004,-1.267250e-003
5.178991e-004,-1.459460e-003
7.204809e-004,-1.556699e-003
8.031343e-004,-1.542761e-003
7.697488e-004,-1.438715e-003
6.679717e-004,-1.282971e-003
5.647360e-004,-1.108913e-003
5.075269e-004,-9.317751e-004
5.080131e-004,-7.504240e-004
5.431813e-004,-5.552974e-004
5.608465e-004,-3.420196e-004
4.986133e-004,-1.195039e-004
2.997591e-004,9.944633e-005
-4.835723e-005,2.955454e-004
-4.927402e-004,4.491834e-004
-9.303165e-004,5.407503e-004
-1.271302e-003,5.561465e-004
-1.467401e-003,4.859722e-004
-1.510186e-003,3.427064e-004
-1.424129e-003,1.576278e-004
-1.246344e-003,-3.749886e-005
-1.025125e-003,-2.180396e-004
-8.068228e-004,-3.702189e-004
-6.202856e-004,-4.857715e-004
-4.711856e-004,-5.658317e-004
-3.366714e-004,-6.138030e-004
-1.663408e-004,-6.382748e-004
7.351588e-005,-6.518884e-004
3.642611e-004,-6.667983e-004
6.412309e-004,-6.854359e-004
8.303613e-004,-6.964563e-004
8.734707e-004,-6.865704e-004
7.425218e-004,-6.517263e-004
4.579349e-004,-5.984068e-004
8.907416e-005,-5.403875e-004
-2.677937e-004,-4.891748e-004
-5.280705e-004,-4.441207e-004
-6.572365e-004,-4.008492e-004
-6.650157e-004,-3.585502e-004
-5.760418e-004,-3.193304e-004
-4.269418e-004,-2.838381e-004
-2.583938e-004,-2.530457e-004
-1.049180e-004,-2.259808e-004
1.987226e-005,-1.989159e-004
1.184080e-004,-1.744440e-004
1.942546e-004,-1.493239e-004
2.453051e-004,-1.208004e-004
2.699391e-004,-8.806324e-005
2.743148e-004,-5.840528e-005
2.710735e-004,-4.625038e-005
2.692908e-004,-5.467778e-005
2.650771e-004,-7.444974e-005
2.618358e-004,-9.211487e-005
2.767458e-004,-9.794922e-005
3.279585e-004,-8.790116e-005
4.072085e-004,-6.472583e-005
4.802999e-004,-3.409548e-005
5.050959e-004,-1.358292e-006
4.715484e-004,3.056858e-005
4.157979e-004,5.698522e-005
3.752816e-004,7.724339e-005
3.619922e-004,1.017153e-004
3.512959e-004,1.363972e-004
3.138588e-004,1.735102e-004
2.299089e-004,1.966855e-004
1.111150e-004,1.936063e-004
4.800190e-006,1.660552e-004
-3.182657e-005,1.276457e-004
3.056858e-005,9.312579e-005
1.882581e-004,6.281957e-005
4.164462e-004,2.959618e-005
6.786680e-004,-1.416145e-005
9.431588e-004,-6.845333e-005
1.187391e-003,-1.248521e-004
1.390946e-003,-1.762267e-004
1.527405e-003,-2.139880e-004
1.568894e-003,-2.352185e-004
1.495478e-003,-2.251705e-004
1.295327e-003,-1.773612e-004
9.721686e-004,-8.968388e-005
5.754323e-004,3.786152e-005
1.976579e-004,1.955511e-004
-8.028410e-005,3.563199e-004
-2.395943e-004,4.869446e-004
-3.180339e-004,5.636016e-004
-3.679500e-004,5.746220e-004
-4.196488e-004,5.172509e-004
-4.765338e-004,3.866261e-004
-5.249913e-004,1.733481e-004
-5.520561e-004,-1.102662e-004
-5.421702e-004,-4.180282e-004
-4.854473e-004,-6.851117e-004
-3.779980e-004,-8.768350e-004
-2.311669e-004,-1.002436e-003
-7.493595e-005,-1.081361e-003
5.341978e-005,-1.119123e-003
1.200286e-004,-1.104212e-003
1.203528e-004,-1.016373e-003
6.865393e-005,-8.447461e-004
-9.947754e-006,-5.945172e-004
-9.114247e-005,-2.773555e-004
-1.569410e-004,9.085687e-005
-1.951884e-004,4.884032e-004
-2.063709e-004,9.034527e-004
-1.979435e-004,1.342813e-003
-1.844921e-004,1.801134e-003
-1.739578e-004,2.231419e-003
-1.619650e-004,2.553769e-003
-1.442999e-004,2.692335e-003
-1.248521e-004,2.617461e-003
-1.096179e-004,2.349403e-003
-1.036215e-004,1.947642e-003
-1.042698e-004,1.488672e-003
-1.110765e-004,1.039426e-003
-1.203142e-004,6.459308e-004
-1.313347e-004,3.321721e-004
-1.425172e-004,1.022014e-004
-1.540238e-004,-3.992984e-005
-1.650442e-004,-9.195280e-005
-1.752544e-004,-6.116039e-005
-1.938919e-004,2.829966e-005
-2.305186e-004,1.344524e-004
-2.953447e-004,2.190506e-004
-3.925839e-004,2.613496e-004
-5.113778e-004,2.592428e-004
-6.296854e-004,2.253711e-004
-7.167145e-004,1.641104e-004
-7.454000e-004,7.027457e-005
-7.081250e-004,-6.035006e-005
-6.215821e-004,-2.313289e-004
-5.151053e-004,-4.381243e-004
-4.141386e-004,-6.706879e-004
-3.282440e-004,-8.953104e-004
-2.488320e-004,-1.068882e-003
-1.663408e-004,-1.146350e-003
-8.952182e-005,-1.090761e-003
-3.247483e-005,-8.873692e-004
-9.947754e-006,-5.531906e-004
-1.497178e-005,-1.327932e-004
-2.275091e-005,3.047831e-004
-2.113026e-005,6.739681e-004
-2.339917e-005,9.068561e-004
-4.884343e-005,9.927509e-004
-9.956987e-005,9.674686e-004
-1.577513e-004,8.854635e-004
-2.002124e-004,7.947068e-004
-2.152845e-004,7.233981e-004
-2.089639e-004,6.728336e-004
-1.940539e-004,6.237278e-004
-1.793060e-004,5.443157e-004
-1.661787e-004,4.222805e-004
-1.477033e-004,2.751252e-004
-1.214487e-004,1.385041e-004
-8.352540e-005,4.483032e-005
-2.809907e-005,1.193106e-005
4.823369e-005,4.013043e-005
1.490383e-004,1.150046e-004
2.731804e-004,2.130541e-004
4.125566e-004,3.119140e-004
5.533914e-004,3.916502e-004
6.801265e-004,4.420525e-004
7.705591e-004,4.533971e-004
7.655350e-004,4.125566e-004
5.739737e-004,3.017039e-004
9.296372e-005,1.138701e-004
-6.966184e-004,-1.397621e-004
-1.619094e-003,-4.300210e-004
-2.376264e-003,-7.178489e-004
-2.713036e-003,-9.703466e-004
-2.531847e-003,-1.169687e-003
-1.914053e-003,-1.308091e-003
-1.068396e-003,-1.387179e-003
-2.287359e-004,-1.411164e-003
4.394594e-004,-1.388151e-003
8.922702e-004,-1.326890e-003
1.176695e-003,-1.239051e-003
1.350429e-003,-1.140677e-003
1.446859e-003,-1.047166e-003
1.477165e-003,-9.659709e-004
1.447021e-003,-8.995241e-004
1.361612e-003,-8.390738e-004
1.240549e-003,-7.758683e-004
1.118838e-003,-7.053699e-004
1.024678e-003,-6.338991e-004
9.744375e-004,-5.671282e-004
9.747616e-004,-5.100812e-004
1.019654e-003,-4.659995e-004
1.071677e-003,-4.347209e-004
1.085776e-003,-4.102490e-004
1.022247e-003,-3.875599e-004
8.504573e-004,-3.645466e-004
5.712186e-004,-3.363473e-004
2.206712e-004,-3.070135e-004
-1.538618e-004,-2.783279e-004
-4.985746e-004,-2.527216e-004
-7.533412e-004,-2.378116e-004
-8.624112e-004,-2.348944e-004
-8.108744e-004,-2.331117e-004
-6.437851e-004,-2.143121e-004
-4.587065e-004,-1.755785e-004
-3.506090e-004,-1.264727e-004
-3.433161e-004,-8.077029e-005
-3.749188e-004,-4.171255e-005
-3.467194e-004,-4.113402e-006
-1.883817e-004,3.559260e-005
9.539470e-005,7.724339e-005
4.268184e-004,1.158149e-004
7.107570e-004,1.496866e-004
8.917841e-004,1.809652e-004
9.681169e-004,2.127300e-004
9.671445e-004,2.383363e-004
9.182007e-004,2.435224e-004
8.473782e-004,2.200230e-004
7.746107e-004,1.680000e-004
7.068673e-004,9.361198e-005
6.345861e-004,3.017472e-006
5.389676e-004,-9.843541e-005
3.919743e-004,-2.005366e-004
1.856651e-004,-2.888622e-004
-4.284701e-005,-3.510952e-004
-2.212809e-004,-3.875599e-004
-2.896725e-004,-4.060353e-004
-2.413770e-004,-4.144627e-004
-1.057284e-004,-4.094387e-004
7.076077e-005,-3.788084e-004
2.388225e-004,-3.136581e-004
3.628025e-004,-2.102605e-004
4.274666e-004,-6.748093e-005
4.409180e-004,1.164632e-004
4.234150e-004,3.440029e-004
3.877606e-004,6.162728e-004
3.373583e-004,9.183628e-004
2.783665e-004,1.219318e-003
2.229401e-004,1.477813e-003
1.827479e-004,1.653006e-003
1.534141e-004,1.729339e-003
1.231079e-004,1.720425e-003
7.448828e-005,1.658030e-003
-1.594417e-005,1.574080e-003
-1.661787e-004,1.494182e-003
-3.788084e-004,1.418821e-003
-6.280647e-004,1.327902e-003
-8.761867e-004,1.196305e-003
-1.094813e-003,1.012037e-003
-1.263523e-003,7.814175e-004
-1.344231e-003,5.298919e-004
-1.305174e-003,2.957075e-004
-1.153156e-003,1.182459e-004
-9.335578e-004,1.808955e-005
-7.233592e-004,-9.623623e-006
-5.933827e-004,1.646889e-005
-5.753936e-004,6.995045e-005
-6.303337e-004,1.244044e-004
-6.744154e-004,1.566554e-004
-6.332508e-004,1.550348e-004
-4.906334e-004,1.214872e-004
-2.822175e-004,6.638501e-005
-6.748093e-005,3.665733e-006
9.101894e-005,-5.111234e-005
1.655690e-004,-8.709084e-005
1.790204e-004,-1.028112e-004
1.786963e-004,-1.083214e-004
1.976579e-004,-1.149661e-004
2.323399e-004,-1.267968e-004
2.454672e-004,-1.386276e-004
1.994406e-004,-1.441378e-004
8.032263e-005,-1.402483e-004
-9.632856e-005,-1.269589e-004
-2.990722e-004,-1.144799e-004
-4.916058e-004,-1.099420e-004
-6.321164e-004,-1.170729e-004
-6.893254e-004,-1.347380e-004
-6.593434e-004,-1.527273e-004
-5.595111e-004,-1.650442e-004
-4.219177e-004,-1.733096e-004
-2.794623e-004,-1.802784e-004
-1.541859e-004,-1.891920e-004
-5.824321e-005,-2.032917e-004
8.365628e-006,-2.207947e-004
5.017848e-005,-2.347323e-004
6.103685e-005,-2.350565e-004
2.862379e-005,-2.141500e-004
-4.592625e-005,-1.759026e-004
-1.420310e-004,-1.303623e-004
-2.277635e-004,-8.644258e-005
-2.784900e-004,-4.965375e-005
-2.932379e-004,-1.869928e-005
-2.814071e-004,8.527692e-006
-2.504527e-004,3.672705e-005
-2.037778e-004,6.411610e-005
-1.430034e-004,8.275361e-005
-6.213279e-005,8.939829e-005
4.661304e-005,8.567078e-005
1.793446e-004,7.465034e-005
3.211517e-004,6.217131e-005
4.509661e-004,5.260946e-005
5.519328e-004,4.596478e-005
6.212968e-004,3.591673e-005
6.657027e-004,1.760335e-005
7.024916e-004,-7.354708e-006
7.399287e-004,-3.458168e-005
7.627800e-004,-5.629843e-005
7.237222e-004,-6.148453e-005
5.785116e-004,-4.430560e-005
3.242310e-004,-1.367526e-005
1.760335e-005,1.727922e-005
-2.465631e-004,3.769945e-005
-3.765395e-004,3.932010e-005
-3.353749e-004,2.084466e-005
-1.689338e-004,-1.092015e-005
4.029249e-005,-4.398147e-005
2.478982e-004,-6.764300e-005
4.642555e-004,-8.125648e-005
7.225877e-004,-8.790116e-005
1.030512e-003,-8.935975e-005
1.344595e-003,-9.033214e-005
1.597256e-003,-9.551824e-005
1.736956e-003,-1.091317e-004
1.745708e-003,-1.323070e-004
1.648468e-003,-1.577513e-004
1.490778e-003,-1.815749e-004
1.315099e-003,-2.042640e-004
1.146551e-003,-2.237119e-004
9.912923e-004,-2.324634e-004
8.446230e-004,-2.263049e-004
6.998985e-004,-2.125294e-004
5.551741e-004,-2.018331e-004
4.029947e-004,-1.985918e-004
2.313675e-004,-1.982676e-004
4.483032e-005,-1.888679e-004
-1.371690e-004,-1.608306e-004
-3.013411e-004,-1.125351e-004
-4.702132e-004,-5.937767e-005
-6.927288e-004,-3.636440e-005
-9.988701e-004,-6.796713e-005
-1.355900e-003,-1.498101e-004
-1.688782e-003,-2.613110e-004
-1.918915e-003,-3.872357e-004
-2.006106e-003,-5.209396e-004
-1.959756e-003,-6.604778e-004
-1.803687e-003,-7.941817e-004
-1.559454e-003,-8.933656e-004
-1.249909e-003,-9.273993e-004
-9.047101e-004,-8.732696e-004
-5.629145e-004,-7.233592e-004
-2.514251e-004,-4.812336e-004
1.922400e-005,-1.669890e-004
2.456293e-004,1.804790e-004
4.345975e-004,5.133613e-004
5.994180e-004,7.960033e-004
7.436562e-004,1.009444e-003
8.486747e-004,1.154330e-003
8.835187e-004,1.248490e-003
8.287406e-004,1.311534e-003
6.838541e-004,1.347836e-003
4.660382e-004,1.337140e-003
2.107852e-004,1.250921e-003
-2.145439e-005,1.082211e-003
-1.752544e-004,8.634226e-004
-2.250084e-004,6.532237e-004
-1.702303e-004,5.046097e-004
-3.069211e-005,4.389732e-004
1.498487e-004,4.461041e-004
3.201793e-004,4.890515e-004
4.363802e-004,5.112544e-004
4.660382e-004,4.606900e-004
4.033188e-004,2.999211e-004
2.671840e-004,2.343770e-005
9.053274e-005,-3.345645e-004
-9.081834e-005,-7.131490e-004
-2.478596e-004,-1.043762e-003
-3.549847e-004,-1.266926e-003
-3.951770e-004,-1.355090e-003
-3.609812e-004,-1.300798e-003
-2.668213e-004,-1.106481e-003
-1.258244e-004,-7.872129e-004
5.017848e-005,-3.856151e-004
2.354192e-004,2.975825e-005
3.965121e-004,3.961880e-004
5.039615e-004,6.812610e-004
5.415606e-004,8.775223e-004
5.148199e-004,9.955060e-004
4.367043e-004,1.057253e-003
3.255275e-004,1.089666e-003
2.083542e-004,1.101821e-003
1.182459e-004,1.061305e-003
7.935023e-005,9.280867e-004
9.085687e-005,6.833678e-004
1.316973e-004,3.569682e-004
1.676758e-004,2.424803e-005
1.691344e-004,-2.357047e-004
1.216493e-004,-3.861013e-004
2.603075e-005,-4.334243e-004
-9.746302e-005,-4.027940e-004
-2.193361e-004,-3.109030e-004
-3.123616e-004,-1.648822e-004
-3.588744e-004,2.700314e-005
-3.520676e-004,2.420638e-004
-2.987481e-004,4.490213e-004
-2.182017e-004,6.303724e-004
-1.366828e-004,7.861174e-004
-8.044616e-005,9.321384e-004
-6.683268e-005,1.085939e-003
-9.033214e-005,1.244601e-003
-1.191798e-004,1.370039e-003
-1.295519e-004,1.399373e-003
-1.284175e-004,1.278472e-003
-1.373311e-004,9.935612e-004
-1.734716e-004,5.733254e-004
-2.300324e-004,6.800567e-005
-2.864312e-004,-4.624341e-004
-3.233821e-004,-9.625675e-004
-3.293785e-004,-1.388475e-003
-3.031239e-004,-1.708716e-003
-2.515871e-004,-1.908057e-003
-1.877334e-004,-1.988117e-003
-1.136696e-004,-1.967211e-003
-1.691656e-005,-1.864137e-003
1.043083e-004,-1.682948e-003
2.240746e-004,-1.425426e-003
2.973281e-004,-1.119123e-003
2.898731e-004,-8.144398e-004
2.005751e-004,-5.599973e-004
7.432621e-005,-3.836703e-004
-3.117831e-005,-2.843243e-004
-7.850138e-005,-2.342461e-004
-6.083626e-005,-2.002124e-004
1.290346e-005,-1.647201e-004
1.304008e-004,-1.292278e-004
2.793389e-004,-1.083214e-004
4.320044e-004,-1.063766e-004
5.426951e-004,-1.203142e-004
5.686256e-004,-1.467309e-004
4.955340e-004,-1.820611e-004
3.699334e-004,-2.169051e-004
2.731804e-004,-2.415391e-004
2.534084e-004,-2.522354e-004
2.903593e-004,-2.545043e-004
3.161277e-004,-2.538560e-004
2.516257e-004,-2.603386e-004
2.619281e-005,-2.793003e-004
-3.778360e-004,-3.168994e-004
-8.727834e-004,-3.805911e-004
-1.309387e-003,-4.689167e-004
-1.566909e-003,-5.689110e-004
-1.599160e-003,-6.544814e-004
-1.432233e-003,-6.969425e-004
-1.136950e-003,-6.794395e-004
-7.940196e-004,-6.060239e-004
-4.655133e-004,-4.860956e-004
-1.940539e-004,-3.290543e-004
4.151929e-006,-1.366828e-004
1.329939e-004,9.069480e-005
1.986303e-004,3.396272e-004
2.044647e-004,5.858045e-004
1.649207e-004,8.073479e-004
1.056048e-004,9.930750e-004
6.071273e-005,1.143310e-003
5.536457e-005,1.262104e-003
9.701536e-005,1.344109e-003
1.736723e-004,1.378629e-003
2.603772e-004,1.355291e-003
3.294171e-004,1.272962e-003
3.713920e-004,1.142824e-003
3.957018e-004,9.770305e-004
4.055878e-004,7.906552e-004
3.958639e-004,5.958526e-004
3.662059e-004,3.979707e-004
3.341170e-004,1.997648e-004
3.248792e-004,1.598270e-005
3.452995e-004,-1.305243e-004
3.796573e-004,-2.271153e-004
3.999155e-004,-2.807589e-004
3.877606e-004,-3.089582e-004
3.425443e-004,-3.295405e-004
2.760976e-004,-3.648708e-004
2.004130e-004,-4.494688e-004
1.279698e-004,-6.125065e-004
7.610893e-005,-8.520390e-004
5.568870e-005,-1.135491e-003
6.395403e-005,-1.420078e-003
8.680524e-005,-1.656531e-003
1.013911e-004,-1.812600e-003
9.085687e-005,-1.888447e-003
5.860587e-005,-1.905464e-003
1.663096e-005,-1.883585e-003
-1.497178e-005,-1.827024e-003
-1.286493e-005,-1.731081e-003
3.510640e-005,-1.581333e-003
1.321835e-004,-1.360114e-003
2.704253e-004,-1.060131e-003
4.333010e-004,-6.828429e-004
5.981215e-004,-2.451045e-004
7.352288e-004,2.287745e-004
8.169098e-004,7.076777e-004
8.279303e-004,1.175075e-003
7.629420e-004,1.641013e-003
6.303724e-004,2.124942e-003
4.486972e-004,2.630750e-003
2.378501e-004,3.134290e-003
9.662150e-006,3.613684e-003
-2.300324e-004,4.052561e-003
-4.914437e-004,4.403761e-003
-7.776510e-004,4.575553e-003
-1.066127e-003,4.485605e-003
-1.312142e-003,4.109446e-003
-1.455732e-003,3.496671e-003
-1.437581e-003,2.757000e-003
-1.230462e-003,2.040506e-003
-8.645180e-004,1.486889e-003
-4.092766e-004,1.155141e-003
5.601283e-005,9.810821e-004
4.653899e-004,8.154512e-004
7.736383e-004,5.224369e-004
9.496414e-004,4.110282e-005
9.814063e-004,-5.992171e-004
8.971322e-004,-1.291398e-003
7.423597e-004,-1.904005e-003
5.358884e-004,-2.325699e-003
2.793389e-004,-2.500892e-003
-3.951337e-006,-2.436714e-003
-2.583938e-004,-2.174168e-003
-4.303451e-004,-1.770301e-003
-4.903093e-004,-1.285077e-003
-4.240246e-004,-7.825129e-004
-2.507768e-004,-3.167374e-004
-3.393342e-005,7.886404e-005
1.355869e-004,3.982948e-004
1.913374e-004,6.472273e-004
1.274836e-004,8.314957e-004
1.234753e-006,9.470484e-004
-1.112386e-004,9.917784e-004
-1.661787e-004,9.767064e-004
-1.660166e-004,9.105837e-004
-1.371690e-004,7.997308e-004
-1.032974e-004,6.477135e-004
-6.861539e-005,4.579349e-004
-2.064406e-005,2.431983e-004
6.411610e-005,2.197911e-005
1.940925e-004,-1.925954e-004
3.454615e-004,-3.933942e-004
4.717104e-004,-5.799314e-004
5.274609e-004,-7.507481e-004
4.877549e-004,-9.038998e-004
3.530786e-004,-1.035011e-003
1.527658e-004,-1.146350e-003
-6.893953e-005,-1.245371e-003
-2.720073e-004,-1.340018e-003
-4.309934e-004,-1.433205e-003
-5.045710e-004,-1.528986e-003
-4.556273e-004,-1.639190e-003
-2.862691e-004,-1.774191e-003
-4.381940e-005,-1.942577e-003
1.983062e-004,-2.152451e-003
3.858158e-004,-2.404139e-003
5.016925e-004,-2.674951e-003
5.592257e-004,-2.922425e-003
5.887217e-004,-3.098104e-003
6.232416e-004,-3.160500e-003
6.746163e-004,-3.085949e-003
7.430080e-004,-2.873805e-003
8.212855e-004,-2.534926e-003
8.964840e-004,-2.065584e-003
9.514242e-004,-1.445684e-003
9.689272e-004,-6.624226e-004
9.339211e-004,2.696149e-004
8.314957e-004,1.276690e-003
6.540340e-004,2.267560e-003
4.026706e-004,3.161193e-003
7.886404e-005,3.880608e-003
-3.091203e-004,4.364379e-003
-7.309762e-004,4.588680e-003
-1.127064e-003,4.570528e-003
-1.439039e-003,4.359354e-003
-1.615691e-003,4.013341e-003
-1.626387e-003,3.588725e-003
-1.471128e-003,3.110305e-003
-1.190593e-003,2.581482e-003
-8.457184e-004,2.005661e-003
-4.974402e-004,1.392567e-003
-1.938919e-004,7.712073e-004
4.191315e-005,1.822617e-004
2.036543e-004,-3.264613e-004
2.942489e-004,-7.128249e-004
3.318480e-004,-9.590021e-004
3.396272e-004,-1.075365e-003
3.367100e-004,-1.098702e-003
3.290929e-004,-1.080875e-003
3.167760e-004,-1.058348e-003
2.971661e-004,-1.046193e-003
2.602152e-004,-1.040521e-003
1.942546e-004,-1.030311e-003
9.960840e-005,-1.010701e-003
-5.734055e-006,-9.841222e-004
-1.000561e-004,-9.619193e-004
-1.682856e-004,-9.611089e-004
-1.989159e-004,-9.917392e-004
-1.848162e-004,-1.039062e-003
-1.290658e-004,-1.063372e-003
-4.106429e-005,-1.026259e-003
6.784360e-005,-9.233477e-004
1.786963e-004,-7.864025e-004
2.689667e-004,-6.559400e-004
3.219621e-004,-5.587008e-004
3.352514e-004,-4.927402e-004
3.177483e-004,-4.368277e-004
2.835526e-004,-3.737843e-004
2.464396e-004,-2.942103e-004
2.169437e-004,-1.959987e-004
1.957131e-004,-7.963584e-005
1.761032e-004,5.212327e-005
1.412592e-004,1.919856e-004
6.411610e-005,3.156415e-004
-6.180866e-005,3.922984e-004
-2.008607e-004,4.020223e-004
-2.908069e-004,3.436788e-004
-2.904828e-004,2.388225e-004
-2.086398e-004,1.307249e-004
-1.058904e-004,7.302969e-005
-4.916756e-005,1.072255e-004
-6.877746e-005,2.329882e-004
-1.566169e-004,4.085050e-004
-2.916172e-004,5.783495e-004
-4.606513e-004,6.904988e-004
-6.609640e-004,7.131879e-004
-8.612767e-004,6.485238e-004
-9.922255e-004,5.227610e-004
-9.894704e-004,3.734988e-004
-8.295119e-004,2.245608e-004
-5.476804e-004,7.789165e-005
-2.062088e-004,-7.590833e-005
1.221355e-004,-2.434839e-004
3.814400e-004,-4.298589e-004
5.475571e-004,-6.288751e-004
6.221071e-004,-8.181673e-004
6.258346e-004,-9.719673e-004
5.809425e-004,-1.069693e-003
5.117406e-004,-1.109723e-003
4.388112e-004,-1.108102e-003
3.820883e-004,-1.086710e-003
3.423823e-004,-1.065317e-003
3.054314e-004,-1.049759e-003
2.521119e-004,-1.031445e-003
1.718895e-004,-9.859049e-004
6.687120e-005,-8.789418e-004
-5.143647e-005,-6.995355e-004
-1.614788e-004,-4.619479e-004
-2.407287e-004,-1.799543e-004
-2.788141e-004,1.362352e-004
-2.758969e-004,4.767345e-004
-2.439700e-004,8.216097e-004
-1.961608e-004,1.154979e-003
-1.410586e-004,1.462255e-003
-8.368747e-005,1.726746e-003
-2.307504e-005,1.917984e-003
3.397195e-005,1.998368e-003
8.421220e-005,1.950883e-003
1.193804e-004,1.793517e-003
1.143563e-004,1.564032e-003
5.374392e-005,1.302620e-003
-5.451571e-005,1.047205e-003
-1.814128e-004,8.245269e-004
-2.763831e-004,6.509548e-004
-2.924276e-004,5.326470e-004
-2.232257e-004,4.639313e-004
-1.050801e-004,4.222805e-004
2.181705e-005,3.887330e-004
1.347766e-004,3.537268e-004
2.265056e-004,3.159656e-004
3.031625e-004,2.829043e-004
3.747953e-004,2.563256e-004
4.509661e-004,2.355812e-004
5.319988e-004,2.145127e-004
6.023351e-004,1.765894e-004
6.378275e-004,1.081979e-004
6.175693e-004,8.851824e-006
5.378331e-004,-1.005423e-004
4.065602e-004,-1.987538e-004
2.477361e-004,-2.830278e-004
9.037068e-005,-3.682741e-004
-4.284701e-005,-4.711856e-004
-1.321450e-004,-5.823624e-004
-1.669890e-004,-6.789533e-004
-1.561307e-004,-7.523688e-004
-1.186936e-004,-8.147639e-004
-7.785312e-005,-8.914208e-004
-5.435365e-005,-1.008594e-003
-5.856734e-005,-1.178114e-003
-8.660465e-005,-1.394958e-003
-1.224211e-004,-1.666255e-003
-1.451102e-004,-2.006592e-003
-1.447861e-004,-2.407542e-003
-1.217728e-004,-2.847713e-003
-8.125648e-005,-3.286587e-003
-1.983374e-005,-3.657394e-003
7.416414e-005,-3.863704e-003
2.124059e-004,-3.810546e-003
3.922984e-004,-3.440063e-003
5.806184e-004,-2.734915e-003
7.271255e-004,-1.697048e-003
7.896828e-004,-3.626019e-004
7.553250e-004,1.159678e-003
6.465790e-004,2.699791e-003
5.020167e-004,4.173950e-003
3.501614e-004,4.959005e-003
2.017096e-004,4.959005e-003
6.103685e-005,4.959005e-003
-7.072224e-005,4.958843e-003
-1.807646e-004,4.958843e-003
-2.442942e-004,4.959005e-003
-2.428356e-004,4.959005e-003
-1.841679e-004,4.959005e-003
-9.908367e-005,4.958843e-003
-1.902341e-005,4.094050e-003
3.705119e-005,2.919228e-003
7.659513e-005,1.888164e-003
1.224596e-004,1.021923e-003
1.929580e-004,3.073762e-004
2.926282e-004,-2.914552e-004
4.025085e-004,-8.037435e-004
4.945617e-004,-1.228679e-003
5.470709e-004,-1.536279e-003
5.496639e-004,-1.702396e-003
4.987753e-004,-1.740481e-003
3.927846e-004,-1.717792e-003
2.381743e-004,-1.716819e-003
4.483032e-005,-1.785049e-003
-1.757406e-004,-1.917132e-003
-4.301830e-004,-2.076118e-003
-7.308142e-004,-2.221978e-003
-1.056727e-003,-2.322620e-003
-1.344393e-003,-2.366054e-003
-1.519748e-003,-2.365406e-003
-1.545354e-003,-2.351306e-003
-1.437257e-003,-2.344985e-003
-1.251692e-003,-2.350982e-003
-1.052514e-003,-2.356492e-003
-8.855865e-004,-2.342068e-003
-7.659823e-004,-2.297176e-003
-6.783050e-004,-2.229757e-003
-5.898174e-004,-2.136893e-003
-4.708614e-004,-1.996058e-003
-3.138202e-004,-1.793152e-003
-1.447861e-004,-1.545192e-003
5.448451e-006,-1.301446e-003
1.201907e-004,-1.112640e-003
1.973338e-004,-9.896324e-004
2.555152e-004,-8.962828e-004
3.230965e-004,-7.748959e-004
4.170944e-004,-5.834968e-004
5.373469e-004,-3.091203e-004
6.634339e-004,2.100672e-005
7.678040e-004,3.495132e-004
8.219338e-004,6.086557e-004
8.157754e-004,7.334461e-004
7.656971e-004,6.930918e-004
7.033019e-004,5.187094e-004
6.516030e-004,2.683184e-004
6.141660e-004,-1.837515e-005
5.764047e-004,-3.211131e-004
5.140096e-004,-6.063480e-004
3.986190e-004,-8.210845e-004
2.130541e-004,-9.050343e-004
-2.842320e-005,-8.191397e-004
-2.825416e-004,-5.875484e-004
-4.956574e-004,-2.966413e-004
-6.264441e-004,-2.745081e-005
-6.573986e-004,1.848548e-004
-5.883588e-004,3.456236e-004
-4.308313e-004,4.694415e-004
-2.071812e-004,5.344298e-004
4.175108e-005,4.801379e-004
2.579462e-004,2.722080e-004
3.931088e-004,-5.289506e-005
4.318423e-004,-3.967976e-004
3.921364e-004,-6.609640e-004
3.096451e-004,-8.045539e-004
2.153230e-004,-8.565768e-004
1.185700e-004,-8.810487e-004
1.322759e-005,-9.371233e-004
-1.041077e-004,-1.038900e-003
-2.324634e-004,-1.116530e-003
-3.692465e-004,-1.042790e-003
-5.139708e-004,-7.416725e-004
-6.559400e-004,-2.525595e-004
-7.646858e-004,3.101313e-004
-7.970989e-004,8.229063e-004
-7.392415e-004,1.201005e-003
-6.157478e-004,1.410556e-003
-4.596789e-004,1.476355e-003
-2.946965e-004,1.470682e-003
-1.337657e-004,1.473924e-003
1.760335e-005,1.540371e-003
1.564933e-004,1.682016e-003
2.697770e-004,1.855913e-003
3.383307e-004,1.980217e-003
3.490270e-004,1.984269e-003
3.075383e-004,1.846675e-003
2.508154e-004,1.613786e-003
2.388225e-004,1.369877e-003
3.230965e-004,1.174264e-003
5.217887e-004,1.042181e-003
8.185304e-004,9.523966e-004
1.168916e-003,8.624502e-004
1.512333e-003,7.264772e-004
1.791572e-003,5.109303e-004
1.959149e-003,2.090025e-004
1.993344e-003,-1.596961e-004
1.899670e-003,-5.557836e-004
1.706812e-003,-9.295062e-004
1.443131e-003,-1.242616e-003
1.128562e-003,-1.479718e-003
7.820657e-004,-1.646483e-003
4.271425e-004,-1.761712e-003
9.733949e-005,-1.829131e-003
-1.724992e-004,-1.849551e-003
-3.519055e-004,-1.828321e-003
-4.269418e-004,-1.768356e-003
-4.180282e-004,-1.663824e-003
-3.723257e-004,-1.510996e-003
-3.334301e-004,-1.320408e-003
-3.258130e-004,-1.117664e-003
-3.519055e-004,-9.277235e-004
-3.932322e-004,-7.559343e-004
-4.167317e-004,-5.770142e-004
-4.002010e-004,-3.514193e-004
-3.577399e-004,-7.039811e-005
-3.250027e-004,2.278021e-004
-3.261371e-004,4.699277e-004
-3.734602e-004,6.010386e-004
-4.629203e-004,6.229175e-004
-5.786348e-004,5.843459e-004
-6.975908e-004,5.349160e-004
-8.037435e-004,5.088234e-004
-8.893140e-004,5.365366e-004
-9.543022e-004,6.355586e-004
-9.912531e-004,8.135064e-004
-9.739121e-004,1.048015e-003
-8.841279e-004,1.281390e-003
-7.267625e-004,1.444590e-003
-5.235327e-004,1.499854e-003
-3.219235e-004,1.458689e-003
-1.856265e-004,1.347675e-003
-1.707165e-004,1.182043e-003
-2.864312e-004,9.549896e-004
-4.826922e-004,6.342620e-004
-6.987252e-004,2.043026e-004
-9.051964e-004,-3.165753e-004
-1.075203e-003,-8.818590e-004
-1.154777e-003,-1.432557e-003
-1.085089e-003,-1.912595e-003
-8.577112e-004,-2.290693e-003
-5.429805e-004,-2.558750e-003
-2.363530e-004,-2.686457e-003
9.500084e-006,-2.613042e-003
1.829100e-004,-2.289721e-003
2.871180e-004,-1.732054e-003
3.260137e-004,-1.025935e-003
3.109416e-004,-2.770314e-004
2.560015e-004,4.384870e-004
1.769136e-004,1.110735e-003
9.280166e-005,1.804538e-003
2.538249e-005,2.604982e-003
2.045080e-006,3.522278e-003
4.013043e-005,4.467453e-003
1.304008e-004,4.959005e-003
2.375260e-004,4.959005e-003
3.230965e-004,4.958843e-003
3.662059e-004,4.958843e-003
3.665300e-004,4.959005e-003
3.358997e-004,4.959005e-003
2.923041e-004,4.959329e-003
2.459534e-004,4.494519e-003
2.043026e-004,3.808164e-003
1.663793e-004,3.052933e-003
1.278078e-004,2.187824e-003
8.226741e-005,1.193874e-003
3.640293e-005,1.140322e-004
9.175954e-006,-9.353405e-004
2.295151e-005,-1.825403e-003
1.010670e-004,-2.478041e-003
2.560015e-004,-2.859544e-003
4.802999e-004,-2.990331e-003
7.358771e-004,-2.939928e-003
9.810821e-004,-2.791800e-003
1.172644e-003,-2.611097e-003
1.273935e-003,-2.429908e-003
1.264697e-003,-2.257146e-003
1.146065e-003,-2.096701e-003
9.368383e-004,-1.945332e-003
6.739681e-004,-1.793638e-003
4.049395e-004,-1.643080e-003
1.688103e-004,-1.519424e-003
-7.678839e-006,-1.451519e-003
-1.178833e-004,-1.446981e-003
-1.731475e-004,-1.487173e-003
-1.927574e-004,-1.552809e-003
-1.971332e-004,-1.631573e-003
-2.032917e-004,-1.715847e-003
-2.143121e-004,-1.794287e-003
-2.089639e-004,-1.841448e-003
-1.627753e-004,-1.831076e-003
-6.829127e-005,-1.757336e-003
6.200925e-005,-1.634166e-003
2.077060e-004,-1.483121e-003
3.357376e-004,-1.313277e-003
4.183909e-004,-1.131115e-003
4.428628e-004,-9.418231e-004
4.154738e-004,-7.526929e-004
3.516200e-004,-5.852795e-004
2.639427e-004,-4.676201e-004
1.571416e-004,-4.110594e-004
2.311357e-005,-4.003631e-004
-1.632615e-004,-4.047388e-004
-4.173799e-004,-3.823738e-004
-7.173627e-004,-2.934000e-004
-9.983840e-004,-1.154523e-004
-1.177142e-003,1.276457e-004
-1.186542e-003,3.637749e-004
-1.005191e-003,5.091476e-004
-6.784671e-004,5.204921e-004
-2.964792e-004,4.104497e-004
5.244739e-005,2.216436e-004
3.138588e-004,-1.358292e-006
4.738173e-004,-2.156086e-004
5.435054e-004,-3.770256e-004
5.459364e-004,-4.441207e-004
5.135234e-004,-4.008492e-004
4.801379e-004,-2.758969e-004
4.775448e-004,-1.337657e-004
5.219507e-004,-4.560212e-005
6.023351e-004,-5.759496e-005
6.838541e-004,-1.726613e-004
7.319875e-004,-3.528779e-004
7.287462e-004,-5.261257e-004
6.725095e-004,-6.022964e-004
5.811046e-004,-5.292050e-004
4.794896e-004,-3.497987e-004
3.895433e-004,-1.632615e-004
3.166139e-004,-5.775702e-005
2.548670e-004,-6.310517e-005
2.060853e-004,-1.491618e-004
1.837203e-004,-2.558008e-004
2.031682e-004,-3.410472e-004
2.760976e-004,-4.036044e-004
3.919743e-004,-4.614617e-004
5.102821e-004,-5.277464e-004
5.832114e-004,-5.987309e-004
5.909906e-004,-6.467023e-004
5.566327e-004,-6.423265e-004
5.230852e-004,-5.736108e-004
5.166026e-004,-4.460654e-004
5.166026e-004,-2.694143e-004
4.699277e-004,-4.722277e-005
3.371962e-004,2.196988e-004
1.197045e-004,5.222749e-004
-1.472171e-004,8.413817e-004
-4.068456e-004,1.156599e-003
-6.157478e-004,1.449776e-003
-7.771648e-004,1.697250e-003
-9.243201e-004,1.875523e-003
-1.082820e-003,1.966117e-003
-1.251368e-003,1.964659e-003
-1.409382e-003,1.883788e-003
-1.510672e-003,1.755270e-003
-1.511321e-003,1.618810e-003
-1.405168e-003,1.500665e-003
-1.229813e-003,1.407315e-003
-1.026097e-003,1.329361e-003
-8.086055e-004,1.251732e-003
-5.740970e-004,1.159030e-003
-3.376438e-004,1.043153e-003
-1.370070e-004,8.943771e-004
1.396819e-006,6.906608e-004
7.400208e-005,4.123945e-004
1.036600e-004,6.444023e-005
1.242423e-004,-3.105789e-004
1.561692e-004,-6.384369e-004
2.046267e-004,-8.497701e-004
2.684805e-004,-9.132997e-004
3.420582e-004,-8.483115e-004
4.122324e-004,-7.048837e-004
4.709001e-004,-5.287188e-004
5.151440e-004,-3.549847e-004
5.418848e-004,-1.985918e-004
5.503122e-004,-6.326724e-005
5.323229e-004,6.881599e-005
4.785172e-004,2.368777e-004
3.801435e-004,4.574487e-004
2.198609e-004,6.900126e-004
-3.303075e-006,8.673122e-004
-2.491561e-004,9.384589e-004
-4.520619e-004,8.968081e-004
-5.621042e-004,7.869277e-004
-5.663179e-004,6.747784e-004
-5.078123e-004,6.046041e-004
-4.609755e-004,5.814287e-004
-4.828543e-004,5.859666e-004
-5.800934e-004,5.895320e-004
-7.090974e-004,5.695979e-004
-8.009885e-004,5.169267e-004
-8.024470e-004,4.292493e-004
-7.103939e-004,3.171001e-004
-5.685868e-004,2.038164e-004
-4.337485e-004,1.187321e-004
-3.463953e-004,7.902610e-005
-3.143064e-004,7.578480e-005
-3.087962e-004,7.967437e-005
-2.898345e-004,5.601283e-005
-2.331117e-004,-1.643037e-005
-1.276072e-004,-1.357104e-004
2.522042e-005,-2.783279e-004
2.054371e-004,-4.196488e-004
3.867882e-004,-5.494631e-004
5.495019e-004,-6.608019e-004
6.815851e-004,-7.348658e-004
7.786624e-004,-7.471828e-004
8.434885e-004,-6.765223e-004
8.757396e-004,-5.202913e-004
8.754155e-004,-2.934000e-004
8.545090e-004,-2.113026e-005
8.263096e-004,2.626462e-004
7.807692e-004,5.151440e-004
6.995744e-004,7.107570e-004
5.684635e-004,8.436506e-004
3.851675e-004,9.201455e-004
1.519555e-004,9.506139e-004
-1.068628e-004,9.305177e-004
-3.387782e-004,8.289026e-004
-4.990608e-004,6.178935e-004
-5.732867e-004,3.294171e-004
-5.708557e-004,4.013043e-005
-5.134846e-004,-1.872472e-004
-4.190006e-004,-3.431540e-004
-2.930758e-004,-4.554653e-004
-1.303623e-004,-5.518941e-004
8.405013e-005,-6.447575e-004
3.487029e-004,-7.355140e-004
6.219451e-004,-8.277292e-004
8.413817e-004,-9.333958e-004
9.582309e-004,-1.070017e-003
9.491552e-004,-1.239213e-003
8.256614e-004,-1.415540e-003
6.243761e-004,-1.572581e-003
3.918122e-004,-1.699478e-003
1.728619e-004,-1.799473e-003
9.106226e-007,-1.873699e-003
-1.018388e-004,-1.919725e-003
-1.361966e-004,-1.934311e-003
-1.314967e-004,-1.892174e-003
-1.256624e-004,-1.754419e-003
-1.386276e-004,-1.498680e-003
-1.660166e-004,-1.122688e-003
-1.867610e-004,-6.400576e-004
-1.656925e-004,-8.174268e-005
-7.671866e-005,5.052580e-004
8.016056e-005,1.066815e-003
2.809595e-004,1.567760e-003
4.749518e-004,1.997882e-003
6.029834e-004,2.358965e-003
6.088177e-004,2.651008e-003
4.733311e-004,2.864774e-003
2.352571e-004,2.968658e-003
-2.177852e-005,2.907560e-003
-2.097743e-004,2.617461e-003
-2.864312e-004,2.060602e-003
-2.595283e-004,1.266642e-003
-1.724992e-004,3.185587e-004
-7.509801e-005,-6.667983e-004
-2.330684e-006,-1.565937e-003
3.543053e-005,-2.306576e-003
4.807163e-005,-2.844795e-003
6.654707e-005,-3.163093e-003
1.325077e-004,-3.254984e-003
2.741528e-004,-3.104263e-003
4.731690e-004,-2.714657e-003
6.592201e-004,-2.144186e-003
7.326358e-004,-1.489280e-003
6.084936e-004,-8.533355e-004
2.603772e-004,-2.972895e-004
-2.708729e-004,1.735102e-004
-8.964448e-004,6.080074e-004
-1.480528e-003,1.083508e-003
-1.858789e-003,1.613948e-003
-1.921994e-003,2.097391e-003
-1.677762e-003,2.372255e-003
-1.237106e-003,2.338059e-003
-7.447518e-004,2.021220e-003
-3.160891e-004,1.569218e-003
-1.189254e-005,1.196953e-003
1.537382e-004,1.072487e-003
2.031682e-004,1.221912e-003
1.812893e-004,1.570028e-003
1.341283e-004,2.038561e-003
9.280166e-005,2.578727e-003
6.865393e-005,3.126835e-003
5.763348e-005,3.572357e-003
5.374392e-005,3.785799e-003
5.698522e-005,3.691800e-003
7.610893e-005,3.306405e-003
1.158149e-004,2.712918e-003
1.696206e-004,2.022354e-003
2.247228e-004,1.324499e-003
2.688046e-004,6.606787e-004
2.986246e-004,3.397195e-005
3.187208e-004,-5.632387e-004
3.300653e-004,-1.123660e-003
3.358997e-004,-1.621039e-003
3.405996e-004,-2.013399e-003
3.568061e-004,-2.256173e-003
4.021844e-004,-2.322782e-003
4.864584e-004,-2.224571e-003
6.000663e-004,-2.018747e-003
7.152948e-004,-1.783428e-003
7.981102e-004,-1.581495e-003
8.402472e-004,-1.445684e-003
8.590468e-004,-1.376320e-003
8.814118e-004,-1.358655e-003
9.091251e-004,-1.375348e-003
9.287350e-004,-1.409057e-003
9.203076e-004,-1.453463e-003
8.682846e-004,-1.509214e-003
7.592145e-004,-1.579550e-003
5.830494e-004,-1.661393e-003
3.420582e-004,-1.738860e-003
5.325772e-005,-1.788452e-003
-2.601766e-004,-1.781970e-003
-5.622663e-004,-1.702234e-003
-8.016367e-004,-1.557347e-003
-9.256166e-004,-1.370648e-003
-9.029275e-004,-1.180059e-003
-7.497758e-004,-1.036631e-003
-5.261257e-004,-9.844463e-004
-2.995584e-004,-1.035011e-003
-1.178833e-004,-1.154615e-003
2.531276e-006,-1.285239e-003
7.124698e-005,-1.363031e-003
1.007429e-004,-1.337911e-003
9.798775e-005,-1.208583e-003
5.974033e-005,-1.029014e-003
-5.734055e-006,-8.654904e-004
-8.579432e-005,-7.473448e-004
-1.619650e-004,-6.648535e-004
-2.232257e-004,-5.971103e-004
-2.632558e-004,-5.322842e-004
-2.783279e-004,-4.515757e-004
-2.562870e-004,-3.172235e-004
-1.810887e-004,-6.245691e-005
-5.500191e-005,3.683128e-004
1.009049e-004,9.470484e-004
2.571359e-004,1.569704e-003
3.822504e-004,2.112949e-003
4.543695e-004,2.508390e-003
4.551798e-004,2.769803e-003
3.759298e-004,2.961528e-003
2.269918e-004,3.133642e-003
3.380988e-005,3.267185e-003
-1.702303e-004,3.292305e-003
-3.660052e-004,3.142232e-003
-5.606457e-004,2.800595e-003
-7.580412e-004,2.293653e-003
-9.453886e-004,1.676344e-003
-1.103240e-003,1.013819e-003
-1.198048e-003,3.692851e-004
-1.184111e-003,-1.682856e-004
-1.045383e-003,-4.922540e-004
-8.126571e-004,-5.561078e-004
-5.514079e-004,-3.948528e-004
-3.143064e-004,-1.062145e-004
-1.169109e-004,1.756170e-004
4.077869e-005,3.221241e-004
1.511452e-004,2.713976e-004
1.918236e-004,4.110282e-005
1.496866e-004,-3.159270e-004
3.235129e-005,-7.465344e-004
-1.253383e-004,-1.207124e-003
-2.606628e-004,-1.653452e-003
-3.094444e-004,-2.047757e-003
-2.605007e-004,-2.332668e-003
-1.642339e-004,-2.410135e-003
-9.276313e-005,-2.172548e-003
-8.498399e-005,-1.595919e-003
-1.253383e-004,-7.956403e-004
-1.585616e-004,2.878586e-005
-1.310105e-004,7.229118e-004
-2.712668e-005,1.274583e-003
1.192183e-004,1.740198e-003
2.568118e-004,2.127535e-003
3.449753e-004,2.364476e-003
3.754436e-004,2.346162e-003
3.670162e-004,2.032402e-003
3.435167e-004,1.503258e-003
3.174242e-004,9.240351e-004
2.911697e-004,4.345975e-004
2.692908e-004,5.666109e-005
2.561635e-004,-2.718453e-004
2.506533e-004,-5.797693e-004
2.483844e-004,-8.163846e-004
2.436845e-004,-9.115170e-004
2.294227e-004,-8.525252e-004
1.949028e-004,-7.026148e-004
1.367214e-004,-5.557836e-004
5.925414e-005,-4.792888e-004
-3.036798e-005,-4.632444e-004
-1.183694e-004,-4.019837e-004
-1.901644e-004,-1.739578e-004
-2.357047e-004,2.299089e-004
-2.486699e-004,6.827196e-004
-2.285738e-004,1.017871e-003
-1.810887e-004,1.133262e-003
-1.152902e-004,1.037805e-003
-4.074016e-005,8.337646e-004
3.478227e-005,6.381517e-004
1.072255e-004,5.128751e-004
1.757791e-004,4.542074e-004
2.406053e-004,4.096394e-004
3.033245e-004,3.180725e-004
3.611819e-004,1.373696e-004
4.088291e-004,-1.371690e-004
4.472386e-004,-4.765338e-004
4.770586e-004,-8.248120e-004
5.023408e-004,-1.108264e-003
5.260024e-004,-1.261740e-003
5.469088e-004,-1.256878e-003
5.684635e-004,-1.102754e-003
5.984456e-004,-8.413427e-004
6.447963e-004,-5.185086e-004
7.114052e-004,-1.679614e-004
7.955172e-004,1.746447e-004
8.883807e-004,4.658761e-004
9.776788e-004,6.712130e-004
1.045584e-003,7.666695e-004
1.063574e-003,7.384701e-004
9.958302e-004,5.822390e-004
8.420299e-004,3.052693e-004
6.383137e-004,-6.423963e-005
4.245494e-004,-4.583824e-004
2.188885e-004,-7.862404e-004
3.543053e-005,-9.886600e-004
-9.632856e-005,-1.042790e-003
-1.543479e-004,-9.471713e-004
-1.481895e-004,-7.162283e-004
-1.146419e-004,-3.768636e-004
-9.000801e-005,3.543053e-005
-9.584237e-005,4.830550e-004
-1.408965e-004,9.241971e-004
-2.233878e-004,1.325796e-003
-3.256510e-004,1.664351e-003
-4.212695e-004,1.930139e-003
-4.762096e-004,2.109060e-003
-4.655133e-004,2.167079e-003
-3.890185e-004,2.070326e-003
-2.664971e-004,1.812479e-003
-1.327932e-004,1.424656e-003
-1.983374e-005,9.588792e-004
5.309565e-005,4.749518e-004
8.340186e-005,2.441009e-005
7.967437e-005,-3.660052e-004
4.547859e-005,-6.839773e-004
-4.462973e-005,-9.228615e-004
-2.073433e-004,-1.083630e-003
-4.159213e-004,-1.173576e-003
-6.027826e-004,-1.201776e-003
-6.995355e-004,-1.175359e-003
-6.846256e-004,-1.101944e-003
-5.896553e-004,-1.001463e-003
-4.682684e-004,-9.060067e-004
-3.729740e-004,-8.369669e-004
-3.371576e-004,-8.032573e-004
-3.666535e-004,-8.087676e-004
-4.410414e-004,-8.525252e-004
-5.288809e-004,-9.254545e-004
-5.980827e-004,-1.017508e-003
-6.280647e-004,-1.116530e-003
-5.975965e-004,-1.196752e-003
-5.023021e-004,-1.232406e-003
-3.572537e-004,-1.210689e-003
-1.989159e-004,-1.115719e-003
-5.597430e-005,-9.496023e-004
5.860587e-005,-7.573929e-004
1.576278e-004,-6.129927e-004
2.623220e-004,-5.726385e-004
3.798194e-004,-6.436231e-004
5.012063e-004,-7.596618e-004
6.088177e-004,-8.176811e-004
6.900126e-004,-7.428070e-004
7.400908e-004,-5.332566e-004
7.618075e-004,-2.449424e-004
7.465734e-004,5.293359e-005
6.822334e-004,2.973281e-004
5.603603e-004,4.302217e-004
3.872744e-004,4.122324e-004
1.848548e-004,2.342847e-004
-1.610623e-005,-5.402952e-005
-1.922712e-004,-3.360231e-004
-3.339163e-004,-4.907955e-004
-4.428242e-004,-4.279141e-004
-5.266119e-004,-1.037836e-004
-5.974344e-004,4.582590e-004
-6.723086e-004,1.179612e-003
-7.598238e-004,1.961904e-003
-8.569009e-004,2.717131e-003
-9.432817e-004,3.383063e-003
-9.847704e-004,3.906539e-003
-9.468471e-004,4.232618e-003
-8.090917e-004,4.297607e-003
-5.760418e-004,4.050292e-003
-2.770314e-004,3.508340e-003
4.758544e-005,2.766562e-003
3.534027e-004,1.951693e-003
5.990939e-004,1.164702e-003
7.600248e-004,4.559901e-004
8.350611e-004,-1.504584e-004
8.415437e-004,-6.298475e-004
8.042687e-004,-9.591641e-004
7.426838e-004,-1.129819e-003
6.702406e-004,-1.164663e-003
5.982835e-004,-1.112802e-003
5.190336e-004,-1.022856e-003
4.007258e-004,-9.332337e-004
2.185644e-004,-8.611146e-004
-1.805102e-005,-8.069848e-004
-2.679557e-004,-7.797579e-004
-4.830163e-004,-7.925610e-004
-6.291992e-004,-8.077951e-004
-6.880289e-004,-7.437794e-004
-6.577227e-004,-5.663179e-004
-5.486528e-004,-3.337542e-004
-3.930701e-004,-1.549962e-004
-2.259808e-004,-1.057284e-004
-7.477388e-005,-1.883817e-004
4.580272e-005,-3.452609e-004
1.263492e-004,-5.029504e-004
1.683241e-004,-6.065101e-004
1.842065e-004,-6.420024e-004
1.864754e-004,-6.326025e-004
1.820997e-004,-6.131548e-004
1.603829e-004,-5.946793e-004
1.033359e-004,-5.493010e-004
-7.100305e-007,-4.407173e-004
-1.381414e-004,-2.595283e-004
-2.728177e-004,-2.307504e-005
-3.579019e-004,2.276400e-004
-3.551468e-004,4.342734e-004
-2.481837e-004,5.436675e-004
-4.236081e-005,5.213025e-004
2.286124e-004,3.728506e-004
5.131992e-004,1.394765e-004
7.572697e-004,-1.208004e-004
9.191731e-004,-3.507711e-004
9.833510e-004,-5.095950e-004
9.562862e-004,-5.826865e-004
8.558055e-004,-5.893311e-004
7.080018e-004,-5.640490e-004
5.405883e-004,-5.415219e-004
3.793332e-004,-5.517320e-004
2.406053e-004,-6.225546e-004
1.305629e-004,-7.570687e-004
4.677511e-005,-9.222133e-004
-2.161646e-005,-1.078444e-003
-8.287714e-005,-1.205503e-003
-1.460826e-004,-1.305174e-003
-2.076674e-004,-1.370162e-003
-2.528836e-004,-1.393661e-003
-2.643903e-004,-1.390906e-003
-2.295462e-004,-1.413757e-003
-1.501342e-004,-1.505324e-003
-4.495386e-005,-1.640649e-003
6.362990e-005,-1.730109e-003
1.613553e-004,-1.673224e-003
2.430362e-004,-1.424616e-003
3.031625e-004,-1.006649e-003
3.339549e-004,-4.820439e-004
3.333066e-004,7.205730e-005
3.093210e-004,5.760806e-004
2.671840e-004,9.604998e-004
2.043026e-004,1.186743e-003
1.151667e-004,1.258862e-003
-1.844488e-006,1.211539e-003
-1.399241e-004,1.098256e-003
-2.835140e-004,1.007337e-003
-4.143007e-004,1.020302e-003
-5.259637e-004,1.142500e-003
-6.068342e-004,1.306510e-003
-6.366542e-004,1.435838e-003
-6.060239e-004,1.493858e-003
-5.246671e-004,1.494506e-003
-4.087905e-004,1.474734e-003
-2.731418e-004,1.471168e-003
-1.302002e-004,1.508444e-003
2.207145e-006,1.604386e-003
1.091703e-004,1.756890e-003
1.803169e-004,1.928194e-003
2.117576e-004,2.032888e-003
2.130541e-004,1.976976e-003
1.893926e-004,1.719453e-003
1.535762e-004,1.317206e-003
1.271595e-004,9.026424e-004
1.351007e-004,5.903423e-004
1.913374e-004,4.044533e-004
2.976522e-004,2.983005e-004
4.341113e-004,2.245608e-004
5.700841e-004,1.746447e-004
6.794783e-004,1.829100e-004
7.477078e-004,2.710735e-004
7.733142e-004,3.992672e-004
7.600248e-004,4.668485e-004
7.089743e-004,3.783608e-004
6.107626e-004,1.036600e-004
4.376767e-004,-3.104168e-004
1.644345e-004,-7.625790e-004
-1.989159e-004,-1.142946e-003
-5.974344e-004,-1.357845e-003
-9.766672e-004,-1.369513e-003
-1.316518e-003,-1.222358e-003
-1.611477e-003,-1.013132e-003
-1.828321e-003,-8.304843e-004
-1.909191e-003,-7.207661e-004
-1.793963e-003,-6.742533e-004
-1.457839e-003,-6.360059e-004
-9.523574e-004,-5.517320e-004
-3.964735e-004,-4.011734e-004
7.821578e-005,-2.136638e-004
3.939191e-004,-4.187462e-005
5.485294e-004,7.465034e-005
5.814287e-004,1.235941e-004
5.433434e-004,1.112771e-004
4.765724e-004,5.471631e-005
4.099635e-004,-2.647842e-005
3.546993e-004,-1.097800e-004
3.004074e-004,-1.718510e-004
2.274780e-004,-2.002124e-004
1.357490e-004,-2.000504e-004
3.591673e-005,-1.947022e-004
-6.180866e-005,-2.058847e-004
-1.512687e-004,-2.421873e-004
-2.094501e-004,-2.980999e-004
-2.091260e-004,-3.653569e-004
-1.428413e-004,-4.326140e-004
-2.971972e-005,-4.849611e-004
1.026876e-004,-5.099192e-004
2.328261e-004,-5.052193e-004
3.490270e-004,-4.805854e-004
4.451317e-004,-4.559515e-004
5.138475e-004,-4.494688e-004
5.441537e-004,-4.768579e-004
5.310263e-004,-5.447632e-004
4.814344e-004,-6.444334e-004
4.068843e-004,-7.653341e-004
3.167760e-004,-9.030895e-004
2.122438e-004,-1.050083e-003
9.863601e-005,-1.205666e-003
4.800190e-006,-1.379399e-003
-3.296103e-005,-1.569664e-003
4.151929e-006,-1.736429e-003
1.046324e-004,-1.800931e-003
2.365536e-004,-1.688782e-003
3.639370e-004,-1.366434e-003
4.568004e-004,-8.533355e-004
5.049338e-004,-2.126914e-004
5.185474e-004,4.642555e-004
5.175750e-004,1.097607e-003
5.243817e-004,1.661434e-003
5.435054e-004,2.154762e-003
5.624671e-004,2.574189e-003
5.569568e-004,2.893460e-003
5.102821e-004,3.055688e-003
4.394594e-004,3.009175e-003
3.799814e-004,2.744196e-003
3.587509e-004,2.308076e-003
3.754436e-004,1.778769e-003
4.054257e-004,1.253352e-003
4.143393e-004,8.363576e-004
3.825745e-004,5.830494e-004
3.114278e-004,4.859722e-004
2.240746e-004,4.994237e-004
1.415833e-004,5.653843e-004
6.800567e-005,6.347482e-004
-1.383732e-005,6.789921e-004
-1.204763e-004,6.961710e-004
-2.428356e-004,7.083260e-004
-3.504469e-004,7.358771e-004
-4.152730e-004,7.734763e-004
-4.249970e-004,7.763934e-004
-3.891806e-004,6.870954e-004
-3.235441e-004,4.681450e-004
-2.515871e-004,1.357490e-004
-1.979435e-004,-2.250084e-004
-1.728234e-004,-5.185086e-004
-1.656925e-004,-7.184972e-004
-1.632615e-004,-8.470149e-004
-1.692580e-004,-9.252925e-004
-2.000504e-004,-9.551125e-004
-2.577456e-004,-9.504127e-004
-3.245165e-004,-9.486299e-004
-3.765395e-004,-9.573814e-004
-4.034423e-004,-9.324233e-004
-4.016596e-004,-7.995298e-004
-3.760532e-004,-5.010056e-004
-3.344025e-004,-3.409548e-005
-2.896725e-004,5.169267e-004
-2.512630e-004,1.001502e-003
-2.259808e-004,1.264373e-003
-2.097743e-004,1.211053e-003
-2.042640e-004,8.326301e-004
-2.188499e-004,2.117576e-004
-2.609869e-004,-4.600031e-004
-3.253268e-004,-9.538160e-004
-3.917736e-004,-1.109074e-003
-4.352071e-004,-8.876934e-004
-4.292107e-004,-3.885323e-004
-3.640604e-004,2.161334e-004
-2.522354e-004,7.550008e-004
-1.245279e-004,1.107169e-003
-1.156841e-005,1.217698e-003
6.638501e-005,1.064708e-003
1.080358e-004,6.417171e-004
1.273216e-004,1.565857e-005
1.401247e-004,-6.442713e-004
1.576278e-004,-1.150725e-003
1.850168e-004,-1.383613e-003
2.237504e-004,-1.321866e-003
2.691287e-004,-1.016859e-003
3.075383e-004,-5.481666e-004
3.247172e-004,9.824214e-006
3.078624e-004,5.820770e-004
2.529222e-004,1.116083e-003
1.714033e-004,1.586073e-003
8.550872e-005,1.948614e-003
1.954813e-005,2.133045e-003
-1.221667e-005,2.064491e-003
-8.651231e-006,1.722532e-003
1.501031e-005,1.155465e-003
3.672705e-005,4.485351e-004
4.126489e-005,-3.065272e-004
1.727922e-005,-1.019939e-003
-3.587821e-005,-1.622984e-003
-1.058904e-004,-2.077253e-003
-1.682856e-004,-2.390202e-003
-1.968091e-004,-2.574632e-003
-1.724992e-004,-2.620497e-003
-9.324932e-005,-2.521313e-003
1.744128e-005,-2.303821e-003
1.292664e-004,-2.024582e-003
2.209953e-004,-1.733350e-003
2.827422e-004,-1.454436e-003
3.196932e-004,-1.193024e-003
3.475684e-004,-9.492782e-004
3.804677e-004,-7.128249e-004
4.214702e-004,-4.668098e-004
4.582590e-004,-2.083157e-004
4.676588e-004,3.429608e-005
4.264942e-004,2.161334e-004
3.127243e-004,3.099692e-004
1.056048e-004,3.206655e-004
-1.716889e-004,2.718839e-004
-4.454172e-004,1.979821e-004
-6.240131e-004,1.373696e-004
-6.562641e-004,1.154908e-004
-5.514079e-004,1.354248e-004
-3.757291e-004,1.765894e-004
-2.126914e-004,2.096508e-004
-1.183694e-004,2.190506e-004
-9.600443e-005,2.112714e-004
-1.123730e-004,2.239125e-004
-1.264727e-004,3.264999e-004
-1.188556e-004,5.618188e-004
-8.449779e-005,8.593709e-004
-1.967167e-005,1.056119e-003
7.805372e-005,1.013009e-003
2.005751e-004,7.144844e-004
3.248792e-004,2.723700e-004
4.229288e-004,-1.613168e-004
4.692795e-004,-4.956574e-004
4.503178e-004,-7.246557e-004
3.736609e-004,-8.940139e-004
2.629703e-004,-1.051217e-003
1.480659e-004,-1.196428e-003
5.390598e-005,-1.282322e-003
-8.489165e-006,-1.257688e-003
-5.370539e-005,-1.110857e-003
-1.036215e-004,-8.685696e-004
-1.783336e-004,-5.757177e-004
-2.804347e-004,-2.708729e-004
-4.010113e-004,2.797553e-005
-5.290429e-004,3.192069e-004
-6.505919e-004,6.149763e-004
-7.423208e-004,9.280867e-004
-7.729511e-004,1.236822e-003
-7.172007e-004,1.485592e-003
-5.679386e-004,1.616055e-003
-3.391023e-004,1.605845e-003
-6.618442e-005,1.479272e-003
2.034923e-004,1.295651e-003
4.208219e-004,1.106197e-003
5.616568e-004,9.373245e-004
6.247002e-004,7.922758e-004
6.216210e-004,6.541961e-004
5.731634e-004,4.956961e-004
5.094717e-004,3.054314e-004
4.662002e-004,9.182927e-005
4.624727e-004,-1.261486e-004
4.960202e-004,-3.387782e-004
5.493397e-004,-5.580526e-004
5.982835e-004,-7.927230e-004
6.208106e-004,-1.031445e-003
6.080074e-004,-1.226896e-003
5.660325e-004,-1.312142e-003
5.107682e-004,-1.246830e-003
4.592314e-004,-1.028366e-003
4.253598e-004,-6.723086e-004
4.033188e-004,-2.258187e-004
3.504856e-004,2.114335e-004
2.120818e-004,5.354022e-004
-2.339917e-005,7.123776e-004
-3.073376e-004,7.781762e-004
-5.561078e-004,8.112375e-004
-7.079630e-004,8.846531e-004
-7.394036e-004,1.003609e-003
-6.637191e-004,1.097931e-003
-5.139708e-004,1.080104e-003
-3.318094e-004,9.143112e-004
-1.530514e-004,6.532237e-004
-4.923729e-006,4.046154e-004
9.685329e-005,2.535705e-004
1.496866e-004,2.266676e-004
1.613553e-004,3.143450e-004
1.495245e-004,4.968306e-004
1.265113e-004,7.409011e-004
9.263960e-005,1.000044e-003
3.899597e-005,1.230825e-003
-4.009190e-005,1.412501e-003
-1.454343e-004,1.533888e-003
