6.118970e-004,-3.710292e-004
7.757451e-004,-3.519055e-004
9.655238e-004,-3.611433e-004
1.169240e-003,-3.833462e-004
1.364529e-003,-3.875599e-004
1.508281e-003,-3.494745e-004
1.560142e-003,-2.613110e-004
1.508281e-003,-1.374931e-004
1.366960e-003,-2.654814e-006
1.158382e-003,1.177597e-004
9.115561e-004,2.044647e-004
6.611649e-004,2.551911e-004
4.345975e-004,2.817698e-004
2.441707e-004,2.973281e-004
8.615698e-005,3.044590e-004
-4.641245e-005,3.010556e-004
-1.536997e-004,2.900352e-004
-2.308428e-004,2.731804e-004
-2.755728e-004,2.529222e-004
-2.906448e-004,2.436845e-004
-2.757348e-004,2.550291e-004
-2.324634e-004,2.811216e-004
-1.840059e-004,3.042969e-004
-1.673132e-004,3.028383e-004
-1.940539e-004,2.686426e-004
-2.391081e-004,2.088404e-004
-2.690902e-004,1.445005e-004
-2.472113e-004,9.604297e-005
-1.579134e-004,6.995045e-005
-3.717472e-005,6.281957e-005
3.721326e-005,6.670914e-005
1.419998e-005,7.529860e-005
-1.047560e-004,7.821578e-005
-2.950206e-004,6.865393e-005
-5.275843e-004,4.693717e-005
-7.651720e-004,1.468617e-005
-9.633778e-004,-1.918548e-005
-1.106968e-003,-4.479180e-005
-1.219603e-003,-5.694669e-005
-1.336614e-003,-5.808115e-005
-1.460918e-003,-5.435365e-005
-1.565450e-003,-5.030201e-005
-1.620391e-003,-4.527799e-005
-1.601105e-003,-3.312309e-005
-1.484580e-003,-1.124428e-005
-1.263199e-003,1.938607e-005
-9.544643e-004,5.649903e-005
-5.820383e-004,9.507057e-005
-1.546721e-004,1.281319e-004
3.114278e-004,1.513072e-004
7.673178e-004,1.590864e-004
1.151251e-003,1.438522e-004
1.420118e-003,1.101426e-004
1.579428e-003,7.416414e-005
1.656410e-003,5.341978e-005
1.682340e-003,5.909207e-005
1.675695e-003,8.842590e-005
1.640203e-003,1.263492e-004
1.559656e-003,1.539003e-004
1.408773e-003,1.571416e-004
1.186905e-003,1.284560e-004
9.292212e-004,6.525056e-005
6.911471e-004,-2.485776e-005
5.221128e-004,-1.293899e-004
4.311941e-004,-2.329496e-004
3.840331e-004,-3.225717e-004
3.433547e-004,-3.888564e-004
2.905214e-004,-4.240246e-004
2.263435e-004,-4.256452e-004
1.574657e-004,-3.955011e-004
8.469840e-005,-3.413713e-004
-2.006553e-006,-2.716832e-004
-1.128592e-004,-1.917850e-004
-2.460769e-004,-1.039456e-004
-3.778360e-004,-4.113402e-006
-4.648650e-004,1.103047e-004
-4.531963e-004,2.360674e-004
-3.096065e-004,3.642611e-004
-5.759496e-005,4.840274e-004
2.201850e-004,5.739737e-004
4.266563e-004,6.044420e-004
5.089855e-004,5.566327e-004
4.640934e-004,4.383250e-004
3.297412e-004,2.822560e-004
1.561692e-004,1.354248e-004
-1.529591e-005,3.980630e-005
-1.679614e-004,1.387585e-005
-3.084720e-004,4.045456e-005
-4.583824e-004,8.696730e-005
-6.368163e-004,1.214872e-004
-8.345360e-004,1.279698e-004
-1.022856e-003,1.073875e-004
-1.175035e-003,6.881599e-005
-1.284267e-003,2.262737e-005
-1.357683e-003,-1.740276e-005
-1.389123e-003,-4.187462e-005
-1.350876e-003,-4.398147e-005
-1.209879e-003,-2.031993e-005
-9.521953e-004,1.954813e-005
-5.945172e-004,6.038860e-005
-1.776853e-004,8.761556e-005
2.412535e-004,9.312579e-005
6.052523e-004,8.259154e-005
8.595330e-004,6.573675e-005
9.687651e-004,4.499239e-005
9.301936e-004,1.468617e-005
7.746107e-004,-2.615428e-005
5.605223e-004,-6.861539e-005
3.545372e-004,-1.016767e-004
2.057612e-004,-1.186936e-004
1.316973e-004,-1.211245e-004
1.206769e-004,-1.159385e-004
1.517934e-004,-1.084835e-004
2.031682e-004,-9.859748e-005
2.556773e-004,-8.514606e-005
2.944109e-004,-6.893953e-005
3.109416e-004,-5.013995e-005
2.986246e-004,-2.680255e-005
2.589186e-004,4.313994e-006
2.094887e-004,4.320967e-005
1.714033e-004,8.226741e-005
1.556830e-004,1.109530e-004
1.645966e-004,1.291043e-004
1.853410e-004,1.432040e-004
2.010613e-004,1.616794e-004
1.947408e-004,1.887443e-004
1.569795e-004,2.174299e-004
9.458438e-005,2.420638e-004
1.646889e-005,2.532463e-004
-9.081834e-005,2.446569e-004
-2.433218e-004,2.125679e-004
-4.309934e-004,1.587622e-004
-6.209339e-004,9.037068e-005
-7.688995e-004,1.598270e-005
-8.484736e-004,-5.565017e-005
-8.690558e-004,-1.195039e-004
-8.612767e-004,-1.767129e-004
-8.439357e-004,-2.220912e-004
-8.013126e-004,-2.485079e-004
-6.949977e-004,-2.449424e-004
-5.060296e-004,-2.097743e-004
-2.535319e-004,-1.558065e-004
2.651694e-005,-1.083214e-004
2.970040e-004,-8.320127e-005
5.431813e-004,-7.461181e-005
7.629420e-004,-6.261898e-005
9.455898e-004,-3.636440e-005
1.067463e-003,-6.176923e-008
1.106845e-003,3.073064e-005
1.064222e-003,4.645098e-005
9.783270e-004,4.596478e-005
8.958357e-004,3.397195e-005
8.514298e-004,1.906194e-005
8.572641e-004,8.041497e-006
9.058837e-004,2.855406e-006
9.650376e-004,4.313994e-006
9.882130e-004,1.403791e-005
9.352176e-004,2.829966e-005
7.955172e-004,4.094075e-005
5.856425e-004,5.001641e-005
3.391410e-004,6.022653e-005
1.017153e-004,6.849186e-005
-8.773910e-005,6.265751e-005
-2.083157e-004,3.121684e-005
-2.655248e-004,-1.934754e-005
-2.836761e-004,-6.586029e-005
-2.836761e-004,-8.028410e-005
-2.791382e-004,-4.236081e-005
-2.741142e-004,4.013043e-005
-2.645523e-004,1.383420e-004
-2.499665e-004,2.188885e-004
-2.417011e-004,2.647530e-004
-2.596904e-004,2.731804e-004
-3.152788e-004,2.504912e-004
-3.920977e-004,2.098128e-004
-4.616237e-004,1.647587e-004
-5.073261e-004,1.260251e-004
-5.300153e-004,9.831188e-005
-5.405495e-004,8.502253e-005
-5.386047e-004,8.550872e-005
-5.141328e-004,9.620503e-005
-4.596789e-004,1.083599e-004
-3.826979e-004,1.179218e-004
-3.065272e-004,1.257009e-004
-2.528836e-004,1.279698e-004
-2.152845e-004,1.258630e-004
-1.750923e-004,1.214872e-004
-1.208004e-004,1.184080e-004
-5.176060e-005,1.171115e-004
2.684107e-005,1.154908e-004
1.070634e-004,1.124116e-004
1.814514e-004,1.041462e-004
2.477361e-004,9.344992e-005
3.067279e-004,8.064676e-005
3.615060e-004,6.670914e-005
4.042912e-004,5.455424e-005
4.232529e-004,4.580272e-005
4.141773e-004,4.320967e-005
3.914881e-004,4.790957e-005
3.707437e-004,5.552663e-005
3.548613e-004,6.249544e-005
3.388168e-004,6.573675e-005
3.136967e-004,6.832980e-005
2.751252e-004,7.221937e-005
2.290986e-004,7.578480e-005
1.804790e-004,7.465034e-005
1.289422e-004,6.606088e-005
6.914012e-005,5.115087e-005
-6.176923e-008,3.218923e-005
-6.748093e-005,1.063454e-005
-1.170729e-004,-9.947754e-006
-1.407345e-004,-2.923352e-005
-1.442999e-004,-4.900549e-005
-1.339277e-004,-7.428768e-005
-1.031353e-004,-1.141557e-004
-4.106429e-005,-1.702303e-004
4.693717e-005,-2.347323e-004
1.341283e-004,-2.899966e-004
1.926339e-004,-3.209511e-004
2.073818e-004,-3.178718e-004
1.853410e-004,-2.781658e-004
1.488763e-004,-2.086398e-004
1.255388e-004,-1.219349e-004
1.313732e-004,-3.263690e-005
1.611932e-004,4.790957e-005
1.874478e-004,1.080358e-004
1.752929e-004,1.409351e-004
9.020861e-005,1.485521e-004
-9.033214e-005,1.381799e-004
-3.546606e-004,1.182459e-004
-6.556159e-004,9.928427e-005
-9.309648e-004,8.372600e-005
-1.126902e-003,6.962632e-005
-1.208096e-003,6.589881e-005
-1.162880e-003,9.393611e-005
-9.927116e-004,1.615174e-004
-7.113663e-004,2.461155e-004
-3.536882e-004,3.107795e-004
1.873781e-005,3.269861e-004
3.394651e-004,2.953833e-004
5.665187e-004,2.342847e-004
6.869333e-004,1.673517e-004
7.065432e-004,1.059289e-004
6.439860e-004,5.698522e-005
5.193577e-004,2.278944e-005
3.621542e-004,1.072688e-006
2.154851e-004,-1.351319e-005
1.034980e-004,-2.226472e-005
2.376183e-005,-3.085418e-005
-5.321919e-005,-4.203669e-005
-1.579134e-004,-5.808115e-005
-2.849726e-004,-7.347736e-005
-4.005251e-004,-8.028410e-005
-4.718338e-004,-7.072224e-005
-5.092709e-004,-5.013995e-005
-5.426563e-004,-3.150244e-005
-5.828486e-004,-2.388537e-005
-6.214201e-004,-2.988179e-005
-6.497815e-004,-4.430560e-005
-6.676087e-004,-5.743289e-005
-6.672845e-004,-5.970180e-005
-6.076446e-004,-4.997788e-005
-4.371519e-004,-3.150244e-005
-1.433275e-004,-1.432352e-005
2.295848e-004,-8.489165e-006
5.789977e-004,-1.594417e-005
7.963275e-004,-2.793700e-005
8.204752e-004,-3.571614e-005
6.444722e-004,-3.749886e-005
3.399513e-004,-3.441962e-005
3.494434e-005,-2.631635e-005
-1.561307e-004,-1.302699e-005
-1.712027e-004,7.393235e-006
-1.205460e-005,3.024445e-005
2.691287e-004,4.953022e-005
5.903423e-004,6.800567e-005
8.653674e-004,8.388807e-005
1.030998e-003,9.798775e-005
1.060980e-003,1.091703e-004
9.681169e-004,1.227837e-004
7.948689e-004,1.359110e-004
5.950422e-004,1.425557e-004
4.198496e-004,1.381799e-004
3.054314e-004,1.224596e-004
2.624841e-004,9.717742e-005
2.786906e-004,6.654707e-005
3.308756e-004,4.515445e-005
3.963500e-004,4.547859e-005
4.634451e-004,7.027457e-005
5.294057e-004,1.148425e-004
5.773771e-004,1.662173e-004
5.872631e-004,2.070577e-004
5.496639e-004,2.239125e-004
4.666864e-004,2.096508e-004
3.491890e-004,1.686482e-004
2.158092e-004,1.188942e-004
8.793970e-005,7.983643e-005
-2.664048e-005,6.395403e-005
-1.279313e-004,7.221937e-005
-2.133397e-004,9.263960e-005
-2.831898e-004,1.081979e-004
-3.444505e-004,1.018773e-004
-4.053871e-004,6.687120e-005
-4.603272e-004,4.313994e-006
-4.982505e-004,-6.634648e-005
-5.042469e-004,-1.154523e-004
-4.624341e-004,-1.196660e-004
-3.627639e-004,-7.785312e-005
-2.117190e-004,-9.785687e-006
-2.971972e-005,6.508849e-005
1.529279e-004,1.394765e-004
3.114278e-004,2.124059e-004
4.380009e-004,2.735045e-004
5.371849e-004,3.054314e-004
6.149763e-004,2.979764e-004
6.682958e-004,2.566497e-004
6.845024e-004,1.944166e-004
6.520892e-004,1.200286e-004
5.751082e-004,3.154097e-005
4.710622e-004,-7.396355e-005
3.647473e-004,-1.930815e-004
2.801492e-004,-3.188442e-004
2.226160e-004,-4.366657e-004
1.775618e-004,-5.154294e-004
1.221355e-004,-5.324463e-004
4.061663e-005,-4.869059e-004
-6.829127e-005,-3.919356e-004
-1.914609e-004,-2.736280e-004
-3.149546e-004,-1.614788e-004
-4.274279e-004,-7.526008e-005
-5.248292e-004,-1.707863e-005
-6.039171e-004,2.894792e-005
-6.569124e-004,8.437427e-005
-6.723086e-004,1.571416e-004
-6.410300e-004,2.363915e-004
-5.650214e-004,3.023521e-004
-4.431483e-004,3.396272e-004
-2.671454e-004,3.425443e-004
-3.960571e-005,3.182345e-004
2.091646e-004,2.811216e-004
4.428628e-004,2.431983e-004
6.318311e-004,2.099749e-004
7.653730e-004,1.845306e-004
8.483505e-004,1.660552e-004
8.989149e-004,1.547106e-004
9.169042e-004,1.474177e-004
8.844911e-004,1.383420e-004
7.870898e-004,1.295905e-004
6.174073e-004,1.221355e-004
3.793332e-004,1.150046e-004
7.724339e-005,1.034980e-004
-2.801106e-004,8.745350e-005
-6.577227e-004,7.562274e-005
-1.000653e-003,7.205730e-005
-1.261416e-003,7.562274e-005
-1.426236e-003,8.032263e-005
-1.499652e-003,8.486046e-005
-1.478908e-003,9.312579e-005
-1.334831e-003,1.062531e-004
-1.048300e-003,1.235941e-004
-6.536711e-004,1.342904e-004
-2.366771e-004,1.308870e-004
9.442231e-005,1.122495e-004
2.574600e-004,8.502253e-005
2.362295e-004,6.006446e-005
5.179913e-005,4.385793e-005
-2.525595e-004,4.142695e-005
-6.097514e-004,4.628891e-005
-9.431196e-004,4.855782e-005
-1.183949e-003,3.867184e-005
-1.293991e-003,1.306552e-005
-1.267574e-003,-2.096819e-005
-1.121067e-003,-5.467778e-005
-8.909347e-004,-7.866345e-005
-6.410300e-004,-8.676671e-005
-4.237005e-004,-8.514606e-005
-2.428356e-004,-8.287714e-005
-6.634648e-005,-8.530812e-005
1.526038e-004,-9.033214e-005
4.506420e-004,-8.871149e-005
8.229063e-004,-6.910160e-005
1.223856e-003,-2.615428e-005
1.571811e-003,2.910999e-005
1.778607e-003,7.351588e-005
1.806320e-003,8.631904e-005
1.698709e-003,5.876794e-005
1.540208e-003,2.623614e-007
1.386246e-003,-6.586029e-005
1.246870e-003,-1.211245e-004
1.095662e-003,-1.535376e-004
8.977805e-004,-1.613168e-004
6.412309e-004,-1.481895e-004
3.579406e-004,-1.261486e-004
8.502253e-005,-1.039456e-004
-1.512687e-004,-8.822530e-005
-3.350507e-004,-7.347736e-005
-4.663236e-004,-5.289506e-005
-5.496251e-004,-2.469570e-005
-5.937069e-004,3.989864e-006
-6.133168e-004,2.651694e-005
-6.061860e-004,4.158902e-005
-5.514079e-004,4.774750e-005
-4.293727e-004,4.499239e-005
-2.454286e-004,3.559260e-005
-2.339917e-005,2.246531e-005
2.153230e-004,5.610517e-006
4.627969e-004,-1.205460e-005
7.177258e-004,-2.550602e-005
9.705479e-004,-2.971972e-005
1.199222e-003,-2.194059e-005
1.361612e-003,-4.275467e-006
1.414445e-003,1.744128e-005
1.332927e-003,3.672705e-005
1.118028e-003,5.455424e-005
8.075100e-004,7.400208e-005
4.598797e-004,9.604297e-005
1.344524e-004,1.148425e-004
-1.272830e-004,1.208390e-004
-2.964792e-004,1.140322e-004
-3.781601e-004,1.007429e-004
-3.920977e-004,8.680524e-005
-3.561192e-004,7.302969e-005
-2.788141e-004,6.184718e-005
-1.658546e-004,5.487837e-005
-3.830918e-005,5.341978e-005
6.362990e-005,5.633696e-005
1.034980e-004,6.508849e-005
5.909207e-005,7.935023e-005
-8.109442e-005,9.409818e-005
-3.251648e-004,1.015532e-004
-6.643674e-004,1.018773e-004
-1.056890e-003,9.863601e-005
-1.440822e-003,9.733949e-005
-1.740643e-003,9.863601e-005
-1.882126e-003,1.013911e-004
-1.837072e-003,1.046324e-004
-1.640163e-003,1.070634e-004
-1.359627e-003,1.101426e-004
-1.067262e-003,1.179218e-004
-8.001781e-004,1.287802e-004
-5.379565e-004,1.359110e-004
-2.251705e-004,1.354248e-004
1.782101e-004,1.294284e-004
6.520892e-004,1.229458e-004
1.099714e-003,1.159770e-004
1.403101e-003,1.059289e-004
1.493696e-003,9.199134e-005
1.361936e-003,7.432621e-005
1.035698e-003,5.358185e-005
5.841838e-004,2.441009e-005
1.226217e-004,-1.399939e-005
-2.271153e-004,-5.451571e-005
-4.044147e-004,-8.822530e-005
-4.271038e-004,-1.057284e-004
-3.523917e-004,-1.037836e-004
-2.417011e-004,-8.368747e-005
-1.355484e-004,-5.321919e-005
-4.932962e-005,-2.145439e-005
3.073064e-005,6.420843e-006
1.268354e-004,2.813760e-005
2.414156e-004,4.304760e-005
3.605336e-004,5.406805e-005
4.533971e-004,6.168512e-005
4.929410e-004,6.589881e-005
4.783551e-004,7.189524e-005
4.350837e-004,8.016056e-005
3.835469e-004,8.793970e-005
3.187208e-004,9.247753e-005
2.145127e-004,9.199134e-005
4.564065e-005,8.550872e-005
-1.898402e-004,7.351588e-005
-4.572480e-004,6.022653e-005
-7.144455e-004,5.001641e-005
-9.231857e-004,4.466826e-005
-1.044411e-003,4.256141e-005
-1.050731e-003,3.802358e-005
-9.408508e-004,3.316162e-005
-7.277349e-004,3.105477e-005
-4.480102e-004,3.267542e-005
-1.658546e-004,3.364782e-005
7.043664e-005,2.894792e-005
2.346088e-004,1.274139e-005
3.242310e-004,-1.335112e-005
3.645853e-004,-4.365734e-005
4.005638e-004,-6.974985e-005
4.809482e-004,-8.628051e-005
6.381517e-004,-8.887356e-005
8.733086e-004,-7.736692e-005
1.151899e-003,-5.435365e-005
1.409097e-003,-2.923352e-005
1.568570e-003,-1.092015e-005
1.585587e-003,-3.858999e-007
1.471006e-003,1.095867e-005
1.283334e-003,2.813760e-005
1.082373e-003,5.341978e-005
8.976184e-004,7.902610e-005
7.149706e-004,9.507057e-005
4.796517e-004,9.652916e-005
1.498487e-004,8.178122e-005
-2.417011e-004,4.985435e-005
-5.873864e-004,6.582909e-006
-7.458862e-004,-3.733679e-005
-6.042412e-004,-7.169464e-005
-1.596961e-004,-8.579432e-005
4.284390e-004,-7.153257e-005
9.323005e-004,-2.826113e-005
1.191119e-003,4.158902e-005
1.141203e-003,1.234320e-004
7.874139e-004,1.953890e-004
2.046267e-004,2.397949e-004
-4.664857e-004,2.456293e-004
-1.059645e-003,2.180782e-004
-1.470642e-003,1.722137e-004
-1.691699e-003,1.260251e-004
-1.796880e-003,9.118101e-005
-1.877588e-003,7.076077e-005
-2.007727e-003,6.136099e-005
-2.203988e-003,5.649903e-005
-2.418077e-003,5.244739e-005
-2.579332e-003,5.001641e-005
-2.623414e-003,4.693717e-005
-2.496841e-003,3.899597e-005
-2.177409e-003,2.813760e-005
-1.703692e-003,2.052053e-005
-1.162718e-003,2.408596e-005
-6.389231e-004,4.385793e-005
-1.916230e-004,7.627100e-005
1.537382e-004,1.117633e-004
3.997534e-004,1.399627e-004
5.679773e-004,1.501728e-004
6.697544e-004,1.393144e-004
7.096225e-004,1.161391e-004
7.097846e-004,9.458438e-005
7.122156e-004,8.712937e-005
7.637523e-004,9.896014e-005
9.066940e-004,1.266733e-004
1.162920e-003,1.577899e-004
1.514116e-003,1.785342e-004
1.893350e-003,1.817755e-004
2.224126e-003,1.762653e-004
2.460581e-003,1.728619e-004
2.589261e-003,1.748067e-004
2.621674e-003,1.731861e-004
2.591368e-003,1.537382e-004
2.536428e-003,1.119254e-004
2.475977e-003,5.504044e-005
2.367069e-003,-5.085794e-006
2.129318e-003,-6.245691e-005
1.733229e-003,-1.138316e-004
1.215267e-003,-1.587237e-004
6.384758e-004,-1.969711e-004
8.907416e-005,-2.211188e-004
-3.331059e-004,-2.214430e-004
-5.460597e-004,-1.953505e-004
-5.125122e-004,-1.567789e-004
-2.533698e-004,-1.225831e-004
1.432040e-004,-1.118868e-004
5.454502e-004,-1.318209e-004
8.170719e-004,-1.763888e-004
8.480264e-004,-2.326255e-004
6.047661e-004,-2.794623e-004
1.492004e-004,-2.948585e-004
-3.916115e-004,-2.635799e-004
-8.799142e-004,-1.895161e-004
-1.216200e-003,-9.827335e-005
-1.375672e-003,-1.756482e-005
-1.405492e-003,3.332369e-005
-1.375834e-003,5.260946e-005
-1.329969e-003,4.402000e-005
-1.280702e-003,1.760335e-005
-1.248289e-003,-1.367526e-005
-1.262713e-003,-3.555407e-005
-1.323649e-003,-3.928157e-005
-1.387016e-003,-2.258885e-005
-1.382803e-003,3.503668e-006
-1.253475e-003,2.586868e-005
-9.792602e-004,4.175108e-005
-5.886829e-004,5.309565e-005
-1.535376e-004,6.200925e-005
2.284503e-004,7.059870e-005
4.794896e-004,7.935023e-005
5.770529e-004,8.583285e-005
5.527431e-004,9.215340e-005
4.652278e-004,9.944633e-005
3.653956e-004,1.065772e-004
2.885766e-004,1.109530e-004
2.469258e-004,1.138701e-004
2.355812e-004,1.197045e-004
2.365536e-004,1.370455e-004
2.258573e-004,1.710792e-004
1.798307e-004,2.174299e-004
7.853991e-005,2.675081e-004
-9.503204e-005,3.128864e-004
-3.327818e-004,3.452995e-004
-5.865761e-004,3.608577e-004
-7.940196e-004,3.610198e-004
-9.051964e-004,3.485408e-004
-8.972552e-004,3.198552e-004
-7.792716e-004,2.707494e-004
-5.893311e-004,2.081922e-004
-3.747567e-004,1.477418e-004
-1.828714e-004,1.052807e-004
-4.236081e-005,8.583285e-005
3.348575e-005,8.518459e-005
5.212327e-005,8.583285e-005
3.040651e-005,7.205730e-005
-1.124428e-005,4.094075e-005
-5.402952e-005,4.313994e-006
-8.660465e-005,-2.566809e-005
-1.055663e-004,-4.446767e-005
-1.081593e-004,-4.787104e-005
-8.790116e-005,-3.976777e-005
-3.766092e-005,-2.307504e-005
4.175108e-005,-3.951337e-006
1.430419e-004,1.257933e-005
2.409294e-004,1.776542e-005
3.089968e-004,7.231170e-006
3.289309e-004,-1.821308e-005
3.072141e-004,-5.548810e-005
2.629703e-004,-9.551824e-005
2.156472e-004,-1.242038e-004
1.780480e-004,-1.295519e-004
1.581140e-004,-1.078352e-004
1.577899e-004,-5.565017e-005
1.618415e-004,2.278944e-005
1.414213e-004,1.049566e-004
8.875003e-005,1.642725e-004
3.218923e-005,1.817755e-004
-8.720958e-007,1.547106e-004
-1.196226e-006,9.993253e-005
1.306552e-005,4.239934e-005
9.175954e-006,1.072688e-006
-2.955766e-005,-1.950961e-005
-9.081834e-005,-1.335112e-005
-1.525652e-004,2.116879e-005
-1.994021e-004,7.691926e-005
-2.288980e-004,1.336421e-004
-2.527216e-004,1.726999e-004
-2.840002e-004,1.848548e-004
-3.220855e-004,1.702689e-004
-3.575778e-004,1.352628e-004
-3.729740e-004,9.150514e-005
-3.447747e-004,4.709924e-005
-2.572594e-004,5.448451e-006
-1.107524e-004,-3.150244e-005
9.280166e-005,-6.197072e-005
3.689610e-004,-8.871149e-005
7.332840e-004,-1.099420e-004
1.178964e-003,-1.219349e-004
1.683637e-003,-1.264727e-004
2.187986e-003,-1.212866e-004
2.591044e-003,-1.044318e-004
2.793303e-003,-7.882551e-005
2.762672e-003,-5.224680e-005
2.548745e-003,-3.036798e-005
2.242926e-003,-1.886135e-005
1.925925e-003,-1.950961e-005
1.645065e-003,-2.745081e-005
1.400508e-003,-3.782299e-005
1.153844e-003,-4.317114e-005
8.624502e-004,-4.057810e-005
5.180612e-004,-2.988179e-005
1.440143e-004,-1.318906e-005
-2.188499e-004,4.476060e-006
-5.194810e-004,1.679302e-005
-7.160662e-004,2.181705e-005
-8.008264e-004,2.246531e-005
-7.909404e-004,2.084466e-005
-7.220627e-004,1.549650e-005
-6.244993e-004,8.041497e-006
-5.146191e-004,5.772582e-006
-3.958252e-004,1.063454e-005
-2.731418e-004,2.116879e-005
-1.731475e-004,3.429608e-005
-1.376552e-004,4.758544e-005
-1.995642e-004,6.022653e-005
-3.478539e-004,6.978838e-005
-5.256395e-004,7.740545e-005
-6.727948e-004,8.518459e-005
-7.565825e-004,1.004187e-004
-7.711684e-004,1.260251e-004
-7.347037e-004,1.610312e-004
-6.791154e-004,2.007372e-004
-6.342232e-004,2.401191e-004
-6.167202e-004,2.728562e-004
-6.282268e-004,2.880904e-004
-6.617744e-004,2.812837e-004
-7.022907e-004,2.532463e-004
-7.304900e-004,2.088404e-004
-7.372968e-004,1.524417e-004
-7.348658e-004,8.291567e-005
-7.385933e-004,-1.196226e-006
-7.531791e-004,-9.324932e-005
-7.664685e-004,-1.695821e-004
-7.625790e-004,-1.977814e-004
-7.371347e-004,-1.600202e-004
-6.948357e-004,-5.678463e-005
-6.465402e-004,8.615698e-005
-5.992171e-004,2.232642e-004
-5.577284e-004,3.115899e-004
-5.292050e-004,3.287688e-004
-5.181845e-004,2.867939e-004
-5.181845e-004,2.158092e-004
-5.175362e-004,1.407730e-004
-5.078123e-004,7.546067e-005
-4.904713e-004,2.376183e-005
-4.694028e-004,-2.161646e-005
-4.463896e-004,-7.526008e-005
-4.211074e-004,-1.444620e-004
-3.911253e-004,-2.301945e-004
-3.549847e-004,-3.151167e-004
-3.149546e-004,-3.669776e-004
-2.791382e-004,-3.588744e-004
-2.553146e-004,-2.880518e-004
-2.447804e-004,-1.749302e-004
-2.412149e-004,-5.289506e-005
-2.318151e-004,5.179913e-005
-2.062088e-004,1.231079e-004
-1.622891e-004,1.553589e-004
-1.067007e-004,1.540623e-004
-4.560212e-005,1.231079e-004
1.695509e-005,6.670914e-005
8.113296e-005,-1.318906e-005
1.492004e-004,-1.065387e-004
2.200230e-004,-1.912988e-004
2.846870e-004,-2.376495e-004
3.279585e-004,-2.224154e-004
3.391410e-004,-1.486757e-004
3.102933e-004,-4.592625e-005
2.441707e-004,4.515445e-005
1.573037e-004,9.490851e-005
7.805372e-005,9.085687e-005
3.526847e-005,3.867184e-005
3.867184e-005,-3.928157e-005
7.789165e-005,-1.117248e-004
1.305629e-004,-1.538618e-004
1.765894e-004,-1.536997e-004
2.094887e-004,-1.130213e-004
2.347709e-004,-4.608832e-005
2.618358e-004,2.586868e-005
2.991108e-004,8.567078e-005
3.462718e-004,1.208390e-004
3.978086e-004,1.334801e-004
4.474007e-004,1.406109e-004
4.896997e-004,1.597346e-004
5.221128e-004,1.974959e-004
5.498260e-004,2.459534e-004
5.749461e-004,2.924662e-004
5.927733e-004,3.282826e-004
6.041179e-004,3.448132e-004
6.242140e-004,3.381686e-004
6.763990e-004,3.091589e-004
7.716935e-004,2.678322e-004
8.927564e-004,2.266676e-004
9.972887e-004,1.926339e-004
1.041209e-003,1.660552e-004
9.972887e-004,1.435281e-004
8.642329e-004,1.247285e-004
6.580856e-004,1.093323e-004
4.128807e-004,9.361198e-005
1.838824e-004,6.832980e-005
2.116879e-005,2.813760e-005
-5.646050e-005,-1.805102e-005
-6.731887e-005,-6.083626e-005
-4.479180e-005,-9.422171e-005
-1.399939e-005,-1.136696e-004
1.646889e-005,-1.099420e-004
4.596478e-005,-7.704279e-005
7.270556e-005,-1.626830e-005
9.588090e-005,5.811968e-005
1.205148e-004,1.297525e-004
1.561692e-004,1.819376e-004
2.086784e-004,2.043026e-004
2.683184e-004,1.921477e-004
3.208276e-004,1.477418e-004
3.616681e-004,8.583285e-005
3.893812e-004,2.878586e-005
4.086670e-004,-7.354708e-006
4.169323e-004,-2.161646e-005
4.055878e-004,-2.615428e-005
3.705817e-004,-3.328516e-005
3.169380e-004,-4.641245e-005
2.561635e-004,-6.650855e-005
2.091646e-004,-8.822530e-005
1.950649e-004,-1.045939e-004
2.161334e-004,-1.073490e-004
2.619979e-004,-9.519411e-005
3.106175e-004,-7.056018e-005
3.412478e-004,-3.944364e-005
3.402754e-004,-9.461557e-006
2.968419e-004,1.403791e-005
2.153230e-004,3.024445e-005
1.128978e-004,4.385793e-005
1.209313e-005,5.633696e-005
-6.229485e-005,6.541262e-005
-9.551824e-005,6.946425e-005
-9.260106e-005,7.076077e-005
-7.169464e-005,7.465034e-005
-6.002593e-005,7.886404e-005
-1.002181e-004,7.870197e-005
-2.387839e-004,7.594687e-005
-4.687546e-004,7.124698e-005
-7.287073e-004,6.362990e-005
-9.439299e-004,5.585077e-005
-1.062400e-003,5.147500e-005
-1.071475e-003,5.115087e-005
-9.943324e-004,5.082674e-005
-8.776453e-004,4.547859e-005
-7.757063e-004,3.850977e-005
-7.285452e-004,3.251336e-005
-7.410243e-004,2.862379e-005
-7.930472e-004,2.651694e-005
-8.429633e-004,3.105477e-005
-8.458805e-004,4.223728e-005
-7.768407e-004,5.666109e-005
-6.420024e-004,6.476436e-005
-4.760475e-004,6.573675e-005
-3.245165e-004,6.492643e-005
-2.246843e-004,6.784360e-005
-1.767129e-004,7.853991e-005
-1.558065e-004,9.701536e-005
-1.332795e-004,1.159770e-004
-8.644258e-005,1.287802e-004
-2.816880e-006,1.297525e-004
1.255388e-004,1.231079e-004
2.947351e-004,1.116012e-004
4.820826e-004,9.717742e-005
6.506307e-004,8.210535e-005
7.663454e-004,6.508849e-005
8.146409e-004,4.029249e-005
7.976240e-004,7.879431e-006
7.277738e-004,-2.826113e-005
6.047661e-004,-6.116039e-005
4.119083e-004,-8.465986e-005
1.517934e-004,-9.843541e-005
-1.248521e-004,-1.055663e-004
-3.267854e-004,-1.049180e-004
-3.723257e-004,-9.389758e-005
-2.308428e-004,-7.380149e-005
7.221937e-005,-4.608832e-005
4.819206e-004,-1.691656e-005
9.379727e-004,7.231170e-006
1.371822e-003,2.538249e-005
1.699033e-003,3.948217e-005
1.839544e-003,5.228533e-005
1.764670e-003,6.573675e-005
1.519950e-003,7.691926e-005
1.215591e-003,8.534666e-005
9.645515e-004,9.020861e-005
8.230683e-004,9.020861e-005
7.819037e-004,8.583285e-005
7.856312e-004,8.097089e-005
7.726659e-004,8.129502e-005
7.005468e-004,8.729143e-005
5.642498e-004,9.118101e-005
3.824124e-004,8.680524e-005
1.759412e-004,7.918817e-005
-4.787104e-005,7.092283e-005
-2.895104e-004,6.217131e-005
-5.447632e-004,5.293359e-005
-8.086055e-004,4.288554e-005
-1.067100e-003,3.429608e-005
-1.293991e-003,2.376183e-005
-1.454436e-003,1.112074e-005
-1.522179e-003,4.244267e-007
-1.497221e-003,-1.027188e-005
-1.394472e-003,-2.388537e-005
-1.235323e-003,-4.236081e-005
-1.032580e-003,-6.440169e-005
-7.846198e-004,-8.255302e-005
-4.846370e-004,-8.919769e-005
-1.431654e-004,-8.320127e-005
1.942546e-004,-6.796713e-005
4.401077e-004,-4.884343e-005
5.198439e-004,-2.939559e-005
4.297355e-004,-8.489165e-006
2.443327e-004,1.193106e-005
6.703327e-005,3.008238e-005
-3.263690e-005,4.385793e-005
-5.095028e-005,4.855782e-005
-2.647842e-005,4.418206e-005
-5.896120e-006,3.688912e-005
-1.399939e-005,3.073064e-005
-5.970180e-005,2.943412e-005
-1.501342e-004,3.202716e-005
-2.955068e-004,3.932010e-005
-4.784785e-004,5.131293e-005
-6.570744e-004,6.314371e-005
-7.966127e-004,7.043664e-005
-8.679213e-004,7.319175e-005
-8.447461e-004,7.351588e-005
-7.178489e-004,7.416414e-005
-5.018159e-004,7.740545e-005
-2.266291e-004,8.210535e-005
7.724339e-005,8.680524e-005
3.778746e-004,8.858796e-005
6.373413e-004,8.761556e-005
7.950310e-004,8.567078e-005
7.917897e-004,8.712937e-005
6.311828e-004,9.004655e-005
3.978086e-004,9.004655e-005
1.861513e-004,8.923622e-005
4.126489e-005,9.053274e-005
-3.798505e-005,9.328785e-005
-7.850138e-005,9.474644e-005
-1.079973e-004,9.296372e-005
-1.405724e-004,8.648111e-005
-1.729855e-004,7.789165e-005
-1.857886e-004,6.460230e-005
-1.596961e-004,4.790957e-005
-9.568031e-005,3.316162e-005
-2.168618e-006,2.230324e-005
1.004187e-004,1.582063e-005
1.788584e-004,1.274139e-005
1.986303e-004,1.501031e-005
1.480659e-004,2.197911e-005
4.596478e-005,3.040651e-005
-6.278104e-005,3.786152e-005
-1.423551e-004,4.580272e-005
-1.746061e-004,5.714729e-005
-1.621271e-004,7.578480e-005
-1.173971e-004,1.046324e-004
-5.856734e-005,1.464453e-004
-5.571990e-006,2.043026e-004
2.376183e-005,2.731804e-004
2.214118e-005,3.425443e-004
2.207145e-006,4.021844e-004
-1.578211e-005,4.425387e-004
-1.659243e-005,4.600418e-004
1.906194e-005,4.524247e-004
1.023635e-004,4.175806e-004
2.360674e-004,3.509718e-004
4.049395e-004,2.506533e-004
5.629533e-004,1.224596e-004
6.554926e-004,-2.339917e-005
6.592201e-004,-1.741199e-004
6.067109e-004,-3.222476e-004
5.550120e-004,-4.674581e-004
5.459364e-004,-6.056998e-004
5.943940e-004,-7.202799e-004
6.942262e-004,-7.805682e-004
8.195028e-004,-7.535032e-004
9.327867e-004,-6.314681e-004
9.908061e-004,-4.441207e-004
9.509380e-004,-2.476975e-004
7.943827e-004,-9.081834e-005
5.420469e-004,5.448451e-006
2.274780e-004,5.147500e-005
-1.243659e-004,6.784360e-005
-4.869059e-004,6.914012e-005
-8.282154e-004,6.654707e-005
-1.116043e-003,6.281957e-005
-1.335642e-003,5.990240e-005
-1.489118e-003,5.860587e-005
-1.568854e-003,5.552663e-005
-1.560751e-003,4.953022e-005
-1.464970e-003,4.402000e-005
-1.299177e-003,4.385793e-005
-1.091247e-003,4.628891e-005
-8.688938e-004,4.418206e-005
-6.578848e-004,3.429608e-005
-4.818819e-004,2.278944e-005
-3.488263e-004,2.197911e-005
-2.480217e-004,4.142695e-005
-1.593720e-004,8.242948e-005
-6.326724e-005,1.338042e-004
5.277152e-005,1.803169e-004
1.761032e-004,2.122438e-004
2.859835e-004,2.229401e-004
3.720402e-004,2.141886e-004
4.313562e-004,1.916615e-004
4.621486e-004,1.633001e-004
4.728449e-004,1.376937e-004
4.856481e-004,1.274836e-004
5.200059e-004,1.440143e-004
5.718669e-004,1.835582e-004
6.170831e-004,2.256952e-004
6.263208e-004,2.517877e-004
5.890458e-004,2.551911e-004
5.076890e-004,2.427121e-004
4.013741e-004,2.216436e-004
2.997591e-004,1.999268e-004
2.261814e-004,1.827479e-004
1.937684e-004,1.739964e-004
2.065715e-004,1.717275e-004
2.629703e-004,1.723757e-004
3.467580e-004,1.726999e-004
4.261701e-004,1.688103e-004
4.626348e-004,1.579519e-004
4.177427e-004,1.398006e-004
2.809595e-004,1.151667e-004
9.118101e-005,8.259154e-005
-8.741497e-005,4.483032e-005
-1.971332e-004,7.069104e-006
-1.966470e-004,-2.469570e-005
-6.504996e-005,-4.949169e-005
1.887443e-004,-7.137050e-005
5.298919e-004,-9.713889e-005
9.073423e-004,-1.250141e-004
1.265831e-003,-1.501342e-004
1.545881e-003,-1.682856e-004
1.688661e-003,-1.784957e-004
1.679261e-003,-1.802784e-004
1.561925e-003,-1.718510e-004
1.412987e-003,-1.454343e-004
1.311372e-003,-1.047560e-004
1.303431e-003,-5.808115e-005
1.364853e-003,-1.497178e-005
1.414770e-003,1.484824e-005
1.361612e-003,3.024445e-005
1.156599e-003,3.721326e-005
8.152892e-004,4.207521e-005
4.057499e-004,4.450619e-005
1.014835e-005,4.337174e-005
-3.052307e-004,3.737532e-005
-5.026262e-004,2.603075e-005
-5.787969e-004,1.468617e-005
-5.737729e-004,6.744974e-006
-5.642110e-004,4.800190e-006
-6.162340e-004,9.500084e-006
-7.517206e-004,1.582063e-005
-9.640261e-004,1.987226e-005
-1.243103e-003,1.873781e-005
-1.534172e-003,1.274139e-005
-1.744209e-003,4.476060e-006
-1.784563e-003,-1.520357e-006
-1.622335e-003,-6.868512e-006
-1.290263e-003,-1.237873e-005
-8.745661e-004,-1.189254e-005
-4.869059e-004,-5.247859e-006
-2.144742e-004,1.002961e-007
-8.773910e-005,-6.176923e-008
-8.725291e-005,-5.571990e-006
-1.671511e-004,-1.205460e-005
-2.827036e-004,-1.707863e-005
-4.055491e-004,-1.497178e-005
-5.223982e-004,-4.113402e-006
-6.222304e-004,1.387585e-005
-6.902979e-004,3.202716e-005
-7.209282e-004,5.017848e-005
-7.180110e-004,6.573675e-005
-6.932150e-004,7.756751e-005
-6.522125e-004,8.696730e-005
-5.875484e-004,9.539470e-005
-4.776682e-004,1.010670e-004
-3.113892e-004,1.023635e-004
-1.054042e-004,9.977046e-005
1.073875e-004,9.863601e-005
2.961937e-004,1.005808e-004
4.401077e-004,1.038221e-004
5.334574e-004,1.094944e-004
5.768909e-004,1.154908e-004
5.697600e-004,1.205148e-004
5.122268e-004,1.214872e-004
4.127187e-004,1.182459e-004
2.775562e-004,1.088461e-004
1.159770e-004,9.620503e-005
-5.662256e-005,8.194328e-005
-2.344082e-004,6.703327e-005
-4.292107e-004,5.293359e-005
-6.483229e-004,4.158902e-005
-8.697041e-004,3.089270e-005
-1.061589e-003,2.522042e-005
-1.194969e-003,2.554455e-005
-1.250720e-003,3.202716e-005
-1.217820e-003,4.175108e-005
-1.102268e-003,4.953022e-005
-9.113549e-004,5.277152e-005
-6.614502e-004,5.293359e-005
-3.893426e-004,5.552663e-005
-1.376552e-004,6.087479e-005
6.525056e-005,6.978838e-005
2.154851e-004,8.097089e-005
3.287688e-004,8.956035e-005
4.286011e-004,9.280166e-005
5.503122e-004,8.923622e-005
7.212912e-004,8.275361e-005
9.335970e-004,7.659513e-005
1.146875e-003,7.238143e-005
1.298082e-003,7.043664e-005
1.325471e-003,7.076077e-005
1.210405e-003,7.189524e-005
9.987473e-004,7.270556e-005
7.812554e-004,7.124698e-005
6.477135e-004,6.411610e-005
6.504686e-004,4.839576e-005
7.904932e-004,2.586868e-005
1.012199e-003,-1.844488e-006
1.218508e-003,-2.761287e-005
1.300189e-003,-4.932962e-005
1.172644e-003,-6.634648e-005
8.198270e-004,-7.590833e-005
3.237448e-004,-7.558420e-005
-1.721751e-004,-6.423963e-005
-5.488148e-004,-4.835723e-005
-7.567446e-004,-3.360929e-005
-7.906162e-004,-2.145439e-005
-6.721465e-004,-1.027188e-005
-4.476861e-004,3.503668e-006
-1.875713e-004,1.646889e-005
2.829966e-005,2.748933e-005
1.485521e-004,3.867184e-005
1.736723e-004,4.758544e-005
1.359110e-004,5.131293e-005
6.330577e-005,5.325772e-005
-3.312309e-005,5.471631e-005
-1.459205e-004,5.617490e-005
-2.587180e-004,5.714729e-005
-3.295405e-004,5.585077e-005
-3.193304e-004,5.341978e-005
-2.227395e-004,4.855782e-005
-7.704279e-005,4.158902e-005
5.050261e-005,4.029249e-005
1.002567e-004,4.466826e-005
4.969228e-005,5.179913e-005
-8.060822e-005,5.358185e-005
-2.441321e-004,4.418206e-005
-3.861013e-004,1.922400e-005
-4.506033e-004,-1.513384e-005
-4.130041e-004,-4.851930e-005
-2.904828e-004,-7.266703e-005
-1.157764e-004,-8.384953e-005
9.231547e-005,-8.303921e-005
3.162897e-004,-7.752898e-005
5.307022e-004,-7.169464e-005
7.070294e-004,-6.521203e-005
8.271199e-004,-5.662256e-005
8.815739e-004,-4.544005e-005
8.669881e-004,-2.793700e-005
7.887104e-004,-2.654814e-006
6.511168e-004,2.813760e-005
4.653899e-004,6.200925e-005
2.478982e-004,9.377405e-005
1.954813e-005,1.154908e-004
-2.003745e-004,1.242423e-004
-4.000389e-004,1.221355e-004
-5.760418e-004,1.148425e-004
-7.210902e-004,1.137081e-004
-8.168708e-004,1.265113e-004
-8.496080e-004,1.514693e-004
-8.167087e-004,1.788584e-004
-7.225489e-004,2.036543e-004
-5.706937e-004,2.240746e-004
-3.643846e-004,2.376881e-004
-1.148040e-004,2.441707e-004
1.501728e-004,2.396328e-004
3.939191e-004,2.256952e-004
5.794839e-004,2.004130e-004
6.686199e-004,1.683241e-004
6.527375e-004,1.297525e-004
5.576051e-004,7.951231e-005
4.289252e-004,1.744128e-005
3.112657e-004,-4.430560e-005
2.294227e-004,-8.952182e-005
1.906891e-004,-1.070249e-004
1.914994e-004,-1.028112e-004
2.232642e-004,-8.773910e-005
2.689667e-004,-7.056018e-005
3.161277e-004,-5.192267e-005
3.524303e-004,-3.441962e-005
3.626405e-004,-2.275091e-005
3.346032e-004,-2.096819e-005
2.613496e-004,-2.680255e-005
1.511452e-004,-3.490581e-005
2.765140e-005,-4.138842e-005
-8.206682e-005,-5.095028e-005
-1.653684e-004,-7.250496e-005
-2.214430e-004,-1.029732e-004
-2.541802e-004,-1.238797e-004
-2.689281e-004,-1.159385e-004
-2.635799e-004,-7.671866e-005
-2.295462e-004,-1.448558e-005
-1.724992e-004,5.617490e-005
-1.094559e-004,1.316973e-004
-6.586029e-005,2.130541e-004
-5.775702e-005,2.900352e-004
-9.017008e-005,3.363859e-004
-1.535376e-004,3.324963e-004
-2.365150e-004,2.741528e-004
-3.279199e-004,1.773998e-004
-4.128421e-004,6.670914e-005
-4.710235e-004,-3.263690e-005
-4.880404e-004,-1.007043e-004
-4.540066e-004,-1.280934e-004
-3.642225e-004,-1.204763e-004
-2.246843e-004,-9.292519e-005
-4.884343e-005,-6.067420e-005
1.519555e-004,-2.842320e-005
3.778746e-004,5.772582e-006
6.256726e-004,3.737532e-005
8.746051e-004,6.006446e-005
1.088694e-003,7.221937e-005
1.237632e-003,7.351588e-005
1.305862e-003,6.946425e-005
1.289817e-003,7.124698e-005
1.204571e-003,8.729143e-005
1.079618e-003,1.187321e-004
9.530449e-004,1.564933e-004
8.545090e-004,1.842065e-004
7.849829e-004,1.897167e-004
7.340944e-004,1.631380e-004
6.892022e-004,1.124116e-004
6.294001e-004,5.390598e-005
5.268127e-004,3.989864e-006
3.678265e-004,-3.020592e-005
1.714033e-004,-5.273300e-005
-3.004385e-005,-6.942573e-005
-2.075054e-004,-8.903562e-005
-3.465574e-004,-1.086455e-004
-4.450931e-004,-1.212866e-004
-5.097571e-004,-1.248521e-004
-5.543251e-004,-1.201522e-004
-5.893311e-004,-1.092938e-004
-6.228787e-004,-8.854943e-005
-6.507539e-004,-5.273300e-005
-6.674466e-004,-1.520357e-006
-6.711741e-004,5.455424e-005
-6.679328e-004,1.010670e-004
-6.622605e-004,1.318594e-004
-6.569124e-004,1.461212e-004
-6.538332e-004,1.548727e-004
-6.479988e-004,1.647587e-004
-6.322784e-004,1.730240e-004
-6.034308e-004,1.680000e-004
-5.599973e-004,1.433660e-004
-5.003573e-004,1.023635e-004
-4.279141e-004,6.006446e-005
-3.449367e-004,2.278944e-005
-2.519113e-004,-1.075808e-005
-1.522411e-004,-4.365734e-005
-5.467778e-005,-7.088431e-005
3.299956e-005,-8.417366e-005
9.814982e-005,-8.125648e-005
1.240803e-004,-6.148453e-005
1.052807e-004,-3.344722e-005
5.147500e-005,-6.868512e-006
-1.724069e-005,1.727922e-005
-8.547019e-005,4.061663e-005
-1.428413e-004,6.314371e-005
-1.859507e-004,8.486046e-005
-2.112329e-004,1.072255e-004
-2.193361e-004,1.342904e-004
-2.165810e-004,1.660552e-004
-2.091260e-004,1.973338e-004
-2.028055e-004,2.232642e-004
-2.018331e-004,2.352571e-004
-2.062088e-004,2.273159e-004
-2.066950e-004,2.007372e-004
-1.891920e-004,1.600588e-004
-1.426792e-004,1.054428e-004
-6.229485e-005,3.980630e-005
5.228533e-005,-3.117831e-005
1.939304e-004,-9.697682e-005
3.553475e-004,-1.519170e-004
5.229231e-004,-1.911368e-004
6.705647e-004,-2.086398e-004
7.703970e-004,-1.994021e-004
8.050791e-004,-1.645580e-004
7.645627e-004,-1.131834e-004
6.464170e-004,-5.743289e-005
4.700898e-004,-7.678839e-006
2.817698e-004,2.732727e-005
1.375317e-004,4.175108e-005
6.006446e-005,4.013043e-005
2.765140e-005,2.943412e-005
-7.100305e-007,2.100672e-005
-6.116039e-005,2.116879e-005
-1.671511e-004,2.797553e-005
-3.018273e-004,3.818564e-005
-4.324520e-004,5.568870e-005
-5.309877e-004,8.113296e-005
-5.875484e-004,1.116012e-004
-5.974344e-004,1.359110e-004
-5.570801e-004,1.331559e-004
-4.638926e-004,9.507057e-005
-3.227338e-004,3.348575e-005
-1.460826e-004,-2.372330e-005
2.813760e-005,-5.646050e-005
1.404489e-004,-5.402952e-005
1.399627e-004,-2.631635e-005
1.792748e-005,1.549650e-005
-1.948643e-004,6.233338e-005
-4.510895e-004,1.094944e-004
-7.003458e-004,1.475797e-004
-8.789418e-004,1.705930e-004
-9.296683e-004,1.785342e-004
-8.304843e-004,1.726999e-004
-6.045653e-004,1.534141e-004
-3.160891e-004,1.213252e-004
-4.997788e-005,7.675719e-005
1.294284e-004,2.165498e-005
2.098128e-004,-3.895744e-005
2.347709e-004,-1.003802e-004
2.553532e-004,-1.575892e-004
3.041349e-004,-2.055606e-004
3.838710e-004,-2.368392e-004
4.751138e-004,-2.468872e-004
5.399400e-004,-2.327876e-004
5.350781e-004,-2.000504e-004
4.287631e-004,-1.519170e-004
2.508154e-004,-9.195280e-005
8.097089e-005,-2.210265e-005
-5.896120e-006,5.374392e-005
1.209313e-005,1.260251e-004
1.062531e-004,1.799928e-004
2.318537e-004,2.052750e-004
3.516200e-004,1.996027e-004
4.448076e-004,1.675138e-004
5.130371e-004,1.235941e-004
5.611706e-004,7.837785e-005
5.908285e-004,3.964423e-005
5.986076e-004,1.954813e-005
5.775391e-004,2.019640e-005
5.193577e-004,3.364782e-005
4.188771e-004,4.823369e-005
3.030004e-004,6.136099e-005
2.235884e-004,7.789165e-005
2.158092e-004,9.782569e-005
2.746390e-004,1.184080e-004
3.670162e-004,1.362352e-004
4.527488e-004,1.524417e-004
5.109303e-004,1.683241e-004
5.462606e-004,1.838824e-004
5.867769e-004,1.949028e-004
6.587339e-004,1.987924e-004
7.609972e-004,1.953890e-004
8.525642e-004,1.908512e-004
8.681225e-004,1.866375e-004
7.519216e-004,1.843686e-004
4.841895e-004,1.825858e-004
8.567078e-005,1.780480e-004
-3.909633e-004,1.694586e-004
-8.752143e-004,1.514693e-004
-1.305984e-003,1.244044e-004
-1.629952e-003,9.263960e-005
-1.790559e-003,5.860587e-005
-1.732702e-003,2.441009e-005
-1.459946e-003,-6.058186e-006
-1.035173e-003,-2.890940e-005
-5.522182e-004,-4.090223e-005
-1.024870e-004,-3.960571e-005
2.529222e-004,-2.712668e-005
5.093096e-004,-8.651231e-006
6.964952e-004,1.079661e-005
8.549952e-004,2.522042e-005
1.004744e-003,3.299956e-005
1.104738e-003,3.137890e-005
1.100038e-003,2.197911e-005
9.831890e-004,7.069104e-006
8.007033e-004,-1.254080e-005
6.214589e-004,-3.215070e-005
4.764104e-004,-4.819516e-005
3.530786e-004,-5.970180e-005
2.410914e-004,-6.537409e-005
1.485521e-004,-6.521203e-005
9.474644e-005,-5.678463e-005
9.393611e-005,-4.268495e-005
1.351007e-004,-2.858526e-005
2.096508e-004,-1.626830e-005
3.102933e-004,-6.544382e-006
4.161220e-004,4.313994e-006
4.890515e-004,2.084466e-005
5.005581e-004,4.239934e-005
4.543695e-004,6.298164e-005
3.811159e-004,7.772959e-005
3.146691e-004,8.696730e-005
2.663736e-004,9.263960e-005
2.312054e-004,9.960840e-005
2.012234e-004,1.041462e-004
1.696206e-004,1.054428e-004
1.323456e-004,1.031738e-004
8.810177e-005,9.717742e-005
3.996836e-005,8.210535e-005
-3.465141e-006,5.601283e-005
-3.636440e-005,1.938607e-005
-6.245691e-005,-2.210265e-005
-9.568031e-005,-5.970180e-005
-1.438137e-004,-8.449779e-005
-2.005366e-004,-9.276313e-005
-2.506147e-004,-8.093235e-005
-2.917793e-004,-4.819516e-005
-3.365093e-004,3.665733e-006
-4.029561e-004,6.346784e-005
-4.984125e-004,1.171115e-004
-6.125065e-004,1.595726e-004
-7.188214e-004,1.871237e-004
-7.962885e-004,2.015475e-004
-8.312946e-004,2.073818e-004
-8.220569e-004,2.081922e-004
-7.697098e-004,2.021958e-004
-6.825187e-004,1.850168e-004
-5.734488e-004,1.493625e-004
-4.638926e-004,9.426025e-005
-3.736223e-004,3.154097e-005
-3.144684e-004,-1.918548e-005
-2.917793e-004,-4.819516e-005
-3.006929e-004,-5.824321e-005
-3.245165e-004,-6.180866e-005
-3.454229e-004,-6.537409e-005
-3.556330e-004,-6.521203e-005
-3.519055e-004,-5.662256e-005
-3.261371e-004,-4.268495e-005
-2.758969e-004,-2.793700e-005
-2.049123e-004,-1.480971e-005
-1.190177e-004,-1.682422e-006
-2.388537e-005,1.468617e-005
5.941620e-005,3.186510e-005
1.005808e-004,4.726130e-005
8.567078e-005,6.184718e-005
4.223728e-005,7.594687e-005
1.533444e-005,8.923622e-005
4.077869e-005,9.798775e-005
1.333180e-004,9.863601e-005
2.846870e-004,9.280166e-005
4.555039e-004,8.631904e-005
5.926113e-004,8.421220e-005
6.541961e-004,8.064676e-005
6.303724e-004,6.735740e-005
5.473950e-004,4.077869e-005
4.493454e-004,-2.654814e-006
3.655576e-004,-5.743289e-005
3.049452e-004,-1.122110e-004
2.676701e-004,-1.554824e-004
2.650771e-004,-1.768750e-004
3.000832e-004,-1.715269e-004
3.621542e-004,-1.446240e-004
4.305458e-004,-1.078352e-004
4.788413e-004,-6.845333e-005
4.824068e-004,-3.344722e-005
4.392974e-004,-8.651231e-006
3.781987e-004,2.207145e-006
3.370341e-004,6.420843e-006
3.344411e-004,1.128280e-005
3.558337e-004,2.343770e-005
3.640990e-004,4.256141e-005
3.294171e-004,6.346784e-005
2.367157e-004,8.178122e-005
8.194328e-005,9.037068e-005
-1.123730e-004,8.307774e-005
-2.959930e-004,6.200925e-005
-4.074939e-004,3.688912e-005
-4.065215e-004,1.549650e-005
-3.027998e-004,1.396819e-006
-1.520790e-004,-3.627206e-006
-1.724069e-005,2.693341e-006
4.936815e-005,2.165498e-005
2.181705e-005,4.839576e-005
-9.924574e-005,7.432621e-005
-2.898345e-004,9.361198e-005
-5.087847e-004,1.047945e-004
-6.967805e-004,1.049566e-004
-7.909404e-004,9.199134e-005
-7.551239e-004,7.092283e-005
-6.207718e-004,4.888196e-005
-4.768579e-004,3.202716e-005
-4.021458e-004,2.359977e-005
-4.235384e-004,1.971020e-005
-5.052193e-004,1.517237e-005
-5.783107e-004,4.962256e-006
-5.779866e-004,-9.299492e-006
-4.753993e-004,-2.015787e-005
-2.793003e-004,-1.772689e-005
-1.626830e-005,4.151929e-006
2.647530e-004,4.304760e-005
5.007202e-004,8.469840e-005
6.344241e-004,1.172735e-004
6.412309e-004,1.336421e-004
5.388056e-004,1.367214e-004
3.710678e-004,1.312111e-004
1.902029e-004,1.214872e-004
4.223728e-005,1.094944e-004
-4.560212e-005,9.539470e-005
-7.785312e-005,8.226741e-005
-6.780506e-005,7.578480e-005
-2.923352e-005,7.870197e-005
2.392390e-005,9.247753e-005
7.870197e-005,1.154908e-004
1.331559e-004,1.404489e-004
1.974959e-004,1.634621e-004
2.814457e-004,1.832341e-004
3.880847e-004,1.999268e-004
5.021787e-004,2.090025e-004
5.943940e-004,2.034923e-004
6.402585e-004,1.772377e-004
6.313449e-004,1.297525e-004
5.728393e-004,6.573675e-005
4.764104e-004,-6.176923e-008
3.644232e-004,-5.078821e-005
2.608634e-004,-7.137050e-005
1.764274e-004,-5.694669e-005
1.059289e-004,-1.772689e-005
2.975825e-005,2.424803e-005
-6.213279e-005,4.466826e-005
-1.590478e-004,3.186510e-005
-2.382978e-004,-2.816880e-006
-2.801106e-004,-3.879538e-005
-2.804347e-004,-6.618442e-005
-2.434839e-004,-8.530812e-005
-1.848162e-004,-9.600443e-005
-1.256624e-004,-9.859748e-005
-8.498399e-005,-9.405964e-005
-6.067420e-005,-8.644258e-005
-3.749886e-005,-7.639453e-005
5.448451e-006,-6.180866e-005
7.416414e-005,-4.284701e-005
1.535762e-004,-1.934754e-005
2.185644e-004,6.258778e-006
2.461155e-004,3.008238e-005
2.216436e-004,4.823369e-005
1.414213e-004,6.087479e-005
2.408596e-005,6.589881e-005
-9.179074e-005,6.492643e-005
-1.681235e-004,6.119892e-005
-1.924333e-004,5.844381e-005
-1.741199e-004,5.649903e-005
-1.272830e-004,5.698522e-005
-5.727082e-005,5.779555e-005
3.786152e-005,5.374392e-005
1.658931e-004,3.915804e-005
3.299032e-004,5.286386e-006
5.240575e-004,-4.819516e-005
7.245325e-004,-1.075111e-004
8.848152e-004,-1.520790e-004
9.553137e-004,-1.661787e-004
9.138250e-004,-1.434896e-004
7.778521e-004,-9.243900e-005
5.984456e-004,-2.907146e-005
4.310320e-004,2.522042e-005
3.021901e-004,5.439218e-005
2.112714e-004,5.763348e-005
1.521176e-004,4.693717e-005
1.331559e-004,3.380988e-005
1.631380e-004,3.478227e-005
2.331502e-004,6.006446e-005
3.012177e-004,1.038221e-004
3.089968e-004,1.532520e-004
2.137024e-004,1.986303e-004
5.286386e-006,2.359053e-004
-3.008549e-004,2.561635e-004
-6.807360e-004,2.571359e-004
-1.097244e-003,2.430362e-004
-1.494628e-003,2.245608e-004
-1.813411e-003,2.104611e-004
-2.008213e-003,2.083542e-004
-2.064774e-003,2.137024e-004
-2.004810e-003,2.166196e-004
-1.870133e-003,2.135403e-004
-1.693320e-003,2.078680e-004
-1.483445e-003,2.021958e-004
-1.230786e-003,1.913374e-004
-9.254545e-004,1.663793e-004
-5.575664e-004,1.252147e-004
-1.290658e-004,7.627100e-005
3.391410e-004,2.667901e-005
8.094548e-004,-1.237873e-005
1.242656e-003,-3.782299e-005
1.608276e-003,-5.548810e-005
1.891729e-003,-6.586029e-005
2.090422e-003,-6.845333e-005
2.202247e-003,-6.213279e-005
2.228178e-003,-4.803310e-005
2.177613e-003,-3.377135e-005
2.057198e-003,-2.323711e-005
1.866285e-003,-1.562004e-005
1.600821e-003,-1.205460e-005
1.274097e-003,-1.254080e-005
9.191731e-004,-1.626830e-005
5.687876e-004,-2.015787e-005
2.493568e-004,-1.967167e-005
-1.983374e-005,-1.270286e-005
-2.203085e-004,-2.492749e-006
-3.429920e-004,6.582909e-006
-3.927460e-004,1.160693e-005
-3.745946e-004,9.662150e-006
-2.946965e-004,7.485573e-007
-1.836818e-004,-1.205460e-005
-7.898758e-005,-2.518189e-005
4.800190e-006,-3.620233e-005
6.849186e-005,-3.652646e-005
1.065772e-004,-2.388537e-005
9.928427e-005,1.720949e-006
2.457216e-005,3.899597e-005
-1.230693e-004,7.853991e-005
-3.217614e-004,1.098185e-004
-5.296912e-004,1.247285e-004
-6.985632e-004,1.179218e-004
-7.948300e-004,8.648111e-005
-8.069848e-004,3.591673e-005
-7.429690e-004,-2.242678e-005
-6.244993e-004,-7.137050e-005
-4.828543e-004,-9.843541e-005
-3.541744e-004,-1.097800e-004
-2.679557e-004,-1.232314e-004
-2.381357e-004,-1.486757e-004
-2.559629e-004,-1.755785e-004
-2.984240e-004,-1.861127e-004
-3.399127e-004,-1.721751e-004
-3.642225e-004,-1.451102e-004
-3.660052e-004,-1.209625e-004
-3.491504e-004,-9.827335e-005
-3.193304e-004,-6.261898e-005
-2.865932e-004,-9.299492e-006
-2.590421e-004,4.758544e-005
-2.365150e-004,9.004655e-005
-2.118811e-004,1.104668e-004
-1.804405e-004,1.119254e-004
-1.366828e-004,1.030118e-004
-8.158062e-005,8.810177e-005
-3.117831e-005,6.654707e-005
-6.176923e-008,4.450619e-005
8.689757e-006,2.392390e-005
-2.492749e-006,2.693341e-006
-2.809907e-005,-2.307504e-005
-6.164659e-005,-5.127441e-005
-9.584237e-005,-7.769105e-005
-1.261486e-004,-1.002181e-004
-1.473791e-004,-1.138316e-004
-1.598582e-004,-1.144799e-004
-1.718510e-004,-9.875954e-005
-1.797922e-004,-6.504996e-005
-1.734716e-004,-1.756482e-005
-1.452723e-004,3.948217e-005
-9.389758e-005,9.750155e-005
-3.053005e-005,1.477418e-004
2.684107e-005,1.824238e-004
6.362990e-005,2.012234e-004
7.691926e-005,2.099749e-004
7.367795e-005,2.141886e-004
6.573675e-005,2.149989e-004
5.893001e-005,2.138645e-004
5.374392e-005,2.133783e-004
4.499239e-005,2.175920e-004
3.624086e-005,2.247228e-004
3.672705e-005,2.323399e-004
5.763348e-005,2.352571e-004
1.039842e-004,2.294227e-004
1.723757e-004,2.187264e-004
2.491947e-004,2.072198e-004
3.136967e-004,1.940925e-004
3.493511e-004,1.782101e-004
3.532407e-004,1.581140e-004
3.208276e-004,1.380179e-004
2.524360e-004,1.193804e-004
1.608691e-004,1.046324e-004
8.761556e-005,9.685329e-005
8.972242e-005,9.458438e-005
1.983062e-004,9.571883e-005
3.940811e-004,1.009049e-004
6.277794e-004,1.111150e-004
8.420299e-004,1.192183e-004
9.898336e-004,1.185700e-004
1.052715e-003,1.104668e-004
1.038778e-003,1.033359e-004
9.650376e-004,1.046324e-004
8.301992e-004,1.188942e-004
6.219451e-004,1.419075e-004
3.399513e-004,1.668655e-004
9.338019e-006,1.880961e-004
-3.241924e-004,2.018716e-004
-6.097514e-004,2.055991e-004
-8.052021e-004,2.041405e-004
-8.904485e-004,1.974959e-004
-8.842900e-004,1.830720e-004
-8.416668e-004,1.607070e-004
-8.411806e-004,1.261871e-004
-9.280476e-004,6.573675e-005
-1.059807e-003,-2.793700e-005
-1.139705e-003,-1.460826e-004
-1.074393e-003,-2.572594e-004
-8.275671e-004,-3.245165e-004
-4.572480e-004,-3.342404e-004
-7.801519e-005,-3.026377e-004
2.104611e-004,-2.593662e-004
3.838710e-004,-2.235498e-004
4.916445e-004,-1.979435e-004
5.973111e-004,-1.797922e-004
7.366874e-004,-1.650442e-004
9.028045e-004,-1.472171e-004
1.049636e-003,-1.272830e-004
1.126455e-003,-1.028112e-004
1.101497e-003,-7.623246e-005
9.763822e-004,-5.143647e-005
7.859553e-004,-3.036798e-005
5.825632e-004,-1.432352e-005
4.138531e-004,-1.286493e-005
3.049452e-004,-3.166451e-005
2.547049e-004,-6.537409e-005
2.459534e-004,-1.015147e-004
2.566497e-004,-1.269589e-004
2.692908e-004,-1.303623e-004
2.807975e-004,-1.063766e-004
2.919800e-004,-6.035006e-005
3.000832e-004,-6.220251e-006
2.942489e-004,4.580272e-005
2.683184e-004,8.567078e-005
2.205091e-004,1.125736e-004
1.587622e-004,1.307249e-004
1.012291e-004,1.445005e-004
6.492643e-005,1.534141e-004
5.309565e-005,1.564933e-004
6.508849e-005,1.527658e-004
1.007429e-004,1.436902e-004
1.602208e-004,1.333180e-004
2.383363e-004,1.261871e-004
3.277964e-004,1.224596e-004
4.190392e-004,1.182459e-004
4.856481e-004,1.128978e-004
4.768966e-004,1.047945e-004
3.477304e-004,9.215340e-005
1.138701e-004,7.513654e-005
-1.464067e-004,5.698522e-005
-3.476918e-004,4.077869e-005
-4.425000e-004,3.251336e-005
-4.292107e-004,3.883391e-005
-3.467194e-004,6.200925e-005
-2.545043e-004,9.539470e-005
-2.019951e-004,1.274836e-004
-2.120432e-004,1.495245e-004
-2.608248e-004,1.566554e-004
-3.078238e-004,1.456350e-004
-3.243544e-004,1.180839e-004
-3.071755e-004,8.080882e-005
-2.652006e-004,4.061663e-005
-2.039399e-004,1.234753e-006
-1.329553e-004,-2.858526e-005
-6.667061e-005,-4.576419e-005
-1.756482e-005,-5.176060e-005
-1.196226e-006,-5.176060e-005
-2.874733e-005,-4.997788e-005
-9.632856e-005,-4.511592e-005
-1.823852e-004,-3.312309e-005
-2.621213e-004,-8.813297e-006
-3.147926e-004,2.910999e-005
-3.379679e-004,7.756751e-005
-3.334301e-004,1.232699e-004
-3.074996e-004,1.506590e-004
-2.632558e-004,1.573037e-004
-1.974573e-004,1.456350e-004
-1.054042e-004,1.159770e-004
1.396819e-006,6.995045e-005
1.065772e-004,1.695509e-005
1.866375e-004,-2.453363e-005
2.182402e-004,-3.539201e-005
1.822617e-004,-1.529591e-005
7.092283e-005,1.598270e-005
-9.486997e-005,4.223728e-005
-2.784900e-004,5.568870e-005
-4.587065e-004,5.228533e-005
-6.473506e-004,2.878586e-005
-8.523631e-004,-9.137427e-006
-1.044735e-003,-4.787104e-005
-1.173415e-003,-7.444974e-005
-1.191728e-003,-7.995997e-005
-1.082172e-003,-6.586029e-005
-8.713248e-004,-4.155049e-005
-6.185029e-004,-1.983374e-005
-3.906391e-004,-5.409925e-006
-2.258187e-004,7.393235e-006
-1.209625e-004,2.522042e-005
-5.467778e-005,4.920609e-005
-3.951337e-006,7.059870e-005
4.645098e-005,8.064676e-005
1.023635e-004,8.097089e-005
1.647587e-004,7.416414e-005
2.376881e-004,6.492643e-005
3.269861e-004,5.601283e-005
4.397836e-004,4.969228e-005
5.883976e-004,4.353380e-005
7.841726e-004,3.607880e-005
1.019005e-003,2.246531e-005
1.257566e-003,2.693341e-006
1.454962e-003,-1.399939e-005
1.571001e-003,-2.015787e-005
1.574566e-003,-1.562004e-005
1.445238e-003,-5.247859e-006
1.189174e-003,1.014835e-005
8.478643e-004,3.073064e-005
4.947237e-004,5.034054e-005
2.158092e-004,6.525056e-005
7.238143e-005,7.529860e-005
6.411610e-005,7.935023e-005
1.218114e-004,7.756751e-005
1.414213e-004,7.124698e-005
3.024445e-005,6.525056e-005
-2.410529e-004,6.217131e-005
-6.240131e-004,6.460230e-005
-1.026583e-003,7.205730e-005
-1.350876e-003,8.469840e-005
-1.527041e-003,9.863601e-005
-1.534010e-003,1.075496e-004
-1.397551e-003,1.091703e-004
-1.170173e-003,1.047945e-004
-9.042240e-004,9.863601e-005
-6.548056e-004,9.361198e-005
-4.710235e-004,8.858796e-005
-3.705430e-004,7.740545e-005
-3.230579e-004,6.265751e-005
-2.548284e-004,5.374392e-005
-1.071869e-004,5.423011e-005
1.174356e-004,6.200925e-005
3.590750e-004,7.092283e-005
5.402641e-004,7.853991e-005
6.216210e-004,8.145709e-005
6.198382e-004,8.080882e-005
5.713807e-004,7.740545e-005
4.921307e-004,6.897806e-005
3.864641e-004,5.747142e-005
2.739907e-004,4.175108e-005
2.033302e-004,2.635488e-005
2.167816e-004,1.565857e-005
3.166139e-004,1.565857e-005
4.566384e-004,2.586868e-005
5.783495e-004,4.045456e-005
6.407447e-004,5.196120e-005
6.507927e-004,5.552663e-005
6.457687e-004,5.212327e-005
6.593821e-004,4.693717e-005
6.955228e-004,4.207521e-005
7.412253e-004,3.170303e-005
7.801210e-004,1.144487e-005
8.016757e-004,-1.691656e-005
7.926000e-004,-4.430560e-005
7.389563e-004,-6.261898e-005
6.441480e-004,-6.910160e-005
5.311884e-004,-6.764300e-005
4.269804e-004,-6.440169e-005
3.485408e-004,-6.180866e-005
3.004074e-004,-5.710876e-005
2.786906e-004,-4.333321e-005
2.744769e-004,-1.950961e-005
2.726942e-004,6.258778e-006
2.594048e-004,2.570661e-005
2.248849e-004,3.073064e-005
1.610312e-004,2.165498e-005
6.200925e-005,3.503668e-006
-7.914964e-005,-1.724069e-005
-2.619593e-004,-3.474375e-005
-4.779923e-004,-4.090223e-005
-7.244936e-004,-2.599222e-005
-9.888221e-004,2.441009e-005
-1.234837e-003,1.117633e-004
-1.413271e-003,2.141886e-004
-1.490414e-003,2.950592e-004
-1.459298e-003,3.264999e-004
-1.332725e-003,3.068900e-004
-1.138084e-003,2.555152e-004
-9.089239e-004,1.978200e-004
-6.752257e-004,1.501728e-004
-4.407173e-004,1.177597e-004
-1.854645e-004,9.490851e-005
1.112771e-004,7.254349e-005
4.517764e-004,3.883391e-005
8.183684e-004,-1.124428e-005
1.173940e-003,-7.931171e-005
1.463551e-003,-1.543479e-004
1.631938e-003,-2.216050e-004
1.668402e-003,-2.720073e-004
1.588504e-003,-2.972895e-004
1.432759e-003,-2.930758e-004
1.268262e-003,-2.567732e-004
1.164540e-003,-1.924333e-004
1.143634e-003,-1.135075e-004
1.172968e-003,-3.604027e-005
1.202626e-003,2.878586e-005
1.193064e-003,8.048469e-005
1.127103e-003,1.252147e-004
1.005554e-003,1.626518e-004
8.276061e-004,1.864754e-004
5.827252e-004,1.861513e-004
2.647530e-004,1.610312e-004
-1.070249e-004,1.268354e-004
-4.911196e-004,1.059289e-004
-8.351842e-004,1.047945e-004
-1.088168e-003,1.127357e-004
-1.218955e-003,1.175977e-004
-1.229165e-003,1.101426e-004
-1.161908e-003,9.393611e-005
-1.096109e-003,7.627100e-005
-1.114099e-003,6.687120e-005
-1.240671e-003,6.444023e-005
-1.420564e-003,6.233338e-005
-1.561075e-003,5.050261e-005
-1.591867e-003,2.716520e-005
-1.490576e-003,-3.303075e-006
-1.268223e-003,-3.863331e-005
-9.392301e-004,-8.158062e-005
-5.353634e-004,-1.276072e-004
-1.303623e-004,-1.618029e-004
1.697827e-004,-1.702303e-004
2.807975e-004,-1.454343e-004
2.055991e-004,-9.584237e-005
3.462021e-005,-3.571614e-005
-1.094559e-004,1.906194e-005
-1.363587e-004,5.601283e-005
-2.177852e-005,7.173317e-005
1.856651e-004,7.367795e-005
3.851675e-004,7.270556e-005
4.791655e-004,7.853991e-005
4.130428e-004,9.377405e-005
1.872858e-004,1.101426e-004
-1.488377e-004,1.182459e-004
-5.209396e-004,1.151667e-004
-8.601422e-004,1.052807e-004
-1.116043e-003,9.604297e-005
-1.249099e-003,9.344992e-005
-1.208745e-003,9.652916e-005
-9.551125e-004,9.912220e-005
-4.932265e-004,9.717742e-005
1.109530e-004,8.729143e-005
6.987641e-004,6.379197e-005
1.094528e-003,2.959618e-005
1.185285e-003,-8.165034e-006
9.619584e-004,-4.462973e-005
5.342677e-004,-7.428768e-005
8.518459e-005,-9.017008e-005
-2.112329e-004,-8.919769e-005
-2.708729e-004,-7.542214e-005
-1.144799e-004,-5.159854e-005
1.534141e-004,-2.518189e-005
4.055878e-004,-7.100305e-007
5.527431e-004,2.230324e-005
5.700841e-004,4.450619e-005
4.874308e-004,6.606088e-005
3.647473e-004,8.567078e-005
2.585945e-004,1.010670e-004
1.895547e-004,1.085220e-004
1.477418e-004,1.093323e-004
1.069013e-004,1.083599e-004
5.179913e-005,1.111150e-004
-2.978945e-006,1.218114e-004
-2.404744e-005,1.370455e-004
1.484824e-005,1.522796e-004
1.067393e-004,1.673517e-004
2.177540e-004,1.820997e-004
3.088348e-004,1.940925e-004
3.574544e-004,2.034923e-004
3.673404e-004,2.081922e-004
3.577785e-004,2.078680e-004
3.477304e-004,1.991165e-004
3.474063e-004,1.829100e-004
3.542131e-004,1.642725e-004
3.653956e-004,1.504969e-004
3.850055e-004,1.435281e-004
4.177427e-004,1.409351e-004
4.657140e-004,1.355869e-004
5.247058e-004,1.237561e-004
5.804563e-004,1.017153e-004
6.183797e-004,7.351588e-005
6.329655e-004,4.580272e-005
6.284277e-004,2.505835e-005
6.015248e-004,1.031041e-005
5.342677e-004,-2.006553e-006
4.042912e-004,-1.351319e-005
2.072198e-004,-2.583015e-005
-3.847125e-005,-3.215070e-005
-2.935620e-004,-1.999580e-005
-5.142949e-004,1.906194e-005
-6.695535e-004,7.886404e-005
-7.497758e-004,1.467694e-004
-7.693857e-004,2.090025e-004
-7.546377e-004,2.556773e-004
-7.306521e-004,2.843629e-004
-7.165524e-004,2.958695e-004
-7.173627e-004,2.929523e-004
-7.269246e-004,2.783665e-004
-7.295177e-004,2.522740e-004
-7.087733e-004,2.093266e-004
-6.444334e-004,1.428798e-004
-5.222362e-004,5.309565e-005
-3.405610e-004,-5.192267e-005
-1.049180e-004,-1.592099e-004
1.642725e-004,-2.579077e-004
4.261701e-004,-3.405610e-004
6.313449e-004,-4.005251e-004
7.402528e-004,-4.298589e-004
7.374978e-004,-4.272659e-004
6.439860e-004,-3.967976e-004
5.127130e-004,-3.441264e-004
3.931088e-004,-2.770314e-004
3.138588e-004,-2.019951e-004
2.780423e-004,-1.269589e-004
2.736665e-004,-5.986387e-005
2.837146e-004,-5.247859e-006
2.960316e-004,3.478227e-005
2.983005e-004,5.974033e-005
2.803112e-004,7.011251e-005
2.394708e-004,7.043664e-005
1.799928e-004,6.298164e-005
1.073875e-004,4.661304e-005
2.278944e-005,2.295151e-005
-7.623246e-005,1.558884e-006
-1.877334e-004,-6.220251e-006
-3.049066e-004,1.883015e-006
-4.155972e-004,1.047248e-005
-5.014918e-004,-1.520357e-006
-5.470321e-004,-4.041603e-005
-5.481666e-004,-9.260106e-005
-5.026262e-004,-1.271210e-004
-4.079801e-004,-1.183694e-004
-2.723315e-004,-6.488790e-005
-1.101041e-004,1.079661e-005
5.341978e-005,7.140904e-005
2.000889e-004,9.004655e-005
3.271481e-004,6.865393e-005
4.333010e-004,2.716520e-005
5.123889e-004,-1.108221e-005
5.551741e-004,-3.344722e-005
5.660325e-004,-3.571614e-005
5.601982e-004,-2.275091e-005
5.527431e-004,-1.358292e-006
5.415606e-004,2.473422e-005
5.214645e-004,4.888196e-005
4.911583e-004,6.751947e-005
4.548556e-004,7.983643e-005
4.154738e-004,8.712937e-005
3.736609e-004,9.134307e-005
3.277964e-004,9.344992e-005
2.767458e-004,9.134307e-005
2.294227e-004,8.518459e-005
1.934442e-004,7.935023e-005
1.699447e-004,7.837785e-005
1.514693e-004,8.826383e-005
1.282940e-004,1.070634e-004
8.907416e-005,1.278078e-004
2.214118e-005,1.457970e-004
-7.104637e-005,1.574657e-004
-1.702303e-004,1.613553e-004
-2.470493e-004,1.621656e-004
-2.737901e-004,1.650828e-004
-2.472113e-004,1.741585e-004
-1.927574e-004,1.851789e-004
-1.465688e-004,1.961993e-004
-1.313347e-004,2.047888e-004
-1.438137e-004,2.046267e-004
-1.660166e-004,1.957131e-004
-1.773612e-004,1.825858e-004
-1.593720e-004,1.663793e-004
-1.081593e-004,1.501728e-004
-4.122636e-005,1.325077e-004
2.246531e-005,1.101426e-004
7.805372e-005,8.145709e-005
1.292664e-004,4.547859e-005
1.691344e-004,4.800190e-006
1.822617e-004,-3.522994e-005
1.535762e-004,-7.218083e-005
7.497447e-005,-1.005423e-004
-5.532604e-005,-1.190177e-004
-2.110708e-004,-1.298761e-004
-3.434781e-004,-1.297140e-004
-4.125179e-004,-1.128592e-004
-4.013354e-004,-7.914964e-005
-3.293785e-004,-3.766092e-005
-2.353806e-004,-1.520357e-006
-1.470550e-004,2.197911e-005
-7.947377e-005,3.445814e-005
-3.425755e-005,4.126489e-005
-8.002969e-006,5.131293e-005
5.448451e-006,6.832980e-005
1.403791e-005,9.085687e-005
2.505835e-005,1.164632e-004
4.385793e-005,1.404489e-004
7.400208e-005,1.527658e-004
1.128978e-004,1.436902e-004
1.537382e-004,1.083599e-004
1.861513e-004,5.682316e-005
2.010613e-004,2.855406e-006
1.911753e-004,-4.495386e-005
1.566554e-004,-7.882551e-005
1.098185e-004,-8.935975e-005
6.784360e-005,-7.769105e-005
3.202716e-005,-4.965375e-005
-1.196226e-006,-1.691656e-005
-3.458168e-005,9.013888e-006
-6.537409e-005,2.538249e-005
-8.222889e-005,3.445814e-005
-8.093235e-005,3.737532e-005
-6.602235e-005,3.834771e-005
-4.819516e-005,4.045456e-005
-3.814712e-005,4.726130e-005
-3.604027e-005,5.552663e-005
-2.550602e-005,5.763348e-005
9.662150e-006,4.985435e-005
7.870197e-005,3.607880e-005
1.782101e-004,2.635488e-005
2.932765e-004,2.910999e-005
4.085050e-004,4.239934e-005
5.219507e-004,5.779555e-005
6.357207e-004,6.719534e-005
7.405770e-004,6.719534e-005
8.175580e-004,6.281957e-005
8.425161e-004,5.552663e-005
8.157754e-004,4.483032e-005
7.624558e-004,3.364782e-005
7.135121e-004,2.651694e-005
6.785059e-004,2.603075e-005
6.379896e-004,3.024445e-005
5.546879e-004,3.559260e-005
3.974845e-004,3.883391e-005
1.704310e-004,3.769945e-005
-8.595638e-005,3.380988e-005
-3.348887e-004,3.575467e-005
-5.608077e-004,4.758544e-005
-7.560964e-004,6.411610e-005
-9.084377e-004,7.627100e-005
-1.009891e-003,8.259154e-005
-1.067424e-003,8.421220e-005
-1.098864e-003,8.323980e-005
-1.114909e-003,8.048469e-005
-1.111019e-003,7.740545e-005
-1.084279e-003,7.789165e-005
-1.039549e-003,8.097089e-005
-9.881739e-004,8.599491e-005
-9.248063e-004,8.907416e-005
-8.269189e-004,8.631904e-005
-6.760361e-004,7.772959e-005
-4.706994e-004,6.962632e-005
-2.331117e-004,6.849186e-005
2.207145e-006,7.853991e-005
2.004130e-004,9.539470e-005
3.193690e-004,1.112771e-004
3.148312e-004,1.187321e-004
1.783722e-004,1.153287e-004
-4.138842e-005,9.977046e-005
-2.729797e-004,7.238143e-005
-4.468758e-004,3.802358e-005
-5.180224e-004,1.558884e-006
-4.677822e-004,-3.182657e-005
-3.096065e-004,-5.224680e-005
-8.109442e-005,-5.370539e-005
1.735102e-004,-3.425755e-005
4.083429e-004,4.962256e-006
5.883976e-004,6.362990e-005
6.934159e-004,1.338042e-004
7.123776e-004,2.051129e-004
6.563029e-004,2.652392e-004
5.553362e-004,3.060797e-004
4.532350e-004,3.219621e-004
3.895433e-004,3.141829e-004
3.846813e-004,2.900352e-004
4.177427e-004,2.525981e-004
4.483731e-004,1.999268e-004
4.512902e-004,1.205148e-004
4.201737e-004,6.420843e-006
3.597233e-004,-1.361966e-004
2.770700e-004,-2.835140e-004
1.739964e-004,-4.032802e-004
6.038860e-005,-4.718338e-004
-3.344722e-005,-4.885265e-004
-7.769105e-005,-4.724821e-004
-6.650855e-005,-4.465517e-004
-1.416145e-005,-4.228901e-004
5.082674e-005,-3.963114e-004
1.031738e-004,-3.536882e-004
1.344524e-004,-2.903207e-004
1.415833e-004,-2.110708e-004
1.297525e-004,-1.285796e-004
1.182459e-004,-5.613637e-005
1.211631e-004,-1.358292e-006
1.266733e-004,3.737532e-005
1.112771e-004,6.444023e-005
5.163707e-005,8.097089e-005
-6.569822e-005,9.085687e-005
-2.363530e-004,9.831188e-005
-4.347209e-004,1.065772e-004
-6.186650e-004,1.133840e-004
-7.429690e-004,1.146805e-004
-7.680892e-004,1.138701e-004
-6.833291e-004,1.164632e-004
-5.042469e-004,1.286181e-004
-2.702246e-004,1.493625e-004
-4.446767e-005,1.688103e-004
1.151667e-004,1.777239e-004
1.866375e-004,1.726999e-004
1.952270e-004,1.594105e-004
1.974959e-004,1.441764e-004
2.415776e-004,1.321835e-004
3.420582e-004,1.248906e-004
4.794896e-004,1.192183e-004
6.146522e-004,1.166253e-004
7.107570e-004,1.174356e-004
7.514353e-004,1.250527e-004
7.451148e-004,1.391524e-004
7.123776e-004,1.555209e-004
6.699165e-004,1.723757e-004
6.170831e-004,1.902029e-004
5.503122e-004,2.075439e-004
4.861343e-004,2.201850e-004
4.587452e-004,2.198609e-004
4.879170e-004,2.020337e-004
5.658705e-004,1.655690e-004
6.558168e-004,1.197045e-004
7.114052e-004,7.189524e-005
6.948745e-004,2.408596e-005
5.843459e-004,-2.064406e-005
3.882468e-004,-5.856734e-005
1.555209e-004,-8.093235e-005
-4.722277e-005,-7.833932e-005
-1.768750e-004,-5.046408e-005
-2.350565e-004,-1.059601e-005
-2.485079e-004,2.635488e-005
-2.420253e-004,4.969228e-005
-2.319772e-004,5.990240e-005
-2.318151e-004,6.217131e-005
-2.532078e-004,6.087479e-005
-3.010170e-004,6.184718e-005
-3.715154e-004,6.832980e-005
-4.460654e-004,7.772959e-005
-5.031124e-004,8.567078e-005
-5.395771e-004,8.550872e-005
-5.719902e-004,7.724339e-005
-6.068342e-004,6.654707e-005
-6.251476e-004,5.487837e-005
-5.979206e-004,4.580272e-005
-5.023021e-004,4.418206e-005
-3.353749e-004,5.163707e-005
-9.956987e-005,6.525056e-005
2.049509e-004,7.789165e-005
5.601982e-004,8.550872e-005
9.220903e-004,8.421220e-005
1.239090e-003,7.497447e-005
1.465658e-003,5.568870e-005
1.576673e-003,2.522042e-005
1.565815e-003,-1.092015e-005
1.435352e-003,-4.138842e-005
1.205381e-003,-5.727082e-005
9.194972e-004,-5.840528e-005
6.289139e-004,-5.111234e-005
3.713920e-004,-4.398147e-005
1.715654e-004,-3.474375e-005
3.559260e-005,-1.691656e-005
-4.219875e-005,1.063454e-005
-8.336334e-005,4.661304e-005
-1.185315e-004,8.793970e-005
-1.686097e-004,1.307249e-004
-2.462390e-004,1.667035e-004
-3.638984e-004,1.911753e-004
-5.152673e-004,1.987924e-004
-6.619364e-004,1.898788e-004
-7.492896e-004,1.644345e-004
-7.353520e-004,1.255388e-004
-6.225546e-004,7.578480e-005
-4.562756e-004,1.290346e-005
-3.045825e-004,-6.359137e-005
-2.258187e-004,-1.433275e-004
-2.452666e-004,-2.089639e-004
-3.442885e-004,-2.457528e-004
-4.760475e-004,-2.459148e-004
-5.778245e-004,-2.133397e-004
-6.047274e-004,-1.613168e-004
-5.565939e-004,-1.060525e-004
-4.671339e-004,-6.002593e-005
-3.757291e-004,-3.134038e-005
-3.070135e-004,-1.837515e-005
-2.664971e-004,-1.237873e-005
-2.533698e-004,-7.354708e-006
-2.616351e-004,-3.951337e-006
-2.916172e-004,-6.706447e-006
-3.392644e-004,-2.080613e-005
-3.865875e-004,-4.495386e-005
-4.107352e-004,-6.991192e-005
-3.980942e-004,-8.611845e-005
-3.540124e-004,-8.547019e-005
-3.026377e-004,-6.456376e-005
-2.684419e-004,-2.485776e-005
-2.464010e-004,2.457216e-005
-2.037778e-004,7.043664e-005
-1.123730e-004,1.030118e-004
2.927205e-005,1.237561e-004
1.840444e-004,1.378558e-004
3.091589e-004,1.461212e-004
3.801435e-004,1.493625e-004
4.020223e-004,1.516314e-004
3.901916e-004,1.555209e-004
3.589129e-004,1.600588e-004
3.162897e-004,1.613553e-004
2.574600e-004,1.584381e-004
1.652449e-004,1.571416e-004
1.841368e-005,1.574657e-004
-1.914609e-004,1.561692e-004
-4.484964e-004,1.485521e-004
-7.173627e-004,1.355869e-004
-9.423093e-004,1.222975e-004
-1.066938e-003,1.148425e-004
-1.072610e-003,1.159770e-004
-9.807188e-004,1.248906e-004
-8.249740e-004,1.383420e-004
-6.201236e-004,1.527658e-004
-3.638984e-004,1.584381e-004
-6.294311e-005,1.534141e-004
2.597290e-004,1.428798e-004
5.597120e-004,1.304008e-004
7.877380e-004,1.154908e-004
8.990770e-004,9.766362e-005
8.660157e-004,7.238143e-005
6.945504e-004,4.126489e-005
4.383250e-004,7.879431e-006
1.803169e-004,-2.566809e-005
-1.448558e-005,-6.197072e-005
-1.102662e-004,-9.940780e-005
-9.811128e-005,-1.311726e-004
-1.034161e-006,-1.483515e-004
1.308870e-004,-1.475412e-004
2.430362e-004,-1.311726e-004
2.979764e-004,-1.032974e-004
2.918179e-004,-7.169464e-005
2.448189e-004,-4.673658e-005
1.825858e-004,-3.134038e-005
1.294284e-004,-2.275091e-005
9.426025e-005,-1.351319e-005
6.849186e-005,4.244267e-007
4.110282e-005,1.695509e-005
6.582909e-006,2.959618e-005
-3.053005e-005,3.753739e-005
-6.051213e-005,4.272347e-005
-8.206682e-005,4.515445e-005
-1.013526e-004,4.661304e-005
-1.255003e-004,4.320967e-005
-1.454343e-004,3.575467e-005
-1.352242e-004,2.684107e-005
-7.590833e-005,1.808955e-005
3.235129e-005,9.662150e-006
1.615174e-004,2.855406e-006
2.811216e-004,5.610517e-006
3.816021e-004,2.133085e-005
4.603659e-004,4.142695e-005
5.182232e-004,5.520250e-005
5.585775e-004,5.763348e-005
5.909906e-004,5.585077e-005
6.294001e-004,6.184718e-005
6.749405e-004,7.529860e-005
7.123776e-004,8.712937e-005
7.387943e-004,8.388807e-005
7.676419e-004,6.362990e-005
8.065376e-004,3.932010e-005
8.379783e-004,2.441009e-005
8.203132e-004,2.846173e-005
7.190223e-004,5.455424e-005
5.230852e-004,9.750155e-005
2.522740e-004,1.467694e-004
-5.694669e-005,1.902029e-004
-3.630880e-004,2.156472e-004
-6.155858e-004,2.213195e-004
-7.517206e-004,2.115955e-004
-7.291935e-004,1.927960e-004
-5.596732e-004,1.678379e-004
-2.979378e-004,1.354248e-004
-8.651231e-006,8.972242e-005
2.589186e-004,3.137890e-005
4.760862e-004,-2.291298e-005
6.287518e-004,-5.176060e-005
7.217774e-004,-5.338126e-005
7.632662e-004,-4.462973e-005
7.635903e-004,-4.868136e-005
7.409011e-004,-7.347736e-005
7.224256e-004,-1.091317e-004
7.208050e-004,-1.347380e-004
7.268014e-004,-1.327932e-004
7.259911e-004,-1.026491e-004
7.042743e-004,-5.791909e-005
6.467411e-004,-1.092015e-005
5.496639e-004,2.311357e-005
4.159599e-004,3.850977e-005
2.564876e-004,4.029249e-005
8.891209e-005,3.834771e-005
-7.104637e-005,4.369587e-005
-2.088019e-004,6.281957e-005
-3.246786e-004,9.652916e-005
-4.243487e-004,1.344524e-004
-5.079744e-004,1.645966e-004
-5.783107e-004,1.718895e-004
-6.385990e-004,1.506590e-004
-6.962942e-004,1.056048e-004
-7.575550e-004,5.228533e-005
-8.249740e-004,8.365628e-006
-8.970931e-004,-1.464765e-005
-9.680777e-004,-1.318906e-005
-1.017508e-003,7.231170e-006
-1.026421e-003,4.029249e-005
-9.923875e-004,7.902610e-005
-9.251304e-004,1.141943e-004
-8.359945e-004,1.422316e-004
-7.390795e-004,1.586002e-004
-6.483229e-004,1.639483e-004
-5.651835e-004,1.582760e-004
-4.831784e-004,1.433660e-004
-3.980942e-004,1.214872e-004
-3.089582e-004,9.669123e-005
-2.154466e-004,6.849186e-005
-1.081593e-004,3.478227e-005
2.327564e-005,-7.192643e-006
1.842065e-004,-6.148453e-005
3.632887e-004,-1.302002e-004
5.342677e-004,-2.000504e-004
6.660269e-004,-2.554767e-004
7.311772e-004,-2.823795e-004
7.174016e-004,-2.780037e-004
6.485238e-004,-2.476975e-004
5.812666e-004,-1.990780e-004
5.673291e-004,-1.460826e-004
6.091419e-004,-9.811128e-005
6.733198e-004,-6.002593e-005
7.318255e-004,-2.890940e-005
7.755831e-004,-2.492749e-006
8.031343e-004,1.744128e-005
8.055652e-004,2.846173e-005
7.765555e-004,3.121684e-005
7.178878e-004,2.829966e-005
6.326414e-004,2.684107e-005
5.269747e-004,3.413401e-005
4.114221e-004,5.504044e-005
2.916558e-004,8.729143e-005
1.662173e-004,1.214872e-004
2.473422e-005,1.508210e-004
-1.493239e-004,1.796687e-004
-3.566054e-004,2.099749e-004
-5.757177e-004,2.389846e-004
-7.594997e-004,2.611876e-004
-8.562527e-004,2.760976e-004
-8.440978e-004,2.846870e-004
-7.353520e-004,2.863077e-004
-5.672903e-004,2.786906e-004
-3.922598e-004,2.605393e-004
-2.614731e-004,2.300710e-004
-2.045882e-004,1.846927e-004
-2.107467e-004,1.265113e-004
-2.465631e-004,6.006446e-005
-2.963171e-004,-1.335112e-005
-3.541744e-004,-9.762508e-005
-4.196488e-004,-1.901644e-004
-4.836646e-004,-2.721694e-004
-5.233706e-004,-3.209511e-004
-5.118640e-004,-3.256510e-004
-4.369898e-004,-2.912931e-004
-3.094444e-004,-2.352185e-004
-1.567789e-004,-1.749302e-004
-7.030578e-006,-1.214487e-004
1.255388e-004,-7.590833e-005
2.336364e-004,-3.053005e-005
3.167760e-004,1.744128e-005
3.631267e-004,6.444023e-005
3.593991e-004,1.036600e-004
3.102933e-004,1.304008e-004
2.399570e-004,1.513072e-004
1.749688e-004,1.668655e-004
1.164632e-004,1.767515e-004
4.175108e-005,1.809652e-004
-6.375343e-005,1.777239e-004
-1.830335e-004,1.686482e-004
-2.750866e-004,1.595726e-004
-3.026377e-004,1.555209e-004
-2.572594e-004,1.573037e-004
-1.590478e-004,1.633001e-004
-4.997788e-005,1.680000e-004
2.392390e-005,1.710792e-004
3.753739e-005,1.715654e-004
-8.720958e-007,1.680000e-004
-5.500191e-005,1.624898e-004
-8.563225e-005,1.547106e-004
-7.056018e-005,1.453108e-004
-1.092015e-005,1.284560e-004
7.465034e-005,1.026876e-004
1.616794e-004,6.800567e-005
2.284503e-004,2.684107e-005
2.592428e-004,-1.821308e-005
2.474120e-004,-5.856734e-005
2.083542e-004,-8.482193e-005
1.618415e-004,-9.243900e-005
1.224596e-004,-7.882551e-005
9.847395e-005,-5.013995e-005
9.312579e-005,-1.448558e-005
1.002567e-004,1.954813e-005
1.057669e-004,4.256141e-005
9.539470e-005,4.985435e-005
6.687120e-005,4.677511e-005
2.910999e-005,4.158902e-005
-7.354708e-006,4.256141e-005
-4.317114e-005,5.163707e-005
-7.509801e-005,6.687120e-005
-9.276313e-005,8.242948e-005
-8.822530e-005,9.199134e-005
-6.683268e-005,9.750155e-005
-4.187462e-005,1.043083e-004
-2.323711e-005,1.146805e-004
-1.772689e-005,1.302387e-004
-1.610623e-005,1.500107e-004
-4.113402e-006,1.686482e-004
2.538249e-005,1.830720e-004
7.772959e-005,1.918236e-004
1.532520e-004,1.921477e-004
2.456293e-004,1.782101e-004
3.444891e-004,1.493625e-004
4.337872e-004,1.086841e-004
4.968306e-004,6.184718e-005
5.130371e-004,1.403791e-005
4.747897e-004,-4.349527e-005
3.916502e-004,-1.180453e-004
2.827422e-004,-2.053985e-004
1.667035e-004,-2.901587e-004
7.367795e-005,-3.536882e-004
3.073064e-005,-3.826979e-004
3.996836e-005,-3.700568e-004
6.654707e-005,-3.060411e-004
6.508849e-005,-1.922712e-004
1.274139e-005,-4.738484e-005
-6.553616e-005,9.458438e-005
-1.120489e-004,1.999268e-004
-7.639453e-005,2.524360e-004
5.212327e-005,2.611876e-004
2.336364e-004,2.430362e-004
4.029947e-004,2.137024e-004
5.180612e-004,1.803169e-004
5.700841e-004,1.433660e-004
5.749461e-004,9.847395e-005
5.738116e-004,4.661304e-005
6.185417e-004,-3.951337e-006
7.297186e-004,-4.025397e-005
8.903255e-004,-5.435365e-005
1.047043e-003,-4.333321e-005
1.145579e-003,-1.578211e-005
1.158706e-003,2.165498e-005
1.104252e-003,5.730935e-005
1.022085e-003,8.178122e-005
9.423485e-004,9.037068e-005
8.624502e-004,8.242948e-005
7.749348e-004,6.557468e-005
6.883919e-004,4.888196e-005
6.161107e-004,3.883391e-005
5.529052e-004,3.753739e-005
4.793275e-004,3.915804e-005
3.814400e-004,3.834771e-005
2.581083e-004,3.462021e-005
1.051186e-004,2.748933e-005
-9.162867e-005,2.100672e-005
-3.345645e-004,1.646889e-005
-6.035930e-004,1.322759e-005
-8.599802e-004,7.069104e-006
-1.070017e-003,-2.006553e-006
-1.214093e-003,-8.327101e-006
-1.282484e-003,-1.043395e-005
-1.282484e-003,-1.108221e-005
-1.237592e-003,-9.137427e-006
-1.178601e-003,-4.599598e-006
-1.128847e-003,9.106226e-007
-1.089789e-003,3.017472e-006
-1.035173e-003,3.827798e-006
-9.262649e-004,5.124321e-006
-7.432931e-004,7.231170e-006
-5.142949e-004,1.533444e-005
-3.057169e-004,2.943412e-005
-1.739578e-004,4.645098e-005
-1.318209e-004,6.087479e-005
-1.656925e-004,7.140904e-005
-2.496423e-004,8.032263e-005
-3.502849e-004,8.648111e-005
-4.318037e-004,9.199134e-005
-4.647030e-004,9.733949e-005
-4.347209e-004,9.896014e-005
-3.549847e-004,9.588090e-005
-2.648765e-004,8.939829e-005
-2.092881e-004,7.627100e-005
-2.062088e-004,5.228533e-005
-2.397564e-004,9.175954e-006
-2.797865e-004,-5.111234e-005
-2.997205e-004,-1.138316e-004
-2.874036e-004,-1.614788e-004
-2.540181e-004,-1.846541e-004
-2.310048e-004,-1.831956e-004
-2.502906e-004,-1.626133e-004
-3.228959e-004,-1.319829e-004
-4.232143e-004,-9.681476e-005
-5.141328e-004,-5.759496e-005
-5.698833e-004,-1.156841e-005
-5.716661e-004,3.705119e-005
-5.092709e-004,7.691926e-005
-3.925839e-004,1.025256e-004
-2.446183e-004,1.163011e-004
-9.341139e-005,1.222975e-004
3.089270e-005,1.216493e-004
1.033359e-004,1.180839e-004
1.120874e-004,1.185700e-004
6.411610e-005,1.260251e-004
-1.286493e-005,1.349386e-004
-7.671866e-005,1.373696e-004
-8.255302e-005,1.320215e-004
-2.978945e-006,1.201907e-004
1.539003e-004,1.023635e-004
3.629646e-004,8.097089e-005
6.003904e-004,6.136099e-005
8.423541e-004,4.434413e-005
1.046881e-003,3.008238e-005
1.169078e-003,2.149292e-005
1.186419e-003,2.019640e-005
1.101497e-003,2.992031e-005
9.476966e-004,4.807163e-005
7.684522e-004,6.800567e-005
5.918010e-004,8.275361e-005
4.297355e-004,9.361198e-005
2.853353e-004,9.928427e-005
1.535762e-004,9.993253e-005
3.348575e-005,9.814982e-005
-8.498399e-005,9.555677e-005
-2.340841e-004,9.442231e-005
-4.459034e-004,9.328785e-005
-7.240074e-004,9.361198e-005
-1.044897e-003,9.571883e-005
-1.362383e-003,9.328785e-005
-1.600457e-003,8.680524e-005
-1.672414e-003,7.821578e-005
-1.509538e-003,6.800567e-005
-1.102754e-003,5.568870e-005
-5.136466e-004,4.483032e-005
1.396385e-004,3.462021e-005
7.186981e-004,2.586868e-005
1.126779e-003,1.711715e-005
1.331954e-003,8.851824e-006
1.342164e-003,2.369210e-006
1.183826e-003,4.244267e-007
9.112319e-004,5.448451e-006
6.117350e-004,1.679302e-005
3.720402e-004,3.121684e-005
2.443327e-004,4.564065e-005
2.391467e-004,5.585077e-005
3.286067e-004,5.714729e-005
4.579349e-004,4.823369e-005
5.660325e-004,3.056858e-005
6.209727e-004,8.203561e-006
6.329655e-004,-1.480971e-005
6.315069e-004,-3.749886e-005
6.397723e-004,-5.808115e-005
6.720233e-004,-7.493595e-005
7.232359e-004,-8.806324e-005
7.741245e-004,-1.011905e-004
8.075100e-004,-1.118868e-004
8.165857e-004,-1.120489e-004
8.002171e-004,-1.005423e-004
7.519216e-004,-8.093235e-005
6.619752e-004,-5.953974e-005
5.307022e-004,-4.203669e-005
3.691231e-004,-3.101624e-005
2.049509e-004,-2.129233e-005
6.914012e-005,-1.027188e-005
-2.583015e-005,2.623614e-007
-8.093235e-005,1.128280e-005
-1.060525e-004,2.522042e-005
-1.055663e-004,5.050261e-005
-7.120844e-005,8.712937e-005
5.864920e-007,1.260251e-004
9.912220e-005,1.519555e-004
2.041405e-004,1.551968e-004
2.952213e-004,1.378558e-004
3.572923e-004,1.083599e-004
3.827366e-004,7.999850e-005
3.756057e-004,6.265751e-005
3.519442e-004,6.022653e-005
3.253654e-004,7.140904e-005
3.002453e-004,8.875003e-005
2.691287e-004,1.047945e-004
2.209953e-004,1.148425e-004
1.553589e-004,1.150046e-004
9.134307e-005,1.124116e-004
4.888196e-005,1.114392e-004
3.186510e-005,1.146805e-004
2.700314e-005,1.187321e-004
1.873781e-005,1.255388e-004
1.234753e-006,1.326697e-004
-2.664048e-005,1.393144e-004
-5.840528e-005,1.409351e-004
-8.952182e-005,1.409351e-004
-1.177212e-004,1.399627e-004
-1.451102e-004,1.375317e-004
-1.715269e-004,1.331559e-004
-1.971332e-004,1.266733e-004
-2.355427e-004,1.188942e-004
-3.087962e-004,1.069013e-004
-4.159213e-004,8.599491e-005
-5.283947e-004,5.504044e-005
-6.181788e-004,1.938607e-005
-6.695535e-004,-1.124428e-005
-6.847876e-004,-2.826113e-005
-6.781429e-004,-2.615428e-005
-6.604778e-004,-2.006553e-006
-6.402197e-004,4.272347e-005
-6.214201e-004,1.056048e-004
-6.013240e-004,1.793446e-004
-5.672903e-004,2.547049e-004
-5.001953e-004,3.156415e-004
-3.891806e-004,3.469201e-004
-2.410529e-004,3.360618e-004
-7.639453e-005,2.905214e-004
8.583285e-005,2.273159e-004
2.341226e-004,1.639483e-004
3.602095e-004,1.049566e-004
4.540453e-004,4.790957e-005
5.117406e-004,-1.399939e-005
5.376711e-004,-8.611845e-005
5.319988e-004,-1.720131e-004
4.846757e-004,-2.723315e-004
3.851675e-004,-3.749188e-004
2.359053e-004,-4.606513e-004
5.244739e-005,-5.141328e-004
-1.545100e-004,-5.241809e-004
-3.767015e-004,-4.898231e-004
-5.950034e-004,-4.215936e-004
-7.731132e-004,-3.344025e-004
-8.836417e-004,-2.412149e-004
-9.168651e-004,-1.528894e-004
-8.839659e-004,-8.190475e-005
-8.173570e-004,-2.664048e-005
-7.685754e-004,1.598270e-005
-7.643617e-004,4.661304e-005
-7.964506e-004,6.379197e-005
-8.298360e-004,6.768153e-005
-8.280533e-004,6.541262e-005
-7.664685e-004,6.087479e-005
-6.385990e-004,5.747142e-005
-4.557894e-004,5.844381e-005
-2.457528e-004,6.508849e-005
-4.462973e-005,7.886404e-005
1.269974e-004,9.393611e-005
2.739907e-004,1.078737e-004
4.086670e-004,1.172735e-004
5.328091e-004,1.192183e-004
6.300483e-004,1.148425e-004
6.799645e-004,1.085220e-004
6.728336e-004,1.010670e-004
6.204865e-004,9.134307e-005
5.495019e-004,8.178122e-005
4.916445e-004,7.675719e-005
4.666864e-004,7.708132e-005
4.710622e-004,8.194328e-005
4.921307e-004,9.134307e-005
5.245437e-004,1.067393e-004
5.619809e-004,1.208390e-004
5.905044e-004,1.265113e-004
5.966629e-004,1.200286e-004
5.744599e-004,1.010670e-004
5.360504e-004,7.675719e-005
4.994237e-004,5.730935e-005
4.749518e-004,5.779555e-005
4.558280e-004,9.166720e-005
4.239012e-004,1.605450e-004
3.767402e-004,2.490327e-004
3.286067e-004,3.281205e-004
2.965178e-004,3.707437e-004
2.908455e-004,3.645853e-004
2.995970e-004,3.151553e-004
3.002453e-004,2.428742e-004
2.798251e-004,1.667035e-004
2.402811e-004,9.993253e-005
1.937684e-004,4.936815e-005
1.433660e-004,1.971020e-005
7.465034e-005,1.047248e-005
-3.328516e-005,1.711715e-005
-1.922712e-004,3.332369e-005
-3.778360e-004,4.758544e-005
-5.476804e-004,4.839576e-005
-6.669604e-004,3.299956e-005
-7.204420e-004,6.907039e-006
-7.131490e-004,-2.080613e-005
-6.614502e-004,-4.284701e-005
-5.844692e-004,-5.581224e-005
-5.026262e-004,-6.342930e-005
-4.240246e-004,-6.861539e-005
-3.418575e-004,-6.926366e-005
-2.452666e-004,-5.905355e-005
-1.383035e-004,-4.074016e-005
-3.344722e-005,-2.031993e-005
5.536457e-005,-1.520357e-006
1.213252e-004,1.452411e-005
1.645966e-004,2.748933e-005
1.822617e-004,3.834771e-005
1.675138e-004,4.142695e-005
1.234320e-004,3.332369e-005
6.281957e-005,1.744128e-005
1.403791e-005,-1.520357e-006
1.234753e-006,-1.724069e-005
3.445814e-005,-2.307504e-005
1.054428e-004,-1.724069e-005
1.934442e-004,-4.437533e-006
2.799871e-004,9.338019e-006
3.551854e-004,2.165498e-005
4.138531e-004,3.024445e-005
4.425387e-004,3.186510e-005
4.240632e-004,2.684107e-005
3.427064e-004,1.971020e-005
1.973338e-004,1.501031e-005
5.772582e-006,1.063454e-005
-1.985918e-004,1.234753e-006
-3.807532e-004,-1.513384e-005
-5.076503e-004,-3.393342e-005
-5.489769e-004,-5.046408e-005
-4.862576e-004,-6.342930e-005
-3.243544e-004,-6.958779e-005
-1.015147e-004,-6.845333e-005
1.163011e-004,-5.775702e-005
2.665357e-004,-3.474375e-005
3.148312e-004,-4.761663e-006
2.713976e-004,1.873781e-005
1.791825e-004,3.218923e-005
9.458438e-005,4.061663e-005
5.455424e-005,4.645098e-005
5.698522e-005,5.228533e-005
6.573675e-005,5.471631e-005
3.737532e-005,5.244739e-005
-4.835723e-005,4.628891e-005
-1.882196e-004,3.867184e-005
-3.601709e-004,3.364782e-005
-5.245051e-004,3.202716e-005
-6.274165e-004,3.299956e-005
-6.238511e-004,3.899597e-005
-4.982505e-004,5.277152e-005
-2.705488e-004,7.140904e-005
1.987226e-005,8.988448e-005
3.336308e-004,1.046324e-004
6.308586e-004,1.137081e-004
8.744430e-004,1.185700e-004
1.026298e-003,1.235941e-004
1.066491e-003,1.313732e-004
9.976128e-004,1.412592e-004
8.501332e-004,1.454729e-004
6.700785e-004,1.412592e-004
5.084993e-004,1.265113e-004
3.901916e-004,1.005808e-004
3.154794e-004,6.508849e-005
2.713976e-004,2.230324e-005
2.383363e-004,-2.226472e-005
2.015475e-004,-5.840528e-005
1.569795e-004,-7.882551e-005
1.112771e-004,-7.866345e-005
7.578480e-005,-5.856734e-005
6.055066e-005,-2.275091e-005
6.719534e-005,2.246531e-005
9.069480e-005,6.395403e-005
1.289422e-004,9.101894e-005
1.861513e-004,9.426025e-005
2.645909e-004,7.902610e-005
3.572923e-004,6.184718e-005
4.486972e-004,6.119892e-005
5.255162e-004,8.583285e-005
5.718669e-004,1.292664e-004
5.760806e-004,1.709171e-004
5.363746e-004,1.931201e-004
4.691174e-004,1.850168e-004
3.958639e-004,1.498487e-004
3.326584e-004,1.004187e-004
2.788527e-004,5.196120e-005
2.218057e-004,1.808955e-005
1.467694e-004,5.610517e-006
6.119892e-005,1.031041e-005
-1.934754e-005,2.133085e-005
-8.514606e-005,1.971020e-005
-1.336036e-004,-1.173047e-005
-1.608306e-004,-7.720485e-005
-1.606685e-004,-1.613168e-004
-1.405724e-004,-2.394322e-004
-1.222590e-004,-2.899966e-004
-1.331174e-004,-3.042583e-004
-1.942160e-004,-2.849726e-004
-3.131719e-004,-2.410529e-004
-4.766958e-004,-1.801163e-004
-6.561021e-004,-1.089697e-004
-8.262706e-004,-3.506787e-005
-9.721293e-004,2.992031e-005
-1.080713e-003,8.145709e-005
-1.142298e-003,1.201907e-004
-1.150887e-003,1.433660e-004
-1.104861e-003,1.519555e-004
-1.006163e-003,1.453108e-004
-8.593319e-004,1.252147e-004
-6.758740e-004,9.766362e-005
-4.739407e-004,7.092283e-005
-2.763831e-004,4.693717e-005
-1.015147e-004,2.813760e-005
4.434413e-005,1.403791e-005
1.581140e-004,6.096713e-006
2.384984e-004,4.151929e-006
2.884145e-004,1.031041e-005
3.235827e-004,2.100672e-005
3.608577e-004,3.380988e-005
4.002396e-004,5.034054e-005
4.276287e-004,6.881599e-005
4.268184e-004,8.340186e-005
3.830607e-004,9.134307e-005
2.940868e-004,9.523264e-005
1.723757e-004,1.020394e-004
4.175108e-005,1.132219e-004
-6.586029e-005,1.273216e-004
-1.136696e-004,1.385041e-004
-9.260106e-005,1.462832e-004
-2.647842e-005,1.459591e-004
3.656499e-005,1.346145e-004
6.460230e-005,1.093323e-004
6.622294e-005,7.529860e-005
7.092283e-005,4.223728e-005
1.064151e-004,1.711715e-005
1.817755e-004,2.207145e-006
2.923041e-004,-4.599598e-006
4.136910e-004,-8.813297e-006
5.096338e-004,-1.075808e-005
5.522569e-004,-6.544382e-006
5.363746e-004,7.069104e-006
4.802999e-004,2.992031e-005
4.060740e-004,5.876794e-005
3.253654e-004,8.729143e-005
2.380122e-004,1.114392e-004
1.470936e-004,1.258630e-004
5.730935e-005,1.347766e-004
-2.566809e-005,1.441764e-004
-9.535618e-005,1.573037e-004
-1.480274e-004,1.780480e-004
-1.927574e-004,2.114335e-004
-2.391081e-004,2.576221e-004
-2.891863e-004,3.054314e-004
-3.381300e-004,3.318480e-004
-3.848048e-004,3.177483e-004
-4.214316e-004,2.619979e-004
-4.365036e-004,1.825858e-004
-4.198109e-004,1.026876e-004
-3.734602e-004,4.126489e-005
-3.143064e-004,4.313994e-006
-2.609869e-004,-8.975361e-006
-2.225774e-004,-3.951337e-006
-1.987538e-004,1.160693e-005
-1.831956e-004,3.105477e-005
-1.653684e-004,5.115087e-005
-1.381414e-004,6.298164e-005
-1.047560e-004,5.585077e-005
-6.974985e-005,2.716520e-005
-3.522994e-005,-1.156841e-005
-2.238345e-007,-4.333321e-005
3.445814e-005,-5.370539e-005
6.735740e-005,-3.766092e-005
9.863601e-005,-2.654814e-006
1.276457e-004,3.737532e-005
1.563313e-004,6.865393e-005
1.848548e-004,7.999850e-005
2.077060e-004,6.897806e-005
2.187264e-004,4.223728e-005
2.107852e-004,9.013888e-006
1.910132e-004,-2.712668e-005
1.707551e-004,-6.229485e-005
1.534141e-004,-9.114247e-005
1.388282e-004,-1.091317e-004
1.336421e-004,-1.185315e-004
1.547106e-004,-1.238797e-004
2.072198e-004,-1.276072e-004
2.705873e-004,-1.306864e-004
3.145071e-004,-1.327932e-004
3.203414e-004,-1.287416e-004
2.884145e-004,-1.191798e-004
2.287745e-004,-1.092938e-004
1.535762e-004,-1.013526e-004
7.724339e-005,-9.600443e-005
8.851824e-006,-9.098041e-005
-5.013995e-005,-8.255302e-005
-1.125351e-004,-6.407756e-005
-1.809267e-004,-3.312309e-005
-2.489941e-004,6.420843e-006
-2.955068e-004,4.807163e-005
-2.862691e-004,7.999850e-005
-1.880575e-004,9.555677e-005
1.002961e-007,9.766362e-005
2.428742e-004,9.231547e-005
4.911583e-004,8.761556e-005
7.115673e-004,8.680524e-005
8.869221e-004,8.923622e-005
1.006851e-003,8.761556e-005
1.071839e-003,7.789165e-005
1.090314e-003,6.314371e-005
1.070542e-003,5.228533e-005
1.013495e-003,5.115087e-005
9.165801e-004,5.504044e-005
7.841726e-004,5.779555e-005
6.302104e-004,5.779555e-005
4.632831e-004,5.341978e-005
2.801492e-004,4.596478e-005
4.061663e-005,3.867184e-005
-3.123616e-004,3.364782e-005
-7.604721e-004,3.348575e-005
-1.191080e-003,3.818564e-005
-1.470966e-003,4.304760e-005
-1.519748e-003,4.612685e-005
-1.345852e-003,4.693717e-005
-1.041007e-003,4.709924e-005
-7.264384e-004,4.969228e-005
-5.008435e-004,5.617490e-005
-4.087905e-004,6.508849e-005
-4.279141e-004,7.076077e-005
-4.982505e-004,7.189524e-005
-5.531906e-004,7.335382e-005
-5.473563e-004,7.918817e-005
-4.627582e-004,8.923622e-005
-3.079858e-004,9.701536e-005
-1.047560e-004,9.928427e-005
1.154908e-004,9.993253e-005
3.315239e-004,1.009049e-004
5.344298e-004,1.038221e-004
7.068673e-004,1.099806e-004
8.280923e-004,1.201907e-004
8.825463e-004,1.287802e-004
8.802774e-004,1.321835e-004
8.489988e-004,1.289422e-004
8.238786e-004,1.210010e-004
8.206373e-004,1.070634e-004
8.266338e-004,8.761556e-005
8.196649e-004,6.492643e-005
7.793106e-004,4.191315e-005
6.922815e-004,1.922400e-005
5.538776e-004,-2.330684e-006
3.743092e-004,-2.858526e-005
1.756170e-004,-6.440169e-005
-1.950961e-005,-1.031353e-004
-1.995642e-004,-1.321450e-004
-3.593605e-004,-1.426792e-004
-4.937127e-004,-1.243659e-004
-5.898174e-004,-7.817725e-005
-6.329267e-004,-2.129233e-005
-6.220684e-004,1.825161e-005
-5.692351e-004,2.116879e-005
-4.967919e-004,-1.237873e-005
-4.214316e-004,-6.553616e-005
-3.528779e-004,-1.146419e-004
-2.916172e-004,-1.394379e-004
-2.339220e-004,-1.279313e-004
-1.783336e-004,-8.514606e-005
-1.295519e-004,-2.307504e-005
-9.049421e-005,4.239934e-005
-5.970180e-005,9.782569e-005
-3.604027e-005,1.367214e-004
-1.529591e-005,1.551968e-004
6.744974e-006,1.524417e-004
3.364782e-005,1.321835e-004
6.508849e-005,1.057669e-004
9.636710e-005,7.772959e-005
1.244044e-004,4.693717e-005
1.479039e-004,1.112074e-005
1.595726e-004,-3.020592e-005
1.527658e-004,-7.072224e-005
1.216493e-004,-9.973194e-005
7.627100e-005,-1.139937e-004
3.883391e-005,-1.201522e-004
2.522042e-005,-1.195039e-004
4.045456e-005,-1.084835e-004
7.108490e-005,-8.563225e-005
9.912220e-005,-5.062615e-005
1.120874e-004,-4.437533e-006
1.031738e-004,4.466826e-005
7.546067e-005,8.729143e-005
4.596478e-005,1.169494e-004
2.570661e-005,1.312111e-004
1.144487e-005,1.284560e-004
-5.479652e-007,1.177597e-004
-1.351319e-005,1.091703e-004
-1.950961e-005,1.094944e-004
-1.254080e-005,1.159770e-004
7.555300e-006,1.261871e-004
2.716520e-005,1.401247e-004
3.089270e-005,1.524417e-004
9.338019e-006,1.592484e-004
-3.036798e-005,1.592484e-004
-7.282909e-005,1.547106e-004
-1.088076e-004,1.529279e-004
-1.371690e-004,1.615174e-004
-1.536997e-004,1.780480e-004
-1.546721e-004,1.918236e-004
-1.381414e-004,1.955511e-004
-1.088076e-004,1.874478e-004
-8.352540e-005,1.694586e-004
-7.509801e-005,1.451487e-004
-7.833932e-005,1.166253e-004
-7.412562e-005,8.486046e-005
-4.398147e-005,5.244739e-005
1.517237e-005,2.197911e-005
8.502253e-005,-3.951337e-006
1.386661e-004,-2.242678e-005
1.482280e-004,-3.263690e-005
1.099806e-004,-3.749886e-005
5.260946e-005,-4.657451e-005
1.160693e-005,-6.845333e-005
5.124321e-006,-1.026491e-004
2.878586e-005,-1.327932e-004
6.557468e-005,-1.425172e-004
9.993253e-005,-1.214487e-004
1.172735e-004,-7.461181e-005
1.103047e-004,-1.691656e-005
7.967437e-005,3.672705e-005
3.251336e-005,7.967437e-005
-2.194059e-005,1.124116e-004
-7.817725e-005,1.351007e-004
-1.361966e-004,1.457970e-004
-1.947022e-004,1.461212e-004
-2.355427e-004,1.404489e-004
-2.370012e-004,1.304008e-004
-1.903264e-004,1.140322e-004
-9.843541e-005,8.875003e-005
2.392390e-005,5.504044e-005
1.556830e-004,2.003433e-005
2.777182e-004,1.558884e-006
3.710678e-004,1.630683e-005
4.294114e-004,5.990240e-005
4.623107e-004,1.101426e-004
4.961823e-004,1.385041e-004
5.491777e-004,1.308870e-004
6.238898e-004,9.280166e-005
7.039502e-004,4.304760e-005
7.678040e-004,-7.100305e-007
8.000550e-004,-3.036798e-005
7.955172e-004,-4.171255e-005
7.525698e-004,-3.685059e-005
6.729957e-004,-2.291298e-005
5.697600e-004,-5.734055e-006
4.645796e-004,9.175954e-006
3.733367e-004,2.035846e-005
2.974902e-004,2.943412e-005
2.308813e-004,3.413401e-005
1.696206e-004,3.202716e-005
1.086841e-004,2.343770e-005
5.585077e-005,1.501031e-005
1.938607e-005,1.144487e-005
9.106226e-007,1.533444e-005
-6.220251e-006,2.295151e-005
-1.707863e-005,3.105477e-005
-4.706071e-005,3.737532e-005
-1.075111e-004,4.126489e-005
-1.887058e-004,4.547859e-005
-2.658489e-004,5.358185e-005
-3.186821e-004,7.108490e-005
-3.416954e-004,9.296372e-005
-3.410472e-004,1.112771e-004
-3.196545e-004,1.188942e-004
-2.686040e-004,1.116012e-004
-1.862748e-004,8.777764e-005
-8.919769e-005,5.066468e-005
-5.571990e-006,9.013888e-006
3.786152e-005,-2.356124e-005
2.538249e-005,-3.782299e-005
-4.187462e-005,-3.490581e-005
-1.392759e-004,-2.680255e-005
-2.222533e-004,-2.550602e-005
-2.558008e-004,-3.571614e-005
-2.310048e-004,-5.143647e-005
-1.689338e-004,-6.245691e-005
-9.973194e-005,-6.278104e-005
-4.884343e-005,-5.419158e-005
-3.004385e-005,-3.863331e-005
-4.074016e-005,-1.837515e-005
-6.926366e-005,8.203561e-006
-1.028112e-004,3.818564e-005
-1.264727e-004,6.606088e-005
-1.280934e-004,8.745350e-005
-1.071869e-004,9.879807e-005
-7.785312e-005,1.005808e-004
-5.953974e-005,9.458438e-005
-7.201877e-005,8.842590e-005
-1.271210e-004,8.469840e-005
-2.063709e-004,8.048469e-005
-2.613110e-004,7.432621e-005
-2.548284e-004,6.589881e-005
-1.806025e-004,6.265751e-005
-5.046408e-005,6.670914e-005
1.114392e-004,7.918817e-005
2.636185e-004,9.863601e-005
3.524303e-004,1.161391e-004
3.329825e-004,1.234320e-004
1.945787e-004,1.187321e-004
-4.090223e-005,1.038221e-004
-3.267854e-004,8.356393e-005
-6.139651e-004,6.557468e-005
-8.624112e-004,5.212327e-005
-1.044897e-003,4.369587e-005
-1.151698e-003,4.142695e-005
-1.189621e-003,4.547859e-005
-1.180545e-003,5.487837e-005
-1.149429e-003,7.270556e-005
-1.110371e-003,1.020394e-004
-1.061752e-003,1.407730e-004
-9.964391e-004,1.822617e-004
-9.087618e-004,2.177540e-004
-7.953162e-004,2.347709e-004
-6.384369e-004,2.325020e-004
-4.170558e-004,2.169437e-004
-1.295519e-004,1.921477e-004
1.944166e-004,1.634621e-004
4.974788e-004,1.359110e-004
7.146465e-004,1.030118e-004
8.003791e-004,5.325772e-005
7.613213e-004,-1.578211e-005
6.499824e-004,-9.730095e-005
5.341056e-004,-1.731475e-004
4.660382e-004,-2.207947e-004
4.589073e-004,-2.316531e-004
4.934272e-004,-2.198223e-004
5.358884e-004,-2.118811e-004
5.546879e-004,-2.253325e-004
5.331332e-004,-2.548284e-004
4.765724e-004,-2.867553e-004
4.010499e-004,-3.126857e-004
3.140208e-004,-3.264613e-004
2.190506e-004,-3.215993e-004
1.351007e-004,-2.945344e-004
8.956035e-005,-2.489941e-004
9.928427e-005,-1.908126e-004
1.623277e-004,-1.269589e-004
2.594048e-004,-6.375343e-005
3.631267e-004,-7.840905e-006
4.405939e-004,3.786152e-005
4.715484e-004,7.205730e-005
4.472386e-004,9.636710e-005
3.835469e-004,1.154908e-004
3.226103e-004,1.305629e-004
3.018659e-004,1.389903e-004
3.316860e-004,1.404489e-004
3.971604e-004,1.396385e-004
4.676588e-004,1.422316e-004
5.182232e-004,1.496866e-004
5.388056e-004,1.592484e-004
5.303781e-004,1.639483e-004
5.041235e-004,1.624898e-004
4.814344e-004,1.577899e-004
4.743035e-004,1.548727e-004
4.814344e-004,1.519555e-004
4.981271e-004,1.472556e-004
5.195197e-004,1.399627e-004
5.324850e-004,1.284560e-004
5.023408e-004,1.148425e-004
3.991052e-004,1.025256e-004
2.448189e-004,9.393611e-005
1.038221e-004,9.118101e-005
3.575467e-005,9.588090e-005
5.325772e-005,1.116012e-004
1.244044e-004,1.326697e-004
2.047888e-004,1.519555e-004
2.619979e-004,1.631380e-004
2.801492e-004,1.735102e-004
2.493568e-004,1.906891e-004
1.689724e-004,2.175920e-004
5.601283e-005,2.467637e-004
-5.694669e-005,2.683184e-004
-1.417068e-004,2.707494e-004
-1.755785e-004,2.521119e-004
-1.536997e-004,2.209953e-004
-9.162867e-005,1.851789e-004
-2.210265e-005,1.522796e-004
2.684107e-005,1.352628e-004
3.899597e-005,1.393144e-004
1.436204e-005,1.545486e-004
-3.150244e-005,1.657311e-004
-7.461181e-005,1.547106e-004
-1.032974e-004,1.039842e-004
-1.183694e-004,9.824214e-006
-1.209625e-004,-1.105903e-004
-1.144799e-004,-2.253325e-004
-9.843541e-005,-3.055549e-004
-6.926366e-005,-3.434781e-004
-1.869928e-005,-3.442885e-004
5.649903e-005,-3.109030e-004
1.516314e-004,-2.391081e-004
2.504912e-004,-1.381414e-004
3.368721e-004,-3.458168e-005
3.914881e-004,3.786152e-005
4.042912e-004,5.585077e-005
3.788470e-004,1.711715e-005
3.328204e-004,-5.905355e-005
2.842008e-004,-1.405724e-004
2.436845e-004,-1.979435e-004
2.073818e-004,-2.188499e-004
1.662173e-004,-2.096122e-004
1.163011e-004,-1.844921e-004
5.795762e-005,-1.619650e-004
-6.220251e-006,-1.571030e-004
-7.169464e-005,-1.645580e-004
-1.387897e-004,-1.619650e-004
-2.075054e-004,-1.292278e-004
-2.726556e-004,-6.683268e-005
-3.245165e-004,4.313994e-006
-3.541744e-004,6.411610e-005
-3.604950e-004,1.025256e-004
-3.536882e-004,1.195424e-004
-3.480160e-004,1.197045e-004
-3.554710e-004,1.099806e-004
-3.838324e-004,9.814982e-005
-4.306693e-004,9.361198e-005
-4.890127e-004,1.023635e-004
-5.436288e-004,1.211631e-004
-5.762039e-004,1.440143e-004
-5.786348e-004,1.624898e-004
-5.541630e-004,1.704310e-004
-5.070020e-004,1.626518e-004
-4.436345e-004,1.440143e-004
-3.720016e-004,1.227837e-004
-3.065272e-004,1.106288e-004
-2.629317e-004,1.107909e-004
-2.609869e-004,1.203528e-004
-3.175477e-004,1.325077e-004
-4.175420e-004,1.409351e-004
-5.189948e-004,1.440143e-004
-5.851174e-004,1.396385e-004
-5.938690e-004,1.278078e-004
-5.400633e-004,1.133840e-004
-4.378001e-004,1.015532e-004
-3.087962e-004,9.863601e-005
-1.729855e-004,1.034980e-004
-4.625038e-005,1.099806e-004
6.265751e-005,1.132219e-004
1.467694e-004,1.111150e-004
2.010613e-004,1.077117e-004
2.289365e-004,1.085220e-004
2.373639e-004,1.158149e-004
2.313675e-004,1.240803e-004
2.143507e-004,1.291043e-004
1.911753e-004,1.292664e-004
1.623277e-004,1.247285e-004
1.355869e-004,1.190562e-004
1.211631e-004,1.130598e-004
1.250527e-004,1.056048e-004
1.482280e-004,9.717742e-005
1.936063e-004,9.118101e-005
2.587565e-004,8.696730e-005
3.337928e-004,7.772959e-005
4.067222e-004,6.168512e-005
4.715484e-004,4.531652e-005
5.198439e-004,3.705119e-005
5.397779e-004,3.899597e-005
5.251920e-004,4.693717e-005
4.887274e-004,5.228533e-005
4.444834e-004,5.228533e-005
3.940811e-004,5.098881e-005
3.383307e-004,4.774750e-005
2.910076e-004,4.337174e-005
2.668598e-004,3.737532e-005
2.624841e-004,2.943412e-005
2.603772e-004,1.987226e-005
2.449810e-004,9.986280e-006
2.128921e-004,2.531276e-006
1.702689e-004,2.693341e-006
1.255388e-004,1.209313e-005
8.340186e-005,2.327564e-005
4.953022e-005,2.992031e-005
2.943412e-005,3.008238e-005
2.019640e-005,2.522042e-005
1.338965e-005,1.808955e-005
3.341602e-006,8.365628e-006
-5.896120e-006,-5.734055e-006
-1.108221e-005,-2.339917e-005
-3.627206e-006,-3.749886e-005
2.230324e-005,-4.949169e-005
7.108490e-005,-6.018800e-005
1.406109e-004,-6.942573e-005
2.166196e-004,-7.769105e-005
2.851732e-004,-8.757703e-005
3.397892e-004,-1.002181e-004
3.955397e-004,-1.156143e-004
4.717104e-004,-1.242038e-004
5.645739e-004,-1.188556e-004
6.430136e-004,-1.016767e-004
6.613270e-004,-7.396355e-005
5.921251e-004,-4.317114e-005
4.430249e-004,-1.853721e-005
2.524360e-004,-3.789271e-006
4.888196e-005,4.151929e-006
-1.695821e-004,1.193106e-005
-4.136524e-004,1.987226e-005
-6.826808e-004,2.635488e-005
-9.671053e-004,3.510640e-005
-1.258985e-003,4.807163e-005
-1.552647e-003,6.557468e-005
-1.827996e-003,8.291567e-005
-2.039654e-003,9.474644e-005
-2.142727e-003,9.652916e-005
-2.121821e-003,8.323980e-005
-1.984552e-003,5.617490e-005
-1.745019e-003,2.214118e-005
-1.408247e-003,-6.544382e-006
-9.842842e-004,-1.788895e-005
-5.100812e-004,-1.010982e-005
-4.349527e-005,1.014835e-005
3.634508e-004,3.186510e-005
6.861230e-004,4.904402e-005
9.256557e-004,6.265751e-005
1.092907e-003,7.724339e-005
1.200843e-003,9.798775e-005
1.257242e-003,1.203528e-004
1.271504e-003,1.383420e-004
1.258700e-003,1.493625e-004
1.233580e-003,1.490383e-004
1.204571e-003,1.381799e-004
1.175561e-003,1.210010e-004
1.134882e-003,1.012291e-004
1.068760e-003,7.724339e-005
9.664962e-004,4.450619e-005
8.227442e-004,3.503668e-006
6.391240e-004,-4.074016e-005
4.268184e-004,-8.530812e-005
2.059233e-004,-1.259865e-004
-3.465141e-006,-1.600202e-004
-1.713648e-004,-1.833576e-004
-2.624455e-004,-1.841679e-004
-2.525595e-004,-1.574272e-004
-1.434896e-004,-1.089697e-004
3.915804e-005,-4.949169e-005
2.506533e-004,9.986280e-006
4.433490e-004,5.747142e-005
5.798081e-004,8.388807e-005
6.472273e-004,8.793970e-005
6.642442e-004,7.610893e-005
6.660269e-004,5.844381e-005
6.786680e-004,4.402000e-005
7.088121e-004,3.526847e-005
7.501388e-004,2.927205e-005
7.872518e-004,2.311357e-005
8.013516e-004,1.841368e-005
7.734763e-004,1.825161e-005
6.935780e-004,2.489629e-005
5.712186e-004,3.786152e-005
4.237391e-004,5.617490e-005
2.744769e-004,8.032263e-005
1.435281e-004,1.054428e-004
4.191315e-005,1.252147e-004
-2.323711e-005,1.380179e-004
-4.770897e-005,1.414213e-004
-3.636440e-005,1.320215e-004
-5.409925e-006,1.137081e-004
1.841368e-005,9.280166e-005
1.452411e-005,7.708132e-005
-2.404744e-005,6.816773e-005
-8.952182e-005,6.800567e-005
-1.658546e-004,7.432621e-005
-2.434839e-004,8.275361e-005
-3.185201e-004,9.037068e-005
-3.888564e-004,9.912220e-005
-4.460654e-004,1.069013e-004
-4.862576e-004,1.088461e-004
-5.061917e-004,1.051186e-004
-5.102433e-004,9.717742e-005
-5.079744e-004,8.534666e-005
-4.985746e-004,7.173317e-005
-4.820439e-004,5.601283e-005
-4.549791e-004,3.834771e-005
-4.139765e-004,2.084466e-005
-3.658432e-004,9.986280e-006
-3.203028e-004,7.393235e-006
-2.794623e-004,1.290346e-005
-2.363530e-004,2.522042e-005
-1.867610e-004,4.369587e-005
-1.446240e-004,6.654707e-005
-1.327932e-004,8.858796e-005
-1.562927e-004,1.051186e-004
-1.992400e-004,1.124116e-004
-2.405667e-004,1.111150e-004
-2.671454e-004,1.052807e-004
-2.805968e-004,9.636710e-005
-2.922655e-004,8.988448e-005
-3.117133e-004,9.085687e-005
-3.386162e-004,9.393611e-005
-3.679500e-004,9.669123e-005
-3.976079e-004,9.863601e-005
-4.319658e-004,9.620503e-005
-4.770199e-004,8.842590e-005
-5.254775e-004,7.756751e-005
-5.629145e-004,6.897806e-005
-5.753936e-004,6.670914e-005
-5.627525e-004,7.529860e-005
-5.322842e-004,9.280166e-005
-4.890127e-004,1.145184e-004
-4.378001e-004,1.313732e-004
-3.768636e-004,1.378558e-004
-3.005308e-004,1.307249e-004
-2.057227e-004,1.114392e-004
-9.454584e-005,8.810177e-005
3.413401e-005,7.189524e-005
1.748067e-004,6.508849e-005
3.128864e-004,6.362990e-005
4.308700e-004,6.298164e-005
5.214645e-004,5.763348e-005
5.773771e-004,4.450619e-005
5.971491e-004,2.667901e-005
5.896941e-004,1.160693e-005
5.657084e-004,4.244267e-007
5.303781e-004,-1.254080e-005
4.832171e-004,-2.923352e-005
4.156358e-004,-4.900549e-005
3.149932e-004,-6.586029e-005
1.641104e-004,-7.428768e-005
-4.641245e-005,-7.461181e-005
-3.237062e-004,-7.023605e-005
-6.619364e-004,-6.213279e-005
-1.010863e-003,-5.127441e-005
-1.301446e-003,-3.814712e-005
-1.472749e-003,-2.858526e-005
-1.482149e-003,-2.339917e-005
-1.319273e-003,-1.999580e-005
-1.021397e-003,-1.756482e-005
-6.664742e-004,-1.740276e-005
-3.455850e-004,-2.177852e-005
-1.242038e-004,-3.101624e-005
-1.318906e-005,-4.252288e-005
2.619281e-005,-5.224680e-005
5.779555e-005,-5.354332e-005
1.359110e-004,-3.685059e-005
2.872800e-004,6.258778e-006
5.131992e-004,7.659513e-005
7.856312e-004,1.581140e-004
1.057253e-003,2.240746e-004
1.274259e-003,2.527601e-004
1.397104e-003,2.352571e-004
1.406666e-003,1.822617e-004
1.306186e-003,1.151667e-004
1.116245e-003,4.774750e-005
8.838428e-004,-9.461557e-006
6.695923e-004,-5.629843e-005
5.394538e-004,-9.049421e-005
5.451261e-004,-1.079973e-004
6.964952e-004,-1.083214e-004
9.410520e-004,-9.292519e-005
1.176209e-003,-6.342930e-005
1.300027e-003,-2.793700e-005
1.264859e-003,1.234753e-006
1.097445e-003,1.533444e-005
8.686087e-004,1.419998e-005
6.407447e-004,5.934647e-006
4.295734e-004,-4.113402e-006
2.018716e-004,-1.902341e-005
-8.579432e-005,-4.592625e-005
-4.381243e-004,-8.433573e-005
-8.079573e-004,-1.212866e-004
-1.127064e-003,-1.433275e-004
-1.344880e-003,-1.408965e-004
-1.450870e-003,-1.149661e-004
-1.469508e-003,-7.363942e-005
-1.428829e-003,-2.809907e-005
-1.339045e-003,1.112074e-005
-1.182004e-003,3.948217e-005
-9.246442e-004,5.795762e-005
-5.361738e-004,6.962632e-005
-1.270286e-005,7.659513e-005
5.952043e-004,8.161915e-005
1.191929e-003,8.826383e-005
1.676020e-003,9.507057e-005
1.967090e-003,1.036600e-004
2.042288e-003,1.210010e-004
1.934839e-003,1.598967e-004
1.706164e-003,2.253711e-004
1.416552e-003,3.041349e-004
1.124996e-003,3.687989e-004
8.841670e-004,3.948915e-004
7.287462e-004,3.743092e-004
6.514410e-004,3.195311e-004
6.169211e-004,2.485465e-004
5.862907e-004,1.744826e-004
5.329712e-004,1.067393e-004
4.433490e-004,5.115087e-005
3.179104e-004,5.286386e-006
1.665414e-004,-3.895744e-005
7.879431e-006,-9.000801e-005
-1.439758e-004,-1.480274e-004
-2.718453e-004,-2.036158e-004
-3.548227e-004,-2.417011e-004
-3.861013e-004,-2.525595e-004
-3.794566e-004,-2.378116e-004
-3.692465e-004,-2.052364e-004
-3.818876e-004,-1.606685e-004
-4.190006e-004,-1.101041e-004
-4.617858e-004,-6.067420e-005
-4.860956e-004,-1.626830e-005
-4.736166e-004,2.165498e-005
-4.177041e-004,5.034054e-005
-3.319715e-004,6.751947e-005
-2.465631e-004,7.497447e-005
-1.853024e-004,7.302969e-005
-1.601823e-004,5.941620e-005
-1.713648e-004,3.494434e-005
-2.159328e-004,4.476060e-006
-2.867553e-004,-2.210265e-005
-3.697327e-004,-3.733679e-005
-4.465517e-004,-3.944364e-005
-5.050572e-004,-2.372330e-005
-5.363358e-004,2.855406e-006
-5.400633e-004,3.705119e-005
-5.279084e-004,7.529860e-005
-5.180224e-004,1.114392e-004
-5.223982e-004,1.354248e-004
-5.452494e-004,1.420695e-004
-5.838209e-004,1.328318e-004
-6.360059e-004,1.146805e-004
-6.995355e-004,9.652916e-005
-7.659823e-004,7.886404e-005
-8.191397e-004,5.730935e-005
-8.434496e-004,3.445814e-005
-8.342118e-004,1.387585e-005
-7.958023e-004,3.503668e-006
-7.309762e-004,9.338019e-006
-6.361680e-004,3.105477e-005
-5.186707e-004,6.152305e-005
-4.039285e-004,8.615698e-005
-3.121995e-004,9.766362e-005
-2.472113e-004,9.863601e-005
-1.943781e-004,9.847395e-005
-1.394379e-004,1.017153e-004
-7.380149e-005,1.098185e-004
1.396819e-006,1.174356e-004
8.275361e-005,1.210010e-004
1.660552e-004,1.201907e-004
2.493568e-004,1.166253e-004
3.333066e-004,1.075496e-004
4.119083e-004,9.263960e-005
4.694415e-004,7.902610e-005
4.871067e-004,7.319175e-005
4.616624e-004,7.529860e-005
4.016982e-004,8.453633e-005
3.250413e-004,9.750155e-005
2.453051e-004,1.057669e-004
1.751308e-004,1.044704e-004
1.211631e-004,9.166720e-005
8.356393e-005,7.238143e-005
6.168512e-005,5.082674e-005
5.730935e-005,3.170303e-005
8.080882e-005,1.841368e-005
1.393144e-004,1.582063e-005
2.203471e-004,2.716520e-005
2.991108e-004,4.742337e-005
3.589129e-004,7.011251e-005
3.971604e-004,9.053274e-005
4.195254e-004,1.072255e-004
4.365423e-004,1.163011e-004
4.529109e-004,1.161391e-004
4.645796e-004,1.103047e-004
4.637692e-004,1.000946e-004
4.394594e-004,8.194328e-005
3.888950e-004,5.471631e-005
3.161277e-004,1.906194e-005
2.325020e-004,-2.145439e-005
1.537382e-004,-5.970180e-005
9.150514e-005,-8.822530e-005
4.142695e-005,-1.013526e-004
-1.156841e-005,-9.762508e-005
-7.461181e-005,-7.590833e-005
-1.306864e-004,-4.009190e-005
-1.536997e-004,-1.034161e-006
-1.353863e-004,3.332369e-005
-8.579432e-005,5.860587e-005
-1.675450e-005,7.481241e-005
6.087479e-005,8.307774e-005
1.401247e-004,8.729143e-005
2.122438e-004,9.134307e-005
2.683184e-004,9.150514e-005
2.983005e-004,8.323980e-005
2.910076e-004,6.978838e-005
2.417397e-004,5.633696e-005
1.568175e-004,4.661304e-005
5.763348e-005,3.575467e-005
-3.215070e-005,2.068259e-005
-9.373551e-005,6.907039e-006
-1.253383e-004,9.106226e-007
-1.386276e-004,3.665733e-006
-1.442999e-004,9.824214e-006
-1.412206e-004,1.355172e-005
-1.143178e-004,1.176900e-005
-4.657451e-005,4.962256e-006
6.103685e-005,-5.085794e-006
1.816135e-004,-9.623623e-006
2.749631e-004,-3.465141e-006
3.138588e-004,1.290346e-005
2.934386e-004,3.089270e-005
2.299089e-004,4.645098e-005
1.438522e-004,5.925414e-005
6.038860e-005,7.416414e-005
1.883015e-006,9.361198e-005
-2.453363e-005,1.146805e-004
-3.231276e-005,1.346145e-004
-4.219875e-005,1.490383e-004
-6.780506e-005,1.532520e-004
-1.084835e-004,1.406109e-004
-1.501342e-004,1.120874e-004
-1.776853e-004,6.703327e-005
-1.768750e-004,7.717366e-006
-1.349001e-004,-5.791909e-005
-3.863331e-005,-1.235555e-004
1.112771e-004,-1.874093e-004
3.038107e-004,-2.465631e-004
5.133613e-004,-2.935620e-004
7.041122e-004,-3.190063e-004
8.451092e-004,-3.170615e-004
9.146353e-004,-2.896725e-004
9.039390e-004,-2.423494e-004
8.160995e-004,-1.904885e-004
6.796403e-004,-1.468929e-004
5.318367e-004,-1.183694e-004
4.002396e-004,-1.023250e-004
2.973281e-004,-8.854943e-005
2.232642e-004,-6.553616e-005
1.694586e-004,-1.950961e-005
1.271595e-004,5.601283e-005
9.004655e-005,1.508210e-004
5.487837e-005,2.323399e-004
1.646889e-005,2.723700e-004
-2.680255e-005,2.645909e-004
-7.655659e-005,2.300710e-004
-1.347380e-004,2.008992e-004
-2.006986e-004,1.953890e-004
-2.690902e-004,2.148369e-004
-3.297026e-004,2.457913e-004
-3.818876e-004,2.723700e-004
-4.248349e-004,2.820940e-004
-4.531963e-004,2.752873e-004
-4.650271e-004,2.563256e-004
-4.590307e-004,2.310434e-004
-4.366657e-004,2.008992e-004
-3.974459e-004,1.657311e-004
-3.376438e-004,1.261871e-004
-2.554767e-004,8.567078e-005
-1.564548e-004,4.920609e-005
-5.419158e-005,1.760335e-005
4.158902e-005,-1.108221e-005
1.219734e-004,-4.219875e-005
1.864754e-004,-7.428768e-005
2.383363e-004,-9.794922e-005
2.866318e-004,-1.044318e-004
3.452995e-004,-9.179074e-005
4.222805e-004,-6.472583e-005
5.052580e-004,-3.036798e-005
5.702462e-004,5.610517e-006
5.940698e-004,4.142695e-005
5.623050e-004,7.432621e-005
4.713863e-004,9.717742e-005
3.277964e-004,1.069013e-004
1.467694e-004,1.067393e-004
-4.560212e-005,1.017153e-004
-2.196603e-004,9.101894e-005
-3.510952e-004,7.043664e-005
-4.358554e-004,3.883391e-005
-4.945230e-004,3.017472e-006
-5.520561e-004,-2.664048e-005
-6.288751e-004,-4.592625e-005
-7.259522e-004,-5.467778e-005
-8.243258e-004,-5.824321e-005
-8.920691e-004,-6.083626e-005
-8.987138e-004,-6.310517e-005
-8.173570e-004,-6.035006e-005
-6.376266e-004,-4.706071e-005
-3.682741e-004,-2.291298e-005
-4.430560e-005,8.527692e-006
2.728562e-004,3.705119e-005
5.206542e-004,5.779555e-005
6.524133e-004,7.059870e-005
6.465790e-004,7.789165e-005
5.153061e-004,8.340186e-005
3.026763e-004,9.037068e-005
6.735740e-005,9.977046e-005
-1.363587e-004,1.064151e-004
-2.799485e-004,1.078737e-004
-3.580640e-004,1.046324e-004
-3.797808e-004,9.474644e-005
-3.561192e-004,7.935023e-005
-3.002067e-004,6.411610e-005
-2.269532e-004,5.406805e-005
-1.496480e-004,5.001641e-005
-7.979790e-005,4.920609e-005
-2.842320e-005,4.807163e-005
-8.165034e-006,4.450619e-005
-2.485776e-005,4.061663e-005
-7.250496e-005,3.818564e-005
-1.349001e-004,3.883391e-005
-2.034537e-004,4.726130e-005
-2.653627e-004,6.217131e-005
-3.024756e-004,7.481241e-005
-3.039342e-004,8.178122e-005
-2.689281e-004,8.080882e-005
-2.024813e-004,7.384001e-005
-1.190177e-004,6.914012e-005
-3.798505e-005,7.108490e-005
1.922400e-005,7.821578e-005
4.920609e-005,8.340186e-005
6.589881e-005,8.323980e-005
8.583285e-005,8.194328e-005
1.127357e-004,8.275361e-005
1.448246e-004,8.469840e-005
1.791825e-004,8.567078e-005
2.185644e-004,8.550872e-005
2.574600e-004,8.534666e-005
2.884145e-004,8.469840e-005
3.049452e-004,8.599491e-005
3.023521e-004,9.215340e-005
2.773941e-004,1.012291e-004
2.362295e-004,1.060910e-004
1.921477e-004,9.847395e-005
1.524417e-004,7.513654e-005
1.237561e-004,4.256141e-005
1.088461e-004,7.231170e-006
1.096565e-004,-3.344722e-005
1.253768e-004,-7.898758e-005
1.551968e-004,-1.242038e-004
1.987924e-004,-1.551583e-004
2.560015e-004,-1.630995e-004
3.198552e-004,-1.460826e-004
3.820883e-004,-1.079973e-004
4.284390e-004,-5.775702e-005
4.396215e-004,-7.840905e-006
4.073705e-004,3.332369e-005
3.376824e-004,6.249544e-005
2.474120e-004,8.048469e-005
1.576278e-004,8.939829e-005
8.453633e-005,9.409818e-005
2.765140e-005,9.669123e-005
-1.821308e-005,9.701536e-005
-5.970180e-005,9.344992e-005
-9.632856e-005,8.875003e-005
-1.206384e-004,8.453633e-005
-1.280934e-004,8.048469e-005
-1.164247e-004,7.335382e-005
-9.243900e-005,6.687120e-005
-6.099833e-005,6.152305e-005
-1.707863e-005,5.390598e-005
4.742337e-005,3.883391e-005
1.260251e-004,1.582063e-005
1.983062e-004,-1.027188e-005
2.415776e-004,-2.890940e-005
2.451431e-004,-3.555407e-005
2.196988e-004,-3.296103e-005
1.908512e-004,-2.647842e-005
1.759412e-004,-2.015787e-005
1.799928e-004,-1.529591e-005
1.971717e-004,-1.221667e-005
2.156472e-004,-1.480971e-005
2.188885e-004,-2.145439e-005
1.940925e-004,-2.680255e-005
1.352628e-004,-2.939559e-005
4.466826e-005,-2.923352e-005
-6.683268e-005,-2.437157e-005
-1.814128e-004,-1.140634e-005
-2.817312e-004,5.610517e-006
-3.519055e-004,2.376183e-005
-3.786463e-004,3.883391e-005
-3.525538e-004,5.406805e-005
-2.758969e-004,7.157111e-005
-1.650442e-004,8.826383e-005
-4.576419e-005,9.928427e-005
4.466826e-005,9.879807e-005
8.145709e-005,8.242948e-005
7.594687e-005,5.228533e-005
6.703327e-005,1.906194e-005
1.015532e-004,-9.137427e-006
1.958752e-004,-3.020592e-005
3.198552e-004,-4.430560e-005
4.310320e-004,-5.516398e-005
5.055821e-004,-6.359137e-005
5.420469e-004,-6.359137e-005
5.473950e-004,-4.835723e-005
5.279472e-004,-2.048200e-005
4.919686e-004,1.095867e-005
4.569625e-004,3.915804e-005
4.349216e-004,6.233338e-005
4.239012e-004,7.870197e-005
4.149876e-004,8.988448e-005
3.969983e-004,1.000946e-004
3.652335e-004,1.090082e-004
3.253654e-004,1.145184e-004
2.829043e-004,1.107909e-004
2.420638e-004,9.523264e-005
2.038164e-004,7.335382e-005
1.722137e-004,5.115087e-005
1.454729e-004,3.397195e-005
1.177597e-004,2.473422e-005
9.053274e-005,2.392390e-005
6.687120e-005,2.570661e-005
4.807163e-005,2.716520e-005
3.137890e-005,3.170303e-005
1.533444e-005,3.980630e-005
-5.896120e-006,4.807163e-005
-3.685059e-005,5.341978e-005
-7.785312e-005,5.504044e-005
-1.272830e-004,5.666109e-005
-1.776853e-004,5.779555e-005
-2.191741e-004,5.876794e-005
-2.454286e-004,5.844381e-005
-2.556388e-004,5.714729e-005
-2.473734e-004,5.552663e-005
-2.152845e-004,5.714729e-005
-1.582375e-004,6.233338e-005
-8.352540e-005,7.384001e-005
-1.221667e-005,8.988448e-005
3.397195e-005,1.047945e-004
4.547859e-005,1.156529e-004
2.133085e-005,1.198666e-004
-3.360929e-005,1.167873e-004
-1.141557e-004,1.020394e-004
-2.143121e-004,7.951231e-005
-3.350507e-004,6.184718e-005
-4.732924e-004,5.876794e-005
-6.170443e-004,7.108490e-005
-7.432931e-004,8.777764e-005
-8.379393e-004,9.523264e-005
-8.935277e-004,8.680524e-005
-9.132997e-004,6.995045e-005
-8.993620e-004,5.147500e-005
-8.499321e-004,3.980630e-005
-7.645237e-004,3.753739e-005
-6.458919e-004,4.126489e-005
-4.997090e-004,4.807163e-005
-3.334301e-004,5.649903e-005
-1.588858e-004,6.492643e-005
7.879431e-006,6.978838e-005
1.545486e-004,6.622294e-005
2.715597e-004,5.325772e-005
3.474063e-004,3.154097e-005
3.676645e-004,7.231170e-006
3.286067e-004,-1.464765e-005
2.438465e-004,-3.231276e-005
1.381799e-004,-4.187462e-005
4.272347e-005,-4.284701e-005
-2.307504e-005,-3.506787e-005
-5.159854e-005,-1.659243e-005
-4.300908e-005,1.112074e-005
-6.382316e-006,4.256141e-005
4.726130e-005,6.444023e-005
1.049566e-004,6.800567e-005
1.568175e-004,4.953022e-005
1.918236e-004,1.517237e-005
1.949028e-004,-1.918548e-005
1.595726e-004,-3.928157e-005
9.426025e-005,-4.187462e-005
1.403791e-005,-3.279896e-005
-7.607040e-005,-1.983374e-005
-1.708786e-004,3.989864e-006
-2.624455e-004,4.936815e-005
-3.332680e-004,1.141943e-004
-3.601709e-004,1.756170e-004
-3.258130e-004,2.018716e-004
-2.327876e-004,1.825858e-004
-9.811128e-005,1.320215e-004
5.277152e-005,7.513654e-005
1.958752e-004,3.380988e-005
3.174242e-004,1.776542e-005
4.159599e-004,2.165498e-005
4.909962e-004,3.186510e-005
5.381573e-004,3.462021e-005
5.546879e-004,2.084466e-005
5.386435e-004,-7.030578e-006
5.028270e-004,-4.203669e-005
4.705760e-004,-7.558420e-005
4.608521e-004,-1.018388e-004
4.744656e-004,-1.204763e-004
4.956961e-004,-1.282554e-004
5.084993e-004,-1.206384e-004
5.016925e-004,-9.713889e-005
4.780310e-004,-5.986387e-005
4.418904e-004,-1.756482e-005
3.942432e-004,1.873781e-005
3.433547e-004,4.175108e-005
2.999211e-004,5.341978e-005
2.707494e-004,6.055066e-005
2.524360e-004,6.930219e-005
2.384984e-004,8.032263e-005
2.271538e-004,9.182927e-005
2.253711e-004,9.879807e-005
2.409294e-004,1.010670e-004
2.743148e-004,9.960840e-005
3.146691e-004,9.393611e-005
3.431926e-004,8.161915e-005
3.443271e-004,6.800567e-005
3.130485e-004,5.844381e-005
2.589186e-004,5.471631e-005
2.028440e-004,5.325772e-005
1.649207e-004,5.293359e-005
1.503348e-004,5.423011e-005
1.485521e-004,5.698522e-005
1.393144e-004,6.038860e-005
1.111150e-004,6.346784e-005
5.585077e-005,6.362990e-005
-3.312309e-005,5.974033e-005
-1.512687e-004,5.147500e-005
-2.744383e-004,3.980630e-005
-3.660052e-004,2.505835e-005
-3.961493e-004,1.063454e-005
-3.634122e-004,4.800190e-006
-2.912931e-004,1.371378e-005
-2.078295e-004,3.316162e-005
-1.361966e-004,5.147500e-005
-8.563225e-005,6.168512e-005
-4.949169e-005,6.136099e-005
-1.999580e-005,5.649903e-005
9.662150e-006,5.179913e-005
3.445814e-005,5.050261e-005
4.239934e-005,5.277152e-005
3.251336e-005,5.439218e-005
1.371378e-005,5.001641e-005
5.286386e-006,4.077869e-005
2.019640e-005,3.235129e-005
5.471631e-005,3.154097e-005
9.377405e-005,4.547859e-005
1.282940e-004,7.756751e-005
1.537382e-004,1.235941e-004
1.709171e-004,1.683241e-004
1.778859e-004,1.957131e-004
1.738343e-004,1.945787e-004
1.618415e-004,1.668655e-004
1.456350e-004,1.201907e-004
1.278078e-004,6.184718e-005
1.052807e-004,-1.844488e-006
6.687120e-005,-6.018800e-005
-7.192643e-006,-1.010285e-004
-1.287416e-004,-1.196660e-004
-2.958309e-004,-1.191798e-004
-4.752372e-004,-1.065387e-004
-6.214201e-004,-8.854943e-005
-7.018045e-004,-7.185670e-005
-7.186593e-004,-5.597430e-005
-6.844635e-004,-3.798505e-005
-6.113721e-004,-1.675450e-005
-5.082985e-004,3.503668e-006
-3.987424e-004,1.841368e-005
-3.206269e-004,2.765140e-005
-2.958309e-004,3.526847e-005
-3.167374e-004,4.483032e-005
-3.562813e-004,5.341978e-005
-3.752429e-004,5.779555e-005
-3.494745e-004,5.795762e-005
-2.762210e-004,5.260946e-005
-1.697441e-004,3.915804e-005
-4.803310e-005,1.987226e-005
6.962632e-005,-1.682422e-006
1.665414e-004,-1.756482e-005
2.342847e-004,-2.031993e-005
2.647530e-004,-8.813297e-006
2.634565e-004,1.598270e-005
2.453051e-004,4.969228e-005
2.329882e-004,8.631904e-005
2.433604e-004,1.192183e-004
2.769079e-004,1.459591e-004
3.234207e-004,1.595726e-004
3.642611e-004,1.597346e-004
3.895433e-004,1.519555e-004
