3.834771e-005,1.017153e-004
5.325772e-005,9.782569e-005
6.978838e-005,9.312579e-005
9.280166e-005,8.388807e-005
1.184080e-004,6.800567e-005
1.359110e-004,4.288554e-005
1.435281e-004,1.193106e-005
1.466074e-004,-1.756482e-005
1.492004e-004,-4.025397e-005
1.534141e-004,-5.678463e-005
1.566554e-004,-6.958779e-005
1.545486e-004,-7.914964e-005
1.474177e-004,-8.109442e-005
1.490383e-004,-7.363942e-005
1.709171e-004,-5.386745e-005
2.115955e-004,-2.485776e-005
2.582704e-004,6.096713e-006
2.957075e-004,3.299956e-005
3.088348e-004,5.212327e-005
2.858215e-004,6.427816e-005
2.234263e-004,7.221937e-005
1.336421e-004,7.853991e-005
3.008238e-005,8.648111e-005
-7.736692e-005,9.928427e-005
-1.734716e-004,1.133840e-004
-2.481837e-004,1.201907e-004
-3.026377e-004,1.125736e-004
-3.416954e-004,9.166720e-005
-3.710292e-004,6.103685e-005
-3.993907e-004,3.137890e-005
-4.353692e-004,9.662150e-006
-4.809095e-004,-3.951337e-006
-5.295291e-004,-1.270286e-005
-5.716661e-004,-2.323711e-005
-5.987309e-004,-4.074016e-005
-5.943552e-004,-6.748093e-005
-5.454115e-004,-1.039456e-004
-4.510895e-004,-1.392759e-004
-3.207890e-004,-1.551583e-004
-1.814128e-004,-1.415448e-004
-5.808115e-005,-1.021629e-004
3.218923e-005,-4.544005e-005
8.405013e-005,1.176900e-005
1.028497e-004,5.390598e-005
9.539470e-005,7.189524e-005
7.562274e-005,6.427816e-005
6.071273e-005,3.786152e-005
6.816773e-005,4.800190e-006
1.026876e-004,-2.712668e-005
1.563313e-004,-5.500191e-005
2.166196e-004,-7.412562e-005
2.679943e-004,-7.995997e-005
3.004074e-004,-7.153257e-005
3.153174e-004,-5.240886e-005
3.221241e-004,-2.615428e-005
3.248792e-004,4.638125e-006
3.200173e-004,3.753739e-005
2.887386e-004,7.173317e-005
2.205091e-004,1.022014e-004
1.338042e-004,1.227837e-004
5.455424e-005,1.294284e-004
-3.303075e-006,1.258630e-004
-3.522994e-005,1.172735e-004
-3.604027e-005,1.098185e-004
-7.516774e-006,1.034980e-004
3.332369e-005,1.002567e-004
7.384001e-005,1.025256e-004
1.046324e-004,1.093323e-004
1.234320e-004,1.161391e-004
1.383420e-004,1.163011e-004
1.519555e-004,1.077117e-004
1.680000e-004,9.442231e-005
1.830720e-004,8.405013e-005
1.851789e-004,8.161915e-005
1.676758e-004,8.680524e-005
1.365593e-004,9.409818e-005
1.054428e-004,1.009049e-004
8.761556e-005,1.052807e-004
9.085687e-005,1.059289e-004
1.171115e-004,1.047945e-004
1.600588e-004,1.086841e-004
2.073818e-004,1.211631e-004
2.409294e-004,1.380179e-004
2.514636e-004,1.529279e-004
2.459534e-004,1.605450e-004
2.438465e-004,1.590864e-004
2.576221e-004,1.524417e-004
2.827422e-004,1.449867e-004
3.070520e-004,1.401247e-004
3.218000e-004,1.328318e-004
3.240689e-004,1.206769e-004
3.094830e-004,1.056048e-004
2.731804e-004,9.361198e-005
2.093266e-004,8.372600e-005
1.166253e-004,7.270556e-005
4.476060e-006,5.941620e-005
-1.079973e-004,4.434413e-005
-2.117190e-004,3.316162e-005
-2.972895e-004,2.992031e-005
-3.570916e-004,3.656499e-005
-3.882081e-004,4.483032e-005
-3.948528e-004,4.709924e-005
-3.818876e-004,4.142695e-005
-3.527158e-004,3.154097e-005
-3.134960e-004,2.100672e-005
-2.668213e-004,9.175954e-006
-2.169051e-004,-4.275467e-006
-1.697441e-004,-1.480971e-005
-1.316588e-004,-2.096819e-005
-1.107524e-004,-2.194059e-005
-1.110765e-004,-1.464765e-005
-1.329553e-004,5.864920e-007
-1.724992e-004,1.873781e-005
-2.219292e-004,2.765140e-005
-2.690902e-004,2.522042e-005
-3.021515e-004,1.792748e-005
-3.203028e-004,1.193106e-005
-3.217614e-004,1.112074e-005
-3.050687e-004,1.193106e-005
-2.720073e-004,1.517237e-005
-2.251705e-004,2.116879e-005
-1.663408e-004,2.424803e-005
-9.940780e-005,1.663096e-005
-3.231276e-005,-3.141010e-006
2.684107e-005,-2.955766e-005
6.768153e-005,-5.565017e-005
8.486046e-005,-7.801519e-005
7.562274e-005,-9.179074e-005
4.985435e-005,-9.486997e-005
3.818564e-005,-8.887356e-005
7.870197e-005,-7.882551e-005
1.932822e-004,-6.877746e-005
3.658818e-004,-6.261898e-005
5.496639e-004,-6.180866e-005
6.953607e-004,-6.245691e-005
7.773659e-004,-5.840528e-005
7.903310e-004,-4.560212e-005
7.457631e-004,-2.728874e-005
6.676475e-004,-8.165034e-006
5.741358e-004,5.934647e-006
4.723587e-004,1.533444e-005
3.572923e-004,2.214118e-005
2.268297e-004,3.170303e-005
9.020861e-005,4.742337e-005
-5.451571e-005,6.703327e-005
-2.170672e-004,8.745350e-005
-3.935563e-004,1.025256e-004
-5.599973e-004,1.088461e-004
-6.804119e-004,1.064151e-004
-7.282211e-004,9.831188e-005
-6.946736e-004,8.923622e-005
-5.856036e-004,8.129502e-005
-4.172178e-004,7.384001e-005
-2.105846e-004,6.508849e-005
6.420843e-006,5.423011e-005
1.973338e-004,4.369587e-005
3.326584e-004,3.932010e-005
3.995913e-004,4.256141e-005
4.042912e-004,4.888196e-005
3.705817e-004,5.682316e-005
3.235827e-004,7.059870e-005
2.816078e-004,8.648111e-005
2.545429e-004,1.007429e-004
2.427121e-004,1.114392e-004
2.367157e-004,1.184080e-004
2.261814e-004,1.226217e-004
2.106232e-004,1.252147e-004
1.897167e-004,1.237561e-004
1.680000e-004,1.133840e-004
1.514693e-004,9.182927e-005
1.402868e-004,6.281957e-005
1.240803e-004,3.364782e-005
1.010670e-004,6.582909e-006
8.486046e-005,-1.675450e-005
9.604297e-005,-3.312309e-005
1.445005e-004,-4.009190e-005
2.198609e-004,-3.636440e-005
3.034866e-004,-2.469570e-005
3.788470e-004,-1.124428e-005
4.347596e-004,2.623614e-007
4.592314e-004,9.824214e-006
4.389732e-004,1.841368e-005
3.670162e-004,3.089270e-005
2.558394e-004,4.580272e-005
1.344524e-004,5.747142e-005
3.397195e-005,6.508849e-005
-2.420950e-005,7.221937e-005
-2.599222e-005,8.048469e-005
2.538249e-005,9.199134e-005
1.073875e-004,1.025256e-004
1.902029e-004,1.041462e-004
2.431983e-004,9.458438e-005
2.449810e-004,7.659513e-005
1.905270e-004,5.260946e-005
9.085687e-005,2.862379e-005
-3.506787e-005,7.717366e-006
-1.757406e-004,-9.947754e-006
-3.355369e-004,-2.275091e-005
-5.079744e-004,-3.020592e-005
-6.705258e-004,-3.344722e-005
-7.956403e-004,-3.344722e-005
-8.667869e-004,-3.247483e-005
-8.815349e-004,-3.198863e-005
-8.526872e-004,-2.939559e-005
-8.029332e-004,-2.307504e-005
-7.432931e-004,-1.318906e-005
-6.713362e-004,-2.978945e-006
-5.778245e-004,1.883015e-006
-4.659995e-004,-2.330684e-006
-3.491504e-004,-1.578211e-005
-2.439700e-004,-3.425755e-005
-1.642339e-004,-4.932962e-005
-1.096179e-004,-5.451571e-005
-6.780506e-005,-4.738484e-005
-2.777494e-005,-2.923352e-005
1.322759e-005,-7.678839e-006
5.341978e-005,1.144487e-005
9.134307e-005,2.862379e-005
1.274836e-004,4.774750e-005
1.618415e-004,7.027457e-005
1.957131e-004,9.393611e-005
2.290986e-004,1.111150e-004
2.534084e-004,1.187321e-004
2.628082e-004,1.143563e-004
2.587565e-004,1.033359e-004
2.448189e-004,8.972242e-005
2.284503e-004,7.432621e-005
2.137024e-004,5.260946e-005
1.976579e-004,2.522042e-005
1.773998e-004,-3.627206e-006
1.576278e-004,-3.215070e-005
1.438522e-004,-5.467778e-005
1.438522e-004,-6.407756e-005
1.573037e-004,-5.986387e-005
1.783722e-004,-4.414354e-005
2.034923e-004,-2.048200e-005
2.302331e-004,9.175954e-006
2.563256e-004,4.045456e-005
2.701011e-004,6.881599e-005
2.556773e-004,9.004655e-005
2.138645e-004,1.085220e-004
1.665414e-004,1.235941e-004
1.342904e-004,1.391524e-004
1.221355e-004,1.563313e-004
1.224596e-004,1.665414e-004
1.239182e-004,1.605450e-004
1.195424e-004,1.367214e-004
1.141943e-004,1.057669e-004
1.169494e-004,8.242948e-005
1.266733e-004,7.059870e-005
1.331559e-004,7.059870e-005
1.281319e-004,7.724339e-005
1.098185e-004,8.680524e-005
8.291567e-005,1.000946e-004
6.200925e-005,1.185700e-004
5.649903e-005,1.385041e-004
6.168512e-005,1.550348e-004
6.606088e-005,1.633001e-004
6.346784e-005,1.637863e-004
5.423011e-005,1.586002e-004
4.645098e-005,1.488763e-004
4.483032e-005,1.351007e-004
4.499239e-005,1.158149e-004
4.029249e-005,9.571883e-005
3.510640e-005,7.886404e-005
3.170303e-005,6.589881e-005
3.024445e-005,5.487837e-005
2.797553e-005,3.850977e-005
2.246531e-005,1.063454e-005
1.517237e-005,-2.696461e-005
5.610517e-006,-7.315322e-005
-1.075808e-005,-1.159385e-004
-3.522994e-005,-1.425172e-004
-6.650855e-005,-1.483515e-004
-9.535618e-005,-1.329553e-004
-1.169109e-004,-1.016767e-004
-1.285796e-004,-6.245691e-005
-1.336036e-004,-2.291298e-005
-1.327932e-004,9.662150e-006
-1.217728e-004,3.478227e-005
-9.405964e-005,4.871989e-005
-4.803310e-005,5.098881e-005
1.014835e-005,3.705119e-005
7.384001e-005,5.286386e-006
1.404489e-004,-4.106429e-005
2.068957e-004,-9.162867e-005
2.725321e-004,-1.326312e-004
3.329825e-004,-1.509446e-004
3.786849e-004,-1.421931e-004
3.957018e-004,-1.084835e-004
3.752816e-004,-6.164659e-005
3.292550e-004,-1.691656e-005
2.806354e-004,1.711715e-005
2.433604e-004,3.445814e-005
2.219677e-004,3.802358e-005
2.219677e-004,3.186510e-005
2.451431e-004,2.586868e-005
2.770700e-004,3.251336e-005
2.983005e-004,5.925414e-005
2.952213e-004,9.814982e-005
2.696149e-004,1.342904e-004
2.248849e-004,1.537382e-004
1.634621e-004,1.506590e-004
9.377405e-005,1.261871e-004
1.808955e-005,9.101894e-005
-6.650855e-005,5.893001e-005
-1.561307e-004,3.964423e-005
-2.417011e-004,3.802358e-005
-3.139823e-004,5.293359e-005
-3.710292e-004,7.270556e-005
-4.117076e-004,9.053274e-005
-4.356933e-004,1.041462e-004
-4.421759e-004,1.088461e-004
-4.298589e-004,9.879807e-005
-4.031182e-004,7.643306e-005
-3.674638e-004,5.423011e-005
-3.285681e-004,4.094075e-005
-2.878897e-004,4.013043e-005
-2.464010e-004,4.839576e-005
-2.070192e-004,6.346784e-005
-1.697441e-004,7.853991e-005
-1.300381e-004,8.664317e-005
-7.947377e-005,8.729143e-005
-1.740276e-005,7.967437e-005
4.888196e-005,6.881599e-005
1.119254e-004,5.714729e-005
1.620035e-004,4.985435e-005
1.911753e-004,4.758544e-005
1.992786e-004,4.807163e-005
1.950649e-004,4.580272e-005
1.927960e-004,3.867184e-005
2.062474e-004,3.073064e-005
2.453051e-004,2.765140e-005
2.999211e-004,2.910999e-005
3.441650e-004,3.202716e-005
3.534027e-004,3.510640e-005
3.200173e-004,4.077869e-005
2.577842e-004,5.001641e-005
1.902029e-004,5.990240e-005
1.318594e-004,6.995045e-005
9.166720e-005,7.853991e-005
7.497447e-005,8.307774e-005
8.210535e-005,8.486046e-005
1.088461e-004,8.469840e-005
1.479039e-004,7.870197e-005
1.897167e-004,6.930219e-005
2.242366e-004,5.828174e-005
2.480603e-004,4.823369e-005
2.594048e-004,3.834771e-005
2.587565e-004,3.008238e-005
2.438465e-004,2.149292e-005
2.182402e-004,1.549650e-005
1.890685e-004,1.095867e-005
1.692965e-004,5.772582e-006
1.681620e-004,4.244267e-007
1.913374e-004,-2.978945e-006
2.337985e-004,-4.113402e-006
2.819319e-004,-5.247859e-006
3.200173e-004,-8.489165e-006
3.321721e-004,-1.237873e-005
3.109416e-004,-1.788895e-005
2.623220e-004,-2.437157e-005
1.939304e-004,-2.874733e-005
1.104668e-004,-2.939559e-005
1.695509e-005,-2.728874e-005
-8.158062e-005,-2.048200e-005
-1.752544e-004,-1.367526e-005
-2.561249e-004,-1.140634e-005
-3.230579e-004,-1.432352e-005
-3.778360e-004,-1.853721e-005
-4.279141e-004,-2.113026e-005
-4.812336e-004,-2.161646e-005
-5.381185e-004,-1.886135e-005
-5.966241e-004,-1.302699e-005
-6.573986e-004,-1.844488e-006
-7.180110e-004,1.306552e-005
-7.659823e-004,2.457216e-005
-7.893197e-004,2.927205e-005
-7.857542e-004,2.732727e-005
-7.560964e-004,2.197911e-005
-7.031010e-004,1.954813e-005
-6.223925e-004,2.003433e-005
-5.086227e-004,1.971020e-005
-3.724878e-004,2.084466e-005
-2.261429e-004,2.765140e-005
-8.190475e-005,3.899597e-005
4.483032e-005,4.969228e-005
1.441764e-004,5.974033e-005
2.098128e-004,7.238143e-005
2.370398e-004,8.388807e-005
2.368777e-004,9.118101e-005
2.333123e-004,9.328785e-005
2.477361e-004,9.053274e-005
2.819319e-004,8.486046e-005
3.263378e-004,7.643306e-005
3.707437e-004,6.573675e-005
4.130428e-004,5.358185e-005
4.433490e-004,4.288554e-005
4.412422e-004,3.705119e-005
3.898674e-004,3.478227e-005
2.848491e-004,3.494434e-005
1.410971e-004,3.429608e-005
-4.113402e-006,3.429608e-005
-1.159385e-004,3.786152e-005
-1.825473e-004,4.466826e-005
-2.180396e-004,5.585077e-005
-2.382978e-004,6.865393e-005
-2.472113e-004,7.853991e-005
-2.352185e-004,8.226741e-005
-1.927574e-004,8.372600e-005
-1.203142e-004,8.599491e-005
-2.469570e-005,8.907416e-005
8.226741e-005,8.972242e-005
1.861513e-004,8.502253e-005
2.712356e-004,7.448828e-005
3.247172e-004,6.055066e-005
3.316860e-004,4.888196e-005
2.876042e-004,4.434413e-005
2.125679e-004,4.953022e-005
1.414213e-004,6.217131e-005
9.118101e-005,7.643306e-005
5.811968e-005,8.323980e-005
3.932010e-005,7.675719e-005
4.531652e-005,6.022653e-005
7.951231e-005,4.645098e-005
1.282940e-004,4.483032e-005
1.678379e-004,5.341978e-005
1.863134e-004,6.832980e-005
1.780480e-004,7.967437e-005
1.511452e-004,8.145709e-005
1.151667e-004,7.416414e-005
8.161915e-005,6.314371e-005
5.212327e-005,5.504044e-005
2.829966e-005,4.871989e-005
1.808955e-005,4.029249e-005
2.748933e-005,2.278944e-005
5.552663e-005,-3.627206e-006
9.474644e-005,-3.312309e-005
1.394765e-004,-5.419158e-005
1.832341e-004,-6.213279e-005
2.171058e-004,-5.905355e-005
2.315296e-004,-5.224680e-005
2.203471e-004,-4.641245e-005
1.822617e-004,-4.333321e-005
1.219734e-004,-4.495386e-005
5.309565e-005,-4.916756e-005
-9.785687e-006,-5.257093e-005
-5.759496e-005,-5.240886e-005
-8.903562e-005,-4.349527e-005
-1.020008e-004,-2.453363e-005
-9.324932e-005,1.072688e-006
-6.197072e-005,2.700314e-005
-1.399939e-005,4.580272e-005
4.158902e-005,5.455424e-005
9.733949e-005,5.309565e-005
1.454729e-004,4.953022e-005
1.830720e-004,4.726130e-005
2.106232e-004,4.564065e-005
2.211574e-004,4.126489e-005
2.052750e-004,3.688912e-005
1.663793e-004,3.721326e-005
1.174356e-004,4.077869e-005
7.286762e-005,4.547859e-005
4.758544e-005,4.807163e-005
5.341978e-005,4.564065e-005
8.680524e-005,4.126489e-005
1.273216e-004,4.158902e-005
1.521176e-004,4.742337e-005
1.529279e-004,5.147500e-005
1.292664e-004,4.936815e-005
9.426025e-005,4.466826e-005
6.476436e-005,4.320967e-005
5.730935e-005,4.839576e-005
7.643306e-005,5.941620e-005
1.022014e-004,6.995045e-005
1.057669e-004,7.465034e-005
7.254349e-005,7.497447e-005
8.851824e-006,7.513654e-005
-5.905355e-005,7.481241e-005
-9.859748e-005,7.221937e-005
-8.854943e-005,6.751947e-005
-2.939559e-005,6.411610e-005
6.281957e-005,6.200925e-005
1.686482e-004,6.184718e-005
2.585945e-004,6.281957e-005
3.098072e-004,6.670914e-005
3.167760e-004,7.594687e-005
2.940868e-004,8.907416e-005
2.641047e-004,1.043083e-004
2.508154e-004,1.182459e-004
2.707494e-004,1.263492e-004
3.252033e-004,1.316973e-004
3.957018e-004,1.362352e-004
4.551798e-004,1.417454e-004
4.849998e-004,1.508210e-004
4.849998e-004,1.623277e-004
4.584211e-004,1.715654e-004
4.042912e-004,1.699447e-004
3.222862e-004,1.553589e-004
2.187264e-004,1.278078e-004
9.588090e-005,8.793970e-005
-4.365734e-005,4.126489e-005
-1.976194e-004,-7.354708e-006
-3.595226e-004,-5.159854e-005
-5.178603e-004,-8.579432e-005
-6.588572e-004,-1.021629e-004
-7.688995e-004,-9.794922e-005
-8.453943e-004,-7.785312e-005
-8.962828e-004,-5.305713e-005
-9.233477e-004,-3.571614e-005
-9.212409e-004,-3.377135e-005
-8.799142e-004,-4.770897e-005
-7.917507e-004,-6.699474e-005
-6.619364e-004,-8.222889e-005
-5.053813e-004,-8.806324e-005
-3.423437e-004,-8.417366e-005
-1.875713e-004,-7.169464e-005
-4.803310e-005,-5.548810e-005
7.011251e-005,-3.992984e-005
1.545486e-004,-2.809907e-005
1.992786e-004,-2.080613e-005
2.117576e-004,-1.464765e-005
2.017096e-004,-8.489165e-006
1.778859e-004,-6.176923e-008
1.480659e-004,1.144487e-005
1.218114e-004,2.116879e-005
1.060910e-004,2.603075e-005
1.064151e-004,2.667901e-005
1.271595e-004,2.619281e-005
1.665414e-004,2.651694e-005
2.140265e-004,2.748933e-005
2.561635e-004,2.878586e-005
2.846870e-004,2.894792e-005
2.968419e-004,2.651694e-005
2.965178e-004,2.748933e-005
2.887386e-004,3.121684e-005
2.773941e-004,3.591673e-005
2.671840e-004,3.964423e-005
2.623220e-004,4.369587e-005
2.647530e-004,4.871989e-005
2.709115e-004,5.098881e-005
2.778803e-004,4.547859e-005
2.798251e-004,3.235129e-005
2.683184e-004,1.792748e-005
2.397949e-004,6.744974e-006
1.961993e-004,1.883015e-006
1.342904e-004,4.800190e-006
5.633696e-005,1.241726e-005
-2.745081e-005,2.424803e-005
-1.041077e-004,3.640293e-005
-1.606685e-004,4.628891e-005
-1.921091e-004,4.742337e-005
-1.998883e-004,3.932010e-005
-1.916230e-004,2.700314e-005
-1.788198e-004,1.727922e-005
-1.716889e-004,1.517237e-005
-1.752544e-004,2.197911e-005
-1.903264e-004,3.624086e-005
-2.180396e-004,5.552663e-005
-2.533698e-004,7.708132e-005
-2.818933e-004,9.944633e-005
-2.783279e-004,1.239182e-004
-2.143121e-004,1.470936e-004
-7.752898e-005,1.623277e-004
1.185700e-004,1.623277e-004
3.425443e-004,1.462832e-004
5.567948e-004,1.210010e-004
7.300427e-004,9.652916e-005
8.473782e-004,8.372600e-005
9.032907e-004,8.907416e-005
9.076665e-004,1.096565e-004
8.742810e-004,1.357490e-004
8.177201e-004,1.558451e-004
7.470596e-004,1.645966e-004
6.645683e-004,1.589243e-004
5.726772e-004,1.388282e-004
4.662002e-004,1.088461e-004
3.352514e-004,7.432621e-005
1.735102e-004,4.045456e-005
-4.437533e-006,1.176900e-005
-1.663408e-004,-6.220251e-006
-2.820554e-004,-1.335112e-005
-3.412092e-004,-1.707863e-005
-3.410472e-004,-2.226472e-005
-2.843243e-004,-3.312309e-005
-1.893540e-004,-5.111234e-005
-9.632856e-005,-7.833932e-005
-4.284701e-005,-1.083214e-004
-4.414354e-005,-1.285796e-004
-9.389758e-005,-1.266348e-004
-1.747682e-004,-1.036215e-004
-2.627696e-004,-6.893953e-005
-3.340783e-004,-3.393342e-005
-3.708672e-004,-4.761663e-006
-3.692465e-004,1.744128e-005
-3.431540e-004,3.218923e-005
-3.144684e-004,3.769945e-005
-2.995584e-004,3.688912e-005
-3.078238e-004,3.202716e-005
-3.365093e-004,2.846173e-005
-3.729740e-004,2.927205e-005
-4.021458e-004,3.656499e-005
-4.146248e-004,5.082674e-005
-4.136524e-004,6.784360e-005
-4.121938e-004,8.016056e-005
-4.165696e-004,8.048469e-005
-4.215936e-004,7.043664e-005
-4.227281e-004,5.876794e-005
-4.172178e-004,5.487837e-005
-3.976079e-004,5.682316e-005
-3.553089e-004,5.957827e-005
-2.930758e-004,6.200925e-005
-2.225774e-004,6.346784e-005
-1.707165e-004,5.974033e-005
-1.538618e-004,4.790957e-005
-1.618029e-004,3.154097e-005
-1.653684e-004,1.468617e-005
-1.373311e-004,3.017472e-006
-6.537409e-005,7.485573e-007
4.612685e-005,6.582909e-006
1.769136e-004,1.744128e-005
2.919800e-004,2.570661e-005
3.605336e-004,2.813760e-005
3.807918e-004,2.570661e-005
3.796573e-004,2.149292e-005
3.905157e-004,2.035846e-005
4.352457e-004,2.100672e-005
5.133613e-004,2.100672e-005
6.033076e-004,1.873781e-005
6.812610e-004,1.565857e-005
7.277738e-004,1.695509e-005
7.376598e-004,2.603075e-005
7.177258e-004,4.385793e-005
6.749405e-004,6.444023e-005
6.055764e-004,8.145709e-005
4.997478e-004,9.069480e-005
3.527545e-004,9.020861e-005
1.726999e-004,8.518459e-005
-2.793700e-005,7.837785e-005
-2.394322e-004,6.832980e-005
-4.489826e-004,5.747142e-005
-6.377887e-004,4.596478e-005
-7.873749e-004,3.624086e-005
-8.792660e-004,3.251336e-005
-9.035757e-004,3.980630e-005
-8.572250e-004,5.747142e-005
-7.457241e-004,8.048469e-005
-5.872243e-004,1.030118e-004
-4.126800e-004,1.200286e-004
-2.520733e-004,1.313732e-004
-1.195039e-004,1.344524e-004
-1.902341e-005,1.308870e-004
5.260946e-005,1.221355e-004
9.766362e-005,1.120874e-004
1.242423e-004,1.054428e-004
1.412592e-004,9.993253e-005
1.560071e-004,9.490851e-005
1.688103e-004,9.037068e-005
1.811273e-004,8.502253e-005
1.923098e-004,7.708132e-005
2.038164e-004,6.865393e-005
2.154851e-004,6.217131e-005
2.286124e-004,6.055066e-005
2.368777e-004,6.217131e-005
2.386605e-004,6.411610e-005
2.410914e-004,6.444023e-005
2.462775e-004,6.119892e-005
2.472499e-004,5.390598e-005
2.375260e-004,4.645098e-005
2.145127e-004,3.867184e-005
1.830720e-004,3.186510e-005
1.443384e-004,2.603075e-005
9.896014e-005,2.181705e-005
4.904402e-005,1.695509e-005
1.234753e-006,1.355172e-005
-2.988179e-005,9.824214e-006
-3.296103e-005,6.420843e-006
-1.221667e-005,-3.858999e-007
2.262737e-005,-1.124428e-005
7.173317e-005,-2.307504e-005
1.423936e-004,-3.134038e-005
2.415776e-004,-3.134038e-005
3.681507e-004,-2.372330e-005
5.025028e-004,-1.124428e-005
6.200003e-004,7.485573e-007
7.018433e-004,6.096713e-006
7.363633e-004,3.341602e-006
7.195084e-004,-3.141010e-006
6.488480e-004,-1.124428e-005
5.230852e-004,-1.902341e-005
3.587509e-004,-2.275091e-005
1.914994e-004,-2.145439e-005
5.649903e-005,-1.513384e-005
-2.988179e-005,-8.489165e-006
-7.088431e-005,-6.706447e-006
-8.709084e-005,-6.868512e-006
-1.083214e-004,-3.303075e-006
-1.538618e-004,6.420843e-006
-2.274394e-004,1.695509e-005
-3.196545e-004,2.522042e-005
-4.061974e-004,3.380988e-005
-4.647030e-004,3.883391e-005
-4.860956e-004,4.110282e-005
-4.741028e-004,4.450619e-005
-4.356933e-004,4.790957e-005
-3.758912e-004,5.034054e-005
-3.008549e-004,5.147500e-005
-2.203085e-004,5.163707e-005
-1.530514e-004,5.034054e-005
-1.146419e-004,4.677511e-005
-9.422171e-005,3.867184e-005
-6.051213e-005,2.619281e-005
1.598270e-005,1.160693e-005
1.448246e-004,2.531276e-006
3.081865e-004,5.124321e-006
4.673347e-004,1.646889e-005
5.885596e-004,2.732727e-005
6.613270e-004,2.846173e-005
6.911471e-004,2.133085e-005
6.922815e-004,1.582063e-005
6.634339e-004,1.889987e-005
6.136798e-004,2.992031e-005
5.699221e-004,4.337174e-005
5.533914e-004,5.439218e-005
5.668428e-004,5.811968e-005
5.968249e-004,5.471631e-005
6.306966e-004,4.677511e-005
6.572753e-004,3.559260e-005
6.579236e-004,2.522042e-005
6.172452e-004,1.938607e-005
5.329712e-004,1.695509e-005
4.179047e-004,1.468617e-005
2.929523e-004,9.662150e-006
1.816135e-004,5.934647e-006
9.344992e-005,9.500084e-006
2.343770e-005,1.954813e-005
-3.377135e-005,3.024445e-005
-7.137050e-005,3.656499e-005
-8.303921e-005,4.029249e-005
-7.769105e-005,4.369587e-005
-7.137050e-005,4.693717e-005
-8.077029e-005,4.758544e-005
-1.092938e-004,4.807163e-005
-1.405724e-004,4.920609e-005
-1.596961e-004,4.564065e-005
-1.677994e-004,3.510640e-005
-1.807646e-004,1.987226e-005
-2.123673e-004,6.907039e-006
-2.673074e-004,-2.816880e-006
-3.412092e-004,-6.706447e-006
-4.279141e-004,-5.409925e-006
-5.194810e-004,-4.275467e-006
-6.141271e-004,-8.002969e-006
-7.089353e-004,-1.529591e-005
-7.886714e-004,-1.610623e-005
-8.306463e-004,-5.734055e-006
-8.167087e-004,1.257933e-005
-7.513964e-004,3.056858e-005
-6.559400e-004,4.369587e-005
-5.538389e-004,5.017848e-005
-4.647030e-004,5.277152e-005
-4.005251e-004,5.568870e-005
-3.572537e-004,5.974033e-005
-3.235441e-004,6.314371e-005
-2.891863e-004,6.557468e-005
-2.527216e-004,6.638501e-005
-2.196603e-004,6.314371e-005
-2.006986e-004,5.536457e-005
-2.081536e-004,4.450619e-005
-2.387839e-004,3.364782e-005
-2.707108e-004,2.165498e-005
-2.833519e-004,1.063454e-005
-2.674695e-004,1.234753e-006
-2.282497e-004,-6.382316e-006
-1.823852e-004,-1.237873e-005
-1.444620e-004,-1.691656e-005
-1.172350e-004,-1.707863e-005
-1.052422e-004,-1.010982e-005
-1.125351e-004,4.800190e-006
-1.357104e-004,2.684107e-005
-1.713648e-004,5.147500e-005
-2.079916e-004,7.529860e-005
-2.318151e-004,9.636710e-005
-2.319772e-004,1.159770e-004
-2.094501e-004,1.352628e-004
-1.736337e-004,1.530900e-004
-1.400862e-004,1.678379e-004
-1.204763e-004,1.730240e-004
-1.123730e-004,1.607070e-004
-1.028112e-004,1.276457e-004
-8.368747e-005,7.627100e-005
-5.532604e-005,1.825161e-005
-1.464765e-005,-3.344722e-005
4.515445e-005,-6.812920e-005
1.326697e-004,-8.271508e-005
2.431983e-004,-8.303921e-005
3.626405e-004,-7.655659e-005
4.702519e-004,-6.812920e-005
5.491777e-004,-5.872941e-005
5.867769e-004,-4.754691e-005
5.824011e-004,-3.458168e-005
5.383193e-004,-1.837515e-005
4.709001e-004,2.693341e-006
4.094774e-004,2.748933e-005
3.864641e-004,5.666109e-005
4.143393e-004,8.469840e-005
4.838654e-004,1.064151e-004
5.708945e-004,1.201907e-004
6.465790e-004,1.257009e-004
6.903367e-004,1.258630e-004
6.926056e-004,1.219734e-004
6.477135e-004,1.179218e-004
5.595500e-004,1.145184e-004
4.465903e-004,1.156529e-004
3.268240e-004,1.248906e-004
2.107852e-004,1.391524e-004
1.002567e-004,1.519555e-004
-1.124428e-005,1.587622e-004
-1.250141e-004,1.566554e-004
-2.303566e-004,1.438522e-004
-3.136581e-004,1.222975e-004
-3.695707e-004,9.296372e-005
-3.955011e-004,6.281957e-005
-3.938804e-004,4.320967e-005
-3.666535e-004,4.823369e-005
-3.074996e-004,7.886404e-005
-2.143121e-004,1.234320e-004
-1.002181e-004,1.624898e-004
5.448451e-006,1.808031e-004
7.643306e-005,1.689724e-004
1.090082e-004,1.294284e-004
1.171115e-004,7.546067e-005
1.229458e-004,2.084466e-005
1.422316e-004,-2.242678e-005
1.809652e-004,-4.868136e-005
2.318537e-004,-5.694669e-005
2.807975e-004,-5.095028e-005
3.140208e-004,-3.539201e-005
3.183966e-004,-1.399939e-005
2.918179e-004,9.175954e-006
2.532463e-004,2.992031e-005
2.231022e-004,4.385793e-005
2.049509e-004,5.244739e-005
1.966855e-004,5.876794e-005
1.876099e-004,6.265751e-005
1.701068e-004,6.265751e-005
1.401247e-004,5.585077e-005
9.280166e-005,4.531652e-005
2.376183e-005,3.413401e-005
-6.440169e-005,2.343770e-005
-1.569410e-004,6.907039e-006
-2.298704e-004,-1.740276e-005
-2.637420e-004,-4.544005e-005
-2.509389e-004,-7.331529e-005
-2.018331e-004,-9.535618e-005
-1.378173e-004,-1.096179e-004
-8.255302e-005,-1.144799e-004
-4.608832e-005,-1.105903e-004
-2.631635e-005,-9.875954e-005
-1.075808e-005,-7.947377e-005
4.962256e-006,-5.483985e-005
2.392390e-005,-2.858526e-005
3.915804e-005,-7.840905e-006
4.045456e-005,7.555300e-006
2.716520e-005,1.565857e-005
8.041497e-006,1.987226e-005
-4.113402e-006,2.538249e-005
3.341602e-006,3.429608e-005
3.883391e-005,4.661304e-005
9.944633e-005,6.168512e-005
1.692965e-004,7.870197e-005
2.341226e-004,9.393611e-005
2.854973e-004,1.030118e-004
3.230965e-004,1.041462e-004
3.483787e-004,9.863601e-005
3.649094e-004,8.972242e-005
3.728506e-004,8.145709e-005
3.762539e-004,7.189524e-005
3.765781e-004,5.471631e-005
3.712299e-004,2.554455e-005
3.548613e-004,-6.220251e-006
3.281205e-004,-2.728874e-005
2.963557e-004,-2.534396e-005
2.681563e-004,4.244267e-007
2.462775e-004,3.883391e-005
2.256952e-004,7.772959e-005
2.004130e-004,1.067393e-004
1.628139e-004,1.235941e-004
1.088461e-004,1.302387e-004
4.385793e-005,1.331559e-004
-2.194059e-005,1.357490e-004
-8.093235e-005,1.363972e-004
-1.318209e-004,1.328318e-004
-1.771991e-004,1.216493e-004
-2.117190e-004,1.009049e-004
-2.256567e-004,7.286762e-005
-2.182017e-004,4.272347e-005
-1.997262e-004,1.614476e-005
-1.875713e-004,7.485573e-007
-1.903264e-004,-2.330684e-006
-2.083157e-004,2.623614e-007
-2.324634e-004,-1.196226e-006
-2.457528e-004,-1.513384e-005
-2.420253e-004,-4.057810e-005
-2.253325e-004,-6.667061e-005
-1.963229e-004,-7.963584e-005
-1.530514e-004,-7.590833e-005
-9.584237e-005,-6.035006e-005
-3.166451e-005,-4.057810e-005
3.672705e-005,-2.356124e-005
9.912220e-005,-1.010982e-005
1.365593e-004,1.234753e-006
1.381799e-004,1.014835e-005
1.239182e-004,1.614476e-005
1.305629e-004,2.230324e-005
1.761032e-004,2.667901e-005
2.480603e-004,2.781346e-005
3.277964e-004,2.424803e-005
4.096394e-004,1.630683e-005
4.861343e-004,8.689757e-006
5.370228e-004,7.069104e-006
5.480432e-004,1.338965e-005
5.161164e-004,2.473422e-005
4.508040e-004,3.818564e-005
3.733367e-004,5.196120e-005
3.042969e-004,6.508849e-005
2.517877e-004,7.935023e-005
2.143507e-004,9.166720e-005
1.858272e-004,9.993253e-005
1.560071e-004,1.007429e-004
1.145184e-004,9.523264e-005
5.811968e-005,8.129502e-005
-1.286493e-005,5.568870e-005
-9.730095e-005,1.954813e-005
-1.921091e-004,-2.404744e-005
-2.878897e-004,-7.315322e-005
-3.728119e-004,-1.198280e-004
-4.353692e-004,-1.515928e-004
-4.710235e-004,-1.574272e-004
-4.875541e-004,-1.379793e-004
-4.984125e-004,-1.055663e-004
-5.126743e-004,-6.926366e-005
-5.238568e-004,-3.441962e-005
-5.162397e-004,-4.923729e-006
-4.786406e-004,1.825161e-005
-4.057112e-004,3.624086e-005
-3.065272e-004,5.163707e-005
-2.052364e-004,6.606088e-005
-1.344139e-004,7.789165e-005
-1.165867e-004,8.842590e-005
-1.447861e-004,9.361198e-005
-1.916230e-004,9.604297e-005
-2.269532e-004,1.009049e-004
-2.329496e-004,1.096565e-004
-2.075054e-004,1.184080e-004
-1.611547e-004,1.248906e-004
-1.075111e-004,1.242423e-004
-5.986387e-005,1.185700e-004
-2.534396e-005,1.106288e-004
3.341602e-006,1.038221e-004
3.737532e-005,9.798775e-005
8.972242e-005,9.636710e-005
1.621656e-004,9.717742e-005
2.457913e-004,1.023635e-004
3.255275e-004,1.111150e-004
3.816021e-004,1.201907e-004
3.965121e-004,1.269974e-004
3.623164e-004,1.292664e-004
2.799871e-004,1.255388e-004
1.634621e-004,1.166253e-004
2.748933e-005,1.031738e-004
-1.120489e-004,8.518459e-005
-2.366771e-004,7.092283e-005
-3.288923e-004,6.735740e-005
-3.757291e-004,7.659513e-005
-3.732981e-004,9.377405e-005
-3.314853e-004,1.143563e-004
-2.653627e-004,1.308870e-004
-1.888679e-004,1.357490e-004
-1.091317e-004,1.289422e-004
-3.555407e-005,1.175977e-004
1.679302e-005,1.077117e-004
3.964423e-005,1.018773e-004
2.910999e-005,9.847395e-005
-1.675450e-005,9.620503e-005
-9.308726e-005,8.777764e-005
-1.840059e-004,6.606088e-005
-2.585559e-004,2.894792e-005
-2.840002e-004,-1.788895e-005
-2.441321e-004,-6.504996e-005
-1.485136e-004,-9.875954e-005
-2.923352e-005,-1.092938e-004
8.259154e-005,-9.730095e-005
1.649207e-004,-6.910160e-005
2.081922e-004,-3.506787e-005
2.149989e-004,-4.437533e-006
1.957131e-004,1.387585e-005
1.605450e-004,1.598270e-005
1.125736e-004,1.720949e-006
5.568870e-005,-2.745081e-005
-4.113402e-006,-6.667061e-005
-5.824321e-005,-1.045939e-004
-1.008664e-004,-1.295519e-004
-1.308485e-004,-1.347380e-004
-1.470550e-004,-1.211245e-004
-1.522411e-004,-9.438377e-005
-1.488377e-004,-6.213279e-005
-1.389517e-004,-3.441962e-005
-1.232314e-004,-1.189254e-005
-1.036215e-004,9.013888e-006
-8.773910e-005,2.975825e-005
-7.688072e-005,4.839576e-005
-6.764300e-005,6.638501e-005
-5.678463e-005,8.323980e-005
-4.171255e-005,9.571883e-005
-2.242678e-005,1.052807e-004
7.555300e-006,1.125736e-004
6.346784e-005,1.143563e-004
1.623277e-004,1.059289e-004
3.075383e-004,9.166720e-005
4.794896e-004,7.384001e-005
6.485238e-004,5.471631e-005
7.832002e-004,3.753739e-005
8.647191e-004,2.878586e-005
8.875704e-004,2.862379e-005
8.619640e-004,3.510640e-005
8.126961e-004,4.466826e-005
7.574318e-004,5.358185e-005
7.015192e-004,5.941620e-005
6.446342e-004,5.860587e-005
5.838597e-004,5.293359e-005
5.169267e-004,4.288554e-005
4.378388e-004,2.797553e-005
3.433547e-004,1.095867e-005
2.341226e-004,-3.465141e-006
1.141943e-004,-1.027188e-005
-7.354708e-006,-8.975361e-006
-1.230693e-004,4.244267e-007
-2.222533e-004,1.533444e-005
-2.891863e-004,3.413401e-005
-3.165753e-004,5.293359e-005
-3.097686e-004,7.059870e-005
-2.767072e-004,8.842590e-005
-2.196603e-004,1.049566e-004
-1.306864e-004,1.184080e-004
-2.654814e-006,1.248906e-004
1.540623e-004,1.245665e-004
3.093210e-004,1.167873e-004
4.333010e-004,1.030118e-004
5.114165e-004,8.567078e-005
5.407503e-004,7.400208e-005
5.240575e-004,7.999850e-005
4.679830e-004,1.148425e-004
3.840331e-004,1.680000e-004
2.812837e-004,2.133783e-004
1.657311e-004,2.273159e-004
4.580272e-005,1.952270e-004
-6.910160e-005,1.242423e-004
-1.778474e-004,4.158902e-005
-2.916172e-004,-2.599222e-005
-4.267797e-004,-6.488790e-005
-5.851174e-004,-7.493595e-005
-7.504240e-004,-6.731887e-005
-8.899622e-004,-5.257093e-005
-9.659709e-004,-3.782299e-005
-9.560849e-004,-2.761287e-005
-8.625732e-004,-2.420950e-005
-7.201179e-004,-2.258885e-005
-5.766901e-004,-1.562004e-005
-4.713476e-004,1.072688e-006
-4.186764e-004,2.408596e-005
-4.105731e-004,4.450619e-005
-4.214316e-004,5.552663e-005
-4.214316e-004,5.536457e-005
-3.911253e-004,4.758544e-005
-3.245165e-004,4.029249e-005
-2.308428e-004,3.721326e-005
-1.272830e-004,3.753739e-005
-2.988179e-005,3.834771e-005
5.666109e-005,3.899597e-005
1.325077e-004,4.045456e-005
2.000889e-004,4.547859e-005
2.645909e-004,5.277152e-005
3.418961e-004,6.087479e-005
4.401077e-004,7.027457e-005
5.448019e-004,8.129502e-005
6.268070e-004,9.037068e-005
6.746163e-004,9.409818e-005
6.969814e-004,8.907416e-005
7.068673e-004,7.805372e-005
7.117293e-004,6.654707e-005
7.161051e-004,5.293359e-005
7.256669e-004,3.073064e-005
7.413873e-004,-3.858999e-007
7.537042e-004,-3.733679e-005
7.503009e-004,-7.380149e-005
7.282600e-004,-1.071869e-004
6.964952e-004,-1.446240e-004
6.640821e-004,-1.851403e-004
6.370172e-004,-2.233878e-004
6.153004e-004,-2.501285e-004
5.922871e-004,-2.579077e-004
5.559844e-004,-2.444563e-004
5.052580e-004,-2.070192e-004
4.446455e-004,-1.524032e-004
3.762539e-004,-9.211487e-005
3.083486e-004,-3.474375e-005
2.522740e-004,1.436204e-005
2.124059e-004,5.228533e-005
1.856651e-004,8.016056e-005
1.670276e-004,1.010670e-004
1.500107e-004,1.112771e-004
1.235941e-004,1.145184e-004
7.772959e-005,1.193804e-004
1.403791e-005,1.329939e-004
-6.018800e-005,1.576278e-004
-1.394379e-004,1.872858e-004
-2.162569e-004,2.132162e-004
-2.825416e-004,2.286124e-004
-3.365093e-004,2.313675e-004
-3.802670e-004,2.219677e-004
-4.201350e-004,1.974959e-004
-4.561135e-004,1.563313e-004
-4.836646e-004,1.034980e-004
-4.990608e-004,5.244739e-005
-5.034365e-004,1.614476e-005
-5.027883e-004,2.207145e-006
-4.987367e-004,7.879431e-006
-4.956574e-004,2.359977e-005
-5.010056e-004,3.397195e-005
-5.082985e-004,2.943412e-005
-5.010056e-004,9.824214e-006
-4.616237e-004,-2.015787e-005
-3.898288e-004,-4.754691e-005
-3.110651e-004,-6.407756e-005
-2.532078e-004,-6.423963e-005
-2.384598e-004,-4.932962e-005
-2.825416e-004,-2.664048e-005
-3.778360e-004,-4.761663e-006
-4.843129e-004,1.225519e-005
-5.525423e-004,2.522042e-005
-5.514079e-004,3.753739e-005
-4.935506e-004,4.871989e-005
-4.215936e-004,5.909207e-005
-3.749188e-004,6.751947e-005
-3.669776e-004,7.286762e-005
-3.805911e-004,7.076077e-005
-3.828600e-004,6.006446e-005
-3.520676e-004,4.499239e-005
-2.932379e-004,3.624086e-005
-2.295462e-004,3.753739e-005
-1.815749e-004,4.547859e-005
-1.536997e-004,5.763348e-005
-1.394379e-004,7.043664e-005
-1.214487e-004,8.388807e-005
-8.822530e-005,9.863601e-005
-4.138842e-005,1.146805e-004
1.225519e-005,1.302387e-004
6.314371e-005,1.398006e-004
1.023635e-004,1.422316e-004
1.276457e-004,1.391524e-004
1.427178e-004,1.289422e-004
1.573037e-004,1.106288e-004
1.820997e-004,8.307774e-005
2.216436e-004,5.115087e-005
2.801492e-004,2.084466e-005
3.467580e-004,1.234753e-006
4.028327e-004,-4.599598e-006
4.311941e-004,1.072688e-006
4.286011e-004,1.031041e-005
4.065602e-004,1.614476e-005
3.820883e-004,1.225519e-005
3.603715e-004,-5.409925e-006
3.402754e-004,-3.020592e-005
3.153174e-004,-5.354332e-005
2.790147e-004,-6.488790e-005
2.352571e-004,-6.051213e-005
1.867996e-004,-4.041603e-005
1.346145e-004,-1.075808e-005
7.935023e-005,2.230324e-005
3.624086e-005,5.341978e-005
2.165498e-005,7.562274e-005
3.818564e-005,8.437427e-005
8.161915e-005,8.178122e-005
1.438522e-004,7.124698e-005
2.104611e-004,5.860587e-005
2.532463e-004,5.082674e-005
2.448189e-004,5.341978e-005
1.808031e-004,6.687120e-005
9.182927e-005,8.340186e-005
1.533444e-005,9.766362e-005
-2.226472e-005,1.044704e-004
-1.448558e-005,1.028497e-004
2.748933e-005,9.474644e-005
8.453633e-005,7.821578e-005
1.375317e-004,5.341978e-005
1.754550e-004,2.781346e-005
1.978200e-004,9.986280e-006
2.055991e-004,5.934647e-006
1.910132e-004,8.689757e-006
1.440143e-004,1.160693e-005
6.881599e-005,1.079661e-005
-1.270286e-005,7.879431e-006
-7.218083e-005,7.393235e-006
-9.568031e-005,1.322759e-005
-8.611845e-005,2.230324e-005
-5.970180e-005,3.218923e-005
-3.604027e-005,4.094075e-005
-2.793700e-005,4.677511e-005
-3.393342e-005,5.034054e-005
-3.830918e-005,4.823369e-005
-2.145439e-005,4.142695e-005
2.586868e-005,3.364782e-005
1.026876e-004,3.105477e-005
1.979821e-004,3.380988e-005
2.910076e-004,3.786152e-005
3.649094e-004,4.013043e-005
4.110980e-004,4.142695e-005
4.247115e-004,4.434413e-005
4.093153e-004,4.969228e-005
3.838710e-004,5.633696e-005
3.764160e-004,6.606088e-005
3.976466e-004,7.708132e-005
4.326527e-004,8.745350e-005
4.482110e-004,9.604297e-005
4.028327e-004,1.010670e-004
2.713976e-004,1.010670e-004
7.400208e-005,9.604297e-005
-1.410586e-004,8.972242e-005
-3.295405e-004,8.486046e-005
-4.715097e-004,7.610893e-005
-5.609698e-004,6.103685e-005
-5.919242e-004,3.883391e-005
-5.634007e-004,1.112074e-005
-4.916058e-004,-1.578211e-005
-4.039285e-004,-3.409548e-005
-3.152788e-004,-3.879538e-005
-2.282497e-004,-3.312309e-005
-1.454343e-004,-2.129233e-005
-7.185670e-005,-6.868512e-006
-6.382316e-006,3.827798e-006
5.131293e-005,6.582909e-006
9.604297e-005,-1.196226e-006
1.172735e-004,-1.626830e-005
1.094944e-004,-2.939559e-005
7.805372e-005,-2.518189e-005
3.202716e-005,1.274139e-005
-1.027188e-005,8.048469e-005
-2.437157e-005,1.498487e-004
-3.303075e-006,1.918236e-004
4.564065e-005,1.965235e-004
1.120874e-004,1.741585e-004
1.856651e-004,1.388282e-004
2.568118e-004,1.034980e-004
3.115899e-004,7.546067e-005
3.273102e-004,5.552663e-005
2.953833e-004,4.223728e-005
2.370398e-004,3.283749e-005
1.900409e-004,2.603075e-005
1.876099e-004,1.549650e-005
2.341226e-004,2.045080e-006
3.166139e-004,-7.678839e-006
4.162841e-004,-7.678839e-006
5.203301e-004,-2.330684e-006
6.211348e-004,-8.720958e-007
7.089743e-004,-9.461557e-006
7.674798e-004,-3.053005e-005
7.820657e-004,-5.743289e-005
7.425218e-004,-7.655659e-005
6.464170e-004,-7.931171e-005
5.002340e-004,-6.667061e-005
3.248792e-004,-4.527799e-005
1.470936e-004,-2.518189e-005
-1.270286e-005,-1.675450e-005
-1.378173e-004,-2.485776e-005
-2.204706e-004,-4.673658e-005
-2.627696e-004,-6.877746e-005
-2.749245e-004,-7.801519e-005
-2.671454e-004,-7.056018e-005
-2.546663e-004,-5.370539e-005
-2.465631e-004,-3.976777e-005
-2.425115e-004,-3.717472e-005
-2.394322e-004,-4.268495e-005
-2.399184e-004,-4.527799e-005
-2.434839e-004,-3.069211e-005
-2.420253e-004,1.002961e-007
-2.292221e-004,3.380988e-005
-2.089639e-004,5.455424e-005
-1.958366e-004,5.893001e-005
-2.050744e-004,5.585077e-005
-2.407287e-004,5.358185e-005
-2.938861e-004,5.374392e-005
-3.457470e-004,5.406805e-005
-3.760532e-004,5.714729e-005
-3.674638e-004,6.265751e-005
-3.165753e-004,6.865393e-005
-2.337599e-004,7.497447e-005
-1.391138e-004,8.161915e-005
-5.937767e-005,8.793970e-005
-1.643037e-005,9.458438e-005
-1.724069e-005,9.879807e-005
-5.937767e-005,1.015532e-004
-1.324691e-004,1.047945e-004
-2.164190e-004,1.033359e-004
-2.964792e-004,9.377405e-005
-3.585502e-004,8.259154e-005
-3.914495e-004,8.145709e-005
-3.899909e-004,9.231547e-005
-3.574157e-004,1.080358e-004
-3.011791e-004,1.247285e-004
-2.350565e-004,1.404489e-004
-1.707165e-004,1.548727e-004
-1.117248e-004,1.634621e-004
-5.192267e-005,1.605450e-004
9.662150e-006,1.462832e-004
6.427816e-005,1.302387e-004
9.685329e-005,1.226217e-004
9.490851e-005,1.297525e-004
5.666109e-005,1.469315e-004
-9.299492e-006,1.618415e-004
-9.098041e-005,1.574657e-004
-1.775233e-004,1.187321e-004
-2.564491e-004,4.693717e-005
-3.159270e-004,-3.814712e-005
-3.452609e-004,-1.091317e-004
-3.371576e-004,-1.478653e-004
-2.950206e-004,-1.502963e-004
-2.287359e-004,-1.222590e-004
-1.504584e-004,-7.785312e-005
-7.153257e-005,-3.117831e-005
7.485573e-007,7.879431e-006
5.682316e-005,3.478227e-005
8.745350e-005,5.147500e-005
8.972242e-005,6.638501e-005
7.011251e-005,7.659513e-005
4.272347e-005,7.789165e-005
1.889987e-005,6.265751e-005
1.031041e-005,2.829966e-005
2.262737e-005,-1.464765e-005
5.698522e-005,-5.532604e-005
1.086841e-004,-8.222889e-005
1.726999e-004,-9.243900e-005
2.436845e-004,-8.871149e-005
3.143450e-004,-7.914964e-005
3.741471e-004,-7.363942e-005
4.164462e-004,-7.817725e-005
4.388112e-004,-8.449779e-005
4.433490e-004,-8.320127e-005
4.324906e-004,-6.926366e-005
4.073705e-004,-4.365734e-005
3.666921e-004,-1.529591e-005
3.190449e-004,6.096713e-006
2.788527e-004,2.262737e-005
2.514636e-004,3.721326e-005
2.372019e-004,5.001641e-005
2.365536e-004,5.974033e-005
2.438465e-004,6.881599e-005
2.483844e-004,8.064676e-005
2.477361e-004,9.588090e-005
2.487085e-004,1.096565e-004
2.551911e-004,1.174356e-004
2.657254e-004,1.166253e-004
2.757734e-004,1.117633e-004
2.780423e-004,1.080358e-004
2.675081e-004,1.083599e-004
2.493568e-004,1.143563e-004
2.287745e-004,1.247285e-004
2.093266e-004,1.336421e-004
1.932822e-004,1.307249e-004
1.830720e-004,1.156529e-004
1.759412e-004,9.377405e-005
1.647587e-004,7.562274e-005
1.410971e-004,6.654707e-005
1.049566e-004,6.525056e-005
6.314371e-005,6.768153e-005
3.073064e-005,6.978838e-005
2.278944e-005,6.946425e-005
3.364782e-005,6.930219e-005
4.969228e-005,7.140904e-005
6.362990e-005,7.659513e-005
8.145709e-005,8.064676e-005
1.124116e-004,8.178122e-005
1.657311e-004,8.080882e-005
2.299089e-004,7.821578e-005
2.817698e-004,7.319175e-005
2.958695e-004,6.573675e-005
2.553532e-004,5.374392e-005
1.660552e-004,4.353380e-005
5.439218e-005,4.353380e-005
-4.398147e-005,5.455424e-005
-9.875954e-005,7.529860e-005
-9.697682e-005,9.960840e-005
-5.111234e-005,1.188942e-004
9.013888e-006,1.237561e-004
5.423011e-005,1.080358e-004
7.059870e-005,6.914012e-005
6.298164e-005,1.549650e-005
4.693717e-005,-3.247483e-005
3.267542e-005,-6.083626e-005
2.052053e-005,-6.294311e-005
4.476060e-006,-4.187462e-005
-2.745081e-005,-9.623623e-006
-8.417366e-005,1.614476e-005
-1.639098e-004,2.441009e-005
-2.543422e-004,1.387585e-005
-3.264613e-004,-1.140634e-005
-3.527158e-004,-4.414354e-005
-3.288923e-004,-7.477388e-005
-2.653627e-004,-9.389758e-005
-1.791439e-004,-9.713889e-005
-9.341139e-005,-8.547019e-005
-3.215070e-005,-6.423963e-005
-1.075808e-005,-4.268495e-005
-1.059601e-005,-2.777494e-005
1.558884e-006,-1.853721e-005
4.272347e-005,-1.140634e-005
1.094944e-004,-1.682422e-006
1.855030e-004,5.934647e-006
2.480603e-004,7.879431e-006
2.739907e-004,4.151929e-006
2.453051e-004,-2.006553e-006
1.472556e-004,-3.789271e-006
-1.237873e-005,2.369210e-006
-2.050744e-004,1.257933e-005
-3.961493e-004,1.922400e-005
-5.580526e-004,1.873781e-005
-6.812222e-004,5.610517e-006
-7.684133e-004,-2.242678e-005
-8.261085e-004,-5.548810e-005
-8.496080e-004,-8.368747e-005
-8.272430e-004,-9.438377e-005
-7.432931e-004,-7.331529e-005
-5.909518e-004,-5.247859e-006
-3.828600e-004,1.010670e-004
-1.528894e-004,2.158092e-004
6.152305e-005,3.020280e-004
2.303951e-004,3.370341e-004
3.349273e-004,3.167760e-004
3.769022e-004,2.619979e-004
3.712299e-004,1.953890e-004
3.378445e-004,1.370455e-004
3.031625e-004,9.685329e-005
2.869559e-004,7.351588e-005
2.971661e-004,5.698522e-005
3.315239e-004,3.688912e-005
3.790091e-004,1.241726e-005
4.264942e-004,-1.367526e-005
4.631210e-004,-3.701266e-005
4.900239e-004,-5.451571e-005
5.127130e-004,-6.148453e-005
5.383193e-004,-5.548810e-005
5.661946e-004,-3.539201e-005
5.906665e-004,-8.651231e-006
6.050903e-004,1.241726e-005
6.050903e-004,2.262737e-005
5.896941e-004,2.829966e-005
5.624671e-004,4.061663e-005
5.235714e-004,5.730935e-005
4.674967e-004,7.367795e-005
3.882468e-004,8.599491e-005
2.937627e-004,9.523264e-005
1.968476e-004,1.065772e-004
1.112771e-004,1.206769e-004
4.888196e-005,1.346145e-004
6.907039e-006,1.477418e-004
-3.085418e-005,1.582760e-004
-7.833932e-005,1.660552e-004
-1.284175e-004,1.725378e-004
-1.718510e-004,1.778859e-004
-2.031296e-004,1.788584e-004
-2.220912e-004,1.654069e-004
-2.288980e-004,1.321835e-004
-2.327876e-004,7.384001e-005
-2.407287e-004,-1.358292e-006
-2.540181e-004,-6.812920e-005
-2.640661e-004,-9.762508e-005
-2.684419e-004,-8.741497e-005
-2.700626e-004,-5.937767e-005
-2.765452e-004,-4.236081e-005
-2.943724e-004,-4.916756e-005
-3.168994e-004,-7.477388e-005
-3.345645e-004,-1.024870e-004
-3.397506e-004,-1.222590e-004
-3.266234e-004,-1.258244e-004
-2.964792e-004,-1.092938e-004
-2.564491e-004,-7.752898e-005
-2.175534e-004,-4.430560e-005
-1.857886e-004,-1.853721e-005
-1.647201e-004,-5.409925e-006
-1.522411e-004,-2.168618e-006
-1.415448e-004,-6.544382e-006
-1.261486e-004,-1.918548e-005
-9.859748e-005,-3.879538e-005
-5.613637e-005,-5.678463e-005
-3.951337e-006,-6.116039e-005
5.568870e-005,-4.819516e-005
1.201907e-004,-1.886135e-005
1.902029e-004,2.035846e-005
2.611876e-004,6.136099e-005
3.297412e-004,9.377405e-005
3.974845e-004,1.109530e-004
4.652278e-004,1.080358e-004
5.269747e-004,9.377405e-005
5.671670e-004,8.194328e-005
5.637636e-004,7.643306e-005
4.999098e-004,7.481241e-005
3.798194e-004,7.351588e-005
2.302331e-004,6.281957e-005
8.340186e-005,3.559260e-005
-3.847125e-005,-4.275467e-006
-1.289037e-004,-4.511592e-005
-1.921091e-004,-7.785312e-005
-2.399184e-004,-9.227693e-005
-2.911311e-004,-8.190475e-005
-3.609812e-004,-5.354332e-005
-4.593548e-004,-1.999580e-005
-5.802555e-004,1.014835e-005
-6.977528e-004,3.607880e-005
-7.653341e-004,5.893001e-005
-7.458862e-004,7.983643e-005
-6.308199e-004,9.960840e-005
-4.459034e-004,1.156529e-004
-2.353806e-004,1.255388e-004
-4.155049e-005,1.295905e-004
1.078737e-004,1.260251e-004
2.072198e-004,1.184080e-004
2.616738e-004,1.114392e-004
2.842008e-004,1.093323e-004
2.861456e-004,1.150046e-004
2.735045e-004,1.274836e-004
2.517877e-004,1.422316e-004
2.258573e-004,1.496866e-004
1.999268e-004,1.457970e-004
1.806411e-004,1.367214e-004
1.657311e-004,1.300767e-004
1.577899e-004,1.304008e-004
1.543865e-004,1.328318e-004
1.459591e-004,1.363972e-004
1.231079e-004,1.436902e-004
8.113296e-005,1.526038e-004
2.716520e-005,1.576278e-004
-2.096819e-005,1.560071e-004
-4.738484e-005,1.446626e-004
-4.122636e-005,1.226217e-004
-1.844488e-006,9.361198e-005
5.779555e-005,6.606088e-005
1.239182e-004,4.142695e-005
2.036543e-004,1.971020e-005
3.102933e-004,1.883015e-006
4.386491e-004,-8.327101e-006
5.637636e-004,-1.302699e-005
6.601926e-004,-1.837515e-005
7.151327e-004,-2.858526e-005
7.289082e-004,-4.057810e-005
7.091363e-004,-5.013995e-005
6.645683e-004,-5.321919e-005
6.076833e-004,-4.770897e-005
5.415606e-004,-3.312309e-005
4.516144e-004,-1.562004e-005
3.289309e-004,-3.465141e-006
1.855030e-004,1.883015e-006
5.244739e-005,9.106226e-007
-3.036798e-005,-2.006553e-006
-4.479180e-005,-3.141010e-006
4.244267e-007,-1.682422e-006
7.902610e-005,2.623614e-007
1.689724e-004,2.623614e-007
2.511395e-004,1.558884e-006
3.081865e-004,6.420843e-006
3.222862e-004,1.160693e-005
2.911697e-004,1.338965e-005
2.287745e-004,1.176900e-005
1.579519e-004,1.112074e-005
9.134307e-005,1.371378e-005
2.992031e-005,2.133085e-005
-3.539201e-005,3.105477e-005
-1.183694e-004,4.061663e-005
-2.306807e-004,4.580272e-005
-3.720016e-004,4.564065e-005
-5.324463e-004,4.580272e-005
-6.937012e-004,5.017848e-005
-8.330774e-004,5.747142e-005
-9.275614e-004,6.168512e-005
-9.617572e-004,6.136099e-005
-9.364750e-004,5.520250e-005
-8.671110e-004,4.175108e-005
-7.758683e-004,2.554455e-005
-6.745775e-004,1.452411e-005
-5.619422e-004,1.274139e-005
-4.339106e-004,2.100672e-005
-2.968033e-004,3.510640e-005
-1.666649e-004,4.855782e-005
-7.169464e-005,5.714729e-005
-3.814712e-005,6.071273e-005
-6.602235e-005,5.876794e-005
-1.366828e-004,5.228533e-005
-2.298704e-004,4.337174e-005
-3.264613e-004,3.607880e-005
-4.027940e-004,3.056858e-005
-4.301830e-004,2.700314e-005
-3.925839e-004,2.554455e-005
-2.880518e-004,2.327564e-005
-1.314967e-004,1.711715e-005
5.277152e-005,7.231170e-006
2.367157e-004,-1.844488e-006
3.916502e-004,-5.734055e-006
4.973168e-004,2.045080e-006
5.473950e-004,2.473422e-005
5.585775e-004,5.844381e-005
5.550120e-004,9.393611e-005
5.516087e-004,1.198666e-004
5.469088e-004,1.286181e-004
5.298919e-004,1.253768e-004
4.934272e-004,1.169494e-004
4.391353e-004,1.083599e-004
3.807918e-004,1.036600e-004
3.363859e-004,9.652916e-005
3.114278e-004,7.870197e-005
3.026763e-004,4.385793e-005
3.080244e-004,-6.868512e-006
3.232586e-004,-6.213279e-005
3.428685e-004,-1.031353e-004
3.577785e-004,-1.199901e-004
3.665300e-004,-1.110765e-004
3.634508e-004,-8.336334e-005
3.407616e-004,-5.159854e-005
2.895490e-004,-2.177852e-005
2.111093e-004,4.313994e-006
1.222975e-004,2.489629e-005
4.272347e-005,3.510640e-005
-9.947754e-006,3.283749e-005
-2.566809e-005,1.906194e-005
-4.923729e-006,-2.492749e-006
3.510640e-005,-2.388537e-005
7.351588e-005,-3.766092e-005
9.361198e-005,-4.074016e-005
8.259154e-005,-3.522994e-005
4.045456e-005,-3.150244e-005
-1.432352e-005,-3.312309e-005
-5.629843e-005,-3.636440e-005
-6.974985e-005,-3.636440e-005
-4.981582e-005,-3.198863e-005
-8.975361e-006,-2.793700e-005
3.154097e-005,-2.566809e-005
5.520250e-005,-2.615428e-005
5.341978e-005,-2.664048e-005
2.651694e-005,-2.161646e-005
-2.096819e-005,-6.706447e-006
-7.833932e-005,1.744128e-005
-1.297140e-004,4.742337e-005
-1.679614e-004,7.853991e-005
-1.909747e-004,1.034980e-004
-2.068571e-004,1.141943e-004
-2.284118e-004,1.085220e-004
-2.734659e-004,9.280166e-005
-3.507711e-004,7.789165e-005
-4.473620e-004,7.254349e-005
-5.373082e-004,7.951231e-005
-5.932207e-004,9.733949e-005
-5.998655e-004,1.187321e-004
-5.578905e-004,1.363972e-004
-4.830163e-004,1.446626e-004
-3.974459e-004,1.441764e-004
-3.136581e-004,1.355869e-004
-2.370012e-004,1.245665e-004
-1.608306e-004,1.143563e-004
-7.282909e-005,1.052807e-004
3.737532e-005,9.620503e-005
1.749688e-004,8.421220e-005
3.292550e-004,6.865393e-005
4.798137e-004,5.212327e-005
6.059006e-004,3.834771e-005
6.895264e-004,2.943412e-005
7.229118e-004,2.603075e-005
7.195084e-004,2.538249e-005
7.021675e-004,2.748933e-005
6.896884e-004,3.624086e-005
6.810990e-004,5.196120e-005
6.635959e-004,7.238143e-005
6.232416e-004,9.215340e-005
5.548500e-004,1.085220e-004
4.726828e-004,1.187321e-004
3.979707e-004,1.208390e-004
3.412478e-004,1.148425e-004
2.944109e-004,9.896014e-005
2.551911e-004,7.724339e-005
2.346088e-004,5.601283e-005
2.469258e-004,3.786152e-005
2.869559e-004,2.667901e-005
3.370341e-004,2.262737e-005
3.791711e-004,2.181705e-005
4.021844e-004,2.133085e-005
4.023465e-004,2.554455e-005
3.744712e-004,3.769945e-005
3.124002e-004,5.682316e-005
2.106232e-004,8.080882e-005
7.319175e-005,1.078737e-004
-8.725291e-005,1.305629e-004
-2.501285e-004,1.415833e-004
-3.899909e-004,1.383420e-004
-4.786406e-004,1.302387e-004
-4.998712e-004,1.221355e-004
-4.520619e-004,1.135460e-004
-3.491504e-004,9.831188e-005
-2.204706e-004,7.335382e-005
-1.075111e-004,3.737532e-005
-4.592625e-005,-1.108221e-005
-4.268495e-005,-7.234290e-005
-7.623246e-005,-1.349001e-004
-1.088076e-004,-1.778474e-004
-1.169109e-004,-1.854645e-004
-9.924574e-005,-1.580754e-004
-7.542214e-005,-1.083214e-004
-6.197072e-005,-5.694669e-005
-6.731887e-005,-2.485776e-005
-1.005423e-004,-1.886135e-005
-1.721751e-004,-3.474375e-005
-2.797865e-004,-6.342930e-005
-3.985803e-004,-9.730095e-005
-4.919299e-004,-1.251762e-004
-5.282326e-004,-1.272830e-004
-4.933885e-004,-8.790116e-005
-3.980942e-004,-7.354708e-006
-2.762210e-004,8.761556e-005
-1.652063e-004,1.608691e-004
-9.081834e-005,1.874478e-004
-6.067420e-005,1.671896e-004
-6.618442e-005,1.227837e-004
-9.065627e-005,7.740545e-005
-1.201522e-004,4.531652e-005
-1.494860e-004,2.716520e-005
-1.780095e-004,1.436204e-005
-2.073433e-004,1.002961e-007
-2.298704e-004,-1.869928e-005
-2.431597e-004,-3.863331e-005
-2.470493e-004,-4.868136e-005
-2.408908e-004,-4.090223e-005
-2.248463e-004,-1.399939e-005
-2.018331e-004,2.538249e-005
-1.754164e-004,7.043664e-005
-1.551583e-004,1.099806e-004
-1.569410e-004,1.339663e-004
-1.919471e-004,1.394765e-004
-2.501285e-004,1.299146e-004
-3.078238e-004,1.077117e-004
-3.444505e-004,7.562274e-005
-3.421816e-004,3.705119e-005
-2.969654e-004,-1.520357e-006
-2.146362e-004,-2.599222e-005
-1.118868e-004,-1.659243e-005
-7.030578e-006,3.850977e-005
8.696730e-005,1.245665e-004
1.658931e-004,2.073818e-004
2.294227e-004,2.527601e-004
2.786906e-004,2.461155e-004
3.135346e-004,1.953890e-004
3.358997e-004,1.266733e-004
3.527545e-004,6.719534e-005
3.710678e-004,3.008238e-005
3.973224e-004,1.549650e-005
4.284390e-004,1.257933e-005
4.529109e-004,1.419998e-005
4.566384e-004,1.938607e-005
4.384870e-004,2.684107e-005
3.987810e-004,3.494434e-005
3.396272e-004,4.596478e-005
2.704253e-004,5.909207e-005
2.051129e-004,7.092283e-005
1.563313e-004,7.740545e-005
1.310491e-004,7.659513e-005
1.302387e-004,6.978838e-005
1.435281e-004,6.330577e-005
1.573037e-004,5.860587e-005
1.592484e-004,5.487837e-005
1.496866e-004,5.034054e-005
1.412592e-004,4.353380e-005
1.449867e-004,3.721326e-005
1.683241e-004,3.543053e-005
2.090025e-004,3.769945e-005
2.517877e-004,4.126489e-005
2.824181e-004,4.110282e-005
2.974902e-004,3.445814e-005
2.991108e-004,2.667901e-005
2.906834e-004,2.133085e-005
2.728562e-004,2.149292e-005
2.393087e-004,2.408596e-005
1.918236e-004,2.424803e-005
1.282940e-004,2.311357e-005
4.158902e-005,2.538249e-005
-8.028410e-005,3.089270e-005
-2.399184e-004,3.526847e-005
-4.238625e-004,3.445814e-005
-5.979206e-004,3.008238e-005
-7.240074e-004,2.846173e-005
-7.770028e-004,3.364782e-005
-7.562584e-004,4.418206e-005
-6.807360e-004,5.260946e-005
-5.776625e-004,5.974033e-005
-4.638926e-004,6.687120e-005
-3.530400e-004,7.351588e-005
-2.459148e-004,7.578480e-005
-1.442999e-004,6.978838e-005
-6.067420e-005,5.617490e-005
-2.978945e-006,3.915804e-005
3.753739e-005,2.100672e-005
8.453633e-005,-2.006553e-006
1.597346e-004,-2.761287e-005
2.705873e-004,-5.516398e-005
4.051016e-004,-8.611845e-005
5.431813e-004,-1.183694e-004
6.629477e-004,-1.439758e-004
7.340944e-004,-1.551583e-004
7.394425e-004,-1.506204e-004
6.971434e-004,-1.386276e-004
6.410688e-004,-1.293899e-004
6.013628e-004,-1.264727e-004
5.995801e-004,-1.298761e-004
6.420412e-004,-1.352242e-004
7.172396e-004,-1.358725e-004
7.956792e-004,-1.238797e-004
8.488367e-004,-9.924574e-005
8.593709e-004,-6.829127e-005
8.191787e-004,-3.814712e-005
7.371736e-004,-1.659243e-005
6.337758e-004,-7.192643e-006
5.248679e-004,-7.840905e-006
4.183909e-004,-1.075808e-005
3.098072e-004,-3.141010e-006
2.012234e-004,2.100672e-005
1.039842e-004,5.747142e-005
2.651694e-005,1.013911e-004
-3.587821e-005,1.425557e-004
-1.005423e-004,1.701068e-004
-1.921091e-004,1.824238e-004
-3.254889e-004,1.806411e-004
-4.916058e-004,1.723757e-004
-6.561021e-004,1.645966e-004
-7.828371e-004,1.600588e-004
-8.432874e-004,1.594105e-004
-8.267568e-004,1.611932e-004
-7.394036e-004,1.649207e-004
-5.901415e-004,1.730240e-004
-4.018217e-004,1.819376e-004
-2.065330e-004,1.882581e-004
-3.539201e-005,1.840444e-004
8.275361e-005,1.621656e-004
1.240803e-004,1.206769e-004
8.664317e-005,6.930219e-005
-3.627206e-006,2.667901e-005
-1.067007e-004,3.665733e-006
-1.904885e-004,-3.141010e-006
-2.407287e-004,-2.006553e-006
-2.554767e-004,-6.176923e-008
-2.417011e-004,-8.720958e-007
-2.135018e-004,-2.654814e-006
-1.857886e-004,-2.330684e-006
-1.669890e-004,4.244267e-007
-1.511066e-004,1.883015e-006
-1.272830e-004,1.396819e-006
-9.211487e-005,1.234753e-006
-4.868136e-005,1.883015e-006
-8.720958e-007,5.448451e-006
4.871989e-005,1.695509e-005
9.409818e-005,3.510640e-005
1.294284e-004,5.455424e-005
1.526038e-004,6.703327e-005
1.589243e-004,6.946425e-005
1.516314e-004,6.427816e-005
1.435281e-004,5.860587e-005
1.485521e-004,5.795762e-005
1.705930e-004,5.795762e-005
1.994406e-004,5.325772e-005
2.201850e-004,3.834771e-005
2.193747e-004,9.500084e-006
1.906891e-004,-2.437157e-005
1.415833e-004,-4.981582e-005
9.069480e-005,-5.402952e-005
6.395403e-005,-3.474375e-005
8.259154e-005,-3.951337e-006
1.472556e-004,2.392390e-005
2.331502e-004,4.369587e-005
3.171001e-004,5.341978e-005
3.841952e-004,5.423011e-005
4.240632e-004,5.001641e-005
4.281149e-004,4.223728e-005
3.914881e-004,3.624086e-005
3.216379e-004,3.397195e-005
2.355812e-004,3.834771e-005
1.474177e-004,4.953022e-005
5.844381e-005,6.055066e-005
-3.166451e-005,6.589881e-005
-1.162626e-004,6.914012e-005
-1.908126e-004,7.432621e-005
-2.579077e-004,8.388807e-005
-3.225717e-004,9.393611e-005
-3.864254e-004,9.960840e-005
-4.407173e-004,9.831188e-005
-4.752372e-004,9.296372e-005
-4.872300e-004,8.486046e-005
-4.815578e-004,7.659513e-005
-4.622720e-004,6.881599e-005
-4.258073e-004,6.379197e-005
-3.750809e-004,5.925414e-005
-3.298646e-004,5.179913e-005
-3.175477e-004,4.094075e-005
-3.509331e-004,2.797553e-005
-4.078180e-004,1.679302e-005
-4.506033e-004,1.160693e-005
-4.536825e-004,1.598270e-005
-4.134903e-004,2.813760e-005
-3.394265e-004,3.850977e-005
-2.498044e-004,3.753739e-005
-1.582375e-004,2.359977e-005
-7.201877e-005,1.234753e-006
6.582909e-006,-1.983374e-005
7.351588e-005,-3.409548e-005
1.260251e-004,-3.636440e-005
1.603829e-004,-2.728874e-005
1.772377e-004,-9.947754e-006
1.761032e-004,8.365628e-006
1.595726e-004,2.862379e-005
1.331559e-004,4.693717e-005
1.030118e-004,5.925414e-005
7.675719e-005,6.395403e-005
6.006446e-005,6.751947e-005
5.358185e-005,7.967437e-005
5.779555e-005,1.075496e-004
6.881599e-005,1.461212e-004
8.405013e-005,1.911753e-004
1.039842e-004,2.373639e-004
1.292664e-004,2.772320e-004
1.560071e-004,3.004074e-004
1.785342e-004,2.979764e-004
1.885823e-004,2.686426e-004
1.801549e-004,2.209953e-004
1.506590e-004,1.621656e-004
1.028497e-004,9.150514e-005
4.693717e-005,1.338965e-005
-7.100305e-007,-6.893953e-005
-2.583015e-005,-1.530514e-004
-2.664048e-005,-2.264670e-004
-1.010982e-005,-2.619593e-004
1.241726e-005,-2.335979e-004
3.883391e-005,-1.478653e-004
7.400208e-005,-4.236081e-005
1.193804e-004,3.786152e-005
1.668655e-004,6.930219e-005
2.030061e-004,5.811968e-005
2.243987e-004,2.408596e-005
2.415776e-004,-9.461557e-006
2.684805e-004,-2.988179e-005
3.083486e-004,-3.198863e-005
3.538889e-004,-2.323711e-005
3.877606e-004,-1.270286e-005
4.012120e-004,-9.623623e-006
3.872744e-004,-1.254080e-005
3.493511e-004,-1.562004e-005
2.981384e-004,-1.302699e-005
2.501671e-004,-6.058186e-006
2.198609e-004,4.800190e-006
2.140265e-004,1.679302e-005
2.289365e-004,2.424803e-005
2.449810e-004,2.392390e-005
2.383363e-004,1.971020e-005
2.088404e-004,1.938607e-005
1.806411e-004,2.910999e-005
1.785342e-004,4.564065e-005
2.080301e-004,6.346784e-005
2.600531e-004,7.351588e-005
3.264999e-004,7.254349e-005
4.012120e-004,5.941620e-005
4.744656e-004,3.786152e-005
5.271368e-004,1.209313e-005
5.410744e-004,-1.221667e-005
5.023408e-004,-2.809907e-005
4.047775e-004,-3.247483e-005
2.545429e-004,-2.939559e-005
6.784360e-005,-2.469570e-005
-1.336036e-004,-2.080613e-005
-3.324577e-004,-1.740276e-005
-5.120260e-004,-1.464765e-005
-6.483229e-004,-1.270286e-005
-7.097456e-004,-6.544382e-006
-6.815463e-004,1.322759e-005
-5.809038e-004,4.369587e-005
-4.415276e-004,7.465034e-005
-2.938861e-004,9.507057e-005
-1.504584e-004,1.026876e-004
-1.643037e-005,1.012291e-004
1.005808e-004,9.507057e-005
1.851789e-004,8.956035e-005
2.222919e-004,8.680524e-005
2.068957e-004,8.956035e-005
1.487142e-004,9.555677e-005
7.124698e-005,9.831188e-005
-3.858999e-007,9.426025e-005
-4.868136e-005,8.080882e-005
-7.137050e-005,6.200925e-005
-7.461181e-005,4.547859e-005
-6.845333e-005,3.332369e-005
-6.586029e-005,2.133085e-005
-6.893953e-005,1.160693e-005
-7.120844e-005,6.744974e-006
-6.748093e-005,9.662150e-006
-5.727082e-005,2.068259e-005
-3.992984e-005,3.186510e-005
-8.813297e-006,3.883391e-005
5.455424e-005,3.786152e-005
1.678379e-004,3.008238e-005
3.253654e-004,1.906194e-005
4.947237e-004,1.079661e-005
6.328034e-004,8.041497e-006
7.076777e-004,1.290346e-005
7.033019e-004,2.684107e-005
6.245381e-004,4.726130e-005
4.942375e-004,7.076077e-005
3.349273e-004,9.393611e-005
1.655690e-004,1.137081e-004
1.128280e-005,1.253768e-004
-1.112386e-004,1.307249e-004
-1.924333e-004,1.302387e-004
-2.431597e-004,1.250527e-004
-2.844864e-004,1.156529e-004
-3.350507e-004,1.038221e-004
-4.008492e-004,9.199134e-005
-4.700511e-004,8.291567e-005
-5.238568e-004,7.546067e-005
-5.470321e-004,6.622294e-005
-5.340669e-004,5.293359e-005
-4.869059e-004,3.818564e-005
-4.159213e-004,2.278944e-005
-3.360231e-004,1.031041e-005
-2.554767e-004,1.558884e-006
-1.770371e-004,-6.382316e-006
-9.940780e-005,-1.724069e-005
-2.388537e-005,-2.971972e-005
5.455424e-005,-4.236081e-005
1.480659e-004,-4.706071e-005
2.495188e-004,-4.349527e-005
3.407616e-004,-3.620233e-005
3.961880e-004,-2.842320e-005
3.927846e-004,-2.177852e-005
3.308756e-004,-1.545797e-005
2.388225e-004,-1.302699e-005
1.513072e-004,-1.643037e-005
8.923622e-005,-2.291298e-005
5.585077e-005,-2.761287e-005
3.737532e-005,-2.631635e-005
1.290346e-005,-1.691656e-005
-2.939559e-005,-1.196226e-006
-8.255302e-005,1.792748e-005
-1.436516e-004,3.737532e-005
-2.178775e-004,5.034054e-005
-3.062031e-004,5.163707e-005
-3.951770e-004,3.980630e-005
-4.595169e-004,1.614476e-005
-4.822060e-004,-1.724069e-005
-4.635685e-004,-5.386745e-005
-4.155972e-004,-8.271508e-005
-3.528779e-004,-9.697682e-005
-2.921034e-004,-9.179074e-005
-2.426735e-004,-7.137050e-005
-2.032917e-004,-4.317114e-005
-1.676373e-004,-1.497178e-005
-1.280934e-004,7.231170e-006
-8.109442e-005,2.327564e-005
-2.372330e-005,3.510640e-005
4.353380e-005,4.677511e-005
1.250527e-004,5.666109e-005
2.143507e-004,6.492643e-005
2.932765e-004,7.108490e-005
3.430306e-004,7.416414e-005
3.593991e-004,7.772959e-005
3.498373e-004,8.275361e-005
3.159656e-004,9.150514e-005
2.563256e-004,1.052807e-004
1.782101e-004,1.206769e-004
9.458438e-005,1.372075e-004
2.262737e-005,1.555209e-004
-2.518189e-005,1.709171e-004
-5.127441e-005,1.780480e-004
-6.261898e-005,1.718895e-004
-6.910160e-005,1.579519e-004
-8.287714e-005,1.480659e-004
-1.075111e-004,1.487142e-004
-1.396000e-004,1.548727e-004
-1.700683e-004,1.550348e-004
-1.888679e-004,1.393144e-004
-1.912988e-004,1.054428e-004
-1.757406e-004,6.330577e-005
-1.438137e-004,2.522042e-005
-9.956987e-005,1.720949e-006
-4.430560e-005,-2.006553e-006
1.565857e-005,1.128280e-005
7.448828e-005,3.299956e-005
1.308870e-004,5.811968e-005
1.785342e-004,8.032263e-005
2.107852e-004,9.263960e-005
2.226160e-004,9.118101e-005
2.164575e-004,7.270556e-005
2.078680e-004,3.964423e-005
2.127300e-004,1.720949e-006
2.423880e-004,-2.842320e-005
2.986246e-004,-4.268495e-005
3.639370e-004,-3.652646e-005
4.098015e-004,-1.108221e-005
4.148255e-004,2.376183e-005
3.788470e-004,5.196120e-005
3.193690e-004,6.557468e-005
2.607013e-004,6.962632e-005
2.240746e-004,7.416414e-005
2.266676e-004,8.599491e-005
2.725321e-004,1.039842e-004
3.435167e-004,1.216493e-004
4.067222e-004,1.331559e-004
4.263321e-004,1.362352e-004
3.952156e-004,1.328318e-004
3.360618e-004,1.222975e-004
2.811216e-004,1.044704e-004
2.487085e-004,8.080882e-005
2.250470e-004,5.212327e-005
1.770756e-004,1.987226e-005
9.847395e-005,-1.740276e-005
2.197911e-005,-6.148453e-005
-1.545797e-005,-1.042698e-004
-5.409925e-006,-1.287416e-004
3.980630e-005,-1.233935e-004
1.028497e-004,-8.838737e-005
1.654069e-004,-3.717472e-005
2.132162e-004,1.257933e-005
2.459534e-004,4.531652e-005
2.632944e-004,5.698522e-005
2.576221e-004,5.309565e-005
2.346088e-004,4.320967e-005
2.075439e-004,3.235129e-005
1.882581e-004,1.679302e-005
1.790204e-004,-9.461557e-006
1.699447e-004,-4.706071e-005
1.443384e-004,-8.919769e-005
8.875003e-005,-1.227452e-004
5.772582e-006,-1.339277e-004
-8.336334e-005,-1.237176e-004
-1.493239e-004,-1.021629e-004
-1.770371e-004,-7.882551e-005
-1.590478e-004,-5.856734e-005
-9.584237e-005,-4.203669e-005
2.369210e-006,-2.664048e-005
1.137081e-004,-1.221667e-005
2.193747e-004,-2.330684e-006
3.062417e-004,-6.220251e-006
3.629646e-004,-3.069211e-005
3.798194e-004,-7.023605e-005
3.542131e-004,-1.096179e-004
2.905214e-004,-1.305243e-004
1.992786e-004,-1.253383e-004
9.458438e-005,-1.002181e-004
-6.220251e-006,-7.007398e-005
-8.660465e-005,-4.560212e-005
-1.361966e-004,-2.793700e-005
-1.572651e-004,-1.318906e-005
-1.582375e-004,5.934647e-006
-1.494860e-004,3.348575e-005
-1.454343e-004,6.865393e-005
-1.572651e-004,1.086841e-004
-1.856265e-004,1.453108e-004
-2.324634e-004,1.660552e-004
-2.882139e-004,1.645966e-004
-3.381300e-004,1.537382e-004
-3.637363e-004,1.683241e-004
-3.619536e-004,2.347709e-004
-3.460712e-004,3.433547e-004
-3.350507e-004,4.491834e-004
-3.416954e-004,5.025028e-004
-3.807532e-004,4.804620e-004
-4.528722e-004,3.939191e-004
-5.423322e-004,2.829043e-004
-6.290372e-004,1.885823e-004
-6.971046e-004,1.323456e-004
-7.361623e-004,1.130598e-004
-7.481551e-004,1.171115e-004
-7.494516e-004,1.229458e-004
-7.594997e-004,1.185700e-004
-7.813785e-004,1.015532e-004
-8.027711e-004,8.178122e-005
-8.000160e-004,6.460230e-005
-7.460483e-004,5.050261e-005
-6.279027e-004,3.543053e-005
-4.543308e-004,1.938607e-005
-2.530457e-004,7.069104e-006
-6.326724e-005,-3.951337e-006
8.729143e-005,-1.578211e-005
1.934442e-004,-3.117831e-005
2.679943e-004,-4.884343e-005
3.339549e-004,-6.261898e-005
4.062360e-004,-6.375343e-005
4.932652e-004,-5.500191e-005
5.905044e-004,-4.349527e-005
6.866092e-004,-3.814712e-005
7.661833e-004,-4.284701e-005
8.138305e-004,-4.997788e-005
8.177201e-004,-5.548810e-005
7.763934e-004,-5.775702e-005
7.033019e-004,-6.002593e-005
6.212968e-004,-6.310517e-005
5.457744e-004,-6.537409e-005
4.877549e-004,-6.586029e-005
4.521005e-004,-6.326724e-005
4.349216e-004,-5.710876e-005
4.217943e-004,-4.608832e-005
3.979707e-004,-3.085418e-005
3.563199e-004,-1.448558e-005
2.997591e-004,-1.358292e-006
2.346088e-004,1.014835e-005
1.621656e-004,2.538249e-005
9.150514e-005,4.337174e-005
3.089270e-005,5.568870e-005
-1.173047e-005,5.487837e-005
-3.053005e-005,4.110282e-005
-2.501983e-005,2.230324e-005
-2.816880e-006,8.365628e-006
3.299956e-005,7.069104e-006
7.432621e-005,1.971020e-005
1.132219e-004,3.996836e-005
1.461212e-004,5.779555e-005
1.762653e-004,6.654707e-005
2.094887e-004,6.816773e-005
2.469258e-004,7.270556e-005
2.837146e-004,7.999850e-005
3.102933e-004,8.502253e-005
3.205035e-004,8.259154e-005
3.149932e-004,7.546067e-005
3.021901e-004,6.735740e-005
2.819319e-004,6.217131e-005
2.480603e-004,5.860587e-005
1.944166e-004,5.568870e-005
1.179218e-004,4.661304e-005
1.663096e-005,3.008238e-005
-1.110765e-004,9.986280e-006
-2.614731e-004,-4.599598e-006
-4.211074e-004,-5.409925e-006
-5.726385e-004,9.824214e-006
-6.937012e-004,3.526847e-005
-7.701960e-004,5.893001e-005
-8.016367e-004,7.059870e-005
-7.967748e-004,6.476436e-005
-7.682513e-004,4.402000e-005
-7.290315e-004,1.808955e-005
-6.765223e-004,2.369210e-006
-6.031067e-004,6.096713e-006
-5.044090e-004,2.927205e-005
-3.802670e-004,6.265751e-005
-2.371633e-004,8.972242e-005
-8.790116e-005,9.798775e-005
5.277152e-005,8.810177e-005
1.795066e-004,6.476436e-005
2.869559e-004,3.267542e-005
3.613439e-004,1.883015e-006
3.937570e-004,-2.307504e-005
3.924605e-004,-3.911951e-005
3.713920e-004,-4.673658e-005
3.449753e-004,-4.576419e-005
3.227724e-004,-3.895744e-005
3.125622e-004,-2.907146e-005
3.190449e-004,-1.675450e-005
3.389789e-004,-4.275467e-006
3.555096e-004,6.420843e-006
3.530786e-004,1.484824e-005
3.290929e-004,2.003433e-005
2.895490e-004,2.100672e-005
2.454672e-004,1.906194e-005
2.052750e-004,1.760335e-005
1.705930e-004,1.906194e-005
1.383420e-004,2.489629e-005
1.036600e-004,3.575467e-005
6.444023e-005,4.969228e-005
2.457216e-005,6.281957e-005
-1.254080e-005,7.319175e-005
-3.928157e-005,7.870197e-005
-4.414354e-005,8.340186e-005
-1.659243e-005,9.069480e-005
4.580272e-005,1.030118e-004
1.320215e-004,1.166253e-004
2.175920e-004,1.240803e-004
2.819319e-004,1.213252e-004
3.175863e-004,1.135460e-004
3.311998e-004,1.062531e-004
3.324963e-004,1.012291e-004
3.287688e-004,9.896014e-005
3.269861e-004,9.474644e-005
3.276343e-004,8.583285e-005
3.216379e-004,6.816773e-005
2.898731e-004,3.867184e-005
2.101370e-004,-1.682422e-006
7.643306e-005,-4.738484e-005
-9.632856e-005,-9.114247e-005
-2.786520e-004,-1.287416e-004
-4.382863e-004,-1.569410e-004
-5.450873e-004,-1.754164e-004
-5.818761e-004,-1.797922e-004
-5.476804e-004,-1.681235e-004
-4.591928e-004,-1.392759e-004
-3.480160e-004,-9.859748e-005
-2.455907e-004,-5.338126e-005
-1.728234e-004,-7.678839e-006
-1.386276e-004,3.380988e-005
-1.391138e-004,6.622294e-005
-1.666649e-004,8.956035e-005
-2.136638e-004,1.067393e-004
-2.682798e-004,1.192183e-004
-3.083100e-004,1.278078e-004
-3.168994e-004,1.367214e-004
-2.916172e-004,1.495245e-004
-2.395943e-004,1.644345e-004
-1.742820e-004,1.780480e-004
-1.026491e-004,1.840444e-004
-2.485776e-005,1.811273e-004
6.152305e-005,1.681620e-004
1.602208e-004,1.482280e-004
2.676701e-004,1.269974e-004
3.775505e-004,1.072255e-004
4.859722e-004,8.777764e-005
5.914768e-004,6.622294e-005
6.888781e-004,4.126489e-005
7.656971e-004,1.517237e-005
8.062135e-004,-1.351319e-005
8.028101e-004,-4.381940e-005
7.627800e-004,-6.586029e-005
6.951987e-004,-7.104637e-005
6.039558e-004,-5.565017e-005
4.935893e-004,-2.761287e-005
3.785229e-004,2.623614e-007
2.824181e-004,1.971020e-005
2.245608e-004,2.829966e-005
2.072198e-004,3.073064e-005
2.201850e-004,3.283749e-005
2.501671e-004,3.510640e-005
2.874421e-004,4.353380e-005
3.242310e-004,6.200925e-005
3.516200e-004,8.453633e-005
3.657197e-004,1.049566e-004
3.615060e-004,1.159770e-004
3.350894e-004,1.133840e-004
2.820940e-004,1.046324e-004
2.034923e-004,9.701536e-005
1.033359e-004,9.344992e-005
-5.479652e-007,9.215340e-005
-8.628051e-005,9.458438e-005
-1.381414e-004,1.059289e-004
-1.598582e-004,1.258630e-004
-1.622891e-004,1.477418e-004
-1.592099e-004,1.626518e-004
-1.618029e-004,1.657311e-004
-1.746061e-004,1.573037e-004
-1.950263e-004,1.409351e-004
-2.251705e-004,1.200286e-004
-2.703867e-004,9.669123e-005
-3.379679e-004,7.675719e-005
-4.274279e-004,6.444023e-005
-5.240189e-004,5.649903e-005
-6.034308e-004,4.677511e-005
-6.452437e-004,3.008238e-005
-6.439472e-004,2.369210e-006
-6.091031e-004,-3.312309e-005
-5.580526e-004,-7.363942e-005
-5.053813e-004,-1.122110e-004
-4.640547e-004,-1.420310e-004
-4.371519e-004,-1.635857e-004
-4.220798e-004,-1.767129e-004
-4.123559e-004,-1.831956e-004
-4.002010e-004,-1.827094e-004
-3.846427e-004,-1.780095e-004
-3.674638e-004,-1.721751e-004
-3.519055e-004,-1.668270e-004
-3.431540e-004,-1.590478e-004
-3.446126e-004,-1.459205e-004
-3.579019e-004,-1.280934e-004
-3.760532e-004,-1.065387e-004
-3.930701e-004,-8.595638e-005
-4.016596e-004,-6.278104e-005
-3.917736e-004,-3.117831e-005
-3.564433e-004,6.582909e-006
-2.935620e-004,4.483032e-005
-2.057227e-004,7.853991e-005
-1.110765e-004,1.022014e-004
-3.733679e-005,1.120874e-004
3.665733e-006,1.090082e-004
1.987226e-005,1.007429e-004
3.218923e-005,9.571883e-005
5.763348e-005,9.717742e-005
1.018773e-004,1.059289e-004
1.556830e-004,1.197045e-004
1.936063e-004,1.376937e-004
1.950649e-004,1.537382e-004
1.579519e-004,1.639483e-004
1.013911e-004,1.694586e-004
5.763348e-005,1.712413e-004
5.504044e-005,1.722137e-004
1.013911e-004,1.702689e-004
1.880961e-004,1.655690e-004
2.997591e-004,1.621656e-004
4.253598e-004,1.603829e-004
5.553362e-004,1.566554e-004
6.780197e-004,1.492004e-004
7.789865e-004,1.388282e-004
8.493229e-004,1.276457e-004
8.828705e-004,1.161391e-004
8.734707e-004,1.065772e-004
8.101031e-004,9.620503e-005
6.994124e-004,8.097089e-005
5.705704e-004,6.152305e-005
4.605280e-004,4.175108e-005
3.958639e-004,2.359977e-005
3.814400e-004,9.175954e-006
4.073705e-004,7.485573e-007
4.423766e-004,-2.238345e-007
4.486972e-004,7.069104e-006
4.072085e-004,2.003433e-005
3.299032e-004,3.429608e-005
2.514636e-004,4.547859e-005
2.010613e-004,5.293359e-005
1.814514e-004,5.893001e-005
1.709171e-004,6.168512e-005
1.351007e-004,5.779555e-005
5.017848e-005,4.402000e-005
-8.579432e-005,2.489629e-005
-2.579077e-004,9.500084e-006
-4.345588e-004,8.527692e-006
-5.757177e-004,2.230324e-005
-6.460540e-004,4.320967e-005
-6.306578e-004,6.249544e-005
-5.441150e-004,7.189524e-005
-4.115455e-004,6.492643e-005
-2.673074e-004,3.850977e-005
-1.473791e-004,-5.479652e-007
-7.671866e-005,-4.203669e-005
-5.370539e-005,-7.363942e-005
-6.926366e-005,-8.222889e-005
-1.102662e-004,-6.326724e-005
-1.630995e-004,-2.923352e-005
-2.130156e-004,5.124321e-006
-2.391081e-004,3.251336e-005
-2.240360e-004,5.536457e-005
-1.618029e-004,7.983643e-005
-5.370539e-005,1.075496e-004
8.583285e-005,1.297525e-004
2.316917e-004,1.398006e-004
3.564820e-004,1.295905e-004
4.409180e-004,8.923622e-005
4.830550e-004,1.906194e-005
4.856481e-004,-5.451571e-005
4.457800e-004,-8.676671e-005
3.592371e-004,-5.435365e-005
2.402811e-004,2.359977e-005
1.271595e-004,9.879807e-005
6.751947e-005,1.295905e-004
8.826383e-005,1.017153e-004
1.799928e-004,3.364782e-005
3.094830e-004,-4.317114e-005
4.425387e-004,-9.843541e-005
5.577672e-004,-1.178833e-004
6.443101e-004,-1.079973e-004
7.000606e-004,-8.287714e-005
7.279359e-004,-5.565017e-005
7.305289e-004,-3.377135e-005
7.063812e-004,-1.594417e-005
6.528996e-004,2.623614e-007
5.666808e-004,1.549650e-005
4.454558e-004,2.732727e-005
2.842008e-004,3.802358e-005
8.696730e-005,4.774750e-005
-1.271210e-004,5.147500e-005
-3.339163e-004,4.450619e-005
-5.042469e-004,2.748933e-005
-6.167202e-004,5.448451e-006
-6.684190e-004,-1.432352e-005
-6.710120e-004,-2.631635e-005
-6.462161e-004,-2.988179e-005
-6.180167e-004,-2.501983e-005
-6.014861e-004,-1.318906e-005
-5.975965e-004,2.045080e-006
-5.992171e-004,1.873781e-005
-5.971103e-004,3.526847e-005
-5.773383e-004,4.904402e-005
-5.350393e-004,5.682316e-005
-4.765338e-004,5.941620e-005
-4.143007e-004,5.925414e-005
-3.609812e-004,6.055066e-005
-3.203028e-004,6.622294e-005
-2.864312e-004,7.351588e-005
-2.460769e-004,8.064676e-005
-1.908126e-004,8.631904e-005
-1.230693e-004,9.361198e-005
-5.467778e-005,1.018773e-004
1.720949e-006,1.077117e-004
4.337174e-005,1.112771e-004
7.772959e-005,1.167873e-004
1.116012e-004,1.276457e-004
1.500107e-004,1.430419e-004
1.882581e-004,1.558451e-004
2.222919e-004,1.628139e-004
2.472499e-004,1.581140e-004
2.569738e-004,1.378558e-004
2.495188e-004,1.010670e-004
2.325020e-004,4.904402e-005
2.141886e-004,-1.092015e-005
1.950649e-004,-6.650855e-005
1.678379e-004,-9.973194e-005
1.229458e-004,-1.041077e-004
6.200925e-005,-8.595638e-005
-7.354708e-006,-5.565017e-005
-7.412562e-005,-2.858526e-005
-1.248521e-004,-9.137427e-006
-1.507825e-004,3.503668e-006
-1.549962e-004,9.013888e-006
-1.454343e-004,8.851824e-006
-1.292278e-004,5.610517e-006
-1.114006e-004,1.883015e-006
-9.681476e-005,-1.844488e-006
-9.081834e-005,-7.516774e-006
-9.486997e-005,-1.675450e-005
-1.007043e-004,-3.134038e-005
-9.730095e-005,-5.046408e-005
-7.769105e-005,-6.845333e-005
-3.928157e-005,-7.866345e-005
1.225519e-005,-7.299116e-005
5.941620e-005,-5.402952e-005
8.793970e-005,-2.599222e-005
8.891209e-005,1.128280e-005
6.622294e-005,5.876794e-005
3.364782e-005,1.117633e-004
4.962256e-006,1.620035e-004
-1.270286e-005,1.970097e-004
-1.626830e-005,2.062474e-004
-9.947754e-006,1.871237e-004
5.772582e-006,1.462832e-004
3.235129e-005,9.571883e-005
7.400208e-005,5.244739e-005
1.323456e-004,2.894792e-005
2.091646e-004,2.489629e-005
3.059176e-004,2.813760e-005
4.159599e-004,2.278944e-005
5.146578e-004,-2.330684e-006
5.712186e-004,-4.511592e-005
5.648981e-004,-9.146661e-005
4.864584e-004,-1.253383e-004
3.522683e-004,-1.306864e-004
1.952270e-004,-1.039456e-004
4.807163e-005,-5.840528e-005
-5.872941e-005,-8.813297e-006
-1.034594e-004,3.105477e-005
-7.882551e-005,5.876794e-005
-5.479652e-007,7.432621e-005
1.047945e-004,8.291567e-005
1.963614e-004,8.972242e-005
2.433604e-004,9.571883e-005
2.359053e-004,9.928427e-005
1.845306e-004,1.000946e-004
1.150046e-004,9.620503e-005
5.066468e-005,8.793970e-005
4.962256e-006,7.983643e-005
-2.064406e-005,7.578480e-005
-3.360929e-005,7.983643e-005
-3.360929e-005,8.907416e-005
-1.529591e-005,9.814982e-005
2.246531e-005,1.046324e-004
7.205730e-005,1.081979e-004
1.234320e-004,1.083599e-004
1.714033e-004,1.067393e-004
2.127300e-004,1.018773e-004
2.422259e-004,8.956035e-005
2.524360e-004,6.832980e-005
2.404432e-004,4.596478e-005
2.039785e-004,3.267542e-005
1.461212e-004,3.397195e-005
7.886404e-005,4.807163e-005
1.695509e-005,6.638501e-005
-3.296103e-005,8.242948e-005
-7.088431e-005,9.263960e-005
-9.989400e-005,9.604297e-005
-1.258244e-004,9.020861e-005
-1.512687e-004,7.805372e-005
-1.697441e-004,6.476436e-005
-1.642339e-004,5.633696e-005
-1.272830e-004,5.471631e-005
-7.137050e-005,5.925414e-005
-1.464765e-005,6.622294e-005
2.862379e-005,6.946425e-005
6.119892e-005,6.914012e-005
8.793970e-005,6.508849e-005
1.169494e-004,5.893001e-005
1.423936e-004,5.001641e-005
1.464453e-004,3.996836e-005
1.203528e-004,3.364782e-005
7.319175e-005,3.089270e-005
1.776542e-005,3.251336e-005
-3.036798e-005,4.126489e-005
-5.986387e-005,5.196120e-005
-6.148453e-005,6.103685e-005
-3.814712e-005,6.136099e-005
-8.720958e-007,4.855782e-005
3.429608e-005,2.246531e-005
4.985435e-005,-5.247859e-006
3.397195e-005,-2.307504e-005
-2.015787e-005,-2.890940e-005
-1.031353e-004,-2.437157e-005
-1.922712e-004,-1.205460e-005
-2.632558e-004,4.962256e-006
-2.972895e-004,2.441009e-005
-2.919414e-004,4.175108e-005
-2.454286e-004,4.774750e-005
-1.609926e-004,4.239934e-005
-4.284701e-005,2.943412e-005
9.750155e-005,1.663096e-005
2.389846e-004,9.986280e-006
3.487029e-004,7.069104e-006
3.968363e-004,3.665733e-006
3.812780e-004,-4.275467e-006
3.252033e-004,-1.513384e-005
2.647530e-004,-2.615428e-005
2.410914e-004,-3.571614e-005
2.752873e-004,-4.252288e-005
3.522683e-004,-4.657451e-005
4.380009e-004,-4.722277e-005
4.987753e-004,-4.122636e-005
5.101199e-004,-2.842320e-005
4.657140e-004,-1.416145e-005
3.773884e-004,-4.437533e-006
2.683184e-004,-6.176923e-008
1.616794e-004,5.286386e-006
6.606088e-005,1.355172e-005
-1.594417e-005,2.392390e-005
-8.725291e-005,3.316162e-005
-1.553203e-004,3.850977e-005
-2.274394e-004,3.980630e-005
-3.091203e-004,3.867184e-005
-4.047388e-004,4.077869e-005
-5.151053e-004,4.888196e-005
-6.415162e-004,6.136099e-005
-7.817026e-004,7.756751e-005
-9.261028e-004,9.652916e-005
-1.041007e-003,1.156529e-004
-1.081848e-003,1.312111e-004
-1.009566e-003,1.375317e-004
-8.252982e-004,1.365593e-004
-5.700454e-004,1.315353e-004
-2.982619e-004,1.222975e-004
-5.548810e-005,1.101426e-004
1.320215e-004,9.977046e-005
2.592428e-004,9.377405e-005
3.412478e-004,9.085687e-005
3.935950e-004,9.280166e-005
4.342734e-004,1.049566e-004
4.749518e-004,1.326697e-004
5.084993e-004,1.697827e-004
5.198439e-004,2.078680e-004
5.008822e-004,2.381743e-004
4.551798e-004,2.513016e-004
3.898674e-004,2.444948e-004
3.132105e-004,2.231022e-004
2.386605e-004,1.926339e-004
1.704310e-004,1.535762e-004
1.067393e-004,1.051186e-004
4.077869e-005,4.483032e-005
-3.117831e-005,-2.404744e-005
-1.065387e-004,-8.822530e-005
-1.757406e-004,-1.342519e-004
-2.230636e-004,-1.582375e-004
-2.348944e-004,-1.681235e-004
-2.139880e-004,-1.762267e-004
-1.703924e-004,-1.846541e-004
-1.102662e-004,-1.885437e-004
-4.414354e-005,-1.854645e-004
1.501031e-005,-1.747682e-004
5.228533e-005,-1.541859e-004
6.022653e-005,-1.225831e-004
4.434413e-005,-8.433573e-005
1.355172e-005,-5.321919e-005
-2.680255e-005,-3.490581e-005
-7.347736e-005,-2.664048e-005
-1.195039e-004,-2.242678e-005
-1.634236e-004,-1.562004e-005
-2.055606e-004,-3.141010e-006
-2.386219e-004,1.501031e-005
-2.582318e-004,3.299956e-005
-2.639041e-004,4.466826e-005
-2.536940e-004,4.547859e-005
-2.243601e-004,3.996836e-005
-1.768750e-004,3.543053e-005
-1.152902e-004,3.429608e-005
-4.252288e-005,3.364782e-005
3.591673e-005,2.716520e-005
1.116012e-004,1.776542e-005
1.757791e-004,9.500084e-006
2.242366e-004,4.962256e-006
2.529222e-004,3.989864e-006
2.639427e-004,6.582909e-006
2.611876e-004,1.209313e-005
2.563256e-004,2.035846e-005
2.628082e-004,3.218923e-005
2.918179e-004,4.515445e-005
3.440029e-004,5.828174e-005
4.083429e-004,6.541262e-005
4.662002e-004,6.444023e-005
5.008822e-004,5.811968e-005
5.031511e-004,5.147500e-005
4.744656e-004,4.677511e-005
4.230909e-004,4.726130e-005
3.700955e-004,5.131293e-005
3.362238e-004,5.536457e-005
3.326584e-004,5.925414e-005
3.564820e-004,6.346784e-005
3.880847e-004,6.751947e-005
4.104497e-004,6.995045e-005
4.162841e-004,6.849186e-005
4.083429e-004,6.298164e-005
3.911640e-004,5.795762e-005
3.704196e-004,5.309565e-005
3.537268e-004,4.920609e-005
3.401134e-004,4.709924e-005
3.205035e-004,4.904402e-005
2.770700e-004,5.390598e-005
2.049509e-004,6.022653e-005
1.091703e-004,6.687120e-005
2.623614e-007,7.853991e-005
-1.105903e-004,9.685329e-005
-2.081536e-004,1.164632e-004
-2.750866e-004,1.299146e-004
-3.034480e-004,1.342904e-004
-2.966413e-004,1.315353e-004
-2.627696e-004,1.257009e-004
-2.141500e-004,1.210010e-004
-1.611547e-004,1.200286e-004
-1.096179e-004,1.219734e-004
-6.731887e-005,1.193804e-004
-4.803310e-005,1.025256e-004
-5.743289e-005,7.238143e-005
-9.033214e-005,3.753739e-005
-1.302002e-004,8.527692e-006
-1.629374e-004,-2.330684e-006
-1.885437e-004,6.907039e-006
-2.100984e-004,2.684107e-005
-2.246843e-004,4.612685e-005
-2.224154e-004,5.341978e-005
-1.914609e-004,4.564065e-005
-1.340898e-004,3.154097e-005
-6.634648e-005,2.116879e-005
-6.220251e-006,1.614476e-005
2.765140e-005,1.436204e-005
2.748933e-005,1.533444e-005
-3.303075e-006,1.808955e-005
-5.030201e-005,2.343770e-005
-1.058904e-004,2.975825e-005
-1.731475e-004,3.802358e-005
-2.395943e-004,4.823369e-005
-2.783279e-004,5.714729e-005
-2.711970e-004,5.860587e-005
-2.130156e-004,5.439218e-005
-1.057284e-004,4.612685e-005
4.483032e-005,3.672705e-005
2.180782e-004,2.570661e-005
3.794953e-004,1.338965e-005
4.952099e-004,3.503668e-006
5.483674e-004,5.864920e-007
5.490156e-004,1.883015e-006
5.274609e-004,-7.100305e-007
5.130371e-004,-9.947754e-006
5.208162e-004,-2.161646e-005
5.488536e-004,-3.150244e-005
5.794839e-004,-3.571614e-005
5.896941e-004,-2.890940e-005
5.579292e-004,-1.043395e-005
4.712243e-004,1.517237e-005
3.315239e-004,4.029249e-005
1.527658e-004,5.390598e-005
-3.749886e-005,4.256141e-005
-2.075054e-004,2.207145e-006
-3.298646e-004,-5.986387e-005
-3.925839e-004,-1.199901e-004
-3.971218e-004,-1.598582e-004
-3.574157e-004,-1.737958e-004
-3.003688e-004,-1.647201e-004
-2.527216e-004,-1.412206e-004
-2.313289e-004,-1.114006e-004
-2.347323e-004,-7.785312e-005
-2.441321e-004,-4.155049e-005
-2.368392e-004,-2.330684e-006
-2.053985e-004,3.672705e-005
-1.592099e-004,6.962632e-005
-1.112386e-004,9.150514e-005
-7.363942e-005,1.020394e-004
-5.451571e-005,1.056048e-004
-5.451571e-005,1.022014e-004
-7.331529e-005,9.604297e-005
-1.044318e-004,9.037068e-005
-1.400862e-004,8.405013e-005
-1.708786e-004,7.789165e-005
-1.882196e-004,7.384001e-005
-1.903264e-004,7.562274e-005
-1.844921e-004,8.356393e-005
-1.838438e-004,9.977046e-005
-1.906506e-004,1.200286e-004
-2.060468e-004,1.396385e-004
-2.277635e-004,1.573037e-004
-2.538560e-004,1.705930e-004
-2.755728e-004,1.790204e-004
-2.784900e-004,1.809652e-004
-2.442942e-004,1.722137e-004
-1.677994e-004,1.500107e-004
-6.310517e-005,1.153287e-004
4.175108e-005,6.622294e-005
1.153287e-004,1.031041e-005
1.417454e-004,-3.798505e-005
1.158149e-004,-6.018800e-005
4.839576e-005,-4.495386e-005
-3.652646e-005,3.341602e-006
-1.101041e-004,6.525056e-005
-1.507825e-004,1.140322e-004
-1.533756e-004,1.321835e-004
-1.305243e-004,1.182459e-004
-9.730095e-005,8.550872e-005
-6.893953e-005,5.228533e-005
-5.176060e-005,2.586868e-005
-3.976777e-005,5.610517e-006
-2.356124e-005,-2.006553e-006
-2.238345e-007,9.986280e-006
2.813760e-005,4.564065e-005
6.411610e-005,9.571883e-005
1.091703e-004,1.440143e-004
1.582760e-004,1.702689e-004
2.017096e-004,1.592484e-004
2.328261e-004,1.146805e-004
2.444948e-004,5.649903e-005
2.354192e-004,9.175954e-006
2.132162e-004,-1.594417e-005
1.892305e-004,-1.594417e-005
1.655690e-004,3.341602e-006
1.367214e-004,2.797553e-005
1.049566e-004,4.645098e-005
7.448828e-005,5.163707e-005
5.212327e-005,4.418206e-005
5.131293e-005,2.684107e-005
8.194328e-005,4.313994e-006
1.406109e-004,-1.805102e-005
2.068957e-004,-3.053005e-005
2.568118e-004,-3.198863e-005
2.739907e-004,-2.226472e-005
2.581083e-004,-9.947754e-006
2.146748e-004,-2.978945e-006
1.555209e-004,-2.816880e-006
9.426025e-005,-8.002969e-006
3.786152e-005,-1.286493e-005
-1.821308e-005,-1.318906e-005
-7.850138e-005,-6.058186e-006
-1.373311e-004,7.717366e-006
-1.825473e-004,1.889987e-005
-2.144742e-004,1.971020e-005
-2.402425e-004,8.203561e-006
-2.660109e-004,-8.002969e-006
-2.942103e-004,-1.691656e-005
-3.313232e-004,-1.562004e-005
-3.841565e-004,-8.975361e-006
-4.447689e-004,-2.492749e-006
-4.932265e-004,3.989864e-006
-5.045710e-004,7.393235e-006
-4.629203e-004,7.879431e-006
-3.690844e-004,1.160693e-005
-2.395943e-004,2.684107e-005
-9.989400e-005,4.564065e-005
2.262737e-005,5.990240e-005
1.103047e-004,6.703327e-005
1.590864e-004,7.011251e-005
1.712413e-004,7.319175e-005
1.615174e-004,7.805372e-005
1.482280e-004,8.226741e-005
1.427178e-004,8.226741e-005
1.530900e-004,7.270556e-005
1.864754e-004,5.666109e-005
2.384984e-004,4.094075e-005
2.906834e-004,3.397195e-005
3.235827e-004,3.348575e-005
3.256896e-004,3.624086e-005
3.041349e-004,4.061663e-005
2.769079e-004,4.531652e-005
2.657254e-004,5.098881e-005
2.796630e-004,5.763348e-005
3.062417e-004,6.508849e-005
3.305515e-004,7.367795e-005
3.443271e-004,8.405013e-005
3.521062e-004,9.523264e-005
3.676645e-004,1.018773e-004
4.013741e-004,9.652916e-005
4.543695e-004,8.275361e-005
5.250300e-004,6.784360e-005
6.075212e-004,5.828174e-005
6.819093e-004,5.260946e-005
7.284220e-004,4.661304e-005
7.379840e-004,4.466826e-005
7.186981e-004,5.115087e-005
6.913091e-004,6.314371e-005
6.757508e-004,7.578480e-005
6.809368e-004,8.178122e-005
7.075156e-004,7.837785e-005
7.472216e-004,7.011251e-005
7.830382e-004,6.444023e-005
7.964895e-004,6.233338e-005
7.725038e-004,6.411610e-005
7.101087e-004,6.816773e-005
6.214589e-004,7.319175e-005
5.214645e-004,7.935023e-005
4.154738e-004,8.648111e-005
3.042969e-004,9.312579e-005
1.897167e-004,9.490851e-005
7.610893e-005,8.810177e-005
-3.555407e-005,7.319175e-005
-1.494860e-004,5.001641e-005
-2.703867e-004,1.841368e-005
-4.047388e-004,-2.145439e-005
-5.504355e-004,-6.861539e-005
-7.029389e-004,-1.141557e-004
-8.539837e-004,-1.457585e-004
-9.922255e-004,-1.566169e-004
-1.107940e-003,-1.472171e-004
-1.180059e-003,-1.264727e-004
-1.193186e-003,-1.032974e-004
-1.150887e-003,-8.141856e-005
-1.071961e-003,-6.132245e-005
-9.761809e-004,-3.782299e-005
-8.682455e-004,-1.205460e-005
-7.436173e-004,3.665733e-006
-6.019723e-004,4.638125e-006
-4.528722e-004,-3.465141e-006
-3.160891e-004,-8.489165e-006
-2.063709e-004,-4.275467e-006
-1.206384e-004,7.231170e-006
-4.203669e-005,2.441009e-005
4.158902e-005,4.580272e-005
1.321835e-004,6.784360e-005
2.231022e-004,8.550872e-005
2.968419e-004,9.717742e-005
3.339549e-004,1.004187e-004
3.214759e-004,9.280166e-005
2.739907e-004,7.627100e-005
2.252090e-004,5.747142e-005
2.073818e-004,4.191315e-005
2.372019e-004,3.364782e-005
3.127243e-004,3.089270e-005
4.096394e-004,3.073064e-005
4.942375e-004,3.526847e-005
5.336195e-004,5.439218e-005
5.107682e-004,9.701536e-005
4.300596e-004,1.637863e-004
3.141829e-004,2.402811e-004
1.927960e-004,3.057555e-004
9.215340e-005,3.435167e-004
2.927205e-005,3.537268e-004
7.717366e-006,3.448132e-004
1.792748e-005,3.198552e-004
4.450619e-005,2.775562e-004
7.448828e-005,2.141886e-004
1.039842e-004,1.318594e-004
1.321835e-004,4.207521e-005
1.615174e-004,-4.090223e-005
1.887443e-004,-1.131834e-004
2.004130e-004,-1.747682e-004
1.859892e-004,-2.269532e-004
1.582760e-004,-2.758969e-004
1.436902e-004,-3.207890e-004
1.616794e-004,-3.491504e-004
2.104611e-004,-3.523917e-004
2.726942e-004,-3.324577e-004
3.355755e-004,-2.968033e-004
3.841952e-004,-2.493182e-004
4.025085e-004,-1.924333e-004
3.788470e-004,-1.334415e-004
3.102933e-004,-7.704279e-005
2.044647e-004,-2.534396e-005
8.550872e-005,2.116879e-005
-2.177852e-005,5.990240e-005
-1.023250e-004,9.344992e-005
-1.496480e-004,1.242423e-004
-1.726613e-004,1.516314e-004
-1.888679e-004,1.712413e-004
-2.113949e-004,1.817755e-004
-2.464010e-004,1.830720e-004
-2.956689e-004,1.770756e-004
-3.579019e-004,1.689724e-004
-4.331002e-004,1.662173e-004
-5.113778e-004,1.710792e-004
-5.762039e-004,1.765894e-004
-6.081308e-004,1.811273e-004
-5.980827e-004,1.851789e-004
-5.509217e-004,1.887443e-004
-4.812336e-004,1.869616e-004
-4.058733e-004,1.739964e-004
-3.350507e-004,1.498487e-004
-2.770314e-004,1.161391e-004
-2.381357e-004,7.805372e-005
-2.157707e-004,3.915804e-005
-1.979435e-004,-4.761663e-006
-1.720131e-004,-5.678463e-005
-1.264727e-004,-1.117248e-004
-6.229485e-005,-1.575892e-004
9.824214e-006,-1.814128e-004
7.691926e-005,-1.729855e-004
1.299146e-004,-1.361966e-004
1.637863e-004,-8.239095e-005
1.827479e-004,-2.501983e-005
1.939304e-004,2.505835e-005
1.997648e-004,6.184718e-005
1.900409e-004,8.388807e-005
1.517934e-004,8.939829e-005
8.048469e-005,8.307774e-005
-1.643037e-005,7.189524e-005
-1.282554e-004,6.622294e-005
-2.426735e-004,6.654707e-005
-3.468815e-004,6.557468e-005
-4.342347e-004,6.038860e-005
-4.980884e-004,5.050261e-005
-5.326083e-004,3.964423e-005
-5.343910e-004,2.975825e-005
-5.010056e-004,2.246531e-005
-4.350450e-004,2.230324e-005
-3.538503e-004,3.202716e-005
-2.835140e-004,4.871989e-005
-2.397564e-004,6.346784e-005
-2.172293e-004,7.043664e-005
-2.024813e-004,6.995045e-005
-1.878955e-004,6.476436e-005
-1.718510e-004,5.876794e-005
-1.613168e-004,5.909207e-005
-1.618029e-004,6.573675e-005
-1.661787e-004,7.724339e-005
-1.603444e-004,8.793970e-005
-1.329553e-004,9.685329e-005
-8.368747e-005,1.022014e-004
-1.772689e-005,1.020394e-004
5.763348e-005,9.847395e-005
1.334801e-004,9.507057e-005
2.004130e-004,9.409818e-005
2.569738e-004,9.555677e-005
3.067279e-004,9.912220e-005
3.509718e-004,1.047945e-004
3.843572e-004,1.107909e-004
4.004017e-004,1.143563e-004
3.991052e-004,1.094944e-004
3.885709e-004,9.507057e-005
3.767402e-004,7.627100e-005
3.723644e-004,5.893001e-005
3.739850e-004,4.790957e-005
3.770643e-004,4.709924e-005
3.867882e-004,5.779555e-005
4.051016e-004,7.384001e-005
4.260080e-004,8.875003e-005
4.384870e-004,9.701536e-005
4.401077e-004,9.571883e-005
4.350837e-004,8.777764e-005
4.318423e-004,7.173317e-005
4.341113e-004,5.244739e-005
4.402698e-004,4.029249e-005
4.392974e-004,3.867184e-005
4.237391e-004,4.304760e-005
3.911640e-004,4.661304e-005
3.485408e-004,4.612685e-005
3.083486e-004,4.272347e-005
2.830664e-004,3.510640e-005
2.772320e-004,2.295151e-005
2.900352e-004,1.209313e-005
3.124002e-004,7.231170e-006
3.307136e-004,1.095867e-005
3.346032e-004,1.452411e-005
3.226103e-004,1.257933e-005
3.008935e-004,4.962256e-006
2.780423e-004,-5.896120e-006
2.548670e-004,-1.545797e-005
2.224539e-004,-1.950961e-005
1.717275e-004,-1.869928e-005
9.701536e-005,-1.562004e-005
7.555300e-006,-1.610623e-005
-7.914964e-005,-2.064406e-005
-1.460826e-004,-2.890940e-005
-1.888679e-004,-3.717472e-005
-2.099363e-004,-3.928157e-005
-2.203085e-004,-3.441962e-005
-2.335979e-004,-2.793700e-005
-2.514251e-004,-2.339917e-005
-2.598524e-004,-2.161646e-005
-2.439700e-004,-1.983374e-005
-1.984297e-004,-1.594417e-005
-1.305243e-004,-1.140634e-005
-5.354332e-005,-7.354708e-006
2.165498e-005,-3.951337e-006
8.664317e-005,-2.492749e-006
1.410971e-004,9.106226e-007
1.984682e-004,6.582909e-006
2.785285e-004,1.079661e-005
3.871123e-004,8.365628e-006
5.183853e-004,2.693341e-006
6.511168e-004,-7.100305e-007
7.613213e-004,4.244267e-007
8.253373e-004,4.800190e-006
8.321439e-004,6.744974e-006
7.942206e-004,6.907039e-006
7.454389e-004,7.717366e-006
7.149706e-004,1.355172e-005
7.107570e-004,2.149292e-005
7.224256e-004,2.651694e-005
7.316634e-004,2.554455e-005
7.190223e-004,2.035846e-005
6.652166e-004,1.209313e-005
5.576051e-004,5.124321e-006
4.078567e-004,2.045080e-006
2.464396e-004,4.638125e-006
9.782569e-005,1.225519e-005
-2.907146e-005,2.035846e-005
-1.368449e-004,2.603075e-005
-2.348944e-004,2.813760e-005
-3.228959e-004,2.910999e-005
-4.008492e-004,3.024445e-005
-4.629203e-004,3.040651e-005
-4.988987e-004,2.959618e-005
-5.018159e-004,2.862379e-005
-4.742648e-004,2.635488e-005
-4.345588e-004,2.522042e-005
-4.149489e-004,2.570661e-005
-4.452551e-004,2.992031e-005
-5.261257e-004,3.737532e-005
-6.358439e-004,4.742337e-005
-7.450759e-004,6.071273e-005
-8.223810e-004,7.416414e-005
-8.410186e-004,8.194328e-005
-7.906162e-004,8.080882e-005
-6.823567e-004,7.562274e-005
-5.452494e-004,7.319175e-005
-4.125179e-004,7.902610e-005
-3.165753e-004,8.729143e-005
-2.820554e-004,8.826383e-005
-3.065272e-004,7.157111e-005
-3.661673e-004,3.721326e-005
-4.243487e-004,2.693341e-006
-4.527101e-004,-5.896120e-006
-4.352071e-004,2.765140e-005
-3.705430e-004,9.928427e-005
-2.793003e-004,1.845306e-004
-1.891920e-004,2.472499e-004
-1.342519e-004,2.668598e-004
-1.326312e-004,2.425500e-004
-1.755785e-004,1.884202e-004
-2.324634e-004,1.234320e-004
-2.679557e-004,6.849186e-005
-2.580697e-004,3.575467e-005
-1.997262e-004,2.295151e-005
-1.086455e-004,2.084466e-005
-1.189254e-005,2.408596e-005
6.168512e-005,3.089270e-005
1.031738e-004,3.834771e-005
1.205148e-004,4.353380e-005
1.250527e-004,4.564065e-005
1.253768e-004,4.369587e-005
1.195424e-004,3.769945e-005
1.059289e-004,2.894792e-005
8.048469e-005,2.116879e-005
3.850977e-005,1.663096e-005
-2.680255e-005,1.938607e-005
-1.146419e-004,2.359977e-005
-2.057227e-004,2.376183e-005
-2.749245e-004,1.387585e-005
-3.055549e-004,-1.844488e-006
-2.948585e-004,-1.562004e-005
-2.504527e-004,-2.485776e-005
-1.814128e-004,-2.826113e-005
-1.036215e-004,-2.291298e-005
-3.344722e-005,-1.140634e-005
2.214118e-005,1.234753e-006
6.217131e-005,1.209313e-005
8.631904e-005,1.857574e-005
9.912220e-005,2.230324e-005
1.109530e-004,2.489629e-005
1.352628e-004,2.603075e-005
1.782101e-004,2.052053e-005
2.331502e-004,1.014835e-005
2.848491e-004,-8.720958e-007
3.260137e-004,-1.318906e-005
3.509718e-004,-2.258885e-005
3.571302e-004,-1.934754e-005
3.491890e-004,2.369210e-006
3.357376e-004,3.510640e-005
3.256896e-004,6.978838e-005
3.182345e-004,9.685329e-005
3.075383e-004,1.026876e-004
2.893869e-004,8.388807e-005
2.650771e-004,4.726130e-005
2.373639e-004,1.063454e-005
2.025199e-004,-5.896120e-006
1.587622e-004,4.151929e-006
1.124116e-004,3.073064e-005
7.562274e-005,6.492643e-005
4.953022e-005,9.733949e-005
3.251336e-005,1.116012e-004
2.408596e-005,9.701536e-005
2.846173e-005,5.423011e-005
5.082674e-005,-8.489165e-006
9.750155e-005,-7.201877e-005
1.744826e-004,-1.206384e-004
2.863077e-004,-1.465688e-004
4.266563e-004,-1.507825e-004
5.841838e-004,-1.339277e-004
7.397666e-004,-9.454584e-005
8.694190e-004,-3.928157e-005
9.551517e-004,1.630683e-005
9.909682e-004,5.601283e-005
9.883750e-004,6.914012e-005
9.656859e-004,5.941620e-005
9.253316e-004,3.996836e-005
8.545090e-004,2.538249e-005
7.353909e-004,2.522042e-005
5.621430e-004,4.045456e-005
3.456236e-004,6.460230e-005
1.065772e-004,8.729143e-005
-1.287416e-004,1.026876e-004
-3.418575e-004,1.094944e-004
-5.300153e-004,1.119254e-004
-6.941874e-004,1.127357e-004
-8.359945e-004,1.156529e-004
-9.452265e-004,1.195424e-004
-1.005677e-003,1.218114e-004
-1.003894e-003,1.219734e-004
-9.303165e-004,1.171115e-004
-7.906162e-004,1.093323e-004
-6.074825e-004,1.031738e-004
-4.202971e-004,9.782569e-005
-2.674695e-004,9.539470e-005
-1.726613e-004,9.458438e-005
-1.340898e-004,9.263960e-005
-1.321450e-004,8.891209e-005
-1.396000e-004,8.307774e-005
-1.361966e-004,7.448828e-005
-1.102662e-004,6.006446e-005
-5.921561e-005,3.980630e-005
1.225519e-005,1.549650e-005
9.474644e-005,-7.192643e-006
1.822617e-004,-2.599222e-005
2.607013e-004,-3.960571e-005
3.177483e-004,-4.446767e-005
3.370341e-004,-3.685059e-005
3.101313e-004,-1.788895e-005
2.389846e-004,5.934647e-006
1.375317e-004,2.441009e-005
2.311357e-005,3.202716e-005
-7.558420e-005,2.684107e-005
-1.264727e-004,1.079661e-005
-1.094559e-004,-7.516774e-006
-2.728874e-005,-2.388537e-005
9.004655e-005,-3.134038e-005
1.987924e-004,-2.842320e-005
2.705873e-004,-1.513384e-005
3.049452e-004,4.151929e-006
3.083486e-004,2.619281e-005
2.887386e-004,4.823369e-005
2.613496e-004,6.265751e-005
2.444948e-004,6.670914e-005
2.525981e-004,6.460230e-005
2.897111e-004,5.617490e-005
3.427064e-004,4.483032e-005
3.887330e-004,3.364782e-005
4.076946e-004,2.278944e-005
3.919743e-004,1.468617e-005
3.394651e-004,1.419998e-005
2.547049e-004,2.570661e-005
1.402868e-004,4.661304e-005
-6.176923e-008,7.238143e-005
-1.522411e-004,9.896014e-005
-2.976136e-004,1.216493e-004
-4.159213e-004,1.325077e-004
-4.893369e-004,1.269974e-004
-5.073261e-004,1.098185e-004
-4.770199e-004,8.972242e-005
-4.167317e-004,7.578480e-005
-3.486642e-004,6.946425e-005
-2.880518e-004,7.157111e-005
-2.374874e-004,7.643306e-005
-1.938919e-004,7.319175e-005
-1.566169e-004,5.260946e-005
-1.264727e-004,1.501031e-005
-1.039456e-004,-2.664048e-005
-8.222889e-005,-5.581224e-005
-5.127441e-005,-6.245691e-005
-5.409925e-006,-4.527799e-005
5.260946e-005,-1.302699e-005
1.069013e-004,2.149292e-005
1.457970e-004,4.823369e-005
1.722137e-004,6.897806e-005
1.914994e-004,8.664317e-005
2.072198e-004,9.896014e-005
2.154851e-004,1.010670e-004
2.107852e-004,9.215340e-005
1.911753e-004,7.805372e-005
1.592484e-004,6.525056e-005
1.153287e-004,6.217131e-005
6.087479e-005,7.059870e-005
1.234753e-006,8.858796e-005
-4.932962e-005,1.122495e-004
-7.785312e-005,1.367214e-004
-7.963584e-005,1.556830e-004
-5.905355e-005,1.589243e-004
-2.583015e-005,1.469315e-004
7.393235e-006,1.266733e-004
3.008238e-005,1.043083e-004
4.191315e-005,8.129502e-005
5.293359e-005,6.362990e-005
6.703327e-005,5.277152e-005
8.259154e-005,4.499239e-005
9.490851e-005,3.478227e-005
1.033359e-004,1.938607e-005
1.148425e-004,1.234753e-006
1.422316e-004,-1.999580e-005
1.880961e-004,-4.608832e-005
2.483844e-004,-8.012203e-005
3.159656e-004,-1.178833e-004
3.827366e-004,-1.485136e-004
4.402698e-004,-1.605064e-004
4.747897e-004,-1.515928e-004
4.759242e-004,-1.258244e-004
4.430249e-004,-9.081834e-005
3.875985e-004,-5.856734e-005
3.211517e-004,-3.555407e-005
2.472499e-004,-2.177852e-005
1.624898e-004,-1.302699e-005
6.946425e-005,-7.030578e-006
-2.664048e-005,-1.034161e-006
-1.125351e-004,1.209313e-005
-1.822232e-004,3.105477e-005
-2.391081e-004,5.260946e-005
-2.865932e-004,6.849186e-005
-3.190063e-004,7.302969e-005
-3.311612e-004,7.189524e-005
-3.269475e-004,7.140904e-005
-3.152788e-004,7.270556e-005
-3.045825e-004,7.335382e-005
-3.024756e-004,7.108490e-005
-3.112271e-004,6.622294e-005
-3.275957e-004,5.666109e-005
-3.438023e-004,4.158902e-005
-3.489884e-004,2.489629e-005
-3.298646e-004,1.274139e-005
-2.809209e-004,6.258778e-006
-2.011848e-004,1.883015e-006
-9.584237e-005,-2.006553e-006
2.116879e-005,-2.978945e-006
1.344524e-004,5.864920e-007
2.303951e-004,1.387585e-005
2.927903e-004,3.316162e-005
3.041349e-004,5.017848e-005
2.585945e-004,6.184718e-005
1.684862e-004,6.897806e-005
6.168512e-005,7.918817e-005
-2.955766e-005,9.150514e-005
-8.239095e-005,1.015532e-004
-9.486997e-005,1.020394e-004
-8.012203e-005,9.328785e-005
-4.965375e-005,7.805372e-005
-1.659243e-005,6.087479e-005
1.079661e-005,4.547859e-005
3.024445e-005,3.543053e-005
4.207521e-005,3.024445e-005
4.888196e-005,2.424803e-005
4.709924e-005,1.484824e-005
3.656499e-005,3.989864e-006
2.003433e-005,-5.734055e-006
5.772582e-006,-1.075808e-005
2.207145e-006,-8.002969e-006
1.646889e-005,1.072688e-006
4.272347e-005,8.203561e-006
6.962632e-005,9.500084e-006
7.805372e-005,9.338019e-006
5.860587e-005,1.306552e-005
1.193106e-005,2.278944e-005
-5.240886e-005,3.543053e-005
-1.159385e-004,4.855782e-005
-1.577513e-004,6.087479e-005
-1.660166e-004,7.011251e-005
-1.428413e-004,7.448828e-005
-1.005423e-004,7.691926e-005
-5.321919e-005,8.129502e-005
-6.220251e-006,8.712937e-005
3.364782e-005,9.118101e-005
5.682316e-005,9.037068e-005
6.427816e-005,8.502253e-005
6.573675e-005,7.805372e-005
6.946425e-005,7.335382e-005
7.951231e-005,7.157111e-005
9.701536e-005,6.995045e-005
1.190562e-004,6.719534e-005
1.410971e-004,6.379197e-005
1.524417e-004,6.314371e-005
1.404489e-004,5.925414e-005
1.022014e-004,5.277152e-005
5.196120e-005,4.547859e-005
6.096713e-006,4.207521e-005
-2.907146e-005,4.029249e-005
-5.419158e-005,4.304760e-005
-7.315322e-005,5.001641e-005
-9.341139e-005,5.714729e-005
-1.185315e-004,6.346784e-005
-1.404103e-004,6.930219e-005
-1.473791e-004,7.384001e-005
-1.396000e-004,7.529860e-005
-1.263107e-004,7.416414e-005
-1.122110e-004,7.384001e-005
-9.519411e-005,7.124698e-005
-6.926366e-005,6.217131e-005
-3.506787e-005,4.628891e-005
1.234753e-006,2.894792e-005
3.640293e-005,1.047248e-005
6.768153e-005,-6.544382e-006
9.166720e-005,-1.643037e-005
1.073875e-004,-1.691656e-005
1.188942e-004,-1.254080e-005
1.328318e-004,-9.461557e-006
1.522796e-004,-1.416145e-005
1.725378e-004,-3.150244e-005
1.880961e-004,-6.294311e-005
1.950649e-004,-1.010285e-004
2.078680e-004,-1.258244e-004
2.435224e-004,-1.227452e-004
3.089968e-004,-9.292519e-005
3.974845e-004,-5.062615e-005
4.846757e-004,-8.165034e-006
5.496639e-004,2.392390e-005
5.846700e-004,3.964423e-005
5.947181e-004,4.061663e-005
5.893700e-004,3.624086e-005
5.793219e-004,3.413401e-005
5.640878e-004,3.559260e-005
5.295678e-004,3.721326e-005
4.613383e-004,4.207521e-005
3.602095e-004,5.957827e-005
2.422259e-004,9.960840e-005
1.294284e-004,1.603829e-004
3.429608e-005,2.188885e-004
-4.284701e-005,2.521119e-004
-1.112386e-004,2.478982e-004
-1.789819e-004,2.093266e-004
-2.441321e-004,1.522796e-004
-2.924276e-004,9.685329e-005
-3.112271e-004,5.341978e-005
-2.948585e-004,2.748933e-005
-2.460769e-004,1.598270e-005
-1.830335e-004,1.193106e-005
-1.297140e-004,1.257933e-005
-1.068628e-004,2.116879e-005
-1.217728e-004,3.802358e-005
-1.648822e-004,5.941620e-005
-2.191741e-004,8.307774e-005
-2.716832e-004,1.034980e-004
-3.183580e-004,1.158149e-004
-3.591985e-004,1.184080e-004
-3.901529e-004,1.117633e-004
-4.016596e-004,9.847395e-005
-3.890185e-004,7.870197e-005
-3.540124e-004,5.568870e-005
-3.008549e-004,3.559260e-005
-2.357047e-004,2.084466e-005
-1.639098e-004,1.063454e-005
-8.741497e-005,2.855406e-006
-2.238345e-007,-1.358292e-006
1.059289e-004,-6.176923e-008
2.323399e-004,5.772582e-006
3.678265e-004,1.095867e-005
4.987753e-004,5.772582e-006
6.117350e-004,-8.813297e-006
6.986020e-004,-2.809907e-005
7.537042e-004,-4.495386e-005
7.728280e-004,-5.451571e-005
7.490044e-004,-5.565017e-005
6.775335e-004,-5.176060e-005
5.658705e-004,-4.398147e-005
4.313562e-004,-3.506787e-005
2.955454e-004,-2.307504e-005
1.801549e-004,-6.868512e-006
1.030118e-004,7.717366e-006
7.124698e-005,1.695509e-005
7.027457e-005,2.019640e-005
7.416414e-005,1.679302e-005
6.055066e-005,1.047248e-005
1.744128e-005,5.286386e-006
-4.787104e-005,5.864920e-007
-1.156143e-004,-1.682422e-006
-1.608306e-004,1.072688e-006
-1.750923e-004,9.338019e-006
-1.666649e-004,1.792748e-005
-1.434896e-004,2.457216e-005
-1.135075e-004,2.684107e-005
-8.255302e-005,2.214118e-005
-6.229485e-005,9.662150e-006
-5.937767e-005,-8.002969e-006
-7.947377e-005,-2.518189e-005
-1.225831e-004,-3.604027e-005
-1.786577e-004,-3.636440e-005
-2.293842e-004,-2.664048e-005
-2.648765e-004,-1.108221e-005
-2.801106e-004,6.582909e-006
-2.752486e-004,2.392390e-005
-2.540181e-004,4.223728e-005
-2.180396e-004,6.314371e-005
-1.754164e-004,8.275361e-005
-1.373311e-004,9.896014e-005
-1.110765e-004,1.154908e-004
-9.843541e-005,1.351007e-004
-1.028112e-004,1.527658e-004
-1.118868e-004,1.649207e-004
-1.052422e-004,1.827479e-004
-6.537409e-005,2.174299e-004
6.744974e-006,2.634565e-004
9.717742e-005,2.953833e-004
1.850168e-004,2.858215e-004
2.475740e-004,2.250470e-004
2.739907e-004,1.276457e-004
2.637806e-004,2.359977e-005
2.326641e-004,-5.694669e-005
1.918236e-004,-9.665269e-005
1.547106e-004,-9.503204e-005
1.299146e-004,-6.861539e-005
1.200286e-004,-3.944364e-005
1.154908e-004,-1.967167e-005
1.093323e-004,-1.318906e-005
1.033359e-004,-1.432352e-005
1.015532e-004,-1.756482e-005
1.091703e-004,-1.950961e-005
1.341283e-004,-2.048200e-005
1.722137e-004,-1.805102e-005
2.115955e-004,-1.010982e-005
2.341226e-004,7.717366e-006
2.315296e-004,2.894792e-005
2.013854e-004,4.304760e-005
1.530900e-004,4.207521e-005
1.039842e-004,2.262737e-005
7.059870e-005,-1.626830e-005
5.714729e-005,-6.877746e-005
5.017848e-005,-1.271210e-004
3.672705e-005,-1.827094e-004
1.792748e-005,-2.235498e-004
9.106226e-007,-2.397564e-004
-7.192643e-006,-2.277635e-004
-1.124428e-005,-1.917850e-004
-2.469570e-005,-1.434896e-004
-6.180866e-005,-9.017008e-005
-1.290658e-004,-3.814712e-005
-2.172293e-004,1.047248e-005
-3.011791e-004,5.374392e-005
-3.546606e-004,8.680524e-005
-3.593605e-004,1.090082e-004
-3.156029e-004,1.229458e-004
-2.481837e-004,1.313732e-004
-1.895161e-004,1.365593e-004
-1.639098e-004,1.401247e-004
-1.820611e-004,1.347766e-004
-2.298704e-004,1.146805e-004
-2.734659e-004,8.907416e-005
-2.880518e-004,7.902610e-005
-2.708729e-004,1.018773e-004
-2.376495e-004,1.506590e-004
-2.096122e-004,1.958752e-004
-2.031296e-004,2.090025e-004
-2.209568e-004,1.799928e-004
-2.501285e-004,1.261871e-004
-2.711970e-004,7.254349e-005
-2.679557e-004,3.543053e-005
-2.361909e-004,1.744128e-005
-1.778474e-004,1.160693e-005
-1.054042e-004,1.128280e-005
-3.733679e-005,1.338965e-005
1.079661e-005,1.857574e-005
3.607880e-005,2.586868e-005
4.742337e-005,3.526847e-005
5.649903e-005,4.726130e-005
6.881599e-005,5.974033e-005
8.453633e-005,7.043664e-005
1.005808e-004,8.113296e-005
1.120874e-004,9.328785e-005
1.208390e-004,1.030118e-004
1.336421e-004,1.090082e-004
1.563313e-004,1.117633e-004
1.835582e-004,1.137081e-004
2.068957e-004,1.146805e-004
2.161334e-004,1.151667e-004
2.059233e-004,1.159770e-004
1.788584e-004,1.188942e-004
1.407730e-004,1.163011e-004
9.539470e-005,1.036600e-004
5.730935e-005,7.789165e-005
3.915804e-005,4.239934e-005
4.094075e-005,5.124321e-006
5.455424e-005,-2.518189e-005
6.849186e-005,-3.976777e-005
7.708132e-005,-3.393342e-005
7.529860e-005,-1.124428e-005
6.006446e-005,2.311357e-005
3.867184e-005,5.487837e-005
2.927205e-005,7.254349e-005
4.888196e-005,7.594687e-005
9.636710e-005,7.108490e-005
1.470936e-004,6.087479e-005
1.833962e-004,4.823369e-005
1.999268e-004,3.867184e-005
1.965235e-004,3.948217e-005
1.809652e-004,5.244739e-005
1.584381e-004,7.416414e-005
1.338042e-004,1.002567e-004
1.116012e-004,1.216493e-004
9.377405e-005,1.281319e-004
7.902610e-005,1.195424e-004
7.221937e-005,1.047945e-004
7.918817e-005,9.004655e-005
1.023635e-004,7.951231e-005
1.436902e-004,7.578480e-005
1.984682e-004,7.238143e-005
2.561635e-004,6.087479e-005
3.064038e-004,3.834771e-005
3.389789e-004,1.031041e-005
3.474063e-004,-7.030578e-006
3.268240e-004,-2.238345e-007
2.748010e-004,2.959618e-005
1.984682e-004,6.784360e-005
1.193804e-004,9.588090e-005
6.768153e-005,1.020394e-004
6.281957e-005,8.648111e-005
9.782569e-005,5.747142e-005
1.564933e-004,2.732727e-005
2.234263e-004,4.962256e-006
2.854973e-004,-6.382316e-006
3.381686e-004,-9.137427e-006
3.765781e-004,-1.010982e-005
3.994293e-004,-1.075808e-005
4.026706e-004,-1.075808e-005
3.804677e-004,-8.002969e-006
3.352514e-004,-3.303075e-006
2.723700e-004,1.234753e-006
2.041405e-004,-1.682422e-006
1.338042e-004,-1.545797e-005
5.325772e-005,-3.928157e-005
-4.754691e-005,-6.780506e-005
-1.647201e-004,-9.584237e-005
-2.804347e-004,-1.186936e-004
-3.648708e-004,-1.327932e-004
-3.943666e-004,-1.350622e-004
-3.637363e-004,-1.222590e-004
-2.846484e-004,-9.616650e-005
-1.833576e-004,-6.132245e-005
-9.503204e-005,-2.356124e-005
-4.819516e-005,8.041497e-006
-4.949169e-005,3.073064e-005
-9.146661e-005,4.207521e-005
-1.630995e-004,4.450619e-005
-2.480217e-004,4.466826e-005
-3.348887e-004,4.790957e-005
-4.285624e-004,5.957827e-005
-5.384427e-004,8.842590e-005
-6.588572e-004,1.404489e-004
-7.757063e-004,2.094887e-004
-8.703523e-004,2.746390e-004
-9.241580e-004,3.138588e-004
-9.196202e-004,3.107795e-004
-8.546320e-004,2.626462e-004
-7.360002e-004,1.783722e-004
-5.728005e-004,7.902610e-005
-3.757291e-004,-7.840905e-006
-1.546721e-004,-6.586029e-005
8.648111e-005,-8.952182e-005
3.405996e-004,-8.935975e-005
5.956905e-004,-8.222889e-005
8.240407e-004,-7.866345e-005
9.874026e-004,-8.239095e-005
1.061143e-003,-8.709084e-005
1.047367e-003,-8.514606e-005
9.747616e-004,-7.526008e-005
8.883807e-004,-6.035006e-005
8.230683e-004,-4.576419e-005
7.780141e-004,-3.522994e-005
7.342565e-004,-2.890940e-005
6.835299e-004,-2.129233e-005
6.326414e-004,-8.489165e-006
5.963388e-004,9.013888e-006
5.697600e-004,2.619281e-005
5.405883e-004,3.737532e-005
4.987753e-004,4.369587e-005
4.443214e-004,4.839576e-005
3.871123e-004,5.196120e-005
3.378445e-004,5.423011e-005
3.013797e-004,5.374392e-005
2.739907e-004,5.050261e-005
2.495188e-004,4.272347e-005
2.200230e-004,3.591673e-005
1.819376e-004,3.494434e-005
1.352628e-004,4.110282e-005
7.837785e-005,5.666109e-005
1.160693e-005,7.853991e-005
-6.926366e-005,9.960840e-005
-1.592099e-004,1.143563e-004
-2.428356e-004,1.226217e-004
-3.079858e-004,1.222975e-004
-3.548227e-004,1.141943e-004
-3.872357e-004,1.031738e-004
-4.039285e-004,9.474644e-005
-4.021458e-004,9.134307e-005
-3.867496e-004,9.053274e-005
-3.694086e-004,8.599491e-005
-3.562813e-004,7.448828e-005
-3.502849e-004,5.811968e-005
-3.455850e-004,3.899597e-005
-3.284061e-004,2.149292e-005
-2.917793e-004,8.851824e-006
-2.392702e-004,6.096713e-006
-1.849783e-004,1.079661e-005
-1.467309e-004,2.311357e-005
-1.295519e-004,3.818564e-005
-1.267968e-004,4.985435e-005
-1.285796e-004,5.228533e-005
-1.300381e-004,4.693717e-005
-1.349001e-004,3.834771e-005
-1.423551e-004,2.878586e-005
-1.519170e-004,2.214118e-005
-1.605064e-004,2.068259e-005
-1.660166e-004,2.408596e-005
-1.656925e-004,3.186510e-005
-1.613168e-004,4.045456e-005
-1.571030e-004,4.742337e-005
-1.519170e-004,4.871989e-005
-1.408965e-004,4.466826e-005
-1.193418e-004,3.688912e-005
-9.065627e-005,2.797553e-005
-6.472583e-005,1.646889e-005
-4.641245e-005,-3.627206e-006
-3.344722e-005,-3.604027e-005
-2.194059e-005,-7.104637e-005
-6.544382e-006,-9.486997e-005
1.160693e-005,-9.778715e-005
2.765140e-005,-8.336334e-005
3.364782e-005,-6.067420e-005
1.776542e-005,-3.911951e-005
-2.777494e-005,-2.664048e-005
-9.811128e-005,-2.129233e-005
-1.789819e-004,-1.724069e-005
-2.485079e-004,-8.002969e-006
-2.799485e-004,9.824214e-006
-2.626076e-004,3.186510e-005
-2.083157e-004,4.839576e-005
-1.400862e-004,5.795762e-005
-7.914964e-005,6.119892e-005
-3.101624e-005,6.330577e-005
1.144487e-005,6.492643e-005
5.828174e-005,6.638501e-005
1.112771e-004,7.140904e-005
1.692965e-004,7.951231e-005
2.250470e-004,8.842590e-005
2.631323e-004,9.636710e-005
2.673460e-004,1.010670e-004
2.323399e-004,1.017153e-004
1.733481e-004,9.733949e-005
1.184080e-004,8.761556e-005
8.777764e-005,7.724339e-005
9.004655e-005,6.930219e-005
1.232699e-004,6.670914e-005
1.778859e-004,6.995045e-005
2.368777e-004,8.372600e-005
2.856594e-004,1.117633e-004
3.174242e-004,1.477418e-004
3.355755e-004,1.788584e-004
3.440029e-004,1.968476e-004
3.443271e-004,2.017096e-004
3.302274e-004,1.942546e-004
3.010556e-004,1.783722e-004
2.584324e-004,1.576278e-004
2.085163e-004,1.310491e-004
1.623277e-004,9.361198e-005
1.260251e-004,4.337174e-005
1.004187e-004,-1.659243e-005
8.129502e-005,-7.428768e-005
7.286762e-005,-1.157764e-004
7.708132e-005,-1.326312e-004
9.199134e-005,-1.261486e-004
1.187321e-004,-9.989400e-005
1.560071e-004,-6.602235e-005
1.991165e-004,-3.393342e-005
2.355812e-004,-1.302699e-005
2.503292e-004,-3.141010e-006
2.341226e-004,-1.844488e-006
1.921477e-004,-4.275467e-006
1.414213e-004,-1.205460e-005
9.150514e-005,-2.664048e-005
4.369587e-005,-4.527799e-005
-2.816880e-006,-6.342930e-005
-4.738484e-005,-7.720485e-005
-9.357345e-005,-8.141856e-005
-1.433275e-004,-7.007398e-005
-1.935677e-004,-4.365734e-005
-2.370012e-004,-7.840905e-006
-2.729797e-004,2.651694e-005
-3.039342e-004,5.066468e-005
-3.300267e-004,6.022653e-005
-3.476918e-004,5.828174e-005
-3.532020e-004,5.277152e-005
-3.449367e-004,5.487837e-005
-3.228959e-004,6.622294e-005
-2.916172e-004,8.259154e-005
-2.540181e-004,1.012291e-004
-2.152845e-004,1.169494e-004
-1.697441e-004,1.239182e-004
-1.068628e-004,1.213252e-004
-2.242678e-005,1.109530e-004
7.951231e-005,9.766362e-005
1.897167e-004,8.826383e-005
2.936006e-004,8.615698e-005
3.734988e-004,8.340186e-005
4.179047e-004,7.270556e-005
4.279528e-004,4.904402e-005
4.174185e-004,1.825161e-005
4.023465e-004,-1.075808e-005
3.961880e-004,-2.988179e-005
4.042912e-004,-3.458168e-005
4.204978e-004,-2.437157e-005
4.349216e-004,-2.816880e-006
4.337872e-004,2.716520e-005
4.063981e-004,6.427816e-005
3.564820e-004,1.051186e-004
2.932765e-004,1.396385e-004
2.234263e-004,1.582760e-004
1.526038e-004,1.624898e-004
9.037068e-005,1.602208e-004
4.807163e-005,1.569795e-004
2.586868e-005,1.517934e-004
1.112074e-005,1.435281e-004
-1.043395e-005,1.336421e-004
-5.095028e-005,1.214872e-004
-1.212866e-004,1.041462e-004
-2.238740e-004,8.194328e-005
-3.462333e-004,6.119892e-005
-4.603272e-004,4.855782e-005
-5.454115e-004,4.985435e-005
-5.980827e-004,6.136099e-005
-6.288751e-004,7.286762e-005
-6.564262e-004,7.157111e-005
-6.966184e-004,5.179913e-005
-7.564205e-004,1.533444e-005
-8.283774e-004,-2.550602e-005
-8.904485e-004,-5.759496e-005
-9.128135e-004,-6.569822e-005
-8.679213e-004,-5.013995e-005
-7.407001e-004,-2.307504e-005
-5.368220e-004,-2.238345e-007
-2.919414e-004,7.879431e-006
-5.127441e-005,3.341602e-006
1.534141e-004,-6.220251e-006
3.161277e-004,-1.432352e-005
4.465903e-004,-1.788895e-005
5.576051e-004,-1.497178e-005
6.608408e-004,-3.789271e-006
7.695867e-004,1.501031e-005
8.867600e-004,3.624086e-005
9.925888e-004,5.714729e-005
1.060818e-003,7.335382e-005
1.080590e-003,8.145709e-005
1.054822e-003,7.772959e-005
9.922647e-004,6.589881e-005
9.029665e-004,5.001641e-005
7.963275e-004,3.283749e-005
6.775335e-004,1.760335e-005
5.569568e-004,8.689757e-006
4.430249e-004,6.096713e-006
3.409237e-004,2.531276e-006
2.530843e-004,-7.840905e-006
1.829100e-004,-2.275091e-005
1.292664e-004,-4.025397e-005
8.178122e-005,-5.402952e-005
3.624086e-005,-5.597430e-005
-4.437533e-006,-4.462973e-005
-3.279896e-005,-2.550602e-005
-4.932962e-005,-6.058186e-006
-6.083626e-005,7.231170e-006
-7.542214e-005,1.047248e-005
-9.389758e-005,7.555300e-006
-1.094559e-004,4.151929e-006
-1.105903e-004,7.717366e-006
-8.952182e-005,1.922400e-005
-5.289506e-005,3.543053e-005
-1.367526e-005,5.034054e-005
1.695509e-005,6.006446e-005
3.056858e-005,6.087479e-005
2.149292e-005,5.487837e-005
-8.813297e-006,4.742337e-005
-5.840528e-005,4.499239e-005
-1.264727e-004,4.871989e-005
-2.019951e-004,5.487837e-005
-2.632558e-004,6.055066e-005
-2.948585e-004,6.557468e-005
-2.998826e-004,6.703327e-005
-3.049066e-004,6.055066e-005
-3.368334e-004,4.434413e-005
-4.029561e-004,2.359977e-005
-4.847991e-004,5.124321e-006
-5.561078e-004,-9.461557e-006
-5.881967e-004,-1.788895e-005
-5.635628e-004,-2.177852e-005
-4.758855e-004,-2.242678e-005
-3.355369e-004,-1.999580e-005
-1.681235e-004,-1.480971e-005
-1.043395e-005,-5.409925e-006
9.717742e-005,6.582909e-006
1.373696e-004,1.695509e-005
1.135460e-004,2.376183e-005
4.256141e-005,2.781346e-005
-4.706071e-005,2.992031e-005
-1.245279e-004,3.073064e-005
-1.721751e-004,3.024445e-005
-1.870851e-004,2.748933e-005
-1.757406e-004,2.246531e-005
-1.502963e-004,2.149292e-005
-1.258244e-004,2.878586e-005
-1.060525e-004,4.061663e-005
-8.676671e-005,5.423011e-005
-7.007398e-005,6.881599e-005
-6.213279e-005,8.405013e-005
-6.132245e-005,9.750155e-005
-5.743289e-005,1.059289e-004
-4.398147e-005,1.083599e-004
-1.983374e-005,1.047945e-004
1.484824e-005,9.377405e-005
5.876794e-005,7.157111e-005
1.128978e-004,4.094075e-005
1.765894e-004,7.717366e-006
2.435224e-004,-1.772689e-005
3.036486e-004,-2.307504e-005
3.386548e-004,4.476060e-006
3.324963e-004,6.654707e-005
2.851732e-004,1.469315e-004
2.109473e-004,2.200230e-004
1.329939e-004,2.607013e-004
7.302969e-005,2.569738e-004
4.547859e-005,2.154851e-004
5.212327e-005,1.576278e-004
8.388807e-005,1.033359e-004
1.252147e-004,6.395403e-005
1.573037e-004,4.531652e-005
1.691344e-004,4.645098e-005
1.688103e-004,5.649903e-005
1.720516e-004,5.941620e-005
1.817755e-004,4.677511e-005
1.971717e-004,2.457216e-005
2.153230e-004,1.128280e-005
2.367157e-004,2.878586e-005
2.673460e-004,7.740545e-005
3.060797e-004,1.334801e-004
3.446512e-004,1.702689e-004
3.717161e-004,1.743205e-004
3.812780e-004,1.540623e-004
3.746333e-004,1.273216e-004
3.525924e-004,1.020394e-004
3.109416e-004,7.951231e-005
2.485465e-004,5.585077e-005
1.788584e-004,2.684107e-005
1.252147e-004,-7.030578e-006
1.088461e-004,-3.636440e-005
1.279698e-004,-5.613637e-005
1.603829e-004,-6.634648e-005
1.879340e-004,-6.893953e-005
2.012234e-004,-6.099833e-005
2.015475e-004,-4.333321e-005
1.960373e-004,-2.404744e-005
1.855030e-004,-1.318906e-005
1.641104e-004,-1.448558e-005
1.308870e-004,-2.242678e-005
9.474644e-005,-3.150244e-005
6.168512e-005,-4.187462e-005
3.494434e-005,-5.905355e-005
1.663096e-005,-8.887356e-005
9.986280e-006,-1.295519e-004
1.387585e-005,-1.762267e-004
2.181705e-005,-2.251705e-004
3.186510e-005,-2.658489e-004
4.158902e-005,-2.874036e-004
5.066468e-005,-2.820554e-004
6.362990e-005,-2.527216e-004
7.789165e-005,-2.102605e-004
9.101894e-005,-1.593720e-004
9.798775e-005,-1.013526e-004
9.134307e-005,-4.284701e-005
6.573675e-005,1.160693e-005
2.133085e-005,6.136099e-005
-3.960571e-005,1.124116e-004
-1.075111e-004,1.598967e-004
-1.690959e-004,1.968476e-004
-2.188499e-004,2.175920e-004
-2.511009e-004,2.219677e-004
-2.630937e-004,2.115955e-004
-2.624455e-004,1.916615e-004
-2.608248e-004,1.667035e-004
-2.647144e-004,1.410971e-004
-2.677937e-004,1.200286e-004
-2.588801e-004,1.025256e-004
-2.306807e-004,8.307774e-005
-1.916230e-004,6.119892e-005
-1.520790e-004,3.883391e-005
-1.204763e-004,1.841368e-005
-9.859748e-005,1.720949e-006
-8.790116e-005,-1.140634e-005
-8.401160e-005,-2.469570e-005
-8.741497e-005,-4.057810e-005
-9.697682e-005,-5.451571e-005
-1.062145e-004,-5.889147e-005
-1.097800e-004,-4.787104e-005
-1.016767e-004,-2.194059e-005
-7.833932e-005,1.549650e-005
-4.365734e-005,5.325772e-005
-2.492749e-006,8.453633e-005
3.802358e-005,1.056048e-004
7.432621e-005,1.195424e-004
1.091703e-004,1.281319e-004
1.488763e-004,1.304008e-004
1.987924e-004,1.231079e-004
2.530843e-004,1.049566e-004
2.932765e-004,8.032263e-005
3.004074e-004,5.876794e-005
2.655633e-004,5.228533e-005
1.932822e-004,6.573675e-005
9.539470e-005,9.393611e-005
-7.030578e-006,1.305629e-004
-9.762508e-005,1.655690e-004
-1.629374e-004,1.914994e-004
-1.955125e-004,2.028440e-004
-1.987538e-004,1.976579e-004
-1.841679e-004,1.790204e-004
-1.614788e-004,1.555209e-004
-1.339277e-004,1.359110e-004
-1.047560e-004,1.234320e-004
-7.769105e-005,1.166253e-004
-5.727082e-005,1.119254e-004
-4.057810e-005,1.056048e-004
-2.647842e-005,9.166720e-005
-1.675450e-005,6.606088e-005
