-4.873921e-004,6.703327e-005
-4.642168e-004,8.064676e-005
-4.360174e-004,8.599491e-005
-4.023078e-004,8.664317e-005
-3.681121e-004,9.247753e-005
-3.381300e-004,1.098185e-004
-3.180339e-004,1.409351e-004
-3.136581e-004,1.782101e-004
-3.219235e-004,2.106232e-004
-3.360231e-004,2.299089e-004
-3.499608e-004,2.336364e-004
-3.603329e-004,2.253711e-004
-3.638984e-004,2.112714e-004
-3.604950e-004,1.921477e-004
-3.481780e-004,1.660552e-004
-3.246786e-004,1.339663e-004
-2.921034e-004,1.047945e-004
-2.559629e-004,8.696730e-005
-2.240360e-004,8.145709e-005
-2.010227e-004,8.729143e-005
-1.882196e-004,1.015532e-004
-1.797922e-004,1.257009e-004
-1.733096e-004,1.548727e-004
-1.630995e-004,1.772377e-004
-1.462447e-004,1.884202e-004
-1.263107e-004,1.902029e-004
-1.101041e-004,1.885823e-004
-9.697682e-005,1.882581e-004
-8.077029e-005,1.910132e-004
-5.402952e-005,1.996027e-004
-1.416145e-005,2.184023e-004
3.607880e-005,2.477361e-004
8.939829e-005,2.864697e-004
1.432040e-004,3.269861e-004
1.957131e-004,3.548613e-004
2.449810e-004,3.616681e-004
2.832284e-004,3.433547e-004
3.012177e-004,3.117519e-004
3.077003e-004,2.829043e-004
3.111037e-004,2.673460e-004
3.135346e-004,2.652392e-004
3.198552e-004,2.718839e-004
3.276343e-004,2.807975e-004
3.287688e-004,2.893869e-004
3.161277e-004,2.979764e-004
2.843629e-004,3.070520e-004
2.337985e-004,3.122381e-004
1.731861e-004,3.098072e-004
1.109530e-004,3.021901e-004
5.504044e-005,2.926282e-004
1.112074e-005,2.782044e-004
-2.064406e-005,2.529222e-004
-4.398147e-005,2.164575e-004
-5.483985e-005,1.741585e-004
-4.819516e-005,1.271595e-004
-2.323711e-005,7.902610e-005
1.549650e-005,3.575467e-005
5.341978e-005,3.827798e-006
7.173317e-005,-1.108221e-005
6.557468e-005,-7.354708e-006
4.239934e-005,1.883015e-006
1.679302e-005,-4.599598e-006
4.244267e-007,-4.706071e-005
-4.437533e-006,-1.546721e-004
4.800190e-006,-3.569296e-004
2.473422e-005,-6.407059e-004
5.228533e-005,-9.366371e-004
8.729143e-005,-1.161422e-003
1.248906e-004,-1.258823e-003
1.586002e-004,-1.201290e-003
1.783722e-004,-9.941702e-004
1.848548e-004,-6.737671e-004
1.897167e-004,-3.036101e-004
1.983062e-004,4.953022e-005
2.137024e-004,3.386548e-004
2.346088e-004,5.506363e-004
2.545429e-004,6.974676e-004
2.618358e-004,7.950310e-004
2.501671e-004,8.517539e-004
2.227780e-004,8.752534e-004
1.914994e-004,8.747672e-004
1.564933e-004,8.496470e-004
1.099806e-004,7.870898e-004
5.001641e-005,6.666752e-004
-1.934754e-005,4.950479e-004
-9.227693e-005,3.047831e-004
-1.564548e-004,1.383420e-004
-1.951884e-004,3.235129e-005
-2.055606e-004,1.079661e-005
-1.948643e-004,7.627100e-005
-1.776853e-004,2.237504e-004
-1.660166e-004,4.308700e-004
-1.611547e-004,6.648924e-004
-1.608306e-004,8.909737e-004
-1.605064e-004,1.095825e-003
-1.601823e-004,1.281714e-003
-1.593720e-004,1.444914e-003
-1.587237e-004,1.570515e-003
-1.618029e-004,1.639068e-003
-1.699062e-004,1.633234e-003
-1.809267e-004,1.538426e-003
-1.877334e-004,1.347675e-003
-1.797922e-004,1.069408e-003
-1.554824e-004,7.285841e-004
-1.092938e-004,3.597233e-004
-4.284701e-005,3.665733e-006
2.992031e-005,-2.998826e-004
8.875003e-005,-5.196431e-004
1.175977e-004,-6.454058e-004
1.078737e-004,-6.847876e-004
6.557468e-005,-6.562641e-004
6.096713e-006,-5.901415e-004
-5.338126e-005,-5.141328e-004
-1.007043e-004,-4.567618e-004
-1.272830e-004,-4.437965e-004
-1.289037e-004,-4.830163e-004
-1.102662e-004,-5.574043e-004
-8.174268e-005,-6.348715e-004
-4.851930e-005,-6.870566e-004
-8.002969e-006,-7.000217e-004
3.737532e-005,-6.779809e-004
7.805372e-005,-6.384369e-004
1.004187e-004,-5.980827e-004
1.009049e-004,-5.638869e-004
8.340186e-005,-5.358497e-004
5.471631e-005,-5.095950e-004
2.052053e-005,-4.903093e-004
-1.286493e-005,-4.807474e-004
-4.284701e-005,-4.791268e-004
-7.039811e-005,-4.835025e-004
-9.794922e-005,-4.937127e-004
-1.180453e-004,-5.133225e-004
-1.177212e-004,-5.450873e-004
-8.611845e-005,-5.870622e-004
-1.075808e-005,-6.306578e-004
1.166253e-004,-6.578848e-004
2.874421e-004,-6.531849e-004
4.691174e-004,-6.116962e-004
6.154625e-004,-5.423322e-004
6.872574e-004,-4.629203e-004
6.822334e-004,-3.911253e-004
6.305345e-004,-3.344025e-004
5.741358e-004,-2.930758e-004
5.352401e-004,-2.619593e-004
5.214645e-004,-2.363530e-004
5.457744e-004,-2.190120e-004
6.114109e-004,-2.109087e-004
7.010330e-004,-2.089639e-004
7.880622e-004,-2.078295e-004
8.540228e-004,-2.005366e-004
8.895152e-004,-1.835197e-004
8.968081e-004,-1.590478e-004
8.801153e-004,-1.313347e-004
8.399231e-004,-1.054042e-004
7.802830e-004,-8.741497e-005
7.125397e-004,-7.477388e-005
6.452825e-004,-6.148453e-005
5.734875e-004,-4.835723e-005
4.866205e-004,-3.571614e-005
3.793332e-004,-2.258885e-005
2.594048e-004,-9.137427e-006
1.388282e-004,2.855406e-006
2.408596e-005,1.014835e-005
-7.671866e-005,9.824214e-006
-1.543479e-004,9.500084e-006
-2.053985e-004,1.306552e-005
-2.405667e-004,2.359977e-005
-2.763831e-004,3.753739e-005
-3.186821e-004,5.115087e-005
-3.681121e-004,5.471631e-005
-4.217557e-004,4.709924e-005
-4.771820e-004,4.045456e-005
-5.259637e-004,4.758544e-005
-5.590249e-004,7.059870e-005
-5.732867e-004,1.030118e-004
-5.689110e-004,1.310491e-004
-5.493010e-004,1.430419e-004
-5.266119e-004,1.133840e-004
-5.078123e-004,-8.002969e-006
-4.904713e-004,-2.498044e-004
-4.700511e-004,-5.650214e-004
-4.437965e-004,-8.557665e-004
-4.193247e-004,-1.025125e-003
-3.989045e-004,-1.021073e-003
-3.830221e-004,-8.449081e-004
-3.653569e-004,-5.954896e-004
-3.442885e-004,-4.687546e-004
-3.246786e-004,-6.123444e-004
-3.052307e-004,-1.016211e-003
-2.849726e-004,-1.518614e-003
-2.606628e-004,-1.958621e-003
-2.335979e-004,-2.313545e-003
-2.096122e-004,-2.635082e-003
-1.848162e-004,-2.911242e-003
-1.491618e-004,-3.027119e-003
-9.989400e-005,-2.828751e-003
-4.835723e-005,-2.206743e-003
-9.623623e-006,-1.171308e-003
2.207145e-006,1.456350e-004
-1.529591e-005,1.517519e-003
-5.483985e-005,2.760241e-003
-9.908367e-005,3.792930e-003
-1.402483e-004,4.606994e-003
-1.827094e-004,4.958519e-003
-2.339220e-004,4.958519e-003
-2.925896e-004,4.958519e-003
-3.334301e-004,4.958681e-003
-3.391023e-004,4.958843e-003
-3.068514e-004,4.958519e-003
-2.472113e-004,4.958681e-003
-1.838438e-004,4.958681e-003
-1.378173e-004,4.958519e-003
-1.149661e-004,4.601645e-003
-1.104282e-004,4.108799e-003
-1.196660e-004,3.599908e-003
-1.358725e-004,3.079512e-003
-1.532135e-004,2.558307e-003
-1.616409e-004,2.045206e-003
-1.566169e-004,1.532267e-003
-1.418689e-004,1.002961e-003
-1.186936e-004,4.529109e-004
-8.368747e-005,-1.020008e-004
-3.085418e-005,-6.324405e-004
3.834771e-005,-1.109074e-003
1.242423e-004,-1.514400e-003
2.235884e-004,-1.850848e-003
3.234207e-004,-2.141431e-003
4.028327e-004,-2.406246e-003
4.480489e-004,-2.643186e-003
4.548556e-004,-2.821134e-003
4.308700e-004,-2.904436e-003
3.901916e-004,-2.871861e-003
3.459477e-004,-2.730863e-003
3.042969e-004,-2.517099e-003
2.645909e-004,-2.282104e-003
2.255332e-004,-2.071905e-003
1.919856e-004,-1.910812e-003
1.688103e-004,-1.797204e-003
1.579519e-004,-1.714064e-003
1.550348e-004,-1.646159e-003
1.539003e-004,-1.586195e-003
1.464453e-004,-1.530931e-003
1.297525e-004,-1.476801e-003
1.065772e-004,-1.422671e-003
7.870197e-005,-1.371134e-003
4.693717e-005,-1.320408e-003
1.095867e-005,-1.267250e-003
-2.761287e-005,-1.211986e-003
-6.051213e-005,-1.155911e-003
-8.239095e-005,-1.099026e-003
-8.644258e-005,-1.042466e-003
-7.137050e-005,-9.925496e-004
-4.138842e-005,-9.494402e-004
-1.196226e-006,-9.110307e-004
4.790957e-005,-8.735937e-004
1.026876e-004,-8.317808e-004
1.613553e-004,-7.841336e-004
2.235884e-004,-7.347037e-004
2.854973e-004,-6.859221e-004
3.388168e-004,-6.379507e-004
3.684748e-004,-5.914380e-004
3.720402e-004,-5.480045e-004
3.553475e-004,-5.050572e-004
3.276343e-004,-4.575721e-004
2.978143e-004,-4.036044e-004
2.777182e-004,-3.447747e-004
2.684805e-004,-2.872415e-004
2.649151e-004,-2.378116e-004
2.610255e-004,-1.982676e-004
2.610255e-004,-1.650442e-004
2.671840e-004,-1.332795e-004
2.822560e-004,-1.020008e-004
3.004074e-004,-6.974985e-005
3.099692e-004,-3.701266e-005
3.041349e-004,-1.464765e-005
2.819319e-004,-2.809907e-005
2.501671e-004,-1.318209e-004
2.226160e-004,-3.927460e-004
2.036543e-004,-8.381014e-004
1.983062e-004,-1.411164e-003
2.154851e-004,-1.976286e-003
2.597290e-004,-2.371888e-003
3.214759e-004,-2.484848e-003
3.788470e-004,-2.301389e-003
4.096394e-004,-1.915188e-003
4.026706e-004,-1.476152e-003
3.556717e-004,-1.094975e-003
2.705873e-004,-7.782993e-004
1.563313e-004,-4.549791e-004
2.732727e-005,-4.576419e-005
-9.373551e-005,4.673347e-004
-1.958366e-004,1.029216e-003
-2.749245e-004,1.557874e-003
-3.274337e-004,1.999827e-003
-3.507711e-004,2.357507e-003
-3.455850e-004,2.680180e-003
-3.206269e-004,3.016144e-003
-2.865932e-004,3.360373e-003
-2.485079e-004,3.650311e-003
-2.100984e-004,3.808812e-003
-1.734716e-004,3.789851e-003
-1.374931e-004,3.587915e-003
-1.018388e-004,3.226830e-003
-7.088431e-005,2.770127e-003
-5.338126e-005,2.297380e-003
-5.629843e-005,1.850078e-003
-8.012203e-005,1.426114e-003
-1.173971e-004,1.006688e-003
-1.545100e-004,5.879113e-004
-1.807646e-004,1.586002e-004
-1.865989e-004,-3.429920e-004
-1.707165e-004,-9.737500e-004
-1.413827e-004,-1.682137e-003
-1.112386e-004,-2.294421e-003
-9.179074e-005,-2.588246e-003
-8.822530e-005,-2.387609e-003
-9.778715e-005,-1.640325e-003
-1.152902e-004,-4.509274e-004
-1.412206e-004,9.423485e-004
-1.747682e-004,2.277122e-003
-2.037778e-004,3.436869e-003
-2.088019e-004,4.383179e-003
-1.780095e-004,4.958519e-003
-1.144799e-004,4.958519e-003
-3.198863e-005,4.958519e-003
4.774750e-005,4.958681e-003
1.067393e-004,4.351899e-003
1.440143e-004,3.358266e-003
1.649207e-004,2.266587e-003
1.756170e-004,1.223856e-003
1.783722e-004,3.480546e-004
1.702689e-004,-3.000446e-004
1.479039e-004,-7.325968e-004
1.109530e-004,-1.016859e-003
6.314371e-005,-1.234999e-003
1.517237e-005,-1.441633e-003
-2.696461e-005,-1.638380e-003
-5.613637e-005,-1.790235e-003
-6.650855e-005,-1.867540e-003
-5.808115e-005,-1.872078e-003
-4.155049e-005,-1.834641e-003
-3.069211e-005,-1.789749e-003
-3.522994e-005,-1.761387e-003
-6.035006e-005,-1.757822e-003
-1.021629e-004,-1.775163e-003
-1.434896e-004,-1.805307e-003
-1.580754e-004,-1.836586e-003
-1.269589e-004,-1.850037e-003
-5.095028e-005,-1.827348e-003
5.471631e-005,-1.761063e-003
1.644345e-004,-1.659286e-003
2.397949e-004,-1.539844e-003
2.521119e-004,-1.421861e-003
2.004130e-004,-1.314897e-003
1.148425e-004,-1.221710e-003
4.304760e-005,-1.144405e-003
2.035846e-005,-1.083792e-003
6.395403e-005,-1.033714e-003
1.712413e-004,-9.860670e-004
3.185587e-004,-9.340440e-004
4.647416e-004,-8.765109e-004
5.723531e-004,-8.155743e-004
6.128695e-004,-7.530171e-004
5.783495e-004,-6.901358e-004
4.830550e-004,-6.306578e-004
3.576164e-004,-5.775004e-004
2.290986e-004,-5.292050e-004
1.206769e-004,-4.869059e-004
4.158902e-005,-4.499550e-004
-6.544382e-006,-4.164075e-004
-2.777494e-005,-3.838324e-004
-2.842320e-005,-3.497987e-004
-2.015787e-005,-3.131719e-004
-1.594417e-005,-2.729797e-004
-2.501983e-005,-2.306807e-004
-4.965375e-005,-1.877334e-004
-8.741497e-005,-1.468929e-004
-1.376552e-004,-1.110765e-004
-1.942160e-004,-8.028410e-005
-2.438080e-004,-5.289506e-005
-2.692523e-004,-2.566809e-005
-2.600145e-004,2.855406e-006
-2.191741e-004,3.121684e-005
-1.562927e-004,5.811968e-005
-8.384953e-005,8.502253e-005
-1.010982e-005,1.111150e-004
5.876794e-005,1.328318e-004
1.133840e-004,1.477418e-004
1.548727e-004,1.587622e-004
1.876099e-004,1.694586e-004
2.051129e-004,1.809652e-004
1.983062e-004,1.910132e-004
1.623277e-004,1.984682e-004
1.049566e-004,2.028440e-004
4.871989e-005,2.055991e-004
1.176900e-005,2.106232e-004
-5.247859e-006,2.213195e-004
-1.448558e-005,2.346088e-004
-2.388537e-005,2.488706e-004
-3.474375e-005,2.671840e-004
-4.787104e-005,2.903593e-004
-5.986387e-005,3.130485e-004
-6.278104e-005,3.334687e-004
-5.143647e-005,3.477304e-004
-2.809907e-005,3.512959e-004
-3.141010e-006,3.433547e-004
1.403791e-005,3.256896e-004
1.906194e-005,3.039728e-004
1.533444e-005,2.871180e-004
1.112074e-005,2.816078e-004
1.468617e-005,2.882525e-004
2.100672e-005,3.013797e-004
1.484824e-005,3.135346e-004
-8.813297e-006,3.089968e-004
-4.689864e-005,2.553532e-004
-8.449779e-005,1.406109e-004
-1.099420e-004,-5.085794e-006
-1.190177e-004,-1.310105e-004
-1.195039e-004,-1.887058e-004
-1.175591e-004,-1.504584e-004
-1.138316e-004,-2.420950e-005
-1.024870e-004,1.551968e-004
-8.530812e-005,3.483787e-004
-6.974985e-005,5.310263e-004
-6.148453e-005,6.880678e-004
-5.791909e-005,8.178822e-004
-5.597430e-005,9.220903e-004
-5.338126e-005,1.007661e-003
-4.803310e-005,1.077835e-003
-3.749886e-005,1.121593e-003
-1.999580e-005,1.124186e-003
1.720949e-006,1.077187e-003
2.424803e-005,9.882130e-004
4.126489e-005,8.705535e-004
5.633696e-005,7.428459e-004
7.529860e-005,6.212968e-004
9.977046e-005,5.183853e-004
1.258630e-004,4.399456e-004
1.451487e-004,3.817642e-004
1.543865e-004,3.344411e-004
1.550348e-004,2.908455e-004
1.506590e-004,2.475740e-004
1.456350e-004,2.057612e-004
1.355869e-004,1.663793e-004
1.138701e-004,1.326697e-004
8.048469e-005,1.038221e-004
4.742337e-005,7.513654e-005
2.603075e-005,4.239934e-005
2.667901e-005,6.258778e-006
4.888196e-005,-3.263690e-005
8.502253e-005,-7.639453e-005
1.299146e-004,-1.280934e-004
1.743205e-004,-1.974573e-004
2.039785e-004,-3.071755e-004
2.070577e-004,-4.807474e-004
1.837203e-004,-7.541516e-004
1.438522e-004,-1.157208e-003
1.031738e-004,-1.667876e-003
7.999850e-005,-2.205933e-003
8.437427e-005,-2.700395e-003
1.127357e-004,-3.130842e-003
1.524417e-004,-3.478149e-003
1.812893e-004,-3.674411e-003
1.822617e-004,-3.639891e-003
1.513072e-004,-3.317055e-003
9.620503e-005,-2.697802e-003
3.348575e-005,-1.837072e-003
-2.064406e-005,-8.345360e-004
-5.824321e-005,2.060853e-004
-8.790116e-005,1.203436e-003
-1.217728e-004,2.147631e-003
-1.616409e-004,3.062171e-003
-1.976194e-004,3.946407e-003
-2.172293e-004,4.760310e-003
-2.110708e-004,4.958681e-003
-1.801163e-004,4.958681e-003
-1.326312e-004,4.958681e-003
-8.044616e-005,4.958681e-003
-3.344722e-005,4.958681e-003
7.485573e-007,4.958681e-003
1.938607e-005,4.380909e-003
2.554455e-005,3.680617e-003
2.570661e-005,3.014361e-003
2.927205e-005,2.383923e-003
3.948217e-005,1.774231e-003
5.163707e-005,1.182205e-003
6.265751e-005,6.255105e-004
6.751947e-005,1.269974e-004
6.055066e-005,-2.977757e-004
3.769945e-005,-6.530228e-004
1.234753e-006,-9.565711e-004
-3.992984e-005,-1.218631e-003
-6.845333e-005,-1.434826e-003
-7.931171e-005,-1.598350e-003
-7.201877e-005,-1.717144e-003
-4.625038e-005,-1.822162e-003
-5.734055e-006,-1.960404e-003
4.515445e-005,-2.148886e-003
9.393611e-005,-2.364109e-003
1.302387e-004,-2.553077e-003
1.501728e-004,-2.660689e-003
1.545486e-004,-2.647238e-003
1.406109e-004,-2.502837e-003
1.119254e-004,-2.250177e-003
7.837785e-005,-1.929773e-003
5.179913e-005,-1.584412e-003
4.369587e-005,-1.248289e-003
5.730935e-005,-9.389059e-004
8.875003e-005,-6.689052e-004
1.318594e-004,-4.540066e-004
1.778859e-004,-2.980999e-004
2.179161e-004,-1.927574e-004
2.430362e-004,-1.233935e-004
2.448189e-004,-7.769105e-005
2.289365e-004,-5.078821e-005
2.072198e-004,-4.738484e-005
1.872858e-004,-7.347736e-005
1.704310e-004,-1.230693e-004
1.576278e-004,-1.778474e-004
1.551968e-004,-2.256567e-004
1.667035e-004,-2.715212e-004
1.927960e-004,-3.238682e-004
2.234263e-004,-3.912874e-004
2.431983e-004,-4.797750e-004
2.451431e-004,-5.945172e-004
2.287745e-004,-7.458862e-004
1.970097e-004,-9.256166e-004
1.584381e-004,-1.108750e-003
1.218114e-004,-1.273895e-003
9.361198e-005,-1.416837e-003
7.189524e-005,-1.548596e-003
5.082674e-005,-1.682462e-003
2.732727e-005,-1.811952e-003
7.485573e-007,-1.911622e-003
-2.372330e-005,-1.975476e-003
-4.203669e-005,-2.081953e-003
-5.451571e-005,-2.338178e-003
-6.618442e-005,-2.757280e-003
-7.931171e-005,-3.216736e-003
-9.308726e-005,-3.527417e-003
-1.013526e-004,-3.533089e-003
-9.730095e-005,-3.188375e-003
-8.012203e-005,-2.579656e-003
-6.051213e-005,-1.866406e-003
-4.868136e-005,-1.170173e-003
-5.078821e-005,-5.117019e-004
-6.164659e-005,1.636242e-004
-7.526008e-005,9.122043e-004
-8.725291e-005,1.750084e-003
-1.008664e-004,2.633343e-003
-1.180453e-004,3.456803e-003
-1.329553e-004,4.108961e-003
-1.391138e-004,4.527581e-003
-1.389517e-004,4.726924e-003
-1.389517e-004,4.785106e-003
-1.501342e-004,4.783648e-003
-1.737958e-004,4.761120e-003
-1.981056e-004,4.703262e-003
-2.084778e-004,4.584142e-003
-1.974573e-004,4.396144e-003
-1.671511e-004,4.140078e-003
-1.279313e-004,3.813188e-003
-9.114247e-005,3.416772e-003
-6.472583e-005,2.957476e-003
-5.435365e-005,2.445022e-003
-5.694669e-005,1.892864e-003
-6.326724e-005,1.309913e-003
-6.521203e-005,7.097846e-004
-6.326724e-005,1.219734e-004
-6.261898e-005,-4.076560e-004
-5.921561e-005,-8.287015e-004
-4.495386e-005,-1.117988e-003
-1.351319e-005,-1.289939e-003
4.288554e-005,-1.381506e-003
1.367214e-004,-1.426236e-003
2.587565e-004,-1.444388e-003
3.778746e-004,-1.442767e-003
4.511281e-004,-1.429478e-003
4.525867e-004,-1.416512e-003
3.885709e-004,-1.407761e-003
2.877662e-004,-1.393661e-003
1.840444e-004,-1.364327e-003
1.000946e-004,-1.313115e-003
3.818564e-005,-1.241644e-003
-5.734055e-006,-1.158018e-003
-2.858526e-005,-1.072934e-003
-2.113026e-005,-9.943324e-004
2.408596e-005,-9.270752e-004
1.028497e-004,-8.724592e-004
1.949028e-004,-8.267568e-004
2.717218e-004,-7.823509e-004
3.127243e-004,-7.364865e-004
3.156415e-004,-6.946736e-004
2.889007e-004,-6.611261e-004
2.462775e-004,-6.364922e-004
1.971717e-004,-6.144513e-004
1.459591e-004,-5.841451e-004
9.782569e-005,-5.428185e-004
6.492643e-005,-4.938747e-004
6.735740e-005,-4.463896e-004
1.116012e-004,-4.060353e-004
1.863134e-004,-3.689224e-004
2.673460e-004,-3.306750e-004
3.290929e-004,-2.945344e-004
3.563199e-004,-2.627696e-004
3.435167e-004,-2.347323e-004
2.945730e-004,-2.057227e-004
2.196988e-004,-1.694200e-004
1.331559e-004,-1.323070e-004
4.499239e-005,-9.924574e-005
-2.955766e-005,-7.104637e-005
-8.239095e-005,-4.625038e-005
-1.091317e-004,-2.226472e-005
-1.120489e-004,2.693341e-006
-9.956987e-005,2.667901e-005
-8.028410e-005,3.397195e-005
-5.905355e-005,-1.237873e-005
-3.571614e-005,-1.261486e-004
-5.896120e-006,-2.758969e-004
2.765140e-005,-4.042526e-004
5.844381e-005,-4.572480e-004
7.691926e-005,-4.110594e-004
8.129502e-005,-2.828657e-004
7.967437e-005,-1.230693e-004
7.643306e-005,-2.453363e-005
7.319175e-005,-9.827335e-005
6.897806e-005,-3.995527e-004
5.876794e-005,-8.617629e-004
4.045456e-005,-1.326404e-003
1.452411e-005,-1.631735e-003
-2.064406e-005,-1.673224e-003
-6.423963e-005,-1.443901e-003
-1.084835e-004,-1.029662e-003
-1.454343e-004,-5.723143e-004
-1.726613e-004,-2.253325e-004
-1.929195e-004,-5.548810e-005
-2.112329e-004,1.160693e-005
-2.222533e-004,1.197045e-004
-2.237119e-004,3.666921e-004
-2.151224e-004,7.439803e-004
-2.003745e-004,1.161785e-003
-1.827094e-004,1.522705e-003
-1.626133e-004,1.782173e-003
-1.410586e-004,1.961417e-003
-1.259865e-004,2.110032e-003
-1.324691e-004,2.267560e-003
-1.750923e-004,2.428492e-003
-2.514251e-004,2.547610e-003
-3.326198e-004,2.558955e-003
-3.844807e-004,2.416013e-003
-3.927460e-004,2.131587e-003
-3.741085e-004,1.777797e-003
-3.548227e-004,1.455772e-003
-3.468815e-004,1.231473e-003
-3.491504e-004,1.123052e-003
-3.517435e-004,1.104414e-003
-3.423437e-004,1.131803e-003
-3.156029e-004,1.162109e-003
-2.720073e-004,1.179288e-003
-2.146362e-004,1.199871e-003
-1.460826e-004,1.254325e-003
-7.234290e-005,1.356912e-003
-1.844488e-006,1.487375e-003
5.811968e-005,1.609897e-003
1.022014e-004,1.694657e-003
1.255388e-004,1.736794e-003
1.274836e-004,1.736956e-003
1.127357e-004,1.680395e-003
8.712937e-005,1.544908e-003
5.374392e-005,1.327578e-003
1.663096e-005,1.045260e-003
-2.356124e-005,7.219394e-004
-6.197072e-005,3.827366e-004
-8.611845e-005,4.061663e-005
-8.952182e-005,-2.914552e-004
-7.137050e-005,-6.055377e-004
-3.279896e-005,-8.925553e-004
2.327564e-005,-1.144567e-003
8.453633e-005,-1.354279e-003
1.401247e-004,-1.514400e-003
1.851789e-004,-1.624604e-003
2.224539e-004,-1.684082e-003
2.629703e-004,-1.701423e-003
3.180725e-004,-1.723626e-003
3.910019e-004,-1.834155e-003
4.733311e-004,-2.093784e-003
5.457744e-004,-2.462969e-003
5.984456e-004,-2.816272e-003
6.287518e-004,-3.016099e-003
6.420412e-004,-2.981093e-003
6.431757e-004,-2.710443e-003
6.300483e-004,-2.272704e-003
5.940698e-004,-1.763170e-003
5.316746e-004,-1.262713e-003
4.587452e-004,-8.063366e-004
4.015361e-004,-3.882081e-004
3.749574e-004,1.144487e-005
3.705817e-004,3.872744e-004
3.649094e-004,7.029778e-004
3.402754e-004,9.199834e-004
2.914938e-004,1.028891e-003
2.218057e-004,1.055794e-003
1.398006e-004,1.033753e-003
6.184718e-005,9.833510e-004
1.193106e-005,9.066940e-004
-5.085794e-006,8.070238e-004
-3.858999e-007,6.960090e-004
1.079661e-005,5.802942e-004
1.841368e-005,4.571246e-004
2.505835e-005,3.193690e-004
3.802358e-005,1.678379e-004
6.022653e-005,1.501031e-005
8.956035e-005,-1.240417e-004
1.201907e-004,-2.399184e-004
1.422316e-004,-3.251648e-004
1.487142e-004,-3.848048e-004
1.370455e-004,-4.408794e-004
1.169494e-004,-5.504355e-004
1.025256e-004,-8.048780e-004
9.896014e-005,-1.248127e-003
1.023635e-004,-1.806766e-003
9.863601e-005,-2.313220e-003
7.789165e-005,-2.589542e-003
4.094075e-005,-2.540598e-003
2.531276e-006,-2.191023e-003
-1.999580e-005,-1.655721e-003
-2.145439e-005,-1.068558e-003
-7.678839e-006,-5.306635e-004
9.175954e-006,-8.919769e-005
2.181705e-005,2.540566e-004
2.376183e-005,5.149819e-004
1.630683e-005,7.034640e-004
6.258778e-006,7.943827e-004
-8.720958e-007,7.191843e-004
-8.165034e-006,4.230909e-004
-2.696461e-005,-5.548810e-005
-6.391550e-005,-5.768521e-004
-1.128592e-004,-9.807188e-004
-1.567789e-004,-1.160125e-003
-1.786577e-004,-1.098216e-003
-1.674752e-004,-8.614387e-004
-1.261486e-004,-5.397392e-004
-7.250496e-005,-1.867610e-004
-2.453363e-005,1.906891e-004
7.555300e-006,6.046041e-004
1.825161e-005,1.031160e-003
6.096713e-006,1.378467e-003
-2.145439e-005,1.510550e-003
-5.257093e-005,1.314775e-003
-8.822530e-005,8.117237e-004
-1.339277e-004,1.670276e-004
-1.901644e-004,-4.003631e-004
-2.439700e-004,-7.175248e-004
-2.831898e-004,-7.178489e-004
-2.985860e-004,-4.397449e-004
-2.830278e-004,1.922400e-005
-2.382978e-004,5.614947e-004
-1.840059e-004,1.122241e-003
-1.421931e-004,1.671644e-003
-1.233935e-004,2.185393e-003
-1.279313e-004,2.642581e-003
-1.468929e-004,3.008527e-003
-1.637477e-004,3.260378e-003
-1.692580e-004,3.393759e-003
-1.605064e-004,3.414828e-003
-1.415448e-004,3.343842e-003
-1.151281e-004,3.212569e-003
-8.206682e-005,3.047747e-003
-4.868136e-005,2.855212e-003
-2.631635e-005,2.621512e-003
-2.339917e-005,2.331900e-003
-4.333321e-005,1.993668e-003
-8.530812e-005,1.635665e-003
-1.405724e-004,1.280741e-003
-1.972952e-004,9.243592e-004
-2.400805e-004,5.477191e-004
-2.551526e-004,1.543865e-004
-2.425115e-004,-2.233878e-004
-2.104225e-004,-5.574043e-004
-1.655304e-004,-8.567389e-004
-1.089697e-004,-1.152832e-003
-4.544005e-005,-1.461242e-003
2.052053e-005,-1.765925e-003
8.956035e-005,-2.037385e-003
1.605450e-004,-2.240129e-003
2.261814e-004,-2.337692e-003
2.786906e-004,-2.299931e-003
3.201793e-004,-2.122793e-003
3.611819e-004,-1.837234e-003
4.107739e-004,-1.506459e-003
4.723587e-004,-1.187352e-003
5.376711e-004,-9.144341e-004
5.926113e-004,-6.846256e-004
6.230795e-004,-4.749131e-004
6.178935e-004,-2.592042e-004
5.760806e-004,-1.610623e-005
5.049338e-004,2.525981e-004
4.255218e-004,5.078511e-004
3.587509e-004,6.953607e-004
3.104554e-004,7.726659e-004
2.769079e-004,7.280979e-004
2.449810e-004,5.809425e-004
1.973338e-004,3.668542e-004
1.257009e-004,1.297525e-004
4.175108e-005,-9.811128e-005
-3.928157e-005,-3.011791e-004
-1.031353e-004,-4.846370e-004
-1.415448e-004,-6.676087e-004
-1.520790e-004,-8.596560e-004
-1.386276e-004,-1.053486e-003
-1.149661e-004,-1.219117e-003
-9.438377e-005,-1.318463e-003
-8.482193e-005,-1.329808e-003
-8.773910e-005,-1.261254e-003
-9.956987e-005,-1.141488e-003
-1.204763e-004,-1.004867e-003
-1.454343e-004,-8.766729e-004
-1.710407e-004,-7.705201e-004
-2.019951e-004,-6.894875e-004
-2.389460e-004,-6.309819e-004
-2.749245e-004,-5.862519e-004
-3.000446e-004,-5.460597e-004
-3.057169e-004,-5.035987e-004
-2.882139e-004,-4.570859e-004
-2.457528e-004,-4.070077e-004
-1.857886e-004,-3.604950e-004
-1.285796e-004,-3.248406e-004
-9.049421e-005,-3.003688e-004
-7.380149e-005,-2.778417e-004
-7.039811e-005,-2.502906e-004
-7.007398e-005,-2.143121e-004
-6.731887e-005,-1.721751e-004
-6.294311e-005,-1.282554e-004
-5.872941e-005,-8.125648e-005
-5.646050e-005,-3.166451e-005
-5.402952e-005,1.760335e-005
-4.625038e-005,5.649903e-005
-2.955766e-005,7.497447e-005
3.827798e-006,7.400208e-005
5.811968e-005,6.119892e-005
1.338042e-004,4.142695e-005
2.278021e-004,1.889987e-005
3.266619e-004,-1.358292e-006
4.136910e-004,-2.161646e-005
4.710622e-004,-4.430560e-005
4.796517e-004,-6.650855e-005
4.323286e-004,-8.449779e-005
3.383307e-004,-9.892161e-005
2.239125e-004,-1.054042e-004
1.169494e-004,-1.118868e-004
3.510640e-005,-1.630995e-004
-1.691656e-005,-3.395886e-004
-4.430560e-005,-6.739292e-004
-4.965375e-005,-1.088978e-003
-3.782299e-005,-1.430288e-003
-1.707863e-005,-1.561237e-003
6.907039e-006,-1.450546e-003
3.802358e-005,-1.180869e-003
7.238143e-005,-9.029275e-004
9.620503e-005,-7.543136e-004
9.150514e-005,-7.761924e-004
5.682316e-005,-8.852624e-004
5.448451e-006,-9.152445e-004
-4.236081e-005,-6.982390e-004
-7.655659e-005,-1.742820e-004
-9.697682e-005,5.655463e-004
-1.067007e-004,1.332116e-003
-1.078352e-004,1.971790e-003
-1.031353e-004,2.438864e-003
-9.243900e-005,2.803837e-003
-7.590833e-005,3.176428e-003
-5.483985e-005,3.608011e-003
-3.020592e-005,4.034734e-003
-4.761663e-006,4.313651e-003
1.695509e-005,4.325969e-003
3.202716e-005,4.063420e-003
4.807163e-005,3.598611e-003
7.221937e-005,2.987782e-003
1.036600e-004,2.272098e-003
1.355869e-004,1.528378e-003
1.621656e-004,8.848152e-004
1.764274e-004,4.739794e-004
1.786963e-004,3.593991e-004
1.736723e-004,5.164405e-004
1.668655e-004,8.645570e-004
1.587622e-004,1.290627e-003
1.433660e-004,1.688336e-003
1.197045e-004,1.985079e-003
8.745350e-005,2.128831e-003
5.131293e-005,2.075512e-003
2.052053e-005,1.810696e-003
6.744974e-006,1.353347e-003
1.355172e-005,7.436562e-004
3.397195e-005,1.031041e-005
5.552663e-005,-8.011505e-004
7.027457e-005,-1.597864e-003
7.416414e-005,-2.266059e-003
7.140904e-005,-2.729729e-003
7.157111e-005,-2.986765e-003
7.951231e-005,-3.101670e-003
9.296372e-005,-3.195506e-003
1.117633e-004,-3.395981e-003
1.363972e-004,-3.732917e-003
1.654069e-004,-4.102914e-003
1.893926e-004,-4.357682e-003
1.986303e-004,-4.409868e-003
1.936063e-004,-4.258984e-003
1.814514e-004,-3.964833e-003
1.694586e-004,-3.599860e-003
1.663793e-004,-3.242019e-003
1.717275e-004,-2.984820e-003
1.770756e-004,-2.827130e-003
1.764274e-004,-2.603318e-003
1.735102e-004,-2.069798e-003
1.757791e-004,-1.067910e-003
1.853410e-004,3.948915e-004
2.025199e-004,2.123970e-003
2.195368e-004,3.888063e-003
2.328261e-004,4.958519e-003
2.342847e-004,4.958681e-003
2.154851e-004,4.958681e-003
1.726999e-004,4.958843e-003
9.831188e-005,4.958681e-003
-4.113402e-006,4.958681e-003
-1.062145e-004,4.958519e-003
-1.720131e-004,4.958519e-003
-1.807646e-004,4.958519e-003
-1.349001e-004,4.958519e-003
-5.840528e-005,4.958681e-003
8.041497e-006,3.830853e-003
3.640293e-005,2.624267e-003
1.857574e-005,1.395970e-003
-3.377135e-005,1.657311e-004
-9.843541e-005,-9.881739e-004
-1.566169e-004,-1.964942e-003
-1.951884e-004,-2.704771e-003
-2.086398e-004,-3.186430e-003
-1.984297e-004,-3.433743e-003
-1.661787e-004,-3.502297e-003
-1.173971e-004,-3.466318e-003
-6.213279e-005,-3.393388e-003
-1.756482e-005,-3.335045e-003
2.531276e-006,-3.315435e-003
-5.571990e-006,-3.318676e-003
-3.409548e-005,-3.310249e-003
-6.342930e-005,-3.266491e-003
-7.428768e-005,-3.178489e-003
-6.132245e-005,-3.052240e-003
-1.853721e-005,-2.898439e-003
5.050261e-005,-2.734753e-003
1.295905e-004,-2.579008e-003
1.974959e-004,-2.439308e-003
2.346088e-004,-2.312248e-003
2.367157e-004,-2.190861e-003
2.114335e-004,-2.077739e-003
1.657311e-004,-1.983255e-003
1.057669e-004,-1.918105e-003
4.256141e-005,-1.912270e-003
-1.059601e-005,-2.013885e-003
-4.787104e-005,-2.223760e-003
-7.088431e-005,-2.485496e-003
-9.065627e-005,-2.756632e-003
-1.148040e-004,-3.027930e-003
-1.430034e-004,-3.274432e-003
-1.694200e-004,-3.427098e-003
-1.932436e-004,-3.390633e-003
-2.146362e-004,-3.109287e-003
-2.297083e-004,-2.595376e-003
-2.373254e-004,-1.916160e-003
-2.407287e-004,-1.156884e-003
-2.436459e-004,-3.904771e-004
-2.457528e-004,3.342790e-004
-2.452666e-004,9.760581e-004
-2.353806e-004,1.516709e-003
-2.159328e-004,1.953314e-003
-1.864369e-004,2.273557e-003
-1.525652e-004,2.457826e-003
-1.209625e-004,2.505959e-003
-9.794922e-005,2.448426e-003
-8.368747e-005,2.336276e-003
-7.137050e-005,2.208244e-003
-4.625038e-005,2.078915e-003
-2.978945e-006,1.936945e-003
4.758544e-005,1.758835e-003
8.161915e-005,1.538588e-003
8.534666e-005,1.286090e-003
6.460230e-005,1.004582e-003
3.656499e-005,6.451205e-004
2.635488e-005,1.274836e-004
5.260946e-005,-5.462218e-004
1.120874e-004,-1.229327e-003
1.830720e-004,-1.732378e-003
2.419018e-004,-1.945008e-003
2.712356e-004,-1.889095e-003
2.657254e-004,-1.688620e-003
2.354192e-004,-1.510024e-003
1.932822e-004,-1.475828e-003
1.547106e-004,-1.584898e-003
1.360731e-004,-1.733674e-003
1.470936e-004,-1.791370e-003
1.853410e-004,-1.666093e-003
2.415776e-004,-1.418295e-003
3.025142e-004,-1.281188e-003
3.488649e-004,-1.479070e-003
3.644232e-004,-2.069312e-003
3.412478e-004,-2.886446e-003
2.720459e-004,-3.626925e-003
1.584381e-004,-3.949599e-003
2.165498e-005,-3.623360e-003
-1.023250e-004,-2.655179e-003
-1.890299e-004,-1.284591e-003
-2.264670e-004,1.902029e-004
-2.146362e-004,1.555281e-003
-1.648822e-004,2.773531e-003
-9.098041e-005,3.898111e-003
-5.734055e-006,4.957709e-003
8.113296e-005,4.958519e-003
1.634621e-004,4.958681e-003
2.347709e-004,4.958681e-003
2.879283e-004,4.958681e-003
3.213138e-004,4.958681e-003
3.352514e-004,4.958681e-003
3.331445e-004,4.958681e-003
3.201793e-004,4.958681e-003
3.000832e-004,4.958681e-003
2.803112e-004,4.958681e-003
2.701011e-004,4.716714e-003
2.744769e-004,3.316129e-003
2.944109e-004,2.457015e-003
3.286067e-004,2.307266e-003
3.702575e-004,2.721507e-003
4.031568e-004,3.371070e-003
4.075326e-004,3.929066e-003
3.743092e-004,4.195505e-003
3.020280e-004,4.139916e-003
2.013854e-004,3.885794e-003
9.620503e-005,3.639938e-003
7.879431e-006,3.524223e-003
-5.338126e-005,3.463610e-003
-9.713889e-005,3.245468e-003
-1.384655e-004,2.668998e-003
-1.935677e-004,1.667106e-003
-2.630937e-004,3.371962e-004
-3.384541e-004,-1.103888e-003
-4.016596e-004,-2.404949e-003
-4.399070e-004,-3.415267e-003
-4.507653e-004,-4.072283e-003
-4.355312e-004,-4.397226e-003
-3.948528e-004,-4.475991e-003
-3.267854e-004,-4.419591e-003
-2.353806e-004,-4.319759e-003
-1.336036e-004,-4.229002e-003
-3.474375e-005,-4.166120e-003
5.179913e-005,-4.122686e-003
1.153287e-004,-4.084114e-003
1.474177e-004,-4.048946e-003
1.432040e-004,-4.020908e-003
1.080358e-004,-3.993843e-003
4.839576e-005,-3.947978e-003
-2.696461e-005,-3.859814e-003
-1.054042e-004,-3.722220e-003
-1.673132e-004,-3.543786e-003
-1.979435e-004,-3.337475e-003
-1.968091e-004,-3.117714e-003
-1.726613e-004,-2.902815e-003
-1.365208e-004,-2.707040e-003
-9.503204e-005,-2.537681e-003
-5.597430e-005,-2.394253e-003
-2.955766e-005,-2.270273e-003
-1.691656e-005,-2.156017e-003
-1.221667e-005,-2.044354e-003
-1.302699e-005,-1.930908e-003
-1.351319e-005,-1.816814e-003
-1.367526e-005,-1.705799e-003
-1.902341e-005,-1.599808e-003
-3.182657e-005,-1.495924e-003
-4.835723e-005,-1.393175e-003
-6.051213e-005,-1.290263e-003
-6.083626e-005,-1.189297e-003
-4.787104e-005,-1.088978e-003
-2.664048e-005,-9.889841e-004
-3.303075e-006,-8.907726e-004
1.808955e-005,-7.902921e-004
3.543053e-005,-6.907840e-004
4.531652e-005,-5.894932e-004
4.061663e-005,-4.873921e-004
2.197911e-005,-3.880461e-004
-6.176923e-008,-2.930758e-004
-1.351319e-005,-2.002124e-004
-1.010982e-005,-1.120489e-004
7.231170e-006,-2.777494e-005
3.170303e-005,5.196120e-005
5.244739e-005,1.289422e-004
6.136099e-005,2.020337e-004
5.536457e-005,2.641047e-004
3.413401e-005,3.133726e-004
1.883015e-006,3.556717e-004
-3.166451e-005,3.984569e-004
-5.305713e-005,4.435111e-004
-5.321919e-005,4.905100e-004
-3.847125e-005,5.388056e-004
-2.323711e-005,5.874252e-004
-1.983374e-005,6.332896e-004
-3.101624e-005,6.687820e-004
-4.349527e-005,6.929297e-004
-4.219875e-005,7.125397e-004
-1.950961e-005,7.332840e-004
2.667901e-005,7.558112e-004
9.490851e-005,7.788244e-004
1.788584e-004,7.968137e-004
2.655633e-004,8.062135e-004
3.368721e-004,8.079962e-004
3.759298e-004,8.010274e-004
3.822504e-004,7.731521e-004
3.650714e-004,7.243704e-004
3.397892e-004,6.752646e-004
3.156415e-004,6.528996e-004
2.976522e-004,6.741302e-004
2.848491e-004,7.373357e-004
2.759355e-004,8.225821e-004
2.668598e-004,9.029665e-004
2.487085e-004,9.585550e-004
2.111093e-004,9.861061e-004
1.485521e-004,9.911302e-004
6.962632e-005,9.780029e-004
-7.840905e-006,9.426726e-004
-6.423963e-005,8.733086e-004
-8.077029e-005,7.590525e-004
-3.620233e-005,5.979594e-004
6.427816e-005,3.474063e-004
1.872858e-004,-1.122110e-004
2.963557e-004,-8.466908e-004
3.720402e-004,-1.737726e-003
4.076946e-004,-2.519692e-003
4.046154e-004,-2.950787e-003
3.756057e-004,-2.953542e-003
3.350894e-004,-2.616931e-003
2.861456e-004,-2.103832e-003
2.310434e-004,-1.584736e-003
1.744826e-004,-1.258985e-003
1.216493e-004,-1.266602e-003
7.546067e-005,-1.504514e-003
3.915804e-005,-1.628656e-003
3.665733e-006,-1.312304e-003
-4.398147e-005,-4.940368e-004
-1.156143e-004,5.973111e-004
-2.113949e-004,1.618810e-003
-3.139823e-004,2.388461e-003
-4.011734e-004,2.935921e-003
-4.596789e-004,3.406400e-003
-4.893369e-004,3.953052e-003
-5.050572e-004,4.652373e-003
-5.240189e-004,4.958519e-003
-5.531906e-004,4.958681e-003
-5.873864e-004,4.958681e-003
-6.157478e-004,4.958519e-003
-6.233649e-004,4.958519e-003
-5.928966e-004,4.958843e-003
-5.196431e-004,4.958843e-003
-4.094387e-004,4.958519e-003
-2.818933e-004,4.958681e-003
-1.614788e-004,3.816754e-003
-6.375343e-005,2.088315e-003
2.045080e-006,8.831946e-004
4.013043e-005,3.482167e-004
5.893001e-005,3.720402e-004
7.465034e-005,7.139983e-004
1.119254e-004,1.152547e-003
1.968476e-004,1.573594e-003
3.367100e-004,1.966928e-003
5.166026e-004,2.381979e-003
7.149706e-004,2.827337e-003
9.019942e-004,3.193283e-003
1.049636e-003,3.290198e-003
1.135044e-003,2.954721e-003
1.145903e-003,2.141635e-003
1.088370e-003,9.600137e-004
9.942094e-004,-3.684362e-004
9.031286e-004,-1.584574e-003
8.417058e-004,-2.526985e-003
8.160995e-004,-3.146886e-003
8.120479e-004,-3.489493e-003
7.885484e-004,-3.649615e-003
7.008709e-004,-3.721086e-003
5.255162e-004,-3.768085e-003
2.757734e-004,-3.818488e-003
-1.027188e-005,-3.867756e-003
-2.852967e-004,-3.909731e-003
-5.139708e-004,-3.941658e-003
-6.807360e-004,-3.959161e-003
-7.872129e-004,-3.947978e-003
-8.424771e-004,-3.882342e-003
-8.522010e-004,-3.746854e-003
-8.235155e-004,-3.554158e-003
-7.724649e-004,-3.336179e-003
-7.149318e-004,-3.121766e-003
-6.612882e-004,-2.928097e-003
-6.116962e-004,-2.761656e-003
-5.598352e-004,-2.621631e-003
-4.997090e-004,-2.501703e-003
-4.295348e-004,-2.394415e-003
-3.517435e-004,-2.291666e-003
-2.755728e-004,-2.187458e-003
-2.177155e-004,-2.080170e-003
-1.841679e-004,-1.974504e-003
-1.619650e-004,-1.876616e-003
-1.264727e-004,-1.787966e-003
-5.856734e-005,-1.701099e-003
3.948217e-005,-1.612612e-003
1.532520e-004,-1.522017e-003
2.598910e-004,-1.431584e-003
3.339549e-004,-1.341962e-003
3.670162e-004,-1.252178e-003
3.746333e-004,-1.162394e-003
3.832228e-004,-1.075851e-003
4.059119e-004,-9.949806e-004
4.337872e-004,-9.191340e-004
4.409180e-004,-8.426392e-004
4.081808e-004,-7.633893e-004
3.307136e-004,-6.792774e-004
2.232642e-004,-5.906277e-004
1.081979e-004,-5.003573e-004
1.112074e-005,-4.118697e-004
-4.754691e-005,-3.266234e-004
-6.602235e-005,-2.468872e-004
-5.386745e-005,-1.763888e-004
-3.053005e-005,-1.227452e-004
-1.351319e-005,-8.984595e-005
-1.173047e-005,-7.590833e-005
-2.583015e-005,-7.428768e-005
-4.884343e-005,-7.218083e-005
-7.218083e-005,-5.338126e-005
-8.968388e-005,-8.165034e-006
-9.892161e-005,6.233338e-005
-1.018388e-004,1.461212e-004
-1.049180e-004,2.294227e-004
-1.107524e-004,3.107795e-004
-1.173971e-004,4.054257e-004
-1.220969e-004,5.352401e-004
-1.253383e-004,7.028157e-004
-1.310105e-004,8.759017e-004
-1.400862e-004,1.003933e-003
-1.478653e-004,1.056767e-003
-1.519170e-004,1.037643e-003
-1.464067e-004,9.767064e-004
-1.274451e-004,9.109078e-004
-9.049421e-005,8.705535e-004
-3.117831e-005,8.658536e-004
4.742337e-005,8.945392e-004
1.289422e-004,9.444553e-004
1.913374e-004,1.008633e-003
2.175920e-004,1.076863e-003
2.062474e-004,1.136017e-003
1.715654e-004,1.175885e-003
1.310491e-004,1.203274e-003
9.312579e-005,1.224829e-003
6.606088e-005,1.237146e-003
4.596478e-005,1.231149e-003
2.943412e-005,1.196467e-003
1.112074e-005,1.130507e-003
-9.299492e-006,1.043477e-003
-2.226472e-005,9.543414e-004
-1.594417e-005,8.817360e-004
1.031041e-005,8.378162e-004
4.871989e-005,8.256614e-004
7.983643e-005,8.361956e-004
8.793970e-005,8.501332e-004
6.897806e-005,8.460816e-004
2.619281e-005,8.144788e-004
-2.599222e-005,7.616455e-004
-6.456376e-005,7.039502e-004
-7.850138e-005,6.527375e-004
-6.602235e-005,6.107626e-004
-4.219875e-005,5.605223e-004
-2.647842e-005,4.572866e-004
-2.437157e-005,2.349330e-004
-2.923352e-005,-1.431654e-004
-3.441962e-005,-6.159099e-004
-3.296103e-005,-1.051379e-003
-2.226472e-005,-1.324135e-003
-8.165034e-006,-1.367407e-003
3.989864e-006,-1.197400e-003
1.630683e-005,-9.053584e-004
3.332369e-005,-6.032688e-004
6.265751e-005,-3.630880e-004
9.993253e-005,-1.874093e-004
1.321835e-004,-3.976777e-005
1.438522e-004,8.502253e-005
1.278078e-004,9.182927e-005
8.696730e-005,-1.632615e-004
3.299956e-005,-7.172007e-004
-2.064406e-005,-1.442443e-003
-6.423963e-005,-2.176437e-003
-9.324932e-005,-2.801200e-003
-1.092938e-004,-3.249798e-003
-1.138316e-004,-3.536979e-003
-1.070249e-004,-3.751068e-003
-8.757703e-005,-3.939713e-003
-5.305713e-005,-4.010860e-003
-4.923729e-006,-3.806981e-003
5.050261e-005,-3.273622e-003
1.028497e-004,-2.496841e-003
1.422316e-004,-1.607101e-003
1.610312e-004,-6.557779e-004
1.623277e-004,3.995913e-004
1.527658e-004,1.587370e-003
1.333180e-004,2.899294e-003
1.010670e-004,4.303928e-003
6.298164e-005,4.958681e-003
3.316162e-005,4.958681e-003
2.570661e-005,4.958843e-003
3.575467e-005,4.958843e-003
4.499239e-005,4.959005e-003
4.061663e-005,4.958681e-003
3.267542e-005,4.958681e-003
4.158902e-005,4.958681e-003
8.194328e-005,4.958681e-003
1.521176e-004,4.958681e-003
2.406053e-004,4.958681e-003
3.279585e-004,4.958681e-003
3.914881e-004,4.958843e-003
4.133669e-004,4.958681e-003
3.932708e-004,4.489008e-003
3.475684e-004,3.881256e-003
2.960316e-004,3.428927e-003
2.506533e-004,2.975627e-003
2.128921e-004,2.377441e-003
1.822617e-004,1.589638e-003
1.610312e-004,6.592201e-004
1.469315e-004,-3.267854e-004
1.380179e-004,-1.280540e-003
1.257009e-004,-2.142889e-003
1.080358e-004,-2.872995e-003
8.988448e-005,-3.440225e-003
7.772959e-005,-3.836153e-003
7.384001e-005,-4.077469e-003
8.340186e-005,-4.188322e-003
1.043083e-004,-4.203070e-003
1.282940e-004,-4.168065e-003
1.428798e-004,-4.129331e-003
1.338042e-004,-4.113610e-003
9.118101e-005,-4.121714e-003
1.646889e-005,-4.140675e-003
-7.574627e-005,-4.153965e-003
-1.596961e-004,-4.153154e-003
-2.099363e-004,-4.137758e-003
-2.188499e-004,-4.115555e-003
-1.966470e-004,-4.112314e-003
-1.613168e-004,-4.187350e-003
-1.305243e-004,-4.400792e-003
-1.062145e-004,-4.730760e-003
-8.611845e-005,-4.967702e-003
-6.359137e-005,-4.967539e-003
-3.555407e-005,-4.967539e-003
-1.358292e-006,-4.967539e-003
3.786152e-005,-4.529311e-003
7.983643e-005,-4.009888e-003
1.258630e-004,-3.479769e-003
1.738343e-004,-2.970397e-003
2.182402e-004,-2.472044e-003
2.519498e-004,-1.959756e-003
2.689667e-004,-1.423481e-003
2.660495e-004,-8.851003e-004
2.415776e-004,-3.945287e-004
2.033302e-004,-1.286493e-005
1.613553e-004,2.232642e-004
1.261871e-004,3.132105e-004
1.039842e-004,2.981384e-004
9.652916e-005,2.417397e-004
9.215340e-005,1.903650e-004
7.610893e-005,1.608691e-004
4.418206e-005,1.482280e-004
-2.168618e-006,1.260251e-004
-5.629843e-005,6.946425e-005
-1.060525e-004,-2.372330e-005
-1.331174e-004,-1.337657e-004
-1.196660e-004,-2.407287e-004
-5.791909e-005,-3.431540e-004
4.531652e-005,-4.567618e-004
1.629759e-004,-5.907897e-004
2.619979e-004,-7.321107e-004
3.187208e-004,-8.421530e-004
3.263378e-004,-8.846141e-004
2.953833e-004,-8.680834e-004
2.388225e-004,-8.416668e-004
1.660552e-004,-8.470149e-004
8.502253e-005,-8.855865e-004
4.638125e-006,-9.306406e-004
-6.602235e-005,-9.620813e-004
-1.227452e-004,-9.956289e-004
-1.682856e-004,-1.087520e-003
-2.006986e-004,-1.268709e-003
-2.172293e-004,-1.493980e-003
-2.266291e-004,-1.666093e-003
-2.436459e-004,-1.692186e-003
-2.765452e-004,-1.520558e-003
-3.165753e-004,-1.157694e-003
-3.480160e-004,-6.791154e-004
-3.598467e-004,-2.057227e-004
-3.510952e-004,1.088461e-004
-3.269475e-004,1.010670e-004
-2.963171e-004,-3.120375e-004
-2.681178e-004,-1.006163e-003
-2.410529e-004,-1.656369e-003
-2.115570e-004,-1.951004e-003
-1.778474e-004,-1.832210e-003
-1.386276e-004,-1.487335e-003
-9.405964e-005,-1.214093e-003
-4.592625e-005,-1.323649e-003
-6.176923e-008,-1.939497e-003
4.142695e-005,-2.808006e-003
7.935023e-005,-3.445249e-003
1.133840e-004,-3.393388e-003
1.381799e-004,-2.454866e-003
1.526038e-004,-7.838095e-004
1.628139e-004,1.212512e-003
1.681620e-004,3.056336e-003
1.718895e-004,4.544922e-003
1.761032e-004,4.958681e-003
1.846927e-004,4.958843e-003
1.986303e-004,4.958681e-003
2.161334e-004,4.958843e-003
2.337985e-004,4.958519e-003
2.491947e-004,4.958681e-003
2.582704e-004,4.958843e-003
2.527601e-004,4.958843e-003
2.352571e-004,4.958681e-003
2.101370e-004,4.958843e-003
1.840444e-004,4.958519e-003
1.642725e-004,4.958681e-003
1.551968e-004,4.958681e-003
1.574657e-004,4.958357e-003
1.707551e-004,4.958519e-003
1.858272e-004,4.958681e-003
1.902029e-004,4.958681e-003
1.777239e-004,4.958681e-003
1.474177e-004,4.958681e-003
1.093323e-004,4.958519e-003
6.768153e-005,4.958681e-003
2.765140e-005,3.996972e-003
-7.516774e-006,2.675318e-003
-4.252288e-005,1.095825e-003
-8.222889e-005,-5.462218e-004
-1.277692e-004,-1.964780e-003
-1.776853e-004,-2.993086e-003
-2.282497e-004,-3.608126e-003
-2.713591e-004,-3.898710e-003
-2.966413e-004,-4.001460e-003
-2.989102e-004,-4.040194e-003
-2.833519e-004,-4.102752e-003
-2.587180e-004,-4.239212e-003
-2.339220e-004,-4.441308e-003
-2.193361e-004,-4.651347e-003
-2.232257e-004,-4.793155e-003
-2.426735e-004,-4.814872e-003
-2.603386e-004,-4.714877e-003
-2.582318e-004,-4.523476e-003
-2.290600e-004,-4.274866e-003
-1.746061e-004,-4.004377e-003
-1.039456e-004,-3.752202e-003
-3.053005e-005,-3.542165e-003
2.846173e-005,-3.377506e-003
6.525056e-005,-3.247529e-003
7.740545e-005,-3.134893e-003
7.400208e-005,-3.027119e-003
6.557468e-005,-2.925180e-003
6.006446e-005,-2.841392e-003
6.055066e-005,-2.783373e-003
6.768153e-005,-2.753066e-003
7.708132e-005,-2.737346e-003
8.437427e-005,-2.715791e-003
8.599491e-005,-2.671709e-003
8.518459e-005,-2.599104e-003
9.150514e-005,-2.504133e-003
1.080358e-004,-2.400898e-003
1.360731e-004,-2.299931e-003
1.736723e-004,-2.201719e-003
2.175920e-004,-2.106587e-003
2.605393e-004,-2.022313e-003
2.897111e-004,-1.946142e-003
3.013797e-004,-1.874509e-003
2.997591e-004,-1.837072e-003
2.914938e-004,-1.893309e-003
2.820940e-004,-2.063802e-003
2.785285e-004,-2.296366e-003
2.843629e-004,-2.508185e-003
3.017039e-004,-2.634110e-003
3.256896e-004,-2.641079e-003
3.438409e-004,-2.555022e-003
3.427064e-004,-2.472044e-003
3.099692e-004,-2.491006e-003
2.422259e-004,-2.597483e-003
1.521176e-004,-2.641403e-003
6.508849e-005,-2.420994e-003
8.203561e-006,-1.843555e-003
-1.027188e-005,-9.925496e-004
3.017472e-006,-4.916756e-005
2.894792e-005,7.987585e-004
4.596478e-005,1.467117e-003
3.899597e-005,1.992858e-003
7.485573e-007,2.479704e-003
-6.180866e-005,3.027975e-003
-1.292278e-004,3.650311e-003
-1.734716e-004,4.268921e-003
-1.825473e-004,4.763065e-003
-1.566169e-004,4.958681e-003
-9.357345e-005,4.958519e-003
6.582909e-006,4.852365e-003
1.235941e-004,4.539574e-003
2.208333e-004,4.172653e-003
2.760976e-004,3.771051e-003
2.867939e-004,3.327312e-003
2.598910e-004,2.822961e-003
2.020337e-004,2.256864e-003
1.218114e-004,1.655113e-003
3.510640e-005,1.068273e-003
-4.057810e-005,5.488536e-004
-8.806324e-005,1.268354e-004
-9.616650e-005,-1.963229e-004
-6.958779e-005,-4.358554e-004
-2.048200e-005,-6.100755e-004
3.462021e-005,-7.319486e-004
7.643306e-005,-8.165467e-004
8.518459e-005,-8.782936e-004
4.191315e-005,-9.235098e-004
-6.116039e-005,-9.436058e-004
-2.070192e-004,-9.293441e-004
-3.574157e-004,-8.804004e-004
-4.723200e-004,-7.974230e-004
-5.300153e-004,-6.831670e-004
-5.348772e-004,-5.523803e-004
-5.016539e-004,-4.322899e-004
-4.399070e-004,-3.436402e-004
-3.549847e-004,-2.862691e-004
-2.608248e-004,-2.423494e-004
-1.784957e-004,-2.002124e-004
-1.220969e-004,-1.624512e-004
-9.843541e-005,-1.256624e-004
-9.827335e-005,-7.558420e-005
-1.036215e-004,9.338019e-006
-9.616650e-005,1.398006e-004
-6.780506e-005,3.023521e-004
-2.194059e-005,4.734932e-004
3.413401e-005,6.422033e-004
9.069480e-005,8.054032e-004
1.412592e-004,9.666583e-004
1.840444e-004,1.117865e-003
2.102990e-004,1.246059e-003
2.117576e-004,1.347026e-003
1.884202e-004,1.428707e-003
1.443384e-004,1.502123e-003
8.826383e-005,1.571973e-003
3.867184e-005,1.626427e-003
8.851824e-006,1.633396e-003
2.623614e-007,1.567760e-003
6.907039e-006,1.426438e-003
2.667901e-005,1.229529e-003
5.941620e-005,1.009768e-003
1.052807e-004,7.874139e-004
1.586002e-004,5.715428e-004
2.094887e-004,3.639370e-004
2.506533e-004,1.650828e-004
2.731804e-004,-2.129233e-005
2.751252e-004,-1.833576e-004
2.590807e-004,-3.170615e-004
2.255332e-004,-4.258073e-004
1.837203e-004,-5.087847e-004
1.436902e-004,-5.671282e-004
1.125736e-004,-6.139651e-004
8.907416e-005,-6.679328e-004
7.027457e-005,-7.319486e-004
5.504044e-005,-7.815406e-004
4.126489e-005,-7.800820e-004
2.878586e-005,-7.063423e-004
1.436204e-005,-5.721523e-004
-8.002969e-006,-4.186764e-004
-4.333321e-005,-2.946965e-004
-8.449779e-005,-2.412149e-004
-1.190177e-004,-2.823795e-004
-1.363587e-004,-4.311554e-004
-1.289037e-004,-7.160662e-004
-9.778715e-005,-1.174549e-003
-4.900549e-005,-1.807252e-003
7.069104e-006,-2.540760e-003
6.411610e-005,-3.207985e-003
1.201907e-004,-3.609746e-003
1.785342e-004,-3.625143e-003
2.443327e-004,-3.245260e-003
3.180725e-004,-2.550808e-003
3.968363e-004,-1.682462e-003
4.712243e-004,-8.353463e-004
5.240575e-004,-2.157707e-004
5.465847e-004,5.941620e-005
5.384814e-004,1.889987e-005
5.012063e-004,-2.000504e-004
4.519385e-004,-4.556273e-004
4.089912e-004,-6.324405e-004
3.869503e-004,-6.387611e-004
3.908399e-004,-4.295348e-004
4.136910e-004,-1.399939e-005
4.425387e-004,5.428572e-004
4.660382e-004,1.121917e-003
4.762483e-004,1.601145e-003
4.678209e-004,1.959635e-003
4.388112e-004,2.323635e-003
3.913260e-004,2.873363e-003
3.261757e-004,3.686127e-003
2.487085e-004,4.687704e-003
1.573037e-004,4.958681e-003
5.520250e-005,4.958681e-003
-5.532604e-005,4.958843e-003
-1.668270e-004,4.958681e-003
-2.655248e-004,4.958681e-003
-3.412092e-004,4.958681e-003
-3.925839e-004,4.958519e-003
-4.224039e-004,4.650590e-003
-4.303451e-004,3.843981e-003
-4.228901e-004,3.068329e-003
-4.053871e-004,2.325417e-003
-3.792946e-004,1.595635e-003
-3.433161e-004,8.467298e-004
-3.021515e-004,7.238143e-005
-2.592042e-004,-6.747395e-004
-2.238740e-004,-1.314087e-003
-2.029675e-004,-1.793477e-003
-1.963229e-004,-2.114366e-003
-1.989159e-004,-2.317272e-003
-2.008607e-004,-2.464265e-003
-1.930815e-004,-2.624224e-003
-1.666649e-004,-2.839447e-003
-1.219349e-004,-3.096808e-003
-6.877746e-005,-3.374427e-003
-1.950961e-005,-3.702124e-003
2.019640e-005,-4.136462e-003
4.191315e-005,-4.661071e-003
4.612685e-005,-4.967539e-003
3.802358e-005,-4.967702e-003
2.846173e-005,-4.967702e-003
2.441009e-005,-4.967377e-003
3.154097e-005,-4.490901e-003
5.212327e-005,-3.825618e-003
8.712937e-005,-3.145103e-003
1.338042e-004,-2.472044e-003
1.782101e-004,-1.769005e-003
2.049509e-004,-9.696984e-004
2.000889e-004,-1.020008e-004
1.582760e-004,6.694302e-004
8.226741e-005,1.154979e-003
-1.335112e-005,1.253028e-003
-1.084835e-004,9.935612e-004
-1.872472e-004,5.516087e-004
-2.353806e-004,1.428798e-004
-2.478596e-004,-1.000561e-004
-2.339220e-004,-1.554824e-004
-2.105846e-004,-7.104637e-005
-1.885437e-004,9.604297e-005
-1.679614e-004,3.072141e-004
-1.468929e-004,5.386435e-004
-1.266348e-004,7.836864e-004
-1.086455e-004,1.053525e-003
-8.903562e-005,1.360154e-003
-5.986387e-005,1.690281e-003
-2.031993e-005,2.012792e-003
1.468617e-005,2.293166e-003
2.278944e-005,2.485215e-003
-8.327101e-006,2.544207e-003
-7.185670e-005,2.441457e-003
-1.460826e-004,2.130776e-003
-2.026434e-004,1.471817e-003
-2.285738e-004,3.590750e-004
-2.259808e-004,-1.047166e-003
-2.000504e-004,-2.348226e-003
-1.549962e-004,-3.219816e-003
-8.595638e-005,-3.529038e-003
7.393235e-006,-3.333424e-003
1.080358e-004,-2.791476e-003
1.908512e-004,-2.067367e-003
2.368777e-004,-1.262874e-003
2.483844e-004,-4.089525e-004
2.420638e-004,5.031511e-004
2.357433e-004,1.477975e-003
2.388225e-004,2.494777e-003
2.487085e-004,3.453237e-003
2.581083e-004,4.147694e-003
2.551911e-004,4.279617e-003
2.365536e-004,3.539457e-003
2.031682e-004,1.851375e-003
1.660552e-004,-5.306635e-004
1.381799e-004,-2.947059e-003
1.329939e-004,-4.817141e-003
1.586002e-004,-4.967702e-003
2.088404e-004,-4.967539e-003
2.696149e-004,-4.967539e-003
3.180725e-004,-4.392689e-003
3.401134e-004,-3.231809e-003
3.290929e-004,-2.039330e-003
2.748010e-004,-8.740799e-004
1.689724e-004,2.441707e-004
2.684107e-005,1.272638e-003
-1.246900e-004,2.159138e-003
-2.617972e-004,2.870770e-003
-3.614674e-004,3.405752e-003
-4.061974e-004,3.770889e-003
-3.885323e-004,3.967638e-003
-3.198166e-004,3.981414e-003
-2.183637e-004,3.789526e-003
-1.076731e-004,3.396676e-003
-7.192643e-006,2.863477e-003
7.513654e-005,2.296570e-003
1.297525e-004,1.811993e-003
1.534141e-004,1.473275e-003
1.571416e-004,1.254487e-003
1.600588e-004,1.052877e-003
1.809652e-004,7.592145e-004
2.258573e-004,3.098072e-004
2.893869e-004,-3.126857e-004
3.623164e-004,-1.049110e-003
4.237391e-004,-1.778567e-003
4.444834e-004,-2.362164e-003
4.068843e-004,-2.680461e-003
3.102933e-004,-2.682892e-003
1.769136e-004,-2.408515e-003
4.564065e-005,-1.948249e-003
-4.657451e-005,-1.393661e-003
-7.509801e-005,-7.956403e-004
-4.106429e-005,-1.771991e-004
2.084466e-005,4.355699e-004
6.800567e-005,1.005716e-003
8.048469e-005,1.498396e-003
6.411610e-005,1.893998e-003
3.251336e-005,2.207109e-003
4.151929e-006,2.485863e-003
-8.165034e-006,2.757162e-003
3.503668e-006,2.987944e-003
3.834771e-005,3.107711e-003
8.405013e-005,3.050826e-003
1.198666e-004,2.802702e-003
1.325077e-004,2.394133e-003
1.210010e-004,1.878278e-003
8.956035e-005,1.304241e-003
4.677511e-005,7.217774e-004
-6.176923e-008,1.769136e-004
-4.673658e-005,-2.963171e-004
-9.503204e-005,-6.784671e-004
-1.477033e-004,-9.765051e-004
-2.016710e-004,-1.211338e-003
-2.512630e-004,-1.400144e-003
-2.940482e-004,-1.543896e-003
-3.311612e-004,-1.636273e-003
-3.648708e-004,-1.670955e-003
-3.966356e-004,-1.650697e-003
-4.269418e-004,-1.590895e-003
-4.462275e-004,-1.505324e-003
-4.423380e-004,-1.403709e-003
-4.092766e-004,-1.292695e-003
-3.523917e-004,-1.182328e-003
-2.903207e-004,-1.080875e-003
-2.433218e-004,-9.959530e-004
-2.139880e-004,-9.254545e-004
-1.856265e-004,-8.663007e-004
-1.314967e-004,-8.196259e-004
-3.701266e-005,-7.875370e-004
8.842590e-005,-7.710063e-004
2.211574e-004,-7.633893e-004
3.371962e-004,-7.577170e-004
4.217943e-004,-7.415105e-004
4.686312e-004,-7.082871e-004
4.835412e-004,-6.609640e-004
4.806241e-004,-6.074825e-004
4.704139e-004,-5.528664e-004
4.584211e-004,-5.039228e-004
4.482110e-004,-4.596789e-004
4.412422e-004,-4.175420e-004
4.352457e-004,-3.758912e-004
4.237391e-004,-3.381300e-004
4.028327e-004,-3.029618e-004
3.696093e-004,-2.720073e-004
3.195311e-004,-2.692523e-004
2.482223e-004,-3.619536e-004
1.586002e-004,-6.624226e-004
6.411610e-005,-1.244561e-003
-1.707863e-005,-2.035278e-003
-6.861539e-005,-2.843175e-003
-8.919769e-005,-3.447681e-003
-8.952182e-005,-3.699045e-003
-8.141856e-005,-3.593216e-003
-7.542214e-005,-3.277511e-003
-8.336334e-005,-2.950462e-003
-1.042698e-004,-2.734753e-003
-1.366828e-004,-2.627142e-003
-1.712027e-004,-2.522447e-003
-1.932436e-004,-2.268652e-003
-1.901644e-004,-1.750691e-003
-1.674752e-004,-9.978977e-004
-1.431654e-004,-1.903264e-004
-1.339277e-004,4.464283e-004
-1.512687e-004,7.551629e-004
-1.950263e-004,6.955228e-004
-2.532078e-004,3.540510e-004
-3.010170e-004,-2.015787e-005
-3.134960e-004,-8.336334e-005
-2.805968e-004,4.094774e-004
-2.032917e-004,1.445400e-003
-9.665269e-005,2.768993e-003
1.403791e-005,4.072495e-003
1.096565e-004,4.958519e-003
1.867996e-004,4.958681e-003
2.485465e-004,4.958681e-003
2.944109e-004,4.958843e-003
3.180725e-004,4.958519e-003
3.222862e-004,4.958843e-003
3.222862e-004,4.958519e-003
3.336308e-004,4.958681e-003
3.564820e-004,4.958681e-003
3.773884e-004,4.958519e-003
3.871123e-004,4.958681e-003
3.822504e-004,4.958681e-003
3.639370e-004,4.958843e-003
3.315239e-004,4.958681e-003
2.838767e-004,4.958681e-003
2.355812e-004,4.958519e-003
2.083542e-004,4.913464e-003
2.109473e-004,3.752251e-003
2.378501e-004,2.317476e-003
2.694529e-004,8.037825e-004
2.864697e-004,-6.008378e-004
2.720459e-004,-1.756201e-003
2.289365e-004,-2.634921e-003
1.705930e-004,-3.264384e-003
1.141943e-004,-3.690293e-003
6.995045e-005,-3.958027e-003
3.964423e-005,-4.101941e-003
1.695509e-005,-4.150562e-003
-4.275467e-006,-4.127710e-003
-3.036798e-005,-4.052998e-003
-6.537409e-005,-3.944251e-003
-1.011905e-004,-3.818650e-003
-1.258244e-004,-3.689321e-003
-1.323070e-004,-3.566313e-003
-1.261486e-004,-3.449787e-003
-1.159385e-004,-3.336503e-003
-1.067007e-004,-3.229702e-003
-9.778715e-005,-3.130517e-003
-8.384953e-005,-3.039598e-003
-5.986387e-005,-2.954190e-003
-3.020592e-005,-2.866836e-003
-1.358292e-006,-2.773163e-003
1.760335e-005,-2.676409e-003
2.197911e-005,-2.582573e-003
1.857574e-005,-2.494734e-003
1.971020e-005,-2.413215e-003
3.575467e-005,-2.336396e-003
5.876794e-005,-2.258604e-003
7.335382e-005,-2.172871e-003
7.140904e-005,-2.079684e-003
4.466826e-005,-1.984552e-003
-5.085794e-006,-1.890878e-003
-7.331529e-005,-1.797852e-003
-1.454343e-004,-1.705961e-003
-2.045882e-004,-1.617311e-003
-2.415391e-004,-1.535630e-003
-2.491561e-004,-1.463511e-003
-2.297083e-004,-1.396903e-003
-1.878955e-004,-1.328511e-003
-1.287416e-004,-1.255419e-003
-5.727082e-005,-1.179573e-003
1.906194e-005,-1.105023e-003
8.469840e-005,-1.035497e-003
1.214872e-004,-9.752086e-004
1.153287e-004,-9.257787e-004
6.784360e-005,-8.813728e-004
-1.027188e-005,-8.275671e-004
-1.007043e-004,-7.575550e-004
-1.793060e-004,-6.734430e-004
-2.259808e-004,-5.802555e-004
-2.298704e-004,-4.724821e-004
-1.945401e-004,-3.421816e-004
-1.347380e-004,-1.914609e-004
-7.363942e-005,-2.971972e-005
-2.485776e-005,1.325077e-004
1.883015e-006,2.890628e-004
3.503668e-006,4.427008e-004
-2.161646e-005,5.858045e-004
-7.120844e-005,6.919574e-004
-1.340898e-004,7.326358e-004
-1.951884e-004,6.922815e-004
-2.348944e-004,5.525811e-004
-2.397564e-004,2.892249e-004
-2.083157e-004,-7.380149e-005
-1.524032e-004,-4.413656e-004
-9.308726e-005,-6.854359e-004
-4.932962e-005,-7.014803e-004
-2.534396e-005,-4.711856e-004
-1.254080e-005,-6.845333e-005
-3.858999e-007,3.968363e-004
2.133085e-005,8.305233e-004
6.249544e-005,1.176695e-003
1.383420e-004,1.426925e-003
2.493568e-004,1.606817e-003
3.780367e-004,1.759483e-003
4.953720e-004,1.931921e-003
5.681394e-004,2.150386e-003
5.822390e-004,2.396727e-003
5.520949e-004,2.616650e-003
5.016925e-004,2.749221e-003
4.512902e-004,2.749707e-003
4.109359e-004,2.608385e-003
3.812780e-004,2.353293e-003
3.524303e-004,2.027540e-003
3.149932e-004,1.668078e-003
2.652392e-004,1.307644e-003
2.059233e-004,9.689272e-004
1.448246e-004,6.715371e-004
8.988448e-005,4.373526e-004
5.293359e-005,2.785285e-004
4.239934e-005,1.861513e-004
5.844381e-005,1.443384e-004
9.426025e-005,1.370455e-004
1.357490e-004,1.551968e-004
1.701068e-004,1.924718e-004
1.864754e-004,2.402811e-004
1.786963e-004,2.877662e-004
1.461212e-004,3.219621e-004
9.344992e-005,3.386548e-004
2.327564e-005,3.415720e-004
-6.861539e-005,3.378445e-004
-1.848162e-004,3.324963e-004
-3.191683e-004,3.247172e-004
-4.533584e-004,3.111037e-004
-5.608077e-004,2.882525e-004
-6.207718e-004,2.333123e-004
-6.246614e-004,9.896014e-005
-5.802555e-004,-1.399241e-004
-5.055434e-004,-4.496309e-004
-4.230522e-004,-7.585273e-004
-3.496366e-004,-9.925496e-004
-2.937241e-004,-1.112154e-003
-2.562870e-004,-1.139057e-003
-2.353806e-004,-1.142136e-003
-2.235498e-004,-1.173739e-003
-2.122052e-004,-1.222844e-003
-1.927574e-004,-1.228355e-003
-1.567789e-004,-1.133384e-003
-1.016767e-004,-9.055205e-004
-3.620233e-005,-5.569181e-004
2.619281e-005,-1.848162e-004
7.708132e-005,3.462021e-005
1.156529e-004,-5.824321e-005
1.474177e-004,-4.917678e-004
1.769136e-004,-1.132736e-003
2.064095e-004,-1.754257e-003
2.399570e-004,-2.145969e-003
2.874421e-004,-2.193616e-003
3.503235e-004,-1.901412e-003
4.239012e-004,-1.360276e-003
4.911583e-004,-6.867324e-004
5.295678e-004,4.385793e-005
5.225990e-004,8.274441e-004
4.780310e-004,1.697250e-003
4.209840e-004,2.671591e-003
3.720402e-004,3.713031e-003
3.365479e-004,4.726114e-003
3.052693e-004,4.958681e-003
2.686426e-004,4.958843e-003
2.198609e-004,4.958519e-003
1.584381e-004,4.958681e-003
9.393611e-005,4.958681e-003
3.137890e-005,4.958681e-003
-2.550602e-005,4.958519e-003
-7.266703e-005,4.745238e-003
-1.039456e-004,3.885956e-003
-1.199901e-004,3.076919e-003
-1.211245e-004,2.340652e-003
-9.973194e-005,1.641175e-003
-4.835723e-005,9.360280e-004
3.008238e-005,2.034923e-004
1.279698e-004,-5.151053e-004
2.346088e-004,-1.119447e-003
3.310377e-004,-1.533524e-003
3.982948e-004,-1.755877e-003
4.235770e-004,-1.849713e-003
3.999155e-004,-1.896388e-003
3.159656e-004,-1.965752e-003
1.676758e-004,-2.162013e-003
-1.950961e-005,-2.663282e-003
-1.942160e-004,-3.533251e-003
-3.141443e-004,-4.584575e-003
-3.668155e-004,-4.967539e-003
-3.645466e-004,-4.967702e-003
-3.303509e-004,-4.967539e-003
-2.976136e-004,-4.967539e-003
-2.922655e-004,-4.402088e-003
-3.199787e-004,-3.337152e-003
-3.664914e-004,-2.216467e-003
-4.115455e-004,-1.069693e-003
-4.481723e-004,1.064151e-004
-4.828543e-004,1.291276e-003
-5.254775e-004,2.434974e-003
-5.734488e-004,3.427469e-003
-6.144513e-004,4.103450e-003
-6.335750e-004,4.304576e-003
-6.181788e-004,3.956941e-003
-5.548113e-004,3.115653e-003
-4.332623e-004,1.924953e-003
-2.512630e-004,5.608465e-004
-1.626830e-005,-7.616066e-004
2.501671e-004,-1.844041e-003
5.201680e-004,-2.613366e-003
7.665075e-004,-3.071201e-003
9.713582e-004,-3.277349e-003
1.116407e-003,-3.314786e-003
1.194522e-003,-3.247367e-003
1.211215e-003,-3.090811e-003
1.175561e-003,-2.832155e-003
1.099228e-003,-2.482255e-003
1.000206e-003,-2.127331e-003
8.964840e-004,-1.864623e-003
8.010274e-004,-1.713740e-003
7.180499e-004,-1.609370e-003
6.378275e-004,-1.469184e-003
5.537155e-004,-1.259633e-003
4.624727e-004,-1.002922e-003
3.611819e-004,-7.389174e-004
2.534084e-004,-5.001953e-004
1.404489e-004,-3.023136e-004
9.824214e-006,-1.486757e-004
-1.499722e-004,-2.226472e-005
-3.509331e-004,1.038221e-004
-5.930586e-004,2.501671e-004
-8.594940e-004,4.226046e-004
-1.120257e-003,6.093039e-004
-1.340018e-003,7.567835e-004
-1.486201e-003,7.820657e-004
-1.531093e-003,6.477135e-004
-1.467239e-003,4.054257e-004
-1.311494e-003,1.551968e-004
-1.088978e-003,-1.886135e-005
-8.209224e-004,-6.472583e-005
-5.319600e-004,2.700314e-005
-2.507768e-004,2.240746e-004
2.623614e-007,4.696036e-004
2.085163e-004,7.104328e-004
3.710678e-004,9.169042e-004
4.862963e-004,1.082049e-003
5.595500e-004,1.228880e-003
6.109247e-004,1.387705e-003
6.569512e-004,1.552201e-003
7.000606e-004,1.678613e-003
7.321496e-004,1.718319e-003
7.381460e-004,1.647334e-003
7.076777e-004,1.465820e-003
6.503065e-004,1.197278e-003
5.888838e-004,8.760637e-004
5.469088e-004,5.295678e-004
5.366987e-004,1.934442e-004
5.597120e-004,-1.002181e-004
6.036317e-004,-3.382920e-004
6.447963e-004,-5.447632e-004
6.598684e-004,-7.465344e-004
6.310208e-004,-9.439299e-004
5.503122e-004,-1.108750e-003
4.269804e-004,-1.201938e-003
2.863077e-004,-1.199345e-003
1.676758e-004,-1.109561e-003
1.018773e-004,-9.637020e-004
1.026876e-004,-7.881852e-004
1.756170e-004,-5.883588e-004
3.120761e-004,-3.593605e-004
4.802999e-004,-1.096179e-004
6.339379e-004,1.492004e-004
7.229118e-004,3.997534e-004
7.216153e-004,6.264829e-004
6.302104e-004,8.182063e-004
4.608521e-004,9.626067e-004
2.243987e-004,1.050770e-003
-7.266703e-005,1.077025e-003
-4.097628e-004,1.043477e-003
-7.447518e-004,9.551517e-004
-1.025287e-003,8.209614e-004
-1.219765e-003,6.616511e-004
-1.322352e-003,4.939134e-004
-1.358007e-003,3.299032e-004
-1.366758e-003,1.829100e-004
-1.379075e-003,7.529860e-005
-1.403385e-003,2.781346e-005
-1.433367e-003,3.818564e-005
-1.453139e-003,7.448828e-005
-1.429154e-003,9.798775e-005
-1.329159e-003,7.967437e-005
-1.150725e-003,1.484824e-005
-9.273993e-004,-7.639453e-005
-7.107180e-004,-1.635857e-004
-5.434667e-004,-2.227395e-004
-4.452551e-004,-2.423494e-004
-4.099249e-004,-2.250084e-004
-4.162455e-004,-1.862748e-004
-4.410414e-004,-1.413827e-004
-4.559515e-004,-1.031353e-004
-4.190006e-004,-8.093235e-005
-2.835140e-004,-7.072224e-005
-1.707863e-005,-6.213279e-005
3.590750e-004,-4.219875e-005
7.694246e-004,-1.383732e-005
1.140068e-003,1.971020e-005
1.415418e-003,5.925414e-005
1.558522e-003,1.054428e-004
1.566139e-003,1.535762e-004
1.474410e-003,1.949028e-004
1.341840e-003,2.239125e-004
1.221749e-003,2.425500e-004
1.148334e-003,2.563256e-004
1.127589e-003,2.712356e-004
1.149954e-003,2.882525e-004
1.197116e-003,3.094830e-004
1.249787e-003,3.292550e-004
1.285765e-003,3.474063e-004
1.277986e-003,3.704196e-004
1.187716e-003,4.039671e-004
9.888613e-004,4.435111e-004
6.986020e-004,4.833791e-004
3.705817e-004,5.159543e-004
6.119892e-005,5.371849e-004
-1.864369e-004,5.456123e-004
-3.400748e-004,5.467467e-004
-3.938804e-004,5.407503e-004
-3.698948e-004,5.256782e-004
-2.993964e-004,4.929410e-004
-1.919471e-004,4.368664e-004
-3.198863e-005,3.590750e-004
1.924718e-004,2.694529e-004
4.522626e-004,1.889064e-004
6.921194e-004,1.294284e-004
8.561296e-004,9.361198e-005
9.113940e-004,7.821578e-005
8.483505e-004,7.821578e-005
6.704027e-004,8.178122e-005
4.072085e-004,7.853991e-005
1.190562e-004,6.914012e-005
-1.337657e-004,6.087479e-005
-3.109030e-004,5.277152e-005
-3.971218e-004,2.165498e-005
-4.034423e-004,-9.730095e-005
-3.546606e-004,-3.732981e-004
-2.681178e-004,-8.358325e-004
-1.478653e-004,-1.441470e-003
-9.461557e-006,-2.082439e-003
1.091703e-004,-2.612718e-003
1.681620e-004,-2.885312e-003
1.464453e-004,-2.805575e-003
5.260946e-005,-2.373347e-003
-9.227693e-005,-1.686675e-003
-2.797865e-004,-8.765109e-004
-5.071640e-004,-4.446767e-005
-7.674409e-004,7.520836e-004
-1.042304e-003,1.478948e-003
-1.308415e-003,2.115380e-003
-1.549082e-003,2.650684e-003
-1.757336e-003,3.074650e-003
-1.928315e-003,3.382900e-003
-2.049054e-003,3.565388e-003
-2.101887e-003,3.608497e-003
-2.071257e-003,3.505261e-003
-1.951004e-003,3.249196e-003
-1.764791e-003,2.847109e-003
-1.554268e-003,2.345838e-003
-1.353307e-003,1.814424e-003
-1.176008e-003,1.304727e-003
-1.010539e-003,8.365197e-004
-8.381014e-004,4.031568e-004
-6.462161e-004,-7.516774e-006
-4.350450e-004,-4.274279e-004
-2.193361e-004,-9.439299e-004
-1.918548e-005,-1.634814e-003
1.453108e-004,-2.454218e-003
2.688046e-004,-3.237157e-003
3.564820e-004,-3.803253e-003
4.193634e-004,-4.038573e-003
4.728449e-004,-3.934851e-003
5.418848e-004,-3.573606e-003
6.548443e-004,-3.078819e-003
8.206373e-004,-2.552591e-003
1.032133e-003,-2.033819e-003
1.277824e-003,-1.494142e-003
1.543612e-003,-8.742419e-004
1.799190e-003,-1.352242e-004
1.994317e-003,7.152948e-004
2.080212e-003,1.620593e-003
2.029161e-003,2.490563e-003
1.856075e-003,3.213055e-003
1.608924e-003,3.710762e-003
1.348161e-003,3.960831e-003
1.129048e-003,3.981414e-003
9.815684e-004,3.813188e-003
9.019942e-004,3.504288e-003
8.600192e-004,3.099122e-003
8.248510e-004,2.634478e-003
7.691005e-004,2.133694e-003
6.742922e-004,1.606007e-003
5.352401e-004,1.043477e-003
3.637749e-004,4.381629e-004
1.680000e-004,-1.853024e-004
-4.625038e-005,-7.654961e-004
-2.674695e-004,-1.233703e-003
-4.792888e-004,-1.544058e-003
-6.625847e-004,-1.694779e-003
-8.124951e-004,-1.718764e-003
-9.338820e-004,-1.667552e-003
-1.027069e-003,-1.592677e-003
-1.083306e-003,-1.540006e-003
-1.069693e-003,-1.534334e-003
-9.429576e-004,-1.564640e-003
-6.846256e-004,-1.595919e-003
-3.222476e-004,-1.594136e-003
9.490851e-005,-1.543572e-003
4.984512e-004,-1.452167e-003
8.110754e-004,-1.335966e-003
9.757340e-004,-1.207124e-003
9.750857e-004,-1.075527e-003
8.342508e-004,-9.450644e-004
6.110867e-004,-8.180052e-004
3.736609e-004,-6.971046e-004
1.744826e-004,-5.794452e-004
3.769945e-005,-4.596789e-004
-4.074016e-005,-3.337542e-004
-8.336334e-005,-2.039399e-004
-1.143178e-004,-8.012203e-005
-1.462447e-004,1.760335e-005
-1.783336e-004,6.508849e-005
-2.066950e-004,4.839576e-005
-2.227395e-004,-1.270286e-005
-2.199844e-004,-9.162867e-005
-2.023193e-004,-1.710407e-004
-1.736337e-004,-2.438080e-004
-1.412206e-004,-3.133340e-004
-1.169109e-004,-4.003631e-004
-1.135075e-004,-5.436288e-004
-1.344139e-004,-7.828371e-004
-1.781715e-004,-1.131926e-003
-2.391081e-004,-1.551513e-003
-3.055549e-004,-1.942415e-003
-3.655190e-004,-2.207230e-003
-4.128421e-004,-2.296041e-003
-4.452551e-004,-2.214361e-003
-4.551411e-004,-2.004162e-003
-4.358554e-004,-1.726868e-003
-3.872357e-004,-1.457029e-003
-3.168994e-004,-1.253961e-003
-2.335979e-004,-1.112316e-003
-1.413827e-004,-9.517092e-004
-4.900549e-005,-6.667983e-004
2.829966e-005,-2.088019e-004
7.935023e-005,3.955397e-004
9.636710e-005,1.051257e-003
8.178122e-005,1.635503e-003
4.175108e-005,2.045692e-003
-8.489165e-006,2.227368e-003
-4.576419e-005,2.198358e-003
-4.722277e-005,2.042937e-003
-4.113402e-006,1.876819e-003
7.092283e-005,1.789466e-003
1.522796e-004,1.784604e-003
2.162954e-004,1.793517e-003
2.529222e-004,1.724153e-003
2.626462e-004,1.515574e-003
2.453051e-004,1.188526e-003
2.068957e-004,8.446230e-004
1.582760e-004,5.948801e-004
1.094944e-004,4.911583e-004
6.914012e-005,5.272989e-004
4.904402e-005,6.637580e-004
5.520250e-005,8.212855e-004
7.756751e-005,9.216041e-004
1.002567e-004,9.451036e-004
1.127357e-004,9.326246e-004
1.013911e-004,9.459139e-004
4.564065e-005,1.027919e-003
-6.942573e-005,1.181557e-003
-2.350565e-004,1.357560e-003
-4.125179e-004,1.487699e-003
-5.424943e-004,1.528540e-003
-5.804176e-004,1.480082e-003
-5.110536e-004,1.379926e-003
-3.504469e-004,1.283983e-003
-1.371690e-004,1.241197e-003
8.453633e-005,1.280093e-003
2.773941e-004,1.394025e-003
4.143393e-004,1.539560e-003
4.825688e-004,1.645227e-003
4.793275e-004,1.646199e-003
4.187151e-004,1.513144e-003
3.237448e-004,1.262752e-003
2.046267e-004,9.412140e-004
5.439218e-005,6.024972e-004
-1.326312e-004,2.861456e-004
-3.373197e-004,7.879431e-006
-5.142949e-004,-2.452666e-004
-6.160719e-004,-5.044090e-004
-6.167202e-004,-7.857542e-004
-5.147811e-004,-1.064831e-003
-3.235441e-004,-1.295936e-003
-7.023605e-005,-1.444550e-003
2.083542e-004,-1.497545e-003
4.809482e-004,-1.474532e-003
7.235601e-004,-1.407923e-003
9.164180e-004,-1.323811e-003
1.048015e-003,-1.239213e-003
1.111383e-003,-1.162394e-003
1.109924e-003,-1.096596e-003
1.052715e-003,-1.043762e-003
9.514242e-004,-9.993564e-004
8.225821e-004,-9.606227e-004
6.872574e-004,-9.225374e-004
5.657084e-004,-8.844520e-004
4.679830e-004,-8.487977e-004
3.991052e-004,-8.180052e-004
3.563199e-004,-7.956403e-004
3.336308e-004,-7.958023e-004
3.279585e-004,-8.249740e-004
3.381686e-004,-8.761867e-004
3.566440e-004,-9.335578e-004
3.738230e-004,-9.841222e-004
3.786849e-004,-1.022856e-003
3.696093e-004,-1.059483e-003
3.546993e-004,-1.137436e-003
3.423823e-004,-1.319759e-003
3.326584e-004,-1.648590e-003
3.248792e-004,-2.108856e-003
3.205035e-004,-2.607855e-003
3.140208e-004,-2.999892e-003
2.863077e-004,-3.161958e-003
2.218057e-004,-3.045109e-003
1.143563e-004,-2.683864e-003
-1.805102e-005,-2.174979e-003
-1.413827e-004,-1.652317e-003
-2.305186e-004,-1.220089e-003
-2.833519e-004,-8.693800e-004
-3.188442e-004,-4.731303e-004
-3.601709e-004,1.404489e-004
-4.240246e-004,1.041695e-003
-5.160776e-004,2.122673e-003
-6.180167e-004,3.176590e-003
-7.034251e-004,4.017231e-003
-7.476689e-004,4.536981e-003
-7.410243e-004,4.712014e-003
-6.870566e-004,4.588356e-003
-6.053756e-004,4.260169e-003
-5.290429e-004,3.838957e-003
-4.813957e-004,3.424390e-003
-4.643788e-004,3.071571e-003
-4.606513e-004,2.786496e-003
-4.475240e-004,2.543721e-003
-4.053871e-004,2.293004e-003
-3.344025e-004,1.948290e-003
-2.564491e-004,1.378143e-003
-1.925954e-004,5.025028e-004
-1.455964e-004,-6.081308e-004
-1.067007e-004,-1.728650e-003
-7.315322e-005,-2.629896e-003
-4.851930e-005,-3.146886e-003
-4.203669e-005,-3.228243e-003
-6.942573e-005,-2.940414e-003
-1.464067e-004,-2.430070e-003
-2.676316e-004,-1.848741e-003
-3.943666e-004,-1.291884e-003
-4.815578e-004,-7.633893e-004
-5.104053e-004,-2.180396e-004
-4.967919e-004,3.657197e-004
-4.810716e-004,9.511000e-004
-4.997090e-004,1.471655e-003
-5.674524e-004,1.864826e-003
-6.727948e-004,2.102901e-003
-7.922369e-004,2.211485e-003
-8.957966e-004,2.246654e-003
-9.521953e-004,2.254108e-003
-9.371233e-004,2.249571e-003
-8.468529e-004,2.216347e-003
-7.003458e-004,2.114246e-003
-5.236947e-004,1.905018e-003
-3.454229e-004,1.576187e-003
-1.882196e-004,1.146713e-003
-6.423963e-005,6.697544e-004
2.359977e-005,2.175920e-004
8.761556e-005,-1.613168e-004
1.513072e-004,-4.535204e-004
2.419018e-004,-6.799257e-004
3.764160e-004,-8.672731e-004
5.512845e-004,-1.029014e-003
7.475458e-004,-1.165311e-003
9.514242e-004,-1.270167e-003
1.144120e-003,-1.336452e-003
1.303268e-003,-1.358331e-003
1.411852e-003,-1.338883e-003
1.465172e-003,-1.287833e-003
1.469872e-003,-1.220251e-003
1.441024e-003,-1.148456e-003
1.390298e-003,-1.079741e-003
1.316072e-003,-1.014915e-003
1.212998e-003,-9.559228e-004
1.082049e-003,-9.056826e-004
9.339211e-004,-8.603043e-004
7.943827e-004,-8.163846e-004
6.997365e-004,-7.755441e-004
6.666752e-004,-7.387553e-004
6.838541e-004,-7.043975e-004
7.164293e-004,-6.685811e-004
7.219394e-004,-6.301716e-004
6.741302e-004,-5.881967e-004
5.734875e-004,-5.455735e-004
4.384870e-004,-5.094330e-004
2.905214e-004,-4.823681e-004
1.527658e-004,-4.681063e-004
4.175108e-005,-4.891748e-004
-3.944364e-005,-5.627525e-004
-9.778715e-005,-6.713362e-004
-1.297140e-004,-7.624169e-004
-1.384655e-004,-7.873749e-004
-1.434896e-004,-7.334072e-004
-1.587237e-004,-6.274165e-004
-1.809267e-004,-5.168880e-004
-1.925954e-004,-4.368277e-004
-1.888679e-004,-3.922598e-004
-1.762267e-004,-3.566054e-004
-1.611547e-004,-2.985860e-004
-1.394379e-004,-2.088019e-004
-1.152902e-004,-1.154523e-004
-9.973194e-005,-5.694669e-005
-1.008664e-004,-5.402952e-005
-1.195039e-004,-1.063766e-004
-1.475412e-004,-2.055606e-004
-1.695821e-004,-3.254889e-004
-1.820611e-004,-4.360174e-004
-1.885437e-004,-5.035987e-004
-2.065330e-004,-5.157535e-004
-2.501285e-004,-5.364979e-004
-3.262992e-004,-7.103939e-004
-4.280762e-004,-1.131926e-003
-5.369841e-004,-1.722978e-003
-6.293613e-004,-2.270759e-003
-6.867324e-004,-2.555670e-003
-7.065043e-004,-2.455514e-003
-6.919185e-004,-1.982607e-003
-6.507539e-004,-1.233541e-003
-5.925724e-004,-3.305129e-004
-5.298532e-004,6.070351e-004
-4.749131e-004,1.493533e-003
-4.287245e-004,2.332548e-003
-3.909633e-004,3.169135e-003
-3.624398e-004,4.026468e-003
-3.392644e-004,4.873110e-003
-3.178718e-004,4.958519e-003
-2.972895e-004,4.958681e-003
-2.750866e-004,4.958681e-003
-2.515871e-004,4.958681e-003
-2.360288e-004,4.958519e-003
-2.313289e-004,4.958681e-003
-2.290600e-004,4.257900e-003
-2.194982e-004,3.380307e-003
-2.003745e-004,2.516169e-003
-1.734716e-004,1.707298e-003
-1.441378e-004,9.736271e-004
-1.180453e-004,3.229344e-004
-9.486997e-005,-2.556388e-004
-7.282909e-005,-7.705201e-004
-5.176060e-005,-1.220738e-003
-3.328516e-005,-1.584898e-003
-2.113026e-005,-1.826052e-003
-2.064406e-005,-1.916646e-003
-3.409548e-005,-1.859437e-003
-5.662256e-005,-1.685055e-003
-7.720485e-005,-1.437905e-003
-8.644258e-005,-1.160773e-003
-8.725291e-005,-8.886657e-004
-8.239095e-005,-6.452437e-004
-7.736692e-005,-4.455793e-004
-7.509801e-005,-3.016653e-004
-7.817725e-005,-2.224154e-004
-8.093235e-005,-2.071812e-004
-7.218083e-005,-2.444563e-004
-4.219875e-005,-3.005308e-004
8.365628e-006,-3.485022e-004
7.076077e-005,-3.826979e-004
1.292664e-004,-4.128421e-004
1.761032e-004,-4.504412e-004
2.133783e-004,-4.971160e-004
2.516257e-004,-5.512458e-004
3.026763e-004,-6.092652e-004
3.663680e-004,-6.700397e-004
4.370285e-004,-7.335693e-004
4.971547e-004,-8.003402e-004
5.318367e-004,-8.695420e-004
5.439916e-004,-9.356646e-004
5.435054e-004,-9.849325e-004
5.511225e-004,-1.012808e-003
5.773771e-004,-1.017184e-003
6.146522e-004,-1.001949e-003
6.368551e-004,-9.735879e-004
6.242140e-004,-9.343681e-004
5.710566e-004,-8.901243e-004
4.866205e-004,-8.444219e-004
3.900295e-004,-7.998540e-004
3.021901e-004,-7.614445e-004
2.384984e-004,-7.290315e-004
2.067336e-004,-6.966184e-004
2.073818e-004,-6.588572e-004
2.341226e-004,-6.162340e-004
2.767458e-004,-5.721523e-004
3.260137e-004,-5.282326e-004
3.720402e-004,-4.817198e-004
4.083429e-004,-4.339106e-004
4.258459e-004,-3.890185e-004
4.201737e-004,-3.512573e-004
3.903536e-004,-3.198166e-004
3.380065e-004,-2.901587e-004
2.748010e-004,-2.592042e-004
2.184023e-004,-2.267911e-004
1.775618e-004,-1.927574e-004
1.547106e-004,-1.571030e-004
1.422316e-004,-1.253383e-004
1.292664e-004,-9.940780e-005
1.073875e-004,-7.833932e-005
7.805372e-005,-5.678463e-005
4.693717e-005,-3.069211e-005
1.906194e-005,-6.176923e-008
-1.034161e-006,3.316162e-005
-1.205460e-005,6.541262e-005
-1.318906e-005,9.199134e-005
1.072688e-006,1.107909e-004
3.283749e-005,1.235941e-004
7.805372e-005,1.321835e-004
1.261871e-004,1.420695e-004
1.595726e-004,1.594105e-004
1.598967e-004,1.864754e-004
1.073875e-004,2.185644e-004
-9.461557e-006,2.485465e-004
-1.716889e-004,2.691287e-004
-3.282440e-004,2.816078e-004
-4.243487e-004,2.882525e-004
-4.350450e-004,2.934386e-004
-3.760532e-004,2.987867e-004
-2.890242e-004,3.042969e-004
-2.139880e-004,3.107795e-004
-1.788198e-004,3.174242e-004
-1.893540e-004,3.200173e-004
-2.323013e-004,3.179104e-004
-2.838381e-004,3.159656e-004
-3.241924e-004,3.158036e-004
-3.473677e-004,3.183966e-004
-3.548227e-004,3.250413e-004
-3.497987e-004,3.336308e-004
-3.348887e-004,3.435167e-004
-3.109030e-004,3.540510e-004
-2.799485e-004,3.611819e-004
-2.554767e-004,3.631267e-004
-2.545043e-004,3.623164e-004
-2.784900e-004,3.613439e-004
-3.130099e-004,3.569682e-004
-3.308370e-004,3.449753e-004
-3.102547e-004,3.273102e-004
-2.528836e-004,3.112657e-004
-1.707165e-004,3.038107e-004
-8.271508e-005,3.047831e-004
-1.682422e-006,3.124002e-004
6.411610e-005,3.227724e-004
1.171115e-004,3.279585e-004
1.697827e-004,3.237448e-004
2.307192e-004,3.114278e-004
3.018659e-004,2.968419e-004
3.785229e-004,2.778803e-004
4.525867e-004,2.540566e-004
5.200059e-004,2.276400e-004
5.717048e-004,2.018716e-004
5.929354e-004,1.791825e-004
5.760806e-004,1.594105e-004
5.230852e-004,1.449867e-004
4.391353e-004,1.347766e-004
3.297412e-004,1.269974e-004
1.955511e-004,1.214872e-004
4.418206e-005,1.182459e-004
-1.101041e-004,1.216493e-004
-2.519113e-004,1.363972e-004
-3.724878e-004,1.647587e-004
-4.749131e-004,1.942546e-004
-5.577284e-004,1.765894e-004
-6.136409e-004,4.693717e-005
-6.338991e-004,-2.065330e-004
-5.985689e-004,-5.149432e-004
-4.828543e-004,-7.742476e-004
-2.754107e-004,-9.037378e-004
8.689757e-006,-8.825072e-004
3.328204e-004,-7.460483e-004
6.465790e-004,-5.554595e-004
8.940530e-004,-3.617915e-004
1.041046e-003,-1.959987e-004
1.083508e-003,-6.423963e-005
1.043477e-003,5.001641e-005
9.635790e-004,1.710792e-004
8.841670e-004,3.112657e-004
8.272820e-004,4.681450e-004
7.997308e-004,6.256726e-004
7.995688e-004,7.553250e-004
8.157754e-004,8.263096e-004
8.204752e-004,8.138305e-004
7.841726e-004,7.037881e-004
6.929297e-004,4.929410e-004
5.530672e-004,2.102990e-004
3.872744e-004,-7.671866e-005
2.245608e-004,-2.955068e-004
8.648111e-005,-4.045767e-004
-2.096819e-005,-3.966356e-004
-9.973194e-005,-2.796244e-004
-1.467309e-004,-6.715681e-005
-1.630995e-004,2.213195e-004
-1.494860e-004,5.525811e-004
-1.105903e-004,8.880566e-004
-6.229485e-005,1.195981e-003
-2.518189e-005,1.459014e-003
-7.516774e-006,1.670833e-003
-1.367526e-005,1.836951e-003
-4.365734e-005,1.949911e-003
-8.514606e-005,1.983296e-003
-1.180453e-004,1.910205e-003
-1.316588e-004,1.725125e-003
-1.381414e-004,1.454638e-003
-1.553203e-004,1.154654e-003
-2.006986e-004,8.771982e-004
-2.781658e-004,6.444722e-004
-3.835083e-004,4.474007e-004
-5.063537e-004,2.589186e-004
-6.400576e-004,6.071273e-005
-7.774889e-004,-1.499722e-004
-9.055205e-004,-3.692465e-004
-1.015725e-003,-5.988930e-004
-1.106806e-003,-8.633835e-004
-1.179249e-003,-1.210203e-003
-1.227220e-003,-1.635949e-003
-1.241320e-003,-2.058940e-003
-1.210852e-003,-2.351306e-003
-1.132736e-003,-2.413701e-003
-1.008432e-003,-2.224571e-003
-8.416668e-004,-1.850848e-003
-6.428128e-004,-1.403385e-003
-4.358554e-004,-9.763431e-004
-2.499665e-004,-6.180167e-004
-1.149661e-004,-3.311612e-004
-5.467778e-005,-9.616650e-005
-7.995997e-005,1.107909e-004
-1.822232e-004,3.127243e-004
-3.288923e-004,5.177370e-004
-4.742648e-004,7.033019e-004
-5.804176e-004,8.214476e-004
-6.337370e-004,8.284165e-004
-6.405438e-004,7.169154e-004
-6.160719e-004,5.157922e-004
-5.765280e-004,2.704253e-004
-5.395771e-004,2.700314e-005
-5.142949e-004,-1.848162e-004
-4.857715e-004,-3.575778e-004
-4.256452e-004,-4.922540e-004
-3.027998e-004,-5.924104e-004
-1.094559e-004,-6.598295e-004
1.357490e-004,-6.996976e-004
3.950535e-004,-7.133111e-004
6.285898e-004,-7.082871e-004
8.125340e-004,-6.851117e-004
9.433209e-004,-6.429748e-004
1.023219e-003,-6.021343e-004
1.054012e-003,-6.251476e-004
1.037805e-003,-7.640375e-004
9.869165e-004,-1.003570e-003
9.160939e-004,-1.282971e-003
8.512677e-004,-1.517803e-003
8.130202e-004,-1.638218e-003
8.029722e-004,-1.614880e-003
7.987585e-004,-1.460918e-003
7.799589e-004,-1.228679e-003
7.331220e-004,-9.708328e-004
6.556546e-004,-7.087733e-004
5.535535e-004,-4.387725e-004
4.417284e-004,-1.579134e-004
3.422202e-004,1.454729e-004
2.783665e-004,4.888894e-004
2.626462e-004,8.715259e-004
2.976522e-004,1.260969e-003
3.718782e-004,1.606980e-003
4.572866e-004,1.853482e-003
5.266506e-004,1.960607e-003
5.778632e-004,1.898212e-003
6.289139e-004,1.642958e-003
6.903367e-004,1.170537e-003
7.608352e-004,4.380009e-004
8.319819e-004,-5.703695e-004
8.830325e-004,-1.756039e-003
8.882186e-004,-2.891957e-003
8.392748e-004,-3.707148e-003
7.537042e-004,-4.002109e-003
6.647304e-004,-3.734213e-003
6.000663e-004,-3.035061e-003
5.606844e-004,-2.138352e-003
5.397779e-004,-1.248775e-003
5.289195e-004,-4.689167e-004
5.133613e-004,1.973338e-004
4.723587e-004,7.806072e-004
3.931088e-004,1.329037e-003
2.780423e-004,1.909394e-003
1.448246e-004,2.566734e-003
1.484824e-005,3.284202e-003
-1.011905e-004,3.975903e-003
-2.018331e-004,4.542167e-003
-2.890242e-004,4.920595e-003
-3.666535e-004,4.958681e-003
-4.340726e-004,4.958519e-003
-4.846370e-004,4.958681e-003
-5.125122e-004,4.847016e-003
-5.120260e-004,4.640056e-003
-4.869059e-004,4.378965e-003
-4.470378e-004,4.052399e-003
-4.019837e-004,3.643828e-003
-3.635742e-004,3.123918e-003
-3.438023e-004,2.482297e-003
-3.476918e-004,1.749597e-003
-3.687603e-004,9.958302e-004
-3.953390e-004,2.944109e-004
-4.199730e-004,-2.963171e-004
-4.428242e-004,-7.504240e-004
-4.645409e-004,-1.075689e-003
-4.794509e-004,-1.309873e-003
-4.750752e-004,-1.504838e-003
-4.413656e-004,-1.704989e-003
-3.788084e-004,-1.914863e-003
-3.000446e-004,-2.099942e-003
-2.292221e-004,-2.225057e-003
-1.906506e-004,-2.268977e-003
-1.964849e-004,-2.234457e-003
-2.353806e-004,-2.146455e-003
-2.875656e-004,-2.035440e-003
-3.376438e-004,-1.923291e-003
-3.784843e-004,-1.819083e-003
-4.094387e-004,-1.727030e-003
-4.314796e-004,-1.645025e-003
-4.379622e-004,-1.571933e-003
-4.191626e-004,-1.507269e-003
-3.776739e-004,-1.452005e-003
-3.253268e-004,-1.411002e-003
-2.749245e-004,-1.396740e-003
-2.314910e-004,-1.419916e-003
-1.958366e-004,-1.501110e-003
-1.673132e-004,-1.684731e-003
-1.470550e-004,-2.015992e-003
-1.332795e-004,-2.467507e-003
-1.203142e-004,-2.917725e-003
-1.024870e-004,-3.213009e-003
-7.428768e-005,-3.249150e-003
-3.587821e-005,-3.014478e-003
4.476060e-006,-2.576091e-003
4.126489e-005,-2.036088e-003
7.011251e-005,-1.482149e-003
8.826383e-005,-9.601365e-004
9.847395e-005,-4.661616e-004
1.057669e-004,3.202716e-005
1.197045e-004,5.337815e-004
1.492004e-004,9.966404e-004
1.978200e-004,1.364853e-003
2.613496e-004,1.565653e-003
3.321721e-004,1.540533e-003
3.974845e-004,1.294031e-003
4.378388e-004,9.165801e-004
4.344354e-004,5.391297e-004
3.751195e-004,2.527601e-004
2.647530e-004,5.034054e-005
1.297525e-004,-1.652063e-004
1.072688e-006,-4.802612e-004
-9.632856e-005,-8.667869e-004
-1.507825e-004,-1.191728e-003
-1.619650e-004,-1.292857e-003
-1.438137e-004,-1.057862e-003
-1.133454e-004,-4.927402e-004
-8.060822e-005,2.767458e-004
-4.544005e-005,1.066329e-003
-8.489165e-006,1.746518e-003
2.003433e-005,2.293329e-003
3.267542e-005,2.744196e-003
2.651694e-005,3.146769e-003
5.610517e-006,3.529895e-003
-2.826113e-005,3.890170e-003
-7.947377e-005,4.192425e-003
-1.321450e-004,4.366972e-003
-1.571030e-004,4.343796e-003
-1.344139e-004,4.084812e-003
-6.650855e-005,3.596018e-003
3.429608e-005,2.941755e-003
1.459591e-004,2.256215e-003
2.438465e-004,1.687526e-003
3.114278e-004,1.300027e-003
3.504856e-004,1.060980e-003
3.717161e-004,8.697432e-004
3.825745e-004,6.289139e-004
3.762539e-004,2.926282e-004
3.456236e-004,-1.177212e-004
2.932765e-004,-5.428185e-004
2.281262e-004,-9.158927e-004
1.636242e-004,-1.194483e-003
1.247285e-004,-1.369351e-003
1.389903e-004,-1.451681e-003
2.174299e-004,-1.460594e-003
3.440029e-004,-1.415702e-003
4.895377e-004,-1.336452e-003
6.247002e-004,-1.253313e-003
7.216153e-004,-1.193186e-003
7.632662e-004,-1.164663e-003
7.533801e-004,-1.162232e-003
7.118914e-004,-1.169363e-003
6.624614e-004,-1.167742e-003
6.255105e-004,-1.145215e-003
6.084936e-004,-1.101782e-003
6.076833e-004,-1.047814e-003
6.039558e-004,-9.969254e-004
5.768909e-004,-9.534919e-004
5.143337e-004,-9.175134e-004
4.166082e-004,-8.862347e-004
2.973281e-004,-8.549562e-004
1.746447e-004,-8.171949e-004
6.492643e-005,-7.676030e-004
-1.675450e-005,-7.133111e-004
-6.521203e-005,-6.642053e-004
-8.968388e-005,-6.251476e-004
-1.073490e-004,-5.919242e-004
-1.305243e-004,-5.564319e-004
-1.574272e-004,-5.186707e-004
-1.780095e-004,-4.817198e-004
-1.838438e-004,-4.455793e-004
-1.768750e-004,-4.086284e-004
-1.653684e-004,-3.716775e-004
-1.630995e-004,-3.361852e-004
-1.807646e-004,-2.990722e-004
-2.170672e-004,-2.551526e-004
-2.653627e-004,-2.023193e-004
-3.133340e-004,-1.524032e-004
-3.509331e-004,-1.305243e-004
-3.799428e-004,-1.545100e-004
-4.003631e-004,-2.125294e-004
-4.057112e-004,-2.692523e-004
-3.904771e-004,-2.883759e-004
-3.528779e-004,-2.593662e-004
-2.977757e-004,-1.982676e-004
-2.386219e-004,-1.363587e-004
-1.903264e-004,-1.036215e-004
-1.637477e-004,-1.128592e-004
-1.546721e-004,-1.530514e-004
-1.528894e-004,-1.971332e-004
-1.527273e-004,-2.203085e-004
-1.502963e-004,-2.237119e-004
-1.373311e-004,-3.023136e-004
-1.185315e-004,-6.382748e-004
-1.055663e-004,-1.318139e-003
-1.062145e-004,-2.211767e-003
-1.201522e-004,-3.051429e-003
-1.392759e-004,-3.564530e-003
-1.519170e-004,-3.587219e-003
-1.488377e-004,-3.105559e-003
-1.261486e-004,-2.231053e-003
-9.017008e-005,-1.153643e-003
-5.532604e-005,-6.877746e-005
-3.960571e-005,8.984287e-004
-5.305713e-005,1.746680e-003
-8.838737e-005,2.540804e-003
-1.233935e-004,3.311429e-003
-1.321450e-004,4.042513e-003
-1.002181e-004,4.690945e-003
-3.441962e-005,4.958519e-003
3.656499e-005,4.958681e-003
8.080882e-005,4.958519e-003
8.599491e-005,4.958519e-003
6.136099e-005,4.922702e-003
2.651694e-005,4.298741e-003
-1.196226e-006,3.585322e-003
-9.785687e-006,2.869636e-003
-1.358292e-006,2.229961e-003
1.695509e-005,1.705516e-003
3.688912e-005,1.285765e-003
5.001641e-005,9.240351e-004
4.904402e-005,5.648981e-004
3.267542e-005,1.830720e-004
8.041497e-006,-1.927574e-004
-1.562004e-005,-5.144570e-004
-3.150244e-005,-7.488034e-004
-4.090223e-005,-8.904485e-004
-5.111234e-005,-9.523574e-004
-6.326724e-005,-9.534919e-004
-7.266703e-005,-9.069791e-004
-6.748093e-005,-8.332395e-004
-4.381940e-005,-7.520447e-004
-3.465141e-006,-6.726327e-004
4.628891e-005,-5.890070e-004
8.988448e-005,-4.935506e-004
1.130598e-004,-3.865875e-004
1.141943e-004,-2.877277e-004
1.025256e-004,-2.256567e-004
9.134307e-005,-2.147983e-004
8.956035e-005,-2.506147e-004
9.490851e-005,-3.224097e-004
1.031738e-004,-4.178661e-004
1.133840e-004,-5.296912e-004
1.291043e-004,-6.494574e-004
1.561692e-004,-7.671168e-004
1.957131e-004,-8.710006e-004
2.414156e-004,-9.510609e-004
2.822560e-004,-1.001301e-003
3.153174e-004,-1.020749e-003
3.478925e-004,-1.009566e-003
3.901916e-004,-9.718052e-004
4.355699e-004,-9.189720e-004
4.757621e-004,-8.641938e-004
5.115786e-004,-8.158984e-004
5.488536e-004,-7.765166e-004
5.804563e-004,-7.450759e-004
5.846700e-004,-7.160662e-004
5.389676e-004,-6.898117e-004
4.264942e-004,-6.646915e-004
2.367157e-004,-6.363300e-004
-1.626830e-005,-6.039171e-004
-2.859450e-004,-5.695592e-004
-5.176983e-004,-5.319600e-004
-6.825187e-004,-4.901472e-004
-7.839716e-004,-4.483344e-004
-8.356704e-004,-4.126800e-004
-8.368049e-004,-3.823738e-004
-7.844577e-004,-3.514193e-004
-6.820326e-004,-3.136581e-004
-5.447632e-004,-2.724935e-004
-3.846427e-004,-2.371633e-004
-2.053985e-004,-2.120432e-004
-1.682422e-006,-1.961608e-004
2.292607e-004,-1.841679e-004
4.713863e-004,-1.720131e-004
6.958469e-004,-1.598582e-004
8.718500e-004,-1.462447e-004
9.733030e-004,-1.344139e-004
9.946957e-004,-1.225831e-004
9.488311e-004,-1.097800e-004
8.642329e-004,-9.422171e-005
7.716935e-004,-7.590833e-005
6.832058e-004,-5.791909e-005
6.036317e-004,-4.122636e-005
5.253541e-004,-2.339917e-005
4.415663e-004,-6.058186e-006
3.480546e-004,1.241726e-005
2.466016e-004,3.397195e-005
1.488763e-004,5.585077e-005
6.281957e-005,7.691926e-005
-6.058186e-006,9.652916e-005
-5.743289e-005,1.130598e-004
-9.486997e-005,1.245665e-004
-1.230693e-004,1.292664e-004
-1.533756e-004,1.291043e-004
-1.883817e-004,1.224596e-004
-2.243601e-004,1.060910e-004
-2.522354e-004,8.226741e-005
-2.695764e-004,4.402000e-005
-2.815692e-004,-3.198863e-005
-2.977757e-004,-1.399241e-004
-3.198166e-004,-2.420253e-004
-3.382920e-004,-3.010170e-004
-3.433161e-004,-3.039342e-004
-3.322956e-004,-2.619593e-004
-3.110651e-004,-2.091260e-004
-2.835140e-004,-1.793060e-004
-2.509389e-004,-1.786577e-004
-2.139880e-004,-1.875713e-004
-1.830335e-004,-1.718510e-004
-1.692580e-004,-1.002181e-004
-1.827094e-004,3.526847e-005
-2.240360e-004,2.146748e-004
-2.801106e-004,4.135290e-004
-3.303509e-004,6.110867e-004
-3.663293e-004,7.989205e-004
-3.838324e-004,9.796235e-004
-3.870737e-004,1.148658e-003
-3.801049e-004,1.283821e-003
-3.643846e-004,1.356426e-003
-3.347266e-004,1.329523e-003
-2.844864e-004,1.167620e-003
-2.133397e-004,8.853014e-004
-1.316588e-004,5.499880e-004
-5.646050e-005,2.532463e-004
-4.761663e-006,6.298164e-005
1.501031e-005,-2.168618e-006
3.341602e-006,3.283749e-005
-2.275091e-005,1.156529e-004
-4.009190e-005,1.923098e-004
-4.252288e-005,2.349330e-004
-3.733679e-005,2.469258e-004
-3.652646e-005,2.516257e-004
-4.284701e-005,2.738286e-004
-5.111234e-005,3.337928e-004
-5.338126e-005,4.307079e-004
-4.851930e-005,5.454502e-004
-5.127441e-005,6.566271e-004
-8.287714e-005,7.541904e-004
-1.681235e-004,8.217717e-004
-3.133340e-004,8.412196e-004
-4.922540e-004,7.994067e-004
-6.572365e-004,7.036260e-004
-7.651720e-004,5.728393e-004
-7.876991e-004,4.318423e-004
-7.165524e-004,3.018659e-004
-5.648593e-004,1.965235e-004
-3.549847e-004,1.138701e-004
-1.138316e-004,3.899597e-005
1.372075e-004,-4.560212e-005
3.781987e-004,-1.509446e-004
5.913147e-004,-2.780037e-004
7.564594e-004,-4.139765e-004
8.540228e-004,-5.423322e-004
8.869221e-004,-6.556159e-004
8.794671e-004,-7.875370e-004
8.681225e-004,-1.015725e-003
8.814118e-004,-1.373241e-003
9.301936e-004,-1.793477e-003
1.007337e-003,-2.133976e-003
1.093231e-003,-2.273190e-003
1.159192e-003,-2.160555e-003
1.182854e-003,-1.826376e-003
1.155627e-003,-1.346662e-003
1.083832e-003,-7.995298e-004
9.839993e-004,-2.525595e-004
8.780085e-004,2.553532e-004
7.875760e-004,7.065432e-004
7.188602e-004,1.093231e-003
6.572753e-004,1.411204e-003
5.861287e-004,1.667106e-003
4.984512e-004,1.872281e-003
3.910019e-004,2.026568e-003
2.751252e-004,2.108249e-003
1.702689e-004,2.095932e-003
8.745350e-005,1.989455e-003
2.165498e-005,1.808103e-003
-3.895744e-005,1.577646e-003
-1.084835e-004,1.322230e-003
-1.908126e-004,1.059036e-003
-2.814071e-004,8.016757e-004
-3.679500e-004,5.600361e-004
-4.355312e-004,3.273102e-004
-4.763717e-004,6.460230e-005
-4.906334e-004,-3.023136e-004
-4.807474e-004,-8.350221e-004
-4.493068e-004,-1.532065e-003
-4.037664e-004,-2.316138e-003
-3.449367e-004,-3.042030e-003
-2.768693e-004,-3.541030e-003
-2.115570e-004,-3.701800e-003
-1.710407e-004,-3.514128e-003
-1.609926e-004,-3.073308e-003
-1.710407e-004,-2.523906e-003
-1.908126e-004,-1.966400e-003
-2.159328e-004,-1.409057e-003
-2.379736e-004,-8.024470e-004
-2.457528e-004,-1.172350e-004
-2.355427e-004,6.123832e-004
-2.128535e-004,1.289655e-003
-1.930815e-004,1.806482e-003
-1.914609e-004,2.091070e-003
-2.126914e-004,2.127535e-003
-2.502906e-004,1.919442e-003
-2.891863e-004,1.481217e-003
-3.073376e-004,9.008597e-004
-2.946965e-004,3.349273e-004
-2.496423e-004,-3.976777e-005
-1.802784e-004,-9.179074e-005
-1.026491e-004,2.119197e-004
-3.733679e-005,7.417114e-004
-4.923729e-006,1.272152e-003
-6.220251e-006,1.619134e-003
-2.761287e-005,1.736632e-003
-4.997788e-005,1.718967e-003
-5.986387e-005,1.716536e-003
-5.808115e-005,1.850726e-003
-4.981582e-005,2.169024e-003
-3.636440e-005,2.619892e-003
-1.594417e-005,3.075136e-003
1.598270e-005,3.382739e-003
5.941620e-005,3.436220e-003
1.083599e-004,3.215810e-003
1.504969e-004,2.776610e-003
1.686482e-004,2.203058e-003
1.581140e-004,1.578618e-003
1.268354e-004,9.676307e-004
9.426025e-005,4.041292e-004
7.967437e-005,-1.125351e-004
7.951231e-005,-6.373025e-004
6.930219e-005,-1.267412e-003
2.100672e-005,-2.024582e-003
-8.174268e-005,-2.797796e-003
-2.337599e-004,-3.399709e-003
-4.097628e-004,-3.676842e-003
-5.740970e-004,-3.586571e-003
-6.941874e-004,-3.196316e-003
-7.471828e-004,-2.634596e-003
-7.225489e-004,-2.033333e-003
-6.241752e-004,-1.486038e-003
-4.706994e-004,-1.032742e-003
-2.921034e-004,-6.616123e-004
-1.203142e-004,-3.442885e-004
1.808955e-005,-6.634648e-005
1.081979e-004,1.720516e-004
1.569795e-004,3.645853e-004
1.855030e-004,4.969927e-004
2.125679e-004,5.422089e-004
2.407673e-004,4.879170e-004
2.676701e-004,3.577785e-004
3.000832e-004,1.934442e-004
3.582647e-004,3.267542e-005
4.663623e-004,-9.827335e-005
6.276174e-004,-2.000504e-004
8.152892e-004,-2.904828e-004
9.890234e-004,-3.955011e-004
1.109924e-003,-5.303394e-004
1.156761e-003,-6.911082e-004
1.132451e-003,-8.577112e-004
1.055632e-003,-1.005515e-003
9.457518e-004,-1.112154e-003
8.188545e-004,-1.165473e-003
6.857989e-004,-1.167742e-003
5.470709e-004,-1.130305e-003
4.025085e-004,-1.065155e-003
2.594048e-004,-9.677536e-004
1.273216e-004,-8.306463e-004
1.419998e-005,-6.692293e-004
-7.850138e-005,-5.240189e-004
-1.502963e-004,-4.309934e-004
-1.995642e-004,-4.031182e-004
-2.216050e-004,-4.267797e-004
-2.039399e-004,-4.723200e-004
-1.418689e-004,-5.058675e-004
-5.176060e-005,-5.089468e-004
3.883391e-005,-4.833405e-004
1.013911e-004,-4.352071e-004
1.206769e-004,-3.679500e-004
1.013911e-004,-2.867553e-004
5.957827e-005,-2.003745e-004
1.517237e-005,-1.242038e-004
-2.015787e-005,-8.433573e-005
-4.689864e-005,-1.091317e-004
-7.655659e-005,-1.977814e-004
-1.177212e-004,-3.057169e-004
-1.603444e-004,-3.747567e-004
-1.925954e-004,-3.637363e-004
-2.070192e-004,-2.608248e-004
-2.109087e-004,-9.000801e-005
-2.157707e-004,1.034980e-004
-2.271153e-004,2.820940e-004
-2.408908e-004,4.286011e-004
-2.502906e-004,5.454502e-004
-2.512630e-004,6.472273e-004
-2.433218e-004,7.490044e-004
-2.298704e-004,8.567779e-004
-2.141500e-004,9.647135e-004
-1.985918e-004,1.051743e-003
-1.812508e-004,1.098093e-003
-1.653684e-004,1.098256e-003
-1.549962e-004,1.051743e-003
-1.478653e-004,9.637411e-004
-1.396000e-004,8.511056e-004
-1.255003e-004,7.316634e-004
-1.096179e-004,6.200003e-004
-9.600443e-005,5.300540e-004
-8.644258e-005,4.665244e-004
-7.898758e-005,4.230909e-004
-7.655659e-005,3.927846e-004
-7.963584e-005,3.653956e-004
-9.276313e-005,3.336308e-004
-1.172350e-004,2.887386e-004
-1.467309e-004,2.227780e-004
-1.643960e-004,1.339663e-004
-1.611547e-004,4.061663e-005
-1.349001e-004,-3.522994e-005
-9.308726e-005,-8.060822e-005
-4.770897e-005,-9.276313e-005
-1.196226e-006,-8.303921e-005
4.547859e-005,-7.007398e-005
9.426025e-005,-7.218083e-005
1.456350e-004,-9.373551e-005
1.963614e-004,-1.232314e-004
2.360674e-004,-1.467309e-004
2.621599e-004,-1.818990e-004
2.801492e-004,-3.185201e-004
2.898731e-004,-6.402197e-004
2.911697e-004,-1.111019e-003
2.777182e-004,-1.580685e-003
2.454672e-004,-1.872564e-003
1.929580e-004,-1.892823e-003
1.289422e-004,-1.664473e-003
6.298164e-005,-1.302256e-003
5.772582e-006,-9.217270e-004
-3.263690e-005,-5.679386e-004
-4.657451e-005,-2.206326e-004
-2.793700e-005,1.475797e-004
2.133085e-005,5.331332e-004
8.712937e-005,9.219282e-004
1.543865e-004,1.325309e-003
2.127300e-004,1.753811e-003
2.556773e-004,2.186365e-003
2.723700e-004,2.578403e-003
2.542187e-004,2.876443e-003
1.966855e-004,3.042561e-003
1.012291e-004,3.060226e-003
-2.420950e-005,2.950993e-003
-1.592099e-004,2.773368e-003
-2.703867e-004,2.591206e-003
-3.324577e-004,2.443726e-003
-3.382920e-004,2.336924e-003
-3.010170e-004,2.241954e-003
-2.520733e-004,2.126725e-003
-2.212809e-004,1.974545e-003
-2.280877e-004,1.790600e-003
-2.658489e-004,1.612004e-003
-3.049066e-004,1.482027e-003
-3.196545e-004,1.412663e-003
-2.979378e-004,1.371174e-003
-2.491561e-004,1.289979e-003
-1.929195e-004,1.111545e-003
-1.459205e-004,8.326301e-004
-1.131834e-004,4.943996e-004
-9.162867e-005,1.522796e-004
-8.044616e-005,-1.483515e-004
-7.347736e-005,-3.891806e-004
-6.018800e-005,-5.802555e-004
-3.441962e-005,-7.567446e-004
5.124321e-006,-9.810430e-004
5.147500e-005,-1.293505e-003
9.879807e-005,-1.655073e-003
1.500107e-004,-1.967859e-003
2.086784e-004,-2.144024e-003
2.759355e-004,-2.149858e-003
3.478925e-004,-2.009834e-003
4.193634e-004,-1.786022e-003
4.837033e-004,-1.542437e-003
5.388056e-004,-1.320246e-003
5.806184e-004,-1.132088e-003
6.029834e-004,-9.677536e-004
5.956905e-004,-8.050401e-004
5.412365e-004,-6.324405e-004
4.318423e-004,-4.580583e-004
2.722080e-004,-2.943724e-004
7.416414e-005,-1.601823e-004
-1.363587e-004,-7.412562e-005
-3.272716e-004,-4.819516e-005
-4.812336e-004,-8.012203e-005
-6.000275e-004,-1.524032e-004
-6.899737e-004,-2.488320e-004
-7.407001e-004,-3.522297e-004
-7.290315e-004,-4.476861e-004
-6.377887e-004,-5.269360e-004
-4.739407e-004,-5.937069e-004
-2.579077e-004,-6.515642e-004
-1.513384e-005,-7.082871e-004
2.171058e-004,-7.622548e-004
4.028327e-004,-8.110364e-004
5.203301e-004,-8.484736e-004
5.679773e-004,-8.679213e-004
5.668428e-004,-8.661386e-004
5.517707e-004,-8.424771e-004
5.545259e-004,-8.022850e-004
5.887217e-004,-7.538274e-004
6.425274e-004,-7.082871e-004
6.883919e-004,-6.749016e-004
7.049225e-004,-6.573986e-004
6.815851e-004,-6.544814e-004
6.217830e-004,-6.595054e-004
5.407503e-004,-6.588572e-004
4.521005e-004,-6.381128e-004
3.689610e-004,-5.932207e-004
2.984626e-004,-5.301774e-004
2.388225e-004,-4.587065e-004
1.911753e-004,-3.848048e-004
1.655690e-004,-3.128478e-004
1.658931e-004,-2.502906e-004
1.890685e-004,-2.021572e-004
2.263435e-004,-1.724992e-004
2.618358e-004,-1.583996e-004
2.832284e-004,-1.494860e-004
2.807975e-004,-1.365208e-004
2.414156e-004,-1.131834e-004
1.561692e-004,-7.882551e-005
3.964423e-005,-3.976777e-005
-7.477388e-005,-3.951337e-006
-1.561307e-004,3.073064e-005
-1.945401e-004,6.995045e-005
-1.995642e-004,1.153287e-004
-1.865989e-004,1.592484e-004
-1.692580e-004,1.884202e-004
-1.613168e-004,1.783722e-004
-1.703924e-004,1.117633e-004
-1.919471e-004,-1.124428e-005
-2.135018e-004,-1.947022e-004
-2.164190e-004,-4.643788e-004
-1.930815e-004,-8.217327e-004
-1.483515e-004,-1.202910e-003
-9.000801e-005,-1.491711e-003
-2.809907e-005,-1.580361e-003
2.424803e-005,-1.426398e-003
5.585077e-005,-1.076337e-003
5.147500e-005,-6.225546e-004
1.396819e-006,-1.486757e-004
-8.741497e-005,2.971661e-004
-1.874093e-004,6.955228e-004
-2.684419e-004,1.053850e-003
-3.147926e-004,1.380412e-003
-3.271095e-004,1.678937e-003
-3.178718e-004,1.953152e-003
-3.040963e-004,2.205003e-003
-3.045825e-004,2.430112e-003
-3.253268e-004,2.615354e-003
-3.502849e-004,2.742576e-003
-3.567675e-004,2.793141e-003
-3.279199e-004,2.756028e-003
-2.629317e-004,2.637395e-003
-1.817370e-004,2.451343e-003
-1.094559e-004,2.204354e-003
-6.553616e-005,1.890271e-003
-5.548810e-005,1.505526e-003
-6.764300e-005,1.070542e-003
-8.709084e-005,6.326414e-004
-1.011905e-004,2.436845e-004
-1.011905e-004,-5.840528e-005
-8.384953e-005,-2.561249e-004
-4.803310e-005,-3.532020e-004
9.013888e-006,-3.728119e-004
8.567078e-005,-3.497987e-004
1.686482e-004,-3.193304e-004
2.419018e-004,-2.976136e-004
2.953833e-004,-2.929138e-004
3.195311e-004,-3.019894e-004
3.130485e-004,-3.164132e-004
2.908455e-004,-3.262992e-004
2.726942e-004,-3.262992e-004
2.657254e-004,-3.144684e-004
2.705873e-004,-2.919414e-004
2.786906e-004,-2.664971e-004
2.780423e-004,-2.452666e-004
2.615117e-004,-2.332737e-004
2.349330e-004,-2.298704e-004
2.096508e-004,-2.314910e-004
1.994406e-004,-2.337599e-004
2.112714e-004,-2.311669e-004
2.388225e-004,-2.263049e-004
2.679943e-004,-2.216050e-004
2.798251e-004,-2.185258e-004
2.681563e-004,-2.151224e-004
2.346088e-004,-2.092881e-004
1.880961e-004,-2.008607e-004
1.342904e-004,-1.906506e-004
7.027457e-005,-1.827094e-004
-9.623623e-006,-1.812508e-004
-1.076731e-004,-1.880575e-004
-2.157707e-004,-2.032917e-004
-3.162512e-004,-2.201465e-004
-3.857772e-004,-2.319772e-004
-4.089525e-004,-2.366771e-004
-3.861013e-004,-2.371633e-004
-3.262992e-004,-2.340841e-004
-2.447804e-004,-2.311669e-004
-1.595340e-004,-2.274394e-004
-8.773910e-005,-2.188499e-004
-3.587821e-005,-2.031296e-004
-4.437533e-006,-1.838438e-004
9.824214e-006,-1.692580e-004
1.938607e-005,-1.611547e-004
4.418206e-005,-1.558065e-004
9.344992e-005,-1.525652e-004
1.641104e-004,-1.483515e-004
2.441707e-004,-1.442999e-004
3.112657e-004,-1.420310e-004
3.274723e-004,-1.417068e-004
2.629703e-004,-1.441378e-004
1.080358e-004,-1.485136e-004
-1.151281e-004,-1.585616e-004
-3.579019e-004,-1.744440e-004
-5.677765e-004,-1.921091e-004
-7.013183e-004,-2.136638e-004
-7.398898e-004,-2.515871e-004
-6.972667e-004,-3.588744e-004
-6.016482e-004,-6.551297e-004
-4.705373e-004,-1.236458e-003
-3.032860e-004,-2.066881e-003
-9.956987e-005,-2.989844e-003
1.265113e-004,-3.804226e-003
3.490270e-004,-4.340503e-003
5.272989e-004,-4.507269e-003
6.227554e-004,-4.306955e-003
6.133557e-004,-3.813301e-003
5.068786e-004,-3.114959e-003
3.417340e-004,-2.283238e-003
1.680000e-004,-1.364489e-003
3.186510e-005,-3.875599e-004
-3.911951e-005,5.940698e-004
-4.349527e-005,1.510550e-003
-6.176923e-008,2.375982e-003
6.557468e-005,3.251626e-003
1.326697e-004,4.153529e-003
1.825858e-004,4.958519e-003
2.055991e-004,4.958519e-003
2.023578e-004,4.958681e-003
1.775618e-004,4.958843e-003
1.276457e-004,4.958519e-003
4.580272e-005,4.958519e-003
-5.678463e-005,4.958681e-003
-1.506204e-004,4.958681e-003
-2.083157e-004,4.958681e-003
-2.175534e-004,4.640704e-003
-1.883817e-004,4.103775e-003
-1.405724e-004,3.494078e-003
-8.968388e-005,2.827499e-003
-4.495386e-005,2.111653e-003
-1.075808e-005,1.370364e-003
9.662150e-006,6.516030e-004
1.679302e-005,7.879431e-006
1.711715e-005,-5.259637e-004
1.954813e-005,-9.504127e-004
3.348575e-005,-1.284753e-003
7.043664e-005,-1.546327e-003
1.355869e-004,-1.744209e-003
2.258573e-004,-1.889257e-003
3.192069e-004,-1.997355e-003
3.879227e-004,-2.078712e-003
4.094774e-004,-2.130735e-003
3.791711e-004,-2.148886e-003
3.039728e-004,-2.131383e-003
1.960373e-004,-2.081305e-003
6.995045e-005,-2.007403e-003
-5.078821e-005,-1.915026e-003
-1.447861e-004,-1.810818e-003
-2.006986e-004,-1.706933e-003
-2.149604e-004,-1.615042e-003
-1.835197e-004,-1.539196e-003
-1.099420e-004,-1.477611e-003
-7.678839e-006,-1.424940e-003
1.080358e-004,-1.375996e-003
2.180782e-004,-1.327539e-003
3.067279e-004,-1.277784e-003
3.564820e-004,-1.224627e-003
3.629646e-004,-1.169687e-003
3.328204e-004,-1.115719e-003
2.767458e-004,-1.068234e-003
2.036543e-004,-1.027394e-003
1.244044e-004,-9.912531e-004
5.390598e-005,-9.551125e-004
3.665733e-006,-9.144341e-004
-2.550602e-005,-8.695420e-004
-4.381940e-005,-8.254602e-004
-6.278104e-005,-7.867267e-004
-8.336334e-005,-7.525309e-004
-1.052422e-004,-7.173627e-004
-1.264727e-004,-6.779809e-004
-1.480274e-004,-6.369783e-004
-1.666649e-004,-5.943552e-004
-1.736337e-004,-5.486528e-004
-1.566169e-004,-5.019780e-004
-1.083214e-004,-4.569239e-004
-4.041603e-005,-4.147868e-004
2.862379e-005,-3.741085e-004
9.053274e-005,-3.331059e-004
1.462832e-004,-2.906448e-004
2.030061e-004,-2.467252e-004
2.658874e-004,-2.053985e-004
3.334687e-004,-1.686097e-004
3.947294e-004,-1.365208e-004
4.334631e-004,-1.032974e-004
4.388112e-004,-6.504996e-005
4.143393e-004,-2.566809e-005
3.713920e-004,1.144487e-005
3.219621e-004,4.936815e-005
2.705873e-004,8.858796e-005
2.182402e-004,1.234320e-004
1.694586e-004,1.498487e-004
1.266733e-004,1.726999e-004
9.263960e-005,1.960373e-004
6.589881e-005,2.200230e-004
4.758544e-005,2.430362e-004
3.640293e-005,2.631323e-004
3.024445e-005,2.801492e-004
2.246531e-005,2.945730e-004
7.393235e-006,3.060797e-004
-1.886135e-005,3.180725e-004
-5.257093e-005,3.307136e-004
-8.384953e-005,3.405996e-004
-1.058904e-004,3.407616e-004
-1.118868e-004,3.277964e-004
-9.503204e-005,3.013797e-004
-5.646050e-005,2.663736e-004
-5.247859e-006,2.362295e-004
5.050261e-005,2.253711e-004
1.046324e-004,2.367157e-004
1.516314e-004,2.649151e-004
1.880961e-004,3.055935e-004
2.090025e-004,3.546993e-004
2.091646e-004,4.060740e-004
1.936063e-004,4.546936e-004
1.767515e-004,4.976409e-004
1.769136e-004,5.294057e-004
1.989545e-004,5.284333e-004
2.378501e-004,4.438352e-004
2.807975e-004,2.410914e-004
3.120761e-004,-4.949169e-005
3.138588e-004,-3.348887e-004
2.777182e-004,-5.186707e-004
2.083542e-004,-5.528664e-004
1.175977e-004,-4.493068e-004
2.197911e-005,-2.556388e-004
-6.391550e-005,-2.194059e-005
-1.287416e-004,2.177540e-004
-1.715269e-004,4.576108e-004
-2.044261e-004,7.008709e-004
-2.335979e-004,9.465622e-004
-2.682798e-004,1.187716e-003
-3.099306e-004,1.418983e-003
-3.535262e-004,1.634531e-003
-3.937184e-004,1.821554e-003
-4.241866e-004,1.949100e-003
-4.447689e-004,1.987024e-003
-4.569239e-004,1.918308e-003
-4.587065e-004,1.748463e-003
-4.470378e-004,1.499692e-003
-4.191626e-004,1.205381e-003
-3.776739e-004,9.023183e-004
-3.262992e-004,6.182176e-004
-2.700626e-004,3.697713e-004
-2.136638e-004,1.660552e-004
-1.687718e-004,1.225519e-005
-1.457585e-004,-9.098041e-005
-1.553203e-004,-1.477033e-004
-1.948643e-004,-1.630995e-004
-2.496423e-004,-1.431654e-004
-3.034480e-004,-1.002181e-004
-3.454229e-004,-5.111234e-005
-3.781601e-004,-1.659243e-005
-4.115455e-004,-2.728874e-005
-4.536825e-004,-1.259865e-004
-5.042469e-004,-3.245165e-004
-5.478425e-004,-5.710178e-004
-5.635628e-004,-7.768407e-004
-5.319600e-004,-8.729454e-004
-4.497929e-004,-8.406944e-004
-3.271095e-004,-7.060181e-004
-1.710407e-004,-5.118640e-004
1.808955e-005,-3.016653e-004
2.344468e-004,-1.026491e-004
4.527488e-004,7.562274e-005
6.506307e-004,2.363915e-004
8.154512e-004,3.809539e-004
9.353797e-004,5.114165e-004
1.009606e-003,6.219451e-004
1.048015e-003,7.086501e-004
1.063249e-003,7.616455e-004
1.065842e-003,7.661833e-004
1.059522e-003,7.144844e-004
1.057901e-003,6.125453e-004
1.078646e-003,4.770586e-004
1.121917e-003,3.294171e-004
1.160327e-003,1.892305e-004
1.158220e-003,6.525056e-005
1.095176e-003,-4.932962e-005
9.763822e-004,-1.718510e-004
8.212855e-004,-3.206269e-004
6.558168e-004,-5.021400e-004
4.982892e-004,-6.891634e-004
3.535648e-004,-8.439357e-004
2.235884e-004,-9.419852e-004
1.057669e-004,-9.805567e-004
-7.100305e-007,-9.735879e-004
-9.260106e-005,-9.343681e-004
-1.666649e-004,-8.718109e-004
-2.203085e-004,-7.901300e-004
-2.520733e-004,-6.972667e-004
-2.621213e-004,-6.194753e-004
-2.585559e-004,-5.656697e-004
-2.514251e-004,-5.073261e-004
-2.504527e-004,-4.005251e-004
-2.668213e-004,-2.229016e-004
-3.050687e-004,3.503668e-006
-3.544986e-004,2.211574e-004
-3.998769e-004,3.811159e-004
-4.264555e-004,4.655520e-004
-4.381243e-004,4.914824e-004
-4.507653e-004,4.623107e-004
-4.724821e-004,3.415720e-004
-5.031124e-004,1.017153e-004
-5.319600e-004,-2.227395e-004
-5.446011e-004,-5.420081e-004
-5.360117e-004,-7.575550e-004
-5.082985e-004,-8.066607e-004
-4.715097e-004,-7.043975e-004
-4.355312e-004,-5.397392e-004
-4.053871e-004,-4.005251e-004
-3.841565e-004,-3.181959e-004
-3.713534e-004,-2.682798e-004
-3.611433e-004,-2.139880e-004
-3.410472e-004,-1.332795e-004
-3.036101e-004,-2.210265e-005
-2.546663e-004,1.250527e-004
-2.049123e-004,3.111037e-004
-1.681235e-004,5.054200e-004
-1.519170e-004,6.311828e-004
-1.511066e-004,6.386379e-004
-1.538618e-004,5.509604e-004
-1.535376e-004,4.326527e-004
-1.454343e-004,3.373583e-004
-1.279313e-004,2.945730e-004
-1.042698e-004,3.120761e-004
-8.239095e-005,3.796573e-004
-7.428768e-005,4.730070e-004
-8.125648e-005,5.747841e-004
-9.730095e-005,6.734819e-004
-1.110765e-004,7.498147e-004
-1.201522e-004,7.616455e-004
-1.271210e-004,6.833678e-004
-1.339277e-004,5.464226e-004
-1.378173e-004,4.179047e-004
-1.355484e-004,3.292550e-004
-1.199901e-004,2.127300e-004
-9.033214e-005,-2.550602e-005
-5.467778e-005,-4.066836e-004
-2.015787e-005,-8.473391e-004
1.144487e-005,-1.203234e-003
4.094075e-005,-1.344231e-003
6.119892e-005,-1.205990e-003
6.654707e-005,-8.171949e-004
6.281957e-005,-2.846484e-004
6.038860e-005,2.736665e-004
6.606088e-005,7.830382e-004
7.935023e-005,1.218184e-003
9.523264e-005,1.584614e-003
1.096565e-004,1.883140e-003
1.210010e-004,2.110518e-003
1.342904e-004,2.273232e-003
1.600588e-004,2.371768e-003
2.033302e-004,2.379386e-003
2.556773e-004,2.253622e-003
2.997591e-004,1.975355e-003
3.234207e-004,1.571001e-003
3.243930e-004,1.098093e-003
3.081865e-004,6.164348e-004
2.824181e-004,1.710792e-004
2.566497e-004,-2.170672e-004
2.401191e-004,-5.488148e-004
2.378501e-004,-8.290257e-004
2.459534e-004,-1.057214e-003
2.558394e-004,-1.230948e-003
2.658874e-004,-1.352335e-003
2.746390e-004,-1.425426e-003
2.791768e-004,-1.459946e-003
2.751252e-004,-1.467563e-003
2.590807e-004,-1.457677e-003
2.342847e-004,-1.431584e-003
2.101370e-004,-1.384586e-003
1.926339e-004,-1.315059e-003
1.832341e-004,-1.228355e-003
1.770756e-004,-1.134195e-003
1.707551e-004,-1.039549e-003
1.642725e-004,-9.481437e-004
1.634621e-004,-8.708385e-004
1.744826e-004,-8.107123e-004
2.002510e-004,-7.659823e-004
2.346088e-004,-7.303280e-004
2.663736e-004,-6.927288e-004
2.869559e-004,-6.457299e-004
2.937627e-004,-5.877105e-004
2.901973e-004,-5.267740e-004
2.817698e-004,-4.732924e-004
2.710735e-004,-4.345588e-004
2.632944e-004,-4.107352e-004
2.611876e-004,-3.951770e-004
2.705873e-004,-3.825359e-004
2.869559e-004,-3.708672e-004
3.044590e-004,-3.663293e-004
3.124002e-004,-3.912874e-004
3.064038e-004,-5.068399e-004
2.944109e-004,-7.804061e-004
2.832284e-004,-1.199507e-003
2.783665e-004,-1.648104e-003
2.880904e-004,-1.967211e-003
3.120761e-004,-2.040302e-003
3.391410e-004,-1.849713e-003
3.576164e-004,-1.468697e-003
3.590750e-004,-1.005191e-003
3.415720e-004,-5.431426e-004
3.072141e-004,-1.182074e-004
2.605393e-004,2.816078e-004
2.049509e-004,6.895264e-004
1.346145e-004,1.122403e-003
4.418206e-005,1.565329e-003
-6.910160e-005,1.976328e-003
-1.990780e-004,2.305645e-003
-3.387782e-004,2.514549e-003
-4.802612e-004,2.593475e-003
-6.155858e-004,2.568679e-003
-7.408622e-004,2.475977e-003
-8.479874e-004,2.335628e-003
-9.314510e-004,2.152979e-003
-9.875256e-004,1.920415e-003
-1.008432e-003,1.638906e-003
-9.847704e-004,1.326444e-003
-9.128135e-004,1.008471e-003
-7.928851e-004,7.047605e-004
-6.287130e-004,4.174185e-004
-4.209453e-004,1.355869e-004
-1.801163e-004,-1.389517e-004
6.395403e-005,-3.864254e-004
2.683184e-004,-5.961379e-004
4.041292e-004,-7.817026e-004
4.671726e-004,-9.763431e-004
4.785172e-004,-1.187838e-003
4.686312e-004,-1.381830e-003
4.624727e-004,-1.509700e-003
4.673347e-004,-1.553620e-003
4.767345e-004,-1.575661e-003
4.783551e-004,-1.662203e-003
4.655520e-004,-1.821190e-003
4.305458e-004,-1.970614e-003
3.747953e-004,-2.009185e-003
3.067279e-004,-1.880830e-003
2.302331e-004,-1.581819e-003
1.477418e-004,-1.147808e-003
6.606088e-005,-6.351956e-004
2.369210e-006,-9.778715e-005
-2.258885e-005,4.245494e-004
-4.761663e-006,9.243592e-004
3.721326e-005,1.415256e-003
7.870197e-005,1.902101e-003
1.010670e-004,2.377441e-003
9.377405e-005,2.823123e-003
5.520250e-005,3.204627e-003
3.179537e-006,3.477547e-003
-3.668853e-005,3.607039e-003
-3.976777e-005,3.585484e-003
6.258778e-006,3.444648e-003
9.750155e-005,3.231530e-003
2.175920e-004,2.971414e-003
3.378445e-004,2.663974e-003
4.303838e-004,2.300297e-003
4.759242e-004,1.876495e-003
4.634451e-004,1.399535e-003
3.932708e-004,8.647191e-004
2.804733e-004,2.506533e-004
1.516314e-004,-4.269418e-004
3.462021e-005,-1.099999e-003
-4.155049e-005,-1.705799e-003
-5.370539e-005,-2.204961e-003
-8.720958e-007,-2.558101e-003
9.652916e-005,-2.728757e-003
2.031682e-004,-2.701043e-003
2.824181e-004,-2.481282e-003
3.164518e-004,-2.103670e-003
3.099692e-004,-1.629142e-003
2.832284e-004,-1.123174e-003
2.519498e-004,-6.326025e-004
2.224539e-004,-1.736337e-004
1.932822e-004,2.487085e-004
1.555209e-004,6.266450e-004
9.896014e-005,9.536931e-004
2.084466e-005,1.220939e-003
-6.845333e-005,1.421739e-003
-1.481895e-004,1.545881e-003
-2.060468e-004,1.583804e-003
-2.410529e-004,1.529512e-003
-2.587180e-004,1.385436e-003
-2.630937e-004,1.162434e-003
-2.613110e-004,8.840049e-004
-2.609869e-004,5.875872e-004
-2.661730e-004,3.172621e-004
-2.736280e-004,1.052807e-004
-2.822175e-004,-5.305713e-005
-2.953447e-004,-1.867610e-004
-3.167374e-004,-3.258130e-004
-3.465574e-004,-4.823681e-004
-3.796187e-004,-6.473506e-004
-4.044147e-004,-8.026091e-004
-4.073319e-004,-9.346923e-004
-3.812393e-004,-1.031769e-003
-3.259751e-004,-1.084927e-003
-2.570973e-004,-1.092058e-003
-1.924333e-004,-1.060131e-003
-1.449481e-004,-9.987081e-004
-1.201522e-004,-9.191340e-004
-1.183694e-004,-8.321049e-004
-1.332795e-004,-7.522067e-004
-1.567789e-004,-6.914323e-004
-1.810887e-004,-6.502677e-004
-1.992400e-004,-6.222304e-004
-2.079916e-004,-5.992171e-004
-2.088019e-004,-5.719902e-004
-2.018331e-004,-5.348772e-004
-1.856265e-004,-4.935506e-004
-1.587237e-004,-4.548170e-004
-1.245279e-004,-4.185144e-004
-9.519411e-005,-3.822118e-004
-8.158062e-005,-3.450988e-004
-8.417366e-005,-3.079858e-004
-9.405964e-005,-2.749245e-004
-1.000561e-004,-2.486699e-004
-9.843541e-005,-2.293842e-004
-9.065627e-005,-2.147983e-004
-7.590833e-005,-2.016710e-004
-5.370539e-005,-1.865989e-004
-2.761287e-005,-1.744440e-004
7.485573e-007,-1.815749e-004
2.716520e-005,-2.243601e-004
4.790957e-005,-2.958309e-004
5.941620e-005,-3.673017e-004
6.217131e-005,-4.152730e-004
6.411610e-005,-4.431483e-004
6.881599e-005,-4.685925e-004
7.221937e-005,-4.997090e-004
6.281957e-005,-5.329325e-004
2.538249e-005,-5.578905e-004
-4.414354e-005,-5.609698e-004
-1.332795e-004,-5.292050e-004
-2.269532e-004,-4.455793e-004
-3.052307e-004,-2.934000e-004
-3.527158e-004,-6.845333e-005
-3.650328e-004,2.138645e-004
-3.501228e-004,5.128751e-004
-3.123616e-004,7.804451e-004
-2.467252e-004,9.786512e-004
-1.449481e-004,1.097769e-003
-1.140634e-005,1.149954e-003
1.401247e-004,1.152872e-003
2.882525e-004,1.124348e-003
4.148255e-004,1.078321e-003
5.075269e-004,1.019816e-003
5.616568e-004,9.473725e-004
5.767288e-004,8.580744e-004
5.608465e-004,7.509491e-004
5.230852e-004,6.251864e-004
4.762483e-004,4.828930e-004
4.381629e-004,3.358997e-004
4.240632e-004,2.031682e-004
4.375147e-004,1.067393e-004
4.723587e-004,6.022653e-005
5.122268e-004,6.557468e-005
5.485294e-004,1.059289e-004
5.777012e-004,1.595726e-004
5.890458e-004,2.106232e-004
5.676532e-004,2.483844e-004
5.119027e-004,2.665357e-004
4.370285e-004,2.626462e-004
3.610198e-004,2.446569e-004
2.961937e-004,2.193747e-004
2.529222e-004,1.824238e-004
2.297469e-004,1.368834e-004
2.072198e-004,9.101894e-005
1.655690e-004,5.098881e-005
9.490851e-005,1.857574e-005
6.258778e-006,-1.043395e-005
-7.590833e-005,-3.685059e-005
-1.212866e-004,-5.402952e-005
-1.081593e-004,-6.132245e-005
-3.976777e-005,-6.229485e-005
6.006446e-005,-5.953974e-005
1.521176e-004,-5.694669e-005
2.038164e-004,-5.872941e-005
2.073818e-004,-6.667061e-005
1.717275e-004,-7.623246e-005
1.114392e-004,-7.963584e-005
4.499239e-005,-7.671866e-005
-7.678839e-006,-6.650855e-005
-3.830918e-005,-5.289506e-005
-5.078821e-005,-3.928157e-005
-5.192267e-005,-3.360929e-005
-4.479180e-005,-3.539201e-005
-3.458168e-005,-3.944364e-005
-2.874733e-005,-4.074016e-005
-3.393342e-005,-4.236081e-005
-4.965375e-005,-4.722277e-005
-6.764300e-005,-5.613637e-005
-7.234290e-005,-6.423963e-005
-5.111234e-005,-6.764300e-005
-8.813297e-006,-6.326724e-005
3.672705e-005,-4.949169e-005
7.238143e-005,-2.388537e-005
9.896014e-005,8.365628e-006
1.297525e-004,3.672705e-005
1.814514e-004,5.115087e-005
2.563256e-004,5.228533e-005
3.336308e-004,4.142695e-005
3.911640e-004,1.889987e-005
4.161220e-004,-1.626830e-005
4.029947e-004,-7.428768e-005
3.623164e-004,-1.927574e-004
3.158036e-004,-4.235384e-004
2.791768e-004,-8.186535e-004
2.493568e-004,-1.385072e-003
2.117576e-004,-2.064288e-003
1.488763e-004,-2.729243e-003
5.390598e-005,-3.200692e-003
-6.877746e-005,-3.320459e-003
-2.139880e-004,-3.029226e-003
-3.778360e-004,-2.401384e-003
-5.489769e-004,-1.601429e-003
-7.137973e-004,-7.812164e-004
-8.556044e-004,-2.323711e-005
-9.669433e-004,6.575995e-004
-1.045383e-003,1.289655e-003
-1.075851e-003,1.915877e-003
-1.036145e-003,2.557658e-003
-9.061688e-004,3.185665e-003
-6.899737e-004,3.728751e-003
-4.238625e-004,4.107664e-003
-1.694200e-004,4.274107e-003
1.338965e-005,4.226298e-003
1.077117e-004,4.010424e-003
1.338042e-004,3.701686e-003
1.313732e-004,3.369125e-003
1.346145e-004,3.032999e-003
1.709171e-004,2.624592e-003
2.501671e-004,2.018464e-003
3.605336e-004,1.161947e-003
4.728449e-004,1.574657e-004
5.593878e-004,-7.747338e-004
6.020110e-004,-1.427533e-003
5.963388e-004,-1.711471e-003
5.496639e-004,-1.646321e-003
4.802999e-004,-1.329159e-003
4.132048e-004,-8.975793e-004
3.684748e-004,-4.742648e-004
3.530786e-004,-1.271210e-004
3.640990e-004,1.420695e-004
3.966742e-004,3.658818e-004
4.420525e-004,5.598741e-004
4.851619e-004,7.117293e-004
5.119027e-004,8.065376e-004
5.149819e-004,8.216097e-004
4.877549e-004,7.146465e-004
4.213081e-004,4.357320e-004
3.143450e-004,-3.393342e-005
1.806411e-004,-6.303337e-004
4.969228e-005,-1.226248e-003
-4.706071e-005,-1.699641e-003
-8.465986e-005,-1.982607e-003
-6.715681e-005,-2.066557e-003
-2.777494e-005,-1.982121e-003
-3.789271e-006,-1.775649e-003
-1.545797e-005,-1.495924e-003
-5.970180e-005,-1.186704e-003
-1.217728e-004,-8.826694e-004
-1.857886e-004,-5.969482e-004
-2.426735e-004,-3.177098e-004
-2.812450e-004,-3.101624e-005
-2.998826e-004,2.605393e-004
-3.010170e-004,5.373469e-004
-2.914552e-004,7.741245e-004
-2.835140e-004,9.428347e-004
-2.817312e-004,1.027433e-003
-2.823795e-004,1.021923e-003
-2.788141e-004,9.348935e-004
-2.655248e-004,7.864415e-004
-2.408908e-004,6.088177e-004
-2.081536e-004,4.373526e-004
-1.729855e-004,2.950592e-004
-1.455964e-004,1.825858e-004
-1.295519e-004,8.648111e-005
-1.201522e-004,-6.868512e-006
-1.083214e-004,-1.092938e-004
-8.563225e-005,-2.175534e-004
-4.949169e-005,-3.183580e-004
-1.108221e-005,-4.097628e-004
9.338019e-006,-5.087847e-004
-2.006553e-006,-6.347094e-004
-4.495386e-005,-7.841336e-004
-1.047560e-004,-9.275614e-004
-1.567789e-004,-1.031121e-003
-1.849783e-004,-1.076175e-003
-1.885437e-004,-1.062238e-003
-1.781715e-004,-1.005353e-003
-1.608306e-004,-9.249683e-004
-1.383035e-004,-8.390738e-004
-1.136696e-004,-7.619307e-004
-1.008664e-004,-7.040733e-004
-1.081593e-004,-6.629088e-004
-1.289037e-004,-6.324405e-004
-1.491618e-004,-6.134789e-004
-1.541859e-004,-6.222304e-004
-1.293899e-004,-6.736051e-004
-7.201877e-005,-7.635513e-004
1.079661e-005,-8.719731e-004
1.083599e-004,-9.684018e-004
2.033302e-004,-1.023342e-003
2.769079e-004,-1.017184e-003
3.117519e-004,-9.515471e-004
2.963557e-004,-8.496080e-004
2.342847e-004,-7.418346e-004
1.385041e-004,-6.473506e-004
3.802358e-005,-5.591870e-004
