-2.588801e-004,4.830810e-003
-3.039342e-004,4.159201e-003
-3.219235e-004,3.398783e-003
-3.113892e-004,2.602875e-003
-2.760590e-004,1.790762e-003
-2.241981e-004,9.629308e-004
-1.665028e-004,1.292664e-004
-1.148040e-004,-6.791154e-004
-7.720485e-005,-1.407437e-003
-5.500191e-005,-1.986334e-003
-4.706071e-005,-2.354871e-003
-5.370539e-005,-2.501379e-003
-6.812920e-005,-2.473665e-003
-7.639453e-005,-2.360219e-003
-6.197072e-005,-2.255201e-003
-1.967167e-005,-2.221329e-003
3.364782e-005,-2.253904e-003
6.589881e-005,-2.297824e-003
4.726130e-005,-2.269625e-003
-3.296103e-005,-2.112259e-003
-1.645580e-004,-1.858465e-003
-3.190063e-004,-1.619742e-003
-4.604893e-004,-1.514562e-003
-5.565939e-004,-1.586357e-003
-5.800934e-004,-1.777270e-003
-5.223982e-004,-1.965104e-003
-4.055491e-004,-2.036250e-003
-2.699005e-004,-1.940470e-003
-1.460826e-004,-1.698506e-003
-5.240886e-005,-1.385072e-003
5.772582e-006,-1.115395e-003
3.008238e-005,-1.044248e-003
2.667901e-005,-1.260444e-003
3.179537e-006,-1.675169e-003
-3.117831e-005,-2.063477e-003
-6.893953e-005,-2.229108e-003
-1.010285e-004,-2.108207e-003
-1.216107e-004,-1.755391e-003
-1.279313e-004,-1.288967e-003
-1.219349e-004,-8.116847e-004
-1.060525e-004,-3.663293e-004
-8.692878e-005,5.860587e-005
-6.974985e-005,4.777069e-004
-5.483985e-005,8.648811e-004
-3.944364e-005,1.152547e-003
-2.469570e-005,1.278635e-003
-1.237873e-005,1.232284e-003
-2.330684e-006,1.058549e-003
8.041497e-006,8.358714e-004
2.505835e-005,6.493341e-004
5.131293e-005,5.647360e-004
8.664317e-005,6.123832e-004
1.240803e-004,7.755831e-004
1.516314e-004,9.972887e-004
1.628139e-004,1.187716e-003
1.602208e-004,1.269559e-003
1.470936e-004,1.203112e-003
1.250527e-004,9.838373e-004
1.002567e-004,5.971491e-004
8.161915e-005,1.322759e-005
7.302969e-005,-7.317865e-004
7.319175e-005,-1.493331e-003
7.886404e-005,-2.087787e-003
9.118101e-005,-2.405111e-003
1.054428e-004,-2.488737e-003
1.138701e-004,-2.533305e-003
1.111150e-004,-2.732160e-003
9.571883e-005,-3.198585e-003
6.832980e-005,-3.961592e-003
3.267542e-005,-4.858468e-003
-8.720958e-007,-4.967539e-003
-1.821308e-005,-4.967702e-003
-1.529591e-005,-4.967702e-003
-2.238345e-007,-3.564368e-003
1.160693e-005,-1.651345e-003
9.013888e-006,3.934329e-004
-3.789271e-006,2.229637e-003
-1.529591e-005,3.756303e-003
-1.950961e-005,4.958519e-003
-1.367526e-005,4.958681e-003
-1.844488e-006,4.958681e-003
1.355172e-005,4.958843e-003
3.299956e-005,4.958843e-003
5.325772e-005,4.958843e-003
7.043664e-005,4.958843e-003
7.902610e-005,4.958681e-003
7.999850e-005,4.958519e-003
7.902610e-005,4.958681e-003
8.194328e-005,4.528391e-003
9.717742e-005,3.619194e-003
1.276457e-004,2.729124e-003
1.692965e-004,1.865475e-003
2.077060e-004,9.877268e-004
2.234263e-004,-5.247859e-006
2.101370e-004,-1.199831e-003
1.756170e-004,-2.557939e-003
1.310491e-004,-3.886717e-003
8.858796e-005,-4.912112e-003
6.622294e-005,-4.967863e-003
7.384001e-005,-4.967702e-003
1.120874e-004,-4.818762e-003
1.696206e-004,-3.983795e-003
2.354192e-004,-3.046243e-003
2.987867e-004,-2.158772e-003
3.425443e-004,-1.391554e-003
3.551854e-004,-7.337313e-004
3.365479e-004,-1.564548e-004
2.911697e-004,3.595612e-004
2.242366e-004,8.468920e-004
1.493625e-004,1.322068e-003
8.923622e-005,1.768397e-003
6.038860e-005,2.118621e-003
6.087479e-005,2.278905e-003
7.983643e-005,2.197710e-003
9.831188e-005,1.916525e-003
1.044704e-004,1.525947e-003
9.458438e-005,1.096149e-003
6.768153e-005,6.721854e-004
3.316162e-005,2.782044e-004
2.693341e-006,-7.688072e-005
-1.594417e-005,-3.933942e-004
-1.805102e-005,-7.504240e-004
-5.896120e-006,-1.346176e-003
1.355172e-005,-2.268814e-003
3.364782e-005,-3.319972e-003
5.179913e-005,-4.113610e-003
6.476436e-005,-4.311656e-003
7.124698e-005,-3.784940e-003
7.432621e-005,-2.626169e-003
7.302969e-005,-1.047004e-003
6.784360e-005,7.120535e-004
5.909207e-005,2.414392e-003
5.212327e-005,4.000213e-003
4.904402e-005,4.958519e-003
4.223728e-005,4.958681e-003
2.359977e-005,4.958843e-003
-5.734055e-006,4.958843e-003
-3.377135e-005,4.958681e-003
-4.787104e-005,4.958681e-003
-4.689864e-005,4.958681e-003
-3.587821e-005,4.958681e-003
-2.356124e-005,3.739123e-003
-1.335112e-005,2.190417e-003
-4.437533e-006,8.395989e-004
4.151929e-006,-3.005308e-004
2.019640e-005,-1.252502e-003
4.191315e-005,-2.056833e-003
6.071273e-005,-2.737184e-003
6.444023e-005,-3.301659e-003
4.969228e-005,-3.747665e-003
2.522042e-005,-4.044083e-003
6.258778e-006,-4.163689e-003
2.045080e-006,-4.118634e-003
9.500084e-006,-3.973585e-003
2.392390e-005,-3.811843e-003
4.045456e-005,-3.688186e-003
4.823369e-005,-3.601481e-003
4.126489e-005,-3.524662e-003
2.100672e-005,-3.428394e-003
-1.075808e-005,-3.294204e-003
-4.365734e-005,-3.124035e-003
-6.699474e-005,-2.932473e-003
-7.185670e-005,-2.739615e-003
-5.937767e-005,-2.560370e-003
-4.009190e-005,-2.402681e-003
-2.777494e-005,-2.267032e-003
-2.550602e-005,-2.144024e-003
-3.036798e-005,-2.025392e-003
-4.219875e-005,-1.907246e-003
-6.116039e-005,-1.792180e-003
-8.692878e-005,-1.683434e-003
-1.186936e-004,-1.581333e-003
-1.486757e-004,-1.484094e-003
-1.684476e-004,-1.389123e-003
-1.780095e-004,-1.293505e-003
-1.781715e-004,-1.197076e-003
-1.671511e-004,-1.100647e-003
-1.446240e-004,-1.002436e-003
-1.135075e-004,-9.013068e-004
-8.093235e-005,-8.090917e-004
-4.997788e-005,-7.385933e-004
-1.837515e-005,-7.060181e-004
1.630683e-005,-7.314624e-004
5.277152e-005,-8.322670e-004
8.340186e-005,-1.035821e-003
9.507057e-005,-1.338883e-003
8.323980e-005,-1.662041e-003
5.747142e-005,-1.876454e-003
3.040651e-005,-1.882775e-003
7.393235e-006,-1.666417e-003
-1.682422e-006,-1.297557e-003
9.175954e-006,-8.752143e-004
3.834771e-005,-4.763717e-004
8.178122e-005,-1.381414e-004
1.331559e-004,1.109530e-004
1.856651e-004,1.927960e-004
2.315296e-004,7.393235e-006
2.675081e-004,-4.781544e-004
2.927903e-004,-1.211824e-003
2.994350e-004,-2.201233e-003
2.851732e-004,-3.474421e-003
2.508154e-004,-4.884885e-003
2.008992e-004,-4.967863e-003
1.441764e-004,-4.967539e-003
9.263960e-005,-4.967702e-003
5.309565e-005,-4.967539e-003
2.878586e-005,-4.967539e-003
1.727922e-005,-4.876944e-003
1.663096e-005,-2.684999e-003
2.943412e-005,4.758544e-005
5.633696e-005,2.902535e-003
9.247753e-005,4.958681e-003
1.278078e-004,4.958681e-003
1.566554e-004,4.958681e-003
1.710792e-004,4.958843e-003
1.673517e-004,4.958681e-003
1.412592e-004,4.958843e-003
9.344992e-005,4.958843e-003
2.651694e-005,4.958843e-003
-4.868136e-005,4.958843e-003
-1.161005e-004,4.958843e-003
-1.561307e-004,4.958681e-003
-1.605064e-004,4.958519e-003
-1.353863e-004,4.958843e-003
-9.389758e-005,4.958843e-003
-4.544005e-005,4.958681e-003
7.231170e-006,4.238290e-003
7.027457e-005,2.510659e-003
1.398006e-004,1.125645e-003
2.023578e-004,6.962632e-005
2.459534e-004,-7.350278e-004
2.628082e-004,-1.404358e-003
2.448189e-004,-2.014210e-003
1.887443e-004,-2.555184e-003
9.652916e-005,-2.961483e-003
-1.869928e-005,-3.169089e-003
-1.353863e-004,-3.176058e-003
-2.358668e-004,-3.061963e-003
-3.133340e-004,-2.927611e-003
-3.747567e-004,-2.847389e-003
-4.262935e-004,-2.854519e-003
-4.745890e-004,-2.945114e-003
-5.222362e-004,-3.081250e-003
-5.614560e-004,-3.208795e-003
-5.705316e-004,-3.288370e-003
-5.269360e-004,-3.312355e-003
-4.215936e-004,-3.290963e-003
-2.603386e-004,-3.241857e-003
-6.051213e-005,-3.182379e-003
1.506590e-004,-3.126304e-003
3.425443e-004,-3.076226e-003
4.924549e-004,-3.026795e-003
5.869390e-004,-2.970721e-003
6.370172e-004,-2.907353e-003
6.588960e-004,-2.841392e-003
6.668372e-004,-2.783535e-003
6.655407e-004,-2.736860e-003
6.467411e-004,-2.693264e-003
6.024972e-004,-2.637838e-003
5.384814e-004,-2.557939e-003
4.717104e-004,-2.458593e-003
4.177427e-004,-2.349199e-003
3.853296e-004,-2.239318e-003
3.707437e-004,-2.128628e-003
3.618301e-004,-2.016641e-003
3.441650e-004,-1.895578e-003
3.111037e-004,-1.756688e-003
2.641047e-004,-1.602239e-003
2.088404e-004,-1.448277e-003
1.527658e-004,-1.315222e-003
9.101894e-005,-1.220251e-003
2.100672e-005,-1.164501e-003
-5.759496e-005,-1.134033e-003
-1.360346e-004,-1.106968e-003
-1.976194e-004,-1.068234e-003
-2.274394e-004,-1.008756e-003
-2.212809e-004,-9.324233e-004
-1.911368e-004,-8.418289e-004
-1.583996e-004,-7.439414e-004
-1.452723e-004,-6.497815e-004
-1.626133e-004,-5.674524e-004
-2.037778e-004,-4.956574e-004
-2.483458e-004,-4.361795e-004
-2.804347e-004,-3.911253e-004
-2.899966e-004,-3.561192e-004
-2.794623e-004,-3.237062e-004
-2.543422e-004,-2.877277e-004
-2.165810e-004,-2.489941e-004
-1.778474e-004,-2.094501e-004
-1.535376e-004,-1.708786e-004
-1.514308e-004,-1.319829e-004
-1.723372e-004,-9.049421e-005
-2.112329e-004,-4.333321e-005
-2.556388e-004,6.744974e-006
-2.844864e-004,2.262737e-005
-2.857829e-004,-6.326724e-005
-2.585559e-004,-2.747625e-004
-2.118811e-004,-5.458976e-004
-1.530514e-004,-7.700340e-004
-9.098041e-005,-8.509045e-004
-3.377135e-005,-7.400519e-004
2.855406e-006,-4.481723e-004
1.225519e-005,-4.236081e-005
-5.247859e-006,3.866261e-004
-4.527799e-005,7.584042e-004
-9.454584e-005,1.036184e-003
-1.352242e-004,1.227422e-003
-1.536997e-004,1.339409e-003
-1.459205e-004,1.324175e-003
-1.212866e-004,1.125969e-003
-8.676671e-005,7.916276e-004
-4.706071e-005,4.780310e-004
-7.030578e-006,3.430306e-004
3.267542e-005,4.480489e-004
7.092283e-005,7.452769e-004
1.088461e-004,1.131965e-003
1.490383e-004,1.515899e-003
1.940925e-004,1.854454e-003
2.436845e-004,2.164972e-003
2.939247e-004,2.483594e-003
3.380065e-004,2.803999e-003
3.681507e-004,3.061685e-003
3.783608e-004,3.171404e-003
3.605336e-004,3.089560e-003
3.106175e-004,2.838681e-003
2.410914e-004,2.500773e-003
1.712413e-004,2.178748e-003
1.174356e-004,1.935649e-003
8.761556e-005,1.768073e-003
7.270556e-005,1.632910e-003
5.536457e-005,1.464686e-003
2.311357e-005,1.192416e-003
-3.069211e-005,7.567835e-004
-1.021629e-004,1.560071e-004
-1.776853e-004,-5.142949e-004
-2.378116e-004,-1.102430e-003
-2.655248e-004,-1.482149e-003
-2.498044e-004,-1.609208e-003
-1.840059e-004,-1.535955e-003
-8.109442e-005,-1.379237e-003
3.478227e-005,-1.248451e-003
1.360731e-004,-1.174711e-003
1.986303e-004,-1.104375e-003
2.132162e-004,-9.538160e-004
1.924718e-004,-6.554538e-004
1.551968e-004,-1.956746e-004
1.172735e-004,3.830607e-004
8.761556e-005,9.974508e-004
6.784360e-005,1.546691e-003
5.990240e-005,1.947966e-003
5.763348e-005,2.153303e-003
5.098881e-005,2.163027e-003
3.559260e-005,2.026244e-003
1.468617e-005,1.815720e-003
-9.785687e-006,1.585749e-003
-4.203669e-005,1.349619e-003
-7.817725e-005,1.072325e-003
-1.062145e-004,5.872631e-004
-1.188556e-004,-3.489884e-004
-1.131834e-004,-1.773056e-003
-9.292519e-005,-3.393875e-003
-6.245691e-005,-4.773221e-003
-1.821308e-005,-4.967702e-003
3.980630e-005,-4.967702e-003
1.038221e-004,-4.967702e-003
1.675138e-004,-4.147806e-003
2.328261e-004,-3.011399e-003
2.995970e-004,-1.985362e-003
3.581026e-004,-1.220413e-003
3.877606e-004,-6.502677e-004
3.752816e-004,-6.521203e-005
3.224483e-004,7.128638e-004
2.396328e-004,1.725450e-003
1.427178e-004,2.874174e-003
4.450619e-005,3.943814e-003
-4.106429e-005,4.685435e-003
-1.039456e-004,4.944419e-003
-1.415448e-004,4.703262e-003
-1.572651e-004,4.089189e-003
-1.538618e-004,3.353080e-003
-1.347380e-004,2.753434e-003
-1.000561e-004,2.417147e-003
-4.787104e-005,2.311642e-003
2.359977e-005,2.298677e-003
1.081979e-004,2.203220e-003
1.898788e-004,1.897726e-003
2.472499e-004,1.363071e-003
2.660495e-004,7.096225e-004
2.483844e-004,1.328318e-004
2.143507e-004,-1.906506e-004
1.926339e-004,-1.951884e-004
2.039785e-004,5.341978e-005
2.472499e-004,3.974845e-004
3.101313e-004,6.819093e-004
3.820883e-004,8.225821e-004
4.501558e-004,8.251751e-004
4.859722e-004,7.588904e-004
4.665244e-004,7.063812e-004
3.888950e-004,7.123776e-004
2.699391e-004,7.679660e-004
1.402868e-004,8.248510e-004
2.586868e-005,8.191787e-004
-6.148453e-005,7.083260e-004
-1.208004e-004,4.888894e-004
-1.546721e-004,1.788584e-004
-1.679614e-004,-1.917850e-004
-1.679614e-004,-5.864140e-004
-1.562927e-004,-9.878497e-004
-1.318209e-004,-1.401440e-003
-9.260106e-005,-1.823783e-003
-4.236081e-005,-2.223922e-003
9.338019e-006,-2.546109e-003
5.309565e-005,-2.750149e-003
8.323980e-005,-2.828751e-003
1.000946e-004,-2.805090e-003
1.060910e-004,-2.718708e-003
1.013911e-004,-2.606559e-003
9.507057e-005,-2.494409e-003
9.733949e-005,-2.389877e-003
1.070634e-004,-2.293448e-003
1.133840e-004,-2.199775e-003
1.009049e-004,-2.101239e-003
6.265751e-005,-1.997517e-003
3.017472e-006,-1.897522e-003
-6.326724e-005,-1.806280e-003
-1.191798e-004,-1.725571e-003
-1.566169e-004,-1.658962e-003
-1.752544e-004,-1.603536e-003
-1.791439e-004,-1.549892e-003
-1.776853e-004,-1.485876e-003
-1.705545e-004,-1.402575e-003
-1.520790e-004,-1.302094e-003
-1.230693e-004,-1.193349e-003
-8.838737e-005,-1.083306e-003
-5.273300e-005,-9.769913e-004
-1.983374e-005,-8.901243e-004
9.824214e-006,-8.442599e-004
2.894792e-005,-8.572250e-004
3.672705e-005,-9.223753e-004
3.802358e-005,-1.020101e-003
3.883391e-005,-1.131277e-003
3.996836e-005,-1.231758e-003
3.786152e-005,-1.303715e-003
3.624086e-005,-1.336290e-003
4.094075e-005,-1.322028e-003
5.552663e-005,-1.264981e-003
7.691926e-005,-1.182976e-003
9.474644e-005,-1.085089e-003
1.043083e-004,-9.633778e-004
1.064151e-004,-8.099020e-004
1.046324e-004,-6.225546e-004
1.010670e-004,-4.053871e-004
9.717742e-005,-1.771991e-004
9.620503e-005,4.191315e-005
9.701536e-005,2.466016e-004
9.312579e-005,4.532350e-004
8.113296e-005,6.794783e-004
6.670914e-005,9.206317e-004
5.260946e-005,1.159516e-003
3.932010e-005,1.374577e-003
2.392390e-005,1.560467e-003
5.448451e-006,1.745708e-003
-1.805102e-005,1.967252e-003
-4.479180e-005,2.234174e-003
-7.169464e-005,2.527352e-003
-1.041077e-004,2.811130e-003
-1.509446e-004,3.052933e-003
-2.138259e-004,3.226992e-003
-2.809209e-004,3.313536e-003
-3.267854e-004,3.292791e-003
-3.267854e-004,3.159897e-003
-2.784900e-004,2.926359e-003
-1.961608e-004,2.614706e-003
-1.083214e-004,2.253460e-003
-4.090223e-005,1.863043e-003
-7.516774e-006,1.449776e-003
-5.247859e-006,1.038778e-003
-1.529591e-005,6.700785e-004
-2.177852e-005,3.780367e-004
-1.950961e-005,1.762653e-004
-1.286493e-005,6.006446e-005
-6.220251e-006,1.501031e-005
2.855406e-006,2.230324e-005
1.971020e-005,6.217131e-005
4.612685e-005,1.203528e-004
7.594687e-005,1.840444e-004
1.005808e-004,2.477361e-004
1.130598e-004,3.141829e-004
1.116012e-004,3.843572e-004
9.896014e-005,4.490213e-004
7.043664e-005,4.922927e-004
2.133085e-005,5.018546e-004
-4.770897e-005,4.700898e-004
-1.305243e-004,3.986190e-004
-2.188499e-004,2.994350e-004
-2.963171e-004,1.850168e-004
-3.530400e-004,7.076077e-005
-3.880461e-004,-3.069211e-005
-4.010113e-004,-1.133454e-004
-3.958252e-004,-1.757406e-004
-3.826979e-004,-2.149604e-004
-3.661673e-004,-2.387839e-004
-3.449367e-004,-2.570973e-004
-3.181959e-004,-2.737901e-004
-2.828657e-004,-2.838381e-004
-2.334358e-004,-2.841623e-004
-1.669890e-004,-2.754107e-004
-9.098041e-005,-2.632558e-004
-1.967167e-005,-2.494803e-004
3.429608e-005,-2.353806e-004
6.444023e-005,-2.230636e-004
7.902610e-005,-2.138259e-004
9.426025e-005,-2.076674e-004
1.299146e-004,-2.021572e-004
2.026820e-004,-1.987538e-004
3.240689e-004,-1.971332e-004
4.906721e-004,-1.959987e-004
6.841783e-004,-1.900023e-004
8.744430e-004,-1.776853e-004
1.030188e-003,-1.601823e-004
1.130831e-003,-1.454343e-004
1.169889e-003,-1.408965e-004
1.149954e-003,-1.475412e-004
1.077349e-003,-1.624512e-004
9.590412e-004,-1.797922e-004
8.083204e-004,-1.938919e-004
6.342620e-004,-1.979435e-004
4.477248e-004,-1.888679e-004
2.641047e-004,-1.853024e-004
9.928427e-005,-2.110708e-004
-4.122636e-005,-2.679557e-004
-1.640719e-004,-3.452609e-004
-2.817312e-004,-4.604893e-004
-3.971218e-004,-6.755498e-004
-4.985746e-004,-1.087682e-003
-5.698833e-004,-1.767384e-003
-5.948414e-004,-2.689861e-003
-5.655076e-004,-3.705528e-003
-4.849611e-004,-4.592355e-003
-3.634122e-004,-4.967702e-003
-2.214430e-004,-4.967702e-003
-8.547019e-005,-4.779218e-003
1.711715e-005,-3.920914e-003
6.249544e-005,-2.783535e-003
4.904402e-005,-1.516993e-003
3.827798e-006,-2.162569e-004
-3.668853e-005,1.071029e-003
-4.949169e-005,2.326552e-003
-2.809907e-005,3.555340e-003
1.630683e-005,4.709745e-003
6.249544e-005,4.958843e-003
8.745350e-005,4.958681e-003
7.643306e-005,4.958681e-003
3.235129e-005,4.958681e-003
-2.615428e-005,4.958681e-003
-7.801519e-005,4.959005e-003
-1.084835e-004,4.267949e-003
-1.125351e-004,3.725510e-003
-9.973194e-005,3.316939e-003
-8.871149e-005,2.957800e-003
-8.838737e-005,2.572244e-003
-9.243900e-005,2.150548e-003
-9.098041e-005,1.739387e-003
-7.736692e-005,1.398077e-003
-4.981582e-005,1.149792e-003
-1.059601e-005,9.711962e-004
3.105477e-005,8.301992e-004
6.735740e-005,6.989262e-004
9.604297e-005,5.498260e-004
1.145184e-004,3.691231e-004
1.240803e-004,1.649207e-004
1.321835e-004,-2.988179e-005
1.467694e-004,-1.810887e-004
1.739964e-004,-2.775176e-004
2.164575e-004,-3.313232e-004
2.665357e-004,-3.773498e-004
3.122381e-004,-4.554653e-004
3.430306e-004,-5.928966e-004
3.485408e-004,-7.993678e-004
3.158036e-004,-1.063858e-003
2.357433e-004,-1.358493e-003
1.205148e-004,-1.647293e-003
-4.275467e-006,-1.893147e-003
-1.156143e-004,-2.064612e-003
-2.011848e-004,-2.154072e-003
-2.556388e-004,-2.175951e-003
-2.771934e-004,-2.155369e-003
-2.637420e-004,-2.114366e-003
-2.266291e-004,-2.064774e-003
-1.827094e-004,-2.007079e-003
-1.436516e-004,-1.934798e-003
-1.133454e-004,-1.845823e-003
-8.968388e-005,-1.743722e-003
-6.974985e-005,-1.642431e-003
-5.273300e-005,-1.555402e-003
-4.284701e-005,-1.484094e-003
-4.138842e-005,-1.422995e-003
-4.414354e-005,-1.366434e-003
-4.657451e-005,-1.309387e-003
-5.143647e-005,-1.246506e-003
-6.310517e-005,-1.178601e-003
-8.530812e-005,-1.113288e-003
-1.110765e-004,-1.054459e-003
-1.321450e-004,-1.005839e-003
-1.373311e-004,-9.836360e-004
-1.198280e-004,-1.039386e-003
-8.174268e-005,-1.227868e-003
-3.425755e-005,-1.538386e-003
8.365628e-006,-1.877102e-003
3.624086e-005,-2.120686e-003
5.617490e-005,-2.182272e-003
8.194328e-005,-2.042085e-003
1.205148e-004,-1.747288e-003
1.728619e-004,-1.380696e-003
2.383363e-004,-1.012808e-003
3.164518e-004,-6.749016e-004
4.052637e-004,-3.444505e-004
4.984512e-004,2.829966e-005
5.775391e-004,4.655520e-004
6.394482e-004,9.564482e-004
6.820713e-004,1.463876e-003
7.091363e-004,1.920253e-003
7.186981e-004,2.241629e-003
7.091363e-004,2.386678e-003
6.828816e-004,2.366744e-003
6.469032e-004,2.225261e-003
6.075212e-004,2.010199e-003
5.639257e-004,1.756728e-003
5.170887e-004,1.489158e-003
4.731690e-004,1.224667e-003
4.281149e-004,9.786512e-004
3.726885e-004,7.561353e-004
2.981384e-004,5.439916e-004
2.044647e-004,3.258516e-004
9.944633e-005,1.007429e-004
-1.318906e-005,-1.118868e-004
-1.302002e-004,-2.781658e-004
-2.442942e-004,-3.640604e-004
-3.449367e-004,-3.598467e-004
-4.249970e-004,-2.890242e-004
-4.813957e-004,-2.029675e-004
-5.178603e-004,-1.684476e-004
-5.379565e-004,-2.287359e-004
-5.389288e-004,-3.653569e-004
-5.191569e-004,-5.123501e-004
-4.805854e-004,-6.045653e-004
-4.275900e-004,-6.123444e-004
-3.679500e-004,-5.403875e-004
-3.121995e-004,-4.126800e-004
-2.697384e-004,-2.562870e-004
-2.431597e-004,-9.438377e-005
-2.263049e-004,6.541262e-005
-2.144742e-004,2.266676e-004
-2.092881e-004,3.979707e-004
-2.165810e-004,5.817529e-004
-2.408908e-004,7.770417e-004
-2.746004e-004,9.744375e-004
-3.039342e-004,1.152061e-003
-3.170615e-004,1.288520e-003
-3.117133e-004,1.361450e-003
-2.927517e-004,1.350429e-003
-2.605007e-004,1.213808e-003
-2.125294e-004,8.998873e-004
-1.462447e-004,4.102877e-004
-6.197072e-005,-1.742820e-004
3.526847e-005,-7.202799e-004
1.321835e-004,-1.102592e-003
2.156472e-004,-1.252340e-003
2.722080e-004,-1.179411e-003
2.963557e-004,-9.538160e-004
2.876042e-004,-6.494574e-004
2.537325e-004,-3.096065e-004
2.064095e-004,4.499239e-005
1.594105e-004,4.000776e-004
1.250527e-004,7.465734e-004
1.031738e-004,1.086911e-003
8.648111e-005,1.429518e-003
6.930219e-005,1.761266e-003
4.871989e-005,2.033699e-003
2.230324e-005,2.176155e-003
-1.318906e-005,2.133207e-003
-5.143647e-005,1.902263e-003
-7.574627e-005,1.527891e-003
-7.688072e-005,1.093231e-003
-5.889147e-005,7.076777e-004
-3.766092e-005,4.506420e-004
-2.469570e-005,3.373583e-004
-2.226472e-005,3.196932e-004
-2.615428e-005,3.247172e-004
-2.777494e-005,2.921420e-004
-2.258885e-005,1.932822e-004
-8.813297e-006,3.526847e-005
1.808955e-005,-1.326312e-004
5.714729e-005,-2.517492e-004
9.717742e-005,-2.885380e-004
1.182459e-004,-2.528836e-004
1.112771e-004,-1.900023e-004
8.469840e-005,-1.583996e-004
5.536457e-005,-1.893540e-004
3.948217e-005,-2.609869e-004
4.320967e-005,-3.382920e-004
5.649903e-005,-3.836703e-004
6.525056e-005,-3.708672e-004
5.341978e-005,-3.052307e-004
1.630683e-005,-2.250084e-004
-3.182657e-005,-1.822232e-004
-6.618442e-005,-2.079916e-004
-6.132245e-005,-2.713591e-004
4.244267e-007,-2.937241e-004
1.094944e-004,-1.780095e-004
2.354192e-004,1.122495e-004
3.423823e-004,4.956961e-004
4.057499e-004,8.279303e-004
4.182289e-004,1.007985e-003
3.908399e-004,1.026785e-003
3.451374e-004,9.564482e-004
2.937627e-004,8.882186e-004
2.438465e-004,8.708776e-004
1.970097e-004,8.943771e-004
1.553589e-004,9.050734e-004
1.188942e-004,8.439747e-004
7.756751e-005,6.749405e-004
1.938607e-005,3.918122e-004
-5.305713e-005,2.230324e-005
-1.250141e-004,-3.830221e-004
-1.835197e-004,-7.711684e-004
-2.212809e-004,-1.093516e-003
-2.276015e-004,-1.317490e-003
-1.938919e-004,-1.425264e-003
-1.246900e-004,-1.411488e-003
-4.009190e-005,-1.296746e-003
3.996836e-005,-1.121229e-003
9.928427e-005,-9.299924e-004
1.294284e-004,-7.599859e-004
1.302387e-004,-6.280647e-004
1.148425e-004,-5.235327e-004
1.000946e-004,-4.207833e-004
9.944633e-005,-3.237062e-004
1.175977e-004,-2.621213e-004
1.514693e-004,-2.616351e-004
1.895547e-004,-3.295405e-004
2.208333e-004,-4.481723e-004
2.412535e-004,-5.864140e-004
2.451431e-004,-7.108801e-004
2.250470e-004,-7.956403e-004
1.746447e-004,-8.277292e-004
9.458438e-005,-8.089296e-004
-7.678839e-006,-7.520447e-004
-1.211245e-004,-6.702017e-004
-2.350565e-004,-5.664800e-004
-3.365093e-004,-4.410414e-004
-4.061974e-004,-2.938861e-004
-4.238625e-004,-1.216107e-004
-3.867496e-004,7.302969e-005
-3.115513e-004,2.939247e-004
-2.230636e-004,5.441537e-004
-1.420310e-004,8.032963e-004
-7.574627e-005,1.014792e-003
-1.497178e-005,1.118676e-003
5.293359e-005,1.089180e-003
1.307249e-004,9.519104e-004
2.130541e-004,7.613213e-004
2.901973e-004,5.647360e-004
3.438409e-004,3.806297e-004
3.595612e-004,2.130541e-004
3.388168e-004,5.585077e-005
2.926282e-004,-9.730095e-005
2.359053e-004,-2.413770e-004
1.864754e-004,-3.609812e-004
1.615174e-004,-4.470378e-004
1.590864e-004,-4.941989e-004
1.603829e-004,-5.023021e-004
1.420695e-004,-4.755614e-004
8.372600e-005,-4.233763e-004
-1.934754e-005,-3.630880e-004
-1.564548e-004,-3.097686e-004
-3.110651e-004,-2.663351e-004
-4.595169e-004,-2.280877e-004
-5.834968e-004,-1.938919e-004
-6.765223e-004,-1.632615e-004
-7.332451e-004,-1.392759e-004
-7.458862e-004,-1.209625e-004
-7.060181e-004,-1.041077e-004
-6.147754e-004,-8.563225e-005
-4.823681e-004,-6.375343e-005
-3.266234e-004,-3.960571e-005
-1.668270e-004,-1.805102e-005
-1.902341e-005,-3.951337e-006
1.012291e-004,-6.176923e-008
1.872858e-004,-9.623623e-006
2.438465e-004,-3.685059e-005
2.832284e-004,-8.077029e-005
3.141829e-004,-1.387897e-004
3.378445e-004,-2.002124e-004
3.558337e-004,-2.593662e-004
3.731747e-004,-3.442885e-004
3.901916e-004,-4.967919e-004
4.049395e-004,-7.325968e-004
4.112601e-004,-1.015887e-003
4.034809e-004,-1.273895e-003
3.812780e-004,-1.440174e-003
3.485408e-004,-1.485390e-003
3.098072e-004,-1.426885e-003
2.707494e-004,-1.315222e-003
2.394708e-004,-1.191566e-003
2.239125e-004,-1.050407e-003
2.263435e-004,-8.515528e-004
2.393087e-004,-5.583767e-004
2.454672e-004,-1.580754e-004
2.258573e-004,3.404375e-004
1.728619e-004,9.144733e-004
9.571883e-005,1.530160e-003
1.614476e-005,2.117325e-003
-4.203669e-005,2.588451e-003
-6.488790e-005,2.882763e-003
-5.289506e-005,2.995561e-003
-1.513384e-005,2.978706e-003
3.267542e-005,2.888760e-003
7.400208e-005,2.758944e-003
9.896014e-005,2.584075e-003
1.167873e-004,2.342759e-003
1.401247e-004,2.031106e-003
1.798307e-004,1.669051e-003
2.334744e-004,1.295489e-003
2.890628e-004,9.525587e-004
3.297412e-004,6.731577e-004
3.475684e-004,4.731690e-004
3.467580e-004,3.410858e-004
3.383307e-004,2.443327e-004
3.360618e-004,1.472556e-004
3.490270e-004,2.651694e-005
3.749574e-004,-1.170729e-004
4.098015e-004,-2.556388e-004
4.431869e-004,-3.600088e-004
4.576108e-004,-4.361795e-004
4.365423e-004,-5.381185e-004
3.738230e-004,-7.056940e-004
2.759355e-004,-9.202685e-004
1.526038e-004,-1.126740e-003
1.468617e-005,-1.273571e-003
-1.232314e-004,-1.335642e-003
-2.428356e-004,-1.329159e-003
-3.277578e-004,-1.340828e-003
-3.711913e-004,-1.470642e-003
-3.721637e-004,-1.735781e-003
-3.309991e-004,-2.086653e-003
-2.554767e-004,-2.466697e-003
-1.635857e-004,-2.808655e-003
-7.963584e-005,-3.026471e-003
-2.356124e-005,-3.034251e-003
-2.978945e-006,-2.774135e-003
-1.351319e-005,-2.240453e-003
-4.706071e-005,-1.492359e-003
-9.179074e-005,-6.304957e-004
-1.383035e-004,2.440086e-004
-1.797922e-004,1.063898e-003
-2.138259e-004,1.825282e-003
-2.397564e-004,2.545827e-003
-2.588801e-004,3.239796e-003
-2.679557e-004,3.887415e-003
-2.630937e-004,4.428233e-003
-2.426735e-004,4.774086e-003
-2.123673e-004,4.847341e-003
-1.801163e-004,4.632439e-003
-1.498101e-004,4.158877e-003
-1.227452e-004,3.474954e-003
-9.875954e-005,2.639015e-003
-7.655659e-005,1.738415e-003
-5.127441e-005,9.015080e-004
-1.950961e-005,2.547049e-004
1.744128e-005,-1.540238e-004
6.638501e-005,-3.627639e-004
1.308870e-004,-4.488206e-004
2.085163e-004,-4.719959e-004
2.807975e-004,-4.531963e-004
3.239068e-004,-3.851289e-004
3.268240e-004,-2.575835e-004
2.872800e-004,-6.699474e-005
2.072198e-004,1.861513e-004
9.231547e-005,4.757621e-004
-5.273300e-005,7.459251e-004
-2.041020e-004,9.340832e-004
-3.303509e-004,9.896716e-004
-4.055491e-004,8.921082e-004
-4.300210e-004,6.618132e-004
-4.241866e-004,3.469201e-004
-4.107352e-004,-4.761663e-006
-4.013354e-004,-3.731361e-004
-3.920977e-004,-7.614445e-004
-3.760532e-004,-1.157370e-003
-3.510952e-004,-1.516507e-003
-3.172235e-004,-1.784401e-003
-2.682798e-004,-1.930584e-003
-1.948643e-004,-1.966400e-003
-9.341139e-005,-1.926856e-003
2.392390e-005,-1.849713e-003
1.300767e-004,-1.761063e-003
1.984682e-004,-1.678734e-003
2.237504e-004,-1.609694e-003
2.179161e-004,-1.550540e-003
1.970097e-004,-1.488307e-003
1.809652e-004,-1.411002e-003
1.838824e-004,-1.313925e-003
2.114335e-004,-1.203721e-003
2.556773e-004,-1.091896e-003
3.017039e-004,-9.902806e-004
3.368721e-004,-9.111929e-004
3.608577e-004,-8.648421e-004
3.786849e-004,-8.513907e-004
3.924605e-004,-8.628973e-004
4.031568e-004,-8.862347e-004
4.020223e-004,-9.113549e-004
3.809539e-004,-9.283717e-004
3.378445e-004,-9.291820e-004
2.793389e-004,-9.097342e-004
2.174299e-004,-8.682455e-004
1.589243e-004,-8.105503e-004
1.038221e-004,-7.476689e-004
5.374392e-005,-6.943495e-004
1.306552e-005,-6.616123e-004
-1.367526e-005,-6.478368e-004
-2.453363e-005,-6.416783e-004
-2.680255e-005,-6.277406e-004
-2.583015e-005,-5.948414e-004
-2.404744e-005,-5.463838e-004
-1.918548e-005,-4.929024e-004
-1.513384e-005,-4.449310e-004
-1.626830e-005,-4.074939e-004
-2.129233e-005,-3.839945e-004
-2.647842e-005,-3.770256e-004
-2.696461e-005,-3.825359e-004
-2.129233e-005,-3.864254e-004
-1.270286e-005,-3.698948e-004
-2.654814e-006,-3.146305e-004
9.338019e-006,-2.110708e-004
2.181705e-005,-6.083626e-005
2.570661e-005,1.161391e-004
1.160693e-005,2.944109e-004
-2.080613e-005,4.488592e-004
-6.618442e-005,5.720289e-004
-1.175591e-004,6.684579e-004
-1.690959e-004,7.545147e-004
-2.112329e-004,8.379783e-004
-2.337599e-004,9.235489e-004
-2.360288e-004,1.006527e-003
-2.243601e-004,1.082535e-003
-2.018331e-004,1.143958e-003
-1.754164e-004,1.163568e-003
-1.608306e-004,1.096635e-003
-1.812508e-004,9.248454e-004
-2.412149e-004,6.963331e-004
-3.193304e-004,4.990995e-004
-3.814014e-004,4.034809e-004
-3.984183e-004,4.239012e-004
-3.579019e-004,5.211404e-004
-2.679557e-004,6.376654e-004
-1.515928e-004,7.303669e-004
-3.636440e-005,7.867657e-004
6.525056e-005,8.391127e-004
1.579519e-004,9.373245e-004
2.545429e-004,1.088207e-003
3.619922e-004,1.244601e-003
4.770586e-004,1.336168e-003
5.939078e-004,1.315423e-003
6.960090e-004,1.189985e-003
7.584042e-004,1.017223e-003
7.703970e-004,8.541849e-004
7.329599e-004,7.324737e-004
6.587339e-004,6.601926e-004
5.676532e-004,6.247002e-004
4.804620e-004,6.083316e-004
4.098015e-004,6.028214e-004
3.619922e-004,6.036317e-004
3.357376e-004,6.130315e-004
3.264999e-004,6.227554e-004
3.277964e-004,6.005524e-004
3.347652e-004,5.068786e-004
3.410858e-004,3.172621e-004
3.418961e-004,4.402000e-005
3.316860e-004,-2.569353e-004
3.088348e-004,-5.185086e-004
2.751252e-004,-6.852738e-004
2.313675e-004,-7.332451e-004
1.863134e-004,-6.796016e-004
1.441764e-004,-5.635628e-004
1.081979e-004,-4.222419e-004
7.416414e-005,-2.828657e-004
3.283749e-005,-1.598582e-004
-2.453363e-005,-5.338126e-005
-1.029732e-004,4.564065e-005
-2.026434e-004,1.530900e-004
-3.167374e-004,2.725321e-004
-4.274279e-004,3.864641e-004
-5.219121e-004,4.796517e-004
-6.006758e-004,5.368608e-004
-6.706879e-004,5.287575e-004
-7.287073e-004,4.067222e-004
-7.583653e-004,1.244044e-004
-7.429690e-004,-3.044204e-004
-6.825187e-004,-7.933713e-004
-5.844692e-004,-1.224465e-003
-4.606513e-004,-1.504190e-003
-3.332680e-004,-1.587167e-003
-2.266291e-004,-1.475666e-003
-1.517549e-004,-1.219603e-003
-1.071869e-004,-8.964448e-004
-8.287714e-005,-5.736108e-004
-6.715681e-005,-2.995584e-004
-5.078821e-005,-1.123730e-004
-3.036798e-005,-8.165034e-006
-4.275467e-006,7.918817e-005
2.457216e-005,2.354192e-004
5.115087e-005,4.966685e-004
7.140904e-005,8.289026e-004
8.421220e-005,1.165513e-003
9.263960e-005,1.438431e-003
9.847395e-005,1.605683e-003
9.507057e-005,1.629020e-003
8.291567e-005,1.473113e-003
7.221937e-005,1.146065e-003
7.416414e-005,7.169154e-004
9.134307e-005,2.978143e-004
1.210010e-004,1.436204e-005
1.558451e-004,-3.717472e-005
1.914994e-004,1.530900e-004
2.222919e-004,4.992615e-004
2.336364e-004,8.718500e-004
2.099749e-004,1.168268e-003
1.610312e-004,1.357074e-003
1.201907e-004,1.466955e-003
1.227837e-004,1.556091e-003
1.845306e-004,1.672454e-003
2.921420e-004,1.827389e-003
4.143393e-004,1.993182e-003
5.123889e-004,2.120080e-003
5.517707e-004,2.156221e-003
5.083373e-004,2.065464e-003
3.898674e-004,1.839220e-003
2.320158e-004,1.500016e-003
8.453633e-005,1.091611e-003
-1.043395e-005,6.645683e-004
-2.777494e-005,2.543808e-004
3.429608e-005,-1.243659e-004
1.508210e-004,-4.711856e-004
2.671840e-004,-7.925610e-004
3.287688e-004,-1.093678e-003
3.125622e-004,-1.368703e-003
2.328261e-004,-1.604022e-003
1.258630e-004,-1.778728e-003
2.894792e-005,-1.878885e-003
-3.652646e-005,-1.906274e-003
-6.910160e-005,-1.875806e-003
-7.979790e-005,-1.810169e-003
-7.833932e-005,-1.763819e-003
-7.315322e-005,-1.825079e-003
-6.715681e-005,-2.053754e-003
-5.872941e-005,-2.424235e-003
-4.544005e-005,-2.833937e-003
-3.344722e-005,-3.158555e-003
-3.134038e-005,-3.317379e-003
-4.738484e-005,-3.319972e-003
-8.465986e-005,-3.255146e-003
-1.363587e-004,-3.199233e-003
-1.872472e-004,-3.142672e-003
-2.246843e-004,-3.003458e-003
-2.421873e-004,-2.693588e-003
-2.357047e-004,-2.179354e-003
-2.039399e-004,-1.485066e-003
-1.574272e-004,-6.794395e-004
-1.125351e-004,1.504969e-004
-8.190475e-005,9.050734e-004
-6.796713e-005,1.498396e-003
-6.310517e-005,1.894970e-003
-6.294311e-005,2.107601e-003
-7.023605e-005,2.156545e-003
-8.547019e-005,2.059629e-003
-1.054042e-004,1.841165e-003
-1.285796e-004,1.509902e-003
-1.486757e-004,1.079294e-003
-1.551583e-004,6.112488e-004
-1.478653e-004,2.115955e-004
-1.381414e-004,-2.145439e-005
-1.357104e-004,-5.435365e-005
-1.441378e-004,8.486046e-005
-1.686097e-004,3.349273e-004
-2.078295e-004,6.229175e-004
-2.476975e-004,9.026424e-004
-2.637420e-004,1.168592e-003
-2.417011e-004,1.441186e-003
-1.791439e-004,1.747653e-003
-8.854943e-005,2.089936e-003
1.419998e-005,2.434812e-003
1.137081e-004,2.737714e-003
1.952270e-004,2.952938e-003
2.538946e-004,3.032350e-003
3.002453e-004,2.936407e-003
3.397892e-004,2.655384e-003
3.705817e-004,2.229474e-003
3.796573e-004,1.723505e-003
3.572923e-004,1.207326e-003
3.039728e-004,7.353909e-004
2.401191e-004,3.346032e-004
1.949028e-004,5.864920e-007
1.897167e-004,-2.938861e-004
2.292607e-004,-5.852795e-004
2.987867e-004,-8.831555e-004
3.720402e-004,-1.158018e-003
4.256839e-004,-1.364327e-003
4.474007e-004,-1.469022e-003
4.410801e-004,-1.469832e-003
4.164462e-004,-1.394958e-003
3.803056e-004,-1.289777e-003
3.321721e-004,-1.200804e-003
2.780423e-004,-1.151050e-003
2.269918e-004,-1.137436e-003
1.884202e-004,-1.139057e-003
1.688103e-004,-1.132574e-003
1.691344e-004,-1.105671e-003
1.791825e-004,-1.057862e-003
1.811273e-004,-9.967632e-004
1.618415e-004,-9.285338e-004
1.193804e-004,-8.593319e-004
6.119892e-005,-7.953162e-004
5.864920e-007,-7.390795e-004
-4.932962e-005,-6.881910e-004
-7.931171e-005,-6.376266e-004
-9.341139e-005,-5.881967e-004
-1.010285e-004,-5.407116e-004
-1.041077e-004,-4.966299e-004
-9.794922e-005,-4.551411e-004
-8.012203e-005,-4.147868e-004
-5.257093e-005,-3.768636e-004
-2.113026e-005,-3.392644e-004
1.338965e-005,-3.042583e-004
4.758544e-005,-2.736280e-004
7.302969e-005,-2.485079e-004
7.935023e-005,-2.258187e-004
6.687120e-005,-1.994021e-004
4.709924e-005,-1.655304e-004
2.781346e-005,-1.272830e-004
1.889987e-005,-9.179074e-005
2.424803e-005,-6.553616e-005
4.094075e-005,-4.819516e-005
5.844381e-005,-3.522994e-005
7.400208e-005,-1.902341e-005
8.421220e-005,1.558884e-006
8.810177e-005,2.473422e-005
8.161915e-005,4.645098e-005
6.978838e-005,6.638501e-005
5.941620e-005,8.534666e-005
5.309565e-005,9.118101e-005
4.726130e-005,6.346784e-005
3.624086e-005,-3.465141e-006
1.873781e-005,-1.003802e-004
-5.479652e-007,-1.959987e-004
-2.194059e-005,-2.574215e-004
-5.127441e-005,-2.699005e-004
-8.984595e-005,-2.374874e-004
-1.311726e-004,-1.724992e-004
-1.668270e-004,-8.919769e-005
-1.895161e-004,2.207145e-006
-1.958366e-004,9.782569e-005
-1.966470e-004,2.013854e-004
-1.994021e-004,3.205035e-004
-2.088019e-004,4.529109e-004
-2.254946e-004,5.935836e-004
-2.459148e-004,7.332840e-004
-2.676316e-004,8.616399e-004
-2.818933e-004,9.666583e-004
-2.794623e-004,1.036184e-003
-2.645523e-004,1.064870e-003
-2.478596e-004,1.057253e-003
-2.399184e-004,1.029864e-003
-2.395943e-004,9.964784e-004
-2.386219e-004,9.613102e-004
-2.254946e-004,9.250075e-004
-1.963229e-004,8.959977e-004
-1.538618e-004,8.951874e-004
-1.081593e-004,9.266281e-004
-6.521203e-005,9.613102e-004
-2.826113e-005,9.559620e-004
5.124321e-006,8.789808e-004
3.510640e-005,7.240463e-004
5.893001e-005,5.180612e-004
7.319175e-005,3.078624e-004
7.708132e-005,1.433660e-004
6.800567e-005,4.904402e-005
4.191315e-005,2.149292e-005
4.313994e-006,3.656499e-005
-3.215070e-005,6.670914e-005
-6.310517e-005,9.442231e-005
-8.822530e-005,1.229458e-004
-1.122110e-004,1.615174e-004
-1.319829e-004,2.096508e-004
-1.421931e-004,2.506533e-004
-1.383035e-004,2.670219e-004
-1.233935e-004,2.514636e-004
-1.039456e-004,2.018716e-004
-8.109442e-005,1.234320e-004
-5.159854e-005,2.311357e-005
-1.513384e-005,-1.237176e-004
2.862379e-005,-3.533641e-004
7.691926e-005,-6.817084e-004
1.273216e-004,-1.078768e-003
1.788584e-004,-1.493493e-003
2.333123e-004,-1.881154e-003
2.955454e-004,-2.185027e-003
3.687989e-004,-2.325861e-003
4.474007e-004,-2.247260e-003
5.187094e-004,-1.945656e-003
5.665187e-004,-1.475828e-003
5.752702e-004,-9.157307e-004
5.391297e-004,-3.298646e-004
4.665244e-004,2.551911e-004
3.775505e-004,8.366818e-004
2.966798e-004,1.413635e-003
2.470879e-004,1.969683e-003
2.431983e-004,2.473384e-003
2.722080e-004,2.881305e-003
3.034866e-004,3.158438e-003
3.161277e-004,3.291657e-003
3.077003e-004,3.285174e-003
2.895490e-004,3.165083e-003
2.764217e-004,2.958935e-003
2.712356e-004,2.681639e-003
2.699391e-004,2.343731e-003
2.666978e-004,1.954773e-003
2.603772e-004,1.507957e-003
2.451431e-004,9.679548e-004
2.135403e-004,3.036486e-004
1.608691e-004,-4.384484e-004
8.502253e-005,-1.155587e-003
-1.383732e-005,-1.768194e-003
-1.481895e-004,-2.232674e-003
-3.206269e-004,-2.536709e-003
-5.134846e-004,-2.712874e-003
-6.974287e-004,-2.800389e-003
-8.445840e-004,-2.808979e-003
-9.306406e-004,-2.733781e-003
-9.369612e-004,-2.583546e-003
-8.641938e-004,-2.371564e-003
-7.277349e-004,-2.098970e-003
-5.510838e-004,-1.749070e-003
-3.590364e-004,-1.304687e-003
-1.736337e-004,-7.737615e-004
-1.545797e-005,-2.066950e-004
1.044704e-004,3.148312e-004
1.825858e-004,7.143224e-004
2.268297e-004,9.677928e-004
2.469258e-004,1.102631e-003
2.493568e-004,1.190309e-003
2.383363e-004,1.309589e-003
2.240746e-004,1.505688e-003
2.169437e-004,1.766938e-003
2.185644e-004,2.035806e-003
2.279641e-004,2.236443e-003
2.514636e-004,2.314883e-003
2.987867e-004,2.268857e-003
3.657197e-004,2.133369e-003
4.305458e-004,1.955583e-003
4.721966e-004,1.772449e-003
4.780310e-004,1.599200e-003
4.482110e-004,1.423359e-003
4.010499e-004,1.222074e-003
3.538889e-004,9.930750e-004
3.114278e-004,7.522457e-004
2.743148e-004,5.101199e-004
2.470879e-004,2.626462e-004
2.313675e-004,3.179537e-006
2.287745e-004,-2.528836e-004
2.378501e-004,-4.744269e-004
2.551911e-004,-6.408680e-004
2.709115e-004,-7.596618e-004
2.824181e-004,-8.567389e-004
2.871180e-004,-9.593262e-004
2.804733e-004,-1.082658e-003
2.577842e-004,-1.227058e-003
2.232642e-004,-1.374213e-003
1.867996e-004,-1.495600e-003
1.556830e-004,-1.567719e-003
1.287802e-004,-1.580685e-003
1.013911e-004,-1.545516e-003
7.124698e-005,-1.478421e-003
3.964423e-005,-1.394958e-003
8.365628e-006,-1.309387e-003
-2.226472e-005,-1.233216e-003
-5.451571e-005,-1.169363e-003
-9.211487e-005,-1.112964e-003
-1.350622e-004,-1.056727e-003
-1.802784e-004,-1.001463e-003
-2.245222e-004,-9.505747e-004
-2.608248e-004,-9.030895e-004
-2.838381e-004,-8.551182e-004
-2.976136e-004,-8.058504e-004
-3.019894e-004,-7.594997e-004
-2.943724e-004,-7.196317e-004
-2.705488e-004,-6.864083e-004
-2.326255e-004,-6.573986e-004
-1.883817e-004,-6.246614e-004
-1.501342e-004,-5.820383e-004
-1.280934e-004,-5.321222e-004
-1.334415e-004,-4.789647e-004
-1.629374e-004,-4.280762e-004
-1.982676e-004,-3.844807e-004
-2.164190e-004,-3.533641e-004
-2.015089e-004,-3.344025e-004
-1.614788e-004,-3.186821e-004
-1.133454e-004,-2.976136e-004
-7.315322e-005,-2.653627e-004
-4.560212e-005,-2.224154e-004
-2.485776e-005,-1.741199e-004
5.864920e-007,-1.258244e-004
4.175108e-005,-8.093235e-005
9.960840e-005,-4.689864e-005
1.694586e-004,-2.534396e-005
2.417397e-004,-1.205460e-005
3.102933e-004,1.002961e-007
3.692851e-004,2.295151e-005
4.102877e-004,6.281957e-005
4.243874e-004,1.107909e-004
4.091532e-004,1.524417e-004
3.684748e-004,1.825858e-004
3.130485e-004,2.044647e-004
2.511395e-004,2.255332e-004
1.833962e-004,2.498430e-004
1.051186e-004,2.803112e-004
1.857574e-005,3.153174e-004
-6.667061e-005,3.483787e-004
-1.392759e-004,3.726885e-004
-1.838438e-004,3.875985e-004
-1.856265e-004,3.952156e-004
-1.396000e-004,3.986190e-004
-6.018800e-005,3.989431e-004
2.651694e-005,4.000776e-004
1.017153e-004,4.070464e-004
1.610312e-004,4.213081e-004
2.028440e-004,4.378388e-004
2.281262e-004,4.469145e-004
2.431983e-004,4.336251e-004
2.470879e-004,3.845193e-004
2.384984e-004,2.948972e-004
2.171058e-004,1.726999e-004
1.788584e-004,4.677511e-005
1.240803e-004,-4.803310e-005
6.217131e-005,-9.470791e-005
-2.654814e-006,-8.676671e-005
-6.991192e-005,-3.506787e-005
-1.387897e-004,4.272347e-005
-2.055606e-004,1.299146e-004
-2.616351e-004,2.185644e-004
-2.979378e-004,2.671840e-004
-3.107410e-004,1.900409e-004
-3.118754e-004,-5.824321e-005
-3.177098e-004,-4.146248e-004
-3.407230e-004,-7.306521e-004
-3.822118e-004,-8.740799e-004
-4.282383e-004,-7.838095e-004
-4.606513e-004,-4.765338e-004
-4.710235e-004,-2.388537e-005
-4.608134e-004,4.997478e-004
-4.355312e-004,1.044936e-003
-4.026320e-004,1.578456e-003
-3.614674e-004,2.066760e-003
-3.086341e-004,2.467712e-003
-2.431597e-004,2.751651e-003
-1.679614e-004,2.907722e-003
-9.195280e-005,2.936893e-003
-2.372330e-005,2.855050e-003
3.089270e-005,2.671105e-003
7.205730e-005,2.380844e-003
1.049566e-004,1.994317e-003
1.347766e-004,1.547339e-003
1.691344e-004,1.093231e-003
2.151610e-004,6.913091e-004
2.730183e-004,3.780367e-004
3.240689e-004,1.493625e-004
3.499994e-004,-2.858526e-005
3.410858e-004,-1.802784e-004
2.966798e-004,-3.118754e-004
2.255332e-004,-4.230522e-004
1.445005e-004,-5.016539e-004
7.254349e-005,-5.209396e-004
2.554455e-005,-4.565997e-004
9.662150e-006,-3.178718e-004
2.230324e-005,-1.614788e-004
5.406805e-005,-5.273300e-005
8.939829e-005,-3.231276e-005
1.132219e-004,-1.211245e-004
1.210010e-004,-3.447747e-004
1.150046e-004,-7.419966e-004
9.977046e-005,-1.350228e-003
7.918817e-005,-2.189402e-003
5.941620e-005,-3.198261e-003
3.899597e-005,-4.212633e-003
2.133085e-005,-4.967539e-003
1.193106e-005,-4.967702e-003
1.857574e-005,-4.967539e-003
4.126489e-005,-4.905792e-003
6.995045e-005,-4.109883e-003
9.004655e-005,-3.125655e-003
9.280166e-005,-2.042085e-003
7.708132e-005,-9.053584e-004
4.855782e-005,2.675081e-004
1.598270e-005,1.418335e-003
-1.043395e-005,2.441943e-003
-2.615428e-005,3.246603e-003
-2.907146e-005,3.808326e-003
-1.772689e-005,4.166657e-003
6.582909e-006,4.372806e-003
4.337174e-005,4.459837e-003
8.842590e-005,4.407812e-003
1.352628e-004,4.181567e-003
1.788584e-004,3.806706e-003
2.132162e-004,3.358104e-003
2.303951e-004,2.927494e-003
2.209953e-004,2.581482e-003
1.814514e-004,2.353455e-003
1.166253e-004,2.244222e-003
3.283749e-005,2.241305e-003
-5.646050e-005,2.316018e-003
-1.237176e-004,2.430923e-003
-1.423551e-004,2.545179e-003
-1.010285e-004,2.617461e-003
-1.513384e-005,2.609682e-003
8.777764e-005,2.500449e-003
1.783722e-004,2.286198e-003
2.433604e-004,1.970655e-003
2.866318e-004,1.558360e-003
3.226103e-004,1.062115e-003
3.632887e-004,5.117406e-004
4.161220e-004,-5.062615e-005
4.757621e-004,-5.666420e-004
5.214645e-004,-9.888221e-004
5.300540e-004,-1.307767e-003
4.884032e-004,-1.547461e-003
4.028327e-004,-1.743560e-003
2.931144e-004,-1.916808e-003
1.762653e-004,-2.070608e-003
6.492643e-005,-2.198640e-003
-3.798505e-005,-2.290693e-003
-1.365208e-004,-2.341582e-003
-2.389460e-004,-2.351792e-003
-3.408851e-004,-2.329751e-003
-4.215936e-004,-2.286155e-003
-4.616237e-004,-2.232674e-003
-4.523860e-004,-2.176923e-003
-3.940425e-004,-2.122145e-003
-2.974516e-004,-2.064936e-003
-1.827094e-004,-2.002055e-003
-7.444974e-005,-1.929936e-003
1.225519e-005,-1.852468e-003
7.221937e-005,-1.775649e-003
1.064151e-004,-1.705475e-003
1.211631e-004,-1.641297e-003
1.148425e-004,-1.580847e-003
9.166720e-005,-1.520396e-003
6.103685e-005,-1.459460e-003
3.850977e-005,-1.398847e-003
3.380988e-005,-1.335804e-003
4.823369e-005,-1.266926e-003
7.805372e-005,-1.192862e-003
1.174356e-004,-1.115233e-003
1.616794e-004,-1.038090e-003
2.025199e-004,-9.672674e-004
2.337985e-004,-9.061688e-004
2.478982e-004,-8.517149e-004
2.334744e-004,-8.011505e-004
1.890685e-004,-7.505861e-004
1.247285e-004,-6.959701e-004
6.184718e-005,-6.400576e-004
2.343770e-005,-5.852795e-004
1.095867e-005,-5.277464e-004
1.128280e-005,-4.616237e-004
1.857574e-005,-3.895047e-004
3.024445e-005,-3.201407e-004
3.769945e-005,-2.626076e-004
3.559260e-005,-2.160948e-004
2.214118e-005,-1.752544e-004
1.720949e-006,-1.360346e-004
-2.031993e-005,-9.260106e-005
-4.219875e-005,-4.284701e-005
-6.116039e-005,9.986280e-006
-7.509801e-005,6.346784e-005
-8.320127e-005,1.150046e-004
-8.190475e-005,1.623277e-004
-6.472583e-005,2.062474e-004
-2.145439e-005,2.453051e-004
4.888196e-005,2.767458e-004
1.315353e-004,2.987867e-004
2.073818e-004,3.122381e-004
2.602152e-004,3.218000e-004
2.863077e-004,3.360618e-004
2.921420e-004,3.613439e-004
2.900352e-004,3.961880e-004
2.876042e-004,4.375147e-004
2.861456e-004,4.861343e-004
2.830664e-004,5.397779e-004
2.735045e-004,6.003904e-004
2.506533e-004,6.687820e-004
2.085163e-004,7.397666e-004
1.410971e-004,7.955172e-004
5.423011e-005,8.204752e-004
-3.069211e-005,8.136685e-004
-9.017008e-005,7.804451e-004
-1.152902e-004,7.374978e-004
-1.062145e-004,6.990882e-004
-7.574627e-005,6.733198e-004
-4.608832e-005,6.626235e-004
-3.328516e-005,6.689440e-004
-4.284701e-005,6.862851e-004
-7.266703e-005,7.099466e-004
-1.112386e-004,7.340944e-004
-1.431654e-004,7.515974e-004
-1.507825e-004,7.587283e-004
-1.326312e-004,7.551629e-004
-1.013526e-004,7.402528e-004
-7.590833e-005,7.151327e-004
-7.509801e-005,6.799645e-004
-9.551824e-005,6.161107e-004
-1.220969e-004,4.713863e-004
-1.410586e-004,2.081922e-004
-1.433275e-004,-1.460826e-004
-1.271210e-004,-5.134846e-004
-9.730095e-005,-8.030953e-004
-6.699474e-005,-9.573814e-004
-4.057810e-005,-9.756948e-004
-1.740276e-005,-8.912588e-004
6.744974e-006,-7.437794e-004
3.364782e-005,-5.588629e-004
6.281957e-005,-3.543365e-004
9.199134e-005,-1.266348e-004
1.145184e-004,1.446626e-004
1.235941e-004,4.799758e-004
1.201907e-004,8.763878e-004
1.094944e-004,1.307320e-003
9.361198e-005,1.729015e-003
6.816773e-005,2.086694e-003
2.700314e-005,2.315531e-003
-2.826113e-005,2.377279e-003
-9.276313e-005,2.283605e-003
-1.545100e-004,2.084587e-003
-2.094501e-004,1.838085e-003
-2.506147e-004,1.599200e-003
-2.718453e-004,1.401966e-003
-2.734659e-004,1.245573e-003
-2.561249e-004,1.107169e-003
-2.250084e-004,9.527207e-004
-1.904885e-004,7.765555e-004
-1.642339e-004,6.118970e-004
-1.524032e-004,4.849998e-004
-1.512687e-004,3.890571e-004
-1.530514e-004,2.850111e-004
-1.457585e-004,1.414213e-004
-1.246900e-004,-3.198863e-005
-9.081834e-005,-2.006986e-004
-5.046408e-005,-3.261371e-004
-1.302699e-005,-3.830221e-004
1.338965e-005,-3.673017e-004
2.862379e-005,-3.109030e-004
4.385793e-005,-3.034480e-004
7.011251e-005,-4.365036e-004
1.093323e-004,-7.150938e-004
1.524417e-004,-1.040683e-003
1.877719e-004,-1.265143e-003
2.044647e-004,-1.272922e-003
2.005751e-004,-1.047490e-003
1.790204e-004,-6.567503e-004
1.514693e-004,-2.084778e-004
1.344524e-004,2.038164e-004
1.354248e-004,5.302160e-004
1.517934e-004,7.757451e-004
1.770756e-004,9.878889e-004
2.015475e-004,1.214943e-003
2.154851e-004,1.482675e-003
2.151610e-004,1.774880e-003
2.031682e-004,2.036130e-003
1.861513e-004,2.182961e-003
1.684862e-004,2.141149e-003
1.511452e-004,1.890595e-003
1.312111e-004,1.485592e-003
1.154908e-004,1.024516e-003
1.145184e-004,6.088177e-004
1.342904e-004,3.039728e-004
1.738343e-004,1.214872e-004
2.203471e-004,2.214118e-005
2.589186e-004,-5.678463e-005
2.799871e-004,-1.682856e-004
2.801492e-004,-3.350507e-004
2.655633e-004,-5.530285e-004
2.372019e-004,-7.972610e-004
1.991165e-004,-1.033876e-003
1.569795e-004,-1.231596e-003
1.172735e-004,-1.369027e-003
8.340186e-005,-1.442119e-003
5.585077e-005,-1.467563e-003
3.510640e-005,-1.465942e-003
1.452411e-005,-1.447467e-003
-8.489165e-006,-1.411488e-003
-3.328516e-005,-1.359627e-003
-5.435365e-005,-1.299015e-003
-6.731887e-005,-1.237592e-003
-6.845333e-005,-1.181518e-003
-5.532604e-005,-1.134843e-003
-3.004385e-005,-1.096920e-003
1.558884e-006,-1.063210e-003
3.121684e-005,-1.025125e-003
4.855782e-005,-9.786120e-004
4.726130e-005,-9.261028e-004
2.181705e-005,-8.744040e-004
-2.971972e-005,-8.293498e-004
-1.005423e-004,-7.940196e-004
-1.763888e-004,-7.669547e-004
-2.384598e-004,-7.434553e-004
-2.694143e-004,-7.168766e-004
-2.566112e-004,-6.859221e-004
-2.039399e-004,-6.496194e-004
-1.305243e-004,-6.112100e-004
-6.375343e-005,-5.742591e-004
-2.194059e-005,-5.403875e-004
-1.173047e-005,-5.095950e-004
-2.064406e-005,-4.797750e-004
-3.425755e-005,-4.480102e-004
-4.236081e-005,-4.134903e-004
-3.895744e-005,-3.788084e-004
-2.388537e-005,-3.444505e-004
-8.720958e-007,-3.118754e-004
2.457216e-005,-2.789761e-004
5.212327e-005,-2.468872e-004
7.821578e-005,-2.167431e-004
1.036600e-004,-1.895161e-004
1.263492e-004,-1.601823e-004
1.378558e-004,-1.280934e-004
1.378558e-004,-9.827335e-005
1.326697e-004,-7.250496e-005
1.305629e-004,-4.965375e-005
1.378558e-004,-3.069211e-005
1.551968e-004,-1.059601e-005
1.720516e-004,1.290346e-005
1.765894e-004,3.769945e-005
1.671896e-004,6.136099e-005
1.532520e-004,8.664317e-005
1.449867e-004,1.161391e-004
1.448246e-004,1.488763e-004
1.548727e-004,1.795066e-004
1.738343e-004,2.059233e-004
1.981441e-004,2.253711e-004
2.164575e-004,2.419018e-004
2.196988e-004,2.618358e-004
2.036543e-004,2.861456e-004
1.707551e-004,3.080244e-004
1.315353e-004,3.242310e-004
1.030118e-004,3.350894e-004
9.490851e-005,3.410858e-004
1.010670e-004,3.451374e-004
1.000946e-004,3.482167e-004
7.675719e-005,3.524303e-004
2.522042e-005,3.584267e-004
-5.046408e-005,3.687989e-004
-1.310105e-004,3.817642e-004
-1.880575e-004,3.887330e-004
-2.086398e-004,3.884088e-004
-1.964849e-004,3.858158e-004
-1.613168e-004,3.864641e-004
-1.156143e-004,3.919743e-004
-7.185670e-005,4.028327e-004
-4.349527e-005,4.157979e-004
-3.020592e-005,4.300596e-004
-2.453363e-005,4.430249e-004
-1.448558e-005,4.525867e-004
8.203561e-006,4.576108e-004
4.207521e-005,4.559901e-004
7.870197e-005,4.448076e-004
1.030118e-004,4.174185e-004
9.814982e-005,3.619922e-004
5.795762e-005,2.453051e-004
-1.196226e-006,3.348575e-005
-5.402952e-005,-2.655248e-004
-8.449779e-005,-5.925724e-004
-9.422171e-005,-8.640318e-004
-9.276313e-005,-1.013132e-003
-8.692878e-005,-1.015239e-003
-8.401160e-005,-8.996861e-004
-9.551824e-005,-7.466965e-004
-1.255003e-004,-6.337370e-004
-1.645580e-004,-5.956517e-004
-1.935677e-004,-6.269303e-004
-1.948643e-004,-6.992114e-004
-1.621271e-004,-7.745718e-004
-1.047560e-004,-8.586837e-004
-3.766092e-005,-9.709949e-004
2.197911e-005,-1.084441e-003
6.476436e-005,-1.137274e-003
8.939829e-005,-1.063534e-003
9.782569e-005,-8.144398e-004
1.018773e-004,-3.679500e-004
1.077117e-004,2.652392e-004
1.153287e-004,1.035536e-003
1.237561e-004,1.861261e-003
1.291043e-004,2.664622e-003
1.273216e-004,3.381280e-003
1.216493e-004,3.960345e-003
1.106288e-004,4.378641e-003
8.712937e-005,4.652535e-003
4.953022e-005,4.812334e-003
8.689757e-006,4.873110e-003
-2.291298e-005,4.824975e-003
-3.555407e-005,4.651886e-003
-2.631635e-005,4.348820e-003
-2.492749e-006,3.928904e-003
2.408596e-005,3.406724e-003
4.320967e-005,2.803837e-003
4.645098e-005,2.146821e-003
3.640293e-005,1.464848e-003
2.392390e-005,7.917897e-004
1.614476e-005,1.644345e-004
1.792748e-005,-3.914495e-004
2.910999e-005,-8.693800e-004
4.871989e-005,-1.271626e-003
7.740545e-005,-1.595919e-003
1.099806e-004,-1.836586e-003
1.376937e-004,-1.988279e-003
1.555209e-004,-2.052619e-003
1.683241e-004,-2.041436e-003
1.756170e-004,-1.974828e-003
1.715654e-004,-1.878399e-003
1.517934e-004,-1.775325e-003
1.192183e-004,-1.682300e-003
8.696730e-005,-1.601753e-003
6.962632e-005,-1.528986e-003
7.675719e-005,-1.461891e-003
1.085220e-004,-1.397389e-003
1.579519e-004,-1.336452e-003
2.149989e-004,-1.277622e-003
2.704253e-004,-1.220738e-003
3.172621e-004,-1.168877e-003
3.508097e-004,-1.121554e-003
3.676645e-004,-1.078930e-003
3.762539e-004,-1.042952e-003
3.783608e-004,-1.010053e-003
3.696093e-004,-9.769913e-004
3.389789e-004,-9.450644e-004
2.842008e-004,-9.136238e-004
2.187264e-004,-8.825072e-004
1.602208e-004,-8.510666e-004
1.214872e-004,-8.212466e-004
1.034980e-004,-7.907783e-004
1.034980e-004,-7.593377e-004
1.221355e-004,-7.283832e-004
1.613553e-004,-6.980770e-004
2.153230e-004,-6.658260e-004
2.712356e-004,-6.303337e-004
3.089968e-004,-5.937069e-004
3.026763e-004,-5.565939e-004
2.334744e-004,-5.173741e-004
9.426025e-005,-4.747510e-004
-1.011905e-004,-4.314796e-004
-3.204648e-004,-3.904771e-004
-5.183466e-004,-3.556330e-004
-6.471885e-004,-3.254889e-004
-6.755498e-004,-2.964792e-004
-6.091031e-004,-2.668213e-004
-4.864197e-004,-2.455907e-004
-3.585502e-004,-2.451045e-004
-2.684419e-004,-2.755728e-004
-2.276015e-004,-3.305129e-004
-2.217671e-004,-3.882081e-004
-2.258187e-004,-4.232143e-004
-2.297083e-004,-4.133283e-004
-2.298704e-004,-3.532020e-004
-2.199844e-004,-2.540181e-004
-1.912988e-004,-1.379793e-004
-1.447861e-004,-3.053005e-005
-8.433573e-005,4.564065e-005
-2.129233e-005,8.469840e-005
3.267542e-005,5.147500e-005
7.238143e-005,-1.433275e-004
1.017153e-004,-5.564319e-004
1.271595e-004,-1.123822e-003
1.540623e-004,-1.687972e-003
1.838824e-004,-2.071905e-003
2.120818e-004,-2.169792e-003
2.297469e-004,-1.992655e-003
2.263435e-004,-1.642431e-003
2.033302e-004,-1.238078e-003
1.633001e-004,-8.465288e-004
1.052807e-004,-4.679442e-004
2.408596e-005,-6.407756e-005
-7.801519e-005,4.217943e-004
-1.942160e-004,1.031160e-003
-3.121995e-004,1.756890e-003
-4.154351e-004,2.515521e-003
-4.935506e-004,3.192472e-003
-5.420081e-004,3.702010e-003
-5.635628e-004,4.000700e-003
-5.663179e-004,4.076223e-003
-5.491390e-004,3.941059e-003
-4.984125e-004,3.641883e-003
-4.026320e-004,3.246926e-003
-2.609869e-004,2.824095e-003
-9.130454e-005,2.421523e-003
8.113296e-005,2.069191e-003
2.384984e-004,1.781848e-003
3.640990e-004,1.546529e-003
4.417284e-004,1.336006e-003
4.598797e-004,1.120296e-003
4.127187e-004,8.754155e-004
3.161277e-004,6.078454e-004
2.055991e-004,3.490270e-004
1.151667e-004,1.308870e-004
6.346784e-005,-3.117831e-005
5.001641e-005,-1.420310e-004
6.298164e-005,-2.240360e-004
9.004655e-005,-3.015032e-004
1.122495e-004,-3.797808e-004
1.216493e-004,-4.564376e-004
1.174356e-004,-5.283947e-004
1.000946e-004,-5.943552e-004
7.027457e-005,-6.526987e-004
3.316162e-005,-6.980770e-004
1.396819e-006,-7.251419e-004
-1.448558e-005,-7.293556e-004
-1.124428e-005,-7.165524e-004
5.448451e-006,-6.953219e-004
2.829966e-005,-6.750637e-004
4.888196e-005,-6.606399e-004
6.395403e-005,-6.533469e-004
7.529860e-005,-6.467023e-004
8.793970e-005,-6.348715e-004
1.106288e-004,-6.125065e-004
1.480659e-004,-5.787969e-004
1.983062e-004,-5.395771e-004
2.561635e-004,-5.050572e-004
3.205035e-004,-4.807474e-004
3.900295e-004,-4.648650e-004
4.640934e-004,-4.528722e-004
5.397779e-004,-4.399070e-004
6.114109e-004,-4.261314e-004
6.695923e-004,-4.110594e-004
7.078398e-004,-3.927460e-004
7.232359e-004,-3.732981e-004
7.131879e-004,-3.562813e-004
6.768852e-004,-3.465574e-004
6.198382e-004,-3.428299e-004
5.490156e-004,-3.366714e-004
4.713863e-004,-3.235441e-004
4.007258e-004,-3.029618e-004
3.509718e-004,-2.788141e-004
3.229344e-004,-2.535319e-004
3.000832e-004,-2.316531e-004
2.634565e-004,-2.172293e-004
2.086784e-004,-2.118811e-004
1.472556e-004,-2.154466e-004
9.652916e-005,-2.216050e-004
7.124698e-005,-2.199844e-004
7.351588e-005,-2.083157e-004
9.312579e-005,-1.893540e-004
1.151667e-004,-1.739578e-004
1.219734e-004,-1.718510e-004
1.028497e-004,-1.825473e-004
5.698522e-005,-1.956746e-004
-7.030578e-006,-2.023193e-004
-8.044616e-005,-1.982676e-004
-1.536997e-004,-1.807646e-004
-2.131776e-004,-1.524032e-004
-2.491561e-004,-1.229073e-004
-2.630937e-004,-1.075111e-004
-2.658489e-004,-1.105903e-004
-2.695764e-004,-1.222590e-004
-2.801106e-004,-1.327932e-004
-3.016653e-004,-1.394379e-004
-3.365093e-004,-1.434896e-004
-3.771877e-004,-1.533756e-004
-4.144627e-004,-1.718510e-004
-4.421759e-004,-1.875713e-004
-4.590307e-004,-1.812508e-004
-4.666477e-004,-1.399241e-004
-4.745890e-004,-6.164659e-005
-4.929024e-004,2.586868e-005
-5.155915e-004,7.076077e-005
-5.219121e-004,4.061663e-005
-4.974402e-004,-1.075111e-004
-4.462275e-004,-4.666477e-004
-3.844807e-004,-1.074717e-003
-3.285681e-004,-1.818597e-003
-2.882139e-004,-2.494248e-003
-2.634179e-004,-2.920642e-003
-2.494803e-004,-3.013020e-003
-2.428356e-004,-2.812058e-003
-2.391081e-004,-2.427963e-003
-2.339220e-004,-1.965590e-003
-2.225774e-004,-1.475504e-003
-2.013469e-004,-9.575435e-004
-1.710407e-004,-3.841565e-004
-1.344139e-004,2.749631e-004
-9.486997e-005,1.015116e-003
-5.889147e-005,1.791734e-003
-3.863331e-005,2.514549e-003
-4.333321e-005,3.085832e-003
-6.780506e-005,3.454696e-003
-9.179074e-005,3.637507e-003
-9.551824e-005,3.713355e-003
-6.926366e-005,3.781585e-003
-1.156841e-005,3.915776e-003
6.541262e-005,4.124681e-003
1.428798e-004,4.358544e-003
2.055991e-004,4.549460e-003
2.506533e-004,4.637787e-003
2.804733e-004,4.597432e-003
3.002453e-004,4.437957e-003
3.039728e-004,4.202473e-003
2.846870e-004,3.940573e-003
2.448189e-004,3.684021e-003
1.994406e-004,3.421634e-003
1.691344e-004,3.095881e-003
1.743205e-004,2.645822e-003
2.182402e-004,2.052498e-003
2.876042e-004,1.345568e-003
3.517821e-004,5.841838e-004
3.807918e-004,-1.486757e-004
3.666921e-004,-7.885094e-004
3.201793e-004,-1.309225e-003
2.556773e-004,-1.710823e-003
1.900409e-004,-2.001406e-003
1.370455e-004,-2.191509e-003
1.041462e-004,-2.302524e-003
8.891209e-005,-2.363947e-003
8.210535e-005,-2.395063e-003
7.513654e-005,-2.398791e-003
6.314371e-005,-2.369295e-003
4.434413e-005,-2.305441e-003
1.954813e-005,-2.212254e-003
-5.896120e-006,-2.098483e-003
-2.793700e-005,-1.978879e-003
-4.544005e-005,-1.869485e-003
-5.500191e-005,-1.779377e-003
-5.662256e-005,-1.710499e-003
-4.916756e-005,-1.653938e-003
-3.117831e-005,-1.599646e-003
-6.868512e-006,-1.542923e-003
2.035846e-005,-1.482959e-003
5.487837e-005,-1.421050e-003
1.075496e-004,-1.362869e-003
1.748067e-004,-1.305984e-003
2.423880e-004,-1.252178e-003
2.947351e-004,-1.205503e-003
3.260137e-004,-1.165311e-003
3.420582e-004,-1.127064e-003
3.475684e-004,-1.086710e-003
3.448132e-004,-1.048300e-003
3.299032e-004,-1.015563e-003
2.953833e-004,-9.893083e-004
2.402811e-004,-9.700225e-004
1.812893e-004,-9.617572e-004
1.381799e-004,-9.883359e-004
1.253768e-004,-1.105671e-003
1.470936e-004,-1.345852e-003
1.937684e-004,-1.663824e-003
2.480603e-004,-1.956676e-003
2.867939e-004,-2.121659e-003
2.958695e-004,-2.097025e-003
2.675081e-004,-1.873375e-003
2.096508e-004,-1.485066e-003
1.422316e-004,-9.860670e-004
8.405013e-005,-4.434724e-004
3.915804e-005,7.238143e-005
4.313994e-006,4.981271e-004
-1.302699e-005,8.091307e-004
-1.027188e-005,1.025164e-003
1.371378e-005,1.196143e-003
5.585077e-005,1.373605e-003
1.062531e-004,1.574566e-003
1.485521e-004,1.765480e-003
1.707551e-004,1.878602e-003
1.702689e-004,1.860450e-003
1.399627e-004,1.710702e-003
7.238143e-005,1.475544e-003
-2.388537e-005,1.214132e-003
-1.316588e-004,9.648756e-004
-2.340841e-004,7.444666e-004
-3.157650e-004,5.519328e-004
-3.669776e-004,3.726885e-004
-3.865875e-004,1.859892e-004
-3.789704e-004,-5.409925e-006
-3.463953e-004,-1.682856e-004
-2.899966e-004,-2.711970e-004
-2.219292e-004,-3.044204e-004
-1.596961e-004,-2.801106e-004
-1.162626e-004,-2.384598e-004
-9.341139e-005,-2.392702e-004
-8.822530e-005,-3.207890e-004
-9.033214e-005,-4.781544e-004
-9.227693e-005,-6.711741e-004
-9.146661e-005,-8.410186e-004
-8.547019e-005,-9.426334e-004
-7.282909e-005,-9.602986e-004
-5.386745e-005,-9.102204e-004
-2.907146e-005,-8.397221e-004
-3.627206e-006,-7.880232e-004
1.452411e-005,-7.348658e-004
1.744128e-005,-6.116962e-004
1.193106e-005,-3.510952e-004
1.403791e-005,7.448828e-005
3.170303e-005,6.486858e-004
6.589881e-005,1.325471e-003
1.065772e-004,2.037426e-003
1.446626e-004,2.703680e-003
1.752929e-004,3.249520e-003
1.965235e-004,3.618384e-003
2.020337e-004,3.777533e-003
1.958752e-004,3.728103e-003
1.889064e-004,3.498292e-003
1.882581e-004,3.127808e-003
1.970097e-004,2.663974e-003
2.102990e-004,2.158814e-003
2.192126e-004,1.657544e-003
2.203471e-004,1.184798e-003
2.148369e-004,7.522457e-004
1.960373e-004,3.744712e-004
1.530900e-004,6.249544e-005
7.562274e-005,-1.865989e-004
-3.263690e-005,-3.856151e-004
-1.622891e-004,-5.436288e-004
-3.024756e-004,-6.604778e-004
-4.418518e-004,-7.351899e-004
-5.716661e-004,-7.771648e-004
-6.854359e-004,-7.932092e-004
-7.792716e-004,-7.711684e-004
-8.470149e-004,-6.979149e-004
-8.778074e-004,-5.865761e-004
-8.619250e-004,-4.726441e-004
-8.013126e-004,-3.935563e-004
-7.165524e-004,-3.621157e-004
-6.241752e-004,-3.656811e-004
-5.269360e-004,-3.781601e-004
-4.172178e-004,-3.807532e-004
-2.927517e-004,-3.679500e-004
-1.587237e-004,-3.465574e-004
-1.788895e-005,-3.222476e-004
1.352628e-004,-2.934000e-004
2.976522e-004,-2.570973e-004
4.551798e-004,-2.133397e-004
5.963388e-004,-1.668270e-004
7.065432e-004,-1.185315e-004
7.755831e-004,-7.104637e-005
7.997308e-004,-2.096819e-005
7.862794e-004,2.667901e-005
7.483561e-004,5.552663e-005
6.976296e-004,4.920609e-005
6.441480e-004,1.558884e-006
5.953663e-004,-7.882551e-005
5.478812e-004,-1.718510e-004
4.981271e-004,-2.553146e-004
4.524247e-004,-3.181959e-004
4.146634e-004,-3.601709e-004
3.811159e-004,-3.838324e-004
3.465960e-004,-3.982562e-004
3.098072e-004,-4.126800e-004
2.767458e-004,-4.261314e-004
2.561635e-004,-4.322899e-004
2.459534e-004,-4.266176e-004
2.414156e-004,-4.110594e-004
2.380122e-004,-3.873978e-004
2.394708e-004,-3.634122e-004
2.464396e-004,-3.436402e-004
2.522740e-004,-3.311612e-004
2.431983e-004,-3.199787e-004
2.122438e-004,-3.029618e-004
1.545486e-004,-2.815692e-004
7.562274e-005,-2.579077e-004
-7.192643e-006,-2.331117e-004
-7.785312e-005,-2.081536e-004
-1.277692e-004,-1.865989e-004
-1.567789e-004,-1.715269e-004
-1.663408e-004,-1.622891e-004
-1.629374e-004,-1.553203e-004
-1.502963e-004,-1.449481e-004
-1.339277e-004,-1.282554e-004
-1.216107e-004,-1.099420e-004
-1.149661e-004,-9.730095e-005
-1.107524e-004,-8.871149e-005
-9.924574e-005,-7.898758e-005
-7.104637e-005,-6.456376e-005
-2.226472e-005,-5.095028e-005
4.369587e-005,-4.560212e-005
1.180839e-004,-4.997788e-005
1.884202e-004,-5.548810e-005
2.524360e-004,-5.532604e-005
3.064038e-004,-4.673658e-005
3.407616e-004,-3.182657e-005
3.457856e-004,-1.707863e-005
3.166139e-004,-1.027188e-005
2.519498e-004,-1.270286e-005
1.576278e-004,-1.140634e-005
4.337174e-005,6.258778e-006
-7.607040e-005,4.288554e-005
-1.849783e-004,9.490851e-005
-2.630937e-004,1.480659e-004
-2.916172e-004,1.880961e-004
-2.609869e-004,2.047888e-004
-1.827094e-004,1.994406e-004
-8.222889e-005,1.816135e-004
1.727922e-005,1.665414e-004
9.863601e-005,1.665414e-004
1.561692e-004,1.825858e-004
1.872858e-004,1.999268e-004
1.871237e-004,2.008992e-004
1.409351e-004,1.793446e-004
3.688912e-005,1.425557e-004
-1.107524e-004,1.028497e-004
-2.664971e-004,7.189524e-005
-3.945287e-004,5.568870e-005
-4.685925e-004,5.601283e-005
-4.815578e-004,6.865393e-005
-4.449310e-004,8.988448e-005
-3.823738e-004,1.104668e-004
-3.162512e-004,1.218114e-004
-2.579077e-004,1.143563e-004
-2.104225e-004,5.390598e-005
-1.763888e-004,-1.086455e-004
-1.564548e-004,-3.848048e-004
-1.488377e-004,-7.303280e-004
-1.473791e-004,-1.060941e-003
-1.433275e-004,-1.297070e-003
-1.316588e-004,-1.388637e-003
-1.120489e-004,-1.328673e-003
-8.465986e-005,-1.137922e-003
-5.192267e-005,-8.470149e-004
-1.351319e-005,-4.898231e-004
2.619281e-005,-1.081593e-004
5.941620e-005,2.572980e-004
8.178122e-005,5.849942e-004
9.134307e-005,8.734707e-004
8.858796e-005,1.128886e-003
7.837785e-005,1.352536e-003
6.946425e-005,1.528054e-003
6.638501e-005,1.622376e-003
6.995045e-005,1.593528e-003
7.708132e-005,1.399373e-003
8.648111e-005,1.046881e-003
9.831188e-005,6.135177e-004
1.151667e-004,2.180782e-004
1.367214e-004,-3.782299e-005
1.590864e-004,-1.217728e-004
1.754550e-004,-6.974985e-005
1.806411e-004,3.575467e-005
1.688103e-004,1.190562e-004
1.470936e-004,1.415833e-004
1.278078e-004,1.271595e-004
1.200286e-004,1.480659e-004
1.253768e-004,2.699391e-004
1.427178e-004,5.021787e-004
1.650828e-004,7.951930e-004
1.845306e-004,1.081725e-003
1.903650e-004,1.305051e-003
1.761032e-004,1.431138e-003
1.521176e-004,1.460310e-003
1.252147e-004,1.417849e-003
9.685329e-005,1.340868e-003
7.059870e-005,1.265993e-003
4.677511e-005,1.213484e-003
2.554455e-005,1.174913e-003
3.341602e-006,1.120134e-003
-2.291298e-005,1.022733e-003
-5.143647e-005,8.749292e-004
-7.250496e-005,6.880678e-004
-8.449779e-005,4.790034e-004
-8.968388e-005,2.654012e-004
-9.130454e-005,6.168512e-005
-9.227693e-005,-1.139937e-004
-9.454584e-005,-2.405667e-004
-9.357345e-005,-3.141443e-004
-8.773910e-005,-3.551468e-004
-7.947377e-005,-3.940425e-004
-7.056018e-005,-4.491447e-004
-6.407756e-005,-5.180224e-004
-6.018800e-005,-5.826865e-004
-5.483985e-005,-6.232028e-004
-4.576419e-005,-6.376266e-004
-3.085418e-005,-6.350335e-004
-1.529591e-005,-6.316302e-004
-8.975361e-006,-6.413541e-004
-1.659243e-005,-6.653398e-004
-3.587821e-005,-6.836532e-004
-5.402952e-005,-6.695535e-004
-5.710876e-005,-6.040791e-004
-4.009190e-005,-4.877162e-004
-8.813297e-006,-3.403989e-004
2.570661e-005,-1.945401e-004
5.633696e-005,-7.931171e-005
8.421220e-005,-1.886135e-005
1.130598e-004,-2.501983e-005
1.422316e-004,-9.973194e-005
1.689724e-004,-2.363530e-004
1.879340e-004,-4.102490e-004
1.947408e-004,-5.899794e-004
1.874478e-004,-7.483172e-004
1.694586e-004,-8.701903e-004
1.477418e-004,-9.518712e-004
1.276457e-004,-9.922255e-004
1.161391e-004,-9.961150e-004
1.193804e-004,-9.695363e-004
1.423936e-004,-9.192961e-004
1.867996e-004,-8.483115e-004
2.496809e-004,-7.606342e-004
3.219621e-004,-6.677707e-004
3.895433e-004,-5.830106e-004
4.326527e-004,-5.259637e-004
4.355699e-004,-5.614560e-004
3.960259e-004,-7.815406e-004
3.208276e-004,-1.204369e-003
2.211574e-004,-1.721844e-003
1.112771e-004,-2.162824e-003
1.112074e-005,-2.392957e-003
-6.683268e-005,-2.399601e-003
-1.089697e-004,-2.272056e-003
-1.060525e-004,-2.098483e-003
-6.002593e-005,-1.906598e-003
1.452411e-005,-1.652966e-003
9.750155e-005,-1.246506e-003
1.731861e-004,-6.269303e-004
2.271538e-004,1.678379e-004
2.527601e-004,1.013981e-003
2.538946e-004,1.785900e-003
2.368777e-004,2.410178e-003
2.127300e-004,2.868664e-003
1.918236e-004,3.155845e-003
1.788584e-004,3.265078e-003
1.757791e-004,3.209651e-003
1.748067e-004,3.017927e-003
1.722137e-004,2.716321e-003
1.705930e-004,2.338221e-003
1.748067e-004,1.934352e-003
1.829100e-004,1.546043e-003
1.808031e-004,1.169889e-003
1.558451e-004,7.770417e-004
1.069013e-004,3.414099e-004
5.066468e-005,-1.511066e-004
5.610517e-006,-6.766843e-004
-1.659243e-005,-1.164663e-003
-1.399939e-005,-1.521369e-003
5.772582e-006,-1.687810e-003
2.781346e-005,-1.690727e-003
3.672705e-005,-1.601915e-003
2.781346e-005,-1.476152e-003
6.907039e-006,-1.327376e-003
-1.853721e-005,-1.133060e-003
-4.625038e-005,-8.632215e-004
-7.914964e-005,-5.060296e-004
-1.149661e-004,-7.299116e-005
-1.524032e-004,4.149876e-004
-1.846541e-004,9.229006e-004
-2.031296e-004,1.409259e-003
-2.068571e-004,1.842947e-003
-2.013469e-004,2.214240e-003
-1.998883e-004,2.517628e-003
-2.084778e-004,2.734310e-003
-2.267911e-004,2.850512e-003
-2.485079e-004,2.865098e-003
-2.671454e-004,2.774827e-003
-2.776796e-004,2.568030e-003
-2.695764e-004,2.237254e-003
-2.374874e-004,1.787197e-003
-1.843300e-004,1.206515e-003
-1.208004e-004,4.846757e-004
-5.483985e-005,-3.162512e-004
-7.100305e-007,-1.058510e-003
3.218923e-005,-1.605805e-003
3.332369e-005,-1.881154e-003
-4.923729e-006,-1.891364e-003
-7.947377e-005,-1.700775e-003
-1.752544e-004,-1.393013e-003
-2.710350e-004,-1.043276e-003
-3.486642e-004,-7.022907e-004
-3.984183e-004,-3.869116e-004
-4.164075e-004,-8.547019e-005
-4.057112e-004,2.203471e-004
-3.682741e-004,5.360504e-004
-3.154408e-004,8.533745e-004
-2.619593e-004,1.142500e-003
-2.194982e-004,1.365502e-003
-1.955125e-004,1.477651e-003
-1.930815e-004,1.450424e-003
-2.008607e-004,1.293707e-003
-2.049123e-004,1.039750e-003
-1.958366e-004,7.284220e-004
-1.710407e-004,3.992672e-004
-1.319829e-004,8.307774e-005
-8.790116e-005,-2.079916e-004
-5.435365e-005,-4.810716e-004
-4.462973e-005,-7.491275e-004
-6.132245e-005,-1.006163e-003
-9.114247e-005,-1.223655e-003
-1.193418e-004,-1.369189e-003
-1.310105e-004,-1.424940e-003
-1.240417e-004,-1.394958e-003
-9.730095e-005,-1.304039e-003
-4.576419e-005,-1.189945e-003
3.397195e-005,-1.083630e-003
1.338042e-004,-9.987081e-004
2.350950e-004,-9.304786e-004
3.221241e-004,-8.687317e-004
3.898674e-004,-8.105503e-004
4.402698e-004,-7.544757e-004
4.754380e-004,-7.003458e-004
5.020167e-004,-6.504298e-004
5.263265e-004,-6.102376e-004
5.486915e-004,-5.856036e-004
5.644119e-004,-5.885208e-004
5.699221e-004,-6.501056e-004
5.580913e-004,-7.933713e-004
5.229231e-004,-9.969254e-004
4.673347e-004,-1.189783e-003
4.046154e-004,-1.292208e-003
3.495132e-004,-1.269519e-003
3.112657e-004,-1.166446e-003
2.913317e-004,-1.084116e-003
2.812837e-004,-1.096920e-003
2.728562e-004,-1.187352e-003
2.632944e-004,-1.261902e-003
2.550291e-004,-1.218793e-003
2.503292e-004,-1.017994e-003
2.493568e-004,-6.920805e-004
2.522740e-004,-3.079858e-004
2.629703e-004,7.546067e-005
2.780423e-004,4.307079e-004
2.908455e-004,7.650488e-004
2.953833e-004,1.101983e-003
2.914938e-004,1.447345e-003
2.838767e-004,1.778283e-003
2.850111e-004,2.056226e-003
2.989488e-004,2.256377e-003
3.230965e-004,2.370148e-003
3.548613e-004,2.388785e-003
3.911640e-004,2.307428e-003
4.313562e-004,2.141311e-003
4.673347e-004,1.916525e-003
4.843515e-004,1.652520e-003
4.615003e-004,1.355778e-003
3.843572e-004,1.038129e-003
2.525981e-004,7.248566e-004
8.064676e-005,4.477248e-004
-1.091317e-004,2.331502e-004
-2.990722e-004,8.016056e-005
-4.817198e-004,-3.749886e-005
-6.531849e-004,-1.786577e-004
-8.160605e-004,-4.029561e-004
-9.685639e-004,-7.188214e-004
-1.090113e-003,-1.071475e-003
-1.152022e-003,-1.370972e-003
-1.134195e-003,-1.540330e-003
-1.035659e-003,-1.550378e-003
-8.737558e-004,-1.418295e-003
-6.718223e-004,-1.186542e-003
-4.561135e-004,-9.024413e-004
-2.499665e-004,-6.053756e-004
-7.169464e-005,-3.194925e-004
6.800567e-005,-5.127441e-005
1.720516e-004,1.918236e-004
2.467637e-004,3.767402e-004
2.955454e-004,4.728449e-004
3.221241e-004,4.853239e-004
3.287688e-004,4.491834e-004
3.226103e-004,4.114221e-004
3.127243e-004,4.088291e-004
3.052693e-004,4.527488e-004
2.997591e-004,5.271368e-004
2.869559e-004,6.044420e-004
2.571359e-004,6.634339e-004
2.107852e-004,6.906608e-004
1.553589e-004,6.861230e-004
1.025256e-004,6.637580e-004
6.087479e-005,6.498203e-004
3.559260e-005,6.595443e-004
2.489629e-005,6.998985e-004
2.133085e-005,7.647247e-004
1.290346e-005,8.373301e-004
-7.030578e-006,9.029665e-004
-3.522994e-005,9.509380e-004
-6.180866e-005,9.681169e-004
-7.623246e-005,9.467243e-004
-6.650855e-005,8.857876e-004
-2.664048e-005,7.869277e-004
3.980630e-005,6.587339e-004
1.184080e-004,5.166026e-004
1.898788e-004,3.671783e-004
2.393087e-004,2.081922e-004
2.636185e-004,3.672705e-005
2.705873e-004,-1.454343e-004
2.717218e-004,-3.288923e-004
2.675081e-004,-4.985746e-004
2.501671e-004,-6.402197e-004
2.138645e-004,-7.389174e-004
1.647587e-004,-7.825129e-004
1.177597e-004,-7.697098e-004
8.875003e-005,-7.110421e-004
8.307774e-005,-6.223925e-004
9.037068e-005,-5.214258e-004
9.652916e-005,-4.275900e-004
9.571883e-005,-3.512573e-004
8.810177e-005,-2.924276e-004
7.708132e-005,-2.511009e-004
6.444023e-005,-2.258187e-004
5.228533e-005,-2.186879e-004
4.645098e-005,-2.238740e-004
5.260946e-005,-2.293842e-004
6.816773e-005,-2.269532e-004
8.842590e-005,-2.131776e-004
1.059289e-004,-1.927574e-004
1.171115e-004,-1.780095e-004
1.148425e-004,-1.757406e-004
9.750155e-005,-1.904885e-004
7.448828e-005,-2.204706e-004
5.358185e-005,-2.562870e-004
2.700314e-005,-2.836761e-004
-1.448558e-005,-2.916172e-004
-7.153257e-005,-2.758969e-004
-1.405724e-004,-2.408908e-004
-2.102605e-004,-1.958366e-004
-2.629317e-004,-1.498101e-004
-2.862691e-004,-1.101041e-004
-2.765452e-004,-8.012203e-005
-2.476975e-004,-5.791909e-005
-2.160948e-004,-4.155049e-005
-1.835197e-004,-2.971972e-005
-1.460826e-004,-2.048200e-005
-1.016767e-004,-1.594417e-005
-5.548810e-005,-2.145439e-005
-2.177852e-005,-3.555407e-005
-1.837515e-005,-5.305713e-005
-5.775702e-005,-6.456376e-005
-1.319829e-004,-6.731887e-005
-2.201465e-004,-6.326724e-005
-2.946965e-004,-5.905355e-005
-3.303509e-004,-5.937767e-005
-3.144684e-004,-6.180866e-005
-2.507768e-004,-6.051213e-005
-1.580754e-004,-4.754691e-005
-6.099833e-005,-2.129233e-005
2.149292e-005,4.638125e-006
7.578480e-005,5.772582e-006
8.842590e-005,-3.555407e-005
6.006446e-005,-1.216107e-004
1.160693e-005,-2.344082e-004
-2.728874e-005,-3.462333e-004
-3.847125e-005,-4.347209e-004
-2.048200e-005,-5.023021e-004
1.663096e-005,-5.708557e-004
6.233338e-005,-6.582089e-004
1.072255e-004,-7.528550e-004
1.462832e-004,-8.084434e-004
1.806411e-004,-7.677650e-004
2.107852e-004,-6.034308e-004
2.323399e-004,-3.324577e-004
2.425500e-004,-1.140634e-005
2.487085e-004,2.846870e-004
2.647530e-004,5.050959e-004
2.970040e-004,6.396102e-004
3.405996e-004,7.195084e-004
3.895433e-004,7.985964e-004
4.328148e-004,9.209558e-004
4.602038e-004,1.096797e-003
4.681450e-004,1.309103e-003
4.582590e-004,1.527567e-003
4.320044e-004,1.709405e-003
3.934329e-004,1.814910e-003
3.469201e-004,1.816855e-003
2.971661e-004,1.708271e-003
2.464396e-004,1.509254e-003
1.973338e-004,1.262104e-003
1.475797e-004,1.023705e-003
9.280166e-005,8.329543e-004
3.624086e-005,6.961710e-004
-1.399939e-005,5.864528e-004
-5.208473e-005,4.674967e-004
-7.817725e-005,3.051073e-004
-9.324932e-005,9.004655e-005
-9.811128e-005,-1.569410e-004
-8.903562e-005,-3.920977e-004
-6.375343e-005,-5.705316e-004
-3.004385e-005,-6.697155e-004
2.531276e-006,-6.996976e-004
2.781346e-005,-6.930529e-004
3.915804e-005,-6.791154e-004
3.316162e-005,-6.676087e-004
6.420843e-006,-6.452437e-004
-4.365734e-005,-5.904656e-004
-1.120489e-004,-5.209396e-004
-1.817370e-004,-5.551354e-004
-2.277635e-004,-8.434496e-004
-2.345703e-004,-1.407599e-003
-2.060468e-004,-2.096377e-003
-1.562927e-004,-2.665227e-003
-1.024870e-004,-2.906543e-003
-5.872941e-005,-2.730215e-003
-3.377135e-005,-2.178220e-003
-2.534396e-005,-1.384748e-003
-2.566809e-005,-5.070020e-004
-2.826113e-005,3.315239e-004
-2.647842e-005,1.062277e-003
-2.194059e-005,1.685581e-003
-2.145439e-005,2.212944e-003
-3.020592e-005,2.655871e-003
-5.386745e-005,3.021330e-003
-1.013526e-004,3.311915e-003
-1.776853e-004,3.516281e-003
-2.783279e-004,3.600556e-003
-3.877220e-004,3.537350e-003
-4.906334e-004,3.316939e-003
-5.758798e-004,2.947752e-003
-6.374645e-004,2.458960e-003
-6.825187e-004,1.901129e-003
-7.215764e-004,1.321582e-003
-7.560964e-004,7.537042e-004
-7.771648e-004,2.229401e-004
-7.693857e-004,-2.376495e-004
-7.155800e-004,-5.954896e-004
-6.035930e-004,-8.505804e-004
-4.360174e-004,-1.028852e-003
-2.347323e-004,-1.156722e-003
-2.372330e-005,-1.249909e-003
1.714033e-004,-1.311170e-003
3.237448e-004,-1.338235e-003
4.206599e-004,-1.334507e-003
4.707380e-004,-1.307442e-003
4.901859e-004,-1.263037e-003
4.974788e-004,-1.201614e-003
5.047718e-004,-1.122850e-003
5.219507e-004,-1.033066e-003
5.593878e-004,-9.440921e-004
6.247002e-004,-8.706765e-004
7.156189e-004,-8.249740e-004
8.186925e-004,-8.042298e-004
9.169042e-004,-8.005023e-004
9.953439e-004,-8.048780e-004
1.040236e-003,-8.061745e-004
1.045584e-003,-7.993678e-004
1.009930e-003,-7.786234e-004
9.399175e-004,-7.426449e-004
8.595330e-004,-6.967805e-004
7.864415e-004,-6.531849e-004
7.285841e-004,-6.183409e-004
6.851506e-004,-5.877105e-004
6.486858e-004,-5.552974e-004
6.046041e-004,-5.162397e-004
5.383193e-004,-4.723200e-004
4.412422e-004,-4.319658e-004
3.172621e-004,-3.990665e-004
1.835582e-004,-3.703810e-004
5.909207e-005,-3.397506e-004
-3.620233e-005,-3.026377e-004
-9.146661e-005,-2.634179e-004
-1.161005e-004,-2.269532e-004
-1.279313e-004,-1.982676e-004
-1.446240e-004,-1.802784e-004
-1.736337e-004,-1.655304e-004
-2.133397e-004,-1.449481e-004
-2.554767e-004,-1.191798e-004
-2.903207e-004,-8.968388e-005
-3.099306e-004,-6.067420e-005
-3.175477e-004,-3.409548e-005
-3.181959e-004,-1.027188e-005
-3.168994e-004,1.290346e-005
-3.100927e-004,3.478227e-005
-2.919414e-004,5.779555e-005
-2.666592e-004,7.918817e-005
-2.439700e-004,9.896014e-005
-2.290600e-004,1.182459e-004
-2.219292e-004,1.360731e-004
-2.246843e-004,1.498487e-004
-2.357047e-004,1.611932e-004
-2.476975e-004,1.764274e-004
-2.489941e-004,1.931201e-004
-2.306807e-004,1.996027e-004
-1.945401e-004,1.701068e-004
-1.562927e-004,6.395403e-005
-1.327932e-004,-1.350622e-004
-1.349001e-004,-3.909633e-004
-1.616409e-004,-6.343853e-004
-2.026434e-004,-8.005023e-004
-2.434839e-004,-8.539837e-004
-2.723315e-004,-8.037435e-004
-2.841623e-004,-6.904599e-004
-2.794623e-004,-5.561078e-004
-2.661730e-004,-4.266176e-004
-2.507768e-004,-3.126857e-004
-2.339220e-004,-2.326255e-004
-2.117190e-004,-2.089639e-004
-1.786577e-004,-2.308428e-004
-1.378173e-004,-2.556388e-004
-9.551824e-005,-2.535319e-004
-5.613637e-005,-2.491561e-004
-2.242678e-005,-2.872415e-004
1.234753e-006,-3.635742e-004
1.322759e-005,-4.251590e-004
1.274139e-005,-4.585445e-004
-1.358292e-006,-5.574043e-004
-3.053005e-005,-8.680834e-004
-7.704279e-005,-1.402413e-003
-1.318209e-004,-1.969479e-003
-1.765509e-004,-2.298148e-003
-1.971332e-004,-2.200747e-003
-1.877334e-004,-1.673548e-003
-1.520790e-004,-8.740799e-004
-1.024870e-004,-1.156841e-005
-5.759496e-005,7.501388e-004
-2.777494e-005,1.384139e-003
-2.064406e-005,1.974707e-003
-3.976777e-005,2.606926e-003
-8.547019e-005,3.294898e-003
-1.447861e-004,3.976065e-003
-1.956746e-004,4.578956e-003
-2.138259e-004,4.959005e-003
-1.859507e-004,4.958519e-003
-1.177212e-004,4.958519e-003
-2.971972e-005,4.958357e-003
5.293359e-005,4.958681e-003
1.140322e-004,4.958681e-003
1.454729e-004,4.958681e-003
1.548727e-004,4.824003e-003
1.521176e-004,4.274918e-003
1.488763e-004,3.680131e-003
1.584381e-004,3.111763e-003
1.900409e-004,2.633019e-003
2.386605e-004,2.253460e-003
2.911697e-004,1.927222e-003
3.360618e-004,1.588504e-003
3.665300e-004,1.193712e-003
3.830607e-004,7.404149e-004
3.887330e-004,2.551911e-004
3.858158e-004,-2.186879e-004
3.734988e-004,-6.402197e-004
3.551854e-004,-1.003408e-003
3.342790e-004,-1.325594e-003
3.127243e-004,-1.625577e-003
2.953833e-004,-1.897684e-003
2.866318e-004,-2.121173e-003
2.803112e-004,-2.276918e-003
2.681563e-004,-2.358923e-003
2.519498e-004,-2.378857e-003
2.312054e-004,-2.357950e-003
2.112714e-004,-2.317920e-003
1.924718e-004,-2.275621e-003
1.764274e-004,-2.239157e-003
1.673517e-004,-2.208688e-003
1.662173e-004,-2.180813e-003
1.767515e-004,-2.153262e-003
2.005751e-004,-2.125386e-003
2.321778e-004,-2.094270e-003
2.548670e-004,-2.059102e-003
2.519498e-004,-2.021340e-003
2.125679e-004,-1.985362e-003
1.488763e-004,-1.950032e-003
7.999850e-005,-1.907733e-003
2.586868e-005,-1.851496e-003
2.045080e-006,-1.779215e-003
1.663096e-005,-1.698506e-003
5.666109e-005,-1.621525e-003
1.002567e-004,-1.550865e-003
1.289422e-004,-1.487011e-003
1.354248e-004,-1.423481e-003
1.302387e-004,-1.356548e-003
1.255388e-004,-1.289453e-003
1.274836e-004,-1.227220e-003
1.344524e-004,-1.169039e-003
1.485521e-004,-1.111343e-003
1.694586e-004,-1.049597e-003
1.859892e-004,-9.836360e-004
1.855030e-004,-9.165410e-004
1.673517e-004,-8.536596e-004
1.436902e-004,-7.943438e-004
1.226217e-004,-7.337313e-004
1.059289e-004,-6.710120e-004
1.004187e-004,-6.073205e-004
1.164632e-004,-5.458976e-004
1.508210e-004,-4.877162e-004
1.855030e-004,-4.335864e-004
2.030061e-004,-3.812393e-004
1.905270e-004,-3.305129e-004
1.436902e-004,-2.773555e-004
7.076077e-005,-2.227395e-004
-1.254080e-005,-1.700683e-004
-9.454584e-005,-1.182074e-004
-1.712027e-004,-6.699474e-005
-2.357047e-004,-1.562004e-005
-2.825416e-004,3.348575e-005
-3.117133e-004,8.064676e-005
-3.258130e-004,1.255388e-004
-3.225717e-004,1.683241e-004
-3.002067e-004,2.088404e-004
-2.606628e-004,2.482223e-004
-2.089639e-004,2.859835e-004
-1.558065e-004,3.201793e-004
-1.138316e-004,3.535648e-004
-9.389758e-005,3.867882e-004
-9.535618e-005,4.209840e-004
-1.063766e-004,4.548556e-004
-1.128592e-004,4.869446e-004
-1.000561e-004,5.170887e-004
-6.213279e-005,5.439916e-004
-1.059601e-005,5.647360e-004
3.429608e-005,5.799701e-004
5.990240e-005,5.926113e-004
6.849186e-005,6.107626e-004
6.411610e-005,6.350724e-004
5.617490e-005,6.619752e-004
5.131293e-005,6.846644e-004
5.163707e-005,6.981159e-004
5.552663e-005,7.010330e-004
5.568870e-005,7.000606e-004
4.126489e-005,7.015192e-004
7.231170e-006,7.054087e-004
-3.863331e-005,7.089743e-004
-7.850138e-005,7.096225e-004
-9.649063e-005,7.050846e-004
-9.794922e-005,6.977917e-004
-9.405964e-005,6.843403e-004
-9.535618e-005,6.535478e-004
-1.071869e-004,5.929354e-004
-1.267968e-004,4.999098e-004
-1.434896e-004,3.709058e-004
-1.441378e-004,1.545486e-004
-1.269589e-004,-1.994021e-004
-1.045939e-004,-6.578848e-004
-8.919769e-005,-1.132736e-003
-8.125648e-005,-1.565126e-003
-7.444974e-005,-1.938201e-003
-6.359137e-005,-2.223922e-003
-4.625038e-005,-2.354223e-003
-2.420950e-005,-2.248718e-003
-1.196226e-006,-1.873699e-003
1.209313e-005,-1.265630e-003
5.448451e-006,-4.974402e-004
-2.518189e-005,3.525924e-004
-7.104637e-005,1.206515e-003
-1.212866e-004,2.010199e-003
-1.648822e-004,2.717618e-003
-1.971332e-004,3.270912e-003
-2.151224e-004,3.606391e-003
-2.199844e-004,3.696986e-003
-2.204706e-004,3.579001e-003
-2.263049e-004,3.329905e-003
-2.391081e-004,3.037374e-003
-2.501285e-004,2.775637e-003
-2.421873e-004,2.586182e-003
-1.945401e-004,2.470953e-003
-9.794922e-005,2.392675e-003
3.299956e-005,2.300621e-003
1.676758e-004,2.157031e-003
2.796630e-004,1.954935e-003
3.561578e-004,1.722532e-003
3.939191e-004,1.517033e-003
4.004017e-004,1.396294e-003
3.908399e-004,1.377170e-003
3.791711e-004,1.419469e-003
3.691231e-004,1.458203e-003
3.532407e-004,1.433893e-003
3.200173e-004,1.316234e-003
2.641047e-004,1.118028e-003
1.914994e-004,8.760637e-004
1.085220e-004,6.311828e-004
2.295151e-005,4.141773e-004
-5.597430e-005,2.284503e-004
-1.190177e-004,4.596478e-005
-1.643960e-004,-1.653684e-004
-2.060468e-004,-4.237005e-004
-2.517492e-004,-7.201179e-004
-2.896725e-004,-1.019777e-003
-2.919414e-004,-1.279243e-003
-2.334358e-004,-1.472425e-003
-1.115627e-004,-1.589922e-003
4.823369e-005,-1.641621e-003
2.107852e-004,-1.642107e-003
3.509718e-004,-1.605967e-003
4.615003e-004,-1.550865e-003
5.538776e-004,-1.489442e-003
6.404205e-004,-1.427371e-003
7.199947e-004,-1.370486e-003
7.789865e-004,-1.319111e-003
8.031343e-004,-1.270654e-003
7.828761e-004,-1.223979e-003
7.193464e-004,-1.182976e-003
6.191900e-004,-1.151860e-003
5.013684e-004,-1.127712e-003
3.885709e-004,-1.105833e-003
2.939247e-004,-1.080227e-003
2.185644e-004,-1.047166e-003
1.569795e-004,-1.007460e-003
1.009049e-004,-9.648364e-004
5.131293e-005,-9.223753e-004
1.095867e-005,-8.779694e-004
-1.853721e-005,-8.332395e-004
-4.187462e-005,-7.896438e-004
-6.667061e-005,-7.531791e-004
-1.002181e-004,-7.256281e-004
-1.446240e-004,-7.027768e-004
-1.968091e-004,-6.796016e-004
-2.528836e-004,-6.543194e-004
-3.049066e-004,-6.251476e-004
-3.436402e-004,-5.890070e-004
-3.682741e-004,-5.452494e-004
-3.792946e-004,-5.016539e-004
-3.757291e-004,-4.630823e-004
-3.611433e-004,-4.287245e-004
-3.379679e-004,-3.964735e-004
-3.097686e-004,-3.674638e-004
-2.861070e-004,-3.441264e-004
-2.728177e-004,-3.248406e-004
-2.642282e-004,-3.058790e-004
-2.561249e-004,-2.882139e-004
-2.491561e-004,-2.658489e-004
-2.454286e-004,-2.386219e-004
-2.465631e-004,-2.079916e-004
-2.493182e-004,-1.812508e-004
-2.530457e-004,-1.616409e-004
-2.567732e-004,-1.421931e-004
-2.527216e-004,-1.185315e-004
-2.331117e-004,-9.486997e-005
-1.963229e-004,-7.493595e-005
-1.571030e-004,-5.953974e-005
-1.253383e-004,-4.446767e-005
-9.389758e-005,-2.777494e-005
-4.997788e-005,-1.059601e-005
1.403791e-005,6.907039e-006
1.020394e-004,2.554455e-005
2.043026e-004,4.969228e-005
3.049452e-004,7.805372e-005
3.846813e-004,1.034980e-004
4.388112e-004,1.195424e-004
4.691174e-004,1.250527e-004
4.730070e-004,1.248906e-004
4.524247e-004,1.268354e-004
4.119083e-004,1.372075e-004
3.624784e-004,1.532520e-004
3.224483e-004,1.684862e-004
3.051073e-004,1.799928e-004
3.098072e-004,1.893926e-004
3.234207e-004,1.974959e-004
3.376824e-004,2.096508e-004
3.527545e-004,2.279641e-004
3.717161e-004,2.498430e-004
3.935950e-004,2.712356e-004
4.098015e-004,2.890628e-004
4.106118e-004,2.994350e-004
3.901916e-004,3.008935e-004
3.517821e-004,2.960316e-004
3.012177e-004,2.911697e-004
2.472499e-004,2.897111e-004
1.961993e-004,2.905214e-004
1.487142e-004,2.895490e-004
1.007429e-004,2.825802e-004
4.531652e-005,2.525981e-004
-2.258885e-005,1.621656e-004
-1.007043e-004,-9.623623e-006
-1.716889e-004,-2.340841e-004
-2.107467e-004,-4.410414e-004
-2.089639e-004,-5.616180e-004
-1.734716e-004,-5.596732e-004
-1.238797e-004,-4.407173e-004
-8.044616e-005,-2.389460e-004
-5.581224e-005,-1.520357e-006
-4.997788e-005,2.312054e-004
-5.354332e-005,4.362181e-004
-6.035006e-005,6.086557e-004
-6.829127e-005,7.528939e-004
-7.396355e-005,8.525642e-004
-7.963584e-005,8.703914e-004
-9.762508e-005,7.953551e-004
-1.308485e-004,6.598684e-004
-1.669890e-004,5.164405e-004
-1.972952e-004,4.156358e-004
-2.185258e-004,3.840331e-004
-2.274394e-004,4.179047e-004
-2.149604e-004,4.924549e-004
-1.794681e-004,5.807804e-004
-1.321450e-004,6.622994e-004
-8.822530e-005,7.326358e-004
-6.116039e-005,8.073479e-004
-5.402952e-005,9.105837e-004
-6.035006e-005,1.054984e-003
-7.752898e-005,1.236822e-003
-1.047560e-004,1.426762e-003
-1.349001e-004,1.583480e-003
-1.618029e-004,1.664189e-003
-1.844921e-004,1.637610e-003
-2.008607e-004,1.495478e-003
-2.042640e-004,1.262266e-003
-1.976194e-004,9.854579e-004
-1.854645e-004,7.139983e-004
-1.726613e-004,4.785172e-004
-1.652063e-004,2.913317e-004
-1.592099e-004,1.456350e-004
-1.483515e-004,2.197911e-005
-1.258244e-004,-9.778715e-005
-9.843541e-005,-2.272773e-004
-8.433573e-005,-3.616295e-004
-9.730095e-005,-4.904713e-004
-1.349001e-004,-6.008378e-004
-1.757406e-004,-6.831670e-004
-1.900023e-004,-7.309762e-004
-1.632615e-004,-7.421587e-004
-1.034594e-004,-7.188214e-004
-3.166451e-005,-6.708500e-004
3.316162e-005,-6.142893e-004
8.226741e-005,-5.666420e-004
1.150046e-004,-5.374703e-004
1.401247e-004,-5.283947e-004
1.683241e-004,-5.298532e-004
2.026820e-004,-5.287188e-004
2.388225e-004,-5.160776e-004
2.725321e-004,-4.904713e-004
2.984626e-004,-4.567618e-004
3.057555e-004,-4.185144e-004
2.877662e-004,-3.809152e-004
2.441707e-004,-3.480160e-004
1.858272e-004,-3.165753e-004
1.273216e-004,-2.817312e-004
8.372600e-005,-2.394322e-004
6.849186e-005,-1.901644e-004
8.664317e-005,-1.374931e-004
1.292664e-004,-8.514606e-005
1.775618e-004,-4.171255e-005
2.174299e-004,-1.691656e-005
2.410914e-004,-9.461557e-006
2.506533e-004,-1.286493e-005
2.543808e-004,-1.918548e-005
2.509774e-004,-2.453363e-005
2.378501e-004,-3.117831e-005
2.151610e-004,-4.171255e-005
1.848548e-004,-5.808115e-005
1.493625e-004,-7.995997e-005
1.049566e-004,-1.028112e-004
4.904402e-005,-1.237176e-004
-1.643037e-005,-1.413827e-004
-8.222889e-005,-1.567789e-004
-1.433275e-004,-1.682856e-004
-1.909747e-004,-1.755785e-004
-2.186879e-004,-1.744440e-004
-2.339220e-004,-1.634236e-004
-2.457528e-004,-1.430034e-004
-2.543422e-004,-1.204763e-004
-2.498044e-004,-1.021629e-004
-2.190120e-004,-9.017008e-005
-1.577513e-004,-8.255302e-005
-7.720485e-005,-7.185670e-005
4.800190e-006,-5.743289e-005
7.238143e-005,-4.608832e-005
1.163011e-004,-3.636440e-005
1.354248e-004,-2.453363e-005
1.325077e-004,-5.085794e-006
1.201907e-004,1.922400e-005
1.044704e-004,4.110282e-005
8.842590e-005,5.439218e-005
7.140904e-005,6.233338e-005
6.119892e-005,6.768153e-005
7.448828e-005,6.541262e-005
1.213252e-004,4.158902e-005
1.971717e-004,-1.335112e-005
2.884145e-004,-9.811128e-005
3.764160e-004,-2.021572e-004
4.438352e-004,-3.087962e-004
4.862963e-004,-4.008492e-004
5.122268e-004,-4.634064e-004
5.290816e-004,-4.933885e-004
5.399400e-004,-4.992229e-004
5.472329e-004,-4.948471e-004
5.516087e-004,-4.878783e-004
5.527431e-004,-4.839887e-004
5.514466e-004,-4.907955e-004
5.399400e-004,-5.031124e-004
5.052580e-004,-5.053813e-004
4.412422e-004,-4.739407e-004
3.522683e-004,-3.848048e-004
2.543808e-004,-2.280877e-004
1.670276e-004,-2.680255e-005
1.025256e-004,1.765894e-004
6.184718e-005,3.483787e-004
4.061663e-005,4.756000e-004
3.964423e-005,5.632774e-004
5.341978e-005,6.238898e-004
7.351588e-005,6.528996e-004
8.875003e-005,6.355586e-004
8.631904e-005,5.629533e-004
5.341978e-005,4.498316e-004
-3.465141e-006,3.299032e-004
-7.363942e-005,2.266676e-004
-1.392759e-004,1.208390e-004
-1.861127e-004,-1.092015e-005
-2.045882e-004,-1.545100e-004
-1.981056e-004,-2.728177e-004
-1.818990e-004,-3.348887e-004
-1.692580e-004,-3.274337e-004
-1.661787e-004,-2.797865e-004
-1.744440e-004,-2.452666e-004
-1.908126e-004,-2.507768e-004
-2.071812e-004,-2.716832e-004
-2.188499e-004,-2.227395e-004
-2.232257e-004,-8.813297e-006
-2.157707e-004,4.070464e-004
-1.943781e-004,9.891854e-004
-1.515928e-004,1.652358e-003
-8.498399e-005,2.285387e-003
-7.030578e-006,2.777582e-003
6.444023e-005,3.051799e-003
1.158149e-004,3.084698e-003
1.406109e-004,2.901563e-003
1.422316e-004,2.550527e-003
1.310491e-004,2.096742e-003
1.185700e-004,1.627562e-003
1.036600e-004,1.232770e-003
7.772959e-005,9.703858e-004
2.862379e-005,8.423541e-004
-4.333321e-005,7.924379e-004
-1.274451e-004,7.541904e-004
-2.131776e-004,6.977917e-004
-2.971275e-004,6.136798e-004
-3.830221e-004,4.893756e-004
-4.703752e-004,3.132105e-004
-5.541630e-004,9.085687e-005
-6.308199e-004,-1.515928e-004
-7.053699e-004,-3.786463e-004
-7.773269e-004,-5.574043e-004
-8.262706e-004,-6.771705e-004
-8.287015e-004,-7.434553e-004
-7.744097e-004,-7.624169e-004
-6.700397e-004,-7.405381e-004
-5.342290e-004,-6.917564e-004
-3.859392e-004,-6.395714e-004
-2.449424e-004,-5.984068e-004
-1.305243e-004,-5.695592e-004
-5.629843e-005,-5.527044e-004
-1.821308e-005,-5.527044e-004
-2.168618e-006,-5.736108e-004
1.257933e-005,-6.128306e-004
4.158902e-005,-6.638812e-004
8.956035e-005,-7.233592e-004
1.461212e-004,-7.922369e-004
2.023578e-004,-8.659766e-004
2.504912e-004,-9.355026e-004
2.864697e-004,-9.878497e-004
3.057555e-004,-1.022046e-003
3.010556e-004,-1.068072e-003
2.668598e-004,-1.186542e-003
2.109473e-004,-1.451681e-003
1.526038e-004,-1.874671e-003
1.034980e-004,-2.386960e-003
7.416414e-005,-2.875426e-003
6.832980e-005,-3.228081e-003
8.469840e-005,-3.368592e-003
1.135460e-004,-3.277835e-003
1.410971e-004,-2.988224e-003
1.621656e-004,-2.555832e-003
1.770756e-004,-2.035278e-003
1.897167e-004,-1.467563e-003
1.987924e-004,-8.739178e-004
2.015475e-004,-2.606628e-004
2.000889e-004,3.675024e-004
1.999268e-004,9.955060e-004
2.096508e-004,1.586721e-003
2.307192e-004,2.083939e-003
2.545429e-004,2.437891e-003
2.736665e-004,2.628643e-003
2.798251e-004,2.679370e-003
2.723700e-004,2.640312e-003
2.595669e-004,2.554093e-003
2.446569e-004,2.433840e-003
2.284503e-004,2.276312e-003
2.146748e-004,2.061736e-003
2.038164e-004,1.780066e-003
1.936063e-004,1.453665e-003
1.790204e-004,1.133910e-003
1.595726e-004,8.656915e-004
1.394765e-004,6.590580e-004
1.227837e-004,4.992615e-004
1.163011e-004,3.632887e-004
1.197045e-004,2.337985e-004
1.333180e-004,1.069013e-004
1.511452e-004,-1.610623e-005
1.663793e-004,-1.314967e-004
1.726999e-004,-2.323013e-004
1.650828e-004,-3.117133e-004
1.446626e-004,-3.634122e-004
1.184080e-004,-3.878840e-004
9.588090e-005,-3.919356e-004
8.210535e-005,-3.901529e-004
7.935023e-005,-3.914495e-004
9.085687e-005,-3.912874e-004
1.193804e-004,-3.854531e-004
1.644345e-004,-3.786463e-004
2.231022e-004,-3.792946e-004
2.861456e-004,-3.854531e-004
3.397892e-004,-3.969597e-004
3.671783e-004,-4.149489e-004
3.603715e-004,-4.371519e-004
3.183966e-004,-4.541687e-004
2.438465e-004,-4.619479e-004
1.477418e-004,-4.632444e-004
5.293359e-005,-4.728062e-004
-1.934754e-005,-5.175362e-004
-6.132245e-005,-6.125065e-004
-7.769105e-005,-7.385933e-004
-8.222889e-005,-8.499321e-004
-8.709084e-005,-8.915829e-004
-9.827335e-005,-8.296740e-004
-1.138316e-004,-6.661501e-004
-1.246900e-004,-4.288865e-004
-1.211245e-004,-1.731475e-004
-9.989400e-005,3.980630e-005
-6.893953e-005,1.738343e-004
-4.171255e-005,2.365536e-004
-2.761287e-005,2.663736e-004
-2.939559e-005,3.145071e-004
-3.847125e-005,4.119083e-004
-4.381940e-005,5.535535e-004
-3.587821e-005,7.037881e-004
-1.351319e-005,8.193408e-004
2.408596e-005,8.671501e-004
7.578480e-005,8.342508e-004
1.297525e-004,7.311772e-004
1.681620e-004,5.895320e-004
1.850168e-004,4.433490e-004
1.872858e-004,3.224483e-004
1.879340e-004,2.381743e-004
1.926339e-004,1.871237e-004
2.018716e-004,1.553589e-004
2.111093e-004,1.354248e-004
2.151610e-004,1.255388e-004
2.182402e-004,1.240803e-004
2.227780e-004,1.239182e-004
2.252090e-004,1.150046e-004
2.196988e-004,9.409818e-005
2.049509e-004,6.395403e-005
1.842065e-004,3.478227e-005
1.658931e-004,1.484824e-005
1.561692e-004,6.420843e-006
1.524417e-004,8.689757e-006
1.376937e-004,1.695509e-005
9.928427e-005,2.748933e-005
3.980630e-005,3.624086e-005
-2.874733e-005,4.515445e-005
-8.903562e-005,5.860587e-005
-1.313347e-004,7.708132e-005
-1.579134e-004,9.782569e-005
-1.802784e-004,1.216493e-004
-2.071812e-004,1.427178e-004
-2.334358e-004,1.521176e-004
-2.426735e-004,1.479039e-004
-2.280877e-004,1.333180e-004
-1.982676e-004,1.172735e-004
-1.686097e-004,9.896014e-005
-1.514308e-004,8.032263e-005
-1.520790e-004,6.995045e-005
-1.707165e-004,6.832980e-005
-1.997262e-004,7.302969e-005
-2.324634e-004,8.486046e-005
-2.619593e-004,1.062531e-004
-2.815692e-004,1.393144e-004
-2.893483e-004,1.853410e-004
-2.843243e-004,2.384984e-004
-2.647144e-004,2.903593e-004
-2.342461e-004,3.264999e-004
-1.966470e-004,3.362238e-004
-1.561307e-004,3.119140e-004
-1.117248e-004,2.517877e-004
-6.861539e-005,1.696206e-004
-3.928157e-005,9.085687e-005
-3.928157e-005,3.672705e-005
-7.137050e-005,1.387585e-005
-1.204763e-004,1.225519e-005
-1.640719e-004,1.938607e-005
-1.870851e-004,2.910999e-005
-1.835197e-004,4.029249e-005
-1.512687e-004,5.990240e-005
-9.049421e-005,9.458438e-005
-1.545797e-005,1.475797e-004
5.115087e-005,2.094887e-004
8.777764e-005,2.665357e-004
8.437427e-005,3.057555e-004
4.061663e-005,3.209897e-004
-2.971972e-005,3.227724e-004
-1.050801e-004,3.224483e-004
-1.666649e-004,3.227724e-004
-2.032917e-004,3.169380e-004
-2.096122e-004,2.918179e-004
-1.844921e-004,2.402811e-004
-1.340898e-004,1.712413e-004
-7.072224e-005,1.028497e-004
-3.789271e-006,5.066468e-005
6.525056e-005,1.841368e-005
1.386661e-004,-3.465141e-006
2.196988e-004,-3.020592e-005
3.089968e-004,-6.456376e-005
4.076946e-004,-9.600443e-005
5.106062e-004,-1.141557e-004
6.012007e-004,-1.117248e-004
6.546823e-004,-9.049421e-005
6.561409e-004,-6.083626e-005
5.968249e-004,-3.231276e-005
4.867825e-004,-1.108221e-005
3.420582e-004,3.503668e-006
1.840444e-004,9.986280e-006
2.975825e-005,1.079661e-005
-1.065387e-004,8.527692e-006
-2.156086e-004,4.151929e-006
-2.932379e-004,-1.034161e-006
-3.387782e-004,-3.141010e-006
-3.483401e-004,-1.196226e-006
-3.165753e-004,3.017472e-006
-2.407287e-004,3.503668e-006
-1.274451e-004,-1.196226e-006
1.031041e-005,-1.043395e-005
1.530900e-004,-2.015787e-005
2.796630e-004,-2.518189e-005
3.749574e-004,-2.923352e-005
4.329768e-004,-3.247483e-005
4.580969e-004,-3.215070e-005
4.611762e-004,-2.890940e-005
4.571246e-004,-2.356124e-005
4.527488e-004,-2.015787e-005
4.470765e-004,-2.113026e-005
4.404318e-004,-2.583015e-005
4.396215e-004,-3.020592e-005
4.543695e-004,-3.474375e-005
4.790034e-004,-4.122636e-005
5.008822e-004,-4.819516e-005
5.031511e-004,-5.419158e-005
4.770586e-004,-5.840528e-005
4.219564e-004,-5.953974e-005
3.412478e-004,-5.565017e-005
2.357433e-004,-4.754691e-005
1.111150e-004,-3.992984e-005
-2.339917e-005,-3.879538e-005
-1.583996e-004,-4.462973e-005
-2.801106e-004,-5.500191e-005
-3.674638e-004,-7.574627e-005
-4.050630e-004,-1.114006e-004
-3.979321e-004,-1.569410e-004
-3.736223e-004,-2.008607e-004
-3.604950e-004,-2.316531e-004
-3.676258e-004,-2.413770e-004
-3.859392e-004,-2.301945e-004
-3.998769e-004,-2.057227e-004
-4.070077e-004,-1.867610e-004
-4.016596e-004,-1.938919e-004
-3.757291e-004,-2.321393e-004
-3.308370e-004,-2.859450e-004
-2.788141e-004,-3.243544e-004
-2.323013e-004,-3.264613e-004
-1.953505e-004,-2.929138e-004
-1.684476e-004,-2.434839e-004
-1.477033e-004,-1.997262e-004
-1.358725e-004,-1.726613e-004
-1.363587e-004,-1.536997e-004
-1.470550e-004,-1.303623e-004
-1.611547e-004,-1.255003e-004
-1.707165e-004,-1.891920e-004
-1.687718e-004,-3.363473e-004
-1.512687e-004,-5.222362e-004
-1.185315e-004,-6.689052e-004
-7.493595e-005,-7.157421e-004
-2.809907e-005,-6.488091e-004
1.857574e-005,-4.922540e-004
6.265751e-005,-2.862691e-004
9.717742e-005,-5.937767e-005
1.197045e-004,1.890685e-004
1.328318e-004,4.762483e-004
1.422316e-004,8.011895e-004
1.532520e-004,1.132451e-003
1.712413e-004,1.424007e-003
2.005751e-004,1.647820e-003
2.354192e-004,1.802107e-003
2.634565e-004,1.894160e-003
2.689667e-004,1.927384e-003
2.457913e-004,1.899508e-003
1.978200e-004,1.808265e-003
1.336421e-004,1.660299e-003
6.330577e-005,1.470844e-003
2.855406e-006,1.265183e-003
-3.782299e-005,1.057739e-003
-6.083626e-005,8.525642e-004
-7.185670e-005,6.537099e-004
-6.991192e-005,4.566384e-004
-5.483985e-005,2.483844e-004
-3.604027e-005,1.338965e-005
-2.161646e-005,-2.426735e-004
-1.351319e-005,-4.945230e-004
-1.237873e-005,-7.095836e-004
-1.513384e-005,-8.559285e-004
-1.659243e-005,-9.186478e-004
-1.270286e-005,-9.056826e-004
-4.599598e-006,-8.439357e-004
6.907039e-006,-7.633893e-004
2.554455e-005,-6.862462e-004
5.212327e-005,-6.243372e-004
8.323980e-005,-5.792831e-004
1.180839e-004,-5.446011e-004
1.563313e-004,-5.183466e-004
1.957131e-004,-4.998712e-004
2.294227e-004,-4.867438e-004
2.470879e-004,-4.786406e-004
2.407673e-004,-4.784785e-004
2.080301e-004,-4.929024e-004
1.524417e-004,-5.227224e-004
8.437427e-005,-5.648593e-004
1.598270e-005,-6.074825e-004
-3.911951e-005,-6.351956e-004
-7.234290e-005,-6.327647e-004
-7.882551e-005,-5.993792e-004
-6.067420e-005,-5.481666e-004
-2.242678e-005,-4.927402e-004
2.635488e-005,-4.439586e-004
7.108490e-005,-4.050630e-004
9.782569e-005,-3.698948e-004
9.912220e-005,-3.253268e-004
8.210535e-005,-2.645523e-004
5.585077e-005,-1.900023e-004
2.538249e-005,-1.138316e-004
-8.720958e-007,-4.268495e-005
-1.367526e-005,1.565857e-005
-3.789271e-006,5.909207e-005
3.089270e-005,9.523264e-005
8.372600e-005,1.294284e-004
1.445005e-004,1.657311e-004
2.008992e-004,2.028440e-004
2.412535e-004,2.362295e-004
2.525981e-004,2.574600e-004
2.156472e-004,2.654012e-004
1.266733e-004,2.632944e-004
9.500084e-006,2.540566e-004
-9.551824e-005,2.381743e-004
-1.598582e-004,2.099749e-004
-1.724992e-004,1.634621e-004
-1.449481e-004,9.879807e-005
-9.827335e-005,2.408596e-005
-5.581224e-005,-5.921561e-005
-3.620233e-005,-1.580754e-004
-3.976777e-005,-2.733039e-004
-5.013995e-005,-3.904771e-004
-4.884343e-005,-4.856094e-004
-2.177852e-005,-5.330945e-004
3.932010e-005,-5.254775e-004
1.295905e-004,-4.809095e-004
2.290986e-004,-4.366657e-004
3.133726e-004,-4.306693e-004
3.593991e-004,-4.799371e-004
3.568061e-004,-5.669662e-004
3.085106e-004,-6.522125e-004
2.331502e-004,-7.058561e-004
1.543865e-004,-7.426449e-004
9.263960e-005,-8.416668e-004
5.633696e-005,-1.110533e-003
4.483032e-005,-1.576957e-003
5.990240e-005,-2.126683e-003
9.604297e-005,-2.552267e-003
1.422316e-004,-2.657610e-003
1.877719e-004,-2.349685e-003
2.219677e-004,-1.660097e-003
2.414156e-004,-7.076388e-004
2.435224e-004,3.616681e-004
2.312054e-004,1.407639e-003
2.111093e-004,2.357020e-003
1.934442e-004,3.172862e-003
1.830720e-004,3.834419e-003
1.761032e-004,4.333586e-003
1.709171e-004,4.678952e-003
1.665414e-004,4.889803e-003
1.579519e-004,4.958843e-003
1.414213e-004,4.901795e-003
1.210010e-004,4.682842e-003
9.669123e-005,4.311059e-003
6.897806e-005,3.806543e-003
3.364782e-005,3.217431e-003
-1.416145e-005,2.600444e-003
-7.007398e-005,1.997396e-003
-1.186936e-004,1.429680e-003
-1.439758e-004,9.089630e-004
-1.449481e-004,4.428628e-004
-1.342519e-004,3.283749e-005
-1.290658e-004,-3.309991e-004
-1.402483e-004,-6.698776e-004
-1.580754e-004,-9.961150e-004
-1.677994e-004,-1.295125e-003
-1.561307e-004,-1.530120e-003
-1.139937e-004,-1.668200e-003
-4.365734e-005,-1.699965e-003
3.672705e-005,-1.639028e-003
1.022014e-004,-1.519100e-003
1.362352e-004,-1.380048e-003
1.367214e-004,-1.251206e-003
1.143563e-004,-1.147808e-003
8.307774e-005,-1.071800e-003
5.487837e-005,-1.018156e-003
3.478227e-005,-9.790981e-004
2.457216e-005,-9.523574e-004
1.938607e-005,-9.327475e-004
1.727922e-005,-9.163789e-004
1.598270e-005,-9.009827e-004
1.452411e-005,-8.847762e-004
1.257933e-005,-8.679213e-004
1.338965e-005,-8.463667e-004
1.922400e-005,-8.218948e-004
3.105477e-005,-8.013126e-004
4.094075e-005,-7.956403e-004
4.207521e-005,-8.034194e-004
3.818564e-005,-8.131433e-004
3.867184e-005,-8.141157e-004
4.693717e-005,-8.029332e-004
6.200925e-005,-7.776510e-004
7.108490e-005,-7.410243e-004
6.152305e-005,-6.899737e-004
2.570661e-005,-6.172064e-004
-3.798505e-005,-5.138087e-004
-1.135075e-004,-3.857772e-004
-1.737958e-004,-2.536940e-004
-1.995642e-004,-1.462447e-004
-1.878955e-004,-8.676671e-005
-1.522411e-004,-7.914964e-005
-1.101041e-004,-1.060525e-004
-7.477388e-005,-1.457585e-004
-5.451571e-005,-1.812508e-004
-5.078821e-005,-2.049123e-004
-5.759496e-005,-2.117190e-004
-6.715681e-005,-2.045882e-004
-7.542214e-005,-1.877334e-004
-8.158062e-005,-1.699062e-004
-8.790116e-005,-1.564548e-004
-9.649063e-005,-1.444620e-004
-1.076731e-004,-1.303623e-004
-1.175591e-004,-1.094559e-004
-1.219349e-004,-8.222889e-005
-1.232314e-004,-4.803310e-005
-1.267968e-004,-6.382316e-006
-1.339277e-004,4.175108e-005
-1.374931e-004,9.118101e-005
-1.316588e-004,1.370455e-004
-1.071869e-004,1.736723e-004
-5.451571e-005,1.957131e-004
3.056858e-005,2.008992e-004
1.443384e-004,1.911753e-004
2.699391e-004,1.730240e-004
3.840331e-004,1.568175e-004
4.699277e-004,1.459591e-004
5.206542e-004,1.381799e-004
5.384814e-004,1.260251e-004
5.379952e-004,1.081979e-004
5.336195e-004,8.372600e-005
5.331332e-004,5.633696e-005
5.391297e-004,3.445814e-005
5.452881e-004,2.376183e-005
5.371849e-004,2.910999e-005
5.000719e-004,4.661304e-005
4.237391e-004,6.946425e-005
3.036486e-004,9.296372e-005
1.485521e-004,9.523264e-005
-2.696461e-005,-2.745081e-005
-2.086398e-004,-4.149489e-004
-3.765395e-004,-1.070665e-003
-5.133225e-004,-1.823296e-003
-6.113721e-004,-2.430394e-003
-6.620985e-004,-2.729891e-003
-6.580469e-004,-2.707526e-003
-5.974344e-004,-2.457621e-003
-4.849611e-004,-2.094270e-003
-3.361852e-004,-1.691699e-003
-1.770371e-004,-1.269519e-003
-3.490581e-005,-7.982333e-004
6.962632e-005,-2.337599e-004
1.269974e-004,4.396215e-004
1.420695e-004,1.202140e-003
1.299146e-004,2.023813e-003
1.051186e-004,2.848405e-003
6.897806e-005,3.596504e-003
2.084466e-005,4.181567e-003
-3.360929e-005,4.533901e-003
-8.644258e-005,4.634870e-003
-1.242038e-004,4.531795e-003
-1.352242e-004,4.312679e-003
-1.183694e-004,4.070227e-003
-8.352540e-005,3.862294e-003
-4.544005e-005,3.681103e-003
-1.464765e-005,3.468148e-003
9.106226e-007,3.151956e-003
-2.816880e-006,2.695901e-003
-2.372330e-005,2.109060e-003
-5.419158e-005,1.445400e-003
-8.012203e-005,7.814175e-004
-9.357345e-005,1.820997e-004
-9.438377e-005,-3.109030e-004
-8.773910e-005,-6.875427e-004
-8.174268e-005,-9.614330e-004
-8.320127e-005,-1.151860e-003
-9.065627e-005,-1.277784e-003
-1.015147e-004,-1.352821e-003
-1.139937e-004,-1.379886e-003
-1.198280e-004,-1.357034e-003
-1.054042e-004,-1.294964e-003
-6.213279e-005,-1.210527e-003
4.962256e-006,-1.119771e-003
7.594687e-005,-1.036307e-003
1.297525e-004,-9.684018e-004
1.503348e-004,-9.222133e-004
1.373696e-004,-8.954725e-004
1.007429e-004,-8.807246e-004
6.168512e-005,-8.692179e-004
3.332369e-005,-8.530114e-004
2.651694e-005,-8.299981e-004
4.515445e-005,-7.993678e-004
7.853991e-005,-7.653341e-004
1.044704e-004,-7.319486e-004
1.069013e-004,-7.013183e-004
8.631904e-005,-6.774946e-004
4.790957e-005,-6.603157e-004
4.313994e-006,-6.470264e-004
-3.458168e-005,-6.348715e-004
-6.423963e-005,-6.193132e-004
-8.595638e-005,-5.980827e-004
-1.000561e-004,-5.719902e-004
-1.068628e-004,-5.426563e-004
-1.128592e-004,-5.117019e-004
-1.251762e-004,-4.794509e-004
-1.457585e-004,-4.471999e-004
-1.715269e-004,-4.191626e-004
-1.972952e-004,-3.987424e-004
-2.138259e-004,-3.862634e-004
-2.110708e-004,-3.792946e-004
-1.776853e-004,-3.742705e-004
-1.071869e-004,-3.726499e-004
-4.923729e-006,-3.737843e-004
1.107909e-004,-3.765395e-004
2.117576e-004,-3.739464e-004
2.788527e-004,-3.653569e-004
3.072141e-004,-3.536882e-004
3.030004e-004,-3.397506e-004
2.846870e-004,-3.199787e-004
2.655633e-004,-2.835140e-004
2.529222e-004,-2.201465e-004
2.480603e-004,-1.371690e-004
2.542187e-004,-4.981582e-005
2.731804e-004,2.311357e-005
2.983005e-004,6.476436e-005
3.146691e-004,7.189524e-005
3.114278e-004,5.520250e-005
2.932765e-004,2.927205e-005
2.759355e-004,7.717366e-006
2.636185e-004,-8.720958e-007
2.561635e-004,3.179537e-006
2.615117e-004,1.257933e-005
2.893869e-004,2.359977e-005
3.318480e-004,3.299956e-005
3.699334e-004,4.110282e-005
3.827366e-004,4.661304e-005
3.610198e-004,4.547859e-005
3.132105e-004,3.024445e-005
2.558394e-004,-4.113402e-006
2.102990e-004,-5.759496e-005
1.885823e-004,-1.310105e-004
1.897167e-004,-2.199844e-004
1.983062e-004,-3.121995e-004
2.059233e-004,-3.888564e-004
2.137024e-004,-4.318037e-004
2.248849e-004,-4.329382e-004
2.381743e-004,-4.003631e-004
2.496809e-004,-3.481780e-004
2.602152e-004,-2.911311e-004
2.715597e-004,-2.395943e-004
2.853353e-004,-2.002124e-004
2.955454e-004,-1.765509e-004
2.932765e-004,-1.681235e-004
2.786906e-004,-1.765509e-004
2.564876e-004,-1.925954e-004
2.281262e-004,-1.862748e-004
1.869616e-004,-1.224211e-004
1.257009e-004,1.857574e-005
4.256141e-005,2.227780e-004
-5.370539e-005,4.530729e-004
-1.535376e-004,6.710509e-004
-2.444563e-004,8.569400e-004
-3.125237e-004,1.017223e-003
-3.416954e-004,1.187878e-003
-3.238682e-004,1.397915e-003
-2.716832e-004,1.637286e-003
-2.037778e-004,1.861747e-003
-1.366828e-004,2.023651e-003
-8.595638e-005,2.093339e-003
-5.808115e-005,2.067895e-003
-5.159854e-005,1.973897e-003
-6.602235e-005,1.838085e-003
-9.665269e-005,1.668078e-003
-1.376552e-004,1.463227e-003
-1.775233e-004,1.227584e-003
-2.075054e-004,9.765443e-004
-2.216050e-004,7.271255e-004
-2.188499e-004,4.926169e-004
-2.018331e-004,2.778803e-004
-1.720131e-004,8.032263e-005
-1.293899e-004,-1.037836e-004
-7.817725e-005,-2.749245e-004
-2.291298e-005,-4.266176e-004
3.429608e-005,-5.468701e-004
9.150514e-005,-6.256338e-004
1.479039e-004,-6.638812e-004
1.997648e-004,-6.716603e-004
2.430362e-004,-6.651777e-004
2.675081e-004,-6.653398e-004
2.631323e-004,-7.034251e-004
2.326641e-004,-8.116847e-004
1.906891e-004,-9.893083e-004
1.516314e-004,-1.189135e-003
1.273216e-004,-1.342286e-003
1.192183e-004,-1.393823e-003
1.163011e-004,-1.330132e-003
1.060910e-004,-1.189135e-003
7.756751e-005,-1.049597e-003
2.878586e-005,-9.724534e-004
-2.680255e-005,-9.572193e-004
-6.715681e-005,-9.507368e-004
-8.190475e-005,-8.828314e-004
-7.752898e-005,-7.071526e-004
-6.780506e-005,-4.363416e-004
-6.132245e-005,-1.277692e-004
-6.294311e-005,1.425557e-004
-7.331529e-005,2.871180e-004
-9.162867e-005,2.566497e-004
-1.118868e-004,9.037068e-005
-1.267968e-004,-1.000561e-004
-1.379793e-004,-1.823852e-004
-1.514308e-004,-6.748093e-005
-1.686097e-004,2.581083e-004
-1.900023e-004,7.271255e-004
-2.162569e-004,1.226125e-003
-2.478596e-004,1.641013e-003
-2.833519e-004,1.896429e-003
-3.162512e-004,1.979731e-003
-3.403989e-004,1.929166e-003
-3.459091e-004,1.808751e-003
-3.241924e-004,1.688336e-003
-2.684419e-004,1.608924e-003
-1.841679e-004,1.563870e-003
-9.308726e-005,1.508606e-003
-1.675450e-005,1.391432e-003
2.862379e-005,1.177344e-003
3.915804e-005,8.571020e-004
2.149292e-005,4.636072e-004
-1.383732e-005,6.265751e-005
-5.743289e-005,-2.713591e-004
-9.632856e-005,-4.901472e-004
-1.180453e-004,-5.907897e-004
-1.091317e-004,-6.065101e-004
-6.731887e-005,-5.958137e-004
-1.844488e-006,-6.160719e-004
7.076077e-005,-6.844635e-004
1.380179e-004,-7.795958e-004
1.890685e-004,-8.648421e-004
2.073818e-004,-9.147582e-004
1.838824e-004,-9.183237e-004
1.287802e-004,-8.820211e-004
6.460230e-005,-8.312946e-004
1.290346e-005,-7.990436e-004
-1.707863e-005,-8.147639e-004
-2.275091e-005,-8.959587e-004
-4.113402e-006,-1.036307e-003
3.445814e-005,-1.213282e-003
8.210535e-005,-1.389934e-003
1.304008e-004,-1.516183e-003
1.759412e-004,-1.547947e-003
2.164575e-004,-1.453139e-003
2.470879e-004,-1.216524e-003
2.618358e-004,-8.560906e-004
2.551911e-004,-4.331002e-004
2.279641e-004,-2.242678e-005
1.914994e-004,3.256896e-004
1.592484e-004,5.947181e-004
1.367214e-004,8.023239e-004
1.234320e-004,9.731409e-004
1.148425e-004,1.118838e-003
1.090082e-004,1.246870e-003
1.069013e-004,1.358371e-003
1.064151e-004,1.441673e-003
1.088461e-004,1.482189e-003
1.133840e-004,1.475544e-003
1.171115e-004,1.419794e-003
1.150046e-004,1.318665e-003
1.090082e-004,1.176371e-003
1.044704e-004,9.998818e-004
1.078737e-004,7.981102e-004
1.234320e-004,5.853183e-004
1.467694e-004,3.786849e-004
1.691344e-004,1.927960e-004
1.816135e-004,3.267542e-005
1.773998e-004,-1.055663e-004
1.514693e-004,-2.357047e-004
1.030118e-004,-3.666535e-004
3.964423e-005,-4.982505e-004
-2.566809e-005,-6.181788e-004
-7.914964e-005,-7.095836e-004
-1.151281e-004,-7.601480e-004
-1.302002e-004,-7.672788e-004
-1.263107e-004,-7.374588e-004
-1.114006e-004,-6.859221e-004
-9.017008e-005,-6.274165e-004
-6.602235e-005,-5.723143e-004
-4.592625e-005,-5.253154e-004
-3.231276e-005,-4.852852e-004
-2.534396e-005,-4.544929e-004
-1.918548e-005,-4.371519e-004
-8.165034e-006,-4.337485e-004
8.689757e-006,-4.371519e-004
3.218923e-005,-4.347209e-004
5.682316e-005,-4.214316e-004
7.238143e-005,-3.984183e-004
7.789165e-005,-3.703810e-004
8.032263e-005,-3.399127e-004
8.729143e-005,-3.071755e-004
1.033359e-004,-2.729797e-004
1.316973e-004,-2.376495e-004
1.761032e-004,-1.961608e-004
2.352571e-004,-1.519170e-004
3.025142e-004,-1.122110e-004
3.631267e-004,-8.222889e-005
4.073705e-004,-6.650855e-005
4.295734e-004,-6.553616e-005
4.355699e-004,-6.991192e-005
4.386491e-004,-7.137050e-005
4.461041e-004,-6.375343e-005
4.538833e-004,-4.803310e-005
4.537212e-004,-2.275091e-005
4.352457e-004,8.365628e-006
3.929467e-004,3.737532e-005
3.263378e-004,5.747142e-005
2.352571e-004,7.043664e-005
1.226217e-004,7.821578e-005
-7.678839e-006,8.550872e-005
-1.543479e-004,9.458438e-005
-3.172235e-004,1.070634e-004
-4.812336e-004,1.234320e-004
-6.230407e-004,1.427178e-004
-7.343796e-004,1.613553e-004
-8.095779e-004,1.701068e-004
-8.466908e-004,1.573037e-004
-8.390738e-004,1.231079e-004
-7.810544e-004,8.113296e-005
-6.732810e-004,4.839576e-005
-5.330945e-004,1.906194e-005
-3.830221e-004,-5.856734e-005
-2.499665e-004,-2.324634e-004
-1.506204e-004,-4.864197e-004
-8.676671e-005,-7.526929e-004
-4.900549e-005,-9.471713e-004
-2.258885e-005,-1.002436e-003
4.244267e-007,-8.894760e-004
2.327564e-005,-6.361680e-004
4.661304e-005,-3.131719e-004
7.043664e-005,1.533444e-005
9.426025e-005,3.086727e-004
1.219734e-004,5.546879e-004
1.590864e-004,7.687763e-004
2.068957e-004,9.783270e-004
2.576221e-004,1.211377e-003
2.978143e-004,1.472789e-003
3.140208e-004,1.731284e-003
3.036486e-004,1.938890e-003
2.705873e-004,2.048447e-003
2.263435e-004,2.024137e-003
1.866375e-004,1.862071e-003
1.644345e-004,1.593528e-003
1.655690e-004,1.270045e-003
1.869616e-004,9.476966e-004
2.177540e-004,6.700785e-004
2.467637e-004,4.674967e-004
2.645909e-004,3.548613e-004
2.689667e-004,3.167760e-004
2.590807e-004,3.031625e-004
2.342847e-004,2.582704e-004
2.010613e-004,1.516314e-004
1.681620e-004,-1.318906e-005
1.378558e-004,-2.005366e-004
1.094944e-004,-3.629260e-004
7.562274e-005,-4.616237e-004
3.380988e-005,-4.862576e-004
-1.173047e-005,-4.483344e-004
-4.997788e-005,-3.755671e-004
-6.845333e-005,-3.039342e-004
-6.683268e-005,-2.566112e-004
-5.662256e-005,-2.357047e-004
-4.155049e-005,-2.280877e-004
-1.659243e-005,-2.131776e-004
2.473422e-005,-1.796301e-004
7.562274e-005,-1.316588e-004
1.193804e-004,-7.785312e-005
1.404489e-004,-2.971972e-005
1.328318e-004,-5.479652e-007
1.096565e-004,3.503668e-006
8.907416e-005,-1.318906e-005
8.194328e-005,-3.749886e-005
8.907416e-005,-4.916756e-005
1.007429e-004,-2.923352e-005
1.064151e-004,3.105477e-005
9.733949e-005,1.221355e-004
6.962632e-005,2.190506e-004
2.262737e-005,2.908455e-004
-3.279896e-005,3.098072e-004
-7.801519e-005,2.679943e-004
-1.020008e-004,1.751308e-004
-9.940780e-005,5.439218e-005
-7.396355e-005,-6.942573e-005
-3.182657e-005,-1.736337e-004
1.760335e-005,-2.392702e-004
6.832980e-005,-2.562870e-004
1.166253e-004,-2.455907e-004
1.568175e-004,-2.515871e-004
1.812893e-004,-2.990722e-004
1.816135e-004,-3.784843e-004
1.607070e-004,-4.538446e-004
1.281319e-004,-4.950092e-004
9.977046e-005,-5.001953e-004
8.567078e-005,-4.823681e-004
8.680524e-005,-4.493068e-004
9.215340e-005,-4.091146e-004
8.988448e-005,-3.703810e-004
7.967437e-005,-3.446126e-004
6.638501e-005,-3.374817e-004
5.811968e-005,-3.363473e-004
5.698522e-005,-3.168994e-004
5.860587e-005,-2.536940e-004
5.325772e-005,-1.336036e-004
3.575467e-005,4.239934e-005
1.063454e-005,2.631323e-004
-1.351319e-005,5.114165e-004
-2.501983e-005,7.473837e-004
-1.707863e-005,9.204696e-004
1.176900e-005,9.997197e-004
5.212327e-005,9.750857e-004
9.328785e-005,8.357094e-004
1.239182e-004,5.736496e-004
1.346145e-004,2.261814e-004
1.180839e-004,-1.162626e-004
7.076077e-005,-3.619536e-004
1.072688e-006,-4.619479e-004
-7.218083e-005,-4.172178e-004
-1.319829e-004,-2.635799e-004
-1.715269e-004,-5.354332e-005
-1.953505e-004,1.564933e-004
-2.112329e-004,3.243930e-004
-2.248463e-004,4.240632e-004
-2.382978e-004,4.590693e-004
-2.525595e-004,4.580969e-004
-2.619593e-004,4.569625e-004
-2.600145e-004,4.786793e-004
-2.413770e-004,5.256782e-004
-2.089639e-004,5.759185e-004
-1.653684e-004,6.016869e-004
-1.118868e-004,5.841838e-004
-4.819516e-005,5.196818e-004
2.359977e-005,4.183909e-004
9.182927e-005,2.958695e-004
1.355869e-004,1.684862e-004
1.495245e-004,4.774750e-005
1.380179e-004,-6.197072e-005
1.184080e-004,-1.585616e-004
1.150046e-004,-2.442942e-004
1.501728e-004,-3.224097e-004
2.336364e-004,-3.946908e-004
3.451374e-004,-4.638926e-004
4.410801e-004,-5.296912e-004
4.913204e-004,-5.875484e-004
4.914824e-004,-6.293613e-004
4.569625e-004,-6.510781e-004
4.086670e-004,-6.543194e-004
3.657197e-004,-6.407059e-004
3.310377e-004,-6.073205e-004
3.041349e-004,-5.561078e-004
2.801492e-004,-4.925782e-004
2.433604e-004,-4.232143e-004
1.762653e-004,-3.538503e-004
7.448828e-005,-2.955068e-004
-4.997788e-005,-2.603386e-004
-1.705545e-004,-2.515871e-004
-2.580697e-004,-2.682798e-004
-3.008549e-004,-2.990722e-004
-3.005308e-004,-3.353749e-004
-2.695764e-004,-3.616295e-004
-2.305186e-004,-3.695707e-004
-2.039399e-004,-3.784843e-004
-1.945401e-004,-4.334243e-004
-1.982676e-004,-5.562698e-004
-2.100984e-004,-7.165524e-004
-2.238740e-004,-8.445840e-004
-2.326255e-004,-8.812107e-004
-2.306807e-004,-8.068228e-004
-2.180396e-004,-6.450816e-004
-1.969711e-004,-4.465517e-004
-1.734716e-004,-2.624455e-004
-1.545100e-004,-1.148040e-004
-1.475412e-004,7.879431e-006
-1.499722e-004,1.307249e-004
-1.562927e-004,2.663736e-004
-1.569410e-004,4.096394e-004
-1.426792e-004,5.475571e-004
-1.183694e-004,6.619752e-004
-9.211487e-005,7.362012e-004
-7.266703e-005,7.571077e-004
-6.667061e-005,7.251807e-004
-7.282909e-005,6.394482e-004
-8.239095e-005,4.853239e-004
-9.227693e-005,2.584324e-004
-9.778715e-005,-7.354708e-006
-9.098041e-005,-2.389460e-004
-6.910160e-005,-3.660052e-004
-3.668853e-005,-3.512573e-004
-3.789271e-006,-2.091260e-004
2.505835e-005,4.313994e-006
4.807163e-005,2.169437e-004
6.670914e-005,3.700955e-004
8.567078e-005,4.503178e-004
1.067393e-004,4.828930e-004
1.240803e-004,5.138475e-004
1.292664e-004,5.804563e-004
1.224596e-004,7.029778e-004
1.124116e-004,8.802774e-004
1.044704e-004,1.091935e-003
1.022014e-004,1.299379e-003
1.070634e-004,1.458689e-003
1.137081e-004,1.534374e-003
1.132219e-004,1.514278e-003
1.022014e-004,1.413149e-003
8.145709e-005,1.259025e-003
5.293359e-005,1.084480e-003
2.278944e-005,9.120423e-004
3.989864e-006,7.543525e-004
8.527692e-006,6.144901e-004
3.850977e-005,4.832171e-004
8.729143e-005,3.452995e-004
1.393144e-004,1.856651e-004
1.775618e-004,5.934647e-006
1.963614e-004,-1.739578e-004
1.986303e-004,-3.284061e-004
1.835582e-004,-4.421759e-004
1.482280e-004,-5.099192e-004
9.604297e-005,-5.381185e-004
4.223728e-005,-5.330945e-004
-7.100305e-007,-5.063537e-004
-2.518189e-005,-4.713476e-004
-2.664048e-005,-4.382863e-004
-5.479652e-007,-4.096008e-004
5.131293e-005,-3.826979e-004
1.214872e-004,-3.591985e-004
1.984682e-004,-3.384541e-004
2.705873e-004,-3.215993e-004
3.245551e-004,-3.096065e-004
3.525924e-004,-3.039342e-004
3.566440e-004,-3.052307e-004
3.441650e-004,-3.102547e-004
3.264999e-004,-3.130099e-004
3.112657e-004,-3.105789e-004
3.004074e-004,-3.011791e-004
2.890628e-004,-2.872415e-004
2.790147e-004,-2.750866e-004
2.713976e-004,-2.729797e-004
2.629703e-004,-2.796244e-004
2.503292e-004,-2.840002e-004
2.336364e-004,-2.786520e-004
2.158092e-004,-2.635799e-004
2.007372e-004,-2.447804e-004
1.864754e-004,-2.298704e-004
1.736723e-004,-2.191741e-004
1.574657e-004,-2.066950e-004
1.333180e-004,-1.823852e-004
1.036600e-004,-1.373311e-004
7.416414e-005,-7.752898e-005
4.742337e-005,-1.286493e-005
2.311357e-005,4.564065e-005
1.072688e-006,8.891209e-005
-1.772689e-005,1.124116e-004
-3.117831e-005,1.229458e-004
-3.814712e-005,1.354248e-004
-4.106429e-005,1.607070e-004
-4.414354e-005,1.919856e-004
-5.046408e-005,2.094887e-004
-5.678463e-005,1.950649e-004
-6.051213e-005,1.475797e-004
-6.083626e-005,7.335382e-005
-5.840528e-005,-1.756482e-005
-5.419158e-005,-1.180453e-004
-4.576419e-005,-2.175534e-004
-3.215070e-005,-3.021515e-004
-1.707863e-005,-3.553089e-004
-6.868512e-006,-3.671397e-004
-2.330684e-006,-3.363473e-004
-2.492749e-006,-2.700626e-004
-3.789271e-006,-1.840059e-004
-6.058186e-006,-9.875954e-005
-3.465141e-006,-3.004385e-005
9.338019e-006,2.035846e-005
3.688912e-005,5.585077e-005
7.432621e-005,8.080882e-005
1.093323e-004,1.018773e-004
1.297525e-004,1.244044e-004
1.269974e-004,1.513072e-004
