-2.238345e-007,1.268354e-004
1.221355e-004,1.150046e-004
2.140265e-004,1.051186e-004
2.579462e-004,9.539470e-005
2.517877e-004,8.421220e-005
2.008992e-004,6.492643e-005
1.269974e-004,3.283749e-005
6.006446e-005,-8.975361e-006
2.408596e-005,-5.597430e-005
2.262737e-005,-9.859748e-005
4.402000e-005,-1.276072e-004
7.772959e-005,-1.361966e-004
1.218114e-004,-1.267968e-004
1.773998e-004,-1.067007e-004
2.401191e-004,-8.368747e-005
3.030004e-004,-6.359137e-005
3.579406e-004,-5.224680e-005
3.900295e-004,-5.986387e-005
3.856537e-004,-8.984595e-005
3.412478e-004,-1.289037e-004
2.631323e-004,-1.562927e-004
1.717275e-004,-1.587237e-004
9.166720e-005,-1.370070e-004
4.045456e-005,-1.005423e-004
2.165498e-005,-6.083626e-005
3.040651e-005,-2.955766e-005
5.828174e-005,-5.571990e-006
9.912220e-005,1.679302e-005
1.500107e-004,3.948217e-005
2.111093e-004,6.168512e-005
2.694529e-004,8.145709e-005
3.145071e-004,9.604297e-005
3.425443e-004,1.091703e-004
3.555096e-004,1.200286e-004
3.483787e-004,1.247285e-004
3.038107e-004,1.201907e-004
2.060853e-004,1.051186e-004
6.411610e-005,8.712937e-005
-9.033214e-005,7.497447e-005
-2.149604e-004,6.914012e-005
-2.822175e-004,6.427816e-005
-2.946965e-004,5.811968e-005
-2.746004e-004,5.244739e-005
-2.460769e-004,5.001641e-005
-2.190120e-004,5.358185e-005
-1.896782e-004,6.411610e-005
-1.551583e-004,8.210535e-005
-1.128592e-004,1.034980e-004
-6.748093e-005,1.234320e-004
-3.150244e-005,1.398006e-004
-1.124428e-005,1.501728e-004
-1.844488e-006,1.526038e-004
4.962256e-006,1.477418e-004
1.144487e-005,1.389903e-004
1.355172e-005,1.278078e-004
9.824214e-006,1.148425e-004
6.096713e-006,9.977046e-005
9.175954e-006,8.793970e-005
2.214118e-005,8.032263e-005
4.029249e-005,7.384001e-005
5.714729e-005,6.508849e-005
6.897806e-005,5.034054e-005
7.011251e-005,2.910999e-005
5.568870e-005,5.448451e-006
2.570661e-005,-2.161646e-005
-1.594417e-005,-4.949169e-005
-5.986387e-005,-7.072224e-005
-9.568031e-005,-8.222889e-005
-1.148040e-004,-8.352540e-005
-1.135075e-004,-7.639453e-005
-9.081834e-005,-6.553616e-005
-5.710876e-005,-5.321919e-005
-2.728874e-005,-3.782299e-005
-1.513384e-005,-2.064406e-005
-2.615428e-005,-4.275467e-006
-6.116039e-005,1.063454e-005
-1.068628e-004,2.586868e-005
-1.410586e-004,4.061663e-005
-1.384655e-004,5.131293e-005
-8.190475e-005,5.520250e-005
2.489629e-005,5.293359e-005
1.508210e-004,4.709924e-005
2.569738e-004,4.385793e-005
3.175863e-004,5.082674e-005
3.245551e-004,7.092283e-005
2.916558e-004,9.523264e-005
2.409294e-004,1.122495e-004
1.885823e-004,1.164632e-004
1.459591e-004,1.125736e-004
1.141943e-004,1.104668e-004
8.129502e-005,1.158149e-004
3.705119e-005,1.318594e-004
-1.724069e-005,1.558451e-004
-7.201877e-005,1.793446e-004
-1.170729e-004,1.936063e-004
-1.381414e-004,1.945787e-004
-1.229073e-004,1.874478e-004
-7.072224e-005,1.754550e-004
6.744974e-006,1.639483e-004
9.977046e-005,1.506590e-004
1.983062e-004,1.344524e-004
2.856594e-004,1.133840e-004
3.503235e-004,9.361198e-005
3.843572e-004,7.497447e-005
3.856537e-004,5.439218e-005
3.593991e-004,3.056858e-005
3.192069e-004,7.555300e-006
2.819319e-004,-9.785687e-006
2.474120e-004,-1.983374e-005
1.840444e-004,-2.809907e-005
3.186510e-005,-3.863331e-005
-2.449424e-004,-5.208473e-005
-5.873864e-004,-6.488790e-005
-8.804004e-004,-7.380149e-005
-1.042628e-003,-7.688072e-005
-1.058996e-003,-7.736692e-005
-9.662950e-004,-8.239095e-005
-8.272430e-004,-9.503204e-005
-7.024527e-004,-1.094559e-004
-6.279027e-004,-1.240417e-004
-6.029447e-004,-1.378173e-004
-5.982447e-004,-1.502963e-004
-5.841451e-004,-1.593720e-004
-5.360117e-004,-1.634236e-004
-4.301830e-004,-1.676373e-004
-2.488320e-004,-1.734716e-004
3.665733e-006,-1.767129e-004
2.842008e-004,-1.716889e-004
5.258403e-004,-1.530514e-004
6.661889e-004,-1.212866e-004
6.770473e-004,-8.838737e-005
5.726772e-004,-5.986387e-005
4.052637e-004,-3.814712e-005
2.380122e-004,-1.821308e-005
1.195424e-004,-2.238345e-007
7.254349e-005,1.630683e-005
9.993253e-005,3.380988e-005
1.837203e-004,5.260946e-005
2.914938e-004,6.897806e-005
3.874364e-004,8.340186e-005
4.488592e-004,9.344992e-005
4.704139e-004,9.960840e-005
4.533971e-004,1.039842e-004
4.039671e-004,1.067393e-004
3.354135e-004,1.057669e-004
2.704253e-004,9.993253e-005
2.226160e-004,8.793970e-005
1.940925e-004,7.076077e-005
1.816135e-004,5.504044e-005
1.751308e-004,4.564065e-005
1.714033e-004,4.207521e-005
1.738343e-004,4.158902e-005
1.814514e-004,4.207521e-005
1.913374e-004,4.061663e-005
2.028440e-004,3.640293e-005
2.151610e-004,3.380988e-005
2.310434e-004,3.494434e-005
2.560015e-004,4.158902e-005
2.968419e-004,5.439218e-005
3.579406e-004,7.432621e-005
4.381629e-004,9.604297e-005
5.268127e-004,1.146805e-004
6.060626e-004,1.258630e-004
6.584098e-004,1.286181e-004
6.757508e-004,1.237561e-004
6.512789e-004,1.135460e-004
5.866148e-004,1.009049e-004
4.901859e-004,9.037068e-005
3.746333e-004,8.502253e-005
2.500050e-004,8.502253e-005
1.099806e-004,9.426025e-005
-4.916756e-005,1.106288e-004
-2.186879e-004,1.278078e-004
-3.763774e-004,1.360731e-004
-4.917678e-004,1.334801e-004
-5.402254e-004,1.226217e-004
-5.214258e-004,1.072255e-004
-4.465517e-004,8.826383e-005
-3.468815e-004,6.719534e-005
-3.031239e-004,4.337174e-005
-4.032802e-004,1.906194e-005
-6.590192e-004,-2.816880e-006
-9.953047e-004,-1.918548e-005
-1.278109e-003,-3.150244e-005
-1.384586e-003,-4.398147e-005
-1.278433e-003,-6.278104e-005
-1.014428e-003,-8.449779e-005
-6.896496e-004,-1.032974e-004
-3.959873e-004,-1.191798e-004
-1.812508e-004,-1.352242e-004
-5.046408e-005,-1.511066e-004
1.808955e-005,-1.611547e-004
5.406805e-005,-1.600202e-004
8.161915e-005,-1.462447e-004
1.161391e-004,-1.274451e-004
1.560071e-004,-1.068628e-004
1.876099e-004,-8.741497e-005
2.057612e-004,-6.942573e-005
2.143507e-004,-5.402952e-005
2.218057e-004,-4.203669e-005
2.357433e-004,-2.890940e-005
2.603772e-004,-9.461557e-006
2.895490e-004,9.662150e-006
3.062417e-004,2.603075e-005
2.987867e-004,3.883391e-005
2.715597e-004,4.920609e-005
2.431983e-004,5.860587e-005
2.308813e-004,6.930219e-005
2.407673e-004,8.097089e-005
2.675081e-004,9.620503e-005
2.974902e-004,1.169494e-004
3.190449e-004,1.419075e-004
3.201793e-004,1.676758e-004
2.992729e-004,1.926339e-004
2.663736e-004,2.148369e-004
2.321778e-004,2.289365e-004
2.030061e-004,2.320158e-004
1.795066e-004,2.243987e-004
1.574657e-004,2.093266e-004
1.341283e-004,1.892305e-004
1.072255e-004,1.694586e-004
8.016056e-005,1.498487e-004
6.022653e-005,1.294284e-004
5.617490e-005,1.119254e-004
6.314371e-005,9.928427e-005
7.238143e-005,9.182927e-005
7.286762e-005,8.680524e-005
5.941620e-005,8.275361e-005
3.397195e-005,7.918817e-005
7.879431e-006,7.529860e-005
-5.571990e-006,7.092283e-005
4.476060e-006,6.914012e-005
4.029249e-005,7.140904e-005
9.344992e-005,7.821578e-005
1.469315e-004,8.469840e-005
1.825858e-004,9.101894e-005
1.929580e-004,9.474644e-005
1.830720e-004,9.539470e-005
1.688103e-004,9.507057e-005
1.620035e-004,9.328785e-005
1.652449e-004,8.972242e-005
1.710792e-004,8.858796e-005
1.762653e-004,9.053274e-005
1.790204e-004,9.328785e-005
1.780480e-004,9.328785e-005
1.754550e-004,8.972242e-005
1.718895e-004,8.064676e-005
1.576278e-004,6.735740e-005
1.229458e-004,5.471631e-005
7.027457e-005,4.596478e-005
5.610517e-006,4.110282e-005
-6.764300e-005,3.672705e-005
-1.433275e-004,3.251336e-005
-2.084778e-004,2.716520e-005
-2.478596e-004,2.100672e-005
-2.532078e-004,1.274139e-005
-2.240360e-004,1.234753e-006
-1.650442e-004,-1.156841e-005
-8.741497e-005,-2.323711e-005
-1.189254e-005,-3.263690e-005
4.807163e-005,-4.236081e-005
8.486046e-005,-5.224680e-005
1.023635e-004,-6.213279e-005
1.018773e-004,-6.683268e-005
8.437427e-005,-6.326724e-005
6.265751e-005,-5.192267e-005
6.168512e-005,-3.474375e-005
9.571883e-005,-1.805102e-005
1.563313e-004,-1.173047e-005
1.978200e-004,-2.210265e-005
1.399627e-004,-4.317114e-005
-4.171255e-005,-6.893953e-005
-2.726556e-004,-9.195280e-005
-4.358554e-004,-1.047560e-004
-4.483344e-004,-1.024870e-004
-2.951827e-004,-8.838737e-005
-2.712668e-005,-7.331529e-005
2.688046e-004,-6.796713e-005
5.081752e-004,-7.704279e-005
6.514410e-004,-9.875954e-005
6.969814e-004,-1.277692e-004
6.595443e-004,-1.559686e-004
5.415606e-004,-1.755785e-004
3.229344e-004,-1.794681e-004
-4.414354e-005,-1.637477e-004
-5.870622e-004,-1.303623e-004
-1.216848e-003,-8.984595e-005
-1.762846e-003,-5.078821e-005
-2.077415e-003,-2.031993e-005
-2.094918e-003,-2.238345e-007
-1.843393e-003,1.047248e-005
-1.427371e-003,1.598270e-005
-9.732638e-004,1.889987e-005
-5.731246e-004,2.197911e-005
-2.520733e-004,2.943412e-005
7.393235e-006,4.466826e-005
2.271538e-004,6.914012e-005
4.128807e-004,9.750155e-005
5.582533e-004,1.257009e-004
6.456067e-004,1.480659e-004
6.660269e-004,1.608691e-004
6.271311e-004,1.611932e-004
5.478812e-004,1.508210e-004
4.548556e-004,1.323456e-004
3.819262e-004,1.104668e-004
3.498373e-004,8.988448e-005
3.595612e-004,7.821578e-005
3.989431e-004,7.740545e-005
4.504799e-004,8.372600e-005
4.976409e-004,9.409818e-005
5.425331e-004,1.057669e-004
6.015248e-004,1.096565e-004
6.762370e-004,1.013911e-004
7.499768e-004,7.918817e-005
8.024860e-004,4.823369e-005
8.173960e-004,2.116879e-005
7.867657e-004,1.031041e-005
7.020054e-004,1.565857e-005
5.671670e-004,2.327564e-005
4.044533e-004,2.100672e-005
2.425500e-004,6.744974e-006
9.474644e-005,-1.270286e-005
-4.787104e-005,-2.745081e-005
-1.985918e-004,-3.085418e-005
-3.572537e-004,-1.934754e-005
-4.987367e-004,3.989864e-006
-5.932207e-004,3.656499e-005
-6.248234e-004,6.832980e-005
-5.956517e-004,8.923622e-005
-5.053813e-004,9.863601e-005
-3.532020e-004,1.004187e-004
-1.541859e-004,9.717742e-005
5.925414e-005,8.891209e-005
2.487085e-004,7.578480e-005
3.885709e-004,5.876794e-005
4.790034e-004,4.094075e-005
5.366987e-004,2.522042e-005
5.614947e-004,1.468617e-005
5.117406e-004,1.079661e-005
3.240689e-004,1.695509e-005
-1.983374e-005,3.154097e-005
-4.546549e-004,4.855782e-005
-8.447461e-004,6.330577e-005
-1.036956e-003,7.173317e-005
-9.426334e-004,7.594687e-005
-5.984068e-004,8.064676e-005
-1.447861e-004,8.534666e-005
2.496809e-004,8.826383e-005
4.781931e-004,8.972242e-005
5.195197e-004,9.037068e-005
4.193634e-004,8.875003e-005
2.500050e-004,8.340186e-005
7.999850e-005,7.043664e-005
-5.111234e-005,5.228533e-005
-1.349001e-004,3.380988e-005
-1.806025e-004,1.679302e-005
-1.912988e-004,7.485573e-007
-1.686097e-004,-1.270286e-005
-1.173971e-004,-2.194059e-005
-4.527799e-005,-2.469570e-005
3.526847e-005,-1.756482e-005
1.153287e-004,-5.085794e-006
1.859892e-004,8.365628e-006
2.260194e-004,2.068259e-005
2.188885e-004,2.894792e-005
1.624898e-004,3.154097e-005
7.562274e-005,2.473422e-005
-7.840905e-006,9.013888e-006
-5.419158e-005,-1.173047e-005
-4.479180e-005,-3.247483e-005
1.014835e-005,-4.916756e-005
8.161915e-005,-6.180866e-005
1.375317e-004,-6.910160e-005
1.620035e-004,-7.056018e-005
1.445005e-004,-6.764300e-005
9.280166e-005,-6.537409e-005
2.781346e-005,-6.683268e-005
-2.874733e-005,-7.088431e-005
-6.391550e-005,-7.185670e-005
-7.412562e-005,-6.569822e-005
-6.829127e-005,-4.576419e-005
-6.132245e-005,-1.335112e-005
-6.035006e-005,2.684107e-005
-5.402952e-005,6.897806e-005
-3.198863e-005,1.051186e-004
5.286386e-006,1.278078e-004
4.320967e-005,1.355869e-004
6.103685e-005,1.349386e-004
6.103685e-005,1.341283e-004
7.886404e-005,1.359110e-004
1.579519e-004,1.380179e-004
3.044590e-004,1.351007e-004
4.786793e-004,1.235941e-004
6.200003e-004,1.043083e-004
6.767232e-004,8.356393e-005
6.342620e-004,6.881599e-005
5.164405e-004,6.411610e-005
3.636129e-004,6.622294e-005
2.111093e-004,6.995045e-005
8.340186e-005,7.400208e-005
-9.623623e-006,7.627100e-005
-7.315322e-005,7.497447e-005
-1.162626e-004,7.059870e-005
-1.477033e-004,6.265751e-005
-1.681235e-004,5.244739e-005
-1.755785e-004,4.272347e-005
-1.621271e-004,3.624086e-005
-1.157764e-004,3.494434e-005
-2.242678e-005,3.688912e-005
1.112771e-004,4.223728e-005
2.594048e-004,4.807163e-005
3.841952e-004,5.017848e-005
4.571246e-004,4.839576e-005
4.709001e-004,4.645098e-005
4.381629e-004,4.855782e-005
3.752816e-004,5.439218e-005
3.034866e-004,5.633696e-005
2.397949e-004,5.147500e-005
1.835582e-004,3.834771e-005
1.213252e-004,2.149292e-005
4.531652e-005,3.989864e-006
-3.020592e-005,-1.010982e-005
-8.093235e-005,-1.724069e-005
-9.422171e-005,-1.610623e-005
-7.039811e-005,-9.947754e-006
-1.869928e-005,-5.409925e-006
4.126489e-005,-7.516774e-006
9.020861e-005,-1.399939e-005
1.175977e-004,-2.113026e-005
1.153287e-004,-2.583015e-005
8.097089e-005,-2.793700e-005
1.987226e-005,-2.599222e-005
-5.791909e-005,-1.918548e-005
-1.679614e-004,-9.623623e-006
-3.669776e-004,-3.141010e-006
-6.797636e-004,-3.789271e-006
-1.047976e-003,-7.840905e-006
-1.354279e-003,-1.059601e-005
-1.476477e-003,-8.489165e-006
-1.359303e-003,-1.358292e-006
-1.039549e-003,8.851824e-006
-6.178546e-004,2.230324e-005
-2.005366e-004,3.494434e-005
1.349386e-004,4.142695e-005
3.589129e-004,4.450619e-005
4.861343e-004,4.758544e-005
5.452881e-004,5.163707e-005
5.512845e-004,5.244739e-005
4.927790e-004,4.904402e-005
3.300653e-004,4.434413e-005
4.191315e-005,4.175108e-005
-3.123616e-004,4.094075e-005
-6.253097e-004,3.899597e-005
-8.116847e-004,3.543053e-005
-8.458805e-004,3.267542e-005
-7.598238e-004,3.040651e-005
-6.191512e-004,2.797553e-005
-4.813957e-004,2.781346e-005
-3.734602e-004,3.607880e-005
-2.823795e-004,5.504044e-005
-1.799543e-004,7.805372e-005
-5.727082e-005,9.555677e-005
5.941620e-005,1.044704e-004
1.380179e-004,1.064151e-004
1.691344e-004,1.046324e-004
1.715654e-004,1.025256e-004
1.577899e-004,1.049566e-004
1.096565e-004,1.151667e-004
-3.101624e-005,1.286181e-004
-2.951827e-004,1.420695e-004
-6.076446e-004,1.513072e-004
-8.334015e-004,1.519555e-004
-8.632215e-004,1.432040e-004
-6.559400e-004,1.274836e-004
-2.496423e-004,1.077117e-004
2.602152e-004,8.567078e-005
7.585663e-004,6.476436e-005
1.153358e-003,4.855782e-005
1.370526e-003,3.867184e-005
1.345243e-003,3.462021e-005
1.060656e-003,3.008238e-005
5.871010e-004,2.214118e-005
7.740545e-005,7.231170e-006
-2.916172e-004,-1.853721e-005
-4.219177e-004,-5.321919e-005
-3.329439e-004,-8.984595e-005
-1.199901e-004,-1.209625e-004
1.125736e-004,-1.413827e-004
2.934386e-004,-1.538618e-004
3.971604e-004,-1.621271e-004
4.362181e-004,-1.731475e-004
4.368664e-004,-1.875713e-004
4.266563e-004,-1.990780e-004
4.242253e-004,-2.023193e-004
4.355699e-004,-1.959987e-004
4.574487e-004,-1.818990e-004
4.846757e-004,-1.682856e-004
5.091476e-004,-1.582375e-004
5.187094e-004,-1.527273e-004
4.905100e-004,-1.467309e-004
4.015361e-004,-1.383035e-004
2.582704e-004,-1.298761e-004
1.094944e-004,-1.199901e-004
8.041497e-006,-1.042698e-004
-2.031993e-005,-8.109442e-005
1.306552e-005,-5.176060e-005
6.832980e-005,-1.853721e-005
1.043083e-004,1.257933e-005
9.993253e-005,3.575467e-005
5.682316e-005,5.293359e-005
-9.947754e-006,6.638501e-005
-8.222889e-005,7.853991e-005
-1.357104e-004,9.069480e-005
-1.507825e-004,1.056048e-004
-1.259865e-004,1.261871e-004
-7.201877e-005,1.485521e-004
-1.513384e-005,1.663793e-004
1.582063e-005,1.786963e-004
8.689757e-006,1.859892e-004
-2.404744e-005,1.908512e-004
-5.646050e-005,1.919856e-004
-6.910160e-005,1.903650e-004
-5.111234e-005,1.918236e-004
-3.627206e-006,1.942546e-004
5.779555e-005,1.957131e-004
1.116012e-004,1.944166e-004
1.454729e-004,1.911753e-004
1.594105e-004,1.869616e-004
1.576278e-004,1.799928e-004
1.550348e-004,1.707551e-004
1.631380e-004,1.626518e-004
1.895547e-004,1.553589e-004
2.451431e-004,1.472556e-004
3.334687e-004,1.399627e-004
4.383250e-004,1.323456e-004
5.230852e-004,1.231079e-004
5.516087e-004,1.137081e-004
5.106062e-004,1.047945e-004
4.138531e-004,9.539470e-005
2.898731e-004,8.372600e-005
1.676758e-004,7.124698e-005
7.270556e-005,5.439218e-005
1.436204e-005,3.137890e-005
-1.010982e-005,9.338019e-006
-1.545797e-005,-7.030578e-006
-2.501983e-005,-1.545797e-005
-5.289506e-005,-1.594417e-005
-8.514606e-005,-9.461557e-006
-8.790116e-005,-5.479652e-007
-3.231276e-005,7.879431e-006
7.610893e-005,1.436204e-005
1.963614e-004,1.792748e-005
2.833905e-004,1.565857e-005
3.158036e-004,7.393235e-006
2.953833e-004,-8.489165e-006
2.396328e-004,-3.263690e-005
1.636242e-004,-6.229485e-005
8.405013e-005,-9.033214e-005
1.241726e-005,-1.089697e-004
-4.527799e-005,-1.143178e-004
-8.676671e-005,-1.055663e-004
-1.193418e-004,-8.514606e-005
-1.454343e-004,-5.548810e-005
-1.637477e-004,-2.291298e-005
-1.737958e-004,8.851824e-006
-1.833576e-004,3.429608e-005
-1.984297e-004,5.212327e-005
-2.211188e-004,6.136099e-005
-2.498044e-004,6.606088e-005
-2.793003e-004,6.978838e-005
-3.074996e-004,7.513654e-005
-3.344025e-004,8.194328e-005
-3.593605e-004,8.680524e-005
-3.776739e-004,8.356393e-005
-3.857772e-004,7.140904e-005
-3.747567e-004,4.823369e-005
-3.460712e-004,1.841368e-005
-3.096065e-004,-7.516774e-006
-2.807589e-004,-1.707863e-005
-2.664971e-004,-7.516774e-006
-2.609869e-004,1.533444e-005
-2.532078e-004,3.996836e-005
-2.386219e-004,5.277152e-005
-2.240360e-004,5.374392e-005
-2.199844e-004,5.552663e-005
-2.297083e-004,6.978838e-005
-2.494803e-004,9.798775e-005
-2.731418e-004,1.328318e-004
-2.864312e-004,1.647587e-004
-2.598524e-004,1.830720e-004
-1.637477e-004,1.798307e-004
1.727922e-005,1.571416e-004
2.756114e-004,1.224596e-004
5.734875e-004,8.421220e-005
8.415437e-004,5.082674e-005
1.015440e-003,2.133085e-005
1.064708e-003,-7.840905e-006
1.001826e-003,-3.441962e-005
8.558055e-004,-5.224680e-005
6.533858e-004,-5.840528e-005
4.179047e-004,-5.419158e-005
1.777239e-004,-4.333321e-005
-4.365734e-005,-2.923352e-005
-2.350565e-004,-1.659243e-005
-3.956631e-004,-4.923729e-006
-5.199672e-004,7.717366e-006
-5.899794e-004,2.246531e-005
-5.941931e-004,3.834771e-005
-5.379565e-004,5.374392e-005
-4.352071e-004,6.703327e-005
-2.930758e-004,8.097089e-005
-1.208004e-004,9.588090e-005
5.698522e-005,1.067393e-004
1.864754e-004,1.101426e-004
1.876099e-004,1.049566e-004
1.436204e-005,9.507057e-005
-2.707108e-004,8.388807e-005
-5.335807e-004,7.108490e-005
-6.661501e-004,5.666109e-005
-6.379507e-004,4.288554e-005
-4.904713e-004,2.813760e-005
-3.079858e-004,1.063454e-005
-1.668270e-004,-9.137427e-006
-9.584237e-005,-2.777494e-005
-9.519411e-005,-4.381940e-005
-1.485136e-004,-5.095028e-005
-2.198223e-004,-4.965375e-005
-2.605007e-004,-4.479180e-005
-2.449424e-004,-3.863331e-005
-1.763888e-004,-2.809907e-005
-7.817725e-005,-9.299492e-006
2.505835e-005,1.355172e-005
1.177597e-004,2.829966e-005
1.924718e-004,2.489629e-005
2.389846e-004,5.772582e-006
2.446569e-004,-1.643037e-005
2.099749e-004,-2.777494e-005
1.446626e-004,-2.550602e-005
6.427816e-005,-1.302699e-005
-1.059601e-005,5.772582e-006
-6.197072e-005,2.376183e-005
-8.368747e-005,3.267542e-005
-8.190475e-005,2.716520e-005
-7.331529e-005,9.338019e-006
-6.731887e-005,-1.237873e-005
-6.051213e-005,-3.117831e-005
-4.236081e-005,-4.203669e-005
-1.432352e-005,-4.641245e-005
8.365628e-006,-4.381940e-005
9.338019e-006,-3.263690e-005
-1.237873e-005,-9.299492e-006
-4.835723e-005,2.359977e-005
-9.033214e-005,5.439218e-005
-1.293899e-004,7.140904e-005
-1.553203e-004,7.157111e-005
-1.721751e-004,5.795762e-005
-1.820611e-004,3.850977e-005
-1.815749e-004,1.971020e-005
-1.634236e-004,3.179537e-006
-1.248521e-004,-9.785687e-006
-6.504996e-005,-1.562004e-005
2.100672e-005,-1.237873e-005
1.401247e-004,-1.682422e-006
3.044590e-004,9.824214e-006
5.230852e-004,1.501031e-005
7.896828e-004,1.225519e-005
1.073135e-003,2.045080e-006
1.327254e-003,-8.813297e-006
1.508606e-003,-1.513384e-005
1.573756e-003,-1.707863e-005
1.469224e-003,-1.918548e-005
1.163244e-003,-2.469570e-005
6.848265e-004,-2.809907e-005
1.365593e-004,-2.323711e-005
-3.214373e-004,-7.192643e-006
-5.501113e-004,1.695509e-005
-5.092709e-004,3.867184e-005
-2.572594e-004,5.260946e-005
8.032263e-005,5.617490e-005
3.636129e-004,4.823369e-005
5.042856e-004,3.591673e-005
4.945617e-004,2.619281e-005
3.814400e-004,1.971020e-005
2.303951e-004,1.711715e-005
8.972242e-005,2.019640e-005
-2.291298e-005,2.765140e-005
-1.076731e-004,3.948217e-005
-1.415448e-004,5.244739e-005
-9.098041e-005,6.152305e-005
2.489629e-005,6.525056e-005
1.043083e-004,6.249544e-005
4.758544e-005,5.406805e-005
-1.475412e-004,4.402000e-005
-3.848048e-004,3.543053e-005
-5.392530e-004,2.943412e-005
-5.364979e-004,2.748933e-005
-3.732981e-004,2.781346e-005
-1.122110e-004,2.797553e-005
1.504969e-004,2.862379e-005
3.279585e-004,2.846173e-005
3.788470e-004,2.732727e-005
3.012177e-004,2.765140e-005
1.156529e-004,3.170303e-005
-1.404103e-004,4.418206e-005
-4.000389e-004,6.265751e-005
-6.103996e-004,7.789165e-005
-7.860784e-004,8.161915e-005
-9.927116e-004,7.092283e-005
-1.231272e-003,5.050261e-005
-1.426236e-003,2.651694e-005
-1.485390e-003,6.096713e-006
-1.344555e-003,-6.868512e-006
-9.873635e-004,-8.975361e-006
-4.459034e-004,1.396819e-006
2.049509e-004,1.954813e-005
8.447851e-004,3.818564e-005
1.370364e-003,5.568870e-005
1.709891e-003,7.157111e-005
1.837923e-003,8.486046e-005
1.776338e-003,9.393611e-005
1.588018e-003,1.023635e-004
1.345081e-003,1.146805e-004
1.100686e-003,1.282940e-004
8.763878e-004,1.432040e-004
6.851506e-004,1.548727e-004
5.316746e-004,1.594105e-004
4.153117e-004,1.563313e-004
3.358997e-004,1.441764e-004
2.887386e-004,1.271595e-004
2.639427e-004,1.140322e-004
2.399570e-004,1.101426e-004
1.992786e-004,1.171115e-004
1.305629e-004,1.313732e-004
2.700314e-005,1.435281e-004
-1.031353e-004,1.402868e-004
-2.514251e-004,1.167873e-004
-4.178661e-004,7.675719e-005
-6.022964e-004,2.992031e-005
-7.817026e-004,-1.480971e-005
-9.008206e-004,-5.257093e-005
-9.085998e-004,-8.125648e-005
-7.993678e-004,-1.024870e-004
-6.450816e-004,-1.146419e-004
-5.614560e-004,-1.144799e-004
-6.121824e-004,-1.065387e-004
-7.619307e-004,-9.211487e-005
-8.975793e-004,-7.623246e-005
-9.042240e-004,-6.213279e-005
-7.343796e-004,-5.176060e-005
-4.245108e-004,-4.300908e-005
-6.748093e-005,-3.393342e-005
2.402811e-004,-2.599222e-005
4.357320e-004,-1.983374e-005
5.093096e-004,-1.286493e-005
4.741414e-004,-2.492749e-006
3.393030e-004,1.241726e-005
1.026876e-004,2.927205e-005
-1.934057e-004,4.320967e-005
-4.523860e-004,5.585077e-005
-5.817141e-004,6.735740e-005
-5.447632e-004,7.853991e-005
-3.679500e-004,9.101894e-005
-1.199901e-004,1.046324e-004
1.294284e-004,1.159770e-004
3.378445e-004,1.213252e-004
4.990995e-004,1.184080e-004
6.255105e-004,1.096565e-004
7.238842e-004,9.620503e-005
7.697488e-004,8.016056e-005
7.037881e-004,5.795762e-005
4.830550e-004,3.105477e-005
1.351007e-004,5.610517e-006
-2.517492e-004,-1.351319e-005
-5.591870e-004,-2.404744e-005
-7.000217e-004,-2.113026e-005
-6.595054e-004,-8.975361e-006
-4.875541e-004,6.096713e-006
-2.624455e-004,1.808955e-005
-6.132245e-005,2.197911e-005
6.914012e-005,1.484824e-005
1.265113e-004,-6.176923e-008
1.370455e-004,-2.031993e-005
1.281319e-004,-3.928157e-005
1.240803e-004,-4.722277e-005
1.420695e-004,-4.041603e-005
1.942546e-004,-2.404744e-005
2.801492e-004,-5.896120e-006
3.837089e-004,1.144487e-005
4.756000e-004,2.716520e-005
5.225990e-004,3.802358e-005
5.097958e-004,4.402000e-005
4.498316e-004,4.515445e-005
3.670162e-004,4.580272e-005
2.814457e-004,5.034054e-005
2.065715e-004,5.925414e-005
1.430419e-004,7.189524e-005
8.064676e-005,8.372600e-005
7.393235e-006,9.166720e-005
-7.282909e-005,9.490851e-005
-1.499722e-004,9.507057e-005
-2.222533e-004,9.685329e-005
-2.911311e-004,1.009049e-004
-3.591985e-004,1.069013e-004
-4.332623e-004,1.122495e-004
-5.149432e-004,1.111150e-004
-6.006758e-004,1.000946e-004
-6.656639e-004,8.226741e-005
-6.708500e-004,5.974033e-005
-5.796073e-004,3.510640e-005
-3.729740e-004,6.096713e-006
-6.537409e-005,-2.583015e-005
2.842008e-004,-5.192267e-005
5.861287e-004,-6.132245e-005
7.564594e-004,-5.370539e-005
7.566215e-004,-3.555407e-005
6.067109e-004,-1.480971e-005
3.752816e-004,3.179537e-006
1.423936e-004,1.630683e-005
-3.279896e-005,2.246531e-005
-1.243659e-004,2.554455e-005
-1.405724e-004,2.797553e-005
-1.148040e-004,3.089270e-005
-8.303921e-005,3.251336e-005
-6.180866e-005,3.218923e-005
-3.474375e-005,3.429608e-005
2.651694e-005,4.483032e-005
1.394765e-004,5.974033e-005
2.854973e-004,7.400208e-005
4.250356e-004,7.886404e-005
5.187094e-004,7.432621e-005
5.486915e-004,6.298164e-005
5.315125e-004,4.580272e-005
5.012063e-004,2.829966e-005
4.937514e-004,1.501031e-005
5.195197e-004,6.096713e-006
5.491777e-004,3.017472e-006
5.316746e-004,7.485573e-007
4.320044e-004,-1.520357e-006
2.616738e-004,-2.978945e-006
6.800567e-005,5.864920e-007
-9.422171e-005,5.934647e-006
-1.950263e-004,8.365628e-006
-2.224154e-004,4.151929e-006
-1.729855e-004,-6.382316e-006
-6.504996e-005,-1.983374e-005
5.990240e-005,-3.377135e-005
1.482280e-004,-4.916756e-005
1.589243e-004,-6.375343e-005
8.469840e-005,-7.396355e-005
-3.685059e-005,-7.444974e-005
-1.352242e-004,-6.229485e-005
-1.558065e-004,-4.236081e-005
-9.454584e-005,-2.291298e-005
-1.034161e-006,-9.299492e-006
2.781346e-005,-1.358292e-006
-1.058904e-004,1.558884e-006
-4.157593e-004,5.124321e-006
-8.116847e-004,1.257933e-005
-1.165149e-003,1.987226e-005
-1.385558e-003,2.603075e-005
-1.445684e-003,3.202716e-005
-1.360276e-003,3.899597e-005
-1.173576e-003,4.985435e-005
-9.452265e-004,6.298164e-005
-7.275729e-004,7.465034e-005
-5.415219e-004,8.275361e-005
-3.684362e-004,8.891209e-005
-1.784957e-004,9.118101e-005
3.429608e-005,9.166720e-005
2.443327e-004,9.231547e-005
4.248735e-004,9.280166e-005
5.796460e-004,8.956035e-005
7.284220e-004,8.048469e-005
8.771982e-004,6.525056e-005
1.002151e-003,4.596478e-005
1.078646e-003,2.603075e-005
1.096959e-003,6.744974e-006
1.064060e-003,-9.461557e-006
9.959922e-004,-1.918548e-005
9.099354e-004,-1.999580e-005
8.217717e-004,-1.286493e-005
7.175637e-004,-2.006553e-006
5.512845e-004,7.231170e-006
2.770700e-004,9.824214e-006
-1.366828e-004,7.069104e-006
-6.825187e-004,1.002961e-007
-1.240023e-003,-5.409925e-006
-1.623308e-003,-7.030578e-006
-1.689917e-003,2.623614e-007
-1.403871e-003,2.019640e-005
-8.674352e-004,4.628891e-005
-3.170615e-004,6.995045e-005
-3.976777e-005,8.275361e-005
-1.934057e-004,8.226741e-005
-6.945115e-004,7.205730e-005
-1.276164e-003,6.087479e-005
-1.647293e-003,5.504044e-005
-1.622822e-003,5.601283e-005
-1.173576e-003,6.152305e-005
-4.126800e-004,6.670914e-005
4.516144e-004,6.784360e-005
1.175561e-003,6.444023e-005
1.604873e-003,5.909207e-005
1.702436e-003,5.974033e-005
1.543612e-003,7.189524e-005
1.264373e-003,9.604297e-005
9.938853e-004,1.250527e-004
8.164236e-004,1.477418e-004
7.553250e-004,1.571416e-004
7.832002e-004,1.470936e-004
8.491608e-004,1.161391e-004
9.167421e-004,7.205730e-005
9.673066e-004,2.732727e-005
9.925888e-004,-9.137427e-006
9.841614e-004,-3.117831e-005
9.298695e-004,-3.911951e-005
8.230683e-004,-3.798505e-005
6.704027e-004,-3.604027e-005
4.893756e-004,-3.766092e-005
3.007315e-004,-4.219875e-005
1.245665e-004,-4.544005e-005
-3.004385e-005,-3.928157e-005
-1.561307e-004,-1.902341e-005
-2.498044e-004,9.986280e-006
-3.079858e-004,3.867184e-005
-3.279199e-004,6.006446e-005
-3.057169e-004,7.027457e-005
-2.486699e-004,6.897806e-005
-1.796301e-004,5.925414e-005
-1.433275e-004,4.450619e-005
-1.673132e-004,2.797553e-005
-2.395943e-004,1.257933e-005
-3.311612e-004,-3.627206e-006
-4.107352e-004,-1.610623e-005
-4.467137e-004,-2.194059e-005
-4.175420e-004,-1.707863e-005
-3.243544e-004,3.665733e-006
-1.950263e-004,3.850977e-005
-7.234290e-005,8.097089e-005
6.096713e-006,1.187321e-004
2.035846e-005,1.433660e-004
-3.522994e-005,1.556830e-004
-1.451102e-004,1.560071e-004
-2.707108e-004,1.483901e-004
-3.732981e-004,1.378558e-004
-4.170558e-004,1.245665e-004
-3.802670e-004,1.109530e-004
-2.572594e-004,1.002567e-004
-5.727082e-005,9.328785e-005
1.842065e-004,9.069480e-005
4.196875e-004,9.344992e-005
6.047661e-004,9.928427e-005
7.054087e-004,1.041462e-004
7.063812e-004,1.013911e-004
6.091419e-004,9.263960e-005
4.355699e-004,7.837785e-005
2.231022e-004,5.990240e-005
1.663096e-005,3.786152e-005
-1.449481e-004,1.419998e-005
-2.480217e-004,-6.868512e-006
-2.976136e-004,-2.469570e-005
-3.102547e-004,-3.798505e-005
-3.050687e-004,-4.754691e-005
-2.964792e-004,-5.354332e-005
-2.830278e-004,-5.727082e-005
-2.606628e-004,-5.824321e-005
-2.232257e-004,-6.051213e-005
-1.630995e-004,-6.650855e-005
-8.628051e-005,-7.558420e-005
-1.108221e-005,-9.243900e-005
4.920609e-005,-1.170729e-004
9.960840e-005,-1.420310e-004
1.462832e-004,-1.605064e-004
1.879340e-004,-1.690959e-004
2.174299e-004,-1.640719e-004
2.294227e-004,-1.420310e-004
2.226160e-004,-1.084835e-004
2.025199e-004,-7.250496e-005
1.782101e-004,-4.284701e-005
1.540623e-004,-2.307504e-005
1.250527e-004,-1.448558e-005
8.567078e-005,-1.075808e-005
3.235129e-005,-7.030578e-006
-2.858526e-005,1.883015e-006
-7.720485e-005,1.452411e-005
-8.854943e-005,2.829966e-005
-6.035006e-005,4.337174e-005
-1.043395e-005,6.184718e-005
3.283749e-005,8.372600e-005
5.617490e-005,1.054428e-004
6.233338e-005,1.247285e-004
6.379197e-005,1.404489e-004
7.221937e-005,1.488763e-004
9.960840e-005,1.501728e-004
1.470936e-004,1.453108e-004
2.038164e-004,1.355869e-004
2.524360e-004,1.222975e-004
2.739907e-004,1.077117e-004
2.538946e-004,9.182927e-005
1.940925e-004,7.546067e-005
1.130598e-004,6.087479e-005
3.575467e-005,5.260946e-005
-2.194059e-005,5.212327e-005
-5.159854e-005,5.244739e-005
-5.062615e-005,4.823369e-005
-3.117831e-005,3.850977e-005
-1.189254e-005,2.667901e-005
4.244267e-007,1.403791e-005
5.448451e-006,4.244267e-007
2.045080e-006,-1.594417e-005
-1.383732e-005,-3.247483e-005
-4.284701e-005,-4.138842e-005
-8.709084e-005,-3.701266e-005
-1.489998e-004,-1.999580e-005
-2.212809e-004,-6.176923e-008
-2.937241e-004,1.744128e-005
-3.655190e-004,3.299956e-005
-4.493068e-004,5.179913e-005
-5.609698e-004,7.513654e-005
-6.953219e-004,9.701536e-005
-8.220569e-004,1.187321e-004
-9.058446e-004,1.393144e-004
-9.226995e-004,1.573037e-004
-8.590078e-004,1.728619e-004
-7.073147e-004,1.840444e-004
-4.731303e-004,1.859892e-004
-1.809267e-004,1.772377e-004
1.143563e-004,1.594105e-004
3.482167e-004,1.359110e-004
4.747897e-004,1.140322e-004
4.799758e-004,9.896014e-005
3.963500e-004,9.263960e-005
2.804733e-004,9.409818e-005
1.739964e-004,1.004187e-004
9.426025e-005,1.046324e-004
4.077869e-005,1.062531e-004
6.744974e-006,1.056048e-004
-4.113402e-006,1.033359e-004
1.760335e-005,9.960840e-005
6.897806e-005,9.507057e-005
1.373696e-004,8.810177e-005
2.060853e-004,7.529860e-005
2.647530e-004,5.455424e-005
3.292550e-004,2.667901e-005
4.504799e-004,-4.923729e-006
6.799645e-004,-3.441962e-005
1.004906e-003,-5.824321e-005
1.299217e-003,-7.493595e-005
1.380412e-003,-8.352540e-005
1.155789e-003,-8.514606e-005
7.067053e-004,-8.206682e-005
2.389846e-004,-7.671866e-005
-6.699474e-005,-7.056018e-005
-1.883817e-004,-6.618442e-005
-2.439700e-004,-6.634648e-005
-3.425058e-004,-7.104637e-005
-4.988987e-004,-7.623246e-005
-6.617744e-004,-7.655659e-005
-7.763545e-004,-6.780506e-005
-8.030953e-004,-5.354332e-005
-7.366485e-004,-4.187462e-005
-6.115341e-004,-3.620233e-005
-5.023021e-004,-3.474375e-005
-5.060296e-004,-3.231276e-005
-6.761981e-004,-2.323711e-005
-9.468471e-004,-8.651231e-006
-1.222196e-003,3.341602e-006
-1.505324e-003,5.934647e-006
-1.818597e-003,1.720949e-006
-2.084060e-003,-3.627206e-006
-2.132193e-003,-4.761663e-006
-1.815031e-003,-2.330684e-006
-1.109885e-003,-3.465141e-006
-1.472171e-004,-1.545797e-005
8.230683e-004,-4.625038e-005
1.571973e-003,-9.730095e-005
1.994965e-003,-1.596961e-004
2.091881e-003,-2.149604e-004
1.946831e-003,-2.436459e-004
1.681854e-003,-2.348944e-004
1.400832e-003,-1.959987e-004
1.169078e-003,-1.407345e-004
1.004258e-003,-8.287714e-005
8.942151e-004,-3.344722e-005
8.170719e-004,4.313994e-006
7.561353e-004,3.024445e-005
7.039502e-004,4.823369e-005
6.546823e-004,6.217131e-005
5.966629e-004,7.594687e-005
5.227610e-004,9.182927e-005
4.386491e-004,1.046324e-004
3.568061e-004,1.085220e-004
2.889007e-004,1.078737e-004
2.407673e-004,1.081979e-004
2.096508e-004,1.117633e-004
1.880961e-004,1.177597e-004
1.655690e-004,1.258630e-004
1.451487e-004,1.412592e-004
1.477418e-004,1.628139e-004
1.900409e-004,1.850168e-004
2.551911e-004,2.000889e-004
3.075383e-004,2.036543e-004
3.227724e-004,1.994406e-004
2.926282e-004,1.953890e-004
2.180782e-004,1.965235e-004
9.588090e-005,2.004130e-004
-7.266703e-005,2.049509e-004
-2.603386e-004,2.043026e-004
-4.249970e-004,1.987924e-004
-5.329325e-004,1.905270e-004
-5.708557e-004,1.773998e-004
-5.497872e-004,1.540623e-004
-4.906334e-004,1.222975e-004
-4.053871e-004,9.344992e-005
-2.895104e-004,7.627100e-005
-1.248521e-004,7.319175e-005
1.005808e-004,8.161915e-005
3.610198e-004,9.571883e-005
6.000663e-004,1.065772e-004
7.759072e-004,1.094944e-004
8.831946e-004,1.031738e-004
9.345693e-004,8.777764e-005
9.392693e-004,6.670914e-005
8.880566e-004,4.369587e-005
7.676419e-004,2.165498e-005
5.572810e-004,1.072688e-006
2.478982e-004,-1.675450e-005
-1.404103e-004,-2.988179e-005
-5.502734e-004,-3.895744e-005
-9.071411e-004,-4.527799e-005
-1.131926e-003,-4.949169e-005
-1.168390e-003,-5.208473e-005
-1.020749e-003,-5.370539e-005
-7.457241e-004,-5.856734e-005
-4.181902e-004,-7.039811e-005
-1.148040e-004,-9.098041e-005
1.086841e-004,-1.162626e-004
2.266676e-004,-1.379793e-004
2.410914e-004,-1.493239e-004
1.736723e-004,-1.525652e-004
5.974033e-005,-1.494860e-004
-6.764300e-005,-1.420310e-004
-1.878955e-004,-1.285796e-004
-2.864312e-004,-1.114006e-004
-3.468815e-004,-9.649063e-005
-3.596847e-004,-8.660465e-005
-3.258130e-004,-8.125648e-005
-2.626076e-004,-7.704279e-005
-1.958366e-004,-7.185670e-005
-1.423551e-004,-6.261898e-005
-1.078352e-004,-5.030201e-005
-7.963584e-005,-3.733679e-005
-5.127441e-005,-2.583015e-005
-2.680255e-005,-1.513384e-005
-1.740276e-005,-8.813297e-006
-2.971972e-005,-1.043395e-005
-7.428768e-005,-1.707863e-005
-1.480274e-004,-2.177852e-005
-2.337599e-004,-1.497178e-005
-3.149546e-004,2.369210e-006
-3.792946e-004,2.959618e-005
-4.202971e-004,5.860587e-005
-4.308313e-004,8.032263e-005
-4.086284e-004,9.166720e-005
-3.525538e-004,9.247753e-005
-2.632558e-004,8.745350e-005
-1.475412e-004,8.275361e-005
-1.497178e-005,8.534666e-005
1.258630e-004,9.361198e-005
2.598910e-004,1.039842e-004
3.726885e-004,1.128978e-004
4.679830e-004,1.198666e-004
5.611706e-004,1.247285e-004
6.666752e-004,1.297525e-004
7.684522e-004,1.310491e-004
8.063756e-004,1.284560e-004
7.031398e-004,1.206769e-004
4.417284e-004,1.091703e-004
9.814982e-005,1.020394e-004
-1.870851e-004,1.052807e-004
-2.877277e-004,1.171115e-004
-1.580754e-004,1.304008e-004
1.446626e-004,1.370455e-004
5.020167e-004,1.328318e-004
7.896828e-004,1.234320e-004
9.292212e-004,1.138701e-004
8.979425e-004,1.099806e-004
7.058950e-004,1.107909e-004
3.676645e-004,1.164632e-004
-6.310517e-005,1.234320e-004
-4.849611e-004,1.292664e-004
-8.061745e-004,1.281319e-004
-9.970875e-004,1.184080e-004
-1.088492e-003,1.023635e-004
-1.127550e-003,8.972242e-005
-1.149105e-003,8.486046e-005
-1.177790e-003,8.761556e-005
-1.241320e-003,9.328785e-005
-1.348931e-003,9.685329e-005
-1.459136e-003,9.377405e-005
-1.481825e-003,8.631904e-005
-1.330294e-003,8.226741e-005
-9.784498e-004,9.085687e-005
-4.907955e-004,1.103047e-004
1.558884e-006,1.312111e-004
3.744712e-004,1.417454e-004
5.757564e-004,1.328318e-004
6.357207e-004,1.078737e-004
6.268070e-004,7.610893e-005
6.165970e-004,4.920609e-005
6.305345e-004,3.089270e-005
6.491721e-004,2.100672e-005
6.400964e-004,1.079661e-005
5.846700e-004,-6.058186e-006
4.978030e-004,-3.101624e-005
4.149876e-004,-6.261898e-005
3.637749e-004,-9.600443e-005
3.396272e-004,-1.208004e-004
3.219621e-004,-1.310105e-004
2.973281e-004,-1.206384e-004
2.715597e-004,-9.357345e-005
2.676701e-004,-5.986387e-005
3.041349e-004,-2.599222e-005
3.888950e-004,-1.844488e-006
5.067165e-004,7.069104e-006
6.157866e-004,1.234753e-006
6.686199e-004,-1.189254e-005
6.329655e-004,-2.647842e-005
5.153061e-004,-4.025397e-005
3.430306e-004,-5.159854e-005
1.396385e-004,-6.051213e-005
-7.898758e-005,-6.634648e-005
-2.827036e-004,-6.764300e-005
-4.350450e-004,-6.780506e-005
-5.037607e-004,-7.201877e-005
-4.567618e-004,-7.882551e-005
-2.549905e-004,-8.952182e-005
1.206769e-004,-1.063766e-004
6.431757e-004,-1.264727e-004
1.217860e-003,-1.442999e-004
1.711188e-003,-1.535376e-004
2.004689e-003,-1.504584e-004
2.049095e-003,-1.349001e-004
1.867905e-003,-1.086455e-004
1.521733e-003,-7.769105e-005
1.056119e-003,-4.835723e-005
4.623107e-004,-2.194059e-005
-2.523974e-004,1.072688e-006
-9.825015e-004,2.003433e-005
-1.593164e-003,3.251336e-005
-1.971424e-003,3.980630e-005
-2.047757e-003,4.677511e-005
-1.819569e-003,5.487837e-005
-1.364327e-003,6.654707e-005
-8.155743e-004,8.097089e-005
-3.126857e-004,9.571883e-005
4.871989e-005,1.044704e-004
2.384984e-004,1.094944e-004
2.874421e-004,1.107909e-004
2.538946e-004,1.104668e-004
1.971717e-004,1.119254e-004
1.561692e-004,1.153287e-004
1.435281e-004,1.195424e-004
1.509831e-004,1.198666e-004
1.675138e-004,1.117633e-004
1.835582e-004,9.701536e-005
1.987924e-004,8.097089e-005
2.177540e-004,6.330577e-005
2.461155e-004,4.823369e-005
2.816078e-004,4.013043e-005
3.148312e-004,4.434413e-005
3.336308e-004,6.314371e-005
3.341170e-004,8.988448e-005
3.180725e-004,1.153287e-004
2.869559e-004,1.334801e-004
2.399570e-004,1.419075e-004
1.743205e-004,1.375317e-004
8.891209e-005,1.227837e-004
-1.594417e-005,1.017153e-004
-1.314967e-004,7.708132e-005
-2.358668e-004,5.147500e-005
-2.982619e-004,2.619281e-005
-3.050687e-004,7.069104e-006
-2.669833e-004,-1.682422e-006
-2.010227e-004,2.207145e-006
-1.280934e-004,1.257933e-005
-6.958779e-005,1.938607e-005
-4.673658e-005,1.695509e-005
-6.504996e-005,6.258778e-006
-1.138316e-004,-9.461557e-006
-1.694200e-004,-2.534396e-005
-2.039399e-004,-3.717472e-005
-1.982676e-004,-4.462973e-005
-1.507825e-004,-4.932962e-005
-8.384953e-005,-4.689864e-005
-2.145439e-005,-3.636440e-005
1.695509e-005,-2.015787e-005
3.348575e-005,-3.789271e-006
3.478227e-005,4.800190e-006
2.149292e-005,6.420843e-006
-4.761663e-006,9.662150e-006
-4.284701e-005,1.533444e-005
-8.628051e-005,2.149292e-005
-1.165867e-004,2.570661e-005
-1.123730e-004,2.829966e-005
-4.657451e-005,3.121684e-005
8.875003e-005,3.688912e-005
2.670219e-004,4.628891e-005
4.313562e-004,5.714729e-005
5.258403e-004,6.962632e-005
5.136854e-004,7.983643e-005
3.880847e-004,8.275361e-005
1.762653e-004,7.951231e-005
-7.088431e-005,7.140904e-005
-3.049066e-004,6.200925e-005
-4.890127e-004,5.325772e-005
-6.048895e-004,4.515445e-005
-6.471885e-004,3.575467e-005
-6.230407e-004,2.813760e-005
-5.454115e-004,2.603075e-005
-4.058733e-004,2.959618e-005
-1.775233e-004,4.142695e-005
1.383420e-004,5.763348e-005
4.896997e-004,7.497447e-005
7.880622e-004,9.296372e-005
9.577447e-004,1.072255e-004
9.771925e-004,1.090082e-004
8.820601e-004,9.555677e-005
7.447907e-004,6.930219e-005
6.292380e-004,4.094075e-005
5.332953e-004,2.667901e-005
3.759298e-004,3.202716e-005
8.097089e-005,5.568870e-005
-3.403989e-004,9.312579e-005
-7.888335e-004,1.360731e-004
-1.130629e-003,1.697827e-004
-1.262064e-003,1.859892e-004
-1.157208e-003,1.864754e-004
-8.732696e-004,1.757791e-004
-5.125122e-004,1.611932e-004
-1.802784e-004,1.495245e-004
5.050261e-005,1.430419e-004
1.526038e-004,1.360731e-004
1.394765e-004,1.203528e-004
4.110282e-005,9.199134e-005
-1.042698e-004,5.455424e-005
-2.588801e-004,1.695509e-005
-4.152730e-004,-1.205460e-005
-5.809038e-004,-2.890940e-005
-7.238454e-004,-3.393342e-005
-7.838095e-004,-3.134038e-005
-7.227109e-004,-2.129233e-005
-5.467080e-004,-8.813297e-006
-3.021515e-004,3.827798e-006
-5.727082e-005,1.468617e-005
1.331559e-004,2.116879e-005
2.508154e-004,2.197911e-005
3.120761e-004,1.760335e-005
3.384927e-004,1.095867e-005
3.535648e-004,3.989864e-006
3.741471e-004,-2.168618e-006
4.031568e-004,-9.461557e-006
4.289252e-004,-2.113026e-005
4.370285e-004,-3.150244e-005
4.196875e-004,-3.976777e-005
3.853296e-004,-4.446767e-005
3.498373e-004,-4.738484e-005
3.222862e-004,-5.030201e-005
3.085106e-004,-5.321919e-005
3.096451e-004,-5.338126e-005
3.222862e-004,-5.159854e-005
3.462718e-004,-4.527799e-005
3.801435e-004,-3.604027e-005
4.172565e-004,-2.469570e-005
4.506420e-004,-1.578211e-005
4.825688e-004,-6.706447e-006
5.251920e-004,4.476060e-006
5.760806e-004,1.695509e-005
5.794839e-004,2.927205e-005
4.290873e-004,3.688912e-005
6.687120e-005,3.591673e-005
-4.266176e-004,2.667901e-005
-8.701903e-004,7.879431e-006
-1.105509e-003,-1.918548e-005
-1.079417e-003,-5.030201e-005
-8.679213e-004,-7.428768e-005
-6.089411e-004,-8.303921e-005
-4.087905e-004,-7.607040e-005
-3.024756e-004,-5.970180e-005
-2.608248e-004,-4.236081e-005
-2.126914e-004,-3.134038e-005
-1.016767e-004,-2.923352e-005
7.935023e-005,-3.312309e-005
2.905214e-004,-3.928157e-005
4.718725e-004,-4.041603e-005
5.812666e-004,-3.053005e-005
6.063868e-004,-1.302699e-005
5.626291e-004,2.207145e-006
4.830550e-004,1.193106e-005
4.107739e-004,1.663096e-005
3.939191e-004,1.954813e-005
4.652278e-004,2.311357e-005
6.185417e-004,2.651694e-005
8.125340e-004,2.554455e-005
9.951819e-004,2.165498e-005
1.126131e-003,1.987226e-005
1.185447e-003,2.133085e-005
1.177668e-003,2.651694e-005
1.119648e-003,3.462021e-005
1.023705e-003,4.045456e-005
8.830325e-004,3.867184e-005
6.906608e-004,2.781346e-005
4.389732e-004,1.144487e-005
1.274836e-004,-5.409925e-006
-2.404046e-004,-1.902341e-005
-6.710120e-004,-2.696461e-005
-1.134033e-003,-2.404744e-005
-1.529148e-003,-1.237873e-005
-1.783753e-003,3.017472e-006
-1.898333e-003,1.355172e-005
-1.903195e-003,1.598270e-005
-1.802228e-003,1.598270e-005
-1.575336e-003,2.603075e-005
-1.228679e-003,4.807163e-005
-8.099020e-004,7.562274e-005
-3.822118e-004,9.750155e-005
-4.275467e-006,1.065772e-004
2.770700e-004,1.012291e-004
4.368664e-004,8.793970e-005
4.862963e-004,7.756751e-005
4.751138e-004,7.967437e-005
4.618245e-004,9.361198e-005
4.631210e-004,1.169494e-004
4.585831e-004,1.443384e-004
4.156358e-004,1.699447e-004
3.358997e-004,1.908512e-004
2.600531e-004,2.085163e-004
2.391467e-004,2.192126e-004
3.044590e-004,2.208333e-004
4.365423e-004,2.138645e-004
5.699221e-004,2.025199e-004
6.485238e-004,1.906891e-004
6.509548e-004,1.803169e-004
5.918010e-004,1.696206e-004
4.989374e-004,1.561692e-004
3.866261e-004,1.391524e-004
2.595669e-004,1.203528e-004
1.119254e-004,1.013911e-004
-4.770897e-005,8.242948e-005
-1.784957e-004,6.508849e-005
-2.476975e-004,4.677511e-005
-2.562870e-004,2.327564e-005
-2.433218e-004,-2.978945e-006
-2.653627e-004,-3.296103e-005
-3.613053e-004,-6.634648e-005
-5.596732e-004,-1.010285e-004
-8.731075e-004,-1.314967e-004
-1.254771e-003,-1.514308e-004
-1.581333e-003,-1.571030e-004
-1.710499e-003,-1.506204e-004
-1.580361e-003,-1.336036e-004
-1.246506e-003,-1.081593e-004
-8.248120e-004,-7.542214e-005
-4.026320e-004,-4.106429e-005
-1.967167e-005,-1.205460e-005
3.232586e-004,8.365628e-006
6.431757e-004,1.760335e-005
9.545034e-004,1.679302e-005
1.245411e-003,7.393235e-006
1.474410e-003,-1.367526e-005
1.586073e-003,-5.013995e-005
1.550743e-003,-9.778715e-005
1.384463e-003,-1.425172e-004
1.138124e-003,-1.674752e-004
8.776843e-004,-1.669890e-004
6.645683e-004,-1.417068e-004
5.355643e-004,-9.859748e-005
4.832171e-004,-4.949169e-005
4.608521e-004,-5.896120e-006
4.227667e-004,2.489629e-005
3.493511e-004,4.337174e-005
2.500050e-004,5.552663e-005
1.553589e-004,7.043664e-005
9.150514e-005,9.085687e-005
6.832980e-005,1.143563e-004
7.902610e-005,1.325077e-004
1.057669e-004,1.415833e-004
1.312111e-004,1.436902e-004
1.498487e-004,1.420695e-004
1.610312e-004,1.407730e-004
1.582760e-004,1.414213e-004
1.351007e-004,1.436902e-004
9.879807e-005,1.430419e-004
6.249544e-005,1.380179e-004
3.202716e-005,1.360731e-004
7.717366e-006,1.359110e-004
-8.327101e-006,1.321835e-004
-1.707863e-005,1.244044e-004
-2.955766e-005,1.140322e-004
-5.662256e-005,1.052807e-004
-9.892161e-005,1.046324e-004
-1.421931e-004,1.141943e-004
-2.055606e-004,1.295905e-004
-3.632501e-004,1.412592e-004
-6.695535e-004,1.456350e-004
-1.062400e-003,1.394765e-004
-1.381506e-003,1.234320e-004
-1.471453e-003,1.002567e-004
-1.272598e-003,7.416414e-005
-8.484736e-004,5.212327e-005
-3.356990e-004,3.818564e-005
1.334801e-004,3.024445e-005
4.822447e-004,2.246531e-005
7.024916e-004,8.527692e-006
8.178822e-004,-1.140634e-005
8.462437e-004,-3.555407e-005
8.058894e-004,-5.824321e-005
7.243704e-004,-7.347736e-005
6.324793e-004,-8.077029e-005
5.535535e-004,-7.769105e-005
4.921307e-004,-6.537409e-005
4.464283e-004,-5.078821e-005
4.156358e-004,-4.074016e-005
4.008879e-004,-3.944364e-005
4.145014e-004,-4.462973e-005
4.517764e-004,-5.013995e-005
4.851619e-004,-5.111234e-005
4.916445e-004,-4.511592e-005
4.631210e-004,-2.761287e-005
4.083429e-004,-2.006553e-006
3.543751e-004,2.635488e-005
3.077003e-004,5.439218e-005
2.099749e-004,7.643306e-005
-3.733679e-005,8.972242e-005
-4.716718e-004,9.766362e-005
-1.012646e-003,1.054428e-004
-1.508079e-003,1.159770e-004
-1.824431e-003,1.308870e-004
-1.900602e-003,1.480659e-004
-1.767870e-003,1.644345e-004
-1.524610e-003,1.775618e-004
-1.281998e-003,1.858272e-004
-1.128522e-003,1.856651e-004
-1.101782e-003,1.791825e-004
-1.176008e-003,1.670276e-004
-1.243103e-003,1.509831e-004
-1.156884e-003,1.365593e-004
-8.423151e-004,1.294284e-004
-3.685983e-004,1.313732e-004
9.717742e-005,1.346145e-004
3.872744e-004,1.323456e-004
4.407560e-004,1.213252e-004
3.250413e-004,9.701536e-005
1.829100e-004,5.649903e-005
1.467694e-004,3.341602e-006
2.688046e-004,-4.884343e-005
5.042856e-004,-8.871149e-005
7.535422e-004,-1.118868e-004
9.261419e-004,-1.209625e-004
9.935612e-004,-1.240417e-004
9.827028e-004,-1.284175e-004
9.368383e-004,-1.378173e-004
9.041010e-004,-1.566169e-004
9.201455e-004,-1.817370e-004
9.763822e-004,-2.052364e-004
9.969645e-004,-2.199844e-004
8.629364e-004,-2.219292e-004
4.744656e-004,-2.112329e-004
-2.000504e-004,-1.924333e-004
-1.033876e-003,-1.679614e-004
-1.774515e-003,-1.363587e-004
-2.189565e-003,-9.665269e-005
-2.170441e-003,-5.208473e-005
-1.753932e-003,-9.947754e-006
-1.091571e-003,2.230324e-005
-3.760532e-004,4.369587e-005
2.265056e-004,5.828174e-005
6.247002e-004,6.751947e-005
8.167477e-004,7.124698e-005
8.601813e-004,6.881599e-005
8.337646e-004,5.957827e-005
7.995688e-004,4.871989e-005
7.827140e-004,4.320967e-005
7.794727e-004,4.126489e-005
7.749348e-004,3.769945e-005
7.746107e-004,2.992031e-005
7.964895e-004,1.727922e-005
8.558055e-004,6.096713e-006
9.511000e-004,-6.176923e-008
1.042343e-003,-1.358292e-006
1.064870e-003,1.720949e-006
9.784891e-004,7.879431e-006
8.081583e-004,1.257933e-005
6.428515e-004,1.128280e-005
5.788357e-004,3.989864e-006
6.692682e-004,-3.627206e-006
8.912979e-004,-3.789271e-006
1.137799e-003,4.313994e-006
1.267614e-003,1.436204e-005
1.154492e-003,2.052053e-005
7.340944e-004,2.035846e-005
6.168512e-005,1.468617e-005
-6.962942e-004,9.500084e-006
-1.366272e-003,1.128280e-005
-1.809521e-003,2.327564e-005
-1.906112e-003,4.531652e-005
-1.605805e-003,7.513654e-005
-9.983840e-004,1.060910e-004
-2.882139e-004,1.308870e-004
3.060797e-004,1.441764e-004
6.469032e-004,1.477418e-004
7.151327e-004,1.448246e-004
5.691118e-004,1.385041e-004
2.984626e-004,1.316973e-004
-1.918548e-005,1.260251e-004
-3.337542e-004,1.278078e-004
-6.324405e-004,1.378558e-004
-8.852624e-004,1.516314e-004
-1.017670e-003,1.545486e-004
-9.343681e-004,1.299146e-004
-5.930586e-004,6.914012e-005
-4.673658e-005,-1.869928e-005
5.704083e-004,-1.096179e-004
1.093231e-003,-1.788198e-004
1.406828e-003,-2.081536e-004
1.472465e-003,-1.883817e-004
1.320447e-003,-1.297140e-004
1.030350e-003,-5.435365e-005
6.924436e-004,1.922400e-005
3.866261e-004,8.048469e-005
1.624898e-004,1.263492e-004
1.695509e-005,1.579519e-004
-9.778715e-005,1.769136e-004
-2.276015e-004,1.867996e-004
-3.987424e-004,1.866375e-004
-6.125065e-004,1.743205e-004
-8.544700e-004,1.509831e-004
-1.085575e-003,1.214872e-004
-1.224627e-003,9.539470e-005
-1.205990e-003,7.529860e-005
-1.046355e-003,6.492643e-005
-8.210845e-004,6.687120e-005
-6.019723e-004,7.918817e-005
-4.306693e-004,9.328785e-005
-3.178718e-004,1.031738e-004
-2.480217e-004,1.098185e-004
-1.906506e-004,1.128978e-004
-1.083214e-004,1.133840e-004
2.035846e-005,1.099806e-004
1.893926e-004,1.018773e-004
3.799814e-004,9.020861e-005
5.653843e-004,7.805372e-005
7.102708e-004,6.346784e-005
7.691005e-004,4.547859e-005
7.127018e-004,2.586868e-005
5.827252e-004,6.582909e-006
4.807861e-004,-1.043395e-005
5.224369e-004,-2.453363e-005
7.230739e-004,-3.814712e-005
9.647135e-004,-5.240886e-005
1.114138e-003,-6.164659e-005
1.129534e-003,-6.375343e-005
1.053201e-003,-6.164659e-005
9.405658e-004,-5.937767e-005
7.810934e-004,-6.002593e-005
4.743035e-004,-6.456376e-005
-8.595638e-005,-7.266703e-005
-9.244822e-004,-8.190475e-005
-1.951004e-003,-8.854943e-005
-2.959538e-003,-8.984595e-005
-3.697910e-003,-8.806324e-005
-3.970506e-003,-8.822530e-005
-3.714927e-003,-9.179074e-005
-3.056291e-003,-9.584237e-005
-2.242884e-003,-9.584237e-005
-1.484256e-003,-9.049421e-005
-8.569009e-004,-7.850138e-005
-3.191683e-004,-6.294311e-005
1.939304e-004,-5.192267e-005
7.008709e-004,-4.819516e-005
1.171671e-003,-4.803310e-005
1.558198e-003,-5.013995e-005
1.823013e-003,-5.078821e-005
1.957528e-003,-4.819516e-005
1.972438e-003,-4.349527e-005
1.876009e-003,-3.409548e-005
1.674561e-003,-2.031993e-005
1.380736e-003,-6.868512e-006
1.026461e-003,2.369210e-006
6.666752e-004,1.257933e-005
3.644232e-004,2.554455e-005
1.586002e-004,4.207521e-005
5.228533e-005,5.925414e-005
2.181705e-005,7.238143e-005
3.818564e-005,7.870197e-005
8.550872e-005,8.032263e-005
1.615174e-004,7.999850e-005
2.663736e-004,7.870197e-005
3.898674e-004,7.691926e-005
5.068786e-004,7.432621e-005
5.859666e-004,7.043664e-005
6.114109e-004,6.897806e-005
5.872631e-004,7.189524e-005
5.297298e-004,7.886404e-005
4.559901e-004,8.712937e-005
3.845193e-004,9.393611e-005
3.187208e-004,9.944633e-005
2.548670e-004,1.041462e-004
1.996027e-004,1.072255e-004
1.705930e-004,1.098185e-004
1.730240e-004,1.151667e-004
1.761032e-004,1.227837e-004
1.321835e-004,1.310491e-004
4.045456e-005,1.381799e-004
-5.354332e-005,1.440143e-004
-1.000561e-004,1.470936e-004
-8.384953e-005,1.496866e-004
-2.242678e-005,1.517934e-004
5.876794e-005,1.564933e-004
1.347766e-004,1.676758e-004
1.832341e-004,1.808031e-004
1.979821e-004,1.892305e-004
1.840444e-004,1.874478e-004
1.524417e-004,1.718895e-004
1.148425e-004,1.440143e-004
8.242948e-005,1.099806e-004
5.682316e-005,8.194328e-005
3.299956e-005,6.687120e-005
-7.100305e-007,6.103685e-005
-5.111234e-005,5.779555e-005
-1.117248e-004,5.828174e-005
-1.726613e-004,6.298164e-005
-2.290600e-004,7.221937e-005
-2.771934e-004,7.967437e-005
-3.165753e-004,8.097089e-005
-3.431540e-004,7.529860e-005
-3.485022e-004,6.735740e-005
-3.215993e-004,6.119892e-005
-2.668213e-004,5.811968e-005
-2.139880e-004,5.471631e-005
-1.938919e-004,4.790957e-005
-2.081536e-004,3.462021e-005
-2.290600e-004,1.711715e-005
-2.263049e-004,-2.238345e-007
-1.893540e-004,-1.351319e-005
-1.318209e-004,-2.129233e-005
-7.671866e-005,-1.983374e-005
-3.247483e-005,-1.027188e-005
-2.006553e-006,3.503668e-006
1.582063e-005,1.808955e-005
3.218923e-005,3.105477e-005
6.962632e-005,4.142695e-005
1.410971e-004,4.790957e-005
2.297469e-004,5.179913e-005
2.991108e-004,5.147500e-005
3.096451e-004,4.596478e-005
2.415776e-004,3.235129e-005
1.088461e-004,1.144487e-005
-4.997788e-005,-1.124428e-005
-1.904885e-004,-3.020592e-005
-2.587180e-004,-4.300908e-005
-2.057227e-004,-4.673658e-005
-1.027188e-005,-4.300908e-005
3.112657e-004,-3.620233e-005
7.143224e-004,-2.728874e-005
1.138610e-003,-1.756482e-005
1.512657e-003,-7.030578e-006
1.770018e-003,9.106226e-007
1.866933e-003,4.313994e-006
1.788169e-003,4.151929e-006
1.543774e-003,4.244267e-007
1.136665e-003,-7.516774e-006
5.307022e-004,-1.270286e-005
-2.833519e-004,-1.221667e-005
-1.184435e-003,-7.354708e-006
-2.017937e-003,-3.141010e-006
-2.659555e-003,5.864920e-007
-3.034088e-003,4.962256e-006
-3.128248e-003,1.468617e-005
-3.004592e-003,2.635488e-005
-2.769273e-003,3.656499e-005
-2.502675e-003,4.353380e-005
-2.204961e-003,4.272347e-005
-1.826214e-003,3.089270e-005
-1.324135e-003,1.322759e-005
-7.052078e-004,1.002961e-007
-4.754691e-005,-4.761663e-006
5.329712e-004,-5.896120e-006
9.410520e-004,-7.678839e-006
1.142824e-003,-1.059601e-005
1.161947e-003,-1.659243e-005
1.061791e-003,-2.631635e-005
9.096113e-004,-3.636440e-005
7.559732e-004,-4.673658e-005
6.245381e-004,-5.305713e-005
5.146578e-004,-5.095028e-005
4.172565e-004,-4.187462e-005
3.331445e-004,-3.020592e-005
2.777182e-004,-1.837515e-005
2.621599e-004,-7.030578e-006
2.833905e-004,5.124321e-006
3.252033e-004,1.533444e-005
3.559958e-004,2.262737e-005
3.389789e-004,2.651694e-005
2.587565e-004,2.716520e-005
1.357490e-004,2.586868e-005
4.151929e-006,2.181705e-005
-1.037836e-004,1.565857e-005
-1.663408e-004,9.338019e-006
-1.726613e-004,5.934647e-006
-1.230693e-004,6.096713e-006
-3.620233e-005,8.203561e-006
6.670914e-005,1.193106e-005
1.762653e-004,1.679302e-005
2.843629e-004,2.133085e-005
3.678265e-004,2.149292e-005
3.948915e-004,1.906194e-005
3.465960e-004,1.954813e-005
2.407673e-004,2.570661e-005
1.244044e-004,3.154097e-005
4.904402e-005,2.959618e-005
5.698522e-005,2.262737e-005
1.597346e-004,1.565857e-005
3.336308e-004,1.014835e-005
5.347539e-004,1.063454e-005
7.250187e-004,1.776542e-005
8.929185e-004,3.283749e-005
1.032619e-003,5.471631e-005
1.096797e-003,7.659513e-005
9.929129e-004,8.907416e-005
6.595443e-004,8.810177e-005
1.462832e-004,8.372600e-005
-3.744326e-004,8.729143e-005
-6.890013e-004,1.049566e-004
-6.514022e-004,1.346145e-004
-2.486699e-004,1.615174e-004
3.710678e-004,1.726999e-004
9.886991e-004,1.624898e-004
1.455124e-003,1.347766e-004
1.731608e-003,9.490851e-005
1.838734e-003,5.293359e-005
1.801945e-003,1.906194e-005
1.629669e-003,2.531276e-006
1.302458e-003,9.106226e-007
8.366818e-004,5.448451e-006
3.512959e-004,6.420843e-006
2.019640e-005,9.106226e-007
-6.504996e-005,-6.544382e-006
1.857574e-005,-1.092015e-005
7.902610e-005,-9.461557e-006
-7.104637e-005,-1.682422e-006
-5.355255e-004,9.986280e-006
-1.316032e-003,2.035846e-005
-2.315003e-003,2.554455e-005
-3.315597e-003,2.359977e-005
-4.003243e-003,1.873781e-005
-4.103562e-003,1.549650e-005
-3.532117e-003,1.841368e-005
-2.473503e-003,2.489629e-005
-1.281350e-003,2.700314e-005
-3.212752e-004,2.214118e-005
1.696206e-004,1.209313e-005
1.602208e-004,-1.196226e-006
-1.874093e-004,-1.594417e-005
-6.125065e-004,-3.085418e-005
-9.113549e-004,-4.057810e-005
-9.961150e-004,-4.057810e-005
-8.554424e-004,-3.490581e-005
-5.293670e-004,-2.712668e-005
-9.762508e-005,-2.275091e-005
3.404375e-004,-1.837515e-005
6.900126e-004,-8.813297e-006
8.943771e-004,6.096713e-006
9.407278e-004,1.808955e-005
8.588848e-004,2.214118e-005
7.148086e-004,1.938607e-005
5.828873e-004,1.257933e-005
5.091476e-004,3.989864e-006
5.081752e-004,-2.978945e-006
5.783495e-004,-3.951337e-006
7.156189e-004,1.396819e-006
9.130146e-004,5.934647e-006
1.145254e-003,6.744974e-006
1.357560e-003,5.286386e-006
1.487213e-003,7.069104e-006
1.499044e-003,1.695509e-005
1.396132e-003,3.316162e-005
1.208946e-003,4.758544e-005
9.898336e-004,5.406805e-005
7.904932e-004,5.082674e-005
6.381517e-004,4.596478e-005
5.187094e-004,4.272347e-005
4.039671e-004,4.450619e-005
2.751252e-004,4.807163e-005
1.274836e-004,5.260946e-005
-2.631635e-005,6.330577e-005
-1.658546e-004,8.340186e-005
-2.758969e-004,1.098185e-004
-3.467194e-004,1.349386e-004
-3.700568e-004,1.517934e-004
-3.429920e-004,1.581140e-004
-2.734659e-004,1.551968e-004
-1.789819e-004,1.457970e-004
-7.509801e-005,1.336421e-004
3.202716e-005,1.239182e-004
1.333180e-004,1.192183e-004
2.154851e-004,1.177597e-004
2.688046e-004,1.120874e-004
3.008935e-004,1.007429e-004
3.349273e-004,8.680524e-005
3.838710e-004,7.724339e-005
4.483731e-004,7.481241e-005
5.227610e-004,7.432621e-005
5.997421e-004,6.751947e-005
6.718612e-004,4.645098e-005
7.237222e-004,1.128280e-005
7.506250e-004,-2.664048e-005
7.626179e-004,-5.500191e-005
7.587283e-004,-6.245691e-005
7.290703e-004,-5.062615e-005
6.823955e-004,-2.696461e-005
6.415550e-004,-7.100305e-007
6.073592e-004,2.181705e-005
5.473950e-004,3.915804e-005
3.940811e-004,5.212327e-005
3.364782e-005,6.119892e-005
-6.504298e-004,6.573675e-005
-1.636273e-003,6.508849e-005
-2.703474e-003,5.374392e-005
-3.556427e-003,3.218923e-005
-3.947168e-003,7.231170e-006
-3.746044e-003,-8.975361e-006
-3.001513e-003,-1.059601e-005
-1.932367e-003,1.720949e-006
-8.299981e-004,2.214118e-005
6.314371e-005,3.883391e-005
6.279415e-004,4.337174e-005
8.830325e-004,3.462021e-005
9.297074e-004,2.149292e-005
8.841670e-004,1.565857e-005
8.289026e-004,2.343770e-005
8.010274e-004,3.834771e-005
7.994067e-004,5.423011e-005
8.078341e-004,6.638501e-005
8.052411e-004,7.205730e-005
7.702350e-004,6.897806e-005
6.948745e-004,6.103685e-005
5.893700e-004,4.758544e-005
4.815964e-004,2.878586e-005
4.081808e-004,6.582909e-006
3.908399e-004,-1.399939e-005
4.148255e-004,-3.150244e-005
4.414042e-004,-4.592625e-005
4.391353e-004,-5.905355e-005
4.031568e-004,-6.829127e-005
3.509718e-004,-7.023605e-005
2.968419e-004,-6.423963e-005
2.498430e-004,-5.078821e-005
2.260194e-004,-3.717472e-005
2.388225e-004,-2.437157e-005
2.843629e-004,-1.254080e-005
3.459477e-004,-3.465141e-006
4.081808e-004,3.665733e-006
4.504799e-004,7.231170e-006
4.459420e-004,4.800190e-006
3.765781e-004,-4.923729e-006
2.412535e-004,-1.869928e-005
4.061663e-005,-3.279896e-005
-2.235498e-004,-4.446767e-005
-5.259637e-004,-5.289506e-005
-8.079573e-004,-6.018800e-005
-1.001139e-003,-6.504996e-005
-1.067586e-003,-6.375343e-005
-1.011349e-003,-5.548810e-005
-8.739178e-004,-4.252288e-005
-7.147696e-004,-2.971972e-005
-5.758798e-004,-2.080613e-005
-4.473620e-004,-1.432352e-005
-2.789761e-004,-5.571990e-006
-2.890940e-005,6.420843e-006
2.945730e-004,2.019640e-005
6.219451e-004,3.283749e-005
8.512677e-004,4.207521e-005
9.044252e-004,4.790957e-005
7.438183e-004,5.309565e-005
3.932708e-004,6.038860e-005
-4.511592e-005,7.302969e-005
-4.245108e-004,9.717742e-005
-6.384369e-004,1.305629e-004
-6.611261e-004,1.655690e-004
-5.258016e-004,1.974959e-004
-2.966413e-004,2.260194e-004
-4.219875e-005,2.459534e-004
1.782101e-004,2.555152e-004
3.290929e-004,2.527601e-004
4.018603e-004,2.378501e-004
4.125566e-004,2.161334e-004
3.790091e-004,1.934442e-004
3.070520e-004,1.736723e-004
2.026820e-004,1.556830e-004
7.481241e-005,1.363972e-004
-6.634648e-005,1.128978e-004
-2.057227e-004,8.712937e-005
-3.322956e-004,6.119892e-005
-4.224039e-004,3.802358e-005
-4.222419e-004,2.003433e-005
-2.857829e-004,5.448451e-006
-1.270286e-005,-4.275467e-006
3.396272e-004,-7.192643e-006
6.853127e-004,-2.978945e-006
9.412140e-004,2.855406e-006
1.069894e-003,6.907039e-006
1.077025e-003,5.448451e-006
9.877268e-004,2.623614e-007
8.233925e-004,-1.010982e-005
5.930975e-004,-2.242678e-005
2.832284e-004,-3.198863e-005
-1.161005e-004,-3.182657e-005
-5.765280e-004,-2.323711e-005
-1.021883e-003,-8.651231e-006
-1.360600e-003,8.851824e-006
-1.551513e-003,2.100672e-005
-1.658476e-003,2.327564e-005
-1.793477e-003,1.808955e-005
-1.995896e-003,8.527692e-006
-2.189726e-003,4.244267e-007
-2.243694e-003,-2.978945e-006
-2.079036e-003,-2.978945e-006
-1.714388e-003,-3.858999e-007
-1.241644e-003,4.313994e-006
-7.727891e-004,1.290346e-005
-3.695707e-004,2.084466e-005
-3.863331e-005,2.878586e-005
2.282883e-004,3.462021e-005
4.423766e-004,3.769945e-005
6.175693e-004,4.061663e-005
7.556491e-004,4.402000e-005
8.360335e-004,4.726130e-005
8.527263e-004,5.082674e-005
8.540228e-004,5.536457e-005
9.149594e-004,5.909207e-005
1.086587e-003,5.925414e-005
1.361774e-003,5.325772e-005
1.693685e-003,4.126489e-005
2.033375e-003,2.214118e-005
2.334655e-003,-1.520357e-006
2.561062e-003,-2.550602e-005
2.671915e-003,-4.673658e-005
2.582130e-003,-6.553616e-005
2.158652e-003,-7.931171e-005
1.354157e-003,-8.158062e-005
3.156415e-004,-6.861539e-005
-6.512401e-004,-4.057810e-005
-1.261254e-003,-2.006553e-006
-1.444063e-003,4.077869e-005
-1.308415e-003,7.951231e-005
-1.041169e-003,1.078737e-004
-8.055263e-004,1.221355e-004
-7.024527e-004,1.218114e-004
-8.243258e-004,1.114392e-004
-1.216524e-003,9.490851e-005
-1.775487e-003,7.562274e-005
-2.260549e-003,5.649903e-005
-2.422939e-003,3.591673e-005
-2.184054e-003,1.582063e-005
-1.653452e-003,2.369210e-006
-9.936841e-004,-5.479652e-007
-3.240303e-004,5.124321e-006
2.863077e-004,1.517237e-005
7.874139e-004,2.068259e-005
1.149468e-003,1.889987e-005
1.365178e-003,1.063454e-005
1.449128e-003,-6.176923e-008
1.434866e-003,-1.302699e-005
1.362747e-003,-2.988179e-005
1.250111e-003,-5.176060e-005
1.075242e-003,-7.639453e-005
8.091307e-004,-9.584237e-005
4.603659e-004,-1.076731e-004
8.712937e-005,-1.115627e-004
-2.229016e-004,-1.104282e-004
-3.948528e-004,-1.058904e-004
-4.018217e-004,-9.794922e-005
-2.741142e-004,-8.287714e-005
-9.892161e-005,-5.694669e-005
2.716520e-005,-1.869928e-005
5.147500e-005,2.846173e-005
-2.874733e-005,7.270556e-005
-1.608306e-004,1.028497e-004
-2.677937e-004,1.172735e-004
-2.927517e-004,1.211631e-004
-2.190120e-004,1.213252e-004
-5.062615e-005,1.221355e-004
2.094887e-004,1.245665e-004
5.467467e-004,1.274836e-004
9.162559e-004,1.281319e-004
1.263076e-003,1.245665e-004
1.536157e-003,1.128978e-004
1.694495e-003,8.891209e-005
1.725612e-003,6.022653e-005
1.643444e-003,3.899597e-005
1.481541e-003,3.040651e-005
1.280741e-003,3.202716e-005
1.064060e-003,3.413401e-005
8.426782e-004,2.522042e-005
6.135177e-004,2.207145e-006
3.713920e-004,-2.939559e-005
1.213252e-004,-5.872941e-005
-1.128592e-004,-7.558420e-005
-2.917793e-004,-7.509801e-005
-3.888564e-004,-5.386745e-005
-4.068456e-004,-1.805102e-005
-3.718396e-004,1.873781e-005
-3.165753e-004,4.142695e-005
-2.663351e-004,4.645098e-005
-2.253325e-004,3.899597e-005
-1.823852e-004,2.781346e-005
-1.345760e-004,1.954813e-005
-9.568031e-005,1.760335e-005
-8.401160e-005,2.295151e-005
-1.010285e-004,3.024445e-005
-1.383035e-004,3.364782e-005
-1.857886e-004,3.575467e-005
-2.476975e-004,4.337174e-005
-3.428299e-004,6.022653e-005
-4.634064e-004,8.810177e-005
-5.582146e-004,1.214872e-004
-5.617801e-004,1.526038e-004
-4.564376e-004,1.798307e-004
-2.930758e-004,1.987924e-004
-1.464067e-004,2.075439e-004
-6.067420e-005,2.073818e-004
-3.441962e-005,1.966855e-004
-3.749886e-005,1.767515e-004
-4.916756e-005,1.483901e-004
-7.623246e-005,1.169494e-004
-1.130213e-004,9.037068e-005
-1.314967e-004,7.108490e-005
-1.045939e-004,5.730935e-005
-1.756482e-005,4.871989e-005
1.177597e-004,4.369587e-005
2.240746e-004,3.899597e-005
1.519555e-004,3.397195e-005
-2.173913e-004,2.700314e-005
-8.382634e-004,1.808955e-005
-1.508566e-003,3.341602e-006
-1.990224e-003,-2.031993e-005
-2.124252e-003,-4.835723e-005
-1.888447e-003,-7.477388e-005
-1.390096e-003,-9.243900e-005
-7.876991e-004,-9.762508e-005
-2.138259e-004,-9.146661e-005
2.577842e-004,-7.947377e-005
5.906665e-004,-6.618442e-005
7.379840e-004,-4.932962e-005
6.253485e-004,-2.907146e-005
1.968476e-004,-9.137427e-006
-5.193189e-004,3.179537e-006
-1.368217e-003,2.045080e-006
-2.114690e-003,-1.156841e-005
-2.517423e-003,-3.020592e-005
-2.430718e-003,-4.414354e-005
-1.877426e-003,-4.462973e-005
-1.024152e-003,-3.101624e-005
-6.715681e-005,-1.221667e-005
8.264717e-004,2.207145e-006
1.547988e-003,1.047248e-005
2.054443e-003,9.986280e-006
2.336762e-003,2.623614e-007
2.419578e-003,-1.351319e-005
2.361558e-003,-2.583015e-005
2.249084e-003,-3.166451e-005
2.178424e-003,-2.890940e-005
2.211809e-003,-1.950961e-005
2.340003e-003,-4.599598e-006
2.462687e-003,1.225519e-005
2.428167e-003,2.603075e-005
2.128021e-003,3.332369e-005
1.581859e-003,3.024445e-005
9.376486e-004,1.808955e-005
3.841952e-004,-1.034161e-006
2.700314e-005,-1.983374e-005
-1.848162e-004,-3.328516e-005
-4.313175e-004,-3.263690e-005
-8.847762e-004,-1.691656e-005
-1.534010e-003,3.989864e-006
-2.186323e-003,2.311357e-005
-2.638486e-003,3.688912e-005
-2.805575e-003,4.483032e-005
-2.738480e-003,5.212327e-005
-2.558426e-003,6.168512e-005
-2.370754e-003,7.124698e-005
-2.189240e-003,7.837785e-005
-1.950680e-003,8.275361e-005
-1.607587e-003,8.680524e-005
-1.179735e-003,9.150514e-005
-7.371347e-004,9.733949e-005
-3.389403e-004,1.062531e-004
-1.869928e-005,1.188942e-004
2.073818e-004,1.338042e-004
3.483787e-004,1.448246e-004
4.584211e-004,1.485521e-004
6.232416e-004,1.449867e-004
8.943771e-004,1.352628e-004
1.241197e-003,1.265113e-004
1.557225e-003,1.237561e-004
1.711512e-003,1.234320e-004
1.628534e-003,1.213252e-004
1.356102e-003,1.143563e-004
1.032619e-003,9.977046e-005
7.911414e-004,7.708132e-005
6.958469e-004,5.406805e-005
7.300427e-004,4.304760e-005
8.269579e-004,4.499239e-005
9.094492e-004,5.260946e-005
9.089630e-004,5.925414e-005
7.627800e-004,6.184718e-005
4.428628e-004,6.071273e-005
4.476060e-006,5.747142e-005
-4.347209e-004,5.893001e-005
-7.726270e-004,7.059870e-005
-9.429576e-004,8.210535e-005
-9.037378e-004,8.226741e-005
-6.800877e-004,7.319175e-005
-3.604950e-004,6.006446e-005
-4.479180e-005,5.374392e-005
1.905270e-004,5.844381e-005
3.036486e-004,7.529860e-005
2.884145e-004,1.015532e-004
1.692965e-004,1.304008e-004
-9.623623e-006,1.532520e-004
-1.870851e-004,1.644345e-004
-3.099306e-004,1.663793e-004
-3.604950e-004,1.624898e-004
-3.530400e-004,1.543865e-004
-3.032860e-004,1.435281e-004
-2.083157e-004,1.287802e-004
-2.858526e-005,1.072255e-004
2.871180e-004,7.367795e-005
7.559732e-004,3.073064e-005
1.302458e-003,-1.302699e-005
1.767425e-003,-4.576419e-005
1.991075e-003,-6.245691e-005
1.896105e-003,-6.764300e-005
1.524650e-003,-6.553616e-005
9.976128e-004,-5.986387e-005
4.465903e-004,-5.581224e-005
-2.323711e-005,-5.775702e-005
-3.570916e-004,-6.456376e-005
-5.505976e-004,-6.991192e-005
-6.257959e-004,-6.926366e-005
-6.108859e-004,-6.278104e-005
-5.204534e-004,-5.500191e-005
-3.687603e-004,-5.095028e-005
-1.822232e-004,-5.208473e-005
1.112074e-005,-5.127441e-005
1.843686e-004,-4.657451e-005
3.229344e-004,-4.090223e-005
4.282769e-004,-3.652646e-005
4.992615e-004,-3.928157e-005
5.261644e-004,-5.176060e-005
5.101199e-004,-7.056018e-005
4.726828e-004,-8.984595e-005
4.503178e-004,-1.041077e-004
4.707380e-004,-1.076731e-004
5.324850e-004,-9.827335e-005
6.034696e-004,-7.914964e-005
6.227554e-004,-5.419158e-005
4.961823e-004,-2.971972e-005
1.517934e-004,-9.947754e-006
-3.726499e-004,6.907039e-006
-9.113549e-004,2.278944e-005
-1.286374e-003,3.753739e-005
-1.422509e-003,5.585077e-005
-1.360276e-003,7.627100e-005
-1.191080e-003,9.166720e-005
-9.847704e-004,9.150514e-005
-7.936954e-004,7.043664e-005
-6.467023e-004,3.218923e-005
-5.387668e-004,-1.205460e-005
-4.739407e-004,-5.419158e-005
-5.091088e-004,-8.692878e-005
-6.964563e-004,-1.067007e-004
-9.982219e-004,-1.118868e-004
-1.296746e-003,-9.665269e-005
-1.471453e-003,-5.856734e-005
-1.478583e-003,-4.437533e-006
-1.338235e-003,5.374392e-005
-1.106319e-003,1.044704e-004
-8.557665e-004,1.368834e-004
-6.154237e-004,1.425557e-004
-3.933942e-004,1.276457e-004
-2.092881e-004,1.046324e-004
-7.039811e-005,8.307774e-005
5.082674e-005,6.606088e-005
2.083542e-004,5.504044e-005
4.337872e-004,4.985435e-005
7.024916e-004,4.936815e-005
9.619584e-004,4.807163e-005
1.168268e-003,4.207521e-005
1.301162e-003,3.543053e-005
1.339895e-003,3.575467e-005
1.271990e-003,4.547859e-005
1.077673e-003,5.779555e-005
7.060570e-004,6.525056e-005
1.534141e-004,6.330577e-005
-4.527101e-004,5.779555e-005
-9.329095e-004,5.212327e-005
-1.177142e-003,4.742337e-005
-1.164501e-003,4.693717e-005
-9.533298e-004,4.693717e-005
-6.475126e-004,4.272347e-005
-3.522297e-004,3.056858e-005
-1.256624e-004,1.241726e-005
3.154097e-005,-8.165034e-006
1.704310e-004,-2.728874e-005
3.640990e-004,-4.300908e-005
6.613270e-004,-5.273300e-005
1.049636e-003,-5.321919e-005
1.417687e-003,-4.560212e-005
1.587532e-003,-3.587821e-005
1.451072e-003,-2.728874e-005
1.073784e-003,-2.534396e-005
6.571133e-004,-3.101624e-005
4.068843e-004,-3.830918e-005
4.012120e-004,-4.462973e-005
5.545259e-004,-5.370539e-005
7.062191e-004,-6.910160e-005
7.290703e-004,-8.547019e-005
5.785116e-004,-9.260106e-005
2.903593e-004,-8.449779e-005
-5.224680e-005,-6.602235e-005
-3.574157e-004,-5.046408e-005
-5.574043e-004,-4.479180e-005
-6.288751e-004,-4.527799e-005
-5.847933e-004,-4.495386e-005
-4.462275e-004,-3.555407e-005
-2.447804e-004,-1.189254e-005
-2.129233e-005,2.538249e-005
1.838824e-004,6.930219e-005
3.464339e-004,1.094944e-004
4.582590e-004,1.375317e-004
5.183853e-004,1.457970e-004
5.394538e-004,1.414213e-004
5.373469e-004,1.315353e-004
5.180612e-004,1.263492e-004
4.822447e-004,1.312111e-004
4.399456e-004,1.448246e-004
4.138531e-004,1.603829e-004
4.245494e-004,1.718895e-004
4.713863e-004,1.756170e-004
5.187094e-004,1.671896e-004
5.042856e-004,1.529279e-004
3.584267e-004,1.412592e-004
6.978838e-005,1.346145e-004
-2.812450e-004,1.312111e-004
-5.924104e-004,1.300767e-004
-7.998540e-004,1.297525e-004
-8.671110e-004,1.300767e-004
-7.833233e-004,1.299146e-004
-5.813900e-004,1.247285e-004
-3.259751e-004,1.158149e-004
-7.882551e-005,1.069013e-004
1.200286e-004,9.912220e-005
2.564876e-004,9.150514e-005
3.171001e-004,8.356393e-005
2.637806e-004,7.351588e-005
7.027457e-005,5.925414e-005
-2.097743e-004,4.450619e-005
-4.700511e-004,3.462021e-005
-6.291992e-004,3.040651e-005
-6.642053e-004,2.910999e-005
-6.105618e-004,2.846173e-005
-5.258016e-004,2.943412e-005
-4.507653e-004,3.656499e-005
-3.867496e-004,5.017848e-005
-2.984240e-004,6.606088e-005
-1.392759e-004,7.691926e-005
9.539470e-005,7.562274e-005
3.649094e-004,6.249544e-005
6.115729e-004,4.434413e-005
7.961654e-004,2.943412e-005
8.836808e-004,1.744128e-005
8.311716e-004,3.989864e-006
6.290759e-004,-1.659243e-005
3.339549e-004,-4.171255e-005
5.406805e-005,-6.294311e-005
-1.070249e-004,-7.444974e-005
-1.092938e-004,-7.558420e-005
1.128280e-005,-6.602235e-005
1.869616e-004,-4.949169e-005
3.593991e-004,-3.134038e-005
4.666864e-004,-1.464765e-005
4.177427e-004,-3.858999e-007
1.151667e-004,9.824214e-006
-4.575721e-004,1.598270e-005
-1.165311e-003,2.133085e-005
-1.774515e-003,2.619281e-005
-2.078063e-003,2.959618e-005
-1.989251e-003,3.251336e-005
-1.574526e-003,3.397195e-005
-9.996805e-004,3.267542e-005
-4.402311e-004,3.316162e-005
-1.124428e-005,3.769945e-005
2.294227e-004,4.547859e-005
2.436845e-004,5.406805e-005
2.927205e-005,6.152305e-005
-3.340783e-004,6.654707e-005
-6.880289e-004,6.751947e-005
-8.682455e-004,6.865393e-005
-7.735994e-004,7.448828e-005
-4.131662e-004,7.999850e-005
9.231547e-005,7.805372e-005
5.721910e-004,7.059870e-005
9.113940e-004,6.249544e-005
1.080752e-003,5.925414e-005
1.100038e-003,6.200925e-005
1.021274e-003,7.140904e-005
9.099354e-004,8.810177e-005
8.196649e-004,1.088461e-004
7.702350e-004,1.278078e-004
7.400908e-004,1.435281e-004
6.786680e-004,1.508210e-004
5.446399e-004,1.443384e-004
3.307136e-004,1.226217e-004
6.152305e-005,9.409818e-005
-2.376495e-004,6.249544e-005
-5.512458e-004,3.364782e-005
-8.812107e-004,1.290346e-005
-1.198859e-003,-1.196226e-006
-1.427695e-003,-1.335112e-005
-1.489928e-003,-2.826113e-005
-1.351848e-003,-4.527799e-005
-1.056565e-003,-6.099833e-005
-6.946736e-004,-6.991192e-005
-3.528779e-004,-7.526008e-005
-7.299116e-005,-7.947377e-005
1.453108e-004,-8.125648e-005
3.266619e-004,-8.028410e-005
4.885652e-004,-7.590833e-005
6.384758e-004,-7.169464e-005
7.762313e-004,-6.796713e-005
8.916220e-004,-6.423963e-005
9.705479e-004,-6.245691e-005
1.010254e-003,-6.294311e-005
1.022409e-003,-6.342930e-005
1.020950e-003,-5.516398e-005
1.011064e-003,-3.587821e-005
9.982612e-004,-8.002969e-006
9.927509e-004,1.776542e-005
9.908061e-004,3.316162e-005
9.822166e-004,3.688912e-005
9.679548e-004,3.170303e-005
9.557999e-004,2.133085e-005
9.426726e-004,1.128280e-005
9.170663e-004,4.476060e-006
8.365197e-004,4.800190e-006
6.196762e-004,9.986280e-006
2.052750e-004,1.760335e-005
-3.350507e-004,2.748933e-005
-8.371290e-004,3.462021e-005
-1.165797e-003,3.802358e-005
-1.273409e-003,3.932010e-005
-1.181518e-003,4.029249e-005
-9.316130e-004,3.769945e-005
-5.476804e-004,3.024445e-005
-3.766092e-005,1.630683e-005
5.580913e-004,1.558884e-006
1.138934e-003,-5.734055e-006
1.591097e-003,-5.085794e-006
1.836789e-003,3.503668e-006
1.827065e-003,2.084466e-005
1.559008e-003,4.402000e-005
1.131155e-003,6.768153e-005
6.919574e-004,9.004655e-005
3.658818e-004,1.132219e-004
2.102990e-004,1.299146e-004
1.775618e-004,1.321835e-004
1.594105e-004,1.172735e-004
4.790957e-005,9.069480e-005
-2.164190e-004,5.860587e-005
-6.314681e-004,3.089270e-005
-1.139543e-003,1.468617e-005
-1.645349e-003,9.500084e-006
-2.015506e-003,1.355172e-005
-2.133814e-003,2.181705e-005
-1.962511e-003,3.073064e-005
-1.574040e-003,4.175108e-005
-1.100161e-003,5.568870e-005
-6.642053e-004,7.059870e-005
-3.470436e-004,7.805372e-005
-1.929195e-004,7.497447e-005
-2.071812e-004,6.168512e-005
-3.381300e-004,4.126489e-005
-4.885265e-004,1.419998e-005
-5.556216e-004,-2.129233e-005
-4.865818e-004,-5.532604e-005
-3.037722e-004,-7.963584e-005
-7.169464e-005,-9.114247e-005
1.430419e-004,-9.438377e-005
2.926282e-004,-9.195280e-005
3.616681e-004,-8.287714e-005
3.608577e-004,-6.796713e-005
3.187208e-004,-5.062615e-005
2.658874e-004,-3.701266e-005
2.276400e-004,-2.923352e-005
2.208333e-004,-2.631635e-005
2.469258e-004,-2.388537e-005
2.953833e-004,-1.610623e-005
3.440029e-004,6.907039e-006
3.743092e-004,4.790957e-005
3.824124e-004,9.928427e-005
3.723644e-004,1.470936e-004
3.581026e-004,1.754550e-004
3.582647e-004,1.777239e-004
3.794953e-004,1.602208e-004
4.161220e-004,1.342904e-004
4.572866e-004,1.114392e-004
4.955340e-004,1.002567e-004
5.303781e-004,1.057669e-004
5.614947e-004,1.222975e-004
5.911527e-004,1.410971e-004
6.303724e-004,1.519555e-004
6.867713e-004,1.513072e-004
7.467354e-004,1.383420e-004
7.810934e-004,1.180839e-004
7.663454e-004,9.879807e-005
6.835299e-004,8.372600e-005
4.956961e-004,7.367795e-005
1.613553e-004,6.022653e-005
-3.032860e-004,4.191315e-005
-8.011505e-004,2.392390e-005
-1.217496e-003,1.338965e-005
-1.447143e-003,1.176900e-005
-1.415540e-003,1.403791e-005
-1.126740e-003,1.873781e-005
-6.818704e-004,2.214118e-005
-2.327876e-004,2.133085e-005
9.053274e-005,1.241726e-005
2.046267e-004,-1.682422e-006
9.620503e-005,-1.659243e-005
-1.483515e-004,-3.263690e-005
-3.624398e-004,-4.787104e-005
-3.877220e-004,-5.970180e-005
-1.715269e-004,-6.359137e-005
1.825858e-004,-5.646050e-005
4.563142e-004,-3.928157e-005
4.331389e-004,-1.254080e-005
-8.165034e-006,1.663096e-005
-8.277292e-004,3.818564e-005
-1.826700e-003,4.661304e-005
-2.753390e-003,4.061663e-005
-3.378154e-003,2.538249e-005
-3.513965e-003,1.176900e-005
-3.078008e-003,7.717366e-006
-2.183730e-003,1.290346e-005
-1.143270e-003,2.424803e-005
-3.653569e-004,3.996836e-005
-1.120489e-004,5.552663e-005
-2.995584e-004,6.541262e-005
-5.763660e-004,6.249544e-005
-5.818761e-004,4.985435e-005
-1.637477e-004,3.478227e-005
5.768909e-004,2.684107e-005
1.373281e-003,3.397195e-005
1.952666e-003,5.439218e-005
2.156059e-003,7.918817e-005
1.996586e-003,9.750155e-005
1.619945e-003,1.044704e-004
1.212512e-003,1.017153e-004
9.152836e-004,9.004655e-005
7.796347e-004,7.529860e-005
7.846588e-004,5.925414e-005
8.593709e-004,4.191315e-005
9.267902e-004,2.149292e-005
9.303557e-004,-2.492749e-006
8.524021e-004,-2.615428e-005
7.182119e-004,-4.284701e-005
5.851563e-004,-4.673658e-005
5.003960e-004,-3.441962e-005
4.806241e-004,-1.286493e-005
5.260024e-004,8.041497e-006
6.221071e-004,1.889987e-005
7.417114e-004,1.630683e-005
8.509436e-004,1.234753e-006
9.216041e-004,-2.080613e-005
9.420243e-004,-4.333321e-005
9.112319e-004,-6.326724e-005
8.266338e-004,-7.688072e-005
6.989262e-004,-8.255302e-005
5.564707e-004,-8.093235e-005
4.339492e-004,-6.974985e-005
3.563199e-004,-4.835723e-005
3.248792e-004,-1.902341e-005
3.146691e-004,9.338019e-006
2.905214e-004,2.505835e-005
2.331502e-004,2.165498e-005
1.542244e-004,1.396819e-006
8.372600e-005,-3.134038e-005
5.163707e-005,-6.958779e-005
6.298164e-005,-1.041077e-004
1.062531e-004,-1.277692e-004
1.592484e-004,-1.350622e-004
2.020337e-004,-1.261486e-004
2.193747e-004,-1.049180e-004
2.068957e-004,-7.558420e-005
1.668655e-004,-4.835723e-005
1.107909e-004,-2.761287e-005
5.244739e-005,-7.840905e-006
4.244267e-007,1.630683e-005
-3.425755e-005,4.645098e-005
-5.483985e-005,8.437427e-005
-7.590833e-005,1.368834e-004
-1.067007e-004,2.043026e-004
-1.477033e-004,2.814457e-004
-1.984297e-004,3.509718e-004
-2.605007e-004,3.934329e-004
-3.360231e-004,3.982948e-004
-4.186764e-004,3.717161e-004
-4.878783e-004,3.287688e-004
-5.126743e-004,2.848491e-004
-4.671339e-004,2.521119e-004
-3.491504e-004,2.383363e-004
-1.974573e-004,2.388225e-004
-6.634648e-005,2.436845e-004
3.341602e-006,2.436845e-004
6.258778e-006,2.315296e-004
-3.198863e-005,2.052750e-004
-7.655659e-005,1.676758e-004
-9.017008e-005,1.302387e-004
-4.900549e-005,1.054428e-004
5.455424e-005,1.000946e-004
1.929580e-004,1.028497e-004
3.039728e-004,9.652916e-005
3.140208e-004,7.675719e-005
1.837203e-004,4.515445e-005
-4.155049e-005,1.014835e-005
-2.499665e-004,-1.853721e-005
-3.186821e-004,-3.895744e-005
-1.864369e-004,-5.273300e-005
1.128978e-004,-6.132245e-005
4.718725e-004,-6.650855e-005
7.768796e-004,-7.023605e-005
9.559620e-004,-7.801519e-005
9.935612e-004,-9.049421e-005
9.084768e-004,-1.054042e-004
7.144844e-004,-1.156143e-004
3.935950e-004,-1.162626e-004
-3.782299e-005,-1.083214e-004
-4.898231e-004,-9.600443e-005
-8.711627e-004,-8.028410e-005
-1.142136e-003,-6.456376e-005
-1.317328e-003,-5.240886e-005
-1.438067e-003,-4.803310e-005
-1.539358e-003,-5.548810e-005
-1.618284e-003,-7.250496e-005
-1.631735e-003,-9.227693e-005
-1.567881e-003,-1.088076e-004
-1.462377e-003,-1.191798e-004
-1.318139e-003,-1.230693e-004
-1.049921e-003,-1.242038e-004
-5.757177e-004,-1.238797e-004
7.205730e-005,-1.216107e-004
7.452769e-004,-1.185315e-004
1.268424e-003,-1.120489e-004
1.522705e-003,-1.021629e-004
1.475706e-003,-9.308726e-005
1.161461e-003,-8.757703e-005
6.297242e-004,-8.336334e-005
-4.673658e-005,-7.704279e-005
-7.129869e-004,-6.991192e-005
-1.210527e-003,-6.180866e-005
-1.471128e-003,-4.884343e-005
-1.555240e-003,-3.020592e-005
-1.583764e-003,-1.010982e-005
-1.614718e-003,6.582909e-006
-1.608398e-003,1.873781e-005
-1.471290e-003,2.554455e-005
-1.147808e-003,2.732727e-005
-6.716603e-004,2.586868e-005
-1.598582e-004,2.278944e-005
2.767458e-004,1.906194e-005
5.888838e-004,1.533444e-005
7.830382e-004,1.419998e-005
8.833566e-004,1.792748e-005
9.144733e-004,3.024445e-005
8.956736e-004,5.017848e-005
8.421920e-004,7.254349e-005
7.652109e-004,9.166720e-005
6.644062e-004,1.052807e-004
5.469088e-004,1.112771e-004
4.216323e-004,1.101426e-004
3.124002e-004,1.057669e-004
2.493568e-004,9.879807e-005
2.592428e-004,9.442231e-005
3.454615e-004,1.017153e-004
4.799758e-004,1.252147e-004
6.148142e-004,1.623277e-004
7.088121e-004,2.051129e-004
7.433321e-004,2.415776e-004
7.266394e-004,2.662116e-004
6.874196e-004,2.725321e-004
6.524133e-004,2.574600e-004
6.297242e-004,2.221298e-004
6.206486e-004,1.715654e-004
6.238898e-004,1.143563e-004
6.337758e-004,6.395403e-005
6.352345e-004,3.380988e-005
6.115729e-004,2.927205e-005
5.516087e-004,4.045456e-005
4.556660e-004,5.633696e-005
3.279585e-004,6.784360e-005
1.817755e-004,7.270556e-005
3.267542e-005,7.221937e-005
-1.131834e-004,6.800567e-005
-2.603386e-004,5.860587e-005
-4.130041e-004,5.131293e-005
-5.604835e-004,4.839576e-005
-6.766843e-004,4.953022e-005
-7.355140e-004,5.601283e-005
-7.267625e-004,6.362990e-005
-6.565882e-004,6.719534e-005
-5.377944e-004,6.541262e-005
-3.767015e-004,5.698522e-005
-1.817370e-004,4.142695e-005
3.218923e-005,2.441009e-005
2.409294e-004,1.063454e-005
4.230909e-004,1.883015e-006
5.603603e-004,-5.896120e-006
6.410688e-004,-1.626830e-005
6.569512e-004,-2.664048e-005
6.081695e-004,-3.425755e-005
5.094717e-004,-4.155049e-005
3.997534e-004,-5.062615e-005
3.198552e-004,-5.905355e-005
2.840387e-004,-6.537409e-005
2.799871e-004,-6.586029e-005
2.850111e-004,-5.743289e-005
2.749631e-004,-3.814712e-005
2.344468e-004,-1.318906e-005
1.490383e-004,7.393235e-006
1.241726e-005,1.744128e-005
-1.605064e-004,2.165498e-005
-3.361852e-004,2.846173e-005
-4.647030e-004,4.175108e-005
-5.039228e-004,5.925414e-005
-4.345588e-004,7.400208e-005
-2.694143e-004,8.113296e-005
-5.127441e-005,7.870197e-005
1.645966e-004,6.978838e-005
3.287688e-004,5.455424e-005
4.175806e-004,3.283749e-005
4.318423e-004,8.527692e-006
4.005638e-004,-1.480971e-005
3.692851e-004,-2.777494e-005
3.660438e-004,-2.583015e-005
3.817642e-004,-9.623623e-006
3.756057e-004,1.225519e-005
3.021901e-004,2.992031e-005
1.211631e-004,3.721326e-005
-1.716889e-004,3.688912e-005
-5.026262e-004,3.267542e-005
-7.184972e-004,2.230324e-005
-6.727948e-004,3.179537e-006
-3.246786e-004,-2.177852e-005
2.196988e-004,-4.657451e-005
7.535422e-004,-6.553616e-005
1.085452e-003,-7.688072e-005
1.115434e-003,-8.222889e-005
8.540228e-004,-8.449779e-005
4.208219e-004,-8.482193e-005
-2.955766e-005,-8.417366e-005
-4.070077e-004,-8.433573e-005
-6.838152e-004,-8.125648e-005
-8.329153e-004,-7.072224e-005
-8.633835e-004,-5.143647e-005
-8.160605e-004,-2.728874e-005
-7.199558e-004,-3.951337e-006
-5.758798e-004,1.663096e-005
-3.661673e-004,3.348575e-005
-1.092938e-004,4.434413e-005
1.101426e-004,4.499239e-005
1.720516e-004,2.992031e-005
4.800190e-006,-6.176923e-008
-3.572537e-004,-3.263690e-005
-7.951541e-004,-5.710876e-005
-1.166932e-003,-6.407756e-005
-1.369027e-003,-4.868136e-005
-1.373403e-003,-1.318906e-005
-1.226572e-003,3.332369e-005
-1.005029e-003,7.772959e-005
-7.680892e-004,1.098185e-004
-5.433046e-004,1.255388e-004
-3.309991e-004,1.286181e-004
-1.154523e-004,1.274836e-004
1.291043e-004,1.291043e-004
4.161220e-004,1.344524e-004
7.240463e-004,1.422316e-004
9.972887e-004,1.495245e-004
1.185933e-003,1.517934e-004
1.270531e-003,1.457970e-004
1.258214e-003,1.334801e-004
1.165351e-003,1.177597e-004
9.937233e-004,1.049566e-004
7.371736e-004,9.636710e-005
3.888950e-004,9.166720e-005
-4.560212e-005,8.421220e-005
-4.891748e-004,6.784360e-005
-7.888335e-004,5.163707e-005
-8.111986e-004,4.369587e-005
-5.217499e-004,4.661304e-005
-6.706447e-006,5.795762e-005
5.608465e-004,6.881599e-005
1.013009e-003,7.335382e-005
1.258862e-003,7.027457e-005
1.284631e-003,6.217131e-005
1.124348e-003,5.293359e-005
8.292268e-004,5.050261e-005
4.415663e-004,5.682316e-005
-1.983374e-005,7.205730e-005
-5.408736e-004,9.004655e-005
-1.054459e-003,1.049566e-004
-1.454112e-003,1.137081e-004
-1.654911e-003,1.158149e-004
-1.641945e-003,1.103047e-004
-1.466753e-003,9.928427e-005
-1.224951e-003,8.421220e-005
-1.006001e-003,6.314371e-005
-8.463667e-004,3.624086e-005
-7.217385e-004,5.610517e-006
-5.941931e-004,-2.485776e-005
-4.410414e-004,-4.932962e-005
-2.546663e-004,-6.310517e-005
-4.155049e-005,-6.440169e-005
1.864754e-004,-5.646050e-005
4.021844e-004,-4.414354e-005
5.524190e-004,-2.680255e-005
5.908285e-004,-8.975361e-006
5.055821e-004,4.313994e-006
3.336308e-004,1.257933e-005
1.279698e-004,1.792748e-005
-4.997788e-005,2.100672e-005
-1.331174e-004,2.278944e-005
-7.137050e-005,2.181705e-005
1.391524e-004,1.744128e-005
4.438352e-004,1.241726e-005
7.559732e-004,7.069104e-006
9.914543e-004,2.623614e-007
1.102793e-003,-7.678839e-006
1.094852e-003,-1.853721e-005
1.016899e-003,-3.134038e-005
9.241971e-004,-4.203669e-005
8.575883e-004,-4.495386e-005
8.280923e-004,-3.749886e-005
8.352232e-004,-2.339917e-005
8.677984e-004,-4.923729e-006
8.987529e-004,1.630683e-005
8.948633e-004,3.834771e-005
8.418679e-004,5.909207e-005
7.425218e-004,7.837785e-005
6.106005e-004,9.863601e-005
4.632831e-004,1.205148e-004
3.198552e-004,1.428798e-004
2.030061e-004,1.642725e-004
1.190562e-004,1.761032e-004
6.265751e-005,1.728619e-004
2.878586e-005,1.607070e-004
2.197911e-005,1.472556e-004
4.774750e-005,1.354248e-004
9.344992e-005,1.263492e-004
1.174356e-004,1.231079e-004
4.029249e-005,1.300767e-004
-1.908126e-004,1.456350e-004
-5.223982e-004,1.650828e-004
-8.329153e-004,1.858272e-004
-1.012322e-003,2.062474e-004
-1.005353e-003,2.208333e-004
-8.163846e-004,2.255332e-004
-4.906334e-004,2.193747e-004
-9.713889e-005,2.028440e-004
2.777182e-004,1.714033e-004
5.448019e-004,1.252147e-004
6.537099e-004,7.108490e-005
6.086557e-004,1.452411e-005
4.446455e-004,-4.138842e-005
2.098128e-004,-9.535618e-005
-5.013995e-005,-1.430034e-004
-2.961551e-004,-1.801163e-004
-4.980884e-004,-1.997262e-004
-6.081308e-004,-2.016710e-004
-5.737729e-004,-1.895161e-004
-3.964735e-004,-1.653684e-004
-1.903264e-004,-1.331174e-004
-1.076731e-004,-1.015147e-004
-1.971332e-004,-7.607040e-005
-3.517435e-004,-6.002593e-005
-3.767015e-004,-5.208473e-005
-1.151281e-004,-5.030201e-005
4.465903e-004,-5.548810e-005
1.168268e-003,-6.537409e-005
1.854292e-003,-7.931171e-005
2.345838e-003,-9.195280e-005
2.569165e-003,-9.535618e-005
2.534969e-003,-8.757703e-005
2.309211e-003,-6.942573e-005
1.981189e-003,-4.819516e-005
1.642958e-003,-3.231276e-005
1.370688e-003,-2.210265e-005
1.199384e-003,-1.464765e-005
1.085452e-003,-6.220251e-006
9.034527e-004,4.151929e-006
4.880791e-004,1.079661e-005
-2.567732e-004,5.610517e-006
-1.242940e-003,-1.270286e-005
-2.246449e-003,-3.911951e-005
-3.067474e-003,-6.310517e-005
-3.608450e-003,-7.331529e-005
-3.841825e-003,-6.764300e-005
-3.742803e-003,-5.013995e-005
-3.286425e-003,-2.761287e-005
-2.552753e-003,-5.247859e-006
-1.743722e-003,1.306552e-005
-1.118474e-003,2.765140e-005
-8.855865e-004,3.753739e-005
-1.086223e-003,4.191315e-005
-1.555078e-003,4.337174e-005
-2.023771e-003,4.418206e-005
-2.273514e-003,4.531652e-005
-2.208202e-003,4.904402e-005
-1.860410e-003,5.455424e-005
-1.359627e-003,5.666109e-005
-8.747281e-004,5.034054e-005
-5.408736e-004,3.737532e-005
-3.810773e-004,2.376183e-005
-3.094444e-004,1.906194e-005
-2.104225e-004,2.813760e-005
-1.837515e-005,4.450619e-005
2.550291e-004,6.136099e-005
5.574430e-004,7.335382e-005
8.259855e-004,7.432621e-005
1.017061e-003,6.735740e-005
1.116083e-003,6.038860e-005
1.139582e-003,5.666109e-005
1.119648e-003,5.520250e-005
1.086749e-003,5.536457e-005
1.057901e-003,5.860587e-005
1.030998e-003,6.735740e-005
9.951819e-004,7.935023e-005
9.444553e-004,9.215340e-005
8.827084e-004,1.043083e-004
8.190167e-004,1.086841e-004
7.613213e-004,1.013911e-004
7.110811e-004,8.550872e-005
6.699165e-004,7.205730e-005
6.434998e-004,6.379197e-005
6.321552e-004,5.747142e-005
6.305345e-004,4.969228e-005
6.324793e-004,4.256141e-005
6.329655e-004,3.980630e-005
6.332896e-004,4.434413e-005
6.310208e-004,5.925414e-005
6.203245e-004,7.870197e-005
5.900182e-004,9.701536e-005
5.444778e-004,1.065772e-004
4.950479e-004,1.023635e-004
4.540453e-004,8.729143e-005
4.266563e-004,6.946425e-005
4.159599e-004,5.568870e-005
4.321665e-004,5.050261e-005
4.822447e-004,5.309565e-005
5.559844e-004,5.649903e-005
6.251864e-004,5.034054e-005
6.530616e-004,3.429608e-005
6.200003e-004,1.484824e-005
5.373469e-004,-3.465141e-006
4.376767e-004,-1.659243e-005
3.571302e-004,-1.837515e-005
3.062417e-004,-8.327101e-006
2.756114e-004,9.986280e-006
2.482223e-004,3.218923e-005
2.031682e-004,5.601283e-005
1.193804e-004,7.627100e-005
-1.886135e-005,8.972242e-005
-2.055606e-004,9.280166e-005
-4.097628e-004,8.502253e-005
-6.084549e-004,6.703327e-005
-7.807303e-004,4.013043e-005
-8.851003e-004,1.014835e-005
-8.789418e-004,-1.545797e-005
-7.538274e-004,-3.020592e-005
-5.442770e-004,-3.085418e-005
-3.123616e-004,-2.356124e-005
-1.107524e-004,-1.302699e-005
3.316162e-005,-2.978945e-006
1.159770e-004,4.638125e-006
1.409351e-004,1.031041e-005
1.182459e-004,1.419998e-005
6.265751e-005,1.533444e-005
-1.140634e-005,1.760335e-005
-8.222889e-005,2.505835e-005
-1.263107e-004,3.705119e-005
-1.208004e-004,4.742337e-005
-6.018800e-005,5.082674e-005
3.980630e-005,4.547859e-005
1.574657e-004,3.332369e-005
2.762596e-004,1.776542e-005
3.895433e-004,-2.238345e-007
4.890515e-004,-2.145439e-005
5.595500e-004,-4.884343e-005
5.929354e-004,-7.720485e-005
5.882355e-004,-9.875954e-005
5.503122e-004,-1.065387e-004
4.835412e-004,-1.002181e-004
3.911640e-004,-7.947377e-005
2.846870e-004,-4.495386e-005
1.720516e-004,-3.951337e-006
5.325772e-005,3.607880e-005
-8.871149e-005,6.962632e-005
-2.711970e-004,9.539470e-005
-4.830163e-004,1.179218e-004
-6.729568e-004,1.398006e-004
-7.864025e-004,1.586002e-004
-8.006643e-004,1.697827e-004
-7.269246e-004,1.722137e-004
-5.941931e-004,1.662173e-004
-4.220798e-004,1.530900e-004
-2.120432e-004,1.363972e-004
3.202716e-005,1.198666e-004
2.866318e-004,1.036600e-004
5.065545e-004,8.891209e-005
6.409067e-004,7.319175e-005
6.611649e-004,5.131293e-005
5.801322e-004,2.278944e-005
4.529109e-004,-7.840905e-006
3.451374e-004,-3.701266e-005
2.927903e-004,-5.970180e-005
2.728562e-004,-7.315322e-005
2.331502e-004,-7.801519e-005
1.449867e-004,-7.688072e-005
2.003433e-005,-6.748093e-005
-1.120489e-004,-5.176060e-005
-2.392702e-004,-3.522994e-005
-3.859392e-004,-1.886135e-005
-6.204477e-004,-4.599598e-006
-9.552746e-004,3.989864e-006
-1.281674e-003,7.717366e-006
-1.462053e-003,9.662150e-006
-1.437095e-003,1.257933e-005
-1.232406e-003,2.133085e-005
-9.256166e-004,3.883391e-005
-5.962999e-004,6.217131e-005
-3.016653e-004,8.421220e-005
-7.833932e-005,1.000946e-004
5.131293e-005,1.117633e-004
9.361198e-005,1.213252e-004
7.983643e-005,1.292664e-004
4.677511e-005,1.349386e-004
2.084466e-005,1.393144e-004
1.306552e-005,1.423936e-004
2.489629e-005,1.423936e-004
5.423011e-005,1.385041e-004
1.005808e-004,1.286181e-004
1.704310e-004,1.120874e-004
2.835526e-004,8.923622e-005
4.611762e-004,6.265751e-005
6.937401e-004,3.656499e-005
9.206317e-004,1.501031e-005
1.040398e-003,3.179537e-006
9.355418e-004,5.864920e-007
5.634395e-004,4.151929e-006
2.133085e-005,9.338019e-006
-4.830163e-004,1.193106e-005
-7.633893e-004,8.689757e-006
-7.591756e-004,9.106226e-007
-5.488148e-004,-1.335112e-005
-2.838381e-004,-3.879538e-005
-9.746302e-005,-7.347736e-005
-4.284701e-005,-1.102662e-004
-8.871149e-005,-1.426792e-004
-1.629374e-004,-1.637477e-004
-2.036158e-004,-1.687718e-004
-1.935677e-004,-1.571030e-004
-1.509446e-004,-1.293899e-004
-8.579432e-005,-9.568031e-005
4.790957e-005,-6.634648e-005
3.229344e-004,-4.317114e-005
7.663454e-004,-2.631635e-005
1.315099e-003,-1.383732e-005
1.835816e-003,-5.734055e-006
2.202896e-003,-2.492749e-006
2.352320e-003,-1.034161e-006
2.275663e-003,5.934647e-006
2.004041e-003,2.295151e-005
1.621079e-003,4.871989e-005
1.222074e-003,7.659513e-005
8.402472e-004,1.009049e-004
4.333010e-004,1.166253e-004
-7.169464e-005,1.200286e-004
-7.136352e-004,1.143563e-004
-1.450222e-003,1.072255e-004
-2.152775e-003,1.038221e-004
-2.636703e-003,1.081979e-004
-2.761008e-003,1.166253e-004
-2.539302e-003,1.221355e-004
-2.133976e-003,1.200286e-004
-1.712930e-003,1.124116e-004
-1.346338e-003,1.072255e-004
-1.027394e-003,1.059289e-004
-7.491275e-004,1.073875e-004
-5.504355e-004,1.094944e-004
-4.903093e-004,1.138701e-004
-5.700454e-004,1.206769e-004
-7.092595e-004,1.253768e-004
-7.891576e-004,1.224596e-004
-7.259522e-004,1.085220e-004
-5.079744e-004,8.583285e-005
-1.867610e-004,6.411610e-005
1.603829e-004,4.726130e-005
4.564763e-004,3.624086e-005
6.738060e-004,3.170303e-005
8.266338e-004,3.154097e-005
9.444553e-004,3.251336e-005
1.047205e-003,3.121684e-005
1.127427e-003,2.781346e-005
1.159678e-003,2.700314e-005
1.117865e-003,3.186510e-005
9.942094e-004,3.915804e-005
8.091307e-004,4.515445e-005
6.138418e-004,5.179913e-005
4.576108e-004,6.071273e-005
3.657197e-004,7.027457e-005
3.315239e-004,7.724339e-005
3.224483e-004,7.675719e-005
3.091589e-004,6.897806e-005
2.830664e-004,5.747142e-005
2.485465e-004,4.304760e-005
2.243987e-004,2.586868e-005
2.281262e-004,1.419998e-005
2.654012e-004,1.241726e-005
3.230965e-004,1.987226e-005
3.773884e-004,3.073064e-005
4.073705e-004,4.272347e-005
4.075326e-004,5.325772e-005
3.880847e-004,6.444023e-005
3.644232e-004,8.161915e-005
3.524303e-004,1.064151e-004
3.649094e-004,1.312111e-004
4.101256e-004,1.470936e-004
4.846757e-004,1.451487e-004
5.786736e-004,1.297525e-004
6.757508e-004,1.096565e-004
7.553250e-004,8.988448e-005
7.945448e-004,7.351588e-005
7.750969e-004,5.925414e-005
6.922815e-004,4.126489e-005
5.475571e-004,1.598270e-005
3.410858e-004,-1.416145e-005
7.448828e-005,-4.171255e-005
-2.387839e-004,-6.245691e-005
-5.577284e-004,-7.623246e-005
-8.102261e-004,-8.028410e-005
-9.218892e-004,-7.542214e-005
-8.583595e-004,-6.634648e-005
-6.256338e-004,-6.018800e-005
-2.519113e-004,-6.035006e-005
1.953890e-004,-6.618442e-005
6.266450e-004,-7.769105e-005
9.648756e-004,-9.389758e-005
1.168754e-003,-1.073490e-004
1.221587e-003,-1.102662e-004
1.126293e-003,-9.973194e-005
9.078285e-004,-7.736692e-005
6.096281e-004,-5.257093e-005
2.798251e-004,-3.425755e-005
-4.673658e-005,-3.101624e-005
-3.282440e-004,-4.511592e-005
-5.298532e-004,-6.942573e-005
-6.526987e-004,-9.535618e-005
-7.278970e-004,-1.190177e-004
-7.643617e-004,-1.384655e-004
-7.570687e-004,-1.473791e-004
-7.274108e-004,-1.421931e-004
-7.243315e-004,-1.203142e-004
-7.705201e-004,-9.033214e-005
-8.455564e-004,-6.229485e-005
-9.317751e-004,-4.365734e-005
-1.016373e-003,-3.782299e-005
-1.073096e-003,-4.479180e-005
-1.076175e-003,-5.921561e-005
-1.026097e-003,-7.428768e-005
-9.580297e-004,-8.060822e-005
-9.332337e-004,-6.942573e-005
-1.014266e-003,-3.798505e-005
-1.230623e-003,1.225519e-005
-1.522017e-003,6.946425e-005
-1.732540e-003,1.229458e-004
-1.704178e-003,1.699447e-004
-1.380048e-003,2.119197e-004
-8.186535e-004,2.462775e-004
-1.428413e-004,2.666978e-004
5.237334e-004,2.705873e-004
1.078808e-003,2.566497e-004
1.448965e-003,2.292607e-004
1.594014e-003,1.947408e-004
1.518006e-003,1.573037e-004
1.268262e-003,1.206769e-004
9.193352e-004,8.567078e-005
5.530672e-004,5.341978e-005
2.378501e-004,2.408596e-005
1.711715e-005,-1.196226e-006
-9.114247e-005,-2.161646e-005
-1.045939e-004,-3.766092e-005
-5.921561e-005,-4.770897e-005
1.112074e-005,-5.095028e-005
8.405013e-005,-4.754691e-005
1.419075e-004,-4.106429e-005
1.751308e-004,-3.441962e-005
1.845306e-004,-2.809907e-005
1.824238e-004,-2.420950e-005
1.811273e-004,-2.599222e-005
1.919856e-004,-3.474375e-005
2.209953e-004,-4.300908e-005
2.657254e-004,-4.349527e-005
3.183966e-004,-2.826113e-005
3.700955e-004,2.207145e-006
4.141773e-004,3.786152e-005
4.488592e-004,6.800567e-005
4.655520e-004,8.793970e-005
4.610142e-004,9.896014e-005
4.438352e-004,1.060910e-004
4.295734e-004,1.137081e-004
4.133669e-004,1.242423e-004
3.569682e-004,1.375317e-004
2.229401e-004,1.508210e-004
4.531652e-005,1.610312e-004
-8.660465e-005,1.650828e-004
-1.128592e-004,1.592484e-004
-2.615428e-005,1.410971e-004
1.436902e-004,1.151667e-004
3.577785e-004,9.296372e-005
5.684635e-004,8.534666e-005
7.326358e-004,9.247753e-005
8.300371e-004,1.052807e-004
8.566158e-004,1.146805e-004
8.032963e-004,1.171115e-004
6.511168e-004,1.130598e-004
3.611819e-004,1.039842e-004
-1.028112e-004,9.458438e-005
-6.757120e-004,8.405013e-005
-1.209393e-003,7.367795e-005
-1.574526e-003,6.444023e-005
-1.724761e-003,6.022653e-005
-1.692834e-003,5.552663e-005
-1.548596e-003,4.985435e-005
-1.352497e-003,4.353380e-005
-1.139867e-003,3.624086e-005
-9.230236e-004,3.186510e-005
-6.941874e-004,3.170303e-005
-4.434724e-004,3.753739e-005
-1.692580e-004,5.034054e-005
1.208390e-004,6.687120e-005
3.981328e-004,8.242948e-005
6.216210e-004,9.247753e-005
7.613213e-004,9.182927e-005
8.219338e-004,8.226741e-005
8.306854e-004,6.687120e-005
8.217717e-004,4.547859e-005
8.196649e-004,1.776542e-005
8.261476e-004,-1.432352e-005
8.259855e-004,-4.106429e-005
7.819037e-004,-5.451571e-005
6.425274e-004,-5.143647e-005
3.645853e-004,-3.571614e-005
-2.534396e-005,-1.513384e-005
-4.073319e-004,1.883015e-006
-6.194753e-004,1.257933e-005
-5.570801e-004,1.954813e-005
-2.323013e-004,2.619281e-005
2.318537e-004,3.559260e-005
6.572753e-004,4.855782e-005
9.126905e-004,5.763348e-005
9.690893e-004,5.341978e-005
8.729845e-004,3.867184e-005
7.045984e-004,1.873781e-005
5.251920e-004,-1.358292e-006
3.675024e-004,-1.934754e-005
2.363915e-004,-3.166451e-005
1.247285e-004,-3.733679e-005
3.073064e-005,-3.782299e-005
-3.279896e-005,-4.057810e-005
-4.787104e-005,-4.819516e-005
-1.173047e-005,-5.694669e-005
5.617490e-005,-6.197072e-005
1.318594e-004,-6.375343e-005
2.086784e-004,-6.245691e-005
3.127243e-004,-5.354332e-005
4.762483e-004,-3.393342e-005
6.974676e-004,-1.140634e-005
9.292212e-004,6.096713e-006
1.094852e-003,1.744128e-005
1.122403e-003,2.586868e-005
9.995577e-004,3.024445e-005
7.755831e-004,2.667901e-005
5.303781e-004,1.419998e-005
3.021901e-004,2.045080e-006
4.272347e-005,-3.465141e-006
-3.478539e-004,-5.479652e-007
-9.176754e-004,8.365628e-006
-1.596729e-003,1.792748e-005
-2.225705e-003,2.619281e-005
-2.647561e-003,3.154097e-005
-2.797959e-003,3.397195e-005
-2.746584e-003,3.283749e-005
-2.605262e-003,2.862379e-005
-2.389067e-003,1.841368e-005
-2.020854e-003,8.851824e-006
-1.419268e-003,5.772582e-006
-6.016482e-004,1.128280e-005
2.979764e-004,2.311357e-005
1.091773e-003,4.045456e-005
1.630479e-003,5.698522e-005
1.832251e-003,6.460230e-005
1.687688e-003,6.071273e-005
1.262914e-003,4.596478e-005
7.029778e-004,2.489629e-005
2.090025e-004,1.072688e-006
-7.574627e-005,-2.064406e-005
-1.571030e-004,-3.555407e-005
-1.405724e-004,-4.268495e-005
-1.021629e-004,-4.074016e-005
-3.782299e-005,-3.101624e-005
9.588090e-005,-1.205460e-005
3.132105e-004,1.582063e-005
5.825632e-004,5.001641e-005
8.332784e-004,8.194328e-005
9.827028e-004,1.007429e-004
9.600137e-004,9.831188e-005
7.383081e-004,7.513654e-005
3.534027e-004,4.110282e-005
-9.859748e-005,7.555300e-006
-4.932265e-004,-1.059601e-005
-7.178489e-004,-7.030578e-006
-7.175248e-004,9.338019e-006
-5.321222e-004,3.073064e-005
-2.587180e-004,5.471631e-005
2.149292e-005,7.999850e-005
2.723700e-004,1.038221e-004
5.016925e-004,1.169494e-004
7.264772e-004,1.140322e-004
9.473725e-004,1.000946e-004
1.140393e-003,8.453633e-005
1.268424e-003,7.432621e-005
1.295976e-003,7.351588e-005
1.197602e-003,8.210535e-005
9.438071e-004,1.000946e-004
5.059062e-004,1.227837e-004
-9.179074e-005,1.420695e-004
-7.551239e-004,1.483901e-004
-1.386206e-003,1.375317e-004
-1.912270e-003,1.119254e-004
-2.264439e-003,7.870197e-005
-2.365892e-003,5.001641e-005
-2.183568e-003,3.332369e-005
-1.742102e-003,2.716520e-005
-1.099026e-003,2.441009e-005
-3.442885e-004,1.808955e-005
3.760919e-004,8.041497e-006
9.041010e-004,2.623614e-007
1.143148e-003,1.234753e-006
1.042829e-003,1.112074e-005
6.264829e-004,2.457216e-005
4.628891e-005,3.688912e-005
-4.792888e-004,4.596478e-005
-7.964506e-004,4.223728e-005
-8.622491e-004,2.230324e-005
-7.274108e-004,-8.489165e-006
-4.760475e-004,-3.976777e-005
-1.859507e-004,-6.051213e-005
7.853991e-005,-6.261898e-005
2.752873e-004,-4.803310e-005
3.863020e-004,-2.566809e-005
4.132048e-004,-4.923729e-006
3.773884e-004,5.772582e-006
3.219621e-004,4.962256e-006
2.987867e-004,-4.923729e-006
3.579406e-004,-1.869928e-005
5.130371e-004,-3.231276e-005
7.263152e-004,-3.960571e-005
9.379727e-004,-3.798505e-005
1.104090e-003,-3.441962e-005
1.199547e-003,-3.506787e-005
1.200843e-003,-4.041603e-005
1.101497e-003,-4.479180e-005
9.253316e-004,-4.495386e-005
7.133500e-004,-4.203669e-005
5.018546e-004,-3.895744e-005
3.282826e-004,-3.701266e-005
2.290986e-004,-3.571614e-005
2.240746e-004,-3.539201e-005
3.046211e-004,-3.425755e-005
4.239012e-004,-3.296103e-005
5.177370e-004,-3.474375e-005
5.391297e-004,-4.106429e-005
5.016925e-004,-4.803310e-005
4.608521e-004,-5.208473e-005
4.812723e-004,-4.479180e-005
5.765667e-004,-1.934754e-005
6.956849e-004,1.938607e-005
7.468975e-004,6.346784e-005
6.519272e-004,1.038221e-004
3.922984e-004,1.344524e-004
1.906194e-005,1.516314e-004
-3.749188e-004,1.564933e-004
-7.050458e-004,1.537382e-004
-9.500885e-004,1.480659e-004
-1.185083e-003,1.422316e-004
-1.509538e-003,1.385041e-004
-1.917619e-003,1.346145e-004
-2.263466e-003,1.313732e-004
-2.348226e-003,1.268354e-004
-2.059426e-003,1.195424e-004
-1.423157e-003,1.098185e-004
-5.732867e-004,1.020394e-004
3.237448e-004,9.750155e-005
1.121269e-003,9.296372e-005
1.750084e-003,8.259154e-005
2.149090e-003,6.622294e-005
2.246167e-003,4.985435e-005
1.998855e-003,4.077869e-005
1.446696e-003,3.640293e-005
7.193464e-004,3.867184e-005
-6.220251e-006,5.228533e-005
-5.697213e-004,7.789165e-005
-8.959587e-004,1.049566e-004
-9.940082e-004,1.221355e-004
-9.296683e-004,1.260251e-004
-7.849439e-004,1.190562e-004
-6.270924e-004,1.086841e-004
-4.924161e-004,9.879807e-005
-3.888564e-004,9.150514e-005
-3.112271e-004,8.421220e-005
-2.467252e-004,7.238143e-005
-1.767129e-004,5.552663e-005
-8.514606e-005,3.656499e-005
3.737532e-005,1.938607e-005
1.905270e-004,7.555300e-006
3.584267e-004,-2.168618e-006
5.136854e-004,-1.416145e-005
6.217830e-004,-2.809907e-005
6.446342e-004,-3.847125e-005
5.422089e-004,-4.219875e-005
2.950592e-004,-3.814712e-005
-5.694669e-005,-2.890940e-005
-4.175420e-004,-1.513384e-005
-6.880289e-004,1.002961e-007
-8.053642e-004,1.436204e-005
-7.697098e-004,2.522042e-005
-6.321164e-004,2.943412e-005
-4.744269e-004,2.748933e-005
-3.729740e-004,2.084466e-005
-3.664914e-004,1.322759e-005
-4.491447e-004,6.096713e-006
-5.903036e-004,2.693341e-006
-7.460483e-004,4.244267e-007
-8.614387e-004,-3.303075e-006
-8.847762e-004,-8.975361e-006
-7.791096e-004,-1.480971e-005
-5.129984e-004,-1.950961e-005
-7.882551e-005,-2.858526e-005
4.743035e-004,-4.236081e-005
1.047529e-003,-5.338126e-005
1.526919e-003,-5.597430e-005
1.814099e-003,-5.386745e-005
1.865636e-003,-4.949169e-005
1.703733e-003,-4.479180e-005
1.391108e-003,-3.847125e-005
9.971267e-004,-3.004385e-005
5.849942e-004,-1.788895e-005
2.057612e-004,-6.220251e-006
-1.000561e-004,1.558884e-006
-3.053928e-004,3.503668e-006
-4.188385e-004,1.072688e-006
-4.757234e-004,-7.100305e-007
-5.050572e-004,5.610517e-006
-5.167259e-004,2.635488e-005
-5.125122e-004,5.893001e-005
-4.788027e-004,9.442231e-005
-3.901529e-004,1.211631e-004
-2.400805e-004,1.313732e-004
-5.402952e-005,1.271595e-004
1.474177e-004,1.128978e-004
3.610198e-004,9.182927e-005
5.746220e-004,7.108490e-005
7.697488e-004,5.730935e-005
9.352176e-004,5.455424e-005
1.062601e-003,6.071273e-005
1.134072e-003,7.011251e-005
1.142661e-003,7.918817e-005
1.088045e-003,8.340186e-005
9.741134e-004,8.178122e-005
8.107513e-004,7.481241e-005
6.157866e-004,6.654707e-005
4.094774e-004,6.038860e-005
1.974959e-004,5.779555e-005
-3.198863e-005,5.682316e-005
-3.066893e-004,5.601283e-005
-6.505919e-004,5.455424e-005
-1.040035e-003,5.163707e-005
-1.405978e-003,4.693717e-005
-1.709527e-003,4.191315e-005
-1.975476e-003,3.640293e-005
-2.219708e-003,3.186510e-005
-2.380477e-003,2.927205e-005
-2.349523e-003,3.024445e-005
-2.061533e-003,3.559260e-005
-1.549568e-003,3.932010e-005
-9.262649e-004,3.640293e-005
-3.297026e-004,2.635488e-005
1.339663e-004,1.225519e-005
4.273045e-004,9.106226e-007
5.840217e-004,-2.816880e-006
6.642442e-004,-1.196226e-006
7.144844e-004,3.989864e-006
7.470596e-004,1.533444e-005
7.295565e-004,3.186510e-005
6.075212e-004,4.904402e-005
3.843572e-004,5.860587e-005
1.291043e-004,5.860587e-005
-8.579432e-005,5.390598e-005
-2.216050e-004,4.823369e-005
-2.567732e-004,4.515445e-005
-1.898402e-004,4.531652e-005
-6.618442e-005,4.969228e-005
4.645098e-005,5.536457e-005
1.041462e-004,6.055066e-005
1.041462e-004,6.217131e-005
7.529860e-005,6.038860e-005
5.585077e-005,5.633696e-005
6.541262e-005,4.839576e-005
9.766362e-005,3.818564e-005
1.409351e-004,2.927205e-005
1.911753e-004,2.651694e-005
2.542187e-004,3.105477e-005
3.300653e-004,4.110282e-005
4.112601e-004,5.293359e-005
4.840274e-004,6.184718e-005
5.342677e-004,6.589881e-005
5.584154e-004,6.395403e-005
5.542017e-004,5.828174e-005
5.211404e-004,5.050261e-005
4.705760e-004,3.915804e-005
4.156358e-004,2.230324e-005
3.650714e-004,3.827798e-006
3.193690e-004,-1.464765e-005
2.783665e-004,-2.971972e-005
2.402811e-004,-3.636440e-005
2.008992e-004,-3.312309e-005
1.459591e-004,-2.323711e-005
6.492643e-005,-1.108221e-005
-4.057810e-005,2.207145e-006
-1.608306e-004,1.614476e-005
-2.861070e-004,2.748933e-005
-4.031182e-004,3.510640e-005
-4.833405e-004,3.640293e-005
-4.810716e-004,3.105477e-005
-3.473677e-004,2.197911e-005
-4.317114e-005,1.419998e-005
4.213081e-004,1.144487e-005
9.454277e-004,1.355172e-005
1.386894e-003,1.355172e-005
1.636475e-003,6.420843e-006
1.664999e-003,-6.058186e-006
1.524164e-003,-1.772689e-005
1.295165e-003,-2.339917e-005
1.055146e-003,-2.339917e-005
8.485126e-004,-2.356124e-005
6.836920e-004,-2.242678e-005
5.524190e-004,-1.805102e-005
4.404318e-004,-9.623623e-006
3.274723e-004,-7.100305e-007
1.953890e-004,5.286386e-006
4.077869e-005,1.558884e-006
-1.501342e-004,-1.237873e-005
-4.254832e-004,-3.134038e-005
-8.039056e-004,-5.192267e-005
-1.200479e-003,-7.137050e-005
-1.496897e-003,-8.320127e-005
-1.619580e-003,-8.368747e-005
-1.546489e-003,-7.088431e-005
-1.300150e-003,-4.851930e-005
-9.392301e-004,-1.999580e-005
-5.424943e-004,1.209313e-005
-1.898402e-004,4.158902e-005
6.606088e-005,6.265751e-005
2.143507e-004,7.513654e-005
2.786906e-004,8.518459e-005
3.028383e-004,9.977046e-005
3.196932e-004,1.229458e-004
3.425443e-004,1.488763e-004
3.696093e-004,1.654069e-004
3.875985e-004,1.647587e-004
3.799814e-004,1.438522e-004
3.490270e-004,1.114392e-004
3.075383e-004,7.935023e-005
2.715597e-004,5.649903e-005
2.503292e-004,4.499239e-005
2.441707e-004,4.304760e-005
2.402811e-004,4.580272e-005
2.250470e-004,4.953022e-005
1.866375e-004,5.244739e-005
1.041462e-004,5.212327e-005
-5.581224e-005,4.661304e-005
-3.070135e-004,3.688912e-005
-6.018102e-004,2.586868e-005
-8.270809e-004,1.160693e-005
-8.578733e-004,-4.923729e-006
-6.552917e-004,-1.805102e-005
-3.319715e-004,-2.566809e-005
-9.065627e-005,-3.198863e-005
-6.440169e-005,-4.057810e-005
-2.485079e-004,-5.078821e-005
-5.384427e-004,-6.164659e-005
-7.867267e-004,-7.282909e-005
-8.773212e-004,-7.720485e-005
-7.758683e-004,-6.780506e-005
-5.335807e-004,-4.722277e-005
-2.476975e-004,-2.194059e-005
-2.654814e-006,1.720949e-006
1.637863e-004,1.808955e-005
2.644288e-004,2.538249e-005
3.331445e-004,2.635488e-005
3.981328e-004,2.667901e-005
4.640934e-004,2.716520e-005
5.075269e-004,3.105477e-005
4.968306e-004,3.397195e-005
4.114221e-004,3.364782e-005
2.639427e-004,3.008238e-005
1.054428e-004,2.424803e-005
-5.734055e-006,1.711715e-005
-2.437157e-005,1.501031e-005
7.254349e-005,2.392390e-005
2.603772e-004,4.110282e-005
4.709001e-004,6.087479e-005
6.235657e-004,7.805372e-005
6.613270e-004,9.263960e-005
5.538776e-004,1.007429e-004
2.760976e-004,1.033359e-004
-1.572651e-004,1.017153e-004
-6.546435e-004,1.031738e-004
-1.074717e-003,1.106288e-004
-1.290102e-003,1.214872e-004
-1.248289e-003,1.305629e-004
-9.828256e-004,1.372075e-004
-5.859278e-004,1.396385e-004
-1.702303e-004,1.386661e-004
1.833962e-004,1.352628e-004
4.357320e-004,1.342904e-004
5.828873e-004,1.368834e-004
6.397723e-004,1.443384e-004
6.227554e-004,1.508210e-004
5.503122e-004,1.483901e-004
4.409180e-004,1.328318e-004
3.266619e-004,1.093323e-004
2.470879e-004,8.777764e-005
2.222919e-004,7.043664e-005
2.347709e-004,6.022653e-005
2.159713e-004,5.893001e-005
6.930219e-005,6.411610e-005
-2.360288e-004,7.238143e-005
-6.016482e-004,8.097089e-005
-8.569009e-004,8.907416e-005
-8.771591e-004,9.733949e-005
-6.776568e-004,1.052807e-004
-3.917736e-004,1.120874e-004
-1.613168e-004,1.099806e-004
-5.176060e-005,8.810177e-005
-2.307504e-005,4.385793e-005
2.943412e-005,-1.480971e-005
1.970097e-004,-6.910160e-005
4.952099e-004,-1.065387e-004
8.462437e-004,-1.248521e-004
1.129858e-003,-1.271210e-004
1.246221e-003,-1.169109e-004
1.148658e-003,-9.438377e-005
8.601813e-004,-6.440169e-005
4.678209e-004,-3.296103e-005
7.659513e-005,-5.734055e-006
-2.303566e-004,1.403791e-005
-4.031182e-004,2.813760e-005
-4.319658e-004,3.688912e-005
-3.400748e-004,3.834771e-005
-2.091260e-004,3.186510e-005
-1.621271e-004,1.711715e-005
-2.689281e-004,-2.168618e-006
-5.243430e-004,-2.339917e-005
-8.718109e-004,-4.446767e-005
-1.194645e-003,-6.391550e-005
-1.346176e-003,-8.401160e-005
-1.233379e-003,-1.029732e-004
-8.787797e-004,-1.178833e-004
-4.108973e-004,-1.246900e-004
8.527692e-006,-1.188556e-004
2.722080e-004,-1.000561e-004
3.869503e-004,-7.023605e-005
4.336251e-004,-3.134038e-005
4.916445e-004,1.176900e-005
5.976353e-004,5.293359e-005
7.379840e-004,8.810177e-005
8.655294e-004,1.137081e-004
9.321384e-004,1.261871e-004
9.128526e-004,1.245665e-004
8.160995e-004,1.127357e-004
6.785059e-004,9.344992e-005
5.397779e-004,6.946425e-005
4.217943e-004,3.948217e-005
3.205035e-004,8.851824e-006
2.180782e-004,-1.869928e-005
1.195424e-004,-3.587821e-005
6.492643e-005,-3.814712e-005
8.907416e-005,-2.534396e-005
1.939304e-004,-4.437533e-006
3.428685e-004,1.695509e-005
4.903480e-004,4.013043e-005
6.020110e-004,6.427816e-005
6.648924e-004,8.453633e-005
6.888781e-004,9.960840e-005
6.762370e-004,1.072255e-004
6.198382e-004,1.033359e-004
5.243817e-004,8.437427e-005
4.096394e-004,5.601283e-005
3.054314e-004,3.024445e-005
2.545429e-004,1.679302e-005
2.743148e-004,1.322759e-005
3.067279e-004,1.679302e-005
2.563256e-004,2.246531e-005
6.298164e-005,2.846173e-005
-2.797865e-004,3.737532e-005
-7.547998e-004,4.920609e-005
-1.307442e-003,6.022653e-005
-1.798663e-003,6.298164e-005
-2.026365e-003,5.471631e-005
-1.830427e-003,4.158902e-005
-1.212472e-003,3.089270e-005
-3.400748e-004,2.441009e-005
5.112544e-004,1.630683e-005
1.074594e-003,3.827798e-006
1.216401e-003,-7.516774e-006
9.344073e-004,-1.189254e-005
3.389789e-004,-8.165034e-006
-3.324577e-004,4.151929e-006
-8.035815e-004,2.003433e-005
-9.382577e-004,3.283749e-005
-7.742476e-004,3.915804e-005
-4.507653e-004,4.029249e-005
-1.188556e-004,4.045456e-005
1.269974e-004,4.320967e-005
2.679943e-004,4.758544e-005
3.342790e-004,5.196120e-005
3.697713e-004,5.520250e-005
4.104497e-004,5.520250e-005
4.807861e-004,5.455424e-005
5.864528e-004,5.698522e-005
7.146465e-004,6.022653e-005
8.347370e-004,5.795762e-005
9.094492e-004,4.888196e-005
9.206317e-004,3.591673e-005
8.752534e-004,2.635488e-005
7.977861e-004,1.971020e-005
7.083260e-004,1.468617e-005
6.013628e-004,1.014835e-005
4.603659e-004,3.341602e-006
2.983005e-004,-6.544382e-006
1.517934e-004,-1.448558e-005
7.238143e-005,-1.529591e-005
9.296372e-005,-1.189254e-005
1.929580e-004,-7.516774e-006
2.892249e-004,-3.141010e-006
2.688046e-004,2.369210e-006
3.899597e-005,1.031041e-005
-4.518998e-004,2.019640e-005
-1.189945e-003,3.186510e-005
-2.083573e-003,4.580272e-005
-2.969424e-003,5.828174e-005
-3.653828e-003,6.281957e-005
-4.025608e-003,6.038860e-005
-4.079738e-003,5.374392e-005
-3.849604e-003,4.774750e-005
-3.376371e-003,3.980630e-005
-2.708660e-003,2.522042e-005
-1.923291e-003,8.041497e-006
-1.132412e-003,-1.358292e-006
-4.546549e-004,-5.479652e-007
6.816773e-005,3.989864e-006
5.031511e-004,1.112074e-005
9.344073e-004,2.068259e-005
1.376198e-003,3.186510e-005
1.783469e-003,4.256141e-005
2.117973e-003,5.179913e-005
2.366582e-003,5.811968e-005
2.512766e-003,6.022653e-005
2.523300e-003,5.779555e-005
2.377603e-003,4.920609e-005
2.096742e-003,3.932010e-005
1.743439e-003,3.688912e-005
1.397104e-003,4.483032e-005
1.117865e-003,6.168512e-005
9.241971e-004,8.550872e-005
8.075100e-004,1.111150e-004
7.468975e-004,1.342904e-004
7.230739e-004,1.529279e-004
7.143224e-004,1.680000e-004
6.989262e-004,1.762653e-004
6.665131e-004,1.756170e-004
6.219451e-004,1.670276e-004
5.725151e-004,1.540623e-004
5.200059e-004,1.381799e-004
4.577728e-004,1.187321e-004
3.843572e-004,9.344992e-005
3.030004e-004,6.055066e-005
2.172678e-004,2.424803e-005
1.342904e-004,-9.461557e-006
6.476436e-005,-3.604027e-005
1.792748e-005,-5.176060e-005
-7.192643e-006,-5.662256e-005
-2.145439e-005,-5.565017e-005
-3.911951e-005,-5.013995e-005
-6.359137e-005,-4.625038e-005
-7.509801e-005,-4.576419e-005
-3.506787e-005,-5.013995e-005
7.302969e-005,-5.986387e-005
2.271538e-004,-7.250496e-005
3.850055e-004,-8.433573e-005
5.031511e-004,-9.227693e-005
5.537155e-004,-9.600443e-005
5.366987e-004,-9.649063e-005
4.777069e-004,-9.422171e-005
4.086670e-004,-8.871149e-005
3.551854e-004,-7.866345e-005
3.179104e-004,-6.294311e-005
2.811216e-004,-4.219875e-005
2.120818e-004,-1.853721e-005
8.080882e-005,5.772582e-006
-1.374931e-004,2.667901e-005
-4.601651e-004,4.256141e-005
-8.914208e-004,5.455424e-005
-1.378103e-003,5.957827e-005
-1.799797e-003,5.909207e-005
-2.035440e-003,5.504044e-005
-2.031713e-003,5.374392e-005
-1.815355e-003,5.795762e-005
-1.468697e-003,6.508849e-005
-1.087358e-003,7.140904e-005
-7.445897e-004,7.221937e-005
-4.786406e-004,6.930219e-005
-2.961551e-004,6.492643e-005
-1.820611e-004,5.941620e-005
-1.029732e-004,5.212327e-005
-2.615428e-005,4.256141e-005
6.427816e-005,3.494434e-005
1.688103e-004,2.748933e-005
2.903593e-004,1.501031e-005
4.308700e-004,-7.516774e-006
5.610085e-004,-3.425755e-005
6.316690e-004,-5.338126e-005
6.034696e-004,-5.386745e-005
4.602038e-004,-3.117831e-005
2.381743e-004,3.503668e-006
1.922400e-005,3.364782e-005
-1.118868e-004,4.855782e-005
-1.029732e-004,4.418206e-005
4.807163e-005,2.197911e-005
2.937627e-004,-1.010982e-005
5.597120e-004,-4.236081e-005
7.734763e-004,-6.342930e-005
8.904876e-004,-6.926366e-005
9.133388e-004,-6.391550e-005
8.690949e-004,-5.095028e-005
7.778521e-004,-3.263690e-005
6.511168e-004,-1.464765e-005
4.929410e-004,-1.196226e-006
3.018659e-004,3.989864e-006
6.087479e-005,3.503668e-006
-2.535319e-004,1.396819e-006
-6.385990e-004,3.017472e-006
-1.029176e-003,8.851824e-006
-1.303877e-003,2.181705e-005
-1.346014e-003,4.207521e-005
-1.122202e-003,6.930219e-005
-7.014803e-004,1.043083e-004
-2.384598e-004,1.428798e-004
8.988448e-005,1.749688e-004
1.814514e-004,1.945787e-004
5.682316e-005,2.004130e-004
-1.665028e-004,1.984682e-004
-3.570916e-004,1.914994e-004
-4.308313e-004,1.824238e-004
-3.734602e-004,1.756170e-004
-2.276015e-004,1.731861e-004
-6.164659e-005,1.696206e-004
5.860587e-005,1.616794e-004
9.863601e-005,1.498487e-004
6.087479e-005,1.381799e-004
-2.826113e-005,1.302387e-004
-1.271210e-004,1.261871e-004
-1.937298e-004,1.245665e-004
-2.052364e-004,1.210010e-004
-1.601823e-004,1.133840e-004
-8.141856e-005,9.960840e-005
5.772582e-006,8.145709e-005
8.405013e-005,6.184718e-005
1.508210e-004,4.385793e-005
2.083542e-004,3.656499e-005
2.547049e-004,4.742337e-005
2.867939e-004,7.221937e-005
3.112657e-004,1.010670e-004
3.540510e-004,1.253768e-004
4.367043e-004,1.406109e-004
5.561465e-004,1.464453e-004
6.864471e-004,1.451487e-004
7.961654e-004,1.420695e-004
8.585606e-004,1.402868e-004
8.609916e-004,1.383420e-004
8.109134e-004,1.333180e-004
7.282600e-004,1.211631e-004
6.224313e-004,9.701536e-005
4.943996e-004,6.103685e-005
3.414099e-004,1.630683e-005
1.616794e-004,-2.664048e-005
-3.279896e-005,-6.148453e-005
-2.271153e-004,-8.854943e-005
-4.228901e-004,-1.099420e-004
-6.256338e-004,-1.263107e-004
-8.024470e-004,-1.323070e-004
-9.081136e-004,-1.279313e-004
-9.432817e-004,-1.173971e-004
-9.340440e-004,-1.078352e-004
-8.687317e-004,-1.018388e-004
-6.820326e-004,-9.940780e-005
-3.173856e-004,-9.649063e-005
2.023578e-004,-9.681476e-005
7.694246e-004,-1.042698e-004
1.259835e-003,-1.164247e-004
1.595635e-003,-1.261486e-004
1.754297e-003,-1.290658e-004
1.753649e-003,-1.287416e-004
1.624483e-003,-1.263107e-004
1.385436e-003,-1.206384e-004
1.060170e-003,-1.083214e-004
7.157809e-004,-8.773910e-005
4.308700e-004,-6.197072e-005
2.380122e-004,-3.911951e-005
9.118101e-005,-2.485776e-005
-1.102662e-004,-1.643037e-005
-4.726441e-004,-9.299492e-006
-1.036469e-003,-5.479652e-007
-1.699317e-003,8.527692e-006
-2.277728e-003,1.711715e-005
-2.619524e-003,2.667901e-005
-2.676247e-003,3.883391e-005
-2.506403e-003,5.179913e-005
-2.206743e-003,6.314371e-005
-1.849713e-003,7.157111e-005
-1.471615e-003,7.870197e-005
-1.073582e-003,8.761556e-005
-6.522125e-004,9.896014e-005
-2.238740e-004,1.085220e-004
1.633001e-004,1.135460e-004
4.410801e-004,1.185700e-004
5.527431e-004,1.253768e-004
5.037994e-004,1.318594e-004
3.788470e-004,1.329939e-004
2.751252e-004,1.276457e-004
2.519498e-004,1.137081e-004
3.117519e-004,9.134307e-005
4.089912e-004,6.184718e-005
4.861343e-004,3.024445e-005
5.119027e-004,-1.520357e-006
4.874308e-004,-3.117831e-005
4.339492e-004,-5.824321e-005
3.871123e-004,-8.222889e-005
3.772264e-004,-9.973194e-005
4.123945e-004,-1.060525e-004
4.762483e-004,-9.324932e-005
5.417227e-004,-5.791909e-005
5.882355e-004,-8.327101e-006
6.088177e-004,4.045456e-005
6.021731e-004,7.124698e-005
5.791598e-004,8.145709e-005
5.556603e-004,7.675719e-005
5.465847e-004,6.622294e-005
5.520949e-004,5.957827e-005
5.683014e-004,5.957827e-005
6.007145e-004,6.525056e-005
6.614891e-004,7.351588e-005
7.582422e-004,8.097089e-005
8.890289e-004,8.599491e-005
1.034888e-003,8.680524e-005
1.171833e-003,8.129502e-005
1.277986e-003,7.011251e-005
1.337626e-003,5.374392e-005
1.342813e-003,3.786152e-005
1.270369e-003,2.959618e-005
1.080752e-003,3.575467e-005
7.640765e-004,5.471631e-005
3.811159e-004,7.578480e-005
1.517237e-005,9.020861e-005
-2.666592e-004,9.101894e-005
-4.608134e-004,7.951231e-005
-6.559400e-004,6.460230e-005
-9.111929e-004,5.228533e-005
-1.171956e-003,4.402000e-005
-1.318463e-003,3.932010e-005
-1.260281e-003,3.591673e-005
-1.005353e-003,3.380988e-005
-6.478368e-004,3.380988e-005
-2.982619e-004,3.543053e-005
-3.134038e-005,3.915804e-005
1.297525e-004,4.175108e-005
1.974959e-004,4.061663e-005
1.953890e-004,3.413401e-005
1.422316e-004,2.359977e-005
4.985435e-005,1.274139e-005
-6.229485e-005,6.744974e-006
-1.512687e-004,4.476060e-006
-1.606685e-004,5.124321e-006
-5.872941e-005,4.638125e-006
1.485521e-004,3.503668e-006
4.209840e-004,-3.627206e-006
6.895264e-004,-1.626830e-005
8.621261e-004,-2.777494e-005
8.486747e-004,-3.393342e-005
5.952043e-004,-3.766092e-005
