2.278021e-004,5.601283e-005
2.172678e-004,4.855782e-005
1.859892e-004,3.786152e-005
1.250527e-004,2.149292e-005
4.638125e-006,-5.479652e-007
-2.044261e-004,-2.566809e-005
-4.745890e-004,-4.868136e-005
-7.155800e-004,-6.423963e-005
-8.455564e-004,-6.812920e-005
-8.366428e-004,-5.872941e-005
-7.173627e-004,-4.041603e-005
-5.408736e-004,-2.096819e-005
-3.650328e-004,-4.275467e-006
-2.279256e-004,8.203561e-006
-1.426792e-004,1.290346e-005
-1.002181e-004,7.069104e-006
-7.752898e-005,-8.489165e-006
-5.743289e-005,-3.053005e-005
-3.328516e-005,-5.176060e-005
-2.006553e-006,-6.229485e-005
3.251336e-005,-6.018800e-005
6.233338e-005,-4.479180e-005
8.696730e-005,-2.064406e-005
1.116012e-004,2.855406e-006
1.394765e-004,1.906194e-005
1.701068e-004,2.684107e-005
2.049509e-004,2.910999e-005
2.467637e-004,2.975825e-005
3.008935e-004,2.862379e-005
3.686369e-004,2.586868e-005
4.457800e-004,2.165498e-005
5.190336e-004,2.019640e-005
5.734875e-004,2.230324e-005
5.945560e-004,2.846173e-005
5.775391e-004,3.915804e-005
5.260024e-004,5.082674e-005
4.488592e-004,5.844381e-005
3.530786e-004,5.909207e-005
2.313675e-004,5.325772e-005
4.612685e-005,4.320967e-005
-2.536940e-004,3.429608e-005
-6.789533e-004,3.056858e-005
-1.155587e-003,3.478227e-005
-1.551675e-003,4.191315e-005
-1.739995e-003,4.871989e-005
-1.652155e-003,5.277152e-005
-1.304849e-003,5.423011e-005
-7.977471e-004,5.714729e-005
-2.587180e-004,6.395403e-005
2.017096e-004,7.270556e-005
5.167646e-004,7.902610e-005
6.705647e-004,7.967437e-005
6.870954e-004,7.643306e-005
6.115729e-004,7.238143e-005
5.012063e-004,6.865393e-005
4.049395e-004,6.395403e-005
3.508097e-004,6.184718e-005
3.371962e-004,6.492643e-005
3.451374e-004,6.946425e-005
3.616681e-004,7.416414e-005
3.822504e-004,7.643306e-005
4.015361e-004,7.254349e-005
4.093153e-004,5.811968e-005
3.989431e-004,3.526847e-005
3.720402e-004,1.128280e-005
3.346032e-004,-6.544382e-006
2.927903e-004,-1.335112e-005
2.538946e-004,-1.010982e-005
2.213195e-004,5.864920e-007
1.942546e-004,1.501031e-005
1.762653e-004,2.554455e-005
1.720516e-004,3.040651e-005
1.846927e-004,2.846173e-005
2.120818e-004,2.441009e-005
2.482223e-004,2.214118e-005
2.785285e-004,2.068259e-005
2.903593e-004,1.889987e-005
2.820940e-004,1.760335e-005
2.594048e-004,1.873781e-005
2.282883e-004,2.343770e-005
1.923098e-004,3.089270e-005
1.490383e-004,3.607880e-005
9.361198e-005,3.510640e-005
2.927205e-005,3.154097e-005
-3.895744e-005,2.878586e-005
-1.198280e-004,3.251336e-005
-2.216050e-004,4.158902e-005
-3.368334e-004,4.985435e-005
-4.392587e-004,5.649903e-005
-4.907955e-004,6.217131e-005
-4.679442e-004,6.735740e-005
-3.655190e-004,7.157111e-005
-1.927574e-004,7.351588e-005
3.186510e-005,7.254349e-005
2.845250e-004,6.800567e-005
5.305402e-004,5.828174e-005
7.323117e-004,4.661304e-005
8.600192e-004,3.137890e-005
9.097733e-004,1.338965e-005
8.872462e-004,-2.654814e-006
8.013516e-004,-1.383732e-005
6.682958e-004,-1.367526e-005
5.143337e-004,-4.113402e-006
3.697713e-004,1.031041e-005
2.558394e-004,1.808955e-005
1.793446e-004,1.306552e-005
1.253768e-004,-5.896120e-006
7.497447e-005,-2.939559e-005
1.144487e-005,-4.511592e-005
-7.769105e-005,-4.706071e-005
-1.921091e-004,-3.490581e-005
-3.207890e-004,-1.562004e-005
-4.433104e-004,2.855406e-006
-5.436288e-004,1.582063e-005
-6.197994e-004,2.246531e-005
-6.739292e-004,2.392390e-005
-7.079630e-004,1.938607e-005
-7.180110e-004,7.231170e-006
-7.039113e-004,-7.840905e-006
-6.687432e-004,-2.048200e-005
-6.100755e-004,-2.793700e-005
-5.233706e-004,-3.036798e-005
-4.102490e-004,-2.745081e-005
-2.786520e-004,-1.805102e-005
-1.438137e-004,-3.465141e-006
-2.485776e-005,1.193106e-005
6.444023e-005,2.522042e-005
1.154908e-004,3.672705e-005
1.346145e-004,4.807163e-005
1.344524e-004,5.957827e-005
1.304008e-004,6.914012e-005
1.386661e-004,7.740545e-005
1.699447e-004,8.486046e-005
2.303951e-004,9.490851e-005
3.196932e-004,1.077117e-004
4.253598e-004,1.245665e-004
5.305402e-004,1.433660e-004
6.161107e-004,1.620035e-004
6.626235e-004,1.782101e-004
6.595443e-004,1.879340e-004
6.071971e-004,1.889064e-004
5.185474e-004,1.803169e-004
4.136910e-004,1.655690e-004
3.138588e-004,1.475797e-004
2.310434e-004,1.291043e-004
1.684862e-004,1.174356e-004
1.219734e-004,1.150046e-004
8.810177e-005,1.167873e-004
5.779555e-005,1.164632e-004
2.359977e-005,1.080358e-004
-1.286493e-005,9.101894e-005
-4.268495e-005,6.914012e-005
-5.565017e-005,5.034054e-005
-4.138842e-005,3.672705e-005
1.063454e-005,2.570661e-005
1.046324e-004,1.241726e-005
2.362295e-004,-6.058186e-006
4.008879e-004,-2.907146e-005
5.861287e-004,-5.743289e-005
7.752589e-004,-8.919769e-005
9.404037e-004,-1.157764e-004
1.040722e-003,-1.310105e-004
1.007823e-003,-1.316588e-004
7.336082e-004,-1.185315e-004
1.396385e-004,-9.778715e-005
-6.614502e-004,-7.623246e-005
-1.403547e-003,-6.148453e-005
-1.851010e-003,-5.727082e-005
-1.892336e-003,-6.245691e-005
-1.562857e-003,-7.315322e-005
-1.011673e-003,-8.822530e-005
-4.423380e-004,-1.018388e-004
-4.236081e-005,-1.092938e-004
7.270556e-005,-1.107524e-004
-1.089697e-004,-1.058904e-004
-5.120260e-004,-9.762508e-005
-1.003084e-003,-8.773910e-005
-1.433043e-003,-8.028410e-005
-1.693968e-003,-7.590833e-005
-1.751339e-003,-6.683268e-005
-1.628980e-003,-5.208473e-005
-1.403709e-003,-3.377135e-005
-1.181518e-003,-1.351319e-005
-1.013618e-003,6.582909e-006
-8.669490e-004,2.943412e-005
-6.906220e-004,5.504044e-005
-4.703752e-004,8.178122e-005
-2.287359e-004,1.043083e-004
9.175954e-006,1.213252e-004
2.172678e-004,1.321835e-004
3.809539e-004,1.370455e-004
5.008822e-004,1.380179e-004
5.827252e-004,1.409351e-004
6.255105e-004,1.443384e-004
6.245381e-004,1.477418e-004
5.794839e-004,1.467694e-004
5.123889e-004,1.378558e-004
4.590693e-004,1.224596e-004
4.449697e-004,1.044704e-004
4.707380e-004,8.972242e-005
5.253541e-004,8.129502e-005
5.896941e-004,8.145709e-005
6.507927e-004,8.534666e-005
7.049225e-004,8.550872e-005
7.540284e-004,7.870197e-005
7.950310e-004,6.962632e-005
8.185304e-004,6.217131e-005
8.060514e-004,5.779555e-005
7.454389e-004,5.504044e-005
6.347482e-004,5.212327e-005
4.702519e-004,4.596478e-005
2.637806e-004,3.364782e-005
5.325772e-005,1.371378e-005
-1.073490e-004,-9.623623e-006
-1.742820e-004,-3.296103e-005
-1.368449e-004,-5.030201e-005
-2.129233e-005,-5.889147e-005
1.279698e-004,-6.132245e-005
2.629703e-004,-6.359137e-005
3.498373e-004,-6.553616e-005
3.781987e-004,-6.537409e-005
3.556717e-004,-6.261898e-005
2.997591e-004,-5.419158e-005
2.312054e-004,-4.268495e-005
1.547106e-004,-3.263690e-005
7.659513e-005,-2.777494e-005
1.954813e-005,-2.858526e-005
1.792748e-005,-3.004385e-005
9.523264e-005,-2.826113e-005
2.362295e-004,-1.934754e-005
3.686369e-004,-2.492749e-006
3.833848e-004,1.630683e-005
2.099749e-004,3.283749e-005
-1.169109e-004,4.402000e-005
-4.687546e-004,4.709924e-005
-7.026148e-004,4.774750e-005
-7.397278e-004,5.082674e-005
-6.011620e-004,5.779555e-005
-3.718396e-004,6.557468e-005
-1.499722e-004,7.092283e-005
-7.354708e-006,7.254349e-005
3.640293e-005,7.335382e-005
1.225519e-005,7.319175e-005
-3.911951e-005,7.432621e-005
-8.871149e-005,7.805372e-005
-1.170729e-004,8.356393e-005
-1.161005e-004,8.956035e-005
-8.952182e-005,9.328785e-005
-4.333321e-005,9.588090e-005
1.452411e-005,9.944633e-005
7.918817e-005,1.026876e-004
1.498487e-004,1.025256e-004
2.355812e-004,9.685329e-005
3.639370e-004,8.777764e-005
5.542017e-004,7.837785e-005
7.922758e-004,6.914012e-005
1.025974e-003,5.909207e-005
1.183340e-003,4.596478e-005
1.214619e-003,2.619281e-005
1.111221e-003,-3.858999e-007
9.050734e-004,-2.858526e-005
6.496583e-004,-4.884343e-005
3.986190e-004,-5.775702e-005
1.892305e-004,-5.467778e-005
3.915804e-005,-4.106429e-005
-4.900549e-005,-2.048200e-005
-8.757703e-005,3.179537e-006
-9.697682e-005,2.538249e-005
-9.697682e-005,4.807163e-005
-9.940780e-005,6.962632e-005
-1.050801e-004,8.696730e-005
-1.068628e-004,9.944633e-005
-9.146661e-005,1.085220e-004
-6.180866e-005,1.111150e-004
-3.020592e-005,1.000946e-004
-8.975361e-006,7.400208e-005
-4.923729e-006,4.483032e-005
-1.756482e-005,2.505835e-005
-3.863331e-005,2.100672e-005
-5.937767e-005,3.008238e-005
-7.347736e-005,4.628891e-005
-8.125648e-005,6.670914e-005
-8.125648e-005,8.534666e-005
-7.169464e-005,9.377405e-005
-5.224680e-005,9.263960e-005
-2.550602e-005,8.696730e-005
-1.358292e-006,7.724339e-005
3.341602e-006,6.508849e-005
-3.004385e-005,5.163707e-005
-9.778715e-005,3.915804e-005
-1.807646e-004,3.494434e-005
-2.523974e-004,4.418206e-005
-2.938861e-004,6.346784e-005
-3.053928e-004,8.161915e-005
-2.974516e-004,8.696730e-005
-2.731418e-004,7.756751e-005
-2.327876e-004,6.103685e-005
-1.757406e-004,4.823369e-005
-1.062145e-004,4.369587e-005
-2.809907e-005,4.483032e-005
4.466826e-005,5.001641e-005
9.620503e-005,5.552663e-005
1.174356e-004,5.876794e-005
1.077117e-004,5.666109e-005
7.416414e-005,4.936815e-005
2.700314e-005,3.834771e-005
-2.615428e-005,2.651694e-005
-7.461181e-005,1.711715e-005
-1.079973e-004,1.047248e-005
-1.178833e-004,6.582909e-006
-9.956987e-005,5.610517e-006
-6.067420e-005,4.962256e-006
-1.756482e-005,-1.682422e-006
1.031041e-005,-1.448558e-005
1.144487e-005,-3.377135e-005
-1.821308e-005,-5.662256e-005
-7.266703e-005,-7.380149e-005
-1.433275e-004,-7.833932e-005
-2.178775e-004,-7.509801e-005
-2.817312e-004,-7.056018e-005
-3.220855e-004,-6.618442e-005
-3.322956e-004,-5.905355e-005
-3.160891e-004,-4.851930e-005
-2.882139e-004,-3.587821e-005
-2.637420e-004,-2.356124e-005
-2.478596e-004,-9.785687e-006
-2.318151e-004,3.665733e-006
-2.094501e-004,1.403791e-005
-1.810887e-004,2.149292e-005
-1.551583e-004,2.878586e-005
-1.366828e-004,3.543053e-005
-1.243659e-004,4.304760e-005
-1.154523e-004,5.763348e-005
-1.076731e-004,7.691926e-005
-9.649063e-005,9.685329e-005
-7.250496e-005,1.114392e-004
-3.377135e-005,1.193804e-004
9.338019e-006,1.226217e-004
4.661304e-005,1.197045e-004
7.302969e-005,1.085220e-004
8.712937e-005,9.215340e-005
9.263960e-005,7.497447e-005
9.247753e-005,6.071273e-005
9.118101e-005,5.163707e-005
9.361198e-005,4.920609e-005
9.539470e-005,4.904402e-005
8.178122e-005,4.661304e-005
4.272347e-005,4.175108e-005
-1.805102e-005,3.445814e-005
-8.725291e-005,2.181705e-005
-1.493239e-004,2.693341e-006
-1.955125e-004,-1.756482e-005
-2.209568e-004,-3.231276e-005
-2.172293e-004,-3.782299e-005
-1.865989e-004,-4.138842e-005
-1.418689e-004,-4.851930e-005
-9.535618e-005,-5.921561e-005
-5.370539e-005,-6.958779e-005
-2.453363e-005,-7.396355e-005
-1.659243e-005,-6.569822e-005
-2.793700e-005,-4.219875e-005
-4.446767e-005,-8.327101e-006
-4.965375e-005,2.894792e-005
-3.344722e-005,6.136099e-005
2.855406e-006,7.659513e-005
5.196120e-005,6.816773e-005
1.039842e-004,4.045456e-005
1.498487e-004,4.800190e-006
1.838824e-004,-2.826113e-005
2.004130e-004,-5.629843e-005
2.023578e-004,-8.287714e-005
1.974959e-004,-1.060525e-004
1.999268e-004,-1.220969e-004
2.154851e-004,-1.302002e-004
2.410914e-004,-1.298761e-004
2.701011e-004,-1.201522e-004
2.942489e-004,-9.892161e-005
3.075383e-004,-6.942573e-005
3.106175e-004,-4.106429e-005
3.112657e-004,-1.999580e-005
3.106175e-004,-5.247859e-006
3.047831e-004,1.241726e-005
2.893869e-004,3.915804e-005
2.631323e-004,7.481241e-005
2.297469e-004,1.138701e-004
1.950649e-004,1.454729e-004
1.701068e-004,1.657311e-004
1.527658e-004,1.720516e-004
1.367214e-004,1.623277e-004
1.237561e-004,1.420695e-004
1.219734e-004,1.211631e-004
1.316973e-004,1.077117e-004
1.540623e-004,1.031738e-004
1.908512e-004,1.044704e-004
2.472499e-004,1.103047e-004
3.247172e-004,1.164632e-004
4.198496e-004,1.141943e-004
5.277850e-004,1.010670e-004
6.452825e-004,8.113296e-005
7.635903e-004,6.346784e-005
8.527263e-004,5.406805e-005
8.439747e-004,4.839576e-005
6.595443e-004,4.191315e-005
2.851732e-004,3.380988e-005
-2.060468e-004,2.651694e-005
-6.786291e-004,1.987226e-005
-1.015887e-003,1.322759e-005
-1.175197e-003,3.827798e-006
-1.175845e-003,-5.247859e-006
-1.061265e-003,-1.189254e-005
-8.898002e-004,-1.513384e-005
-7.327590e-004,-1.788895e-005
-6.629088e-004,-1.788895e-005
-6.896496e-004,-1.221667e-005
-7.394036e-004,-2.168618e-006
-7.313003e-004,4.800190e-006
-6.316302e-004,5.286386e-006
-4.544929e-004,3.341602e-006
-2.425115e-004,6.096713e-006
-4.090223e-005,1.322759e-005
1.260251e-004,2.392390e-005
2.569738e-004,3.429608e-005
3.577785e-004,4.385793e-005
4.308700e-004,5.504044e-005
4.812723e-004,6.719534e-005
5.209784e-004,8.113296e-005
5.692738e-004,9.263960e-005
6.340999e-004,9.571883e-005
6.930918e-004,8.891209e-005
7.127018e-004,7.853991e-005
6.658648e-004,7.351588e-005
5.446399e-004,7.562274e-005
3.525924e-004,7.870197e-005
1.090082e-004,8.161915e-005
-1.517549e-004,8.372600e-005
-3.891806e-004,8.712937e-005
-5.606457e-004,9.215340e-005
-6.439472e-004,9.701536e-005
-6.499436e-004,1.002567e-004
-5.906277e-004,1.031738e-004
-4.575721e-004,1.056048e-004
-2.314910e-004,1.085220e-004
8.810177e-005,1.112771e-004
4.673347e-004,1.135460e-004
8.342508e-004,1.151667e-004
1.119324e-003,1.148425e-004
1.279121e-003,1.146805e-004
1.308617e-003,1.190562e-004
1.239090e-003,1.284560e-004
1.121917e-003,1.352628e-004
1.013657e-003,1.284560e-004
9.483449e-004,1.103047e-004
9.352176e-004,8.891209e-005
9.541793e-004,7.108490e-005
9.686031e-004,5.811968e-005
9.423485e-004,4.596478e-005
8.462437e-004,3.526847e-005
6.634339e-004,2.586868e-005
3.778746e-004,2.116879e-005
-4.576419e-005,2.035846e-005
-6.410300e-004,1.776542e-005
-1.333535e-003,7.231170e-006
-1.951814e-003,-1.140634e-005
-2.334937e-003,-3.506787e-005
-2.395225e-003,-5.727082e-005
-2.131869e-003,-7.137050e-005
-1.622660e-003,-7.363942e-005
-9.831497e-004,-6.375343e-005
-3.215993e-004,-5.208473e-005
2.701011e-004,-4.851930e-005
7.221015e-004,-5.289506e-005
9.995577e-004,-5.872941e-005
1.105386e-003,-5.808115e-005
1.083508e-003,-4.495386e-005
1.000692e-003,-2.080613e-005
9.096113e-004,1.095867e-005
8.446230e-004,4.013043e-005
8.089686e-004,5.974033e-005
7.772038e-004,6.930219e-005
7.107570e-004,7.238143e-005
5.916388e-004,7.076077e-005
4.294114e-004,6.589881e-005
2.409294e-004,6.038860e-005
1.338965e-005,5.633696e-005
-2.851347e-004,5.439218e-005
-6.536711e-004,5.358185e-005
-1.025773e-003,5.034054e-005
-1.305174e-003,4.158902e-005
-1.423157e-003,2.311357e-005
-1.368865e-003,-3.465141e-006
-1.182652e-003,-3.069211e-005
-9.319371e-004,-5.532604e-005
-6.825187e-004,-7.655659e-005
-4.744269e-004,-9.859748e-005
-3.230579e-004,-1.188556e-004
-2.237119e-004,-1.326312e-004
-1.564548e-004,-1.387897e-004
-1.041077e-004,-1.381414e-004
-5.516398e-005,-1.292278e-004
-4.923729e-006,-1.139937e-004
4.029249e-005,-9.146661e-005
6.897806e-005,-6.504996e-005
7.432621e-005,-3.425755e-005
6.022653e-005,-5.085794e-006
3.543053e-005,1.792748e-005
1.241726e-005,2.910999e-005
-5.479652e-007,2.846173e-005
2.045080e-006,2.003433e-005
2.181705e-005,9.824214e-006
4.888196e-005,2.045080e-006
7.448828e-005,-1.520357e-006
9.393611e-005,-4.113402e-006
1.031738e-004,-7.192643e-006
9.896014e-005,-1.124428e-005
7.724339e-005,-1.173047e-005
4.272347e-005,-1.027188e-005
1.095867e-005,-7.030578e-006
1.558884e-006,-3.951337e-006
2.975825e-005,-1.034161e-006
9.896014e-005,-5.479652e-007
1.937684e-004,-2.816880e-006
2.879283e-004,-3.951337e-006
3.519442e-004,-1.682422e-006
3.764160e-004,2.693341e-006
3.734988e-004,7.069104e-006
3.579406e-004,1.193106e-005
3.417340e-004,1.954813e-005
3.355755e-004,2.910999e-005
3.410858e-004,3.883391e-005
3.569682e-004,4.677511e-005
3.749574e-004,5.439218e-005
3.864641e-004,6.087479e-005
3.828986e-004,6.670914e-005
3.624784e-004,7.270556e-005
3.206655e-004,7.627100e-005
2.532463e-004,7.610893e-005
1.603829e-004,7.594687e-005
4.191315e-005,8.161915e-005
-1.011905e-004,9.231547e-005
-2.577456e-004,1.043083e-004
-4.123559e-004,1.135460e-004
-5.382806e-004,1.198666e-004
-6.100755e-004,1.242423e-004
-6.136409e-004,1.315353e-004
-5.567560e-004,1.394765e-004
-4.708614e-004,1.457970e-004
-3.893426e-004,1.456350e-004
-3.319715e-004,1.380179e-004
-3.005308e-004,1.258630e-004
-2.776796e-004,1.150046e-004
-2.394322e-004,1.065772e-004
-1.775233e-004,1.005808e-004
-1.000561e-004,9.652916e-005
-2.323711e-005,9.474644e-005
4.061663e-005,9.555677e-005
8.972242e-005,9.409818e-005
1.265113e-004,8.826383e-005
1.521176e-004,7.967437e-005
1.707551e-004,7.432621e-005
1.767515e-004,7.610893e-005
1.660552e-004,7.918817e-005
1.368834e-004,7.853991e-005
9.263960e-005,7.302969e-005
4.871989e-005,6.152305e-005
1.987226e-005,4.758544e-005
1.468617e-005,3.494434e-005
3.429608e-005,2.748933e-005
7.270556e-005,2.716520e-005
1.195424e-004,3.299956e-005
1.633001e-004,4.272347e-005
1.981441e-004,5.131293e-005
2.226160e-004,5.212327e-005
2.325020e-004,4.353380e-005
2.250470e-004,2.992031e-005
1.989545e-004,1.646889e-005
1.741585e-004,5.286386e-006
1.850168e-004,-8.327101e-006
2.509774e-004,-2.728874e-005
3.675024e-004,-4.900549e-005
5.093096e-004,-6.683268e-005
6.498203e-004,-7.542214e-005
7.666695e-004,-6.974985e-005
8.472161e-004,-5.095028e-005
8.840049e-004,-2.647842e-005
8.720121e-004,-2.978945e-006
8.026481e-004,1.355172e-005
6.723474e-004,2.019640e-005
4.817585e-004,1.744128e-005
2.402811e-004,1.063454e-005
-3.441962e-005,7.231170e-006
-3.198166e-004,9.824214e-006
-5.834968e-004,1.889987e-005
-8.032573e-004,3.089270e-005
-9.860670e-004,3.640293e-005
-1.161584e-003,2.781346e-005
-1.352821e-003,1.095867e-005
-1.509052e-003,-5.896120e-006
-1.534010e-003,-1.545797e-005
-1.360600e-003,-1.043395e-005
-9.873635e-004,9.500084e-006
-4.802612e-004,3.753739e-005
5.260946e-005,6.265751e-005
5.088234e-004,7.659513e-005
8.350611e-004,7.837785e-005
1.019816e-003,7.059870e-005
1.071515e-003,5.633696e-005
9.791374e-004,4.304760e-005
7.193464e-004,3.656499e-005
3.077003e-004,3.526847e-005
-1.723372e-004,3.899597e-005
-5.958137e-004,4.612685e-005
-8.546320e-004,5.439218e-005
-9.024413e-004,6.103685e-005
-7.654961e-004,6.589881e-005
-5.217499e-004,7.157111e-005
-2.648765e-004,7.691926e-005
-5.953974e-005,7.870197e-005
7.740545e-005,7.837785e-005
1.649207e-004,8.097089e-005
2.328261e-004,8.988448e-005
3.073762e-004,1.038221e-004
3.944053e-004,1.203528e-004
4.825688e-004,1.315353e-004
5.538776e-004,1.315353e-004
5.901803e-004,1.210010e-004
5.713807e-004,1.028497e-004
4.900239e-004,7.805372e-005
3.623164e-004,5.228533e-005
2.200230e-004,3.040651e-005
1.004187e-004,1.452411e-005
3.543053e-005,3.179537e-006
4.726130e-005,-7.030578e-006
1.321835e-004,-1.983374e-005
2.584324e-004,-3.360929e-005
3.863020e-004,-4.673658e-005
4.896997e-004,-5.856734e-005
5.579292e-004,-7.234290e-005
5.908285e-004,-8.871149e-005
5.918010e-004,-1.002181e-004
5.736496e-004,-1.003802e-004
5.451261e-004,-9.179074e-005
5.000719e-004,-7.736692e-005
4.308700e-004,-5.808115e-005
3.358997e-004,-3.830918e-005
2.279641e-004,-2.404744e-005
1.320215e-004,-1.821308e-005
7.643306e-005,-1.934754e-005
6.751947e-005,-2.177852e-005
8.356393e-005,-2.339917e-005
9.263960e-005,-2.226472e-005
6.946425e-005,-1.691656e-005
1.031041e-005,-8.165034e-006
-6.942573e-005,4.244267e-007
-1.355484e-004,8.203561e-006
-1.486757e-004,1.209313e-005
-9.114247e-005,9.175954e-006
2.116879e-005,2.531276e-006
1.479039e-004,-4.437533e-006
2.404432e-004,-9.461557e-006
2.611876e-004,-1.545797e-005
2.012234e-004,-2.177852e-005
8.405013e-005,-2.501983e-005
-5.419158e-005,-2.631635e-005
-1.822232e-004,-2.793700e-005
-2.796244e-004,-3.296103e-005
-3.382920e-004,-3.782299e-005
-3.647087e-004,-3.798505e-005
-3.682741e-004,-3.458168e-005
-3.598467e-004,-2.712668e-005
-3.488263e-004,-1.497178e-005
-3.382920e-004,1.720949e-006
-3.272716e-004,2.295151e-005
-3.172235e-004,4.855782e-005
-3.078238e-004,7.529860e-005
-2.977757e-004,9.960840e-005
-2.861070e-004,1.179218e-004
-2.718453e-004,1.289422e-004
-2.554767e-004,1.367214e-004
-2.363530e-004,1.449867e-004
-2.131776e-004,1.537382e-004
-1.857886e-004,1.633001e-004
-1.585616e-004,1.692965e-004
-1.360346e-004,1.680000e-004
-1.212866e-004,1.577899e-004
-1.161005e-004,1.430419e-004
-1.216107e-004,1.271595e-004
-1.366828e-004,1.130598e-004
-1.489998e-004,1.052807e-004
-1.498101e-004,1.065772e-004
-1.342519e-004,1.154908e-004
-1.031353e-004,1.255388e-004
-6.440169e-005,1.333180e-004
-2.501983e-005,1.336421e-004
1.371378e-005,1.224596e-004
5.277152e-005,9.328785e-005
8.680524e-005,5.115087e-005
1.101426e-004,8.527692e-006
1.146805e-004,-2.096819e-005
1.022014e-004,-3.766092e-005
8.372600e-005,-4.641245e-005
6.638501e-005,-5.078821e-005
4.337174e-005,-4.819516e-005
-1.034161e-006,-3.685059e-005
-8.320127e-005,-2.161646e-005
-2.021572e-004,-8.002969e-006
-3.301888e-004,-1.034161e-006
-4.233763e-004,2.855406e-006
-4.501171e-004,6.420843e-006
-4.126800e-004,1.209313e-005
-3.434781e-004,1.825161e-005
-2.854588e-004,2.149292e-005
-2.634179e-004,2.068259e-005
-2.755728e-004,1.663096e-005
-3.005308e-004,1.501031e-005
-3.139823e-004,1.727922e-005
-2.976136e-004,2.538249e-005
-2.433218e-004,3.283749e-005
-1.541859e-004,3.462021e-005
-3.863331e-005,2.603075e-005
7.708132e-005,9.013888e-006
1.537382e-004,-1.270286e-005
1.556830e-004,-3.182657e-005
6.751947e-005,-4.446767e-005
-8.919769e-005,-5.435365e-005
-2.642282e-004,-6.375343e-005
-4.078180e-004,-7.234290e-005
-4.945230e-004,-7.736692e-005
-5.183466e-004,-7.461181e-005
-4.773441e-004,-6.553616e-005
-3.634122e-004,-5.321919e-005
-1.671511e-004,-3.879538e-005
9.798775e-005,-2.453363e-005
3.885709e-004,-1.237873e-005
6.504686e-004,-2.006553e-006
8.387886e-004,6.420843e-006
9.360280e-004,1.663096e-005
9.582309e-004,2.489629e-005
9.361900e-004,3.040651e-005
9.029665e-004,3.624086e-005
8.797912e-004,4.515445e-005
8.746051e-004,5.390598e-005
8.854635e-004,6.022653e-005
9.060458e-004,5.974033e-005
9.251695e-004,5.309565e-005
9.264661e-004,4.353380e-005
9.006977e-004,3.510640e-005
8.384645e-004,2.927205e-005
7.146465e-004,2.910999e-005
4.840274e-004,3.640293e-005
1.026876e-004,5.017848e-005
-4.063595e-004,6.217131e-005
-9.316130e-004,6.768153e-005
-1.325594e-003,6.897806e-005
-1.485228e-003,7.043664e-005
-1.396254e-003,7.529860e-005
-1.129495e-003,8.113296e-005
-7.962885e-004,8.696730e-005
-4.948471e-004,9.344992e-005
-2.849726e-004,1.005808e-004
-1.770371e-004,1.060910e-004
-1.477033e-004,1.117633e-004
-1.498101e-004,1.166253e-004
-1.371690e-004,1.182459e-004
-8.141856e-005,1.151667e-004
2.214118e-005,1.075496e-004
1.571416e-004,9.782569e-005
3.041349e-004,9.101894e-005
4.488592e-004,8.761556e-005
5.836976e-004,8.745350e-005
7.018433e-004,9.150514e-005
7.904932e-004,9.474644e-005
8.399231e-004,9.296372e-005
8.478643e-004,8.875003e-005
8.232304e-004,8.518459e-005
7.768796e-004,8.210535e-005
7.169154e-004,7.983643e-005
6.493341e-004,7.886404e-005
5.791598e-004,7.740545e-005
5.096338e-004,7.448828e-005
4.358940e-004,6.897806e-005
3.556717e-004,6.233338e-005
2.717218e-004,5.828174e-005
1.914994e-004,5.909207e-005
1.239182e-004,6.573675e-005
7.351588e-005,7.562274e-005
3.964423e-005,8.842590e-005
2.262737e-005,9.750155e-005
1.841368e-005,9.879807e-005
2.392390e-005,9.118101e-005
3.591673e-005,7.886404e-005
5.147500e-005,6.541262e-005
6.622294e-005,5.066468e-005
7.853991e-005,4.045456e-005
8.113296e-005,3.737532e-005
6.444023e-005,3.429608e-005
3.024445e-005,2.424803e-005
-1.108221e-005,5.934647e-006
-5.046408e-005,-1.302699e-005
-8.903562e-005,-2.728874e-005
-1.302002e-004,-3.458168e-005
-1.721751e-004,-3.976777e-005
-2.086398e-004,-4.479180e-005
-2.306807e-004,-4.608832e-005
-2.324634e-004,-4.333321e-005
-2.118811e-004,-4.009190e-005
-1.705545e-004,-3.879538e-005
-1.078352e-004,-4.398147e-005
-3.312309e-005,-5.467778e-005
3.883391e-005,-6.780506e-005
9.733949e-005,-7.736692e-005
1.449867e-004,-8.044616e-005
1.900409e-004,-7.590833e-005
2.359053e-004,-6.764300e-005
2.506533e-004,-5.808115e-005
1.707551e-004,-4.916756e-005
-3.182657e-005,-4.414354e-005
-2.964792e-004,-4.381940e-005
-5.198051e-004,-4.592625e-005
-6.368163e-004,-4.641245e-005
-6.387611e-004,-4.398147e-005
-5.572422e-004,-3.701266e-005
-4.271038e-004,-2.761287e-005
-2.705488e-004,-1.448558e-005
-1.010285e-004,-6.058186e-006
7.610893e-005,-6.220251e-006
2.495188e-004,-7.354708e-006
3.921364e-004,-2.168618e-006
4.790034e-004,1.241726e-005
4.921307e-004,2.992031e-005
4.284390e-004,4.612685e-005
2.973281e-004,5.844381e-005
1.206769e-004,6.670914e-005
-6.423963e-005,7.205730e-005
-2.110708e-004,7.578480e-005
-2.961551e-004,7.935023e-005
-3.271095e-004,8.437427e-005
-3.235441e-004,9.312579e-005
-2.893483e-004,1.073875e-004
-2.149604e-004,1.253768e-004
-9.713889e-005,1.407730e-004
8.469840e-005,1.492004e-004
3.488649e-004,1.469315e-004
6.673234e-004,1.331559e-004
9.438071e-004,1.106288e-004
1.068760e-003,8.469840e-005
9.854579e-004,6.460230e-005
7.280979e-004,5.358185e-005
3.921364e-004,5.098881e-005
7.189524e-005,5.585077e-005
-2.110708e-004,6.136099e-005
-5.389288e-004,6.184718e-005
-9.747224e-004,5.277152e-005
-1.464970e-003,3.348575e-005
-1.896712e-003,5.934647e-006
-2.168334e-003,-2.307504e-005
-2.233808e-003,-5.321919e-005
-2.105128e-003,-8.482193e-005
-1.841286e-003,-1.139937e-004
-1.514886e-003,-1.331174e-004
-1.180545e-003,-1.374931e-004
-8.637077e-004,-1.256624e-004
-5.689110e-004,-1.020008e-004
-3.010170e-004,-7.104637e-005
-7.023605e-005,-3.798505e-005
1.161391e-004,-8.813297e-006
2.551911e-004,9.500084e-006
3.545372e-004,1.501031e-005
4.276287e-004,1.014835e-005
4.895377e-004,2.623614e-007
5.576051e-004,-1.416145e-005
6.428515e-004,-2.793700e-005
7.443045e-004,-3.830918e-005
8.549952e-004,-4.430560e-005
9.606619e-004,-4.592625e-005
1.046232e-003,-4.770897e-005
1.101335e-003,-5.143647e-005
1.120783e-003,-5.451571e-005
1.109438e-003,-5.046408e-005
1.071353e-003,-3.555407e-005
1.003447e-003,-1.335112e-005
8.880566e-004,1.112074e-005
7.133500e-004,3.429608e-005
4.953720e-004,5.504044e-005
2.751252e-004,7.319175e-005
1.033359e-004,8.550872e-005
1.306552e-005,9.085687e-005
9.824214e-006,8.680524e-005
7.513654e-005,7.076077e-005
1.741585e-004,4.790957e-005
2.722080e-004,2.619281e-005
3.475684e-004,1.144487e-005
3.908399e-004,5.772582e-006
4.004017e-004,6.258778e-006
3.783608e-004,6.744974e-006
3.206655e-004,1.014835e-005
2.274780e-004,2.262737e-005
1.198666e-004,4.936815e-005
3.672705e-005,8.583285e-005
9.106226e-007,1.242423e-004
5.124321e-006,1.555209e-004
2.473422e-005,1.772377e-004
3.332369e-005,1.927960e-004
1.176900e-005,2.039785e-004
-5.662256e-005,2.094887e-004
-1.807646e-004,2.052750e-004
-3.643846e-004,1.914994e-004
-5.945172e-004,1.686482e-004
-8.277292e-004,1.401247e-004
-1.002436e-003,1.041462e-004
-1.075041e-003,6.330577e-005
-1.032418e-003,2.732727e-005
-8.807246e-004,3.827798e-006
-6.376266e-004,-2.654814e-006
-3.348887e-004,5.610517e-006
-2.323711e-005,2.019640e-005
2.394708e-004,3.186510e-005
4.055878e-004,3.932010e-005
4.645796e-004,4.499239e-005
4.357320e-004,5.034054e-005
3.613439e-004,5.374392e-005
2.830664e-004,5.568870e-005
2.221298e-004,5.730935e-005
1.843686e-004,5.844381e-005
1.645966e-004,6.071273e-005
1.556830e-004,6.541262e-005
1.534141e-004,7.043664e-005
1.569795e-004,7.384001e-005
1.589243e-004,7.432621e-005
1.576278e-004,7.124698e-005
1.504969e-004,6.638501e-005
1.334801e-004,5.779555e-005
1.033359e-004,4.547859e-005
6.476436e-005,3.478227e-005
2.635488e-005,2.943412e-005
-5.085794e-006,2.878586e-005
-2.550602e-005,2.813760e-005
-3.215070e-005,2.586868e-005
-2.566809e-005,2.732727e-005
-1.108221e-005,3.559260e-005
4.638125e-006,4.823369e-005
1.565857e-005,6.346784e-005
1.825161e-005,7.740545e-005
1.160693e-005,8.648111e-005
-2.238345e-007,9.085687e-005
-1.237873e-005,9.393611e-005
-2.307504e-005,9.377405e-005
-2.680255e-005,8.907416e-005
-1.999580e-005,7.967437e-005
-2.168618e-006,6.427816e-005
1.711715e-005,4.645098e-005
3.008238e-005,3.137890e-005
3.186510e-005,2.116879e-005
2.441009e-005,1.160693e-005
9.175954e-006,2.855406e-006
-9.461557e-006,-2.978945e-006
-2.680255e-005,-4.437533e-006
-4.300908e-005,-6.176923e-008
-5.548810e-005,9.824214e-006
-6.391550e-005,2.230324e-005
-6.342930e-005,2.441009e-005
-5.321919e-005,1.079661e-005
-3.960571e-005,-1.286493e-005
-2.874733e-005,-3.587821e-005
-2.015787e-005,-5.111234e-005
-5.571990e-006,-5.727082e-005
1.776542e-005,-5.953974e-005
5.147500e-005,-5.921561e-005
9.636710e-005,-5.791909e-005
1.423936e-004,-5.516398e-005
1.769136e-004,-5.013995e-005
1.906891e-004,-4.689864e-005
1.900409e-004,-4.868136e-005
1.876099e-004,-5.370539e-005
1.780480e-004,-5.613637e-005
1.172735e-004,-5.613637e-005
-3.620233e-005,-5.419158e-005
-2.626076e-004,-4.803310e-005
-4.856094e-004,-3.992984e-005
-6.112100e-004,-3.069211e-005
-5.781486e-004,-2.015787e-005
-3.833462e-004,-7.354708e-006
-7.931171e-005,7.069104e-006
2.381743e-004,2.392390e-005
4.572866e-004,4.337174e-005
5.363746e-004,6.314371e-005
5.418848e-004,8.032263e-005
5.731634e-004,9.458438e-005
6.783438e-004,1.039842e-004
8.489988e-004,1.054428e-004
1.038453e-003,1.004187e-004
1.185609e-003,9.118101e-005
1.233256e-003,8.291567e-005
1.139096e-003,7.270556e-005
8.874083e-004,5.795762e-005
5.007202e-004,3.867184e-005
3.170303e-005,1.582063e-005
-4.549791e-004,-6.868512e-006
-9.001723e-004,-2.566809e-005
-1.260930e-003,-4.009190e-005
-1.508728e-003,-5.208473e-005
-1.637408e-003,-6.261898e-005
-1.646483e-003,-7.380149e-005
-1.531579e-003,-9.000801e-005
-1.304687e-003,-1.089697e-004
-1.002598e-003,-1.255003e-004
-6.765223e-004,-1.284175e-004
-3.859392e-004,-1.092938e-004
-1.775233e-004,-6.634648e-005
-6.504996e-005,-8.327101e-006
-3.166451e-005,4.790957e-005
-4.997788e-005,9.166720e-005
-8.757703e-005,1.158149e-004
-1.164247e-004,1.188942e-004
-1.162626e-004,1.088461e-004
-7.185670e-005,9.328785e-005
1.727922e-005,8.113296e-005
1.331559e-004,7.465034e-005
2.571359e-004,7.513654e-005
3.799814e-004,8.275361e-005
5.110924e-004,9.312579e-005
6.579236e-004,1.044704e-004
8.220959e-004,1.141943e-004
9.945336e-004,1.177597e-004
1.154979e-003,1.156529e-004
1.246546e-003,1.116012e-004
1.188850e-003,1.098185e-004
9.395934e-004,1.106288e-004
5.391297e-004,1.141943e-004
9.814982e-005,1.169494e-004
-2.558008e-004,1.182459e-004
-4.509274e-004,1.171115e-004
-4.812336e-004,1.091703e-004
-3.895047e-004,9.409818e-005
-2.366771e-004,7.432621e-005
-7.234290e-005,4.953022e-005
8.502253e-005,2.116879e-005
2.334744e-004,-3.951337e-006
3.665300e-004,-2.177852e-005
4.704139e-004,-3.020592e-005
5.253541e-004,-3.166451e-005
5.156302e-004,-2.826113e-005
4.414042e-004,-2.356124e-005
3.237448e-004,-1.788895e-005
1.944166e-004,-1.173047e-005
7.902610e-005,-8.002969e-006
-7.192643e-006,-1.043395e-005
-5.646050e-005,-2.291298e-005
-6.488790e-005,-4.074016e-005
-3.377135e-005,-5.743289e-005
2.700314e-005,-6.667061e-005
1.033359e-004,-6.618442e-005
1.795066e-004,-5.581224e-005
2.380122e-004,-3.604027e-005
2.731804e-004,-1.173047e-005
2.937627e-004,9.662150e-006
3.031625e-004,2.133085e-005
3.005694e-004,2.149292e-005
2.817698e-004,1.241726e-005
2.438465e-004,2.623614e-007
1.892305e-004,-7.516774e-006
1.281319e-004,-5.571990e-006
7.643306e-005,5.448451e-006
4.499239e-005,2.116879e-005
3.316162e-005,3.316162e-005
3.251336e-005,3.640293e-005
3.883391e-005,3.235129e-005
4.661304e-005,2.878586e-005
5.001641e-005,3.121684e-005
4.304760e-005,4.110282e-005
2.635488e-005,5.698522e-005
3.827798e-006,7.562274e-005
-2.339917e-005,9.393611e-005
-5.759496e-005,1.088461e-004
-1.003802e-004,1.185700e-004
-1.540238e-004,1.218114e-004
-2.196603e-004,1.177597e-004
-2.972895e-004,1.094944e-004
-3.799428e-004,1.013911e-004
-4.604893e-004,1.015532e-004
-5.258016e-004,1.111150e-004
-5.695592e-004,1.257009e-004
-5.914380e-004,1.389903e-004
-5.930586e-004,1.451487e-004
-5.789590e-004,1.446626e-004
-5.507596e-004,1.362352e-004
-5.047331e-004,1.226217e-004
-4.361795e-004,1.072255e-004
-3.350507e-004,9.344992e-005
-1.992400e-004,8.097089e-005
-4.138842e-005,7.254349e-005
1.088461e-004,6.654707e-005
2.219677e-004,6.038860e-005
2.811216e-004,5.325772e-005
2.895490e-004,4.871989e-005
2.564876e-004,4.337174e-005
1.987924e-004,3.591673e-005
1.331559e-004,2.716520e-005
7.335382e-005,2.003433e-005
2.829966e-005,1.436204e-005
3.179537e-006,9.662150e-006
2.693341e-006,8.851824e-006
2.781346e-005,1.727922e-005
7.140904e-005,3.494434e-005
1.205148e-004,5.633696e-005
1.610312e-004,7.529860e-005
1.918236e-004,8.631904e-005
2.132162e-004,8.810177e-005
2.278021e-004,8.064676e-005
2.393087e-004,7.011251e-005
2.519498e-004,5.941620e-005
2.608634e-004,4.953022e-005
2.595669e-004,4.013043e-005
2.428742e-004,2.959618e-005
2.039785e-004,1.808955e-005
1.410971e-004,9.338019e-006
6.346784e-005,4.800190e-006
-2.031993e-005,7.879431e-006
-1.011905e-004,1.582063e-005
-1.720131e-004,2.035846e-005
-2.310048e-004,1.176900e-005
-2.784900e-004,-1.351319e-005
-3.133340e-004,-5.030201e-005
-3.280819e-004,-8.952182e-005
-3.190063e-004,-1.229073e-004
-2.935620e-004,-1.451102e-004
-2.643903e-004,-1.543479e-004
-2.378116e-004,-1.504584e-004
-2.146362e-004,-1.425172e-004
-1.932436e-004,-1.368449e-004
-1.760647e-004,-1.313347e-004
-1.674752e-004,-1.253383e-004
-1.652063e-004,-1.172350e-004
-1.577513e-004,-1.052422e-004
-1.370070e-004,-8.887356e-005
-1.010285e-004,-7.266703e-005
-5.727082e-005,-5.743289e-005
-1.513384e-005,-4.074016e-005
1.387585e-005,-2.712668e-005
2.100672e-005,-1.983374e-005
3.017472e-006,-1.416145e-005
-3.215070e-005,-5.571990e-006
-6.667061e-005,6.907039e-006
-8.352540e-005,1.857574e-005
-7.882551e-005,2.910999e-005
-5.646050e-005,3.802358e-005
-1.691656e-005,4.450619e-005
3.413401e-005,5.017848e-005
8.745350e-005,5.504044e-005
1.282940e-004,6.249544e-005
1.448246e-004,6.946425e-005
1.273216e-004,7.384001e-005
7.416414e-005,7.643306e-005
-5.085794e-006,8.097089e-005
-8.854943e-005,9.020861e-005
-1.504584e-004,1.012291e-004
-1.759026e-004,1.099806e-004
-1.626133e-004,1.124116e-004
-1.203142e-004,1.101426e-004
-7.072224e-005,1.086841e-004
-3.263690e-005,1.135460e-004
-1.724069e-005,1.224596e-004
-2.469570e-005,1.352628e-004
-4.981582e-005,1.443384e-004
-7.995997e-005,1.445005e-004
-9.956987e-005,1.346145e-004
-9.000801e-005,1.197045e-004
-3.701266e-005,1.012291e-004
5.876794e-005,7.935023e-005
1.804790e-004,5.633696e-005
3.030004e-004,3.267542e-005
4.081808e-004,6.096713e-006
4.909962e-004,-2.534396e-005
5.576051e-004,-5.872941e-005
6.143280e-004,-8.563225e-005
6.592201e-004,-9.924574e-005
6.846644e-004,-9.778715e-005
6.806127e-004,-8.465986e-005
6.300483e-004,-6.553616e-005
5.193577e-004,-4.462973e-005
3.553475e-004,-2.534396e-005
1.641104e-004,-1.027188e-005
-1.221667e-005,2.207145e-006
-1.462447e-004,1.306552e-005
-2.264670e-004,2.327564e-005
-2.575835e-004,3.769945e-005
-2.564491e-004,5.990240e-005
-2.261429e-004,8.761556e-005
-1.546721e-004,1.158149e-004
-3.360929e-005,1.376937e-004
1.266733e-004,1.457970e-004
3.015418e-004,1.414213e-004
4.640934e-004,1.294284e-004
5.943940e-004,1.169494e-004
6.731577e-004,1.093323e-004
6.742922e-004,1.080358e-004
5.619809e-004,1.141943e-004
3.371962e-004,1.278078e-004
7.772959e-005,1.445005e-004
-1.089697e-004,1.540623e-004
-1.613168e-004,1.488763e-004
-8.595638e-005,1.295905e-004
6.152305e-005,1.030118e-004
2.111093e-004,7.724339e-005
3.127243e-004,5.649903e-005
3.482167e-004,4.807163e-005
3.209897e-004,5.244739e-005
2.506533e-004,6.233338e-005
1.678379e-004,6.444023e-005
9.442231e-005,5.066468e-005
4.888196e-005,2.376183e-005
4.953022e-005,-7.354708e-006
1.054428e-004,-3.474375e-005
1.974959e-004,-5.419158e-005
2.752873e-004,-6.586029e-005
2.846870e-004,-7.169464e-005
1.923098e-004,-7.282909e-005
1.484824e-005,-7.023605e-005
-1.938919e-004,-6.359137e-005
-3.739464e-004,-5.078821e-005
-4.807474e-004,-3.312309e-005
-5.115398e-004,-1.626830e-005
-5.288809e-004,-5.409925e-006
-6.326025e-004,-2.492749e-006
-9.073032e-004,-2.492749e-006
-1.393013e-003,-2.006553e-006
-2.027013e-003,1.002961e-007
-2.612069e-003,4.962256e-006
-2.934256e-003,8.041497e-006
-2.873643e-003,1.014835e-005
-2.436066e-003,1.063454e-005
-1.739347e-003,1.047248e-005
-9.512230e-004,8.689757e-006
-2.285738e-004,7.231170e-006
3.282826e-004,1.014835e-005
6.914712e-004,1.873781e-005
8.872462e-004,3.040651e-005
9.643894e-004,3.915804e-005
9.724927e-004,4.175108e-005
9.511000e-004,3.867184e-005
9.227386e-004,3.267542e-005
8.998873e-004,3.073064e-005
8.875704e-004,3.737532e-005
8.841670e-004,5.082674e-005
8.870841e-004,6.119892e-005
9.034527e-004,6.233338e-005
9.400796e-004,5.179913e-005
9.966404e-004,3.543053e-005
1.056443e-003,1.646889e-005
1.094204e-003,-2.654814e-006
1.092097e-003,-1.562004e-005
1.042667e-003,-1.934754e-005
9.470484e-004,-1.173047e-005
8.073479e-004,7.717366e-006
6.334517e-004,4.013043e-005
4.368664e-004,7.821578e-005
2.376881e-004,1.150046e-004
7.157111e-005,1.393144e-004
-2.485776e-005,1.443384e-004
-2.145439e-005,1.300767e-004
8.340186e-005,1.057669e-004
2.550291e-004,8.080882e-005
4.360561e-004,6.136099e-005
5.684635e-004,4.726130e-005
6.196762e-004,3.494434e-005
5.862907e-004,2.230324e-005
4.940755e-004,1.193106e-005
3.916502e-004,5.286386e-006
3.240689e-004,3.017472e-006
3.140208e-004,7.231170e-006
3.499994e-004,1.322759e-005
4.005638e-004,1.776542e-005
4.287631e-004,2.003433e-005
4.151496e-004,2.149292e-005
3.590750e-004,2.295151e-005
2.662116e-004,2.424803e-005
1.359110e-004,2.327564e-005
-2.064406e-005,2.068259e-005
-1.815749e-004,1.889987e-005
-3.227338e-004,1.938607e-005
-4.207833e-004,2.327564e-005
-4.591928e-004,2.959618e-005
-4.368277e-004,3.656499e-005
-3.656811e-004,4.045456e-005
-2.611490e-004,3.834771e-005
-1.366828e-004,3.024445e-005
1.002961e-007,1.841368e-005
1.318594e-004,5.772582e-006
2.171058e-004,-6.382316e-006
1.889064e-004,-1.659243e-005
8.203561e-006,-2.615428e-005
-2.932379e-004,-3.377135e-005
-6.228787e-004,-3.636440e-005
-8.711627e-004,-3.604027e-005
-9.718052e-004,-3.814712e-005
-9.210788e-004,-4.511592e-005
-7.624169e-004,-5.321919e-005
-5.585387e-004,-6.051213e-005
-3.687603e-004,-6.310517e-005
-2.313289e-004,-5.727082e-005
-1.509446e-004,-4.219875e-005
-1.049180e-004,-1.967167e-005
-6.683268e-005,6.744974e-006
-1.983374e-005,3.089270e-005
3.040651e-005,4.418206e-005
7.140904e-005,4.596478e-005
9.523264e-005,4.061663e-005
9.977046e-005,3.559260e-005
8.712937e-005,3.332369e-005
6.881599e-005,3.478227e-005
6.638501e-005,4.045456e-005
9.798775e-005,4.920609e-005
1.662173e-004,5.957827e-005
2.577842e-004,6.557468e-005
3.470822e-004,6.557468e-005
4.088291e-004,6.055066e-005
4.308700e-004,5.390598e-005
4.038051e-004,4.953022e-005
3.253654e-004,4.564065e-005
1.911753e-004,4.337174e-005
3.503668e-006,4.628891e-005
-2.201465e-004,5.471631e-005
-4.428242e-004,6.946425e-005
-6.175305e-004,8.777764e-005
-7.133111e-004,1.028497e-004
-7.246557e-004,1.081979e-004
-6.601537e-004,1.025256e-004
-5.463838e-004,9.280166e-005
-4.235384e-004,8.437427e-005
-3.199787e-004,7.951231e-005
-2.468872e-004,7.546067e-005
-2.002124e-004,7.319175e-005
-1.757406e-004,7.092283e-005
-1.875713e-004,6.606088e-005
-2.805968e-004,6.119892e-005
-4.671339e-004,5.828174e-005
-6.737671e-004,5.811968e-005
-8.000160e-004,5.909207e-005
-7.833233e-004,6.427816e-005
-6.235269e-004,7.043664e-005
-3.749188e-004,7.335382e-005
-1.141557e-004,7.335382e-005
9.928427e-005,7.092283e-005
2.419018e-004,6.638501e-005
3.166139e-004,5.763348e-005
3.316860e-004,4.207521e-005
2.994350e-004,2.149292e-005
2.333123e-004,1.558884e-006
1.540623e-004,-1.043395e-005
7.951231e-005,-1.043395e-005
1.517237e-005,3.827798e-006
-4.074016e-005,2.408596e-005
-8.854943e-005,4.126489e-005
-1.173971e-004,5.196120e-005
-1.225831e-004,5.585077e-005
-1.073490e-004,5.423011e-005
-7.785312e-005,4.353380e-005
-3.685059e-005,2.230324e-005
1.695509e-005,-2.330684e-006
8.875003e-005,-2.258885e-005
1.764274e-004,-3.490581e-005
2.657254e-004,-4.219875e-005
3.393030e-004,-4.673658e-005
3.898674e-004,-4.722277e-005
4.230909e-004,-4.495386e-005
4.509661e-004,-4.041603e-005
4.828930e-004,-3.215070e-005
5.209784e-004,-2.485776e-005
5.582533e-004,-2.323711e-005
5.859666e-004,-2.501983e-005
6.013628e-004,-2.437157e-005
5.948801e-004,-1.626830e-005
5.631153e-004,-2.492749e-006
5.081752e-004,1.193106e-005
4.389732e-004,2.246531e-005
3.780367e-004,2.295151e-005
3.459477e-004,1.630683e-005
3.516200e-004,4.638125e-006
3.835469e-004,-1.108221e-005
4.177427e-004,-2.501983e-005
4.323286e-004,-3.231276e-005
4.192013e-004,-3.085418e-005
3.884088e-004,-2.388537e-005
3.593991e-004,-1.367526e-005
3.386548e-004,-3.627206e-006
3.200173e-004,7.231170e-006
3.072141e-004,2.052053e-005
3.279585e-004,3.980630e-005
4.164462e-004,6.411610e-005
5.634395e-004,9.280166e-005
6.851506e-004,1.211631e-004
6.571133e-004,1.406109e-004
4.076946e-004,1.448246e-004
-2.339917e-005,1.362352e-004
-5.117019e-004,1.185700e-004
-9.342061e-004,9.717742e-005
-1.216362e-003,7.367795e-005
-1.343097e-003,4.920609e-005
-1.346176e-003,2.441009e-005
-1.271788e-003,2.207145e-006
-1.167256e-003,-1.610623e-005
-1.057052e-003,-3.020592e-005
-9.397163e-004,-4.122636e-005
-8.064986e-004,-4.803310e-005
-6.593434e-004,-4.706071e-005
-5.128363e-004,-3.490581e-005
-3.805911e-004,-1.724069e-005
-2.734659e-004,-4.113402e-006
-1.924333e-004,1.396819e-006
-1.196660e-004,-6.176923e-008
-2.680255e-005,-8.002969e-006
1.083599e-004,-1.497178e-005
2.848491e-004,-1.254080e-005
4.712243e-004,2.623614e-007
6.224313e-004,1.857574e-005
6.919574e-004,3.672705e-005
6.541961e-004,5.050261e-005
5.225990e-004,5.811968e-005
3.480546e-004,6.168512e-005
1.924718e-004,6.233338e-005
1.030118e-004,5.893001e-005
9.669123e-005,5.552663e-005
1.566554e-004,5.552663e-005
2.446569e-004,6.087479e-005
3.198552e-004,7.384001e-005
3.595612e-004,8.956035e-005
3.602095e-004,1.062531e-004
3.218000e-004,1.216493e-004
2.513016e-004,1.333180e-004
1.710792e-004,1.383420e-004
1.109530e-004,1.351007e-004
9.426025e-005,1.274836e-004
1.323456e-004,1.187321e-004
2.162954e-004,1.137081e-004
3.308756e-004,1.161391e-004
4.624727e-004,1.253768e-004
5.922871e-004,1.417454e-004
7.003847e-004,1.618415e-004
7.520836e-004,1.814514e-004
6.955228e-004,1.970097e-004
4.874308e-004,2.086784e-004
1.406109e-004,2.117576e-004
-2.648765e-004,2.021958e-004
-6.133168e-004,1.748067e-004
-8.167087e-004,1.315353e-004
-8.528493e-004,7.805372e-005
-7.569067e-004,2.408596e-005
-5.859278e-004,-2.258885e-005
-3.927460e-004,-5.662256e-005
-2.152845e-004,-7.720485e-005
-8.093235e-005,-8.158062e-005
5.934647e-006,-7.104637e-005
4.807163e-005,-5.273300e-005
6.281957e-005,-3.182657e-005
7.513654e-005,-1.237873e-005
1.104668e-004,2.531276e-006
1.856651e-004,8.203561e-006
3.030004e-004,3.989864e-006
4.553419e-004,-1.075808e-005
6.230795e-004,-3.101624e-005
7.810934e-004,-5.402952e-005
8.990770e-004,-7.363942e-005
9.493173e-004,-8.838737e-005
9.091251e-004,-9.746302e-005
7.396046e-004,-1.041077e-004
3.660438e-004,-1.099420e-004
-1.990780e-004,-1.138316e-004
-8.086055e-004,-1.164247e-004
-1.290426e-003,-1.136696e-004
-1.535144e-003,-1.045939e-004
-1.525258e-003,-9.017008e-005
-1.328187e-003,-7.072224e-005
-1.056079e-003,-4.462973e-005
-8.039056e-004,-1.464765e-005
-6.123444e-004,1.306552e-005
-4.724821e-004,3.494434e-005
-3.556330e-004,4.596478e-005
-2.329496e-004,4.596478e-005
-8.303921e-005,3.786152e-005
9.879807e-005,2.667901e-005
2.978143e-004,1.792748e-005
4.861343e-004,1.274139e-005
6.362069e-004,1.128280e-005
7.277738e-004,1.063454e-005
7.548388e-004,1.014835e-005
7.250187e-004,6.744974e-006
6.577615e-004,2.623614e-007
5.757564e-004,-7.192643e-006
4.982892e-004,-1.335112e-005
4.386491e-004,-1.707863e-005
4.044533e-004,-1.821308e-005
3.932708e-004,-1.270286e-005
3.947294e-004,1.396819e-006
3.934329e-004,2.424803e-005
3.684748e-004,5.163707e-005
3.083486e-004,7.805372e-005
2.124059e-004,1.004187e-004
9.863601e-005,1.150046e-004
-5.734055e-006,1.239182e-004
-7.072224e-005,1.294284e-004
-7.866345e-005,1.292664e-004
-3.036798e-005,1.221355e-004
5.147500e-005,1.120874e-004
1.365593e-004,1.023635e-004
1.986303e-004,9.426025e-005
2.206712e-004,8.680524e-005
1.940925e-004,8.145709e-005
1.282940e-004,7.594687e-005
4.580272e-005,6.914012e-005
-2.275091e-005,6.379197e-005
-6.099833e-005,6.103685e-005
-6.278104e-005,6.233338e-005
-4.236081e-005,6.362990e-005
-2.615428e-005,5.957827e-005
-3.441962e-005,4.677511e-005
-7.169464e-005,2.538249e-005
-1.293899e-004,-5.479652e-007
-1.929195e-004,-2.680255e-005
-2.481837e-004,-4.851930e-005
-2.856208e-004,-6.342930e-005
-2.990722e-004,-7.007398e-005
-2.867553e-004,-7.185670e-005
-2.493182e-004,-7.218083e-005
-1.964849e-004,-6.715681e-005
-1.400862e-004,-5.354332e-005
-9.519411e-005,-3.458168e-005
-7.169464e-005,-1.529591e-005
-6.164659e-005,2.855406e-006
-5.370539e-005,1.419998e-005
-5.224680e-005,1.403791e-005
-6.748093e-005,3.341602e-006
-1.079973e-004,-1.432352e-005
-1.734716e-004,-3.166451e-005
-2.536940e-004,-4.398147e-005
-3.295405e-004,-4.608832e-005
-3.817255e-004,-3.506787e-005
-4.013354e-004,-1.610623e-005
-3.959873e-004,5.772582e-006
-3.745946e-004,3.073064e-005
-3.447747e-004,5.957827e-005
-3.083100e-004,8.907416e-005
-2.613110e-004,1.133840e-004
-1.951884e-004,1.282940e-004
-1.107524e-004,1.334801e-004
-1.562004e-005,1.313732e-004
8.242948e-005,1.237561e-004
1.786963e-004,1.117633e-004
2.652392e-004,9.814982e-005
3.294171e-004,8.518459e-005
3.665300e-004,7.756751e-005
3.863020e-004,7.205730e-005
3.999155e-004,6.525056e-005
4.081808e-004,6.152305e-005
3.960259e-004,6.362990e-005
3.274723e-004,6.832980e-005
1.715654e-004,6.962632e-005
-3.879538e-005,6.200925e-005
-2.165810e-004,4.758544e-005
-2.903207e-004,3.235129e-005
-2.374874e-004,2.149292e-005
-7.736692e-005,1.371378e-005
1.417454e-004,1.128280e-005
3.619922e-004,1.549650e-005
5.316746e-004,2.392390e-005
6.281036e-004,2.797553e-005
6.577615e-004,2.586868e-005
6.447963e-004,2.343770e-005
6.091419e-004,2.376183e-005
5.572810e-004,2.781346e-005
4.820826e-004,3.429608e-005
3.780367e-004,4.175108e-005
2.521119e-004,5.179913e-005
1.227837e-004,6.314371e-005
3.989864e-006,7.400208e-005
-1.005423e-004,8.291567e-005
-1.930815e-004,9.215340e-005
-2.820554e-004,1.026876e-004
-3.731361e-004,1.101426e-004
-4.546549e-004,1.120874e-004
-5.089468e-004,1.125736e-004
-5.292050e-004,1.143563e-004
-5.211016e-004,1.175977e-004
-4.964678e-004,1.213252e-004
-4.706994e-004,1.227837e-004
-4.572480e-004,1.203528e-004
-4.677822e-004,1.137081e-004
-5.057055e-004,1.046324e-004
-5.590249e-004,9.377405e-005
-6.003516e-004,8.145709e-005
-5.977585e-004,6.735740e-005
-5.322842e-004,5.050261e-005
-4.112214e-004,3.380988e-005
-2.588801e-004,2.343770e-005
-1.008664e-004,1.906194e-005
4.418206e-005,1.841368e-005
1.751308e-004,1.695509e-005
2.882525e-004,1.209313e-005
3.788470e-004,2.045080e-006
4.467524e-004,-1.173047e-005
5.010443e-004,-2.388537e-005
5.538776e-004,-2.971972e-005
6.118970e-004,-2.955766e-005
6.728336e-004,-2.550602e-005
7.240463e-004,-2.194059e-005
7.488423e-004,-2.372330e-005
7.326358e-004,-3.069211e-005
6.668372e-004,-4.219875e-005
5.563085e-004,-5.775702e-005
4.198496e-004,-7.363942e-005
2.900352e-004,-8.336334e-005
1.908512e-004,-8.255302e-005
1.368834e-004,-6.780506e-005
1.265113e-004,-4.090223e-005
1.474177e-004,-5.734055e-006
1.884202e-004,2.781346e-005
2.321778e-004,5.212327e-005
2.589186e-004,6.411610e-005
2.632944e-004,6.476436e-005
2.524360e-004,5.601283e-005
2.271538e-004,4.515445e-005
1.945787e-004,3.737532e-005
1.597346e-004,3.364782e-005
1.179218e-004,3.316162e-005
3.202716e-005,3.267542e-005
-1.533756e-004,3.008238e-005
-4.489826e-004,2.732727e-005
-7.829992e-004,2.505835e-005
-1.041980e-003,2.457216e-005
-1.144081e-003,2.684107e-005
-1.070503e-003,2.992031e-005
-8.663007e-004,3.510640e-005
-6.087790e-004,4.742337e-005
-3.632501e-004,6.492643e-005
-1.663408e-004,8.016056e-005
-1.902341e-005,8.745350e-005
9.312579e-005,8.615698e-005
1.882581e-004,7.675719e-005
2.817698e-004,6.119892e-005
3.798194e-004,4.110282e-005
4.720346e-004,2.149292e-005
5.318367e-004,6.258778e-006
5.235714e-004,-2.654814e-006
4.101256e-004,-5.734055e-006
1.633001e-004,-4.599598e-006
-2.016710e-004,-2.168618e-006
-6.013240e-004,5.864920e-007
-9.084377e-004,3.827798e-006
-1.011187e-003,7.555300e-006
-8.791039e-004,1.095867e-005
-5.775004e-004,1.598270e-005
-2.267911e-004,2.311357e-005
6.087479e-005,2.781346e-005
2.388225e-004,2.684107e-005
3.253654e-004,1.792748e-005
3.606957e-004,-2.238345e-007
3.846813e-004,-2.583015e-005
4.188771e-004,-5.192267e-005
4.632831e-004,-7.088431e-005
4.971547e-004,-7.914964e-005
4.969927e-004,-8.077029e-005
4.478869e-004,-7.671866e-005
3.529165e-004,-6.667061e-005
2.367157e-004,-5.159854e-005
1.292664e-004,-3.506787e-005
5.601283e-005,-2.258885e-005
3.154097e-005,-1.448558e-005
6.152305e-005,-7.840905e-006
1.412592e-004,-3.858999e-007
2.582704e-004,7.879431e-006
3.897054e-004,2.133085e-005
5.021787e-004,4.175108e-005
5.597120e-004,6.622294e-005
5.444778e-004,9.150514e-005
4.632831e-004,1.119254e-004
3.443271e-004,1.265113e-004
2.266676e-004,1.291043e-004
1.409351e-004,1.226217e-004
8.988448e-005,1.177597e-004
5.811968e-005,1.231079e-004
3.397195e-005,1.362352e-004
9.824214e-006,1.539003e-004
-1.788895e-005,1.684862e-004
-5.095028e-005,1.712413e-004
-8.465986e-005,1.592484e-004
-1.110765e-004,1.347766e-004
-1.230693e-004,1.036600e-004
-1.146419e-004,7.513654e-005
-8.271508e-005,5.341978e-005
-3.150244e-005,3.705119e-005
2.862379e-005,2.392390e-005
8.712937e-005,1.128280e-005
1.323456e-004,-4.113402e-006
1.626518e-004,-2.048200e-005
1.793446e-004,-3.360929e-005
1.842065e-004,-4.284701e-005
1.848548e-004,-4.851930e-005
1.905270e-004,-5.565017e-005
2.046267e-004,-6.780506e-005
2.222919e-004,-8.222889e-005
2.373639e-004,-9.065627e-005
2.420638e-004,-8.887356e-005
2.326641e-004,-8.174268e-005
2.096508e-004,-7.526008e-005
1.783722e-004,-6.974985e-005
1.388282e-004,-6.488790e-005
8.972242e-005,-5.710876e-005
3.559260e-005,-4.770897e-005
-1.983374e-005,-4.057810e-005
-7.639453e-005,-3.441962e-005
-1.353863e-004,-2.842320e-005
-2.002124e-004,-2.031993e-005
-2.702246e-004,-7.354708e-006
-3.523917e-004,9.824214e-006
-4.536825e-004,2.554455e-005
-5.591870e-004,3.364782e-005
-6.342232e-004,3.737532e-005
-6.514022e-004,4.110282e-005
-6.000275e-004,4.677511e-005
-4.935506e-004,4.953022e-005
-3.567675e-004,4.985435e-005
-2.107467e-004,4.807163e-005
-5.289506e-005,4.677511e-005
1.231079e-004,4.790957e-005
3.146691e-004,5.228533e-005
5.046097e-004,5.990240e-005
6.608408e-004,6.703327e-005
7.575939e-004,6.735740e-005
7.783382e-004,6.265751e-005
7.240463e-004,6.119892e-005
6.193520e-004,6.719534e-005
5.005581e-004,7.999850e-005
3.952156e-004,9.863601e-005
3.023521e-004,1.203528e-004
1.851789e-004,1.380179e-004
6.420843e-006,1.446626e-004
-2.029675e-004,1.373696e-004
-3.747567e-004,1.195424e-004
-4.549791e-004,1.013911e-004
-4.360174e-004,9.344992e-005
-3.532020e-004,9.944633e-005
-2.611490e-004,1.133840e-004
-2.018331e-004,1.274836e-004
-1.916230e-004,1.318594e-004
-2.183637e-004,1.227837e-004
-2.608248e-004,1.056048e-004
-2.987481e-004,8.340186e-005
-3.233821e-004,5.941620e-005
-3.371576e-004,3.948217e-005
-3.480160e-004,2.732727e-005
-3.579019e-004,1.679302e-005
-3.540124e-004,-6.176923e-008
-3.165753e-004,-1.707863e-005
-2.345703e-004,-3.117831e-005
-1.117248e-004,-4.009190e-005
3.073064e-005,-3.960571e-005
1.702689e-004,-2.583015e-005
2.853353e-004,1.072688e-006
3.581026e-004,3.786152e-005
3.757677e-004,7.708132e-005
3.252033e-004,1.065772e-004
2.000889e-004,1.234320e-004
1.209313e-005,1.273216e-004
-2.112329e-004,1.197045e-004
-4.334243e-004,1.004187e-004
-6.186650e-004,7.043664e-005
-7.325968e-004,3.721326e-005
-7.594997e-004,7.717366e-006
-7.167145e-004,-1.302699e-005
-6.407059e-004,-2.469570e-005
-5.462218e-004,-2.647842e-005
-4.316416e-004,-1.902341e-005
-2.989102e-004,-3.465141e-006
-1.712027e-004,1.971020e-005
-8.320127e-005,4.013043e-005
-5.597430e-005,4.596478e-005
-9.179074e-005,3.186510e-005
-1.708786e-004,3.017472e-006
-2.551526e-004,-3.134038e-005
-3.096065e-004,-6.504996e-005
-3.097686e-004,-9.389758e-005
-2.441321e-004,-1.148040e-004
-1.269589e-004,-1.253383e-004
1.241726e-005,-1.272830e-004
1.422316e-004,-1.240417e-004
2.422259e-004,-1.177212e-004
3.039728e-004,-1.096179e-004
3.315239e-004,-1.020008e-004
3.300653e-004,-9.276313e-005
3.062417e-004,-8.093235e-005
2.717218e-004,-6.342930e-005
2.313675e-004,-4.219875e-005
1.851789e-004,-2.291298e-005
1.328318e-004,-7.678839e-006
7.853991e-005,4.476060e-006
2.748933e-005,2.068259e-005
-1.302699e-005,4.418206e-005
-4.106429e-005,7.124698e-005
-6.359137e-005,9.879807e-005
-8.773910e-005,1.300767e-004
-1.118868e-004,1.644345e-004
-1.114006e-004,1.997648e-004
-5.030201e-005,2.266676e-004
8.939829e-005,2.384984e-004
2.974902e-004,2.368777e-004
5.443157e-004,2.269918e-004
7.911414e-004,2.111093e-004
9.987473e-004,1.874478e-004
1.134396e-003,1.569795e-004
1.176047e-003,1.205148e-004
1.119324e-003,8.210535e-005
9.838373e-004,4.726130e-005
8.078341e-004,2.457216e-005
6.277794e-004,1.630683e-005
4.644175e-004,1.582063e-005
3.190449e-004,1.387585e-005
1.788584e-004,9.175954e-006
3.089270e-005,9.662150e-006
-1.123730e-004,2.133085e-005
-2.091260e-004,3.883391e-005
-2.143121e-004,5.163707e-005
-1.067007e-004,5.341978e-005
9.182927e-005,4.823369e-005
3.240689e-004,4.207521e-005
5.213025e-004,4.013043e-005
6.381517e-004,4.466826e-005
6.632718e-004,5.212327e-005
6.157866e-004,5.568870e-005
5.298919e-004,5.115087e-005
4.420525e-004,3.753739e-005
3.720402e-004,2.084466e-005
3.234207e-004,6.582909e-006
2.960316e-004,-1.034161e-006
2.874421e-004,-2.238345e-007
2.866318e-004,6.420843e-006
2.705873e-004,1.533444e-005
1.979821e-004,2.327564e-005
1.063454e-005,2.927205e-005
-3.217614e-004,3.348575e-005
-7.518826e-004,3.526847e-005
-1.164663e-003,3.688912e-005
-1.434988e-003,3.964423e-005
-1.494142e-003,3.932010e-005
-1.347959e-003,2.910999e-005
-1.065479e-003,1.014835e-005
-7.385933e-004,-9.623623e-006
-4.525481e-004,-2.469570e-005
-2.546663e-004,-3.117831e-005
-1.470550e-004,-2.793700e-005
-1.003802e-004,-2.226472e-005
-8.012203e-005,-1.659243e-005
-6.180866e-005,-1.027188e-005
-3.782299e-005,1.558884e-006
-1.173047e-005,1.922400e-005
8.527692e-006,3.915804e-005
2.035846e-005,5.682316e-005
2.473422e-005,6.508849e-005
1.760335e-005,6.038860e-005
5.864920e-007,4.564065e-005
-4.761663e-006,2.651694e-005
3.543053e-005,7.717366e-006
1.386661e-004,-6.868512e-006
2.816078e-004,-2.064406e-005
4.217943e-004,-3.604027e-005
5.307022e-004,-5.111234e-005
5.901803e-004,-6.164659e-005
6.089798e-004,-6.602235e-005
6.175693e-004,-6.731887e-005
6.546823e-004,-6.748093e-005
7.394425e-004,-6.829127e-005
8.699052e-004,-6.650855e-005
1.022085e-003,-5.840528e-005
1.154006e-003,-4.462973e-005
1.214943e-003,-2.518189e-005
1.143148e-003,-2.006553e-006
8.818980e-004,2.230324e-005
4.025085e-004,4.596478e-005
-2.968033e-004,6.379197e-005
-1.123822e-003,7.302969e-005
-1.873861e-003,7.724339e-005
-2.350495e-003,8.226741e-005
-2.461348e-003,8.875003e-005
-2.230243e-003,9.328785e-005
-1.773867e-003,9.231547e-005
-1.236620e-003,8.405013e-005
-7.340555e-004,7.027457e-005
-3.203028e-004,5.487837e-005
-7.100305e-007,4.320967e-005
2.370398e-004,3.607880e-005
4.089912e-004,3.543053e-005
5.371849e-004,4.337174e-005
6.345861e-004,5.925414e-005
7.013571e-004,7.627100e-005
7.242084e-004,8.356393e-005
6.956849e-004,7.918817e-005
6.146522e-004,6.719534e-005
4.893756e-004,5.115087e-005
3.350894e-004,3.607880e-005
1.791825e-004,2.797553e-005
4.774750e-005,2.700314e-005
-4.641245e-005,2.992031e-005
-1.039456e-004,3.170303e-005
-1.287416e-004,2.992031e-005
-1.101041e-004,2.927205e-005
-3.847125e-005,3.802358e-005
7.627100e-005,5.828174e-005
2.122438e-004,8.226741e-005
3.405996e-004,1.025256e-004
4.352457e-004,1.177597e-004
4.819206e-004,1.248906e-004
4.835412e-004,1.203528e-004
4.589073e-004,1.067393e-004
4.295734e-004,9.134307e-005
4.083429e-004,8.210535e-005
3.931088e-004,7.918817e-005
3.749574e-004,7.821578e-005
3.431926e-004,7.643306e-005
2.905214e-004,7.238143e-005
2.219677e-004,6.525056e-005
1.448246e-004,5.568870e-005
6.314371e-005,4.871989e-005
-1.545797e-005,4.855782e-005
-8.709084e-005,4.855782e-005
-1.541859e-004,4.239934e-005
-2.224154e-004,2.554455e-005
-2.883759e-004,5.864920e-007
-3.434781e-004,-2.728874e-005
-3.775118e-004,-5.192267e-005
-3.873978e-004,-6.796713e-005
-3.729740e-004,-7.688072e-005
-3.356990e-004,-8.174268e-005
-2.757348e-004,-8.806324e-005
-1.951884e-004,-9.697682e-005
-9.551824e-005,-1.049180e-004
2.181705e-005,-1.065387e-004
1.513072e-004,-1.018388e-004
2.764217e-004,-9.195280e-005
3.770643e-004,-8.060822e-005
4.367043e-004,-6.764300e-005
4.566384e-004,-5.338126e-005
4.506420e-004,-3.911951e-005
4.279528e-004,-2.745081e-005
3.704196e-004,-1.950961e-005
2.363915e-004,-1.805102e-005
4.638125e-006,-2.129233e-005
-2.702246e-004,-2.388537e-005
-4.890127e-004,-2.015787e-005
-5.804176e-004,-6.868512e-006
-5.350393e-004,1.533444e-005
-3.989045e-004,4.175108e-005
-2.348944e-004,6.589881e-005
-9.195280e-005,8.583285e-005
1.063454e-005,9.831188e-005
7.902610e-005,1.043083e-004
1.278078e-004,1.065772e-004
1.652449e-004,1.060910e-004
1.937684e-004,1.026876e-004
2.115955e-004,9.620503e-005
2.185644e-004,8.972242e-005
2.156472e-004,8.696730e-005
2.138645e-004,8.761556e-005
2.342847e-004,8.988448e-005
2.947351e-004,9.328785e-005
3.900295e-004,9.604297e-005
4.934272e-004,9.944633e-005
5.704083e-004,1.062531e-004
5.919630e-004,1.158149e-004
5.379952e-004,1.268354e-004
4.091532e-004,1.347766e-004
2.286124e-004,1.368834e-004
2.748933e-005,1.308870e-004
-1.796301e-004,1.177597e-004
-3.942045e-004,1.013911e-004
-6.183409e-004,8.777764e-005
-8.376152e-004,8.145709e-005
-1.026421e-003,7.853991e-005
-1.158829e-003,7.529860e-005
-1.228355e-003,7.011251e-005
-1.246182e-003,5.909207e-005
-1.213931e-003,4.434413e-005
-1.119447e-003,2.927205e-005
-9.546263e-004,1.792748e-005
-7.280590e-004,6.744974e-006
-4.783164e-004,-4.437533e-006
-2.507768e-004,-1.480971e-005
-8.239095e-005,-2.177852e-005
1.387585e-005,-2.583015e-005
5.260946e-005,-2.680255e-005
6.314371e-005,-2.858526e-005
6.768153e-005,-3.247483e-005
7.643306e-005,-3.847125e-005
9.442231e-005,-4.527799e-005
1.318594e-004,-5.451571e-005
2.005751e-004,-6.748093e-005
2.983005e-004,-8.012203e-005
4.044533e-004,-8.676671e-005
5.020167e-004,-8.320127e-005
5.754323e-004,-7.039811e-005
6.159487e-004,-5.224680e-005
6.222692e-004,-3.166451e-005
6.065489e-004,-1.108221e-005
5.824011e-004,8.689757e-006
5.576051e-004,2.505835e-005
5.357263e-004,3.543053e-005
5.180612e-004,4.013043e-005
4.968306e-004,4.094075e-005
4.663623e-004,4.483032e-005
4.286011e-004,5.325772e-005
3.978086e-004,5.925414e-005
3.825745e-004,5.909207e-005
3.772264e-004,5.406805e-005
3.665300e-004,4.823369e-005
3.331445e-004,4.353380e-005
2.673460e-004,3.867184e-005
1.715654e-004,3.478227e-005
5.212327e-005,3.121684e-005
-7.833932e-005,3.283749e-005
-1.982676e-004,4.223728e-005
-2.752486e-004,5.747142e-005
-2.887001e-004,7.173317e-005
-2.433218e-004,7.821578e-005
-1.697441e-004,7.821578e-005
-1.071869e-004,8.113296e-005
-8.725291e-005,9.020861e-005
-1.126972e-004,1.036600e-004
-1.506204e-004,1.138701e-004
-1.609926e-004,1.140322e-004
-1.208004e-004,1.015532e-004
-2.777494e-005,7.805372e-005
9.814982e-005,5.179913e-005
2.281262e-004,2.781346e-005
3.261757e-004,6.258778e-006
3.660438e-004,-1.529591e-005
3.472442e-004,-3.928157e-005
2.863077e-004,-6.359137e-005
1.999268e-004,-8.336334e-005
1.054428e-004,-9.405964e-005
2.246531e-005,-9.243900e-005
-3.863331e-005,-8.320127e-005
-7.850138e-005,-7.331529e-005
-1.037836e-004,-7.428768e-005
-1.186936e-004,-9.065627e-005
-1.258244e-004,-1.141557e-004
-1.232314e-004,-1.314967e-004
-1.104282e-004,-1.337657e-004
-8.952182e-005,-1.198280e-004
-6.261898e-005,-9.276313e-005
-3.393342e-005,-6.132245e-005
-1.075808e-005,-2.826113e-005
-1.196226e-006,2.855406e-006
-6.868512e-006,2.651694e-005
-2.923352e-005,4.126489e-005
-6.504996e-005,4.855782e-005
-1.070249e-004,5.115087e-005
-1.399241e-004,5.212327e-005
-1.561307e-004,6.168512e-005
-1.558065e-004,8.323980e-005
-1.462447e-004,1.130598e-004
-1.347380e-004,1.456350e-004
-1.225831e-004,1.749688e-004
-1.117248e-004,1.973338e-004
-1.013526e-004,2.086784e-004
-8.854943e-005,2.043026e-004
-5.386745e-005,1.884202e-004
2.408596e-005,1.670276e-004
1.470936e-004,1.472556e-004
2.932765e-004,1.316973e-004
4.313562e-004,1.234320e-004
5.378331e-004,1.216493e-004
6.065489e-004,1.213252e-004
6.404205e-004,1.158149e-004
6.362069e-004,1.022014e-004
6.013628e-004,8.648111e-005
5.472329e-004,7.319175e-005
4.862963e-004,6.395403e-005
4.324906e-004,5.504044e-005
3.832228e-004,4.612685e-005
2.986246e-004,4.223728e-005
1.067393e-004,4.790957e-005
-2.379736e-004,6.136099e-005
-6.938633e-004,7.254349e-005
-1.140353e-003,7.254349e-005
-1.452653e-003,5.957827e-005
-1.559778e-003,3.899597e-005
-1.460270e-003,1.825161e-005
-1.213607e-003,-3.858999e-007
-9.053584e-004,-1.659243e-005
-6.050515e-004,-2.518189e-005
-3.530400e-004,-2.129233e-005
-1.566169e-004,-6.382316e-006
-3.858999e-007,1.322759e-005
1.334801e-004,3.348575e-005
2.551911e-004,4.904402e-005
3.519442e-004,5.682316e-005
3.772264e-004,5.601283e-005
2.819319e-004,5.034054e-005
6.751947e-005,4.483032e-005
-1.898402e-004,3.948217e-005
-3.695707e-004,3.251336e-005
-3.859392e-004,2.489629e-005
-2.327876e-004,1.922400e-005
4.151929e-006,1.501031e-005
2.055991e-004,1.128280e-005
2.905214e-004,8.851824e-006
2.624841e-004,5.448451e-006
1.902029e-004,-5.479652e-007
1.483901e-004,-8.975361e-006
1.786963e-004,-1.302699e-005
2.783665e-004,-9.461557e-006
4.106118e-004,-3.858999e-007
5.266506e-004,1.176900e-005
5.697600e-004,2.214118e-005
4.790034e-004,2.846173e-005
2.474120e-004,3.105477e-005
-3.766092e-005,2.748933e-005
-2.536940e-004,1.744128e-005
-3.225717e-004,-5.479652e-007
-2.418632e-004,-2.258885e-005
-6.683268e-005,-4.236081e-005
1.274836e-004,-5.257093e-005
2.798251e-004,-5.095028e-005
3.592371e-004,-4.138842e-005
3.611819e-004,-2.615428e-005
3.015418e-004,-8.327101e-006
2.120818e-004,1.112074e-005
1.300767e-004,2.992031e-005
8.356393e-005,4.531652e-005
8.226741e-005,5.779555e-005
1.328318e-004,6.865393e-005
2.459534e-004,7.772959e-005
4.198496e-004,8.453633e-005
6.353965e-004,8.842590e-005
8.574261e-004,8.712937e-005
1.040722e-003,8.145709e-005
1.146065e-003,7.578480e-005
1.159354e-003,7.270556e-005
1.096473e-003,7.627100e-005
9.864303e-004,8.712937e-005
8.467298e-004,9.993253e-005
6.757508e-004,1.106288e-004
4.647416e-004,1.151667e-004
2.062474e-004,1.104668e-004
-9.081834e-005,9.896014e-005
-3.977700e-004,8.064676e-005
-6.771705e-004,5.811968e-005
-9.032516e-004,3.429608e-005
-1.063858e-003,9.662150e-006
-1.142784e-003,-1.675450e-005
-1.121716e-003,-3.960571e-005
-1.000653e-003,-5.386745e-005
-8.021229e-004,-5.678463e-005
-5.706937e-004,-4.819516e-005
-3.514193e-004,-3.344722e-005
-1.749302e-004,-1.999580e-005
-4.997788e-005,-1.383732e-005
2.586868e-005,-1.610623e-005
5.795762e-005,-2.194059e-005
5.325772e-005,-2.599222e-005
2.311357e-005,-2.437157e-005
-1.659243e-005,-1.675450e-005
-5.224680e-005,-8.813297e-006
-7.088431e-005,-5.247859e-006
-6.586029e-005,-1.059601e-005
-4.025397e-005,-2.080613e-005
-2.654814e-006,-2.842320e-005
3.526847e-005,-2.971972e-005
6.071273e-005,-2.745081e-005
6.411610e-005,-2.291298e-005
4.677511e-005,-1.821308e-005
1.971020e-005,-1.286493e-005
5.864920e-007,-8.975361e-006
1.558884e-006,-4.599598e-006
2.133085e-005,3.989864e-006
4.871989e-005,1.825161e-005
7.059870e-005,3.429608e-005
8.145709e-005,4.693717e-005
8.291567e-005,4.758544e-005
8.080882e-005,3.494434e-005
8.372600e-005,1.306552e-005
1.039842e-004,-9.623623e-006
1.493625e-004,-2.858526e-005
2.206712e-004,-4.106429e-005
3.190449e-004,-4.835723e-005
4.320044e-004,-5.386745e-005
5.355643e-004,-5.905355e-005
6.018489e-004,-6.391550e-005
6.159487e-004,-6.764300e-005
5.798081e-004,-6.845333e-005
5.099579e-004,-6.731887e-005
4.226046e-004,-6.391550e-005
3.320101e-004,-5.581224e-005
2.449810e-004,-3.847125e-005
1.662173e-004,-1.010982e-005
9.685329e-005,2.538249e-005
4.110282e-005,6.184718e-005
2.531276e-006,9.263960e-005
-1.967167e-005,1.188942e-004
-3.685059e-005,1.451487e-004
-6.261898e-005,1.694586e-004
-1.029732e-004,1.902029e-004
-1.548341e-004,2.049509e-004
-2.159328e-004,2.130541e-004
-2.854588e-004,2.169437e-004
-3.480160e-004,2.141886e-004
-3.739464e-004,2.057612e-004
-3.258130e-004,2.012234e-004
-1.891920e-004,2.054371e-004
4.476060e-006,2.156472e-004
1.863134e-004,2.269918e-004
2.913317e-004,2.359053e-004
2.939247e-004,2.435224e-004
2.115955e-004,2.522740e-004
8.161915e-005,2.576221e-004
-5.500191e-005,2.530843e-004
-1.622891e-004,2.334744e-004
-2.232257e-004,2.004130e-004
-2.391081e-004,1.610312e-004
-2.212809e-004,1.203528e-004
-1.835197e-004,7.983643e-005
-1.452723e-004,4.402000e-005
-1.193418e-004,1.371378e-005
-1.131834e-004,-1.205460e-005
-1.225831e-004,-3.571614e-005
-1.313347e-004,-5.597430e-005
-1.230693e-004,-7.185670e-005
-8.952182e-005,-8.498399e-005
-3.717472e-005,-9.778715e-005
2.181705e-005,-1.131834e-004
7.173317e-005,-1.274451e-004
9.733949e-005,-1.350622e-004
9.280166e-005,-1.323070e-004
5.941620e-005,-1.209625e-004
3.827798e-006,-1.081593e-004
-6.116039e-005,-1.000561e-004
-1.162626e-004,-9.892161e-005
-1.473791e-004,-1.003802e-004
-1.598582e-004,-1.002181e-004
-1.634236e-004,-9.632856e-005
-1.648822e-004,-8.320127e-005
-1.679614e-004,-5.970180e-005
-1.669890e-004,-3.020592e-005
-1.511066e-004,-7.030578e-006
-1.083214e-004,4.244267e-007
-2.437157e-005,-5.571990e-006
1.030118e-004,-1.707863e-005
2.673460e-004,-2.469570e-005
4.493454e-004,-2.339917e-005
6.253485e-004,-1.156841e-005
7.668316e-004,9.175954e-006
8.468920e-004,3.462021e-005
8.248510e-004,5.520250e-005
6.324793e-004,6.670914e-005
1.882581e-004,6.622294e-005
-4.731303e-004,5.714729e-005
-1.178276e-003,4.531652e-005
-1.734647e-003,3.753739e-005
-2.017451e-003,3.429608e-005
-2.001893e-003,3.299956e-005
-1.749233e-003,3.170303e-005
-1.371296e-003,2.829966e-005
-9.795843e-004,2.311357e-005
-6.556159e-004,1.760335e-005
-4.332623e-004,1.176900e-005
-2.948585e-004,7.717366e-006
-1.909747e-004,6.258778e-006
-8.449779e-005,4.313994e-006
4.094075e-005,1.072688e-006
1.820997e-004,-1.520357e-006
3.333066e-004,1.883015e-006
4.927790e-004,1.047248e-005
6.373413e-004,1.841368e-005
7.099466e-004,2.149292e-005
6.657027e-004,2.100672e-005
5.154681e-004,1.873781e-005
3.287688e-004,1.452411e-005
1.976579e-004,7.555300e-006
1.795066e-004,1.072688e-006
2.521119e-004,-3.951337e-006
3.135346e-004,-1.027188e-005
2.446569e-004,-1.594417e-005
1.002961e-007,-1.853721e-005
-3.478539e-004,-1.383732e-005
-6.611261e-004,5.864920e-007
-8.261085e-004,2.311357e-005
-8.084434e-004,5.082674e-005
-6.428128e-004,7.918817e-005
-3.984183e-004,1.056048e-004
-1.485136e-004,1.255388e-004
5.844381e-005,1.349386e-004
2.059233e-004,1.359110e-004
3.051073e-004,1.305629e-004
3.788470e-004,1.154908e-004
4.475627e-004,9.426025e-005
5.183853e-004,7.254349e-005
5.893700e-004,5.617490e-005
6.563029e-004,4.677511e-005
7.102708e-004,4.418206e-005
7.397666e-004,4.256141e-005
7.327978e-004,4.158902e-005
6.637580e-004,4.207521e-005
5.096338e-004,4.158902e-005
2.995970e-004,3.672705e-005
1.114392e-004,3.073064e-005
1.614476e-005,2.846173e-005
3.753739e-005,2.943412e-005
1.573037e-004,2.992031e-005
3.284447e-004,2.878586e-005
4.953720e-004,2.878586e-005
6.190279e-004,3.267542e-005
6.760749e-004,3.883391e-005
6.597064e-004,4.077869e-005
5.762426e-004,3.850977e-005
4.572866e-004,3.559260e-005
3.504856e-004,3.591673e-005
2.939247e-004,3.721326e-005
3.051073e-004,3.688912e-005
3.752816e-004,3.316162e-005
4.752759e-004,2.424803e-005
5.718669e-004,1.338965e-005
6.300483e-004,3.503668e-006
6.211348e-004,-2.330684e-006
5.344298e-004,-1.844488e-006
3.921364e-004,5.124321e-006
2.384984e-004,1.598270e-005
1.231079e-004,2.522042e-005
7.740545e-005,2.878586e-005
8.648111e-005,2.424803e-005
1.188942e-004,1.031041e-005
1.503348e-004,-8.002969e-006
1.686482e-004,-2.388537e-005
1.697827e-004,-3.215070e-005
1.534141e-004,-3.296103e-005
1.224596e-004,-3.101624e-005
8.405013e-005,-2.971972e-005
5.017848e-005,-3.020592e-005
3.380988e-005,-2.923352e-005
4.077869e-005,-2.890940e-005
6.476436e-005,-2.793700e-005
1.018773e-004,-2.550602e-005
1.564933e-004,-1.902341e-005
2.349330e-004,-6.058186e-006
3.295791e-004,9.500084e-006
4.286011e-004,2.635488e-005
5.149819e-004,4.369587e-005
5.721910e-004,6.346784e-005
5.906665e-004,8.518459e-005
5.707324e-004,1.023635e-004
5.177370e-004,1.137081e-004
4.345975e-004,1.214872e-004
3.269861e-004,1.263492e-004
1.950649e-004,1.247285e-004
3.105477e-005,1.190562e-004
-1.716889e-004,1.112771e-004
-4.031182e-004,1.062531e-004
-6.324405e-004,1.069013e-004
-8.209224e-004,1.161391e-004
-9.460368e-004,1.286181e-004
-1.006001e-003,1.386661e-004
-1.002598e-003,1.399627e-004
-9.385818e-004,1.321835e-004
-8.303222e-004,1.221355e-004
-7.099077e-004,1.156529e-004
-6.052136e-004,1.138701e-004
-5.319600e-004,1.124116e-004
-4.849611e-004,1.052807e-004
-4.562756e-004,9.101894e-005
-4.352071e-004,7.513654e-005
-4.121938e-004,6.087479e-005
-3.754050e-004,4.515445e-005
-3.170615e-004,2.635488e-005
-2.384598e-004,3.179537e-006
-1.571030e-004,-2.388537e-005
-1.016767e-004,-4.916756e-005
-9.454584e-005,-6.569822e-005
-1.404103e-004,-7.331529e-005
-2.250084e-004,-7.509801e-005
-3.224097e-004,-7.169464e-005
-4.108973e-004,-6.180866e-005
-4.802612e-004,-4.706071e-005
-5.262878e-004,-2.939559e-005
-5.535147e-004,-9.785687e-006
-5.679386e-004,1.176900e-005
-5.650214e-004,3.429608e-005
-5.314739e-004,5.374392e-005
-4.622720e-004,6.832980e-005
-3.541744e-004,7.708132e-005
-2.071812e-004,7.870197e-005
-2.307504e-005,7.205730e-005
1.840444e-004,5.828174e-005
3.832228e-004,4.256141e-005
5.323229e-004,3.089270e-005
5.961767e-004,2.376183e-005
5.757564e-004,1.938607e-005
5.093096e-004,1.663096e-005
4.508040e-004,1.744128e-005
4.438352e-004,2.278944e-005
4.914824e-004,3.056858e-005
5.674911e-004,3.559260e-005
6.371792e-004,3.235129e-005
6.780197e-004,2.149292e-005
6.791542e-004,8.041497e-006
6.434998e-004,-2.654814e-006
5.806184e-004,-1.075808e-005
5.025028e-004,-1.934754e-005
4.182289e-004,-2.615428e-005
3.308756e-004,-2.647842e-005
2.409294e-004,-1.805102e-005
1.407730e-004,-3.465141e-006
2.522042e-005,1.501031e-005
-9.389758e-005,3.218923e-005
-1.994021e-004,4.385793e-005
-2.755728e-004,5.115087e-005
-3.160891e-004,5.504044e-005
-3.342404e-004,5.633696e-005
-3.561192e-004,5.293359e-005
-4.074939e-004,4.450619e-005
-4.951712e-004,3.299956e-005
-5.993792e-004,2.570661e-005
-6.883531e-004,2.457216e-005
-7.394036e-004,2.635488e-005
-7.535032e-004,2.359977e-005
-7.457241e-004,1.290346e-005
-7.238454e-004,-4.437533e-006
-6.838152e-004,-2.096819e-005
-6.095893e-004,-3.198863e-005
-4.883645e-004,-4.025397e-005
-3.235441e-004,-4.576419e-005
-1.412206e-004,-4.835723e-005
2.424803e-005,-4.495386e-005
1.389903e-004,-3.458168e-005
1.940925e-004,-1.918548e-005
2.081922e-004,-2.978945e-006
2.119197e-004,9.824214e-006
2.234263e-004,2.327564e-005
2.558394e-004,3.721326e-005
3.187208e-004,4.790957e-005
4.136910e-004,5.374392e-005
5.334574e-004,5.714729e-005
6.682958e-004,5.990240e-005
7.971378e-004,6.168512e-005
8.927564e-004,6.395403e-005
9.060458e-004,6.914012e-005
7.832002e-004,7.999850e-005
5.151440e-004,9.652916e-005
1.561692e-004,1.148425e-004
-1.964849e-004,1.278078e-004
-4.476861e-004,1.274836e-004
-5.446011e-004,1.109530e-004
-4.882024e-004,8.016056e-005
-3.177098e-004,4.483032e-005
-9.227693e-005,1.760335e-005
1.222975e-004,3.989864e-006
2.788527e-004,-1.844488e-006
3.652335e-004,-7.030578e-006
3.952156e-004,-1.221667e-005
3.837089e-004,-1.967167e-005
3.404375e-004,-3.085418e-005
2.767458e-004,-4.365734e-005
2.039785e-004,-5.435365e-005
1.391524e-004,-5.824321e-005
9.344992e-005,-5.321919e-005
6.768153e-005,-4.252288e-005
5.844381e-005,-2.923352e-005
5.811968e-005,-1.383732e-005
6.492643e-005,2.369210e-006
8.145709e-005,1.727922e-005
1.069013e-004,2.716520e-005
1.370455e-004,3.721326e-005
1.641104e-004,4.920609e-005
1.741585e-004,6.136099e-005
1.587622e-004,7.011251e-005
1.187321e-004,7.497447e-005
6.703327e-005,7.513654e-005
2.003433e-005,6.930219e-005
-8.813297e-006,5.844381e-005
-1.124428e-005,4.628891e-005
7.231170e-006,3.818564e-005
3.380988e-005,3.640293e-005
5.714729e-005,3.915804e-005
6.832980e-005,4.466826e-005
6.800567e-005,5.341978e-005
6.087479e-005,6.573675e-005
4.580272e-005,7.918817e-005
2.068259e-005,8.810177e-005
-1.189254e-005,8.729143e-005
-4.268495e-005,7.286762e-005
-6.521203e-005,5.034054e-005
-7.623246e-005,2.959618e-005
-8.012203e-005,1.452411e-005
-7.688072e-005,4.638125e-006
-6.229485e-005,4.244267e-007
-3.344722e-005,-7.100305e-007
1.095867e-005,1.234753e-006
6.897806e-005,5.864920e-007
1.289422e-004,-1.520357e-006
1.769136e-004,-8.813297e-006
2.064095e-004,-2.404744e-005
2.235884e-004,-4.446767e-005
2.372019e-004,-6.342930e-005
2.584324e-004,-7.526008e-005
2.919800e-004,-7.428768e-005
3.401134e-004,-6.423963e-005
3.910019e-004,-5.192267e-005
4.021844e-004,-4.268495e-005
3.130485e-004,-3.685059e-005
1.302387e-004,-3.425755e-005
-6.310517e-005,-2.842320e-005
-1.851403e-004,-1.254080e-005
-2.107467e-004,1.468617e-005
-1.621271e-004,4.564065e-005
-8.028410e-005,7.173317e-005
-4.275467e-006,8.729143e-005
4.726130e-005,9.782569e-005
7.448828e-005,1.080358e-004
8.793970e-005,1.188942e-004
1.012291e-004,1.297525e-004
1.253768e-004,1.385041e-004
1.607070e-004,1.386661e-004
1.900409e-004,1.287802e-004
1.845306e-004,1.146805e-004
1.046324e-004,9.847395e-005
-9.730095e-005,8.291567e-005
-4.314796e-004,7.481241e-005
-8.194639e-004,7.513654e-005
-1.115071e-003,8.064676e-005
-1.192052e-003,8.777764e-005
-9.990322e-004,9.442231e-005
-5.693972e-004,9.928427e-005
-8.002969e-006,1.007429e-004
5.444778e-004,9.588090e-005
9.651997e-004,8.291567e-005
1.185771e-003,6.427816e-005
1.200195e-003,3.964423e-005
1.042019e-003,1.047248e-005
7.663454e-004,-1.805102e-005
4.268184e-004,-3.911951e-005
6.427816e-005,-4.689864e-005
-2.916172e-004,-3.814712e-005
-6.149375e-004,-1.529591e-005
-8.795901e-004,1.306552e-005
-1.063534e-003,4.142695e-005
-1.169687e-003,6.800567e-005
-1.203559e-003,9.150514e-005
-1.161098e-003,1.112771e-004
-1.046193e-003,1.235941e-004
-8.719731e-004,1.266733e-004
-6.625847e-004,1.203528e-004
-4.486585e-004,1.070634e-004
-2.592042e-004,9.312579e-005
-1.013526e-004,8.226741e-005
3.964423e-005,7.659513e-005
1.927960e-004,8.178122e-005
3.741471e-004,9.847395e-005
5.718669e-004,1.192183e-004
7.530560e-004,1.315353e-004
8.726603e-004,1.323456e-004
9.039390e-004,1.239182e-004
8.613158e-004,1.103047e-004
7.953551e-004,9.377405e-005
7.556491e-004,7.756751e-005
7.588904e-004,6.006446e-005
7.825519e-004,3.980630e-005
7.566215e-004,1.549650e-005
5.644119e-004,-7.678839e-006
1.428798e-004,-2.453363e-005
-4.091146e-004,-3.604027e-005
-8.996861e-004,-4.236081e-005
-1.173901e-003,-4.187462e-005
-1.178276e-003,-3.458168e-005
-9.661330e-004,-2.194059e-005
-6.551297e-004,-7.840905e-006
-3.621157e-004,6.907039e-006
-1.684476e-004,1.889987e-005
-9.681476e-005,2.700314e-005
-1.157764e-004,3.137890e-005
-1.737958e-004,2.975825e-005
-2.235498e-004,2.197911e-005
-2.334358e-004,8.851824e-006
-1.953505e-004,-9.299492e-006
-1.240417e-004,-3.004385e-005
-4.057810e-005,-5.565017e-005
4.126489e-005,-8.449779e-005
1.218114e-004,-1.118868e-004
2.104611e-004,-1.295519e-004
3.206655e-004,-1.387897e-004
4.509661e-004,-1.391138e-004
5.849942e-004,-1.284175e-004
6.913091e-004,-1.110765e-004
7.402528e-004,-9.568031e-005
7.185361e-004,-8.709084e-005
6.295621e-004,-7.995997e-005
4.978030e-004,-6.748093e-005
3.632887e-004,-4.965375e-005
2.639427e-004,-2.955766e-005
2.115955e-004,-1.092015e-005
1.936063e-004,1.396819e-006
1.949028e-004,4.800190e-006
2.033302e-004,2.045080e-006
2.068957e-004,-3.951337e-006
1.996027e-004,-1.189254e-005
1.879340e-004,-1.513384e-005
1.830720e-004,-6.706447e-006
1.861513e-004,1.484824e-005
1.914994e-004,4.369587e-005
1.934442e-004,6.849186e-005
1.874478e-004,8.469840e-005
1.767515e-004,9.539470e-005
1.670276e-004,1.054428e-004
1.615174e-004,1.156529e-004
1.564933e-004,1.214872e-004
1.466074e-004,1.214872e-004
1.231079e-004,1.143563e-004
8.793970e-005,1.020394e-004
5.228533e-005,8.712937e-005
3.121684e-005,7.076077e-005
3.202716e-005,5.374392e-005
5.747142e-005,4.029249e-005
1.012291e-004,3.429608e-005
1.488763e-004,3.624086e-005
1.795066e-004,4.029249e-005
1.808031e-004,4.207521e-005
1.526038e-004,3.980630e-005
1.059289e-004,3.235129e-005
5.730935e-005,1.792748e-005
1.808955e-005,9.106226e-007
-2.330684e-006,-1.270286e-005
-4.761663e-006,-1.967167e-005
-3.951337e-006,-1.788895e-005
-1.302699e-005,-9.947754e-006
-3.539201e-005,3.665733e-006
-6.326724e-005,2.035846e-005
-9.033214e-005,3.462021e-005
-1.130213e-004,4.402000e-005
-1.295519e-004,4.839576e-005
-1.352242e-004,5.131293e-005
-1.297140e-004,5.714729e-005
-1.156143e-004,6.784360e-005
-9.308726e-005,8.113296e-005
-6.278104e-005,9.280166e-005
-2.826113e-005,9.847395e-005
2.693341e-006,9.928427e-005
2.230324e-005,9.944633e-005
2.554455e-005,1.047945e-004
1.160693e-005,1.135460e-004
-1.805102e-005,1.188942e-004
-5.824321e-005,1.130598e-004
-1.091317e-004,9.685329e-005
-1.681235e-004,7.108490e-005
-2.264670e-004,3.769945e-005
-2.690902e-004,1.558884e-006
-2.818933e-004,-2.971972e-005
-2.608248e-004,-5.192267e-005
-2.105846e-004,-6.180866e-005
-1.455964e-004,-5.970180e-005
-8.660465e-005,-4.916756e-005
-4.673658e-005,-3.215070e-005
-3.571614e-005,-1.270286e-005
-4.868136e-005,4.476060e-006
-7.072224e-005,1.565857e-005
-8.968388e-005,1.971020e-005
-1.045939e-004,1.808955e-005
-1.164247e-004,1.679302e-005
-1.302002e-004,1.857574e-005
-1.444620e-004,2.554455e-005
-1.511066e-004,3.591673e-005
-1.412206e-004,4.596478e-005
-1.101041e-004,5.487837e-005
-5.921561e-005,6.346784e-005
-1.034161e-006,7.351588e-005
4.904402e-005,8.307774e-005
7.448828e-005,8.777764e-005
6.978838e-005,8.275361e-005
3.850977e-005,6.751947e-005
-7.516774e-006,4.661304e-005
-5.030201e-005,2.829966e-005
-7.623246e-005,2.019640e-005
-7.542214e-005,2.392390e-005
-4.608832e-005,3.462021e-005
5.448451e-006,4.499239e-005
6.346784e-005,5.163707e-005
1.174356e-004,5.423011e-005
1.579519e-004,5.390598e-005
1.850168e-004,5.147500e-005
2.075439e-004,4.953022e-005
2.378501e-004,4.596478e-005
2.811216e-004,4.256141e-005
3.198552e-004,4.045456e-005
3.094830e-004,4.045456e-005
2.000889e-004,4.013043e-005
-1.643037e-005,3.948217e-005
-2.934000e-004,3.818564e-005
-5.452494e-004,3.980630e-005
-6.834911e-004,4.661304e-005
-6.655018e-004,6.006446e-005
-5.155915e-004,7.983643e-005
-2.987481e-004,1.038221e-004
-9.146661e-005,1.263492e-004
5.585077e-005,1.415833e-004
1.297525e-004,1.474177e-004
1.415833e-004,1.446626e-004
1.164632e-004,1.333180e-004
7.789165e-005,1.172735e-004
3.332369e-005,9.863601e-005
-1.788895e-005,8.064676e-005
-7.931171e-005,6.508849e-005
-1.527273e-004,5.601283e-005
-2.342461e-004,5.374392e-005
-3.079858e-004,5.423011e-005
-3.606571e-004,5.066468e-005
-3.830221e-004,3.478227e-005
-3.538503e-004,6.096713e-006
-2.499665e-004,-3.134038e-005
-5.516398e-005,-7.137050e-005
2.179161e-004,-1.096179e-004
5.096338e-004,-1.361966e-004
7.446286e-004,-1.430034e-004
8.919461e-004,-1.321450e-004
9.784891e-004,-1.110765e-004
1.047853e-003,-8.887356e-005
1.128724e-003,-7.201877e-005
1.221425e-003,-6.553616e-005
1.296300e-003,-6.618442e-005
1.316072e-003,-6.748093e-005
1.249949e-003,-6.310517e-005
1.085614e-003,-5.192267e-005
8.229063e-004,-3.312309e-005
4.744656e-004,-8.813297e-006
6.995045e-005,1.501031e-005
-3.426678e-004,2.943412e-005
-7.097456e-004,3.186510e-005
-9.873635e-004,2.813760e-005
-1.150725e-003,2.035846e-005
-1.206476e-003,7.069104e-006
-1.175359e-003,-1.027188e-005
-1.078930e-003,-3.020592e-005
-9.356646e-004,-4.754691e-005
-7.667927e-004,-5.710876e-005
-6.014861e-004,-5.905355e-005
-4.672960e-004,-5.483985e-005
-3.758912e-004,-4.754691e-005
-3.157650e-004,-4.025397e-005
-2.575835e-004,-3.539201e-005
-1.726613e-004,-3.328516e-005
-4.527799e-005,-3.036798e-005
1.210010e-004,-2.210265e-005
3.030004e-004,-7.030578e-006
4.707380e-004,1.257933e-005
5.961767e-004,3.607880e-005
6.575995e-004,5.828174e-005
6.392861e-004,7.708132e-005
5.392918e-004,9.150514e-005
3.760919e-004,1.012291e-004
1.856651e-004,1.075496e-004
3.179537e-006,1.146805e-004
-1.660166e-004,1.261871e-004
-3.679500e-004,1.373696e-004
-6.442713e-004,1.404489e-004
-9.718052e-004,1.316973e-004
-1.260119e-003,1.146805e-004
-1.414243e-003,9.426025e-005
-1.383289e-003,7.546067e-005
-1.179735e-003,5.860587e-005
-8.630594e-004,4.661304e-005
-5.185086e-004,4.029249e-005
-2.225774e-004,3.688912e-005
-1.480971e-005,3.510640e-005
1.091703e-004,3.510640e-005
1.786963e-004,3.786152e-005
2.273159e-004,4.353380e-005
2.796630e-004,5.277152e-005
3.420582e-004,6.298164e-005
4.088291e-004,6.978838e-005
4.746277e-004,7.189524e-005
5.389676e-004,7.238143e-005
6.024972e-004,7.335382e-005
6.597064e-004,7.448828e-005
6.995744e-004,7.546067e-005
7.175637e-004,7.772959e-005
7.125397e-004,8.113296e-005
6.934159e-004,8.486046e-005
6.700785e-004,8.826383e-005
6.546823e-004,8.956035e-005
6.481997e-004,8.502253e-005
6.464170e-004,7.189524e-005
6.397723e-004,5.325772e-005
6.208106e-004,3.559260e-005
5.892079e-004,2.651694e-005
5.514466e-004,2.538249e-005
5.122268e-004,2.781346e-005
4.723587e-004,2.894792e-005
4.298976e-004,2.376183e-005
3.887330e-004,1.452411e-005
3.550234e-004,7.555300e-006
3.258516e-004,4.313994e-006
2.948972e-004,3.341602e-006
2.534084e-004,9.106226e-007
1.926339e-004,-3.627206e-006
1.093323e-004,-1.043395e-005
1.906194e-005,-1.545797e-005
-5.597430e-005,-1.545797e-005
-1.047560e-004,-1.010982e-005
-1.297140e-004,-3.627206e-006
-1.410586e-004,-2.238345e-007
-1.488377e-004,-3.303075e-006
-1.627753e-004,-1.092015e-005
-1.937298e-004,-1.318906e-005
-2.491561e-004,-3.465141e-006
-3.225717e-004,1.582063e-005
-4.042526e-004,3.980630e-005
-4.784785e-004,6.427816e-005
-5.254775e-004,8.242948e-005
-5.279084e-004,9.393611e-005
-4.750752e-004,9.814982e-005
-3.664914e-004,9.523264e-005
-2.089639e-004,8.761556e-005
-1.837515e-005,7.902610e-005
1.804790e-004,7.140904e-005
3.529165e-004,5.974033e-005
4.668485e-004,4.547859e-005
5.141716e-004,3.121684e-005
5.106062e-004,1.760335e-005
4.768966e-004,2.855406e-006
4.237391e-004,-1.156841e-005
3.512959e-004,-2.291298e-005
2.658874e-004,-2.988179e-005
1.887443e-004,-2.971972e-005
1.423936e-004,-2.145439e-005
1.282940e-004,-6.868512e-006
1.294284e-004,1.176900e-005
1.237561e-004,3.089270e-005
8.712937e-005,5.082674e-005
1.776542e-005,7.043664e-005
-6.812920e-005,8.907416e-005
-1.457585e-004,1.043083e-004
-1.981056e-004,1.161391e-004
-2.219292e-004,1.239182e-004
-2.297083e-004,1.284560e-004
-2.337599e-004,1.313732e-004
-2.389460e-004,1.304008e-004
-2.387839e-004,1.214872e-004
-2.178775e-004,1.020394e-004
-1.658546e-004,7.837785e-005
-7.688072e-005,5.828174e-005
4.402000e-005,4.434413e-005
1.820997e-004,3.737532e-005
3.120761e-004,3.478227e-005
4.038051e-004,3.235129e-005
4.251977e-004,2.765140e-005
3.629646e-004,2.068259e-005
2.326641e-004,1.484824e-005
6.816773e-005,1.095867e-005
-9.292519e-005,7.879431e-006
-2.201465e-004,2.531276e-006
-3.032860e-004,-5.734055e-006
-3.514193e-004,-1.335112e-005
-3.788084e-004,-1.886135e-005
-3.909633e-004,-2.291298e-005
-3.864254e-004,-2.550602e-005
-3.643846e-004,-2.874733e-005
-3.292164e-004,-3.069211e-005
-2.934000e-004,-3.231276e-005
-2.697384e-004,-3.636440e-005
-2.622834e-004,-4.122636e-005
-2.611490e-004,-4.171255e-005
-2.551526e-004,-3.766092e-005
-2.417011e-004,-2.842320e-005
-2.199844e-004,-1.432352e-005
-1.955125e-004,2.623614e-007
-1.729855e-004,1.160693e-005
-1.532135e-004,1.727922e-005
-1.342519e-004,1.663096e-005
-1.180453e-004,1.371378e-005
-1.131834e-004,1.338965e-005
-1.258244e-004,1.987226e-005
-1.514308e-004,2.846173e-005
-1.786577e-004,3.510640e-005
-1.987538e-004,4.029249e-005
-2.032917e-004,4.061663e-005
-1.966470e-004,3.559260e-005
-1.898402e-004,2.424803e-005
-1.908126e-004,1.047248e-005
-2.058847e-004,-5.479652e-007
-2.298704e-004,-5.896120e-006
-2.554767e-004,-5.085794e-006
-2.682798e-004,-3.141010e-006
-2.444563e-004,-4.923729e-006
-1.627753e-004,-1.075808e-005
-2.031993e-005,-1.788895e-005
1.650828e-004,-2.469570e-005
3.634508e-004,-2.583015e-005
5.483674e-004,-2.048200e-005
7.034640e-004,-1.254080e-005
8.254993e-004,-5.571990e-006
9.212799e-004,-4.275467e-006
9.997197e-004,-8.327101e-006
1.067463e-003,-1.675450e-005
1.118514e-003,-2.129233e-005
1.123700e-003,-2.015787e-005
1.027271e-003,-1.513384e-005
7.896828e-004,-5.247859e-006
4.386491e-004,1.128280e-005
6.622294e-005,3.494434e-005
-2.118811e-004,5.990240e-005
-3.175477e-004,7.870197e-005
-2.420253e-004,8.323980e-005
-4.300908e-005,7.643306e-005
1.833962e-004,6.735740e-005
3.428685e-004,6.184718e-005
3.712299e-004,5.925414e-005
2.462775e-004,5.439218e-005
-6.058186e-006,4.726130e-005
-3.259751e-004,4.450619e-005
-6.467023e-004,5.115087e-005
-9.131376e-004,6.751947e-005
-1.093192e-003,8.437427e-005
-1.177304e-003,9.328785e-005
-1.176656e-003,8.875003e-005
-1.119609e-003,7.092283e-005
-1.028852e-003,4.628891e-005
-8.964448e-004,2.165498e-005
-6.956460e-004,4.638125e-006
-4.342347e-004,-3.303075e-006
-1.780095e-004,-3.858999e-007
-1.432352e-005,9.662150e-006
3.510640e-005,2.522042e-005
2.975825e-005,4.709924e-005
4.645098e-005,7.254349e-005
1.224596e-004,9.620503e-005
2.550291e-004,1.167873e-004
4.067222e-004,1.313732e-004
5.344298e-004,1.385041e-004
6.125453e-004,1.370455e-004
6.285898e-004,1.269974e-004
5.775391e-004,1.124116e-004
4.645796e-004,9.814982e-005
3.089968e-004,8.567078e-005
1.393144e-004,7.529860e-005
-1.659243e-005,6.589881e-005
-1.386276e-004,5.779555e-005
-2.222533e-004,5.228533e-005
-2.705488e-004,4.807163e-005
-2.935620e-004,4.239934e-005
-2.875656e-004,3.218923e-005
-2.415391e-004,1.614476e-005
-1.473791e-004,-2.168618e-006
-1.967167e-005,-1.448558e-005
1.148425e-004,-1.659243e-005
2.205091e-004,-1.221667e-005
2.710735e-004,-1.010982e-005
2.663736e-004,-1.724069e-005
2.269918e-004,-3.344722e-005
1.843686e-004,-5.111234e-005
1.624898e-004,-6.035006e-005
1.615174e-004,-5.791909e-005
1.735102e-004,-4.868136e-005
1.949028e-004,-4.041603e-005
2.263435e-004,-3.928157e-005
2.647530e-004,-4.106429e-005
3.096451e-004,-4.138842e-005
3.559958e-004,-3.992984e-005
4.000776e-004,-3.620233e-005
4.386491e-004,-3.150244e-005
4.702519e-004,-2.404744e-005
5.050959e-004,-1.497178e-005
5.585775e-004,-4.761663e-006
6.362069e-004,1.176900e-005
7.245325e-004,3.964423e-005
8.024860e-004,7.465034e-005
8.572641e-004,1.088461e-004
8.780085e-004,1.367214e-004
8.483505e-004,1.586002e-004
7.327978e-004,1.722137e-004
4.660382e-004,1.798307e-004
-1.351319e-005,1.804790e-004
-6.444334e-004,1.731861e-004
-1.246668e-003,1.602208e-004
-1.647456e-003,1.425557e-004
-1.751177e-003,1.198666e-004
-1.565288e-003,9.539470e-005
-1.179735e-003,6.719534e-005
-7.244936e-004,3.478227e-005
-3.172235e-004,1.234753e-006
-2.501983e-005,-2.420950e-005
1.372075e-004,-3.701266e-005
1.974959e-004,-3.636440e-005
2.008992e-004,-2.339917e-005
1.902029e-004,1.002961e-007
1.911753e-004,3.154097e-005
2.102990e-004,6.265751e-005
2.386605e-004,8.064676e-005
2.634565e-004,7.967437e-005
2.751252e-004,6.395403e-005
2.736665e-004,4.418206e-005
2.621599e-004,2.959618e-005
2.438465e-004,2.327564e-005
2.169437e-004,2.684107e-005
1.827479e-004,3.283749e-005
1.511452e-004,3.008238e-005
1.294284e-004,1.582063e-005
1.200286e-004,-3.465141e-006
1.227837e-004,-2.096819e-005
1.402868e-004,-3.522994e-005
1.636242e-004,-4.706071e-005
1.850168e-004,-5.532604e-005
2.012234e-004,-5.921561e-005
2.112714e-004,-5.743289e-005
2.109473e-004,-5.062615e-005
1.999268e-004,-3.976777e-005
1.833962e-004,-2.420950e-005
1.665414e-004,-7.516774e-006
1.529279e-004,7.069104e-006
1.427178e-004,2.197911e-005
1.331559e-004,3.769945e-005
1.268354e-004,4.742337e-005
1.193804e-004,4.855782e-005
1.090082e-004,3.948217e-005
1.026876e-004,2.068259e-005
1.107909e-004,2.045080e-006
1.282940e-004,-7.030578e-006
1.412592e-004,-2.006553e-006
1.368834e-004,1.517237e-005
1.125736e-004,3.769945e-005
7.935023e-005,5.439218e-005
4.110282e-005,6.265751e-005
-3.303075e-006,6.492643e-005
-5.273300e-005,6.492643e-005
-1.002181e-004,6.492643e-005
-1.425172e-004,6.719534e-005
-1.755785e-004,7.270556e-005
-1.966470e-004,7.853991e-005
-2.031296e-004,8.226741e-005
-1.893540e-004,8.291567e-005
-1.397621e-004,8.210535e-005
-4.236081e-005,7.870197e-005
9.507057e-005,6.703327e-005
2.325020e-004,5.066468e-005
2.848491e-004,3.867184e-005
1.649207e-004,3.235129e-005
-1.368449e-004,2.910999e-005
-5.219121e-004,2.732727e-005
-8.452322e-004,2.230324e-005
-9.919014e-004,1.047248e-005
-9.210788e-004,-6.868512e-006
-6.768464e-004,-2.420950e-005
-3.621157e-004,-3.668853e-005
-7.833932e-005,-3.879538e-005
1.106288e-004,-3.636440e-005
1.942546e-004,-2.939559e-005
2.096508e-004,-1.821308e-005
2.043026e-004,-3.627206e-006
2.070577e-004,1.436204e-005
2.128921e-004,3.348575e-005
2.021958e-004,5.082674e-005
1.571416e-004,6.589881e-005
7.853991e-005,7.740545e-005
-6.220251e-006,8.323980e-005
-6.197072e-005,7.870197e-005
-6.423963e-005,6.687120e-005
-8.489165e-006,5.228533e-005
8.615698e-005,4.142695e-005
1.929580e-004,3.980630e-005
2.947351e-004,4.969228e-005
3.772264e-004,6.557468e-005
4.153117e-004,8.259154e-005
3.798194e-004,9.490851e-005
2.736665e-004,1.017153e-004
1.441764e-004,1.065772e-004
4.742337e-005,1.086841e-004
1.558884e-006,1.036600e-004
-1.010982e-005,9.458438e-005
-1.529591e-005,8.129502e-005
-3.490581e-005,6.654707e-005
-7.526008e-005,5.439218e-005
-1.224211e-004,4.304760e-005
-1.499722e-004,3.154097e-005
-1.386276e-004,2.003433e-005
-8.709084e-005,1.144487e-005
-1.124428e-005,4.638125e-006
6.184718e-005,-1.034161e-006
1.044704e-004,-2.006553e-006
1.062531e-004,-1.682422e-006
8.907416e-005,-1.358292e-006
9.944633e-005,-2.816880e-006
1.812893e-004,-5.247859e-006
3.410858e-004,-8.651231e-006
5.232472e-004,-9.137427e-006
6.328034e-004,-3.951337e-006
5.961767e-004,7.555300e-006
4.135290e-004,1.922400e-005
1.551968e-004,2.424803e-005
-8.773910e-005,1.954813e-005
-2.595283e-004,9.662150e-006
-3.483401e-004,1.002961e-007
-3.731361e-004,-4.761663e-006
-3.685983e-004,-2.816880e-006
-3.660052e-004,3.665733e-006
-3.963114e-004,1.274139e-005
-4.893369e-004,1.938607e-005
-6.666363e-004,2.343770e-005
-9.009827e-004,2.100672e-005
-1.102268e-003,1.193106e-005
-1.176980e-003,-3.858999e-007
-1.079741e-003,-1.399939e-005
-8.299981e-004,-2.842320e-005
-4.987367e-004,-4.544005e-005
-1.723372e-004,-6.099833e-005
8.615698e-005,-7.201877e-005
2.524360e-004,-7.655659e-005
3.360618e-004,-7.590833e-005
3.615060e-004,-7.104637e-005
3.561578e-004,-6.667061e-005
3.427064e-004,-6.586029e-005
3.316860e-004,-6.845333e-005
3.282826e-004,-7.088431e-005
3.284447e-004,-7.218083e-005
3.209897e-004,-7.039811e-005
2.965178e-004,-6.488790e-005
2.545429e-004,-5.451571e-005
2.057612e-004,-4.009190e-005
1.696206e-004,-1.659243e-005
1.631380e-004,1.744128e-005
1.880961e-004,5.504044e-005
2.290986e-004,8.469840e-005
2.616738e-004,9.847395e-005
2.783665e-004,9.814982e-005
2.854973e-004,8.956035e-005
2.871180e-004,7.870197e-005
2.827422e-004,7.335382e-005
2.681563e-004,7.740545e-005
2.372019e-004,8.712937e-005
1.848548e-004,9.912220e-005
1.148425e-004,1.130598e-004
3.478227e-005,1.269974e-004
-4.544005e-005,1.344524e-004
-1.081593e-004,1.351007e-004
-1.352242e-004,1.269974e-004
-1.144799e-004,1.099806e-004
-4.608832e-005,8.518459e-005
5.990240e-005,5.552663e-005
1.808031e-004,2.262737e-005
2.885766e-004,-7.840905e-006
3.559958e-004,-2.858526e-005
3.707437e-004,-3.620233e-005
3.391410e-004,-3.814712e-005
2.822560e-004,-4.025397e-005
2.235884e-004,-4.592625e-005
1.796687e-004,-5.824321e-005
1.524417e-004,-7.137050e-005
1.302387e-004,-7.185670e-005
9.750155e-005,-5.224680e-005
5.001641e-005,-1.545797e-005
-4.761663e-006,3.073064e-005
-5.694669e-005,7.643306e-005
-1.037836e-004,1.146805e-004
-1.483515e-004,1.454729e-004
-1.919471e-004,1.671896e-004
-2.361909e-004,1.788584e-004
-2.797865e-004,1.822617e-004
-3.261371e-004,1.803169e-004
-3.648708e-004,1.751308e-004
-3.757291e-004,1.714033e-004
-3.345645e-004,1.697827e-004
-2.258187e-004,1.673517e-004
-6.375343e-005,1.671896e-004
1.119254e-004,1.673517e-004
2.542187e-004,1.668655e-004
3.284447e-004,1.633001e-004
3.292550e-004,1.556830e-004
2.767458e-004,1.435281e-004
2.034923e-004,1.313732e-004
1.427178e-004,1.190562e-004
1.124116e-004,1.043083e-004
1.085220e-004,8.486046e-005
1.182459e-004,6.152305e-005
1.313732e-004,3.348575e-005
1.423936e-004,7.485573e-007
1.503348e-004,-3.636440e-005
1.555209e-004,-6.877746e-005
1.581140e-004,-8.757703e-005
1.535762e-004,-8.984595e-005
1.376937e-004,-8.028410e-005
1.150046e-004,-6.440169e-005
8.988448e-005,-4.673658e-005
6.038860e-005,-3.247483e-005
2.100672e-005,-2.469570e-005
-2.583015e-005,-2.242678e-005
-6.796713e-005,-2.161646e-005
-9.746302e-005,-2.307504e-005
-1.209625e-004,-2.809907e-005
-1.477033e-004,-3.474375e-005
-1.809267e-004,-3.636440e-005
-2.143121e-004,-3.117831e-005
-2.429977e-004,-2.469570e-005
-2.622834e-004,-1.999580e-005
-2.614731e-004,-1.529591e-005
-2.384598e-004,-8.813297e-006
-2.008607e-004,1.234753e-006
-1.627753e-004,1.387585e-005
-1.405724e-004,2.651694e-005
-1.384655e-004,4.142695e-005
-1.415448e-004,5.828174e-005
-1.169109e-004,7.562274e-005
-3.782299e-005,9.150514e-005
1.049566e-004,1.036600e-004
2.992729e-004,1.085220e-004
5.138475e-004,1.046324e-004
7.169154e-004,9.134307e-005
8.872462e-004,6.914012e-005
1.011713e-003,4.126489e-005
1.089180e-003,9.662150e-006
1.126293e-003,-2.242678e-005
1.138286e-003,-4.835723e-005
1.141203e-003,-6.051213e-005
1.142175e-003,-5.921561e-005
1.120783e-003,-4.770897e-005
1.037481e-003,-3.522994e-005
8.509436e-004,-2.728874e-005
5.216266e-004,-2.437157e-005
3.364782e-005,-2.080613e-005
-5.776625e-004,-1.626830e-005
-1.204207e-003,-1.351319e-005
-1.712120e-003,-1.124428e-005
-1.999137e-003,-1.205460e-005
-2.034306e-003,-1.756482e-005
-1.850037e-003,-2.518189e-005
-1.528986e-003,-3.101624e-005
-1.163853e-003,-3.636440e-005
-8.251361e-004,-3.960571e-005
-5.486528e-004,-4.009190e-005
-3.369955e-004,-3.409548e-005
-1.695821e-004,-1.967167e-005
-2.177852e-005,1.558884e-006
1.119254e-004,2.214118e-005
2.164575e-004,3.705119e-005
2.777182e-004,4.758544e-005
3.028383e-004,5.406805e-005
3.149932e-004,5.698522e-005
3.396272e-004,5.730935e-005
4.002396e-004,5.487837e-005
5.075269e-004,5.309565e-005
6.582477e-004,5.406805e-005
8.347370e-004,5.795762e-005
1.014954e-003,6.184718e-005
1.177830e-003,6.768153e-005
1.300351e-003,7.853991e-005
1.352374e-003,9.555677e-005
1.294031e-003,1.156529e-004
1.085939e-003,1.352628e-004
7.193464e-004,1.485521e-004
2.378501e-004,1.511452e-004
-2.818933e-004,1.470936e-004
-7.919127e-004,1.404489e-004
-1.321380e-003,1.336421e-004
-1.899629e-003,1.255388e-004
-2.460538e-003,1.141943e-004
-2.872185e-003,9.896014e-005
-3.012371e-003,8.032263e-005
-2.829237e-003,5.909207e-005
-2.365081e-003,3.850977e-005
-1.737078e-003,2.457216e-005
-1.079903e-003,2.052053e-005
-5.019780e-004,2.441009e-005
-6.083626e-005,2.927205e-005
2.378501e-004,3.154097e-005
4.159599e-004,3.218923e-005
5.042856e-004,3.364782e-005
5.347539e-004,3.445814e-005
5.370228e-004,3.154097e-005
5.316746e-004,2.359977e-005
5.313505e-004,1.079661e-005
5.425331e-004,-1.682422e-006
5.621430e-004,-1.075808e-005
5.832114e-004,-1.221667e-005
6.084936e-004,-1.059601e-005
6.454446e-004,-9.623623e-006
6.958469e-004,-8.813297e-006
7.535422e-004,-4.923729e-006
8.164236e-004,5.286386e-006
8.846531e-004,2.149292e-005
9.609860e-004,3.753739e-005
1.043964e-003,4.839576e-005
1.114624e-003,4.953022e-005
1.126455e-003,4.029249e-005
1.025974e-003,2.392390e-005
7.976240e-004,9.175954e-006
4.903480e-004,2.855406e-006
2.015475e-004,6.907039e-006
2.473422e-005,1.646889e-005
-8.651231e-006,2.311357e-005
6.800567e-005,2.473422e-005
1.931201e-004,2.084466e-005
3.179104e-004,1.419998e-005
4.179047e-004,6.582909e-006
4.893756e-004,-1.358292e-006
5.392918e-004,-4.113402e-006
5.765667e-004,-6.176923e-008
5.990939e-004,1.144487e-005
5.890458e-004,2.781346e-005
5.060683e-004,4.175108e-005
3.201793e-004,4.612685e-005
7.076077e-005,3.948217e-005
-1.449481e-004,2.619281e-005
-2.412149e-004,1.403791e-005
-1.945401e-004,9.013888e-006
-4.236081e-005,1.241726e-005
1.415833e-004,1.630683e-005
2.838767e-004,1.371378e-005
3.414099e-004,4.476060e-006
3.101313e-004,-5.085794e-006
2.203471e-004,-3.465141e-006
1.172735e-004,1.355172e-005
3.818564e-005,4.191315e-005
-1.844488e-006,6.897806e-005
-1.335112e-005,8.599491e-005
-2.210265e-005,9.085687e-005
-4.430560e-005,8.356393e-005
-8.352540e-005,7.059870e-005
-1.303623e-004,5.763348e-005
-1.708786e-004,4.547859e-005
-1.997262e-004,3.462021e-005
-2.246843e-004,2.603075e-005
-2.572594e-004,2.068259e-005
-2.958309e-004,1.889987e-005
-3.275957e-004,2.295151e-005
-3.389403e-004,3.105477e-005
-3.160891e-004,4.207521e-005
-2.558008e-004,5.309565e-005
-1.679614e-004,6.119892e-005
-7.234290e-005,6.881599e-005
7.717366e-006,7.529860e-005
5.406805e-005,8.097089e-005
5.860587e-005,8.226741e-005
3.445814e-005,7.643306e-005
-6.176923e-008,6.330577e-005
-2.890940e-005,4.612685e-005
-5.062615e-005,2.846173e-005
-7.185670e-005,1.257933e-005
-9.843541e-005,-7.100305e-007
-1.319829e-004,-1.383732e-005
-1.746061e-004,-2.777494e-005
-2.264670e-004,-4.252288e-005
-2.841623e-004,-5.192267e-005
-3.368334e-004,-5.143647e-005
-3.715154e-004,-3.506787e-005
-3.788084e-004,-3.789271e-006
-3.598467e-004,3.624086e-005
-3.225717e-004,7.594687e-005
-2.758969e-004,1.069013e-004
-2.219292e-004,1.257009e-004
-1.538618e-004,1.338042e-004
-7.104637e-005,1.383420e-004
2.473422e-005,1.422316e-004
1.281319e-004,1.415833e-004
2.269918e-004,1.365593e-004
3.049452e-004,1.286181e-004
3.509718e-004,1.174356e-004
3.574544e-004,1.005808e-004
3.277964e-004,7.756751e-005
2.702632e-004,5.293359e-005
2.030061e-004,3.008238e-005
1.417454e-004,9.500084e-006
9.571883e-005,-1.286493e-005
6.832980e-005,-3.749886e-005
5.844381e-005,-6.375343e-005
6.249544e-005,-8.968388e-005
7.286762e-005,-1.128592e-004
7.108490e-005,-1.287416e-004
3.802358e-005,-1.342519e-004
-4.122636e-005,-1.293899e-004
-1.674752e-004,-1.196660e-004
-3.267854e-004,-1.063766e-004
-4.912817e-004,-8.854943e-005
-6.373025e-004,-6.618442e-005
-7.622548e-004,-4.625038e-005
-8.598181e-004,-3.490581e-005
-9.027654e-004,-2.809907e-005
-8.534976e-004,-2.129233e-005
-6.959701e-004,-1.513384e-005
-4.593548e-004,-1.092015e-005
-2.123673e-004,-1.092015e-005
-2.242678e-005,-1.270286e-005
7.513654e-005,-1.010982e-005
8.891209e-005,-1.196226e-006
5.325772e-005,1.063454e-005
2.531276e-006,2.246531e-005
-3.668853e-005,3.413401e-005
-5.354332e-005,4.645098e-005
-4.965375e-005,5.909207e-005
-3.587821e-005,6.735740e-005
-2.615428e-005,6.962632e-005
-3.895744e-005,6.476436e-005
-8.012203e-005,5.277152e-005
-1.405724e-004,3.640293e-005
-1.985918e-004,1.841368e-005
-2.298704e-004,1.558884e-006
-2.039399e-004,-1.075808e-005
-1.065387e-004,-2.113026e-005
5.941620e-005,-2.955766e-005
2.751252e-004,-3.733679e-005
5.162784e-004,-4.155049e-005
7.533801e-004,-3.879538e-005
9.549896e-004,-2.453363e-005
1.088207e-003,-2.654814e-006
1.129210e-003,2.489629e-005
1.070704e-003,5.471631e-005
9.216041e-004,7.935023e-005
7.010330e-004,9.458438e-005
4.360561e-004,1.017153e-004
1.579519e-004,1.059289e-004
-9.665269e-005,1.120874e-004
-2.838381e-004,1.219734e-004
-3.739464e-004,1.282940e-004
-3.713534e-004,1.271595e-004
-2.917793e-004,1.195424e-004
-1.517549e-004,1.109530e-004
2.878586e-005,1.052807e-004
2.190506e-004,1.030118e-004
3.871123e-004,1.009049e-004
4.999098e-004,9.993253e-005
5.336195e-004,1.036600e-004
4.942375e-004,1.138701e-004
4.136910e-004,1.261871e-004
3.255275e-004,1.342904e-004
2.462775e-004,1.347766e-004
1.762653e-004,1.263492e-004
1.028497e-004,1.081979e-004
1.841368e-005,8.356393e-005
-7.282909e-005,5.682316e-005
-1.517549e-004,3.494434e-005
-1.925954e-004,2.424803e-005
-1.856265e-004,2.327564e-005
-1.321450e-004,2.716520e-005
-3.928157e-005,3.105477e-005
8.064676e-005,3.316162e-005
2.195368e-004,2.894792e-005
3.723644e-004,1.711715e-005
5.219507e-004,2.855406e-006
6.399344e-004,-1.318906e-005
7.049225e-004,-2.339917e-005
6.926056e-004,-2.129233e-005
5.655463e-004,-6.868512e-006
2.880904e-004,1.257933e-005
-1.203142e-004,2.781346e-005
-5.771763e-004,3.154097e-005
-9.987081e-004,2.197911e-005
-1.351200e-003,3.017472e-006
-1.621039e-003,-1.610623e-005
-1.782942e-003,-3.198863e-005
-1.803200e-003,-4.365734e-005
-1.658314e-003,-5.013995e-005
-1.363679e-003,-5.143647e-005
-9.803947e-004,-4.997788e-005
-5.873864e-004,-5.078821e-005
-2.523974e-004,-5.565017e-005
-9.461557e-006,-5.953974e-005
1.388282e-004,-5.727082e-005
2.149989e-004,-4.317114e-005
2.493568e-004,-2.242678e-005
2.679943e-004,-2.168618e-006
2.877662e-004,1.338965e-005
3.128864e-004,2.181705e-005
3.386548e-004,2.149292e-005
3.602095e-004,1.614476e-005
3.799814e-004,9.175954e-006
3.974845e-004,6.420843e-006
4.107739e-004,8.851824e-006
4.159599e-004,1.419998e-005
4.073705e-004,1.419998e-005
3.841952e-004,4.151929e-006
3.483787e-004,-9.623623e-006
3.062417e-004,-1.691656e-005
2.697770e-004,-9.785687e-006
2.563256e-004,1.225519e-005
2.764217e-004,4.142695e-005
3.295791e-004,6.962632e-005
4.004017e-004,9.134307e-005
4.624727e-004,1.039842e-004
4.963444e-004,1.098185e-004
5.003960e-004,1.132219e-004
4.867825e-004,1.166253e-004
4.640934e-004,1.205148e-004
4.232529e-004,1.226217e-004
3.268240e-004,1.153287e-004
1.527658e-004,1.000946e-004
-4.851930e-005,8.486046e-005
-1.859507e-004,7.594687e-005
-2.036158e-004,7.189524e-005
-1.079973e-004,6.962632e-005
4.758544e-005,6.946425e-005
2.004130e-004,7.724339e-005
3.068900e-004,9.004655e-005
3.517821e-004,1.000946e-004
3.427064e-004,1.038221e-004
3.041349e-004,1.022014e-004
2.611876e-004,9.798775e-005
2.308813e-004,9.733949e-005
2.162954e-004,1.023635e-004
2.101370e-004,1.099806e-004
1.971717e-004,1.167873e-004
1.696206e-004,1.247285e-004
1.312111e-004,1.338042e-004
8.810177e-005,1.441764e-004
4.596478e-005,1.532520e-004
9.500084e-006,1.576278e-004
-2.388537e-005,1.537382e-004
-5.905355e-005,1.401247e-004
-1.013526e-004,1.163011e-004
-1.509446e-004,8.567078e-005
-2.011848e-004,5.520250e-005
-2.345703e-004,2.603075e-005
-2.232257e-004,1.720949e-006
-1.418689e-004,-1.772689e-005
1.209313e-005,-3.847125e-005
2.059233e-004,-6.391550e-005
3.819262e-004,-9.276313e-005
4.984512e-004,-1.186936e-004
5.415606e-004,-1.366828e-004
5.224369e-004,-1.417068e-004
4.653899e-004,-1.324691e-004
4.023465e-004,-1.101041e-004
3.592371e-004,-8.125648e-005
3.511338e-004,-5.646050e-005
3.700955e-004,-3.847125e-005
3.939191e-004,-2.583015e-005
4.065602e-004,-1.480971e-005
4.029947e-004,-9.299492e-006
3.833848e-004,-1.205460e-005
3.242310e-004,-2.096819e-005
1.616794e-004,-3.053005e-005
-2.016710e-004,-4.074016e-005
-7.705201e-004,-4.997788e-005
-1.389285e-003,-5.613637e-005
-1.852306e-003,-5.775702e-005
-2.021827e-003,-5.240886e-005
-1.872726e-003,-4.057810e-005
-1.478908e-003,-2.437157e-005
-9.724534e-004,-8.975361e-006
-4.859335e-004,1.558884e-006
-1.120489e-004,8.041497e-006
1.103047e-004,1.225519e-005
1.937684e-004,1.533444e-005
1.845306e-004,1.679302e-005
1.334801e-004,1.387585e-005
7.756751e-005,7.717366e-006
3.364782e-005,1.883015e-006
1.558884e-006,-2.168618e-006
-2.664048e-005,-5.247859e-006
-5.208473e-005,-5.896120e-006
-6.926366e-005,-3.951337e-006
-7.720485e-005,-5.479652e-007
-7.250496e-005,2.623614e-007
-5.581224e-005,-5.085794e-006
-3.328516e-005,-1.529591e-005
-9.299492e-006,-2.339917e-005
1.209313e-005,-1.983374e-005
2.732727e-005,-6.176923e-008
3.915804e-005,3.494434e-005
5.163707e-005,7.043664e-005
6.800567e-005,9.458438e-005
8.599491e-005,1.010670e-004
1.085220e-004,9.344992e-005
1.380179e-004,8.048469e-005
1.733481e-004,6.978838e-005
2.109473e-004,6.719534e-005
2.440086e-004,7.416414e-005
2.689667e-004,8.469840e-005
2.890628e-004,9.409818e-005
3.130485e-004,1.013911e-004
3.485408e-004,1.091703e-004
3.843572e-004,1.154908e-004
4.023465e-004,1.195424e-004
4.005638e-004,1.206769e-004
3.945674e-004,1.188942e-004
4.026706e-004,1.148425e-004
4.251977e-004,1.112771e-004
4.490213e-004,1.088461e-004
4.676588e-004,1.047945e-004
4.871067e-004,9.863601e-005
5.148199e-004,9.312579e-005
5.441537e-004,8.891209e-005
5.616568e-004,8.664317e-005
5.537155e-004,8.567078e-005
5.157922e-004,8.048469e-005
4.537212e-004,6.751947e-005
3.731747e-004,4.839576e-005
2.675081e-004,2.813760e-005
1.137081e-004,1.549650e-005
-1.032974e-004,9.824214e-006
-3.778360e-004,1.257933e-005
-6.739292e-004,2.311357e-005
-9.330716e-004,4.272347e-005
-1.092868e-003,6.508849e-005
-1.112802e-003,8.486046e-005
-1.012322e-003,9.263960e-005
-8.455564e-004,7.935023e-005
-6.499436e-004,4.628891e-005
-4.376381e-004,5.610517e-006
-2.063709e-004,-2.388537e-005
3.056858e-005,-3.020592e-005
2.391467e-004,-1.432352e-005
3.811159e-004,1.565857e-005
4.318423e-004,5.147500e-005
3.910019e-004,8.291567e-005
2.900352e-004,1.023635e-004
1.761032e-004,1.086841e-004
8.469840e-005,1.033359e-004
3.154097e-005,8.810177e-005
1.695509e-005,6.476436e-005
3.656499e-005,3.462021e-005
8.534666e-005,2.531276e-006
1.569795e-004,-2.728874e-005
2.360674e-004,-5.013995e-005
3.094830e-004,-5.856734e-005
3.720402e-004,-5.176060e-005
4.209840e-004,-3.441962e-005
4.626348e-004,-1.399939e-005
4.880791e-004,4.800190e-006
4.521005e-004,1.792748e-005
2.807975e-004,2.246531e-005
-6.910160e-005,1.322759e-005
-5.470321e-004,-9.785687e-006
-1.022208e-003,-3.847125e-005
-1.353145e-003,-6.132245e-005
-1.456867e-003,-7.444974e-005
-1.335156e-003,-8.125648e-005
-1.056565e-003,-8.498399e-005
-7.193075e-004,-8.838737e-005
-4.084663e-004,-8.725291e-005
-1.697441e-004,-8.174268e-005
-7.516774e-006,-7.720485e-005
9.539470e-005,-7.574627e-005
1.555209e-004,-7.979790e-005
1.837203e-004,-8.838737e-005
1.871237e-004,-9.746302e-005
1.770756e-004,-1.037836e-004
1.718895e-004,-1.020008e-004
1.994406e-004,-8.757703e-005
2.770700e-004,-5.840528e-005
3.971604e-004,-2.323711e-005
5.342677e-004,7.231170e-006
6.601926e-004,3.137890e-005
7.533801e-004,5.487837e-005
8.028101e-004,8.372600e-005
8.055652e-004,1.214872e-004
7.587283e-004,1.637863e-004
6.661889e-004,2.038164e-004
5.514466e-004,2.321778e-004
4.384870e-004,2.449810e-004
3.124002e-004,2.438465e-004
1.292664e-004,2.295848e-004
-1.233935e-004,2.078680e-004
-4.023078e-004,1.876099e-004
-6.266062e-004,1.731861e-004
-7.246557e-004,1.647587e-004
-6.778188e-004,1.560071e-004
-5.259637e-004,1.383420e-004
-3.363473e-004,1.125736e-004
-1.647201e-004,8.534666e-005
-4.025397e-005,6.249544e-005
3.575467e-005,4.888196e-005
7.416414e-005,4.742337e-005
9.263960e-005,5.455424e-005
1.132219e-004,6.346784e-005
1.522796e-004,7.092283e-005
2.138645e-004,7.546067e-005
2.919800e-004,7.740545e-005
3.747953e-004,7.643306e-005
4.480489e-004,6.962632e-005
5.010443e-004,5.504044e-005
5.324850e-004,3.624086e-005
5.415606e-004,1.484824e-005
5.125509e-004,-6.544382e-006
4.088291e-004,-2.826113e-005
2.175920e-004,-4.738484e-005
-2.238345e-007,-5.970180e-005
-1.593720e-004,-6.812920e-005
-2.102605e-004,-8.012203e-005
-1.567789e-004,-9.746302e-005
-4.333321e-005,-1.149661e-004
7.659513e-005,-1.282554e-004
1.626518e-004,-1.344139e-004
1.987924e-004,-1.336036e-004
1.855030e-004,-1.235555e-004
1.269974e-004,-1.096179e-004
3.802358e-005,-9.730095e-005
-6.310517e-005,-8.984595e-005
-1.692580e-004,-8.465986e-005
-2.674695e-004,-7.769105e-005
-3.318094e-004,-6.683268e-005
-3.316474e-004,-5.532604e-005
-2.553146e-004,-4.057810e-005
-1.263107e-004,-2.323711e-005
5.934647e-006,-4.437533e-006
9.507057e-005,7.555300e-006
1.235941e-004,1.355172e-005
1.005808e-004,1.727922e-005
5.163707e-005,2.505835e-005
2.531276e-006,3.397195e-005
-3.085418e-005,4.369587e-005
-4.252288e-005,5.293359e-005
-3.020592e-005,5.536457e-005
9.106226e-007,4.807163e-005
4.337174e-005,3.056858e-005
9.037068e-005,1.031041e-005
1.328318e-004,-4.275467e-006
1.550348e-004,-5.571990e-006
1.474177e-004,7.555300e-006
1.064151e-004,2.846173e-005
4.288554e-005,4.628891e-005
-2.437157e-005,5.277152e-005
-7.072224e-005,5.163707e-005
-7.623246e-005,4.920609e-005
-4.398147e-005,4.969228e-005
3.827798e-006,5.374392e-005
4.029249e-005,6.444023e-005
4.823369e-005,8.242948e-005
3.137890e-005,1.038221e-004
1.014835e-005,1.200286e-004
-4.923729e-006,1.286181e-004
-2.534396e-005,1.334801e-004
-7.282909e-005,1.393144e-004
-1.553203e-004,1.461212e-004
-2.603386e-004,1.529279e-004
-3.506090e-004,1.584381e-004
-3.838324e-004,1.631380e-004
-3.369955e-004,1.645966e-004
-2.173913e-004,1.607070e-004
-5.694669e-005,1.474177e-004
1.088461e-004,1.244044e-004
2.527601e-004,9.669123e-005
3.628025e-004,7.059870e-005
4.380009e-004,4.677511e-005
4.845136e-004,2.813760e-005
5.123889e-004,1.808955e-005
5.294057e-004,1.695509e-005
5.449640e-004,2.003433e-005
5.605223e-004,2.489629e-005
5.652222e-004,3.299956e-005
5.472329e-004,4.434413e-005
4.995857e-004,5.520250e-005
4.219564e-004,6.152305e-005
3.188828e-004,6.427816e-005
1.987924e-004,7.011251e-005
7.724339e-005,8.340186e-005
-3.522994e-005,1.004187e-004
-1.332795e-004,1.137081e-004
-2.225774e-004,1.190562e-004
-3.178718e-004,1.132219e-004
-4.355312e-004,1.004187e-004
-5.681007e-004,8.907416e-005
-6.886772e-004,8.242948e-005
-7.687375e-004,7.691926e-005
-7.899679e-004,7.076077e-005
-7.486413e-004,6.055066e-005
-6.536711e-004,4.304760e-005
-5.258016e-004,1.971020e-005
-3.909633e-004,-7.678839e-006
-2.645523e-004,-3.685059e-005
-1.480274e-004,-6.375343e-005
-4.122636e-005,-8.514606e-005
5.374392e-005,-9.746302e-005
1.315353e-004,-1.000561e-004
1.801549e-004,-9.713889e-005
1.877719e-004,-9.114247e-005
1.513072e-004,-8.190475e-005
7.918817e-005,-6.796713e-005
-9.461557e-006,-5.597430e-005
-9.357345e-005,-5.030201e-005
-1.519170e-004,-4.851930e-005
-1.681235e-004,-4.787104e-005
-1.384655e-004,-4.689864e-005
-7.315322e-005,-4.608832e-005
8.527692e-006,-4.155049e-005
9.101894e-005,-2.680255e-005
1.689724e-004,1.234753e-006
2.367157e-004,3.121684e-005
2.807975e-004,5.050261e-005
2.832284e-004,5.439218e-005
2.384984e-004,4.369587e-005
1.621656e-004,2.473422e-005
8.826383e-005,5.772582e-006
4.126489e-005,-4.761663e-006
2.505835e-005,-2.654814e-006
2.765140e-005,9.500084e-006
4.450619e-005,2.732727e-005
7.157111e-005,4.434413e-005
1.069013e-004,5.747142e-005
1.684862e-004,6.654707e-005
2.816078e-004,7.027457e-005
4.508040e-004,6.930219e-005
6.349103e-004,6.670914e-005
7.297186e-004,6.314371e-005
6.138418e-004,5.860587e-005
2.786906e-004,5.358185e-005
-1.757406e-004,5.196120e-005
-6.444334e-004,5.374392e-005
-1.058024e-003,5.763348e-005
-1.362059e-003,5.844381e-005
-1.508566e-003,5.617490e-005
-1.471128e-003,5.034054e-005
-1.271464e-003,4.223728e-005
-9.763431e-004,3.137890e-005
-6.667983e-004,2.035846e-005
-4.010113e-004,1.047248e-005
-1.898402e-004,5.124321e-006
-6.544382e-006,6.744974e-006
1.736723e-004,1.176900e-005
3.582647e-004,1.744128e-005
5.303781e-004,2.100672e-005
6.626235e-004,2.359977e-005
7.352288e-004,2.554455e-005
7.473837e-004,2.197911e-005
7.063812e-004,1.290346e-005
6.287518e-004,2.207145e-006
5.324850e-004,-7.354708e-006
4.315182e-004,-1.626830e-005
3.243930e-004,-2.307504e-005
2.122438e-004,-2.518189e-005
1.022014e-004,-2.194059e-005
1.679302e-005,-1.497178e-005
-2.258885e-005,-7.516774e-006
-1.189254e-005,-2.816880e-006
4.596478e-005,-2.816880e-006
1.477418e-004,-5.409925e-006
2.923041e-004,-8.975361e-006
4.687933e-004,-1.318906e-005
6.457687e-004,-1.675450e-005
7.823899e-004,-2.048200e-005
8.595330e-004,-2.275091e-005
8.759017e-004,-2.113026e-005
8.475402e-004,-1.383732e-005
8.005412e-004,-1.358292e-006
7.613213e-004,1.306552e-005
7.467354e-004,2.408596e-005
7.533801e-004,2.684107e-005
7.705591e-004,2.878586e-005
7.780141e-004,3.575467e-005
7.391184e-004,5.034054e-005
5.940698e-004,7.416414e-005
2.619979e-004,9.863601e-005
-2.875656e-004,1.164632e-004
-9.392301e-004,1.235941e-004
-1.487983e-003,1.231079e-004
-1.770625e-003,1.184080e-004
-1.736916e-003,1.120874e-004
-1.445360e-003,1.085220e-004
-1.013780e-003,1.075496e-004
-5.719902e-004,1.073875e-004
-2.143121e-004,1.080358e-004
2.068259e-005,1.127357e-004
1.398006e-004,1.192183e-004
1.811273e-004,1.203528e-004
1.905270e-004,1.120874e-004
2.034923e-004,9.312579e-005
2.354192e-004,6.881599e-005
2.801492e-004,4.434413e-005
3.258516e-004,2.522042e-005
3.665300e-004,1.663096e-005
3.948915e-004,1.825161e-005
4.070464e-004,2.181705e-005
4.038051e-004,2.246531e-005
3.824124e-004,2.068259e-005
3.396272e-004,2.003433e-005
2.756114e-004,2.100672e-005
1.913374e-004,2.489629e-005
8.599491e-005,2.975825e-005
-2.939559e-005,3.526847e-005
-1.314967e-004,4.077869e-005
-2.005366e-004,4.758544e-005
-2.352185e-004,5.747142e-005
-2.465631e-004,6.768153e-005
-2.499665e-004,7.724339e-005
-2.558008e-004,8.259154e-005
-2.595283e-004,8.113296e-005
-2.441321e-004,7.270556e-005
-1.984297e-004,6.298164e-005
-1.287416e-004,6.184718e-005
-4.706071e-005,6.914012e-005
3.640293e-005,8.210535e-005
1.128978e-004,9.652916e-005
1.761032e-004,1.124116e-004
2.299089e-004,1.295905e-004
2.843629e-004,1.435281e-004
3.457856e-004,1.466074e-004
4.042912e-004,1.331559e-004
4.469145e-004,1.047945e-004
4.606900e-004,6.751947e-005
4.341113e-004,2.603075e-005
3.655576e-004,-1.173047e-005
2.730183e-004,-4.203669e-005
1.830720e-004,-6.796713e-005
1.086841e-004,-9.535618e-005
4.953022e-005,-1.243659e-004
3.017472e-006,-1.485136e-004
-3.847125e-005,-1.629374e-004
-8.141856e-005,-1.643960e-004
-1.295519e-004,-1.517549e-004
-1.815749e-004,-1.245279e-004
-2.319772e-004,-8.628051e-005
-2.713591e-004,-3.992984e-005
-2.935620e-004,4.313994e-006
-2.950206e-004,3.575467e-005
-2.742762e-004,5.293359e-005
-2.297083e-004,5.990240e-005
-1.606685e-004,6.087479e-005
-7.299116e-005,5.893001e-005
2.311357e-005,5.682316e-005
1.096565e-004,5.115087e-005
1.527658e-004,4.320967e-005
1.252147e-004,3.769945e-005
3.137890e-005,3.964423e-005
-9.681476e-005,4.888196e-005
-2.225774e-004,5.763348e-005
-3.167374e-004,5.455424e-005
-3.650328e-004,3.883391e-005
-3.673017e-004,2.116879e-005
-3.348887e-004,1.095867e-005
-2.838381e-004,1.209313e-005
-2.277635e-004,2.181705e-005
-1.721751e-004,3.024445e-005
-1.060525e-004,2.992031e-005
-1.934754e-005,2.214118e-005
9.361198e-005,1.112074e-005
2.305572e-004,3.827798e-006
3.830607e-004,7.485573e-007
5.287575e-004,1.720949e-006
6.407447e-004,5.448451e-006
6.981159e-004,1.306552e-005
6.969814e-004,2.392390e-005
6.481997e-004,3.316162e-005
5.695979e-004,4.158902e-005
4.705760e-004,5.050261e-005
3.461098e-004,5.633696e-005
1.830720e-004,5.520250e-005
-2.631635e-005,4.823369e-005
-2.700626e-004,3.624086e-005
-5.245051e-004,1.922400e-005
-7.573929e-004,2.045080e-006
-9.374474e-004,-9.947754e-006
-1.052676e-003,-1.156841e-005
-1.117016e-003,-7.030578e-006
-1.136463e-003,-8.720958e-007
-1.106481e-003,5.610517e-006
-1.014590e-003,9.175954e-006
-8.557665e-004,5.610517e-006
-6.473506e-004,-3.951337e-006
-4.217557e-004,-1.335112e-005
-2.173913e-004,-1.853721e-005
-6.132245e-005,-2.031993e-005
4.272347e-005,-1.918548e-005
1.030118e-004,-1.367526e-005
1.316973e-004,-4.113402e-006
1.483901e-004,9.013888e-006
1.746447e-004,1.987226e-005
2.203471e-004,2.246531e-005
2.769079e-004,1.857574e-005
3.367100e-004,1.371378e-005
4.005638e-004,1.322759e-005
4.686312e-004,1.744128e-005
5.250300e-004,2.635488e-005
5.516087e-004,3.867184e-005
5.381573e-004,5.406805e-005
4.976409e-004,7.238143e-005
4.665244e-004,8.891209e-005
4.739794e-004,1.010670e-004
5.230852e-004,1.086841e-004
5.982835e-004,1.132219e-004
6.705647e-004,1.187321e-004
7.063812e-004,1.265113e-004
6.765611e-004,1.325077e-004
5.752702e-004,1.359110e-004
4.122324e-004,1.357490e-004
2.127300e-004,1.300767e-004
1.306552e-005,1.218114e-004
-1.536997e-004,1.164632e-004
-2.655248e-004,1.180839e-004
-3.138202e-004,1.234320e-004
-3.107410e-004,1.257009e-004
-2.844864e-004,1.226217e-004
-2.668213e-004,1.159770e-004
-2.690902e-004,1.081979e-004
-2.737901e-004,1.009049e-004
-2.515871e-004,9.312579e-005
-1.814128e-004,8.210535e-005
-5.451571e-005,6.881599e-005
1.213252e-004,5.358185e-005
3.177483e-004,3.348575e-005
4.896997e-004,8.203561e-006
5.969870e-004,-1.983374e-005
6.258346e-004,-5.143647e-005
5.892079e-004,-8.158062e-005
5.161164e-004,-1.021629e-004
4.315182e-004,-1.057284e-004
3.449753e-004,-9.260106e-005
2.504912e-004,-7.331529e-005
1.443384e-004,-6.051213e-005
2.473422e-005,-5.581224e-005
-1.178833e-004,-5.321919e-005
-2.843243e-004,-4.835723e-005
-4.520619e-004,-4.090223e-005
-5.834968e-004,-3.182657e-005
-6.458919e-004,-2.258885e-005
-6.350335e-004,-1.513384e-005
-5.690730e-004,-1.254080e-005
-4.684305e-004,-1.691656e-005
-3.587123e-004,-2.404744e-005
-2.598524e-004,-2.907146e-005
-1.838438e-004,-3.020592e-005
-1.347380e-004,-2.874733e-005
-1.055663e-004,-2.258885e-005
-8.692878e-005,-1.351319e-005
-6.893953e-005,-1.520357e-006
-5.159854e-005,1.290346e-005
-4.074016e-005,2.489629e-005
-3.506787e-005,3.154097e-005
-2.664048e-005,3.105477e-005
-9.623623e-006,2.748933e-005
1.922400e-005,2.133085e-005
5.698522e-005,1.549650e-005
9.831188e-005,9.986280e-006
1.365593e-004,7.231170e-006
1.603829e-004,6.907039e-006
1.545486e-004,9.013888e-006
1.185700e-004,1.452411e-005
6.784360e-005,2.359977e-005
2.278944e-005,3.705119e-005
5.448451e-006,5.260946e-005
3.170303e-005,6.444023e-005
1.059289e-004,6.638501e-005
2.263435e-004,5.714729e-005
3.880847e-004,3.850977e-005
5.791598e-004,1.808955e-005
7.691005e-004,5.772582e-006
9.018321e-004,4.313994e-006
9.050734e-004,1.225519e-005
