-3.393342e-005,-6.521203e-005
-9.422171e-005,-7.056018e-005
-1.255003e-004,-8.692878e-005
-1.276072e-004,-1.057284e-004
-1.045939e-004,-1.182074e-004
-6.132245e-005,-1.243659e-004
-4.113402e-006,-1.269589e-004
5.277152e-005,-1.279313e-004
9.101894e-005,-1.258244e-004
9.847395e-005,-1.206384e-004
7.821578e-005,-1.117248e-004
4.612685e-005,-1.002181e-004
1.274139e-005,-8.887356e-005
-1.967167e-005,-8.158062e-005
-5.386745e-005,-7.558420e-005
-8.579432e-005,-6.440169e-005
-1.083214e-004,-4.430560e-005
-1.139937e-004,-2.064406e-005
-1.008664e-004,-2.654814e-006
-7.444974e-005,6.258778e-006
-4.138842e-005,9.175954e-006
-1.059601e-005,1.209313e-005
2.693341e-006,1.873781e-005
-1.837515e-005,2.651694e-005
-8.303921e-005,3.316162e-005
-1.916230e-004,3.786152e-005
-3.258130e-004,4.256141e-005
-4.540066e-004,4.693717e-005
-5.449253e-004,4.774750e-005
-5.783107e-004,4.790957e-005
-5.507596e-004,4.418206e-005
-4.783164e-004,4.094075e-005
-3.857772e-004,3.932010e-005
-2.888622e-004,4.013043e-005
-1.900023e-004,4.645098e-005
-8.384953e-005,5.909207e-005
2.862379e-005,7.367795e-005
1.349386e-004,8.712937e-005
2.222919e-004,9.733949e-005
2.801492e-004,1.052807e-004
3.055935e-004,1.128978e-004
3.031625e-004,1.206769e-004
2.780423e-004,1.261871e-004
2.391467e-004,1.229458e-004
1.952270e-004,1.101426e-004
1.587622e-004,9.166720e-005
1.420695e-004,7.384001e-005
1.539003e-004,6.152305e-005
1.983062e-004,5.698522e-005
2.720459e-004,5.730935e-005
3.615060e-004,5.941620e-005
4.467524e-004,6.038860e-005
5.067165e-004,5.811968e-005
5.324850e-004,4.969228e-005
5.269747e-004,3.753739e-005
4.974788e-004,2.538249e-005
4.472386e-004,1.614476e-005
3.791711e-004,9.500084e-006
2.872800e-004,9.338019e-006
1.723757e-004,1.371378e-005
4.693717e-005,2.424803e-005
-7.817725e-005,3.867184e-005
-1.977814e-004,5.406805e-005
-3.092824e-004,6.638501e-005
-4.037664e-004,7.238143e-005
-4.766958e-004,6.978838e-005
-5.269360e-004,5.925414e-005
-5.556216e-004,4.337174e-005
-5.556216e-004,2.878586e-005
-5.155915e-004,1.857574e-005
-4.384484e-004,1.355172e-005
-3.363473e-004,1.257933e-005
-2.267911e-004,1.760335e-005
-1.274451e-004,2.765140e-005
-4.900549e-005,4.385793e-005
7.393235e-006,6.525056e-005
4.515445e-005,9.020861e-005
6.946425e-005,1.135460e-004
9.020861e-005,1.274836e-004
1.141943e-004,1.119254e-004
1.479039e-004,2.716520e-005
2.077060e-004,-1.483515e-004
2.961937e-004,-3.886943e-004
3.840331e-004,-6.364922e-004
4.313562e-004,-8.567389e-004
4.135290e-004,-1.040197e-003
3.295791e-004,-1.179573e-003
2.033302e-004,-1.249585e-003
7.108490e-005,-1.218469e-003
-3.960571e-005,-1.067100e-003
-1.217728e-004,-8.035815e-004
-1.810887e-004,-4.629203e-004
-2.258187e-004,-8.968388e-005
-2.509389e-004,2.759355e-004
-2.382978e-004,6.114109e-004
-1.676373e-004,9.120423e-004
-4.155049e-005,1.181233e-003
1.062531e-004,1.406828e-003
2.269918e-004,1.568408e-003
2.772320e-004,1.648144e-003
2.316917e-004,1.640851e-003
8.729143e-005,1.553012e-003
-1.319829e-004,1.394511e-003
-3.843186e-004,1.177506e-003
-6.197994e-004,9.250075e-004
-7.925610e-004,6.689440e-004
-8.669490e-004,4.415663e-004
-8.296740e-004,2.642668e-004
-6.915944e-004,1.388282e-004
-4.800992e-004,4.612685e-005
-2.327876e-004,-3.928157e-005
7.231170e-006,-1.300381e-004
2.091646e-004,-2.272773e-004
3.561578e-004,-3.217614e-004
4.454558e-004,-3.946908e-004
4.918065e-004,-4.309934e-004
5.148199e-004,-4.258073e-004
5.294057e-004,-3.812393e-004
5.383193e-004,-3.105789e-004
5.378331e-004,-2.305186e-004
5.279472e-004,-1.541859e-004
5.109303e-004,-9.049421e-005
4.906721e-004,-4.106429e-005
4.687933e-004,-2.238345e-007
4.436731e-004,3.802358e-005
4.138531e-004,7.546067e-005
3.851675e-004,1.088461e-004
3.592371e-004,1.323456e-004
3.358997e-004,1.380179e-004
3.112657e-004,1.239182e-004
2.812837e-004,9.393611e-005
2.444948e-004,5.698522e-005
1.992786e-004,2.019640e-005
1.454729e-004,-1.416145e-005
7.740545e-005,-4.511592e-005
-4.923729e-006,-7.477388e-005
-8.984595e-005,-1.062145e-004
-1.546721e-004,-1.394379e-004
-1.867610e-004,-1.715269e-004
-1.937298e-004,-1.968091e-004
-1.814128e-004,-2.125294e-004
-1.525652e-004,-2.175534e-004
-1.185315e-004,-2.157707e-004
-9.665269e-005,-2.128535e-004
-9.649063e-005,-2.086398e-004
-1.185315e-004,-2.036158e-004
-1.551583e-004,-1.992400e-004
-1.990780e-004,-1.984297e-004
-2.350565e-004,-1.994021e-004
-2.488320e-004,-2.024813e-004
-2.319772e-004,-2.099363e-004
-1.856265e-004,-2.232257e-004
-1.195039e-004,-2.370012e-004
-5.095028e-005,-2.433218e-004
3.827798e-006,-2.374874e-004
3.818564e-005,-2.170672e-004
5.520250e-005,-1.888679e-004
6.265751e-005,-1.626133e-004
6.006446e-005,-1.408965e-004
4.353380e-005,-1.209625e-004
1.873781e-005,-9.811128e-005
2.369210e-006,-7.120844e-005
1.063454e-005,-3.928157e-005
4.466826e-005,-3.951337e-006
9.134307e-005,2.878586e-005
1.367214e-004,5.066468e-005
1.769136e-004,6.022653e-005
2.184023e-004,6.006446e-005
2.654012e-004,6.152305e-005
3.128864e-004,7.059870e-005
3.459477e-004,8.226741e-005
3.451374e-004,8.712937e-005
3.049452e-004,8.032263e-005
2.417397e-004,6.395403e-005
1.843686e-004,4.483032e-005
1.573037e-004,3.170303e-005
1.702689e-004,2.992031e-005
2.159713e-004,3.899597e-005
2.816078e-004,5.374392e-005
3.564820e-004,6.865393e-005
4.245494e-004,8.032263e-005
4.640934e-004,8.988448e-005
4.559901e-004,1.015532e-004
3.918122e-004,1.171115e-004
2.765838e-004,1.399627e-004
1.349386e-004,1.722137e-004
-4.275467e-006,2.060853e-004
-1.115627e-004,2.312054e-004
-1.784957e-004,2.355812e-004
-2.123673e-004,2.187264e-004
-2.319772e-004,1.953890e-004
-2.460769e-004,1.767515e-004
-2.530457e-004,1.595726e-004
-2.470493e-004,1.367214e-004
-2.267911e-004,1.073875e-004
-1.998883e-004,7.351588e-005
-1.833576e-004,3.251336e-005
-1.844921e-004,-1.837515e-005
-2.018331e-004,-7.315322e-005
-2.345703e-004,-1.204763e-004
-2.711970e-004,-1.535376e-004
-3.015032e-004,-1.757406e-004
-3.219235e-004,-1.911368e-004
-3.391023e-004,-2.003745e-004
-3.506090e-004,-2.008607e-004
-3.483401e-004,-1.940539e-004
-3.314853e-004,-1.775233e-004
-3.052307e-004,-1.558065e-004
-2.749245e-004,-1.400862e-004
-2.417011e-004,-1.365208e-004
-2.029675e-004,-1.438137e-004
-1.583996e-004,-1.663408e-004
-1.148040e-004,-2.091260e-004
-7.752898e-005,-2.689281e-004
-5.208473e-005,-3.301888e-004
-4.009190e-005,-3.731361e-004
-3.928157e-005,-3.830221e-004
-4.641245e-005,-3.540124e-004
-5.386745e-005,-2.912931e-004
-5.143647e-005,-2.088019e-004
-3.312309e-005,-1.149661e-004
-5.479652e-007,-1.140634e-005
3.850977e-005,1.017153e-004
7.432621e-005,2.200230e-004
1.056048e-004,3.388168e-004
1.351007e-004,4.571246e-004
1.718895e-004,5.718669e-004
2.269918e-004,6.768852e-004
3.025142e-004,7.678040e-004
3.833848e-004,8.384645e-004
4.399456e-004,8.822222e-004
4.399456e-004,8.956736e-004
3.709058e-004,8.791430e-004
2.464396e-004,8.311716e-004
9.912220e-005,7.499768e-004
-3.636440e-005,6.426895e-004
-1.374931e-004,5.216266e-004
-1.922712e-004,4.070464e-004
-1.916230e-004,3.162897e-004
-1.396000e-004,2.551911e-004
-5.986387e-005,2.232642e-004
8.041497e-006,2.151610e-004
3.073064e-005,2.200230e-004
-2.492749e-006,2.271538e-004
-7.817725e-005,2.297469e-004
-1.616409e-004,2.203471e-004
-2.182017e-004,1.997648e-004
-2.259808e-004,1.730240e-004
-1.838438e-004,1.475797e-004
-1.039456e-004,1.258630e-004
-9.623623e-006,1.067393e-004
7.805372e-005,9.004655e-005
1.441764e-004,7.286762e-005
1.853410e-004,5.034054e-005
1.996027e-004,2.295151e-005
1.914994e-004,-2.330684e-006
1.607070e-004,-2.566809e-005
1.114392e-004,-4.608832e-005
4.483032e-005,-6.391550e-005
-3.992984e-005,-8.158062e-005
-1.357104e-004,-1.036215e-004
-2.267911e-004,-1.311726e-004
-2.956689e-004,-1.608306e-004
-3.271095e-004,-1.888679e-004
-3.199787e-004,-2.128535e-004
-2.840002e-004,-2.316531e-004
-2.399184e-004,-2.389460e-004
-2.065330e-004,-2.384598e-004
-1.848162e-004,-2.392702e-004
-1.588858e-004,-2.473734e-004
-1.130213e-004,-2.661730e-004
-4.268495e-005,-2.904828e-004
4.855782e-005,-3.083100e-004
1.569795e-004,-3.151167e-004
2.759355e-004,-3.068514e-004
3.913260e-004,-2.810830e-004
4.793275e-004,-2.421873e-004
5.193577e-004,-1.979435e-004
4.995857e-004,-1.540238e-004
4.226046e-004,-1.112386e-004
3.031625e-004,-7.072224e-005
1.767515e-004,-3.069211e-005
9.831188e-005,1.257933e-005
1.116012e-004,6.152305e-005
2.075439e-004,1.132219e-004
3.431926e-004,1.647587e-004
4.704139e-004,2.033302e-004
5.542017e-004,2.179161e-004
5.846700e-004,2.055991e-004
5.754323e-004,1.710792e-004
5.456123e-004,1.247285e-004
5.096338e-004,7.610893e-005
4.674967e-004,3.283749e-005
4.172565e-004,-6.176923e-008
3.529165e-004,-2.404744e-005
2.762596e-004,-4.835723e-005
1.965235e-004,-7.866345e-005
1.234320e-004,-1.143178e-004
6.492643e-005,-1.493239e-004
2.424803e-005,-1.786577e-004
2.693341e-006,-1.964849e-004
3.989864e-006,-2.021572e-004
3.218923e-005,-1.985918e-004
7.578480e-005,-1.878955e-004
1.093323e-004,-1.763888e-004
1.138701e-004,-1.682856e-004
8.453633e-005,-1.648822e-004
1.565857e-005,-1.669890e-004
-1.008664e-004,-1.708786e-004
-2.689281e-004,-1.697441e-004
-4.763717e-004,-1.626133e-004
-6.998597e-004,-1.533756e-004
-9.032516e-004,-1.447861e-004
-1.045383e-003,-1.400862e-004
-1.091409e-003,-1.349001e-004
-1.027232e-003,-1.284175e-004
-8.646800e-004,-1.216107e-004
-6.329267e-004,-1.172350e-004
-3.783222e-004,-1.139937e-004
-1.399241e-004,-1.078352e-004
5.844381e-005,-9.600443e-005
1.979821e-004,-7.898758e-005
2.731804e-004,-5.824321e-005
2.911697e-004,-3.409548e-005
2.692908e-004,-1.092015e-005
2.273159e-004,6.907039e-006
1.816135e-004,1.727922e-005
1.435281e-004,1.987226e-005
1.229458e-004,2.100672e-005
1.185700e-004,2.392390e-005
1.219734e-004,2.878586e-005
1.300767e-004,3.251336e-005
1.440143e-004,3.121684e-005
1.639483e-004,1.760335e-005
1.911753e-004,-1.221667e-005
2.256952e-004,-6.035006e-005
2.576221e-004,-1.243659e-004
2.725321e-004,-1.874093e-004
2.654012e-004,-2.348944e-004
2.370398e-004,-2.909690e-004
1.900409e-004,-4.128421e-004
1.299146e-004,-6.183409e-004
6.670914e-005,-8.624112e-004
1.565857e-005,-1.078768e-003
-1.075808e-005,-1.218469e-003
-8.489165e-006,-1.251044e-003
1.776542e-005,-1.163042e-003
5.698522e-005,-9.572193e-004
9.831188e-005,-6.577227e-004
1.304008e-004,-2.974516e-004
1.402868e-004,9.652916e-005
1.187321e-004,5.005581e-004
6.930219e-005,8.885428e-004
3.989864e-006,1.233904e-003
-6.715681e-005,1.521895e-003
-1.379793e-004,1.747490e-003
-2.029675e-004,1.910691e-003
-2.549905e-004,2.008255e-003
-2.896725e-004,2.038399e-003
-3.071755e-004,1.996262e-003
-3.113892e-004,1.880060e-003
-3.078238e-004,1.702598e-003
-3.002067e-004,1.486403e-003
-2.891863e-004,1.260159e-003
-2.707108e-004,1.046719e-003
-2.395943e-004,8.605054e-004
-1.903264e-004,7.078398e-004
-1.233935e-004,5.893700e-004
-4.722277e-005,4.961823e-004
2.035846e-005,4.213081e-004
6.444023e-005,3.626405e-004
8.648111e-005,3.122381e-004
9.977046e-005,2.618358e-004
1.128978e-004,2.119197e-004
1.299146e-004,1.631380e-004
1.527658e-004,1.132219e-004
1.814514e-004,5.893001e-005
2.159713e-004,-2.006553e-006
2.491947e-004,-6.423963e-005
2.756114e-004,-1.245279e-004
2.892249e-004,-1.806025e-004
2.903593e-004,-2.301945e-004
2.804733e-004,-2.744383e-004
2.598910e-004,-3.136581e-004
2.253711e-004,-3.497987e-004
1.829100e-004,-3.841565e-004
1.409351e-004,-4.115455e-004
9.928427e-005,-4.308313e-004
6.152305e-005,-4.442827e-004
3.494434e-005,-4.570859e-004
2.635488e-005,-4.737786e-004
3.834771e-005,-4.911196e-004
6.379197e-005,-5.050572e-004
9.053274e-005,-5.160776e-004
9.798775e-005,-5.274222e-004
6.946425e-005,-5.395771e-004
2.207145e-006,-5.497872e-004
-8.401160e-005,-5.538389e-004
-1.611547e-004,-5.465459e-004
-2.141500e-004,-5.292050e-004
-2.353806e-004,-5.060296e-004
-2.261429e-004,-4.800992e-004
-1.945401e-004,-4.541687e-004
-1.494860e-004,-4.274279e-004
-9.454584e-005,-3.982562e-004
-3.247483e-005,-3.687603e-004
3.429608e-005,-3.405610e-004
1.122495e-004,-3.136581e-004
2.034923e-004,-2.851347e-004
2.944109e-004,-2.533698e-004
3.584267e-004,-2.230636e-004
3.655576e-004,-1.979435e-004
3.162897e-004,-1.780095e-004
2.342847e-004,-1.626133e-004
1.451487e-004,-1.535376e-004
6.914012e-005,-1.499722e-004
2.619281e-005,-1.504584e-004
1.825161e-005,-1.528894e-004
3.299956e-005,-1.533756e-004
5.860587e-005,-1.483515e-004
7.870197e-005,-1.368449e-004
7.659513e-005,-1.203142e-004
4.596478e-005,-1.015147e-004
-8.327101e-006,-8.174268e-005
-7.234290e-005,-6.067420e-005
-1.276072e-004,-4.268495e-005
-1.566169e-004,-3.506787e-005
-1.572651e-004,-3.668853e-005
-1.339277e-004,-4.495386e-005
-9.049421e-005,-5.305713e-005
-2.615428e-005,-5.402952e-005
5.487837e-005,-4.252288e-005
1.393144e-004,-1.756482e-005
2.064095e-004,1.695509e-005
2.372019e-004,5.358185e-005
2.243987e-004,8.793970e-005
1.743205e-004,1.154908e-004
1.072255e-004,1.398006e-004
4.596478e-005,1.644345e-004
8.203561e-006,1.885823e-004
-2.168618e-006,2.047888e-004
8.527692e-006,2.151610e-004
3.105477e-005,2.203471e-004
6.087479e-005,2.221298e-004
9.231547e-005,2.151610e-004
1.201907e-004,1.936063e-004
1.412592e-004,1.579519e-004
1.496866e-004,1.138701e-004
1.302387e-004,7.286762e-005
7.789165e-005,4.547859e-005
2.693341e-006,3.462021e-005
-7.396355e-005,3.964423e-005
-1.366828e-004,5.358185e-005
-1.771991e-004,6.962632e-005
-1.859507e-004,8.032263e-005
-1.571030e-004,8.129502e-005
-9.422171e-005,7.270556e-005
-1.010982e-005,5.925414e-005
7.594687e-005,4.450619e-005
1.406109e-004,3.429608e-005
1.696206e-004,3.494434e-005
1.636242e-004,5.001641e-005
1.428798e-004,8.194328e-005
1.219734e-004,1.289422e-004
9.896014e-005,1.880961e-004
6.930219e-005,2.524360e-004
2.992031e-005,3.128864e-004
-1.675450e-005,3.644232e-004
-5.872941e-005,4.070464e-004
-9.049421e-005,4.423766e-004
-1.162626e-004,4.686312e-004
-1.371690e-004,4.799758e-004
-1.467309e-004,4.700898e-004
-1.352242e-004,4.375147e-004
-1.003802e-004,3.848434e-004
-5.095028e-005,3.282826e-004
-6.706447e-006,2.798251e-004
1.047248e-005,2.399570e-004
-7.516774e-006,2.038164e-004
-5.192267e-005,1.691344e-004
-1.028112e-004,1.355869e-004
-1.394379e-004,1.015532e-004
-1.512687e-004,6.103685e-005
-1.340898e-004,1.614476e-005
-9.357345e-005,-2.842320e-005
-4.203669e-005,-6.910160e-005
2.207145e-006,-1.050801e-004
2.910999e-005,-1.394379e-004
3.462021e-005,-1.716889e-004
2.278944e-005,-1.922712e-004
1.128280e-005,-1.903264e-004
1.938607e-005,-1.614788e-004
5.617490e-005,-1.125351e-004
1.111150e-004,-5.030201e-005
1.613553e-004,1.484824e-005
1.877719e-004,7.448828e-005
1.791825e-004,1.255388e-004
1.385041e-004,1.658931e-004
7.367795e-005,1.953890e-004
-3.789271e-006,2.171058e-004
-7.428768e-005,2.333123e-004
-1.002181e-004,2.404432e-004
-6.261898e-005,2.360674e-004
1.792748e-005,2.253711e-004
1.018773e-004,2.164575e-004
1.490383e-004,2.153230e-004
1.410971e-004,2.192126e-004
8.502253e-005,2.224539e-004
4.244267e-007,2.239125e-004
-8.854943e-005,2.245608e-004
-1.596961e-004,2.242366e-004
-1.979435e-004,2.222919e-004
-1.947022e-004,2.206712e-004
-1.533756e-004,2.195368e-004
-8.741497e-005,2.130541e-004
-1.059601e-005,1.947408e-004
7.059870e-005,1.611932e-004
1.628139e-004,1.150046e-004
2.691287e-004,6.006446e-005
3.772264e-004,1.883015e-006
4.627969e-004,-5.613637e-005
5.028270e-004,-1.101041e-004
4.846757e-004,-1.551583e-004
4.005638e-004,-1.861127e-004
2.608634e-004,-2.018331e-004
8.761556e-005,-2.060468e-004
-9.081834e-005,-2.044261e-004
-2.512630e-004,-1.994021e-004
-3.734602e-004,-1.904885e-004
-4.442827e-004,-1.737958e-004
-4.509274e-004,-1.501342e-004
-3.998769e-004,-1.261486e-004
-3.156029e-004,-1.089697e-004
-2.246843e-004,-9.778715e-005
-1.366828e-004,-9.179074e-005
-4.932962e-005,-9.049421e-005
3.932010e-005,-9.486997e-005
1.253768e-004,-1.034594e-004
1.939304e-004,-1.117248e-004
2.258573e-004,-1.148040e-004
2.086784e-004,-1.102662e-004
1.409351e-004,-1.003802e-004
3.721326e-005,-8.952182e-005
-6.893953e-005,-8.141856e-005
-1.357104e-004,-7.671866e-005
-1.347380e-004,-7.607040e-005
-7.088431e-005,-7.866345e-005
2.424803e-005,-8.368747e-005
1.143563e-004,-8.692878e-005
1.754550e-004,-8.854943e-005
2.023578e-004,-8.433573e-005
2.036543e-004,-7.704279e-005
1.983062e-004,-7.120844e-005
2.060853e-004,-6.650855e-005
2.284503e-004,-6.488790e-005
2.464396e-004,-6.650855e-005
2.401191e-004,-6.845333e-005
2.080301e-004,-7.137050e-005
1.728619e-004,-7.380149e-005
1.594105e-004,-7.963584e-005
1.822617e-004,-8.692878e-005
2.347709e-004,-8.838737e-005
2.859835e-004,-8.320127e-005
2.979764e-004,-7.720485e-005
2.483844e-004,-7.299116e-005
1.466074e-004,-7.428768e-005
2.424803e-005,-7.801519e-005
-8.725291e-005,-8.644258e-005
-1.710407e-004,-1.081593e-004
-2.353806e-004,-1.478653e-004
-2.955068e-004,-2.003745e-004
-3.572537e-004,-2.570973e-004
-4.144627e-004,-3.096065e-004
-4.562756e-004,-3.507711e-004
-4.807474e-004,-3.749188e-004
-4.916058e-004,-3.786463e-004
-4.828543e-004,-3.562813e-004
-4.431483e-004,-3.050687e-004
-3.627639e-004,-2.280877e-004
-2.433218e-004,-1.365208e-004
-9.794922e-005,-4.868136e-005
5.423011e-005,2.052053e-005
1.983062e-004,7.205730e-005
3.227724e-004,1.227837e-004
4.224426e-004,1.893926e-004
4.992615e-004,2.738286e-004
5.567948e-004,3.602095e-004
5.956905e-004,4.305458e-004
6.088177e-004,4.790034e-004
5.762426e-004,5.021787e-004
4.890515e-004,4.937514e-004
3.548613e-004,4.580969e-004
1.994406e-004,4.070464e-004
4.936815e-005,3.516200e-004
-8.271508e-005,3.046211e-004
-1.901644e-004,2.778803e-004
-2.606628e-004,2.726942e-004
-2.797865e-004,2.782044e-004
-2.382978e-004,2.830664e-004
-1.318209e-004,2.811216e-004
2.554455e-005,2.762596e-004
2.030061e-004,2.692908e-004
3.491890e-004,2.607013e-004
4.080188e-004,2.527601e-004
3.511338e-004,2.519498e-004
1.952270e-004,2.569738e-004
-1.092015e-005,2.619979e-004
-2.146362e-004,2.641047e-004
-3.859392e-004,2.619979e-004
-5.191569e-004,2.624841e-004
-6.193132e-004,2.709115e-004
-6.836532e-004,2.851732e-004
-7.032630e-004,2.960316e-004
-6.744154e-004,2.934386e-004
-6.022964e-004,2.696149e-004
-5.008435e-004,2.318537e-004
-3.846427e-004,1.918236e-004
-2.661730e-004,1.579519e-004
-1.546721e-004,1.312111e-004
-6.359137e-005,1.122495e-004
-5.085794e-006,9.814982e-005
1.727922e-005,8.502253e-005
2.797553e-005,6.768153e-005
7.935023e-005,4.191315e-005
1.971717e-004,3.665733e-006
3.581026e-004,-5.402952e-005
5.183853e-004,-1.258244e-004
6.420412e-004,-2.026434e-004
7.099466e-004,-2.713591e-004
7.302047e-004,-3.269475e-004
7.258290e-004,-3.692465e-004
7.068673e-004,-4.014975e-004
6.629477e-004,-4.305072e-004
5.849942e-004,-4.591928e-004
4.893756e-004,-4.838267e-004
4.004017e-004,-4.946851e-004
3.294171e-004,-4.807474e-004
2.605393e-004,-4.339106e-004
1.579519e-004,-3.548227e-004
-7.516774e-006,-2.553146e-004
-2.301945e-004,-1.496480e-004
-4.718338e-004,-5.710876e-005
-6.781429e-004,-1.254080e-005
-8.167087e-004,-4.916756e-005
-8.854244e-004,-1.609926e-004
-8.995241e-004,-2.990722e-004
-8.875313e-004,-4.052250e-004
-8.753764e-004,-4.384484e-004
-8.685696e-004,-3.865875e-004
-8.460426e-004,-2.682798e-004
-7.817026e-004,-1.222590e-004
-6.551297e-004,1.679302e-005
-4.600031e-004,1.367214e-004
-2.050744e-004,2.420638e-004
8.437427e-005,3.401134e-004
3.687989e-004,4.446455e-004
6.052523e-004,5.584154e-004
7.650488e-004,6.695923e-004
8.442989e-004,7.626179e-004
8.566158e-004,8.230683e-004
8.280923e-004,8.366818e-004
7.853070e-004,7.979481e-004
7.417114e-004,7.122156e-004
6.956849e-004,5.918010e-004
6.281036e-004,4.550177e-004
5.102821e-004,3.227724e-004
3.482167e-004,2.085163e-004
1.958752e-004,1.195424e-004
1.167873e-004,5.406805e-005
1.474177e-004,3.827798e-006
2.743148e-004,-4.187462e-005
4.345975e-004,-8.854943e-005
5.386435e-004,-1.326312e-004
5.182232e-004,-1.699062e-004
3.705817e-004,-1.984297e-004
1.563313e-004,-2.169051e-004
-4.949169e-005,-2.214430e-004
-2.066950e-004,-2.144742e-004
-3.094444e-004,-1.995642e-004
-3.564433e-004,-1.802784e-004
-3.365093e-004,-1.603444e-004
-2.431597e-004,-1.434896e-004
-1.010285e-004,-1.293899e-004
4.175108e-005,-1.143178e-004
1.435281e-004,-1.008664e-004
1.927960e-004,-9.227693e-005
2.025199e-004,-9.454584e-005
2.018716e-004,-1.062145e-004
2.218057e-004,-1.230693e-004
2.887386e-004,-1.378173e-004
4.016982e-004,-1.441378e-004
5.284333e-004,-1.430034e-004
6.170831e-004,-1.449481e-004
6.268070e-004,-1.567789e-004
5.485294e-004,-1.754164e-004
4.078567e-004,-1.903264e-004
2.436845e-004,-1.984297e-004
8.956035e-005,-1.990780e-004
-3.911951e-005,-1.919471e-004
-1.370070e-004,-1.749302e-004
-2.021572e-004,-1.506204e-004
-2.373254e-004,-1.269589e-004
-2.420253e-004,-1.076731e-004
-2.143121e-004,-9.762508e-005
-1.582375e-004,-1.133454e-004
-8.611845e-005,-1.948643e-004
-1.691656e-005,-3.695707e-004
3.218923e-005,-6.116962e-004
4.758544e-005,-8.484736e-004
2.878586e-005,-1.005191e-003
-1.448558e-005,-1.038252e-003
-7.250496e-005,-9.510609e-004
-1.404103e-004,-7.757063e-004
-2.250084e-004,-5.501113e-004
-3.306750e-004,-3.062031e-004
-4.548170e-004,-5.921561e-005
-5.823624e-004,1.955511e-004
-6.907840e-004,4.636072e-004
-7.544757e-004,7.376598e-004
-7.591756e-004,9.938853e-004
-6.996976e-004,1.201005e-003
-5.822003e-004,1.336654e-003
-4.230522e-004,1.391918e-003
-2.533698e-004,1.369229e-003
-1.086455e-004,1.280903e-003
-1.659243e-005,1.144930e-003
1.582063e-005,9.877268e-004
2.045080e-006,8.348991e-004
-3.279896e-005,7.042743e-004
-6.586029e-005,6.042799e-004
-8.125648e-005,5.376711e-004
-7.866345e-005,4.976409e-004
-6.634648e-005,4.726828e-004
-5.597430e-005,4.522626e-004
-5.305713e-005,4.328148e-004
-6.326724e-005,4.149876e-004
-9.454584e-005,3.989431e-004
-1.520790e-004,3.854917e-004
-2.295462e-004,3.705817e-004
-3.070135e-004,3.512959e-004
-3.557951e-004,3.177483e-004
-3.566054e-004,2.681563e-004
-3.084720e-004,2.023578e-004
-2.266291e-004,1.206769e-004
-1.350622e-004,2.327564e-005
-5.419158e-005,-7.979790e-005
2.693341e-006,-1.749302e-004
3.883391e-005,-2.558008e-004
6.006446e-005,-3.264613e-004
6.897806e-005,-3.938804e-004
6.719534e-005,-4.608134e-004
6.119892e-005,-5.269360e-004
5.795762e-005,-5.885208e-004
6.071273e-005,-6.400576e-004
6.946425e-005,-6.768464e-004
8.534666e-005,-7.006700e-004
1.080358e-004,-7.100698e-004
1.344524e-004,-7.039113e-004
1.569795e-004,-6.789533e-004
1.730240e-004,-6.377887e-004
1.825858e-004,-5.859278e-004
1.876099e-004,-5.287188e-004
1.921477e-004,-4.697270e-004
1.984682e-004,-4.089525e-004
2.067336e-004,-3.470436e-004
2.114335e-004,-2.899966e-004
2.115955e-004,-2.395943e-004
2.109473e-004,-1.912988e-004
2.096508e-004,-1.405724e-004
2.080301e-004,-8.790116e-005
2.062474e-004,-4.074016e-005
2.062474e-004,-8.489165e-006
2.023578e-004,1.160693e-005
1.885823e-004,2.846173e-005
1.647587e-004,4.596478e-005
1.352628e-004,6.184718e-005
1.091703e-004,7.691926e-005
9.166720e-005,9.426025e-005
8.016056e-005,1.187321e-004
7.157111e-005,1.461212e-004
6.217131e-005,1.701068e-004
5.228533e-005,1.887443e-004
4.742337e-005,2.043026e-004
4.774750e-005,2.187264e-004
5.001641e-005,2.318537e-004
5.260946e-005,2.436845e-004
5.601283e-005,2.475740e-004
6.217131e-005,2.292607e-004
7.351588e-005,1.863134e-004
8.453633e-005,1.281319e-004
8.631904e-005,7.092283e-005
7.221937e-005,2.635488e-005
4.094075e-005,-1.399939e-005
3.827798e-006,-6.359137e-005
-2.372330e-005,-1.280934e-004
-3.182657e-005,-1.994021e-004
-1.772689e-005,-2.629317e-004
1.403791e-005,-3.055549e-004
5.115087e-005,-3.254889e-004
8.178122e-005,-3.258130e-004
1.009049e-004,-3.058790e-004
1.153287e-004,-2.733039e-004
1.406109e-004,-2.308428e-004
1.856651e-004,-1.830335e-004
2.493568e-004,-1.562927e-004
3.200173e-004,-1.802784e-004
3.861399e-004,-2.522354e-004
4.391353e-004,-3.378058e-004
4.726828e-004,-3.943666e-004
4.819206e-004,-3.948528e-004
4.694415e-004,-3.476918e-004
4.490213e-004,-2.938861e-004
4.362181e-004,-2.940482e-004
4.394594e-004,-4.102490e-004
4.540453e-004,-6.761981e-004
4.723587e-004,-1.053486e-003
4.901859e-004,-1.429802e-003
5.104441e-004,-1.669172e-003
5.307022e-004,-1.669496e-003
5.407503e-004,-1.401764e-003
5.311884e-004,-9.424714e-004
4.950479e-004,-4.496309e-004
4.284390e-004,-5.548810e-005
3.326584e-004,2.216436e-004
2.137024e-004,4.741414e-004
8.923622e-005,8.094548e-004
-2.080613e-005,1.265831e-003
-1.026491e-004,1.804700e-003
-1.511066e-004,2.334493e-003
-1.676373e-004,2.759431e-003
-1.671511e-004,3.023923e-003
-1.650442e-004,3.120677e-003
-1.687718e-004,3.079350e-003
-1.801163e-004,2.953424e-003
-2.000504e-004,2.797516e-003
-2.237119e-004,2.644688e-003
-2.481837e-004,2.498180e-003
-2.702246e-004,2.343569e-003
-2.867553e-004,2.167403e-003
-2.924276e-004,1.969845e-003
-2.862691e-004,1.759808e-003
-2.807589e-004,1.548150e-003
-2.809209e-004,1.348161e-003
-2.844864e-004,1.171833e-003
-2.888622e-004,1.027109e-003
-2.945344e-004,9.164180e-004
-3.047445e-004,8.319819e-004
-3.188442e-004,7.611593e-004
-3.337542e-004,6.917953e-004
-3.444505e-004,6.151383e-004
-3.525538e-004,5.216266e-004
-3.604950e-004,4.076946e-004
-3.648708e-004,2.769079e-004
-3.585502e-004,1.329939e-004
-3.403989e-004,-2.339917e-005
-3.186821e-004,-1.882196e-004
-3.050687e-004,-3.574157e-004
-3.078238e-004,-5.236947e-004
-3.250027e-004,-6.838152e-004
-3.486642e-004,-8.348601e-004
-3.666535e-004,-9.781257e-004
-3.694086e-004,-1.117016e-003
-3.538503e-004,-1.249261e-003
-3.253268e-004,-1.370486e-003
-2.946965e-004,-1.473559e-003
-2.648765e-004,-1.554106e-003
-2.297083e-004,-1.611801e-003
-1.757406e-004,-1.646969e-003
-9.389758e-005,-1.662690e-003
1.160693e-005,-1.661231e-003
1.208390e-004,-1.640649e-003
2.083542e-004,-1.598674e-003
2.590807e-004,-1.539844e-003
2.641047e-004,-1.475342e-003
2.297469e-004,-1.415702e-003
1.748067e-004,-1.369513e-003
1.227837e-004,-1.338235e-003
8.761556e-005,-1.318463e-003
7.319175e-005,-1.303229e-003
7.902610e-005,-1.291722e-003
9.312579e-005,-1.281350e-003
9.555677e-005,-1.270978e-003
7.675719e-005,-1.254447e-003
3.591673e-005,-1.224303e-003
-1.594417e-005,-1.176008e-003
-5.921561e-005,-1.114261e-003
-7.931171e-005,-1.045545e-003
-7.493595e-005,-9.974116e-004
-5.159854e-005,-1.022694e-003
-1.643037e-005,-1.148132e-003
1.468617e-005,-1.330942e-003
3.170303e-005,-1.481501e-003
3.688912e-005,-1.520072e-003
4.677511e-005,-1.413595e-003
6.703327e-005,-1.181031e-003
9.004655e-005,-8.740799e-004
1.171115e-004,-5.499493e-004
1.577899e-004,-2.473734e-004
2.242366e-004,1.582063e-005
3.188828e-004,2.407673e-004
4.344354e-004,4.435111e-004
5.514466e-004,6.345861e-004
6.456067e-004,8.060514e-004
6.958469e-004,9.404037e-004
7.008709e-004,1.024029e-003
6.744543e-004,1.050932e-003
6.302104e-004,1.015602e-003
5.777012e-004,9.211179e-004
5.238955e-004,7.904932e-004
4.637692e-004,6.561409e-004
3.869503e-004,5.493397e-004
2.937627e-004,4.793275e-004
1.944166e-004,4.397836e-004
1.022014e-004,4.190392e-004
2.408596e-005,4.057499e-004
-3.879538e-005,3.973224e-004
-8.790116e-005,3.898674e-004
-1.208004e-004,3.822504e-004
-1.368449e-004,3.777125e-004
-1.383035e-004,3.811159e-004
-1.240417e-004,3.945674e-004
-9.324932e-005,4.135290e-004
-5.321919e-005,4.085050e-004
-1.448558e-005,3.286067e-004
1.419998e-005,1.428798e-004
2.408596e-005,-1.225831e-004
1.565857e-005,-3.967976e-004
-6.868512e-006,-6.063480e-004
-4.317114e-005,-7.001838e-004
-1.002181e-004,-6.619364e-004
-1.830335e-004,-5.133225e-004
-2.786520e-004,-3.084720e-004
-3.591985e-004,-1.055663e-004
-3.990665e-004,6.881599e-005
-3.901529e-004,2.286124e-004
-3.462333e-004,4.039671e-004
-2.966413e-004,6.062247e-004
-2.676316e-004,8.253373e-004
-2.697384e-004,1.042667e-003
-2.843243e-004,1.230987e-003
-2.775176e-004,1.364043e-003
-2.300324e-004,1.430004e-003
-1.433275e-004,1.433893e-003
-4.576419e-005,1.393053e-003
1.841368e-005,1.325633e-003
1.646889e-005,1.242332e-003
-6.083626e-005,1.148496e-003
-1.992400e-004,1.052067e-003
-3.726499e-004,9.572585e-004
-5.484907e-004,8.734707e-004
-6.922426e-004,8.084824e-004
-7.693857e-004,7.629420e-004
-7.560964e-004,7.290703e-004
-6.530228e-004,6.955228e-004
-4.839887e-004,6.603546e-004
-2.741142e-004,6.268070e-004
-4.576419e-005,5.937457e-004
1.814514e-004,5.626291e-004
3.841952e-004,5.360504e-004
5.394538e-004,5.166026e-004
6.392861e-004,5.084993e-004
7.024916e-004,5.073649e-004
7.545147e-004,5.081752e-004
7.963275e-004,5.039615e-004
8.130202e-004,4.825688e-004
7.883863e-004,4.350837e-004
7.136741e-004,3.610198e-004
5.960146e-004,2.594048e-004
4.551798e-004,1.363972e-004
3.158036e-004,3.017472e-006
2.004130e-004,-1.246900e-004
1.342904e-004,-2.361909e-004
1.260251e-004,-3.279199e-004
1.582760e-004,-4.036044e-004
1.994406e-004,-4.616237e-004
2.260194e-004,-5.021400e-004
2.307192e-004,-5.246671e-004
2.218057e-004,-5.266119e-004
2.141886e-004,-5.092709e-004
2.174299e-004,-4.771820e-004
2.328261e-004,-4.355312e-004
2.495188e-004,-3.891806e-004
2.495188e-004,-3.460712e-004
2.218057e-004,-3.065272e-004
1.642725e-004,-2.713591e-004
8.518459e-005,-2.425115e-004
1.396819e-006,-2.173913e-004
-7.380149e-005,-1.945401e-004
-1.347380e-004,-1.762267e-004
-1.820611e-004,-1.660166e-004
-2.164190e-004,-1.634236e-004
-2.400805e-004,-1.653684e-004
-2.517492e-004,-1.682856e-004
-2.496423e-004,-1.692580e-004
-2.332737e-004,-1.726613e-004
-2.084778e-004,-1.810887e-004
-1.827094e-004,-1.968091e-004
-1.579134e-004,-2.167431e-004
-1.387897e-004,-2.353806e-004
-1.297140e-004,-2.472113e-004
-1.295519e-004,-2.499665e-004
-1.358725e-004,-2.464010e-004
-1.472171e-004,-2.436459e-004
-1.598582e-004,-2.455907e-004
-1.690959e-004,-2.546663e-004
-1.629374e-004,-2.690902e-004
-1.276072e-004,-2.830278e-004
-6.310517e-005,-2.861070e-004
1.144487e-005,-2.721694e-004
6.995045e-005,-2.436459e-004
8.518459e-005,-2.076674e-004
3.915804e-005,-1.712027e-004
-6.715681e-005,-1.361966e-004
-2.190120e-004,-1.055663e-004
-3.896667e-004,-8.514606e-005
-5.481666e-004,-7.801519e-005
-6.645294e-004,-8.239095e-005
-7.290315e-004,-9.162867e-005
-7.476689e-004,-9.892161e-005
-7.249798e-004,-9.924574e-005
-6.570744e-004,-8.676671e-005
-5.319600e-004,-6.521203e-005
-3.392644e-004,-4.074016e-005
-8.320127e-005,-1.869928e-005
2.007372e-004,5.864920e-007
4.511281e-004,1.711715e-005
6.130315e-004,2.797553e-005
6.645683e-004,2.586868e-005
6.306966e-004,6.420843e-006
5.598741e-004,-3.036798e-005
4.882411e-004,-7.347736e-005
4.286011e-004,-1.096179e-004
3.736609e-004,-1.305243e-004
3.062417e-004,-1.357104e-004
2.187264e-004,-1.259865e-004
1.219734e-004,-1.031353e-004
3.656499e-005,-7.137050e-005
-1.432352e-005,-3.911951e-005
-2.129233e-005,-1.691656e-005
1.031041e-005,-2.793700e-005
6.638501e-005,-1.165867e-004
1.370455e-004,-3.008549e-004
2.102990e-004,-5.416840e-004
2.733424e-004,-7.640375e-004
3.162897e-004,-8.985517e-004
3.360618e-004,-9.160548e-004
3.362238e-004,-8.267568e-004
3.274723e-004,-6.541573e-004
3.174242e-004,-4.279141e-004
3.114278e-004,-1.765509e-004
3.096451e-004,8.307774e-005
3.120761e-004,3.454615e-004
3.138588e-004,6.083316e-004
3.080244e-004,8.656915e-004
2.914938e-004,1.101335e-003
2.689667e-004,1.287224e-003
2.469258e-004,1.392729e-003
2.316917e-004,1.404397e-003
2.253711e-004,1.329847e-003
2.245608e-004,1.193874e-003
2.268297e-004,1.026622e-003
2.292607e-004,8.587227e-004
2.271538e-004,7.097846e-004
2.184023e-004,5.877493e-004
1.919856e-004,4.914824e-004
1.203528e-004,4.140152e-004
-6.176923e-008,3.480546e-004
-1.321450e-004,2.825802e-004
-2.253325e-004,2.137024e-004
-2.462390e-004,1.459591e-004
-1.859507e-004,8.599491e-005
-6.618442e-005,3.883391e-005
6.087479e-005,9.662150e-006
1.398006e-004,1.072688e-006
1.396385e-004,1.468617e-005
6.557468e-005,4.223728e-005
-4.706071e-005,7.335382e-005
-1.548341e-004,9.944633e-005
-2.287359e-004,1.083599e-004
-2.603386e-004,9.134307e-005
-2.585559e-004,5.050261e-005
-2.371633e-004,-3.858999e-007
-2.173913e-004,-5.127441e-005
-2.107467e-004,-1.016767e-004
-2.186879e-004,-1.545100e-004
-2.293842e-004,-2.091260e-004
-2.282497e-004,-2.639041e-004
-2.126914e-004,-3.204648e-004
-1.846541e-004,-3.831841e-004
-1.462447e-004,-4.554653e-004
-1.125351e-004,-5.308256e-004
-1.015147e-004,-5.920862e-004
-1.230693e-004,-6.236890e-004
-1.705545e-004,-6.196374e-004
-2.314910e-004,-5.912759e-004
-2.922655e-004,-5.757177e-004
-3.472056e-004,-6.332508e-004
-3.959873e-004,-7.922369e-004
-4.402311e-004,-1.012484e-003
-4.804233e-004,-1.214417e-003
-5.191569e-004,-1.323649e-003
-5.549733e-004,-1.302905e-003
-5.805796e-004,-1.149429e-003
-5.859278e-004,-8.907726e-004
-5.692351e-004,-5.715040e-004
-5.283947e-004,-2.342461e-004
-4.632444e-004,9.539470e-005
-3.694086e-004,4.109359e-004
-2.546663e-004,7.110811e-004
-1.396000e-004,9.859441e-004
-3.377135e-005,1.209757e-003
6.670914e-005,1.356426e-003
1.728619e-004,1.418497e-003
2.923041e-004,1.403425e-003
4.337872e-004,1.322554e-003
5.974732e-004,1.194036e-003
7.665075e-004,1.039426e-003
9.139871e-004,8.802774e-004
1.014143e-003,7.292324e-004
1.053525e-003,5.921251e-004
1.027595e-003,4.728449e-004
9.339211e-004,3.712299e-004
7.712073e-004,2.843629e-004
5.472329e-004,2.017096e-004
3.042969e-004,1.135460e-004
1.148425e-004,3.989864e-006
3.996836e-005,-1.347380e-004
8.648111e-005,-2.964792e-004
2.031682e-004,-4.630823e-004
3.122381e-004,-6.215821e-004
3.546993e-004,-7.789475e-004
3.336308e-004,-9.421473e-004
3.060797e-004,-1.107130e-003
3.205035e-004,-1.253151e-003
3.780367e-004,-1.352010e-003
4.495075e-004,-1.384586e-003
4.979650e-004,-1.373889e-003
4.963444e-004,-1.368865e-003
4.370285e-004,-1.385234e-003
3.276343e-004,-1.394147e-003
1.811273e-004,-1.345042e-003
7.717366e-006,-1.196428e-003
-1.737958e-004,-9.376094e-004
-3.337542e-004,-5.836589e-004
-4.410414e-004,-1.648822e-004
-4.778303e-004,2.830664e-004
-4.499550e-004,7.219394e-004
-3.786463e-004,1.125158e-003
-2.912931e-004,1.480730e-003
-2.081536e-004,1.781362e-003
-1.386276e-004,2.019275e-003
-7.882551e-005,2.185393e-003
-2.177852e-005,2.266587e-003
3.056858e-005,2.257026e-003
6.444023e-005,2.159138e-003
6.784360e-005,1.979893e-003
4.450619e-005,1.735984e-003
5.934647e-006,1.455934e-003
-3.425755e-005,1.174264e-003
-6.261898e-005,9.203076e-004
-7.185670e-005,7.028157e-004
-6.569822e-005,5.195197e-004
-5.532604e-005,3.704196e-004
-5.678463e-005,2.560015e-004
-8.660465e-005,1.756170e-004
-1.553203e-004,1.258630e-004
-2.575835e-004,9.571883e-005
-3.700568e-004,7.124698e-005
-4.668098e-004,4.288554e-005
-5.298532e-004,8.203561e-006
-5.596732e-004,-2.955766e-005
-5.715040e-004,-6.326724e-005
-5.809038e-004,-8.401160e-005
-5.937069e-004,-9.000801e-005
-6.006758e-004,-8.174268e-005
-5.851174e-004,-6.634648e-005
-5.392530e-004,-5.710876e-005
-4.612996e-004,-6.893953e-005
-3.515814e-004,-1.081593e-004
-2.144742e-004,-1.669890e-004
-6.213279e-005,-2.323013e-004
8.793970e-005,-2.946965e-004
2.226160e-004,-3.473677e-004
3.399513e-004,-3.869116e-004
4.386491e-004,-4.162455e-004
5.127130e-004,-4.386105e-004
5.519328e-004,-4.540066e-004
5.486915e-004,-4.653512e-004
5.217887e-004,-4.731303e-004
4.979650e-004,-4.744269e-004
4.840274e-004,-4.692408e-004
4.655520e-004,-4.617858e-004
4.206599e-004,-4.606513e-004
3.375203e-004,-4.656753e-004
2.282883e-004,-4.723200e-004
1.336421e-004,-4.739407e-004
1.047945e-004,-4.674581e-004
1.652449e-004,-4.520619e-004
2.945730e-004,-4.282383e-004
4.394594e-004,-3.985803e-004
5.506363e-004,-3.658432e-004
6.078454e-004,-3.345645e-004
6.125453e-004,-3.107410e-004
5.661946e-004,-3.026377e-004
4.739794e-004,-3.143064e-004
3.480546e-004,-3.386162e-004
2.080301e-004,-3.624398e-004
7.967437e-005,-3.752429e-004
-2.096819e-005,-3.747567e-004
-9.713889e-005,-3.679500e-004
-1.606685e-004,-3.705430e-004
-2.113949e-004,-3.950149e-004
-2.350565e-004,-4.381243e-004
-2.201465e-004,-4.859335e-004
-1.715269e-004,-5.240189e-004
-1.079973e-004,-5.413598e-004
-5.257093e-005,-5.261257e-004
-2.501983e-005,-4.713476e-004
-3.198863e-005,-3.797808e-004
-6.553616e-005,-2.703867e-004
-1.146419e-004,-1.613168e-004
-1.788198e-004,-6.942573e-005
-2.666592e-004,-9.623623e-006
-3.770256e-004,9.824214e-006
-4.875541e-004,-7.030578e-006
-5.559457e-004,-4.414354e-005
-5.544871e-004,-8.044616e-005
-4.838267e-004,-9.892161e-005
-3.792946e-004,-9.308726e-005
-2.805968e-004,-6.116039e-005
-2.122052e-004,-7.354708e-006
-1.849783e-004,5.941620e-005
-1.964849e-004,1.310491e-004
-2.295462e-004,2.000889e-004
-2.592042e-004,2.577842e-004
-2.655248e-004,2.987867e-004
-2.382978e-004,3.235827e-004
-1.789819e-004,3.326584e-004
-1.018388e-004,3.209897e-004
-2.518189e-005,2.929523e-004
3.559260e-005,2.603772e-004
7.351588e-005,2.294227e-004
8.777764e-005,2.012234e-004
9.555677e-005,1.765894e-004
1.175977e-004,1.550348e-004
1.639483e-004,1.315353e-004
2.318537e-004,1.072255e-004
3.115899e-004,9.263960e-005
4.005638e-004,9.652916e-005
4.966685e-004,1.213252e-004
5.856425e-004,1.641104e-004
6.436618e-004,2.161334e-004
6.512789e-004,2.521119e-004
6.076833e-004,2.263435e-004
5.313505e-004,1.039842e-004
4.438352e-004,-9.843541e-005
3.592371e-004,-3.180339e-004
2.814457e-004,-4.802612e-004
2.141886e-004,-5.334187e-004
1.600588e-004,-4.663236e-004
1.159770e-004,-3.019894e-004
7.043664e-005,-7.785312e-005
1.501031e-005,1.694586e-004
-5.435365e-005,4.187151e-004
-1.329553e-004,6.626235e-004
-2.110708e-004,9.031286e-004
-2.773555e-004,1.138448e-003
-3.193304e-004,1.347350e-003
-3.340783e-004,1.500016e-003
-3.228959e-004,1.574404e-003
-2.797865e-004,1.565977e-003
-1.997262e-004,1.476517e-003
-8.563225e-005,1.313965e-003
3.948217e-005,1.089504e-003
1.404489e-004,8.245269e-004
1.848548e-004,5.490156e-004
1.603829e-004,2.923041e-004
7.546067e-005,7.659513e-005
-4.317114e-005,-8.660465e-005
-1.695821e-004,-1.984297e-004
-2.836761e-004,-2.750866e-004
-3.697327e-004,-3.331059e-004
-4.154351e-004,-3.857772e-004
-4.123559e-004,-4.358554e-004
-3.637363e-004,-4.775061e-004
-2.788141e-004,-5.057055e-004
-1.707165e-004,-5.176983e-004
-5.937767e-005,-5.094330e-004
3.380988e-005,-4.818819e-004
9.571883e-005,-4.551411e-004
1.295905e-004,-4.575721e-004
1.595726e-004,-4.982505e-004
2.073818e-004,-5.522182e-004
2.603772e-004,-5.807417e-004
2.825802e-004,-5.575664e-004
2.396328e-004,-4.786406e-004
1.257009e-004,-3.580640e-004
-3.474375e-005,-2.164190e-004
-2.076674e-004,-7.201877e-005
-3.600088e-004,6.751947e-005
-4.715097e-004,2.021958e-004
-5.300153e-004,3.320101e-004
-5.287188e-004,4.584211e-004
-4.567618e-004,5.838597e-004
-3.091203e-004,7.070294e-004
-1.047560e-004,8.214476e-004
1.154908e-004,9.177146e-004
3.042969e-004,9.831890e-004
4.290873e-004,1.003609e-003
4.835412e-004,9.726548e-004
4.934272e-004,8.935668e-004
4.911583e-004,7.794727e-004
4.971547e-004,6.480376e-004
5.175750e-004,5.161164e-004
5.504742e-004,3.908399e-004
5.824011e-004,2.785285e-004
5.903423e-004,1.790204e-004
5.556603e-004,9.053274e-005
4.741414e-004,9.824214e-006
3.572923e-004,-6.861539e-005
2.242366e-004,-1.486757e-004
9.442231e-005,-2.220912e-004
-1.416145e-005,-2.775176e-004
-9.762508e-005,-3.076617e-004
-1.611547e-004,-3.131719e-004
-2.130156e-004,-2.985860e-004
-2.605007e-004,-2.733039e-004
-3.042583e-004,-2.499665e-004
-3.334301e-004,-2.472113e-004
-3.303509e-004,-3.055549e-004
-2.822175e-004,-4.575721e-004
-1.922712e-004,-6.922426e-004
-7.282909e-005,-9.458747e-004
5.374392e-005,-1.139867e-003
1.568175e-004,-1.223007e-003
2.143507e-004,-1.184921e-003
2.289365e-004,-1.049110e-003
2.192126e-004,-8.531734e-004
2.151610e-004,-6.308199e-004
2.417397e-004,-3.984183e-004
3.026763e-004,-1.601823e-004
3.767402e-004,8.032263e-005
4.219564e-004,3.115899e-004
4.078567e-004,5.151440e-004
3.302274e-004,6.726715e-004
2.115955e-004,7.720176e-004
8.793970e-005,8.050791e-004
-4.113402e-006,7.656971e-004
-4.706071e-005,6.541961e-004
-4.479180e-005,4.890515e-004
-2.437157e-005,3.002453e-004
-1.691656e-005,1.122495e-004
-4.171255e-005,-6.602235e-005
-9.568031e-005,-2.305186e-004
-1.588858e-004,-3.762153e-004
-2.089639e-004,-4.967919e-004
-2.279256e-004,-5.886829e-004
-2.169051e-004,-6.518884e-004
-1.901644e-004,-6.893254e-004
-1.647201e-004,-7.005080e-004
-1.493239e-004,-6.792774e-004
-1.446240e-004,-6.172064e-004
-1.489998e-004,-5.173741e-004
-1.588858e-004,-3.919356e-004
-1.611547e-004,-2.567732e-004
-1.400862e-004,-1.261486e-004
-8.871149e-005,-4.923729e-006
-1.464765e-005,1.069013e-004
6.427816e-005,2.124059e-004
1.321835e-004,3.109416e-004
1.842065e-004,3.969983e-004
2.240746e-004,4.585831e-004
2.498430e-004,4.892135e-004
2.537325e-004,4.872688e-004
2.315296e-004,4.584211e-004
1.851789e-004,4.106118e-004
1.244044e-004,3.503235e-004
6.346784e-005,2.807975e-004
1.144487e-005,2.104611e-004
-3.101624e-005,1.457970e-004
-7.088431e-005,9.053274e-005
-1.125351e-004,5.082674e-005
-1.545100e-004,3.089270e-005
-1.840059e-004,3.462021e-005
-1.900023e-004,5.682316e-005
-1.708786e-004,9.296372e-005
-1.306864e-004,1.342904e-004
-7.995997e-005,1.735102e-004
-3.409548e-005,2.049509e-004
-1.156841e-005,2.276400e-004
-2.064406e-005,2.423880e-004
-5.856734e-005,2.524360e-004
-1.143178e-004,2.563256e-004
-1.786577e-004,2.519498e-004
-2.491561e-004,2.440086e-004
-3.209511e-004,2.342847e-004
-3.852910e-004,2.221298e-004
-4.363416e-004,2.072198e-004
-4.679442e-004,1.908512e-004
-4.697270e-004,1.704310e-004
-4.360174e-004,1.391524e-004
-3.619536e-004,9.426025e-005
-2.504527e-004,4.110282e-005
-1.161005e-004,-6.706447e-006
1.257933e-005,-3.879538e-005
1.098185e-004,-5.192267e-005
1.647587e-004,-5.240886e-005
1.788584e-004,-4.868136e-005
1.728619e-004,-4.414354e-005
1.691344e-004,-4.171255e-005
1.817755e-004,-3.879538e-005
2.122438e-004,-3.425755e-005
2.563256e-004,-2.534396e-005
3.114278e-004,-1.626830e-005
3.696093e-004,-1.173047e-005
4.206599e-004,-1.545797e-005
4.530729e-004,-2.599222e-005
4.606900e-004,-4.576419e-005
4.477248e-004,-7.380149e-005
4.313562e-004,-1.011905e-004
4.333010e-004,-1.238797e-004
4.597176e-004,-1.384655e-004
5.041235e-004,-1.396000e-004
5.342677e-004,-1.303623e-004
5.248679e-004,-1.139937e-004
4.890515e-004,-9.762508e-005
4.624727e-004,-8.741497e-005
4.739794e-004,-9.065627e-005
5.350781e-004,-1.131834e-004
6.352345e-004,-1.556445e-004
7.319875e-004,-2.125294e-004
7.605110e-004,-2.851347e-004
6.798024e-004,-3.726499e-004
4.906721e-004,-4.570859e-004
2.360674e-004,-5.128363e-004
-2.113026e-005,-5.167259e-004
-2.363530e-004,-4.647030e-004
-3.937184e-004,-3.673017e-004
-5.016539e-004,-2.344082e-004
-5.737729e-004,-7.931171e-005
-6.215821e-004,7.772959e-005
-6.531849e-004,2.146748e-004
-6.624226e-004,3.177483e-004
-6.304957e-004,3.819262e-004
-5.387668e-004,4.026706e-004
-3.967976e-004,3.833848e-004
-2.428356e-004,3.373583e-004
-1.183694e-004,2.838767e-004
-4.932962e-005,2.350950e-004
-3.782299e-005,1.859892e-004
-6.748093e-005,9.928427e-005
-1.102662e-004,-6.877746e-005
-1.425172e-004,-3.198166e-004
-1.506204e-004,-5.995412e-004
-1.353863e-004,-8.340498e-004
-1.075111e-004,-9.667812e-004
-7.752898e-005,-9.779637e-004
-5.500191e-005,-8.755384e-004
-4.479180e-005,-6.820326e-004
-4.641245e-005,-4.232143e-004
-5.613637e-005,-1.169109e-004
-6.650855e-005,2.184023e-004
-7.169464e-005,5.661946e-004
-7.315322e-005,9.011839e-004
-7.218083e-005,1.168268e-003
-6.310517e-005,1.302134e-003
-4.106429e-005,1.285441e-003
-1.075808e-005,1.166485e-003
1.582063e-005,1.018195e-003
3.316162e-005,9.002115e-004
4.126489e-005,8.383024e-004
3.948217e-005,8.222580e-004
2.327564e-005,8.253373e-004
-1.205460e-005,8.216097e-004
-6.261898e-005,7.981102e-004
-1.101041e-004,7.613213e-004
-1.345760e-004,7.358771e-004
-1.297140e-004,7.501388e-004
-1.028112e-004,8.112375e-004
-6.731887e-005,8.989149e-004
-3.425755e-005,9.734651e-004
-3.789271e-006,9.992335e-004
2.813760e-005,9.600137e-004
6.281957e-005,8.564538e-004
9.182927e-005,7.057329e-004
9.912220e-005,5.227610e-004
7.124698e-005,3.104554e-004
1.193106e-005,6.849186e-005
-5.127441e-005,-1.833576e-004
-8.773910e-005,-4.105731e-004
-8.757703e-005,-5.828486e-004
-6.002593e-005,-6.855979e-004
-2.177852e-005,-7.163903e-004
5.124321e-006,-6.922426e-004
6.582909e-006,-6.381128e-004
-1.643037e-005,-5.750695e-004
-4.787104e-005,-5.134846e-004
-6.569822e-005,-4.593548e-004
-5.419158e-005,-4.027940e-004
-1.383732e-005,-3.271095e-004
4.385793e-005,-2.259808e-004
9.604297e-005,-1.076731e-004
1.213252e-004,1.241726e-005
1.083599e-004,1.125736e-004
6.995045e-005,1.722137e-004
2.781346e-005,1.791825e-004
-3.303075e-006,1.305629e-004
-2.064406e-005,3.056858e-005
-2.210265e-005,-1.016767e-004
-1.302699e-005,-2.439700e-004
-7.840905e-006,-3.796187e-004
-2.777494e-005,-4.993849e-004
-8.141856e-005,-5.988930e-004
-1.577513e-004,-6.771705e-004
-2.303566e-004,-7.264384e-004
-2.715212e-004,-7.429690e-004
-2.566112e-004,-7.325968e-004
-1.799543e-004,-7.058561e-004
-6.002593e-005,-6.718223e-004
7.594687e-005,-6.366542e-004
2.075439e-004,-5.967862e-004
3.292550e-004,-5.457356e-004
4.448076e-004,-4.831784e-004
5.563085e-004,-4.165696e-004
6.608408e-004,-3.507711e-004
7.473837e-004,-2.903207e-004
8.005412e-004,-2.384598e-004
8.073479e-004,-2.045882e-004
7.626179e-004,-2.049123e-004
6.726715e-004,-2.444563e-004
5.582533e-004,-3.139823e-004
4.420525e-004,-3.977700e-004
3.373583e-004,-4.786406e-004
2.496809e-004,-5.374703e-004
1.764274e-004,-5.634007e-004
1.067393e-004,-5.588629e-004
3.137890e-005,-5.355255e-004
-5.791909e-005,-5.095950e-004
-1.556445e-004,-5.141328e-004
-2.449424e-004,-5.857657e-004
-3.044204e-004,-7.249798e-004
-3.230579e-004,-8.876934e-004
-3.044204e-004,-1.010701e-003
-2.606628e-004,-1.044248e-003
-2.065330e-004,-9.716431e-004
-1.564548e-004,-8.016367e-004
-1.183694e-004,-5.512458e-004
-9.681476e-005,-2.462390e-004
-9.632856e-005,9.344992e-005
-1.136696e-004,4.532350e-004
-1.379793e-004,8.233925e-004
-1.613168e-004,1.189498e-003
-1.754164e-004,1.525136e-003
-1.754164e-004,1.806482e-003
-1.647201e-004,2.011820e-003
-1.548341e-004,2.123159e-003
-1.502963e-004,2.131749e-003
-1.514308e-004,2.040344e-003
-1.543479e-004,1.865312e-003
-1.585616e-004,1.633720e-003
-1.618029e-004,1.370039e-003
-1.577513e-004,1.098093e-003
-1.383035e-004,8.451092e-004
-9.568031e-005,6.264829e-004
-2.631635e-005,4.433490e-004
6.184718e-005,2.910076e-004
1.522796e-004,1.658931e-004
2.200230e-004,6.411610e-005
2.475740e-004,-2.275091e-005
2.365536e-004,-1.067007e-004
2.078680e-004,-2.015089e-004
1.801549e-004,-3.047445e-004
1.545486e-004,-4.010113e-004
1.271595e-004,-4.723200e-004
9.652916e-005,-5.110536e-004
5.990240e-005,-5.172121e-004
1.646889e-005,-4.959816e-004
-2.728874e-005,-4.596789e-004
-6.359137e-005,-4.198109e-004
-8.854943e-005,-3.815635e-004
-9.956987e-005,-3.449367e-004
-9.503204e-005,-2.982619e-004
-7.574627e-005,-2.334358e-004
-4.511592e-005,-1.532135e-004
-5.247859e-006,-6.780506e-005
4.466826e-005,1.679302e-005
9.944633e-005,9.588090e-005
1.449867e-004,1.675138e-004
1.639483e-004,2.363915e-004
1.461212e-004,3.026763e-004
9.458438e-005,3.595612e-004
2.376183e-005,3.981328e-004
-4.576419e-005,4.159599e-004
-9.065627e-005,4.098015e-004
-9.422171e-005,3.843572e-004
-4.544005e-005,3.469201e-004
4.888196e-005,3.021901e-004
1.673517e-004,2.561635e-004
2.816078e-004,2.098128e-004
3.636129e-004,1.667035e-004
3.950535e-004,1.294284e-004
3.780367e-004,1.000946e-004
3.346032e-004,7.627100e-005
2.864697e-004,5.163707e-005
2.538946e-004,2.068259e-005
2.670219e-004,-1.853721e-005
3.488649e-004,-6.942573e-005
4.869446e-004,-1.259865e-004
6.284277e-004,-1.784957e-004
7.136741e-004,-2.157707e-004
7.054087e-004,-2.323013e-004
5.955284e-004,-2.300324e-004
4.119083e-004,-2.165810e-004
2.080301e-004,-2.013469e-004
2.667901e-005,-1.908126e-004
-1.141557e-004,-1.853024e-004
-2.183637e-004,-1.789819e-004
-2.972895e-004,-1.676373e-004
-3.635742e-004,-1.507825e-004
-4.415276e-004,-1.305243e-004
-5.501113e-004,-1.114006e-004
-6.796016e-004,-9.762508e-005
-8.035815e-004,-9.081834e-005
-8.917450e-004,-8.611845e-005
-9.239960e-004,-7.801519e-005
-8.959587e-004,-6.780506e-005
-8.092538e-004,-5.824321e-005
-6.700397e-004,-5.046408e-005
-4.886886e-004,-4.544005e-005
-2.953447e-004,-4.544005e-005
-1.293899e-004,-4.657451e-005
-2.566809e-005,-4.722277e-005
6.907039e-006,-4.219875e-005
-1.853721e-005,-3.101624e-005
-7.218083e-005,-1.853721e-005
-1.246900e-004,-8.489165e-006
-1.553203e-004,-3.789271e-006
-1.559686e-004,-9.137427e-006
-1.289037e-004,-2.890940e-005
-7.720485e-005,-7.137050e-005
-6.868512e-006,-1.290658e-004
7.724339e-005,-1.891920e-004
1.634621e-004,-2.400805e-004
2.367157e-004,-2.720073e-004
2.819319e-004,-2.786520e-004
2.999211e-004,-2.556388e-004
3.004074e-004,-2.015089e-004
2.947351e-004,-1.267968e-004
2.906834e-004,-4.592625e-005
2.838767e-004,2.684107e-005
2.689667e-004,8.242948e-005
2.470879e-004,1.140322e-004
2.214815e-004,1.164632e-004
1.923098e-004,8.405013e-005
1.633001e-004,1.517237e-005
1.389903e-004,-8.028410e-005
1.218114e-004,-1.806025e-004
1.075496e-004,-2.642282e-004
9.231547e-005,-3.165753e-004
7.643306e-005,-3.288923e-004
6.379197e-005,-2.969654e-004
5.957827e-005,-2.214430e-004
6.784360e-005,-1.079973e-004
9.069480e-005,2.732727e-005
1.274836e-004,1.665414e-004
1.683241e-004,2.934386e-004
1.981441e-004,4.036430e-004
2.085163e-004,4.935893e-004
1.923098e-004,5.621430e-004
1.551968e-004,6.094660e-004
1.044704e-004,6.399344e-004
4.045456e-005,6.582477e-004
-3.344722e-005,6.728336e-004
-1.104282e-004,6.903367e-004
-1.794681e-004,7.104328e-004
-2.287359e-004,7.256669e-004
-2.462390e-004,7.238842e-004
-2.340841e-004,6.942262e-004
-2.094501e-004,6.308586e-004
-1.951884e-004,5.366987e-004
-2.044261e-004,4.229288e-004
-2.327876e-004,3.055935e-004
-2.629317e-004,2.043026e-004
-2.788141e-004,1.308870e-004
-2.684419e-004,8.340186e-005
-2.382978e-004,5.050261e-005
-1.997262e-004,1.582063e-005
-1.614788e-004,-3.409548e-005
-1.280934e-004,-1.319829e-004
-9.778715e-005,-3.141443e-004
-6.812920e-005,-5.812279e-004
-3.377135e-005,-8.815349e-004
1.193106e-005,-1.142460e-003
7.546067e-005,-1.304849e-003
1.535762e-004,-1.353307e-003
2.449810e-004,-1.320246e-003
3.457856e-004,-1.258661e-003
4.422145e-004,-1.194321e-003
5.125509e-004,-1.105995e-003
5.410744e-004,-9.570573e-004
5.321608e-004,-7.126628e-004
4.943996e-004,-3.596847e-004
4.352457e-004,8.486046e-005
3.653956e-004,5.786736e-004
2.971661e-004,1.064546e-003
2.454672e-004,1.488834e-003
2.167816e-004,1.811345e-003
2.049509e-004,2.010523e-003
1.937684e-004,2.079563e-003
1.746447e-004,2.027865e-003
1.543865e-004,1.876657e-003
1.419075e-004,1.658192e-003
1.346145e-004,1.380898e-003
1.274836e-004,1.035698e-003
1.101426e-004,6.336138e-004
7.367795e-005,2.200230e-004
9.013888e-006,-1.460826e-004
-7.801519e-005,-4.209453e-004
-1.655304e-004,-5.933827e-004
-2.182017e-004,-6.776568e-004
-2.104225e-004,-6.977528e-004
-1.421931e-004,-6.750637e-004
-3.749886e-005,-6.194753e-004
7.432621e-005,-5.350393e-004
1.699447e-004,-4.191626e-004
2.315296e-004,-2.642282e-004
2.587565e-004,-7.412562e-005
2.650771e-004,1.263492e-004
2.689667e-004,3.039728e-004
2.796630e-004,4.334631e-004
3.020280e-004,5.041235e-004
3.405996e-004,5.141716e-004
3.880847e-004,4.775448e-004
4.311941e-004,4.102877e-004
4.511281e-004,3.245551e-004
4.333010e-004,2.320158e-004
3.726885e-004,1.389903e-004
2.696149e-004,4.807163e-005
1.263492e-004,-4.090223e-005
-4.819516e-005,-1.331174e-004
-2.293842e-004,-2.293842e-004
-3.831841e-004,-3.272716e-004
-4.838267e-004,-4.181902e-004
-5.246671e-004,-4.904713e-004
-5.186707e-004,-5.358497e-004
-4.763717e-004,-5.499493e-004
-4.061974e-004,-5.355255e-004
-3.138202e-004,-5.026262e-004
-2.088019e-004,-4.671339e-004
-1.123730e-004,-4.394208e-004
-5.678463e-005,-4.230522e-004
-7.526008e-005,-4.168937e-004
-1.739578e-004,-4.160834e-004
-3.253268e-004,-4.141386e-004
-4.794509e-004,-4.112214e-004
-5.946793e-004,-4.130041e-004
-6.580469e-004,-4.230522e-004
-6.779809e-004,-4.386105e-004
-6.637191e-004,-4.527101e-004
-6.225546e-004,-4.622720e-004
-5.480045e-004,-4.663236e-004
-4.284004e-004,-4.677822e-004
-2.632558e-004,-4.706994e-004
-7.995997e-005,-4.729683e-004
9.669123e-005,-4.647030e-004
2.511395e-004,-4.322899e-004
3.662059e-004,-3.700568e-004
4.294114e-004,-2.856208e-004
4.391353e-004,-1.945401e-004
3.922984e-004,-1.120489e-004
3.013797e-004,-4.738484e-005
2.036543e-004,-4.113402e-006
1.331559e-004,2.035846e-005
9.701536e-005,3.364782e-005
8.421220e-005,4.207521e-005
7.124698e-005,4.596478e-005
4.418206e-005,4.531652e-005
1.883015e-006,3.818564e-005
-5.354332e-005,2.392390e-005
-1.165867e-004,1.031041e-005
-1.767129e-004,1.396819e-006
-2.094501e-004,-6.176923e-008
-1.953505e-004,5.286386e-006
-1.376552e-004,1.565857e-005
-5.370539e-005,2.910999e-005
4.645098e-005,4.191315e-005
1.558451e-004,5.260946e-005
2.673460e-004,6.184718e-005
3.676645e-004,7.173317e-005
4.474007e-004,8.583285e-005
5.010443e-004,1.057669e-004
5.311884e-004,1.367214e-004
5.396159e-004,1.761032e-004
5.260024e-004,2.115955e-004
4.913204e-004,2.347709e-004
4.459420e-004,2.427121e-004
4.020223e-004,2.407673e-004
3.602095e-004,2.362295e-004
3.117519e-004,2.318537e-004
2.469258e-004,2.297469e-004
1.637863e-004,2.321778e-004
6.995045e-005,2.404432e-004
-1.886135e-005,2.530843e-004
-8.757703e-005,2.694529e-004
-1.347380e-004,2.853353e-004
-1.666649e-004,2.947351e-004
-1.807646e-004,2.890628e-004
-1.763888e-004,2.553532e-004
-1.496480e-004,1.866375e-004
-1.049180e-004,9.652916e-005
-4.738484e-005,1.873781e-005
1.825161e-005,-2.307504e-005
8.421220e-005,-2.761287e-005
1.373696e-004,-3.134038e-005
1.631380e-004,-8.563225e-005
1.574657e-004,-1.989159e-004
1.307249e-004,-3.293785e-004
1.043083e-004,-4.241866e-004
9.896014e-005,-4.494688e-004
1.269974e-004,-4.029561e-004
1.848548e-004,-3.019894e-004
2.556773e-004,-1.715269e-004
3.162897e-004,-2.874733e-005
3.433547e-004,1.161391e-004
3.174242e-004,2.652392e-004
2.329882e-004,4.310320e-004
1.034980e-004,6.206486e-004
-4.300908e-005,8.243648e-004
-1.736337e-004,1.016736e-003
-2.707108e-004,1.164540e-003
-3.259751e-004,1.239901e-003
-3.386162e-004,1.230987e-003
-3.204648e-004,1.145093e-003
-2.899966e-004,1.011064e-003
-2.664971e-004,8.640708e-004
-2.601766e-004,7.292324e-004
-2.664971e-004,6.188658e-004
-2.655248e-004,5.315125e-004
-2.358668e-004,4.568004e-004
-1.728234e-004,3.803056e-004
-8.822530e-005,2.876042e-004
-7.678839e-006,1.723757e-004
4.191315e-005,4.483032e-005
3.624086e-005,-7.704279e-005
-3.344722e-005,-1.778474e-004
-1.600202e-004,-2.630937e-004
-3.203028e-004,-3.533641e-004
-4.860956e-004,-4.496309e-004
-6.384369e-004,-5.235327e-004
-7.664685e-004,-5.460597e-004
-8.645180e-004,-5.175362e-004
-9.249683e-004,-4.590307e-004
-9.335578e-004,-3.854531e-004
-8.846141e-004,-2.854588e-004
-7.839716e-004,-1.444620e-004
-6.470264e-004,3.332369e-005
-4.937127e-004,2.224539e-004
-3.395886e-004,3.835469e-004
-1.904885e-004,4.830550e-004
-5.095028e-005,5.012063e-004
8.615698e-005,4.438352e-004
2.350950e-004,3.433547e-004
4.067222e-004,2.441707e-004
6.021731e-004,1.842065e-004
8.060514e-004,1.809652e-004
9.966404e-004,2.308813e-004
1.153682e-003,3.149932e-004
1.263562e-003,4.098015e-004
1.314775e-003,4.927790e-004
1.302296e-003,5.495019e-004
1.232770e-003,5.742979e-004
1.116893e-003,5.728393e-004
9.713582e-004,5.567948e-004
8.138305e-004,5.313505e-004
6.530616e-004,4.926169e-004
4.969927e-004,4.307079e-004
3.619922e-004,3.402754e-004
2.624841e-004,2.305572e-004
2.000889e-004,1.188942e-004
1.654069e-004,1.403791e-005
1.449867e-004,-8.449779e-005
1.201907e-004,-1.768750e-004
7.562274e-005,-2.643903e-004
9.824214e-006,-3.489884e-004
-6.164659e-005,-4.308313e-004
-1.229073e-004,-5.149432e-004
-1.650442e-004,-6.048895e-004
-1.906506e-004,-6.988873e-004
-2.070192e-004,-7.875370e-004
-2.282497e-004,-8.556044e-004
-2.624455e-004,-8.949863e-004
-3.011791e-004,-9.043860e-004
-3.282440e-004,-8.889899e-004
-3.342404e-004,-8.544700e-004
-3.185201e-004,-8.053642e-004
-2.914552e-004,-7.428070e-004
-2.627696e-004,-6.745775e-004
-2.344082e-004,-6.131548e-004
-2.034537e-004,-5.650214e-004
-1.723372e-004,-5.295291e-004
-1.442999e-004,-4.997090e-004
-1.199901e-004,-4.681063e-004
-9.551824e-005,-4.272659e-004
-5.629843e-005,-3.794566e-004
1.306552e-005,-3.353749e-004
1.060910e-004,-3.019894e-004
1.905270e-004,-2.768693e-004
2.248849e-004,-2.535319e-004
1.910132e-004,-2.267911e-004
9.507057e-005,-1.994021e-004
-3.879538e-005,-1.726613e-004
-1.802784e-004,-1.467309e-004
-3.019894e-004,-1.222590e-004
-3.870737e-004,-1.036215e-004
-4.340726e-004,-9.146661e-005
-4.512515e-004,-8.692878e-005
-4.480102e-004,-9.130454e-005
-4.285624e-004,-1.126972e-004
-3.924218e-004,-1.771991e-004
-3.331059e-004,-3.186821e-004
-2.407287e-004,-5.502734e-004
-1.021629e-004,-8.455564e-004
8.712937e-005,-1.143108e-003
3.039728e-004,-1.374862e-003
5.125509e-004,-1.489766e-003
6.731577e-004,-1.477611e-003
7.584042e-004,-1.361734e-003
7.506250e-004,-1.178438e-003
6.488480e-004,-9.544643e-004
4.694415e-004,-6.938633e-004
2.391467e-004,-3.948528e-004
-1.464765e-005,-5.856734e-005
-2.635799e-004,3.119140e-004
-4.749131e-004,7.084880e-004
-6.214201e-004,1.114462e-003
-6.810601e-004,1.493371e-003
-6.457299e-004,1.805348e-003
-5.249913e-004,2.013603e-003
-3.472056e-004,2.099335e-003
-1.507825e-004,2.068705e-003
2.651694e-005,1.957366e-003
1.623277e-004,1.814099e-003
2.542187e-004,1.673913e-003
3.133726e-004,1.551715e-003
3.509718e-004,1.439566e-003
3.752816e-004,1.322230e-003
3.893812e-004,1.188040e-003
3.817642e-004,1.038939e-003
3.459477e-004,8.875704e-004
2.913317e-004,7.537042e-004
2.388225e-004,6.569512e-004
2.017096e-004,6.026593e-004
1.728619e-004,5.798081e-004
1.315353e-004,5.794839e-004
6.444023e-005,5.913147e-004
-1.983374e-005,6.047661e-004
-9.632856e-005,6.081695e-004
-1.530514e-004,5.900182e-004
-1.925954e-004,5.478812e-004
-2.190120e-004,4.862963e-004
-2.340841e-004,4.052637e-004
-2.488320e-004,3.036486e-004
-2.789761e-004,1.822617e-004
-3.365093e-004,4.871989e-005
-4.165696e-004,-8.417366e-005
-5.034365e-004,-2.041020e-004
-5.828486e-004,-3.049066e-004
-6.376266e-004,-3.883702e-004
-6.517263e-004,-4.577342e-004
-6.095893e-004,-5.198051e-004
-5.095950e-004,-5.763660e-004
-3.684362e-004,-6.212580e-004
-2.135018e-004,-6.479988e-004
-6.764300e-005,-6.496194e-004
6.168512e-005,-6.262820e-004
1.804790e-004,-5.836589e-004
2.999211e-004,-5.343910e-004
4.352457e-004,-4.898231e-004
5.956905e-004,-4.596789e-004
7.715315e-004,-4.454172e-004
9.374865e-004,-4.413656e-004
1.051094e-003,-4.397449e-004
1.079456e-003,-4.334243e-004
1.023868e-003,-4.201350e-004
9.053975e-004,-4.024699e-004
7.613213e-004,-3.846427e-004
6.272933e-004,-3.621157e-004
5.232472e-004,-3.356990e-004
4.438352e-004,-3.065272e-004
3.725264e-004,-2.770314e-004
2.921420e-004,-2.476975e-004
1.952270e-004,-2.177155e-004
9.182927e-005,-1.900023e-004
8.203561e-006,-1.695821e-004
-3.247483e-005,-1.572651e-004
-2.048200e-005,-1.545100e-004
3.186510e-005,-1.577513e-004
9.442231e-005,-1.596961e-004
1.404489e-004,-1.559686e-004
1.641104e-004,-1.455964e-004
1.762653e-004,-1.327932e-004
1.869616e-004,-1.238797e-004
1.953890e-004,-1.206384e-004
1.913374e-004,-1.208004e-004
1.725378e-004,-1.216107e-004
1.359110e-004,-1.204763e-004
8.664317e-005,-1.120489e-004
3.737532e-005,-9.324932e-005
-8.720958e-007,-6.667061e-005
-1.578211e-005,-4.025397e-005
-3.303075e-006,-2.534396e-005
2.700314e-005,-2.453363e-005
5.990240e-005,-3.360929e-005
7.935023e-005,-4.074016e-005
8.129502e-005,-3.296103e-005
7.076077e-005,-9.461557e-006
5.455424e-005,2.133085e-005
3.899597e-005,5.017848e-005
2.684107e-005,6.865393e-005
1.484824e-005,7.805372e-005
-1.682422e-006,8.145709e-005
-2.890940e-005,8.323980e-005
-7.282909e-005,8.291567e-005
-1.433275e-004,8.275361e-005
-2.421873e-004,8.648111e-005
-3.507711e-004,9.831188e-005
-4.408794e-004,1.177597e-004
-4.899852e-004,1.430419e-004
-4.917678e-004,1.709171e-004
-4.523860e-004,1.949028e-004
-3.886943e-004,2.145127e-004
-3.220855e-004,2.297469e-004
-2.746004e-004,2.444948e-004
-2.567732e-004,2.642668e-004
-2.736280e-004,2.867939e-004
-3.165753e-004,3.047831e-004
-3.624398e-004,3.124002e-004
-3.929080e-004,3.091589e-004
-4.108973e-004,2.986246e-004
-4.303451e-004,2.874421e-004
-4.612996e-004,2.770700e-004
-5.010056e-004,2.668598e-004
-5.280705e-004,2.564876e-004
-5.082985e-004,2.462775e-004
-4.053871e-004,2.329882e-004
-2.143121e-004,2.148369e-004
1.873781e-005,1.874478e-004
2.221298e-004,1.503348e-004
3.375203e-004,1.059289e-004
3.441650e-004,6.298164e-005
2.712356e-004,3.186510e-005
1.701068e-004,1.419998e-005
6.670914e-005,8.041497e-006
-3.263690e-005,6.420843e-006
-1.357104e-004,3.341602e-006
-2.548284e-004,-2.006553e-006
-3.909633e-004,-5.734055e-006
-5.270981e-004,2.045080e-006
-6.316302e-004,2.489629e-005
-6.736051e-004,5.957827e-005
-6.360059e-004,9.426025e-005
-5.248292e-004,1.023635e-004
-3.600088e-004,3.121684e-005
-1.690959e-004,-1.600202e-004
2.424803e-005,-4.692408e-004
2.008992e-004,-8.442599e-004
3.418961e-004,-1.198211e-003
4.329768e-004,-1.446170e-003
4.699277e-004,-1.534658e-003
4.587452e-004,-1.448277e-003
4.133669e-004,-1.211176e-003
3.525924e-004,-8.667869e-004
2.945730e-004,-4.653512e-004
2.485465e-004,-4.284701e-005
2.099749e-004,3.798194e-004
1.764274e-004,7.836864e-004
1.498487e-004,1.142661e-003
1.328318e-004,1.424980e-003
1.359110e-004,1.599849e-003
1.733481e-004,1.649441e-003
2.487085e-004,1.569380e-003
3.427064e-004,1.366798e-003
4.260080e-004,1.072163e-003
4.768966e-004,7.383081e-004
4.854860e-004,4.277907e-004
4.530729e-004,1.908512e-004
3.817642e-004,5.212327e-005
2.825802e-004,1.112074e-005
1.749688e-004,5.779555e-005
8.113296e-005,1.761032e-004
9.500084e-006,3.440029e-004
-3.798505e-005,5.375090e-004
-5.889147e-005,7.282600e-004
-5.240886e-005,8.831946e-004
-2.291298e-005,9.807580e-004
1.646889e-005,1.013171e-003
4.985435e-005,9.917784e-004
6.346784e-005,9.334349e-004
5.828174e-005,8.514298e-004
4.385793e-005,7.556491e-004
3.980630e-005,6.514410e-004
5.212327e-005,5.378331e-004
7.076077e-005,4.117463e-004
8.502253e-005,2.749631e-004
9.507057e-005,1.313732e-004
1.059289e-004,-8.813297e-006
1.210010e-004,-1.349001e-004
1.344524e-004,-2.407287e-004
1.370455e-004,-3.237062e-004
1.266733e-004,-3.873978e-004
1.078737e-004,-4.321278e-004
8.275361e-005,-4.557894e-004
5.163707e-005,-4.572480e-004
2.457216e-005,-4.397449e-004
1.160693e-005,-4.164075e-004
1.598270e-005,-3.974459e-004
3.202716e-005,-3.932322e-004
5.115087e-005,-4.029561e-004
6.832980e-005,-4.219177e-004
8.145709e-005,-4.457413e-004
9.037068e-005,-4.750752e-004
9.377405e-005,-5.117019e-004
9.296372e-005,-5.621042e-004
8.242948e-005,-6.259579e-004
5.925414e-005,-6.901358e-004
2.441009e-005,-7.392415e-004
-1.756482e-005,-7.648478e-004
-5.905355e-005,-7.672788e-004
-8.368747e-005,-7.502619e-004
-7.769105e-005,-7.199558e-004
-3.928157e-005,-6.808981e-004
1.825161e-005,-6.335750e-004
8.048469e-005,-5.779866e-004
1.396385e-004,-5.125122e-004
1.966855e-004,-4.361795e-004
2.529222e-004,-3.449367e-004
3.042969e-004,-2.405667e-004
3.425443e-004,-1.313347e-004
3.636129e-004,-3.198863e-005
3.636129e-004,4.612685e-005
3.409237e-004,1.051186e-004
2.936006e-004,1.511452e-004
2.104611e-004,1.895547e-004
8.648111e-005,2.166196e-004
-6.245691e-005,2.209953e-004
-2.029675e-004,1.898788e-004
-3.063652e-004,1.258630e-004
-3.579019e-004,4.385793e-005
-3.549847e-004,-3.960571e-005
-3.113892e-004,-1.114006e-004
-2.608248e-004,-1.665028e-004
-2.421873e-004,-2.086398e-004
-2.702246e-004,-2.426735e-004
-3.274337e-004,-2.720073e-004
-3.807532e-004,-2.971275e-004
-4.045767e-004,-3.206269e-004
-3.846427e-004,-3.463953e-004
-3.194925e-004,-3.711913e-004
-2.188499e-004,-3.828600e-004
-1.024870e-004,-3.739464e-004
8.689757e-006,-3.475298e-004
1.083599e-004,-3.203028e-004
1.999268e-004,-3.165753e-004
2.877662e-004,-3.441264e-004
3.670162e-004,-3.851289e-004
4.328148e-004,-4.117076e-004
4.785172e-004,-4.021458e-004
5.041235e-004,-3.556330e-004
5.083373e-004,-2.891863e-004
4.888894e-004,-2.280877e-004
4.441593e-004,-2.079916e-004
3.726885e-004,-2.551526e-004
2.782044e-004,-3.676258e-004
1.709171e-004,-5.139708e-004
7.076077e-005,-6.504298e-004
2.623614e-007,-7.360002e-004
-2.307504e-005,-7.363243e-004
9.013888e-006,-6.311440e-004
8.745350e-005,-4.254832e-004
1.916615e-004,-1.446240e-004
2.931144e-004,1.825858e-004
3.605336e-004,5.174129e-004
3.788470e-004,8.238786e-004
3.530786e-004,1.089342e-003
2.952213e-004,1.320772e-003
2.127300e-004,1.523840e-003
1.167873e-004,1.692874e-003
2.473422e-005,1.815234e-003
-4.446767e-005,1.878602e-003
-7.769105e-005,1.880871e-003
-6.942573e-005,1.825120e-003
-2.485776e-005,1.717184e-003
3.380988e-005,1.572622e-003
8.405013e-005,1.408773e-003
1.154908e-004,1.242170e-003
1.237561e-004,1.086749e-003
1.073875e-004,9.515862e-004
7.497447e-005,8.438127e-004
3.948217e-005,7.678040e-004
9.662150e-006,7.178878e-004
-1.675450e-005,6.742922e-004
-4.284701e-005,6.146522e-004
-7.072224e-005,5.198439e-004
-1.079973e-004,3.869503e-004
-1.462447e-004,2.325020e-004
-1.640719e-004,9.020861e-005
-1.554824e-004,-1.399939e-005
-1.413827e-004,-7.623246e-005
-1.480274e-004,-1.148040e-004
-1.859507e-004,-1.498101e-004
-2.494803e-004,-1.985918e-004
-3.199787e-004,-2.687660e-004
-3.786463e-004,-3.648708e-004
-4.185144e-004,-5.073261e-004
-4.475240e-004,-7.116904e-004
-4.817198e-004,-9.591641e-004
-5.293670e-004,-1.200965e-003
-5.839830e-004,-1.388475e-003
-6.277406e-004,-1.501110e-003
-6.335750e-004,-1.558644e-003
-5.846313e-004,-1.606291e-003
-4.852852e-004,-1.674358e-003
-3.530400e-004,-1.751339e-003
-2.160948e-004,-1.798663e-003
-9.292519e-005,-1.785373e-003
3.503668e-006,-1.699641e-003
6.541262e-005,-1.536279e-003
9.539470e-005,-1.293181e-003
1.062531e-004,-9.760189e-004
1.205148e-004,-6.032688e-004
1.650828e-004,-2.008607e-004
2.485465e-004,2.140265e-004
3.504856e-004,6.340999e-004
4.300596e-004,1.049636e-003
4.428628e-004,1.430652e-003
3.574544e-004,1.723991e-003
1.783722e-004,1.875847e-003
-5.727082e-005,1.866123e-003
-2.927517e-004,1.711674e-003
-4.828543e-004,1.445886e-003
-6.150996e-004,1.106359e-003
-7.043975e-004,7.456010e-004
-7.684133e-004,4.266563e-004
-8.115227e-004,2.081922e-004
-8.265947e-004,1.248906e-004
-8.081193e-004,1.743205e-004
-7.517206e-004,3.206655e-004
-6.661501e-004,5.217887e-004
-5.710178e-004,7.451148e-004
-4.755614e-004,9.695755e-004
-3.694086e-004,1.176533e-003
-2.357047e-004,1.353833e-003
-6.893953e-005,1.500502e-003
1.148425e-004,1.619296e-003
2.893869e-004,1.710377e-003
4.344354e-004,1.764670e-003
5.410744e-004,1.760618e-003
6.101142e-004,1.680557e-003
6.528996e-004,1.517843e-003
6.793162e-004,1.272962e-003
6.908229e-004,9.656859e-004
6.817472e-004,6.281036e-004
6.493341e-004,2.921420e-004
6.093039e-004,-1.286493e-005
5.819149e-004,-2.695764e-004
5.781874e-004,-4.765338e-004
5.987698e-004,-6.389231e-004
6.342620e-004,-7.654961e-004
6.686199e-004,-8.659766e-004
6.846644e-004,-9.470092e-004
6.694302e-004,-1.012322e-003
6.162728e-004,-1.063534e-003
5.285954e-004,-1.104212e-003
4.201737e-004,-1.133870e-003
3.096451e-004,-1.150563e-003
2.133783e-004,-1.155425e-003
1.474177e-004,-1.156560e-003
1.205148e-004,-1.163528e-003
1.282940e-004,-1.177628e-003
1.508210e-004,-1.188000e-003
1.696206e-004,-1.179249e-003
1.718895e-004,-1.145215e-003
1.532520e-004,-1.091734e-003
1.148425e-004,-1.026907e-003
6.508849e-005,-9.625675e-004
2.278944e-005,-9.073032e-004
1.371378e-005,-8.640318e-004
4.337174e-005,-8.277292e-004
9.782569e-005,-7.902921e-004
1.624898e-004,-7.445897e-004
2.284503e-004,-6.875427e-004
2.859835e-004,-6.249855e-004
3.264999e-004,-5.638869e-004
3.422202e-004,-5.065158e-004
3.300653e-004,-4.561135e-004
2.908455e-004,-4.157593e-004
2.320158e-004,-3.828600e-004
1.665414e-004,-3.540124e-004
1.060910e-004,-3.246786e-004
6.168512e-005,-2.942103e-004
3.964423e-005,-2.676316e-004
3.948217e-005,-2.476975e-004
5.147500e-005,-2.345703e-004
6.233338e-005,-2.365150e-004
6.152305e-005,-2.668213e-004
5.098881e-005,-3.235441e-004
3.753739e-005,-3.877220e-004
3.170303e-005,-4.303451e-004
4.142695e-005,-4.253211e-004
6.930219e-005,-3.557951e-004
1.114392e-004,-2.248463e-004
1.577899e-004,-5.078821e-005
1.929580e-004,1.457970e-004
2.012234e-004,3.475684e-004
1.694586e-004,5.355643e-004
9.409818e-005,6.906608e-004
-1.578211e-005,7.880622e-004
-1.465688e-004,8.122099e-004
-2.895104e-004,7.703970e-004
-4.381243e-004,6.832058e-004
-5.820383e-004,5.801322e-004
-7.082871e-004,4.849998e-004
-8.061745e-004,4.110980e-004
-8.659766e-004,3.629646e-004
-8.816969e-004,3.371962e-004
-8.564147e-004,3.235827e-004
-7.992057e-004,3.138588e-004
-7.193075e-004,3.012177e-004
-6.163961e-004,2.850111e-004
-4.890127e-004,2.738286e-004
-3.329439e-004,2.749631e-004
-1.564548e-004,2.867939e-004
1.971020e-005,2.989488e-004
1.547106e-004,3.018659e-004
2.128921e-004,2.929523e-004
1.880961e-004,2.752873e-004
1.018773e-004,2.548670e-004
-7.100305e-007,2.326641e-004
-6.991192e-005,2.145127e-004
-7.688072e-005,2.005751e-004
-2.291298e-005,1.843686e-004
5.747142e-005,1.545486e-004
1.201907e-004,9.588090e-005
1.349386e-004,7.231170e-006
9.523264e-005,-9.341139e-005
2.197911e-005,-1.804405e-004
-4.787104e-005,-2.284118e-004
-8.417366e-005,-2.246843e-004
-8.303921e-005,-1.754164e-004
-6.877746e-005,-9.762508e-005
-7.023605e-005,-4.923729e-006
-1.096179e-004,9.101894e-005
-1.831956e-004,1.864754e-004
-2.613110e-004,2.822560e-004
-3.052307e-004,3.812780e-004
-2.909690e-004,4.882411e-004
-2.133397e-004,6.057385e-004
-8.692878e-005,7.349047e-004
6.233338e-005,8.695811e-004
1.994406e-004,9.976128e-004
2.968419e-004,1.105386e-003
3.397892e-004,1.177181e-003
3.360618e-004,1.199871e-003
3.047831e-004,1.169726e-003
2.694529e-004,1.096635e-003
2.521119e-004,9.959922e-004
2.589186e-004,8.809257e-004
2.837146e-004,7.631041e-004
3.143450e-004,6.507927e-004
3.412478e-004,5.469088e-004
3.558337e-004,4.550177e-004
3.438409e-004,3.798194e-004
3.049452e-004,3.185587e-004
2.765838e-004,2.613496e-004
3.042969e-004,2.031682e-004
3.963500e-004,1.415833e-004
5.219507e-004,7.983643e-005
6.334517e-004,1.954813e-005
6.890402e-004,-3.992984e-005
6.705647e-004,-9.924574e-005
5.765667e-004,-1.524032e-004
4.183909e-004,-1.955125e-004
2.312054e-004,-2.261429e-004
5.536457e-005,-2.454286e-004
-7.477388e-005,-2.614731e-004
-1.400862e-004,-2.828657e-004
-1.425172e-004,-3.120375e-004
-9.811128e-005,-3.446126e-004
-2.485776e-005,-3.757291e-004
5.406805e-005,-4.047388e-004
1.206769e-004,-4.308313e-004
1.620035e-004,-4.517377e-004
1.710792e-004,-4.681063e-004
1.504969e-004,-4.771820e-004
1.054428e-004,-4.792888e-004
4.045456e-005,-4.729683e-004
-3.879538e-005,-4.572480e-004
-1.248521e-004,-4.352071e-004
-2.044261e-004,-4.087905e-004
-2.579077e-004,-3.778360e-004
-2.746004e-004,-3.416954e-004
-2.629317e-004,-3.024756e-004
-2.347323e-004,-2.601766e-004
-1.942160e-004,-2.211188e-004
-1.272830e-004,-1.880575e-004
-1.205460e-005,-1.674752e-004
1.504969e-004,-1.564548e-004
3.318480e-004,-1.520790e-004
4.861343e-004,-1.512687e-004
5.686256e-004,-1.504584e-004
5.506363e-004,-1.498101e-004
4.287631e-004,-1.477033e-004
2.201850e-004,-1.423551e-004
-3.976777e-005,-1.290658e-004
-3.115513e-004,-1.047560e-004
-5.643732e-004,-7.363942e-005
-7.807303e-004,-4.187462e-005
-9.526815e-004,-1.886135e-005
-1.069855e-003,-1.383732e-005
-1.114585e-003,-2.664048e-005
-1.074879e-003,-4.657451e-005
-9.531677e-004,-6.326724e-005
-7.795958e-004,-7.363942e-005
-5.954896e-004,-8.206682e-005
-4.318037e-004,-9.308726e-005
-2.932379e-004,-1.071869e-004
-1.669890e-004,-1.248521e-004
-5.013995e-005,-1.399241e-004
4.839576e-005,-1.436516e-004
1.203528e-004,-1.274451e-004
1.647587e-004,-9.600443e-005
1.889064e-004,-5.889147e-005
2.015475e-004,-2.226472e-005
2.070577e-004,1.403791e-005
2.104611e-004,5.163707e-005
2.184023e-004,9.507057e-005
2.365536e-004,1.412592e-004
2.642668e-004,1.809652e-004
2.955454e-004,2.044647e-004
3.227724e-004,2.083542e-004
3.371962e-004,1.924718e-004
3.329825e-004,1.681620e-004
3.145071e-004,1.449867e-004
2.892249e-004,1.307249e-004
2.628082e-004,1.258630e-004
2.381743e-004,1.239182e-004
2.216436e-004,1.151667e-004
2.128921e-004,9.507057e-005
2.085163e-004,6.784360e-005
2.034923e-004,4.580272e-005
1.960373e-004,4.320967e-005
1.887443e-004,6.735740e-005
1.876099e-004,1.140322e-004
1.902029e-004,1.655690e-004
1.924718e-004,2.013854e-004
1.856651e-004,2.111093e-004
1.650828e-004,1.937684e-004
1.302387e-004,1.574657e-004
8.875003e-005,1.128978e-004
5.666109e-005,6.962632e-005
3.575467e-005,2.959618e-005
1.355172e-005,-1.027188e-005
-2.501983e-005,-5.257093e-005
-8.725291e-005,-9.811128e-005
-1.595340e-004,-1.499722e-004
-2.203085e-004,-2.042640e-004
-2.540181e-004,-2.549905e-004
-2.609869e-004,-2.888622e-004
-2.621213e-004,-2.895104e-004
-2.812450e-004,-2.528836e-004
-3.180339e-004,-1.857886e-004
-3.450988e-004,-1.058904e-004
-3.259751e-004,-3.522994e-005
-2.504527e-004,7.069104e-006
-1.392759e-004,1.257933e-005
-2.939559e-005,-1.302699e-005
5.050261e-005,-5.321919e-005
8.405013e-005,-8.401160e-005
7.319175e-005,-8.611845e-005
3.380988e-005,-4.722277e-005
-1.173047e-005,3.867184e-005
-3.895744e-005,1.692965e-004
-3.198863e-005,3.269861e-004
6.258778e-006,4.788413e-004
6.557468e-005,5.903423e-004
1.357490e-004,6.417171e-004
2.018716e-004,6.216210e-004
2.446569e-004,5.292437e-004
2.558394e-004,3.704196e-004
2.420638e-004,1.645966e-004
2.179161e-004,-5.095028e-005
1.974959e-004,-2.355427e-004
1.859892e-004,-3.650328e-004
1.829100e-004,-4.533584e-004
1.910132e-004,-5.334187e-004
2.094887e-004,-6.134789e-004
2.316917e-004,-6.711741e-004
2.365536e-004,-6.823567e-004
2.132162e-004,-6.390853e-004
1.626518e-004,-5.531906e-004
1.028497e-004,-4.497929e-004
5.050261e-005,-3.525538e-004
2.408596e-005,-2.729797e-004
2.927205e-005,-2.109087e-004
5.779555e-005,-1.457585e-004
9.344992e-005,-5.354332e-005
1.185700e-004,8.923622e-005
1.219734e-004,2.958695e-004
1.010670e-004,5.503122e-004
6.492643e-005,8.123720e-004
2.878586e-005,1.038129e-003
3.341602e-006,1.194847e-003
-4.113402e-006,1.269073e-003
1.776542e-005,1.270693e-003
7.254349e-005,1.221912e-003
1.496866e-004,1.143310e-003
2.284503e-004,1.049474e-003
2.832284e-004,9.502897e-004
2.953833e-004,8.577503e-004
2.701011e-004,7.763934e-004
2.273159e-004,7.008709e-004
1.812893e-004,6.214589e-004
1.414213e-004,5.337815e-004
1.103047e-004,4.464283e-004
8.664317e-005,3.722023e-004
6.784360e-005,3.120761e-004
5.017848e-005,2.543808e-004
3.170303e-005,1.885823e-004
1.679302e-005,9.847395e-005
9.500084e-006,-2.048200e-005
4.476060e-006,-1.600202e-004
-3.627206e-006,-3.021515e-004
-1.254080e-005,-4.235384e-004
-1.756482e-005,-5.058675e-004
-1.805102e-005,-5.497872e-004
-2.015787e-005,-5.627525e-004
-2.890940e-005,-5.577284e-004
-4.349527e-005,-5.399013e-004
-5.759496e-005,-5.125122e-004
-6.051213e-005,-4.813957e-004
-3.344722e-005,-4.528722e-004
2.894792e-005,-4.274279e-004
1.111150e-004,-4.019837e-004
1.793446e-004,-3.749188e-004
2.015475e-004,-3.472056e-004
1.718895e-004,-3.228959e-004
1.049566e-004,-3.053928e-004
2.262737e-005,-2.948585e-004
-5.921561e-005,-2.882139e-004
-1.271210e-004,-2.841623e-004
-1.674752e-004,-2.771934e-004
-1.724992e-004,-2.677937e-004
-1.468929e-004,-2.577456e-004
-1.099420e-004,-2.494803e-004
-8.141856e-005,-2.433218e-004
-7.736692e-005,-2.376495e-004
-1.023250e-004,-2.332737e-004
-1.410586e-004,-2.434839e-004
-1.744440e-004,-2.961551e-004
-1.877334e-004,-4.202971e-004
-1.783336e-004,-6.163961e-004
-1.498101e-004,-8.546320e-004
-1.138316e-004,-1.088978e-003
-7.898758e-005,-1.283619e-003
-5.338126e-005,-1.421212e-003
-3.895744e-005,-1.488631e-003
-2.793700e-005,-1.480528e-003
-4.437533e-006,-1.399171e-003
4.320967e-005,-1.253637e-003
1.185700e-004,-1.062886e-003
2.075439e-004,-8.486356e-004
2.811216e-004,-6.172064e-004
3.081865e-004,-3.745946e-004
2.647530e-004,-1.491618e-004
1.432040e-004,3.202716e-005
-4.835723e-005,1.603829e-004
-2.903207e-004,2.500050e-004
-5.518941e-004,3.277964e-004
-7.940196e-004,4.170944e-004
-9.743983e-004,5.256782e-004
-1.066289e-003,6.572753e-004
-1.062400e-003,8.148029e-004
-9.782878e-004,9.998818e-004
-8.348601e-004,1.211539e-003
-6.476747e-004,1.436973e-003
-4.186764e-004,1.662568e-003
-1.444620e-004,1.880709e-003
1.671896e-004,2.081184e-003
4.872688e-004,2.246654e-003
7.716935e-004,2.356534e-003
9.758961e-004,2.376144e-003
1.072163e-003,2.276473e-003
1.064870e-003,2.053633e-003
9.823786e-004,1.741332e-003
8.622881e-004,1.394187e-003
7.339323e-004,1.061953e-003
6.154625e-004,7.797969e-004
5.107682e-004,5.648981e-004
4.117463e-004,4.136910e-004
3.078624e-004,3.177483e-004
1.970097e-004,2.658874e-004
9.636710e-005,2.443327e-004
2.230324e-005,2.286124e-004
-2.307504e-005,1.939304e-004
-5.921561e-005,1.227837e-004
-1.067007e-004,1.355172e-005
-1.673132e-004,-1.250141e-004
-2.254946e-004,-2.734659e-004
-2.549905e-004,-4.139765e-004
-2.387839e-004,-5.311497e-004
-1.702303e-004,-6.125065e-004
-5.305713e-005,-6.551297e-004
9.701536e-005,-6.684190e-004
2.517877e-004,-6.669604e-004
3.827366e-004,-6.650157e-004
4.666864e-004,-6.706879e-004
4.767345e-004,-6.830049e-004
3.952156e-004,-6.984011e-004
2.375260e-004,-7.108801e-004
6.152305e-005,-7.128249e-004
-6.326724e-005,-7.009942e-004
-9.486997e-005,-6.757120e-004
-2.664048e-005,-6.403818e-004
1.116012e-004,-5.969482e-004
2.453051e-004,-5.488148e-004
2.908455e-004,-5.010056e-004
2.171058e-004,-4.578962e-004
5.406805e-005,-4.196488e-004
-1.293899e-004,-3.844807e-004
-2.762210e-004,-3.549847e-004
-3.692465e-004,-3.339163e-004
-4.339106e-004,-3.178718e-004
-5.027883e-004,-2.982619e-004
-5.875484e-004,-2.687660e-004
-6.749016e-004,-2.314910e-004
-7.377830e-004,-1.917850e-004
-7.594997e-004,-1.512687e-004
-7.463724e-004,-1.131834e-004
-7.188214e-004,-7.120844e-005
-6.990493e-004,-2.242678e-005
-6.996976e-004,2.246531e-005
-7.178489e-004,5.147500e-005
-7.317865e-004,5.471631e-005
-7.123387e-004,2.927205e-005
-6.385990e-004,-1.869928e-005
-5.081365e-004,-7.931171e-005
-3.334301e-004,-1.402483e-004
-1.342519e-004,-1.922712e-004
7.513654e-005,-2.295462e-004
2.880904e-004,-2.519113e-004
5.046097e-004,-2.606628e-004
7.246946e-004,-2.609869e-004
9.394313e-004,-2.559629e-004
1.137313e-003,-2.417011e-004
1.305699e-003,-2.138259e-004
1.428383e-003,-1.726613e-004
1.487051e-003,-1.212866e-004
1.466793e-003,-6.877746e-005
1.366636e-003,-2.728874e-005
1.208622e-003,-1.520357e-006
1.021599e-003,8.365628e-006
8.271199e-004,7.393235e-006
6.538720e-004,4.962256e-006
5.305402e-004,1.047248e-005
4.700898e-004,2.813760e-005
4.555039e-004,5.098881e-005
4.525867e-004,7.221937e-005
4.247115e-004,8.437427e-005
3.508097e-004,8.712937e-005
2.303951e-004,8.161915e-005
7.999850e-005,7.465034e-005
-7.963584e-005,6.816773e-005
-2.306807e-004,6.395403e-005
-3.535262e-004,6.687120e-005
-4.431483e-004,7.999850e-005
-5.061917e-004,1.012291e-004
-5.515699e-004,1.244044e-004
-5.839830e-004,1.430419e-004
-6.039171e-004,1.529279e-004
-6.129927e-004,1.560071e-004
-6.082928e-004,1.553589e-004
-5.823624e-004,1.569795e-004
-5.335807e-004,1.657311e-004
-4.700511e-004,1.816135e-004
-4.037664e-004,1.999268e-004
-3.426678e-004,2.143507e-004
-2.864312e-004,2.234263e-004
-2.324634e-004,2.260194e-004
-1.807646e-004,2.234263e-004
-1.365208e-004,2.196988e-004
-9.973194e-005,2.205091e-004
-6.780506e-005,2.333123e-004
-4.625038e-005,2.595669e-004
-5.338126e-005,2.940868e-004
-9.794922e-005,3.289309e-004
-1.687718e-004,3.574544e-004
-2.413770e-004,3.751195e-004
-2.925896e-004,3.816021e-004
-3.084720e-004,3.757677e-004
-2.867553e-004,3.603715e-004
-2.344082e-004,3.404375e-004
-1.695821e-004,3.196932e-004
-1.101041e-004,3.005694e-004
-6.715681e-005,2.827422e-004
-4.641245e-005,2.610255e-004
-4.868136e-005,2.352571e-004
-7.088431e-005,2.017096e-004
-1.041077e-004,1.529279e-004
-1.371690e-004,7.076077e-005
-1.577513e-004,-5.808115e-005
-1.590478e-004,-2.288980e-004
-1.423551e-004,-4.248349e-004
-1.157764e-004,-6.373025e-004
-9.017008e-005,-8.465288e-004
-7.185670e-005,-1.014266e-003
-6.326724e-005,-1.099513e-003
-6.180866e-005,-1.077310e-003
-6.278104e-005,-9.499264e-004
-6.359137e-005,-7.437794e-004
-6.278104e-005,-5.014918e-004
-5.516398e-005,-2.639041e-004
-3.879538e-005,-5.808115e-005
-8.813297e-006,1.018773e-004
4.126489e-005,2.107852e-004
1.237561e-004,2.887386e-004
2.419018e-004,3.825745e-004
3.832228e-004,5.404262e-004
5.204921e-004,7.710453e-004
6.227554e-004,1.033916e-003
6.600305e-004,1.254487e-003
6.182176e-004,1.358371e-003
5.026649e-004,1.301810e-003
3.321721e-004,1.091449e-003
1.300767e-004,7.832002e-004
-8.465986e-005,4.548556e-004
-2.919414e-004,1.725378e-004
-4.757234e-004,-1.934754e-005
-6.269303e-004,-1.050801e-004
-7.335693e-004,-9.681476e-005
-7.857542e-004,-1.513384e-005
-7.723029e-004,1.253768e-004
-6.839773e-004,3.125622e-004
-5.256395e-004,5.342677e-004
-3.246786e-004,7.788244e-004
-1.177212e-004,1.032943e-003
6.152305e-005,1.275231e-003
1.885823e-004,1.479272e-003
2.519498e-004,1.624483e-003
2.581083e-004,1.693198e-003
2.359053e-004,1.684771e-003
2.154851e-004,1.611355e-003
2.208333e-004,1.487051e-003
2.644288e-004,1.319313e-003
3.415720e-004,1.113814e-003
4.341113e-004,8.759017e-004
5.232472e-004,6.203245e-004
5.922871e-004,3.713920e-004
6.370172e-004,1.509831e-004
6.629477e-004,-3.069211e-005
6.720233e-004,-1.689338e-004
6.608408e-004,-2.650385e-004
6.392861e-004,-3.305129e-004
6.245381e-004,-3.849668e-004
6.271311e-004,-4.460654e-004
6.389620e-004,-5.188328e-004
6.417171e-004,-6.011620e-004
6.172452e-004,-6.830049e-004
5.491777e-004,-7.559343e-004
4.284390e-004,-8.134674e-004
2.676701e-004,-8.625732e-004
9.588090e-005,-9.167030e-004
-5.953974e-005,-9.839601e-004
-1.755785e-004,-1.065317e-003
-2.405667e-004,-1.150401e-003
-2.509389e-004,-1.225600e-003
-2.109087e-004,-1.276488e-003
-1.337657e-004,-1.300474e-003
-3.215070e-005,-1.298043e-003
7.935023e-005,-1.269033e-003
1.900409e-004,-1.213445e-003
2.874421e-004,-1.132250e-003
3.556717e-004,-1.036307e-003
3.866261e-004,-9.369612e-004
3.851675e-004,-8.416668e-004
3.747953e-004,-7.522067e-004
3.807918e-004,-6.721465e-004
4.125566e-004,-6.037550e-004
4.605280e-004,-5.433046e-004
5.042856e-004,-4.924161e-004
5.264885e-004,-4.556273e-004
5.216266e-004,-4.326140e-004
4.872688e-004,-4.151110e-004
4.266563e-004,-3.956631e-004
3.498373e-004,-3.689224e-004
2.598910e-004,-3.379679e-004
1.561692e-004,-3.099306e-004
4.191315e-005,-2.883759e-004
-7.736692e-005,-2.750866e-004
-1.885437e-004,-2.643903e-004
-2.818933e-004,-2.498044e-004
-3.544986e-004,-2.267911e-004
-4.044147e-004,-1.942160e-004
-4.355312e-004,-1.545100e-004
-4.664857e-004,-1.143178e-004
-5.060296e-004,-7.655659e-005
-5.345531e-004,-4.284701e-005
-5.249913e-004,-1.578211e-005
-4.739407e-004,8.041497e-006
-3.950149e-004,3.186510e-005
-3.003688e-004,5.860587e-005
-2.008607e-004,8.323980e-005
-1.062145e-004,1.017153e-004
-3.992984e-005,1.096565e-004
-3.101624e-005,1.043083e-004
-9.584237e-005,8.453633e-005
-2.224154e-004,5.358185e-005
-3.739464e-004,2.197911e-005
-5.091088e-004,1.002961e-007
-6.068342e-004,-3.627206e-006
-6.724706e-004,1.630683e-005
-7.184972e-004,5.666109e-005
-7.535032e-004,1.064151e-004
-7.724649e-004,1.548727e-004
-7.672788e-004,1.971717e-004
-7.321107e-004,2.352571e-004
-6.663122e-004,2.715597e-004
-5.705316e-004,3.025142e-004
-4.531963e-004,3.214759e-004
-3.308370e-004,3.218000e-004
-2.241981e-004,3.073762e-004
-1.554824e-004,2.867939e-004
-1.396000e-004,2.720459e-004
-1.545100e-004,2.743148e-004
-1.571030e-004,3.012177e-004
-1.136696e-004,3.475684e-004
-1.043395e-005,3.997534e-004
1.449867e-004,4.443214e-004
3.253654e-004,4.773827e-004
4.901859e-004,5.012063e-004
6.046041e-004,5.211404e-004
6.564650e-004,5.397779e-004
6.501445e-004,5.558224e-004
6.018489e-004,5.726772e-004
5.352401e-004,5.900182e-004
4.697657e-004,6.068730e-004
4.042912e-004,6.224313e-004
3.271481e-004,6.308586e-004
2.373639e-004,6.315069e-004
1.457970e-004,6.281036e-004
6.800567e-005,6.209727e-004
2.100672e-005,6.057385e-004
2.230324e-005,5.741358e-004
7.999850e-005,5.238955e-004
1.825858e-004,4.605280e-004
2.986246e-004,3.926225e-004
3.948915e-004,3.274723e-004
4.464283e-004,2.689667e-004
4.376767e-004,2.184023e-004
3.734988e-004,1.767515e-004
2.825802e-004,1.440143e-004
1.945787e-004,1.193804e-004
1.300767e-004,1.026876e-004
8.907416e-005,9.328785e-005
6.087479e-005,8.826383e-005
3.478227e-005,8.567078e-005
2.045080e-006,8.340186e-005
-4.544005e-005,7.432621e-005
-1.180453e-004,5.066468e-005
-2.177155e-004,4.151929e-006
-3.264613e-004,-6.423963e-005
-4.175420e-004,-1.446240e-004
-4.697270e-004,-2.287359e-004
-4.822060e-004,-3.275957e-004
-4.656753e-004,-4.522239e-004
-4.311554e-004,-5.933827e-004
-3.885323e-004,-7.204420e-004
-3.481780e-004,-8.026091e-004
-3.209511e-004,-8.168708e-004
-3.094444e-004,-7.504240e-004
-3.099306e-004,-5.997033e-004
-3.144684e-004,-3.844807e-004
-3.156029e-004,-1.347380e-004
-3.076617e-004,1.216493e-004
-2.912931e-004,3.602095e-004
-2.695764e-004,5.546879e-004
-2.441321e-004,6.814231e-004
-2.131776e-004,7.269635e-004
-1.728234e-004,6.986020e-004
-1.177212e-004,6.198382e-004
-3.749886e-005,5.174129e-004
8.064676e-005,4.159599e-004
2.412535e-004,3.310377e-004
4.354078e-004,2.691287e-004
6.331276e-004,2.341226e-004
7.917897e-004,2.235884e-004
8.707155e-004,2.342847e-004
8.483505e-004,2.561635e-004
7.235601e-004,2.830664e-004
5.127130e-004,3.086727e-004
2.461155e-004,3.258516e-004
-4.171255e-005,3.302274e-004
-3.157650e-004,3.174242e-004
-5.441150e-004,2.820940e-004
-6.980770e-004,2.278021e-004
-7.617687e-004,1.654069e-004
-7.379450e-004,1.141943e-004
-6.411921e-004,8.502253e-005
-4.967919e-004,7.724339e-005
-3.237062e-004,7.935023e-005
-1.396000e-004,7.886404e-005
4.077869e-005,7.076077e-005
1.966855e-004,5.228533e-005
3.107795e-004,1.873781e-005
3.799814e-004,-2.907146e-005
4.174185e-004,-8.320127e-005
4.397836e-004,-1.263107e-004
4.668485e-004,-1.519170e-004
5.060683e-004,-1.627753e-004
5.538776e-004,-1.831956e-004
5.958526e-004,-2.368392e-004
6.127074e-004,-3.241924e-004
5.973111e-004,-4.329382e-004
5.524190e-004,-5.470321e-004
4.809482e-004,-6.439472e-004
3.858158e-004,-6.995355e-004
2.726942e-004,-6.959701e-004
1.594105e-004,-6.199615e-004
7.027457e-005,-4.773441e-004
2.100672e-005,-2.961551e-004
2.003433e-005,-1.110765e-004
6.476436e-005,5.504044e-005
1.279698e-004,1.895547e-004
1.736723e-004,2.863077e-004
1.778859e-004,3.420582e-004
1.401247e-004,3.548613e-004
8.275361e-005,3.234207e-004
3.899597e-005,2.551911e-004
3.818564e-005,1.539003e-004
9.199134e-005,2.246531e-005
1.897167e-004,-1.255003e-004
2.970040e-004,-2.728177e-004
3.752816e-004,-4.021458e-004
3.944053e-004,-4.956574e-004
3.548613e-004,-5.429805e-004
2.769079e-004,-5.415219e-004
1.885823e-004,-4.950092e-004
1.080358e-004,-4.147868e-004
3.834771e-005,-3.134960e-004
-1.643037e-005,-2.041020e-004
-4.689864e-005,-1.013526e-004
-5.321919e-005,-1.448558e-005
-4.138842e-005,5.633696e-005
-2.226472e-005,1.158149e-004
-7.030578e-006,1.718895e-004
-7.840905e-006,2.274780e-004
-1.659243e-005,2.801492e-004
-6.220251e-006,3.218000e-004
4.239934e-005,3.482167e-004
1.239182e-004,3.551854e-004
2.141886e-004,3.376824e-004
2.882525e-004,2.983005e-004
3.329825e-004,2.409294e-004
3.438409e-004,1.641104e-004
3.239068e-004,4.645098e-005
2.825802e-004,-1.292278e-004
2.247228e-004,-3.515814e-004
1.608691e-004,-5.830106e-004
1.094944e-004,-7.771648e-004
8.939829e-005,-9.037378e-004
1.107909e-004,-9.499264e-004
1.720516e-004,-9.223753e-004
2.547049e-004,-8.342118e-004
3.318480e-004,-7.047216e-004
3.801435e-004,-5.465459e-004
3.817642e-004,-3.694086e-004
3.286067e-004,-1.801163e-004
2.384984e-004,2.813760e-005
1.581140e-004,2.543808e-004
1.279698e-004,4.827309e-004
1.404489e-004,6.879057e-004
1.467694e-004,8.451092e-004
9.215340e-005,9.358659e-004
-4.576419e-005,9.551517e-004
-2.511009e-004,9.138250e-004
-4.794509e-004,8.332784e-004
-6.802498e-004,7.339323e-004
-8.160605e-004,6.290759e-004
-8.787797e-004,5.292437e-004
-8.852624e-004,4.316803e-004
-8.586837e-004,3.321721e-004
-8.249740e-004,2.337985e-004
-8.008264e-004,1.449867e-004
-7.891576e-004,7.335382e-005
-7.847819e-004,2.359977e-005
-7.758683e-004,-4.113402e-006
-7.454000e-004,-1.497178e-005
-6.873807e-004,-2.194059e-005
-6.060239e-004,-3.701266e-005
-5.102433e-004,-6.764300e-005
-4.063595e-004,-1.101041e-004
-2.964792e-004,-1.577513e-004
-1.846541e-004,-2.018331e-004
-7.801519e-005,-2.374874e-004
1.160693e-005,-2.634179e-004
8.340186e-005,-2.820554e-004
1.488763e-004,-2.903207e-004
2.192126e-004,-2.896725e-004
2.983005e-004,-2.802727e-004
3.751195e-004,-2.613110e-004
4.298976e-004,-2.272773e-004
4.386491e-004,-1.773612e-004
3.901916e-004,-1.177212e-004
2.965178e-004,-5.565017e-005
1.783722e-004,5.124321e-006
7.497447e-005,6.055066e-005
3.380988e-005,1.069013e-004
7.821578e-005,1.404489e-004
1.945787e-004,1.607070e-004
3.388168e-004,1.702689e-004
4.553419e-004,1.722137e-004
4.971547e-004,1.722137e-004
4.360561e-004,1.816135e-004
2.723700e-004,2.067336e-004
3.056858e-005,2.427121e-004
-2.397564e-004,2.833905e-004
-4.813957e-004,3.167760e-004
-6.512401e-004,3.252033e-004
-7.311383e-004,2.842008e-004
-7.332451e-004,1.856651e-004
-6.830049e-004,4.499239e-005
-6.027826e-004,-1.118868e-004
-4.961436e-004,-2.609869e-004
-3.624398e-004,-3.867496e-004
-2.003745e-004,-4.789647e-004
-1.869928e-005,-5.392530e-004
1.668655e-004,-5.693972e-004
3.367100e-004,-5.713420e-004
4.689553e-004,-5.481666e-004
5.507984e-004,-5.006815e-004
5.760806e-004,-4.261314e-004
5.501501e-004,-3.225717e-004
4.781931e-004,-1.964849e-004
3.572923e-004,-7.250496e-005
1.911753e-004,1.387585e-005
7.231170e-006,3.802358e-005
-1.522411e-004,9.013888e-006
-2.519113e-004,-4.916756e-005
-2.755728e-004,-1.199901e-004
-2.326255e-004,-1.930815e-004
-1.527273e-004,-2.455907e-004
-7.185670e-005,-2.533698e-004
-1.950961e-005,-1.972952e-004
-8.489165e-006,-6.553616e-005
-3.604027e-005,1.347766e-004
-8.871149e-005,3.781987e-004
-1.431654e-004,6.339379e-004
-1.781715e-004,8.870841e-004
-1.865989e-004,1.132775e-003
-1.724992e-004,1.361612e-003
-1.442999e-004,1.554956e-003
-1.099420e-004,1.685581e-003
-7.185670e-005,1.731446e-003
-2.437157e-005,1.690281e-003
3.462021e-005,1.580077e-003
1.022014e-004,1.428707e-003
1.636242e-004,1.261942e-003
2.023578e-004,1.096959e-003
2.141886e-004,9.345693e-004
2.101370e-004,7.697488e-004
2.046267e-004,6.015248e-004
2.117576e-004,4.315182e-004
2.376881e-004,2.641047e-004
2.738286e-004,1.122495e-004
2.973281e-004,-1.562004e-005
2.914938e-004,-1.170729e-004
2.556773e-004,-1.937298e-004
2.036543e-004,-2.476975e-004
1.548727e-004,-2.854588e-004
1.245665e-004,-3.160891e-004
1.184080e-004,-3.455850e-004
1.368834e-004,-3.708672e-004
1.782101e-004,-3.844807e-004
2.404432e-004,-3.822118e-004
3.153174e-004,-3.635742e-004
3.939191e-004,-3.331059e-004
4.793275e-004,-3.010170e-004
5.802942e-004,-2.807589e-004
6.882299e-004,-2.801106e-004
7.785003e-004,-3.013411e-004
8.227442e-004,-3.397506e-004
8.045929e-004,-3.877220e-004
7.255049e-004,-4.395829e-004
6.068730e-004,-4.948471e-004
4.712243e-004,-5.489769e-004
3.355755e-004,-5.919242e-004
2.059233e-004,-6.129927e-004
8.242948e-005,-6.052136e-004
-2.485776e-005,-5.651835e-004
-9.940780e-005,-4.985746e-004
-1.280934e-004,-4.214316e-004
-1.058904e-004,-3.512573e-004
-3.976777e-005,-3.006929e-004
4.920609e-005,-2.731418e-004
1.304008e-004,-2.637420e-004
1.759412e-004,-2.668213e-004
1.738343e-004,-2.778417e-004
1.336421e-004,-2.929138e-004
7.610893e-005,-3.094444e-004
2.457216e-005,-3.220855e-004
-1.108221e-005,-3.233821e-004
-3.085418e-005,-3.133340e-004
-3.879538e-005,-2.896725e-004
-2.534396e-005,-2.562870e-004
2.489629e-005,-2.133397e-004
1.145184e-004,-1.671511e-004
2.253711e-004,-1.255003e-004
3.281205e-004,-9.551824e-005
4.021844e-004,-8.012203e-005
4.320044e-004,-8.060822e-005
4.156358e-004,-9.373551e-005
3.593991e-004,-1.133454e-004
2.709115e-004,-1.255003e-004
1.650828e-004,-1.217728e-004
6.865393e-005,-1.028112e-004
4.151929e-006,-7.607040e-005
-2.420950e-005,-4.949169e-005
-2.453363e-005,-2.988179e-005
-1.432352e-005,-2.129233e-005
-6.706447e-006,-2.696461e-005
-1.173047e-005,-4.381940e-005
-3.134038e-005,-6.521203e-005
-6.294311e-005,-8.368747e-005
-1.055663e-004,-9.114247e-005
-1.671511e-004,-8.336334e-005
-2.567732e-004,-6.132245e-005
-3.710292e-004,-3.053005e-005
-4.916058e-004,2.855406e-006
-5.993792e-004,3.283749e-005
-6.821946e-004,5.844381e-005
-7.361623e-004,7.756751e-005
-7.645237e-004,8.939829e-005
-7.700340e-004,9.166720e-005
-7.494516e-004,8.291567e-005
-6.937012e-004,6.508849e-005
-6.029447e-004,4.612685e-005
-4.925782e-004,2.943412e-005
-3.891806e-004,1.873781e-005
-3.089582e-004,1.436204e-005
-2.572594e-004,1.403791e-005
-2.261429e-004,1.517237e-005
-2.024813e-004,1.630683e-005
-1.681235e-004,1.841368e-005
-1.112386e-004,2.359977e-005
-3.685059e-005,3.737532e-005
3.186510e-005,6.541262e-005
7.610893e-005,1.046324e-004
8.842590e-005,1.504969e-004
7.432621e-005,1.958752e-004
4.499239e-005,2.299089e-004
7.231170e-006,2.456293e-004
-3.458168e-005,2.423880e-004
-7.023605e-005,2.263435e-004
-8.660465e-005,2.054371e-004
-6.586029e-005,1.902029e-004
7.555300e-006,1.863134e-004
1.291043e-004,1.981441e-004
2.718839e-004,2.278021e-004
3.947294e-004,2.725321e-004
4.631210e-004,3.329825e-004
4.602038e-004,4.080188e-004
3.838710e-004,4.924549e-004
2.511395e-004,5.755944e-004
7.708132e-005,6.506307e-004
-1.339277e-004,7.118914e-004
-3.794566e-004,7.538663e-004
-6.445954e-004,7.700729e-004
-9.089239e-004,7.587283e-004
-1.151860e-003,7.222636e-004
-1.347635e-003,6.632718e-004
-1.461891e-003,5.814287e-004
-1.460594e-003,4.783551e-004
-1.326080e-003,3.593991e-004
-1.066289e-003,2.359053e-004
-7.176869e-004,1.229458e-004
-3.478539e-004,3.056858e-005
-3.279896e-005,-4.706071e-005
1.782101e-004,-1.342519e-004
2.699391e-004,-2.523974e-004
2.569738e-004,-4.029561e-004
1.777239e-004,-5.695592e-004
8.534666e-005,-7.407001e-004
2.910999e-005,-9.282097e-004
3.769945e-005,-1.128684e-003
1.052807e-004,-1.311494e-003
1.978200e-004,-1.417809e-003
2.820940e-004,-1.391717e-003
3.517821e-004,-1.203721e-003
4.256839e-004,-8.724592e-004
5.344298e-004,-4.507653e-004
6.870954e-004,-3.789271e-006
8.574261e-004,4.203357e-004
1.005230e-003,7.956792e-004
1.096797e-003,1.100362e-003
1.119000e-003,1.313317e-003
1.079780e-003,1.416876e-003
9.979369e-004,1.409259e-003
8.909737e-004,1.308292e-003
7.778521e-004,1.147361e-003
6.668372e-004,9.627687e-004
5.451261e-004,7.851450e-004
4.145014e-004,6.334517e-004
3.185587e-004,5.166026e-004
2.961937e-004,4.360561e-004
3.402754e-004,3.905157e-004
4.122324e-004,3.807918e-004
4.696036e-004,3.994293e-004
4.880791e-004,4.308700e-004
4.616624e-004,4.556660e-004
4.075326e-004,4.642555e-004
3.564820e-004,4.469145e-004
3.302274e-004,4.039671e-004
3.323342e-004,3.405996e-004
3.568061e-004,2.644288e-004
3.971604e-004,1.793446e-004
4.461041e-004,8.907416e-005
4.908342e-004,-3.627206e-006
5.178991e-004,-9.373551e-005
5.154681e-004,-1.703924e-004
4.710622e-004,-2.284118e-004
3.851675e-004,-2.694143e-004
2.655633e-004,-2.995584e-004
1.180839e-004,-3.269475e-004
-4.722277e-005,-3.603329e-004
-2.113949e-004,-3.967976e-004
-3.533641e-004,-4.309934e-004
-4.565997e-004,-4.612996e-004
-5.108916e-004,-4.852852e-004
-5.235327e-004,-4.997090e-004
-5.191569e-004,-5.060296e-004
-5.212637e-004,-5.120260e-004
-5.356875e-004,-5.188328e-004
-5.520561e-004,-5.202913e-004
-5.638869e-004,-5.170500e-004
-5.702075e-004,-5.125122e-004
-5.705316e-004,-5.086227e-004
-5.565939e-004,-4.998712e-004
-5.227224e-004,-4.822060e-004
-4.706994e-004,-4.554653e-004
-4.079801e-004,-4.240246e-004
-3.425058e-004,-3.914495e-004
-2.707108e-004,-3.604950e-004
-1.822232e-004,-3.326198e-004
-6.991192e-005,-3.086341e-004
7.886404e-005,-2.848105e-004
2.772320e-004,-2.564491e-004
5.175750e-004,-2.263049e-004
7.695867e-004,-2.000504e-004
9.921027e-004,-1.831956e-004
1.136665e-003,-1.827094e-004
1.158706e-003,-1.940539e-004
1.038778e-003,-2.055606e-004
7.890345e-004,-2.091260e-004
4.572866e-004,-2.049123e-004
1.163011e-004,-1.932436e-004
-1.716889e-004,-1.721751e-004
-3.856151e-004,-1.405724e-004
-5.394151e-004,-9.762508e-005
-6.732810e-004,-4.916756e-005
-8.171949e-004,-4.113402e-006
-9.675915e-004,2.797553e-005
-1.092058e-003,4.304760e-005
-1.160773e-003,4.191315e-005
-1.159153e-003,2.797553e-005
-1.078768e-003,1.176900e-005
-9.256166e-004,6.907039e-006
-7.219006e-004,1.873781e-005
-5.091088e-004,3.899597e-005
-3.345645e-004,5.828174e-005
-2.301945e-004,7.302969e-005
-1.947022e-004,8.729143e-005
-2.010227e-004,1.026876e-004
-2.058847e-004,1.085220e-004
-1.754164e-004,8.826383e-005
-1.018388e-004,3.105477e-005
1.883015e-006,-7.898758e-005
1.034980e-004,-2.616351e-004
1.759412e-004,-5.228844e-004
2.088404e-004,-8.415048e-004
2.101370e-004,-1.167904e-003
1.997648e-004,-1.445360e-003
1.966855e-004,-1.629304e-003
2.153230e-004,-1.689430e-003
2.607013e-004,-1.601429e-003
3.261757e-004,-1.363193e-003
3.910019e-004,-9.849325e-004
4.229288e-004,-4.935506e-004
3.827366e-004,6.946425e-005
2.545429e-004,6.564650e-004
5.990240e-005,1.227908e-003
-1.389517e-004,1.757052e-003
-2.635799e-004,2.216023e-003
-2.590421e-004,2.578241e-003
-1.263107e-004,2.820044e-003
7.221937e-005,2.929925e-003
2.448189e-004,2.904966e-003
3.211517e-004,2.755703e-003
2.845250e-004,2.507418e-003
1.814514e-004,2.193658e-003
8.323980e-005,1.850402e-003
4.304760e-005,1.507147e-003
7.481241e-005,1.188040e-003
1.624898e-004,9.058837e-004
2.715597e-004,6.655407e-004
3.619922e-004,4.670106e-004
4.010499e-004,3.114278e-004
3.812780e-004,1.970097e-004
3.260137e-004,1.103047e-004
2.694529e-004,3.899597e-005
2.427121e-004,-2.842320e-005
2.566497e-004,-1.076731e-004
3.031625e-004,-2.125294e-004
3.584267e-004,-3.481780e-004
3.961880e-004,-5.029504e-004
3.974845e-004,-6.517263e-004
3.590750e-004,-7.724649e-004
2.872800e-004,-8.583595e-004
1.923098e-004,-9.139479e-004
8.486046e-005,-9.489540e-004
-2.194059e-005,-9.714811e-004
-1.130213e-004,-9.833118e-004
-1.734716e-004,-9.857429e-004
-1.953505e-004,-9.815291e-004
-1.783336e-004,-9.761809e-004
-1.378173e-004,-9.662950e-004
-9.260106e-005,-9.410128e-004
-5.775702e-005,-8.878554e-004
-4.203669e-005,-7.988816e-004
-4.090223e-005,-6.757120e-004
-2.793700e-005,-5.274222e-004
1.776542e-005,-3.651949e-004
9.296372e-005,-1.997262e-004
1.741585e-004,-3.555407e-005
2.381743e-004,1.206769e-004
2.773941e-004,2.517877e-004
3.028383e-004,3.427064e-004
3.247172e-004,3.879227e-004
3.508097e-004,3.877606e-004
3.806297e-004,3.540510e-004
4.002396e-004,3.021901e-004
3.992672e-004,2.453051e-004
3.806297e-004,1.887443e-004
3.490270e-004,1.401247e-004
3.062417e-004,1.047945e-004
2.529222e-004,8.226741e-005
1.913374e-004,6.865393e-005
1.274836e-004,6.314371e-005
6.751947e-005,6.606088e-005
1.419998e-005,7.708132e-005
-2.907146e-005,9.847395e-005
-6.213279e-005,1.300767e-004
-8.692878e-005,1.628139e-004
-1.067007e-004,1.830720e-004
-1.242038e-004,1.820997e-004
-1.363587e-004,1.607070e-004
-1.436516e-004,1.299146e-004
-1.467309e-004,1.038221e-004
-1.425172e-004,9.150514e-005
-1.326312e-004,8.972242e-005
-1.180453e-004,8.826383e-005
-1.067007e-004,7.886404e-005
-1.088076e-004,5.325772e-005
-1.314967e-004,1.808955e-005
-1.692580e-004,-1.934754e-005
-2.073433e-004,-5.629843e-005
-2.284118e-004,-8.968388e-005
-2.264670e-004,-1.144799e-004
-2.086398e-004,-1.284175e-004
-1.898402e-004,-1.397621e-004
-1.883817e-004,-1.637477e-004
-2.186879e-004,-2.041020e-004
-2.817312e-004,-2.523974e-004
-3.637363e-004,-2.929138e-004
-4.356933e-004,-3.105789e-004
-4.702132e-004,-2.993964e-004
-4.564376e-004,-2.634179e-004
-4.034423e-004,-2.141500e-004
-3.415334e-004,-1.652063e-004
-2.993964e-004,-1.310105e-004
-2.831898e-004,-1.167488e-004
-2.796244e-004,-1.225831e-004
-2.767072e-004,-1.441378e-004
-2.588801e-004,-1.749302e-004
-2.156086e-004,-2.053985e-004
-1.540238e-004,-2.227395e-004
-9.859748e-005,-2.183637e-004
-7.931171e-005,-1.903264e-004
-1.078352e-004,-1.475412e-004
-1.656925e-004,-9.956987e-005
-2.162569e-004,-5.581224e-005
-2.269532e-004,-1.886135e-005
-1.838438e-004,1.452411e-005
-9.357345e-005,4.580272e-005
3.218923e-005,7.691926e-005
1.715654e-004,1.073875e-004
3.008935e-004,1.427178e-004
4.000776e-004,1.783722e-004
4.585831e-004,2.041405e-004
4.765724e-004,1.987924e-004
4.649037e-004,1.357490e-004
4.360561e-004,9.662150e-006
3.991052e-004,-1.499722e-004
3.540510e-004,-2.959930e-004
3.005694e-004,-3.932322e-004
2.383363e-004,-4.368277e-004
1.676758e-004,-4.420138e-004
9.053274e-005,-4.217557e-004
1.646889e-005,-3.783222e-004
-4.495386e-005,-3.084720e-004
-8.547019e-005,-2.092881e-004
-1.026491e-004,-8.644258e-005
-1.076731e-004,4.288554e-005
-1.089697e-004,1.616794e-004
-1.047560e-004,2.561635e-004
-8.141856e-005,3.187208e-004
-2.777494e-005,3.546993e-004
5.828174e-005,3.796573e-004
1.692965e-004,4.054257e-004
2.934386e-004,4.342734e-004
4.192013e-004,4.606900e-004
5.302160e-004,4.885652e-004
6.067109e-004,5.310263e-004
6.240519e-004,5.950422e-004
5.683014e-004,6.744543e-004
4.535591e-004,7.619696e-004
3.370341e-004,8.472161e-004
2.748010e-004,9.233868e-004
2.858215e-004,9.877268e-004
3.529165e-004,1.032781e-003
4.341113e-004,1.057091e-003
4.775448e-004,1.059360e-003
4.401077e-004,1.033591e-003
3.068900e-004,9.707100e-004
9.296372e-005,8.718500e-004
-1.595340e-004,7.493285e-004
-3.989045e-004,6.148142e-004
-5.862519e-004,4.741414e-004
-7.050458e-004,3.281205e-004
-7.656582e-004,1.767515e-004
-7.876991e-004,2.603075e-005
-7.802441e-004,-1.110765e-004
-7.376209e-004,-2.217671e-004
-6.507539e-004,-2.929138e-004
-5.209396e-004,-3.267854e-004
-3.698948e-004,-3.342404e-004
-2.288980e-004,-3.253268e-004
-1.183694e-004,-3.068514e-004
-4.625038e-005,-2.773555e-004
-1.351319e-005,-2.352185e-004
-2.534396e-005,-1.865989e-004
-8.174268e-005,-1.400862e-004
-1.684476e-004,-1.041077e-004
-2.598524e-004,-8.725291e-005
-3.160891e-004,-9.276313e-005
-2.995584e-004,-1.182074e-004
-1.825473e-004,-1.569410e-004
3.397195e-005,-2.011848e-004
3.122381e-004,-2.460769e-004
5.911527e-004,-2.914552e-004
8.066997e-004,-3.361852e-004
9.165801e-004,-3.802670e-004
9.143112e-004,-4.194868e-004
8.156133e-004,-4.408794e-004
6.460928e-004,-4.394208e-004
4.334631e-004,-4.245108e-004
2.070577e-004,-4.089525e-004
-2.330684e-006,-3.992286e-004
-1.658546e-004,-3.938804e-004
-2.661730e-004,-3.852910e-004
-3.016653e-004,-3.677879e-004
-2.856208e-004,-3.473677e-004
-2.413770e-004,-3.288923e-004
-1.929195e-004,-3.128478e-004
-1.588858e-004,-2.998826e-004
-1.434896e-004,-2.898345e-004
-1.405724e-004,-2.818933e-004
-1.344139e-004,-2.758969e-004
-1.055663e-004,-2.707108e-004
-3.992984e-005,-2.614731e-004
6.557468e-005,-2.425115e-004
1.978200e-004,-2.159328e-004
3.346032e-004,-1.878955e-004
4.568004e-004,-1.807646e-004
5.550120e-004,-2.207947e-004
6.340999e-004,-3.110651e-004
7.033019e-004,-4.254832e-004
7.655350e-004,-5.267740e-004
8.141547e-004,-5.856036e-004
8.436506e-004,-5.951655e-004
8.483505e-004,-5.692351e-004
8.222580e-004,-5.228844e-004
7.608352e-004,-4.553032e-004
6.618132e-004,-3.510952e-004
5.415606e-004,-2.010227e-004
4.323286e-004,-1.286493e-005
3.681507e-004,1.761032e-004
3.478925e-004,3.112657e-004
3.344411e-004,3.339549e-004
2.851732e-004,2.172678e-004
1.767515e-004,-1.059601e-005
1.873781e-005,-2.814071e-004
-1.626133e-004,-5.157535e-004
-3.365093e-004,-6.575607e-004
-4.778303e-004,-6.797636e-004
-5.685868e-004,-5.745832e-004
-5.998655e-004,-3.476918e-004
-5.745832e-004,-2.031993e-005
-5.099192e-004,3.697713e-004
-4.269418e-004,7.772038e-004
-3.489884e-004,1.149630e-003
-2.917793e-004,1.447507e-003
-2.640661e-004,1.648793e-003
-2.687660e-004,1.732256e-003
-3.026377e-004,1.690443e-003
-3.577399e-004,1.541505e-003
-4.288865e-004,1.320934e-003
-5.091088e-004,1.072973e-003
-5.849554e-004,8.363576e-004
-6.428128e-004,6.331276e-004
-6.774946e-004,4.679830e-004
-6.911082e-004,3.428685e-004
-6.896496e-004,2.619979e-004
-6.773326e-004,2.265056e-004
-6.530228e-004,2.397949e-004
-6.133168e-004,3.010556e-004
-5.552974e-004,4.086670e-004
-4.792888e-004,5.585775e-004
-3.899909e-004,7.337703e-004
-2.990722e-004,9.021562e-004
-2.175534e-004,1.027271e-003
-1.442999e-004,1.079294e-003
-6.893953e-005,1.045584e-003
1.338965e-005,9.381348e-004
1.031738e-004,7.775279e-004
2.030061e-004,5.848320e-004
3.098072e-004,3.769022e-004
4.080188e-004,1.613553e-004
4.747897e-004,-5.338126e-005
4.874308e-004,-2.580697e-004
4.362181e-004,-4.378001e-004
3.358997e-004,-5.804176e-004
2.175920e-004,-6.765223e-004
1.156529e-004,-7.301659e-004
5.147500e-005,-7.611204e-004
3.316162e-005,-7.912645e-004
5.341978e-005,-8.262706e-004
9.717742e-005,-8.580354e-004
1.511452e-004,-8.724592e-004
1.999268e-004,-8.593319e-004
2.287745e-004,-8.197880e-004
2.312054e-004,-7.586894e-004
2.143507e-004,-6.849497e-004
1.919856e-004,-6.055377e-004
1.762653e-004,-5.212637e-004
1.786963e-004,-4.337485e-004
2.021958e-004,-3.519055e-004
2.331502e-004,-2.882139e-004
2.521119e-004,-2.515871e-004
2.428742e-004,-2.381357e-004
1.987924e-004,-2.378116e-004
1.284560e-004,-2.408908e-004
4.207521e-005,-2.400805e-004
-4.916756e-005,-2.290600e-004
-1.336036e-004,-2.005366e-004
-2.010227e-004,-1.558065e-004
-2.501285e-004,-1.029732e-004
-2.864312e-004,-5.386745e-005
-3.070135e-004,-1.513384e-005
-3.049066e-004,1.598270e-005
-2.747625e-004,4.353380e-005
-2.241981e-004,7.011251e-005
-1.703924e-004,1.012291e-004
-1.415448e-004,1.381799e-004
-1.556445e-004,1.806411e-004
-2.063709e-004,2.198609e-004
-2.681178e-004,2.459534e-004
-3.089582e-004,2.543808e-004
-3.052307e-004,2.487085e-004
-2.481837e-004,2.339606e-004
-1.376552e-004,2.140265e-004
2.359977e-005,1.936063e-004
2.227780e-004,1.804790e-004
4.320044e-004,1.801549e-004
6.042799e-004,1.923098e-004
6.838541e-004,2.080301e-004
6.375034e-004,2.141886e-004
4.713863e-004,2.054371e-004
2.198609e-004,1.871237e-004
-6.618442e-005,1.613553e-004
-3.237062e-004,1.253768e-004
-4.971160e-004,8.113296e-005
-5.603214e-004,3.202716e-005
-5.259637e-004,-1.497178e-005
-4.353692e-004,-5.435365e-005
-3.284061e-004,-8.676671e-005
-2.240360e-004,-1.152902e-004
-1.183694e-004,-1.464067e-004
3.989864e-006,-1.825473e-004
1.652449e-004,-2.206326e-004
3.734988e-004,-2.522354e-004
6.211348e-004,-2.713591e-004
8.843290e-004,-2.723315e-004
1.132289e-003,-2.564491e-004
1.345892e-003,-2.290600e-004
1.520112e-003,-1.955125e-004
1.646037e-003,-1.567789e-004
1.710215e-003,-1.165867e-004
1.699843e-003,-7.769105e-005
1.611031e-003,-4.641245e-005
1.447021e-003,-2.388537e-005
1.225315e-003,-1.643037e-005
9.626067e-004,-3.587821e-005
6.606787e-004,-8.368747e-005
3.205035e-004,-1.512687e-004
-4.576419e-005,-2.217671e-004
-4.134903e-004,-2.916172e-004
-7.337313e-004,-3.702189e-004
-9.449024e-004,-4.580583e-004
-1.014590e-003,-5.373082e-004
-9.581918e-004,-5.817141e-004
-8.168708e-004,-5.719902e-004
-6.416783e-004,-5.057055e-004
-4.794509e-004,-3.966356e-004
-3.541744e-004,-2.600145e-004
-2.755728e-004,-1.073490e-004
-2.465631e-004,5.228533e-005
-2.583938e-004,2.052750e-004
-2.888622e-004,3.358997e-004
-3.110651e-004,4.255218e-004
-3.109030e-004,4.564763e-004
-2.938861e-004,4.192013e-004
-2.749245e-004,3.226103e-004
-2.699005e-004,1.908512e-004
-2.885380e-004,5.811968e-005
-3.277578e-004,-4.187462e-005
-3.726499e-004,-8.563225e-005
-4.018217e-004,-6.504996e-005
-3.997148e-004,1.128280e-005
-3.697327e-004,1.320215e-004
-3.284061e-004,2.869559e-004
-2.942103e-004,4.629589e-004
-2.757348e-004,6.389620e-004
-2.690902e-004,7.830382e-004
-2.637420e-004,8.710397e-004
-2.470493e-004,8.964840e-004
-2.099363e-004,8.669881e-004
-1.596961e-004,8.000550e-004
-1.122110e-004,7.092984e-004
-7.882551e-005,6.063868e-004
-6.569822e-005,4.999098e-004
-6.472583e-005,3.960259e-004
-6.456376e-005,2.995970e-004
-5.192267e-005,2.192126e-004
-2.680255e-005,1.586002e-004
-2.978945e-006,1.163011e-004
1.883015e-006,8.534666e-005
-1.983374e-005,6.217131e-005
-5.921561e-005,5.098881e-005
-9.341139e-005,6.055066e-005
-1.044318e-004,9.669123e-005
-8.968388e-005,1.560071e-004
-5.710876e-005,2.300710e-004
-1.270286e-005,3.138588e-004
3.996836e-005,4.005638e-004
9.750155e-005,4.896997e-004
1.595726e-004,5.695979e-004
2.242366e-004,6.083316e-004
2.824181e-004,5.775391e-004
3.156415e-004,4.715484e-004
3.140208e-004,3.161277e-004
2.791768e-004,1.488763e-004
2.266676e-004,5.864920e-007
1.744826e-004,-1.110765e-004
1.339663e-004,-1.793060e-004
1.056048e-004,-2.006986e-004
8.988448e-005,-1.781715e-004
9.037068e-005,-1.222590e-004
9.960840e-005,-5.516398e-005
1.059289e-004,2.045080e-006
1.000946e-004,4.774750e-005
8.242948e-005,9.604297e-005
6.249544e-005,1.530900e-004
4.904402e-005,2.115955e-004
5.082674e-005,2.487085e-004
7.286762e-005,2.226160e-004
1.128978e-004,1.004187e-004
1.608691e-004,-1.062145e-004
2.023578e-004,-3.489884e-004
2.219677e-004,-5.776625e-004
2.138645e-004,-7.624169e-004
1.804790e-004,-8.979035e-004
1.248906e-004,-9.855808e-004
5.228533e-005,-1.018642e-003
-3.166451e-005,-9.852566e-004
-1.310105e-004,-8.792660e-004
-2.549905e-004,-7.035872e-004
-3.942045e-004,-4.736166e-004
-5.157535e-004,-2.147983e-004
-5.894932e-004,4.807163e-005
-6.081308e-004,2.932765e-004
-5.823624e-004,5.026649e-004
-5.236947e-004,6.493341e-004
-4.473620e-004,6.948745e-004
-3.579019e-004,6.243761e-004
-2.429977e-004,4.556660e-004
-9.146661e-005,2.263435e-004
9.037068e-005,-1.432352e-005
2.709115e-004,-2.135018e-004
4.109359e-004,-3.301888e-004
4.877549e-004,-3.465574e-004
4.992615e-004,-2.643903e-004
4.660382e-004,-9.940780e-005
4.174185e-004,1.164632e-004
3.827366e-004,3.417340e-004
3.874364e-004,5.467467e-004
4.529109e-004,7.180499e-004
5.914768e-004,8.522401e-004
7.809313e-004,9.493173e-004
9.637411e-004,1.005230e-003
1.073622e-003,1.007823e-003
1.075080e-003,9.378106e-004
9.663342e-004,7.665075e-004
7.655350e-004,4.849998e-004
4.973168e-004,1.234320e-004
1.811273e-004,-2.449424e-004
-1.655304e-004,-5.458976e-004
-5.181845e-004,-7.458862e-004
-8.410186e-004,-8.502562e-004
-1.093678e-003,-8.807246e-004
-1.248775e-003,-8.594940e-004
-1.290912e-003,-7.932092e-004
-1.218631e-003,-6.791154e-004
-1.042304e-003,-5.232086e-004
-7.906162e-004,-3.557951e-004
-5.087847e-004,-2.170672e-004
-2.366771e-004,-1.331174e-004
-8.720958e-007,-1.089697e-004
1.757791e-004,-1.276072e-004
2.872800e-004,-1.624512e-004
3.381686e-004,-1.966470e-004
3.405996e-004,-2.261429e-004
3.156415e-004,-2.551526e-004
2.921420e-004,-2.872415e-004
2.979764e-004,-3.215993e-004
3.449753e-004,-3.561192e-004
4.174185e-004,-3.873978e-004
4.898618e-004,-4.071698e-004
5.410744e-004,-4.113835e-004
5.653843e-004,-4.003631e-004
5.658705e-004,-3.805911e-004
5.514466e-004,-3.604950e-004
5.363746e-004,-3.408851e-004
5.347539e-004,-3.160891e-004
5.482053e-004,-2.805968e-004
5.668428e-004,-2.318151e-004
5.822390e-004,-1.747682e-004
5.730013e-004,-1.177212e-004
5.229231e-004,-6.359137e-005
4.462662e-004,-1.189254e-005
3.851675e-004,3.737532e-005
3.676645e-004,8.145709e-005
3.869503e-004,1.146805e-004
4.051016e-004,1.195424e-004
3.796573e-004,7.432621e-005
2.885766e-004,-3.247483e-005
1.472556e-004,-1.901644e-004
-1.075808e-005,-3.716775e-004
-1.580754e-004,-5.358497e-004
-2.773555e-004,-6.437851e-004
-3.616295e-004,-6.684190e-004
-4.141386e-004,-6.044033e-004
-4.481723e-004,-4.559515e-004
-4.721580e-004,-2.335979e-004
-5.000332e-004,3.607880e-005
-5.397392e-004,3.081865e-004
-5.873864e-004,5.337815e-004
-6.296854e-004,6.733198e-004
-6.520504e-004,7.127018e-004
-6.496194e-004,6.715371e-004
-6.285509e-004,5.838597e-004
-6.055377e-004,4.830550e-004
-5.979206e-004,3.799814e-004
-6.071583e-004,2.513016e-004
-6.223925e-004,7.578480e-005
-6.262820e-004,-1.298761e-004
-6.092652e-004,-3.219235e-004
-5.705316e-004,-4.536825e-004
-5.193189e-004,-4.938747e-004
-4.732924e-004,-4.371519e-004
-4.471999e-004,-2.946965e-004
-4.408794e-004,-8.125648e-005
-4.413656e-004,1.877719e-004
-4.219177e-004,4.911583e-004
-3.588744e-004,7.948689e-004
-2.493182e-004,1.067949e-003
-1.052422e-004,1.293869e-003
4.839576e-005,1.471168e-003
1.913374e-004,1.610221e-003
3.172621e-004,1.714753e-003
4.326527e-004,1.776824e-003
5.452881e-004,1.777311e-003
6.457687e-004,1.698709e-003
7.105949e-004,1.541991e-003
7.167534e-004,1.327254e-003
6.577615e-004,1.084480e-003
5.507984e-004,8.415437e-004
4.255218e-004,6.272933e-004
3.192069e-004,4.580969e-004
2.501671e-004,3.328204e-004
2.180782e-004,2.389846e-004
2.106232e-004,1.629759e-004
2.115955e-004,9.085687e-005
2.044647e-004,8.527692e-006
1.790204e-004,-8.692878e-005
1.279698e-004,-1.893540e-004
5.277152e-005,-2.838381e-004
-4.187462e-005,-3.543365e-004
-1.399241e-004,-3.937184e-004
-2.167431e-004,-4.091146e-004
-2.433218e-004,-4.157593e-004
-2.120432e-004,-4.245108e-004
-1.413827e-004,-4.426621e-004
-6.035006e-005,-4.726441e-004
5.934647e-006,-5.058675e-004
4.013043e-005,-5.360117e-004
3.899597e-005,-5.604835e-004
1.468617e-005,-5.796073e-004
-1.302699e-005,-5.924104e-004
-3.150244e-005,-5.998655e-004
-3.328516e-005,-6.032688e-004
-2.242678e-005,-5.977585e-004
-1.480971e-005,-5.773383e-004
-1.934754e-005,-5.377944e-004
-2.923352e-005,-4.818819e-004
-2.777494e-005,-4.186764e-004
-6.220251e-006,-3.616295e-004
3.316162e-005,-3.162512e-004
8.340186e-005,-2.852967e-004
1.425557e-004,-2.629317e-004
2.044647e-004,-2.444563e-004
2.582704e-004,-2.293842e-004
2.893869e-004,-2.225774e-004
2.940868e-004,-2.240360e-004
2.748010e-004,-2.288980e-004
2.381743e-004,-2.306807e-004
1.983062e-004,-2.222533e-004
1.741585e-004,-2.019951e-004
1.751308e-004,-1.734716e-004
1.950649e-004,-1.418689e-004
2.211574e-004,-1.186936e-004
2.448189e-004,-1.089697e-004
2.576221e-004,-1.115627e-004
2.529222e-004,-1.243659e-004
2.161334e-004,-1.486757e-004
1.278078e-004,-1.806025e-004
-1.545797e-005,-2.136638e-004
-1.938919e-004,-2.429977e-004
-3.752429e-004,-2.622834e-004
-5.303394e-004,-2.660109e-004
-6.259579e-004,-2.501285e-004
-6.407059e-004,-2.198223e-004
-5.693972e-004,-1.799543e-004
-4.288865e-004,-1.417068e-004
-2.634179e-004,-1.169109e-004
-1.104282e-004,-1.052422e-004
1.047248e-005,-9.924574e-005
1.047945e-004,-9.033214e-005
1.885823e-004,-7.104637e-005
2.804733e-004,-3.506787e-005
3.992672e-004,2.343770e-005
5.742979e-004,1.059289e-004
8.201511e-004,2.065715e-004
1.113328e-003,3.067279e-004
1.392567e-003,3.916502e-004
1.588342e-003,4.584211e-004
1.647334e-003,5.141716e-004
1.542477e-003,5.601982e-004
1.274745e-003,5.971491e-004
8.726603e-004,6.227554e-004
3.864641e-004,6.368551e-004
-1.302002e-004,6.362069e-004
-6.232028e-004,6.201623e-004
-1.034200e-003,5.890458e-004
-1.314249e-003,5.462606e-004
-1.437257e-003,4.887274e-004
-1.404358e-003,4.057499e-004
-1.238078e-003,2.978143e-004
-9.868774e-004,1.765894e-004
-7.110421e-004,5.909207e-005
-4.587065e-004,-3.604027e-005
-2.551526e-004,-1.005423e-004
-9.551824e-005,-1.313347e-004
3.316162e-005,-1.383035e-004
1.326697e-004,-1.344139e-004
2.038164e-004,-1.311726e-004
2.422259e-004,-1.345760e-004
2.436845e-004,-1.412206e-004
2.175920e-004,-1.472171e-004
1.850168e-004,-1.465688e-004
1.516314e-004,-1.292278e-004
1.085220e-004,-8.530812e-005
4.645098e-005,-9.137427e-006
-3.620233e-005,9.458438e-005
-1.277692e-004,2.047888e-004
-2.084778e-004,2.780423e-004
-2.570973e-004,2.830664e-004
-2.634179e-004,2.206712e-004
-2.329496e-004,1.154908e-004
-1.801163e-004,-1.675450e-005
-1.125351e-004,-1.848162e-004
-3.101624e-005,-3.885323e-004
7.011251e-005,-6.068342e-004
1.987924e-004,-8.024470e-004
3.501614e-004,-9.325854e-004
5.036373e-004,-9.669433e-004
6.321552e-004,-8.940139e-004
7.102708e-004,-7.172007e-004
7.263152e-004,-4.392587e-004
6.843403e-004,-6.974985e-005
5.973111e-004,3.608577e-004
4.827309e-004,7.932482e-004
3.592371e-004,1.165188e-003
2.370398e-004,1.438431e-003
1.237561e-004,1.612004e-003
2.035846e-005,1.702598e-003
-6.861539e-005,1.731122e-003
-1.352242e-004,1.705677e-003
-1.744440e-004,1.627400e-003
-1.853024e-004,1.498396e-003
-1.796301e-004,1.328875e-003
-1.716889e-004,1.130020e-003
-1.692580e-004,9.162559e-004
-1.765509e-004,7.045984e-004
-1.979435e-004,5.088234e-004
-2.373254e-004,3.341170e-004
-2.908069e-004,1.814514e-004
-3.413713e-004,4.531652e-005
-3.715154e-004,-8.547019e-005
-3.752429e-004,-2.182017e-004
-3.595226e-004,-3.517435e-004
-3.363473e-004,-4.745890e-004
-3.136581e-004,-5.758798e-004
-2.950206e-004,-6.483229e-004
-2.799485e-004,-6.885151e-004
-2.684419e-004,-6.984011e-004
-2.598524e-004,-6.843014e-004
-2.559629e-004,-6.564262e-004
-2.549905e-004,-6.256338e-004
-2.498044e-004,-5.987309e-004
-2.345703e-004,-5.812279e-004
-2.120432e-004,-5.744212e-004
-1.838438e-004,-5.794452e-004
-1.519170e-004,-5.964620e-004
-1.201522e-004,-6.167202e-004
-9.438377e-005,-6.277406e-004
-7.720485e-005,-6.275786e-004
-6.877746e-005,-6.183409e-004
-6.829127e-005,-6.032688e-004
-7.671866e-005,-5.770142e-004
-8.887356e-005,-5.360117e-004
-9.649063e-005,-4.841508e-004
-8.676671e-005,-4.298589e-004
-4.884343e-005,-3.778360e-004
1.355172e-005,-3.274337e-004
8.388807e-005,-2.768693e-004
1.445005e-004,-2.232257e-004
1.871237e-004,-1.639098e-004
2.140265e-004,-1.002181e-004
2.289365e-004,-4.090223e-005
2.341226e-004,-7.100305e-007
2.216436e-004,8.041497e-006
1.926339e-004,-1.707863e-005
1.607070e-004,-6.456376e-005
1.389903e-004,-1.149661e-004
1.310491e-004,-1.494860e-004
1.320215e-004,-1.642339e-004
1.326697e-004,-1.669890e-004
1.163011e-004,-1.627753e-004
6.816773e-005,-1.491618e-004
-8.327101e-006,-1.219349e-004
-9.438377e-005,-7.574627e-005
-1.627753e-004,-1.594417e-005
-1.882196e-004,4.288554e-005
-1.549962e-004,8.988448e-005
-6.699474e-005,1.235941e-004
5.325772e-005,1.498487e-004
1.795066e-004,1.728619e-004
2.853353e-004,1.991165e-004
3.511338e-004,2.299089e-004
3.743092e-004,2.621599e-004
3.670162e-004,2.927903e-004
