-2.339917e-005,-1.578211e-005
-3.198863e-005,-4.608832e-005
-5.856734e-005,-7.655659e-005
-9.843541e-005,-8.935975e-005
-1.379793e-004,-7.931171e-005
-1.624512e-004,-5.013995e-005
-1.687718e-004,-1.318906e-005
-1.676373e-004,2.019640e-005
-1.679614e-004,4.045456e-005
-1.723372e-004,4.790957e-005
-1.838438e-004,5.244739e-005
-2.081536e-004,5.974033e-005
-2.400805e-004,6.525056e-005
-2.648765e-004,6.573675e-005
-2.692523e-004,6.330577e-005
-2.522354e-004,6.168512e-005
-2.198223e-004,6.330577e-005
-1.818990e-004,6.654707e-005
-1.468929e-004,6.962632e-005
-1.195039e-004,7.238143e-005
-9.875954e-005,7.108490e-005
-7.331529e-005,6.492643e-005
-2.761287e-005,5.293359e-005
4.418206e-005,3.575467e-005
1.372075e-004,1.257933e-005
2.386605e-004,-1.173047e-005
3.337928e-004,-3.798505e-005
4.154738e-004,-6.731887e-005
4.871067e-004,-9.875954e-005
5.535535e-004,-1.243659e-004
6.106005e-004,-1.345760e-004
6.577615e-004,-1.253383e-004
6.960090e-004,-9.697682e-005
7.232359e-004,-5.856734e-005
7.329599e-004,-1.821308e-005
7.156189e-004,1.646889e-005
6.704027e-004,4.013043e-005
6.067109e-004,4.596478e-005
5.391297e-004,3.170303e-005
4.751138e-004,9.338019e-006
4.250356e-004,-1.302699e-005
4.008879e-004,-2.745081e-005
3.979707e-004,-2.761287e-005
4.008879e-004,-1.837515e-005
3.982948e-004,-5.409925e-006
3.824124e-004,9.500084e-006
3.470822e-004,2.489629e-005
2.840387e-004,4.223728e-005
1.924718e-004,5.844381e-005
8.210535e-005,6.914012e-005
-2.842320e-005,7.529860e-005
-1.255003e-004,8.113296e-005
-2.105846e-004,8.226741e-005
-3.018273e-004,7.967437e-005
-4.083042e-004,8.016056e-005
-5.112157e-004,8.956035e-005
-5.796073e-004,1.106288e-004
-5.911139e-004,1.334801e-004
-5.447632e-004,1.485521e-004
-4.489826e-004,1.508210e-004
-3.196545e-004,1.385041e-004
-1.841679e-004,1.177597e-004
-7.007398e-005,9.896014e-005
8.041497e-006,9.182927e-005
4.823369e-005,9.555677e-005
5.585077e-005,1.049566e-004
4.337174e-005,1.145184e-004
2.603075e-005,1.224596e-004
1.954813e-005,1.257009e-004
3.575467e-005,1.219734e-004
7.027457e-005,1.103047e-004
1.127357e-004,9.426025e-005
1.514693e-004,7.902610e-005
1.725378e-004,7.270556e-005
1.709171e-004,8.145709e-005
1.496866e-004,9.928427e-005
1.143563e-004,1.184080e-004
7.448828e-005,1.323456e-004
4.402000e-005,1.338042e-004
4.547859e-005,1.226217e-004
9.053274e-005,1.017153e-004
1.689724e-004,8.097089e-005
2.582704e-004,7.335382e-005
3.311998e-004,8.178122e-005
3.764160e-004,9.912220e-005
3.942432e-004,1.171115e-004
3.858158e-004,1.310491e-004
3.597233e-004,1.389903e-004
3.274723e-004,1.417454e-004
2.983005e-004,1.399627e-004
2.751252e-004,1.344524e-004
2.556773e-004,1.219734e-004
2.349330e-004,1.054428e-004
2.099749e-004,9.101894e-005
1.864754e-004,7.853991e-005
1.665414e-004,6.508849e-005
1.420695e-004,4.888196e-005
1.030118e-004,2.910999e-005
4.077869e-005,5.934647e-006
-4.155049e-005,-1.594417e-005
-1.293899e-004,-2.793700e-005
-2.044261e-004,-2.842320e-005
-2.566112e-004,-2.242678e-005
-2.786520e-004,-1.659243e-005
-2.783279e-004,-1.529591e-005
-2.686040e-004,-1.675450e-005
-2.580697e-004,-1.869928e-005
-2.485079e-004,-1.432352e-005
-2.319772e-004,1.558884e-006
-2.021572e-004,2.975825e-005
-1.632615e-004,5.990240e-005
-1.293899e-004,8.178122e-005
-1.110765e-004,8.842590e-005
-1.078352e-004,8.194328e-005
-1.054042e-004,6.995045e-005
-9.859748e-005,5.277152e-005
-8.611845e-005,3.121684e-005
-7.250496e-005,8.689757e-006
-6.213279e-005,-7.192643e-006
-5.808115e-005,-1.335112e-005
-5.937767e-005,-1.902341e-005
-5.970180e-005,-2.988179e-005
-5.176060e-005,-4.706071e-005
-3.555407e-005,-7.056018e-005
-2.323711e-005,-1.002181e-004
-2.307504e-005,-1.353863e-004
-3.685059e-005,-1.661787e-004
-5.743289e-005,-1.854645e-004
-7.785312e-005,-1.903264e-004
-9.486997e-005,-1.810887e-004
-1.097800e-004,-1.582375e-004
-1.211245e-004,-1.233935e-004
-1.274451e-004,-8.109442e-005
-1.297140e-004,-3.587821e-005
-1.271210e-004,4.151929e-006
-1.219349e-004,3.753739e-005
-1.169109e-004,6.914012e-005
-1.065387e-004,9.944633e-005
-8.239095e-005,1.232699e-004
-4.819516e-005,1.376937e-004
-1.594417e-005,1.440143e-004
4.244267e-007,1.399627e-004
-2.006553e-006,1.244044e-004
-1.432352e-005,1.009049e-004
-2.809907e-005,7.513654e-005
-3.360929e-005,4.969228e-005
-1.950961e-005,2.748933e-005
1.841368e-005,1.063454e-005
7.092283e-005,8.041497e-006
1.294284e-004,2.311357e-005
1.817755e-004,4.888196e-005
2.143507e-004,7.870197e-005
2.245608e-004,1.075496e-004
2.128921e-004,1.273216e-004
1.736723e-004,1.315353e-004
1.124116e-004,1.237561e-004
5.682316e-005,1.083599e-004
3.105477e-005,8.972242e-005
4.094075e-005,7.367795e-005
7.465034e-005,6.071273e-005
1.127357e-004,5.115087e-005
1.363972e-004,4.564065e-005
1.433660e-004,4.531652e-005
1.407730e-004,4.871989e-005
1.428798e-004,5.179913e-005
1.590864e-004,5.341978e-005
1.924718e-004,5.406805e-005
2.388225e-004,5.325772e-005
2.869559e-004,5.260946e-005
3.224483e-004,6.022653e-005
3.341170e-004,7.821578e-005
3.247172e-004,1.018773e-004
3.039728e-004,1.214872e-004
2.842008e-004,1.312111e-004
2.718839e-004,1.318594e-004
2.608634e-004,1.265113e-004
2.466016e-004,1.255388e-004
2.208333e-004,1.359110e-004
1.842065e-004,1.513072e-004
1.432040e-004,1.641104e-004
1.015532e-004,1.694586e-004
5.828174e-005,1.623277e-004
1.484824e-005,1.415833e-004
-2.712668e-005,1.138701e-004
-6.423963e-005,8.891209e-005
-9.519411e-005,7.497447e-005
-1.123730e-004,7.465034e-005
-1.161005e-004,8.307774e-005
-1.177212e-004,9.377405e-005
-1.256624e-004,9.847395e-005
-1.360346e-004,9.004655e-005
-1.420310e-004,6.768153e-005
-1.408965e-004,3.656499e-005
-1.355484e-004,6.096713e-006
-1.298761e-004,-1.675450e-005
-1.206384e-004,-2.680255e-005
-1.052422e-004,-2.210265e-005
-8.984595e-005,-6.706447e-006
-8.887356e-005,1.209313e-005
-1.144799e-004,2.133085e-005
-1.643960e-004,1.646889e-005
-2.259808e-004,1.883015e-006
-2.827036e-004,-1.837515e-005
-3.162512e-004,-4.544005e-005
-3.178718e-004,-7.526008e-005
-2.872415e-004,-9.276313e-005
-2.352185e-004,-8.530812e-005
-1.763888e-004,-5.483985e-005
-1.175591e-004,-1.497178e-005
-6.472583e-005,2.052053e-005
-2.031993e-005,4.013043e-005
1.290346e-005,4.142695e-005
4.223728e-005,3.186510e-005
7.546067e-005,2.311357e-005
1.153287e-004,2.554455e-005
1.631380e-004,4.385793e-005
2.237504e-004,7.384001e-005
3.038107e-004,1.052807e-004
4.065602e-004,1.287802e-004
5.191956e-004,1.420695e-004
6.303724e-004,1.514693e-004
7.321496e-004,1.584381e-004
8.193408e-004,1.597346e-004
8.820601e-004,1.589243e-004
9.125284e-004,1.573037e-004
9.036148e-004,1.488763e-004
8.499712e-004,1.305629e-004
7.580800e-004,1.044704e-004
6.496583e-004,8.048469e-005
5.401021e-004,6.670914e-005
4.402698e-004,6.492643e-005
3.504856e-004,6.914012e-005
2.699391e-004,7.108490e-005
1.987924e-004,6.914012e-005
1.336421e-004,6.719534e-005
7.367795e-005,6.881599e-005
6.420843e-006,7.043664e-005
-8.352540e-005,6.541262e-005
-1.964849e-004,5.147500e-005
-3.154408e-004,3.089270e-005
-4.181902e-004,8.689757e-006
-4.896610e-004,-3.951337e-006
-5.181845e-004,1.234753e-006
-5.035987e-004,2.376183e-005
-4.575721e-004,5.082674e-005
-3.914495e-004,6.719534e-005
-3.099306e-004,6.525056e-005
-2.224154e-004,4.904402e-005
-1.439758e-004,2.522042e-005
-8.563225e-005,6.744974e-006
-5.678463e-005,-7.100305e-007
-6.407756e-005,9.106226e-007
-1.011905e-004,3.827798e-006
-1.507825e-004,3.503668e-006
-1.924333e-004,-2.238345e-007
-2.169051e-004,-1.682422e-006
-2.311669e-004,2.855406e-006
-2.446183e-004,9.338019e-006
-2.609869e-004,9.824214e-006
-2.781658e-004,2.045080e-006
-2.865932e-004,-8.327101e-006
-2.747625e-004,-1.464765e-005
-2.374874e-004,-1.837515e-005
-1.754164e-004,-1.983374e-005
-9.260106e-005,-1.821308e-005
8.365628e-006,-1.027188e-005
1.175977e-004,3.017472e-006
2.213195e-004,1.598270e-005
3.044590e-004,2.100672e-005
3.559958e-004,1.468617e-005
3.746333e-004,4.151929e-006
3.642611e-004,-3.951337e-006
3.367100e-004,-6.544382e-006
3.055935e-004,-4.275467e-006
2.801492e-004,1.234753e-006
2.615117e-004,5.934647e-006
2.415776e-004,4.151929e-006
2.085163e-004,-4.923729e-006
1.600588e-004,-1.513384e-005
9.863601e-005,-2.372330e-005
2.441009e-005,-2.485776e-005
-6.310517e-005,-1.156841e-005
-1.545100e-004,9.986280e-006
-2.347323e-004,3.008238e-005
-2.848105e-004,4.223728e-005
-2.984240e-004,4.191315e-005
-2.809209e-004,3.445814e-005
-2.431597e-004,2.765140e-005
-2.029675e-004,2.748933e-005
-1.752544e-004,3.235129e-005
-1.648822e-004,3.915804e-005
-1.712027e-004,4.483032e-005
-1.828714e-004,4.985435e-005
-1.950263e-004,5.520250e-005
-2.036158e-004,6.055066e-005
-1.971332e-004,6.573675e-005
-1.652063e-004,7.092283e-005
-9.940780e-005,7.691926e-005
-3.951337e-006,8.372600e-005
1.114392e-004,8.907416e-005
2.315296e-004,8.988448e-005
3.286067e-004,8.875003e-005
3.828986e-004,8.599491e-005
3.884088e-004,8.032263e-005
3.548613e-004,7.400208e-005
2.924662e-004,7.092283e-005
2.106232e-004,7.189524e-005
1.154908e-004,8.032263e-005
1.792748e-005,9.393611e-005
-6.067420e-005,1.065772e-004
-9.730095e-005,1.124116e-004
-8.563225e-005,1.116012e-004
-4.187462e-005,1.086841e-004
1.679302e-005,1.088461e-004
8.080882e-005,1.099806e-004
1.415833e-004,1.086841e-004
2.004130e-004,1.047945e-004
2.594048e-004,1.012291e-004
3.111037e-004,1.004187e-004
3.384927e-004,1.025256e-004
3.358997e-004,1.078737e-004
3.179104e-004,1.119254e-004
3.085106e-004,1.122495e-004
3.185587e-004,1.091703e-004
3.470822e-004,1.036600e-004
3.811159e-004,9.750155e-005
4.031568e-004,8.875003e-005
3.974845e-004,8.016056e-005
3.621542e-004,7.805372e-005
2.999211e-004,8.259154e-005
2.184023e-004,9.069480e-005
1.284560e-004,9.604297e-005
4.807163e-005,9.377405e-005
-1.124428e-005,9.020861e-005
-4.787104e-005,8.696730e-005
-7.120844e-005,8.340186e-005
-8.887356e-005,8.340186e-005
-1.067007e-004,8.858796e-005
-1.246900e-004,9.361198e-005
-1.421931e-004,9.199134e-005
-1.593720e-004,7.708132e-005
-1.712027e-004,5.212327e-005
-1.739578e-004,2.910999e-005
-1.689338e-004,1.517237e-005
-1.605064e-004,9.662150e-006
-1.527273e-004,9.824214e-006
-1.478653e-004,1.225519e-005
-1.451102e-004,1.727922e-005
-1.449481e-004,2.165498e-005
-1.488377e-004,1.857574e-005
-1.556445e-004,6.420843e-006
-1.590478e-004,-7.840905e-006
-1.535376e-004,-1.869928e-005
-1.360346e-004,-2.469570e-005
-1.067007e-004,-2.745081e-005
-7.558420e-005,-3.247483e-005
-5.338126e-005,-3.506787e-005
-4.592625e-005,-2.923352e-005
-5.597430e-005,-1.724069e-005
-7.752898e-005,-5.409925e-006
-1.002181e-004,5.286386e-006
-1.154523e-004,1.419998e-005
-1.164247e-004,1.679302e-005
-1.015147e-004,9.500084e-006
-7.655659e-005,-2.978945e-006
-5.176060e-005,-1.399939e-005
-3.604027e-005,-1.821308e-005
-2.874733e-005,-1.756482e-005
-2.518189e-005,-1.480971e-005
-1.675450e-005,-1.010982e-005
-3.858999e-007,-5.896120e-006
1.484824e-005,-6.220251e-006
1.776542e-005,-1.156841e-005
6.907039e-006,-1.399939e-005
-1.189254e-005,-4.275467e-006
-2.842320e-005,1.371378e-005
-3.830918e-005,3.462021e-005
-4.219875e-005,5.066468e-005
-3.895744e-005,6.233338e-005
-2.177852e-005,6.849186e-005
8.851824e-006,7.302969e-005
4.839576e-005,7.951231e-005
9.004655e-005,8.793970e-005
1.294284e-004,9.814982e-005
1.660552e-004,1.141943e-004
1.996027e-004,1.308870e-004
2.252090e-004,1.398006e-004
2.380122e-004,1.367214e-004
2.347709e-004,1.239182e-004
2.164575e-004,1.091703e-004
1.850168e-004,9.782569e-005
1.563313e-004,8.858796e-005
1.453108e-004,7.805372e-005
1.611932e-004,6.703327e-005
2.005751e-004,5.730935e-005
2.509774e-004,5.034054e-005
2.950592e-004,4.693717e-005
3.261757e-004,4.807163e-005
3.519442e-004,5.277152e-005
3.752816e-004,5.698522e-005
3.926225e-004,5.666109e-005
3.968363e-004,5.374392e-005
3.816021e-004,4.774750e-005
3.446512e-004,4.029249e-005
2.971661e-004,3.575467e-005
2.503292e-004,4.029249e-005
2.086784e-004,5.341978e-005
1.726999e-004,6.816773e-005
1.487142e-004,7.432621e-005
1.391524e-004,6.735740e-005
1.401247e-004,4.904402e-005
1.414213e-004,2.732727e-005
1.328318e-004,8.365628e-006
1.107909e-004,-3.789271e-006
7.918817e-005,-4.113402e-006
4.142695e-005,8.527692e-006
3.503668e-006,2.992031e-005
-3.004385e-005,5.066468e-005
-6.180866e-005,6.281957e-005
-1.118868e-004,6.087479e-005
-1.953505e-004,4.709924e-005
-2.997205e-004,3.105477e-005
-3.925839e-004,2.133085e-005
-4.463896e-004,1.695509e-005
-4.522239e-004,1.857574e-005
-4.173799e-004,2.473422e-005
-3.588744e-004,3.040651e-005
-2.961551e-004,3.380988e-005
-2.455907e-004,3.753739e-005
-2.151224e-004,4.094075e-005
-1.984297e-004,4.175108e-005
-1.825473e-004,4.045456e-005
-1.502963e-004,3.899597e-005
-9.341139e-005,3.899597e-005
-1.967167e-005,4.094075e-005
4.790957e-005,4.742337e-005
8.826383e-005,5.633696e-005
9.669123e-005,6.217131e-005
8.453633e-005,6.103685e-005
7.173317e-005,5.601283e-005
7.659513e-005,5.115087e-005
1.116012e-004,5.309565e-005
1.798307e-004,6.395403e-005
2.773941e-004,7.886404e-005
3.950535e-004,8.680524e-005
5.188715e-004,8.129502e-005
6.253485e-004,6.654707e-005
6.900126e-004,5.131293e-005
7.076777e-004,3.867184e-005
6.916332e-004,2.992031e-005
6.571133e-004,2.262737e-005
6.188658e-004,2.116879e-005
5.845079e-004,2.230324e-005
5.576051e-004,1.776542e-005
5.344298e-004,-8.720958e-007
5.091476e-004,-3.182657e-005
4.773827e-004,-6.229485e-005
4.402698e-004,-7.380149e-005
4.015361e-004,-5.970180e-005
3.602095e-004,-2.631635e-005
3.124002e-004,1.517237e-005
2.537325e-004,5.131293e-005
1.866375e-004,7.853991e-005
1.159770e-004,9.604297e-005
4.726130e-005,1.036600e-004
-1.756482e-005,1.026876e-004
-7.704279e-005,9.263960e-005
-1.302002e-004,7.659513e-005
-1.831956e-004,6.038860e-005
-2.473734e-004,5.034054e-005
-3.280819e-004,4.774750e-005
-4.185144e-004,5.293359e-005
-5.092709e-004,6.508849e-005
-5.948414e-004,8.064676e-005
-6.692293e-004,9.912220e-005
-7.233592e-004,1.187321e-004
-7.475069e-004,1.357490e-004
-7.379450e-004,1.453108e-004
-7.019665e-004,1.443384e-004
-6.492953e-004,1.329939e-004
-5.818761e-004,1.174356e-004
-5.013297e-004,1.028497e-004
-4.123559e-004,9.199134e-005
-3.219235e-004,8.469840e-005
-2.379736e-004,7.983643e-005
-1.652063e-004,7.157111e-005
-1.049180e-004,5.779555e-005
-5.111234e-005,4.369587e-005
3.665733e-006,3.705119e-005
6.055066e-005,4.094075e-005
1.106288e-004,5.293359e-005
1.451487e-004,6.768153e-005
1.629759e-004,7.935023e-005
1.667035e-004,8.631904e-005
1.579519e-004,8.372600e-005
1.341283e-004,7.286762e-005
1.026876e-004,6.168512e-005
7.254349e-005,6.038860e-005
4.920609e-005,7.416414e-005
3.397195e-005,9.636710e-005
2.165498e-005,1.172735e-004
7.393235e-006,1.274836e-004
-1.043395e-005,1.252147e-004
-2.745081e-005,1.088461e-004
-3.798505e-005,7.594687e-005
-3.733679e-005,3.380988e-005
-2.550602e-005,-1.010982e-005
-1.010982e-005,-4.738484e-005
9.106226e-007,-6.683268e-005
6.907039e-006,-6.667061e-005
7.069104e-006,-5.338126e-005
5.864920e-007,-3.620233e-005
-1.189254e-005,-1.805102e-005
-2.696461e-005,-5.085794e-006
-3.976777e-005,1.720949e-006
-4.414354e-005,-1.844488e-006
-2.842320e-005,-1.318906e-005
8.203561e-006,-2.534396e-005
4.888196e-005,-3.117831e-005
7.173317e-005,-3.215070e-005
6.444023e-005,-3.004385e-005
3.218923e-005,-2.745081e-005
-1.254080e-005,-2.291298e-005
-5.111234e-005,-1.237873e-005
-6.829127e-005,4.962256e-006
-6.958779e-005,2.651694e-005
-6.569822e-005,4.953022e-005
-7.120844e-005,6.298164e-005
-9.438377e-005,6.735740e-005
-1.264727e-004,6.703327e-005
-1.494860e-004,6.233338e-005
-1.434896e-004,5.390598e-005
-9.551824e-005,4.726130e-005
-1.092015e-005,4.628891e-005
8.745350e-005,5.034054e-005
1.782101e-004,6.103685e-005
2.482223e-004,8.113296e-005
2.995970e-004,1.051186e-004
3.440029e-004,1.287802e-004
3.937570e-004,1.420695e-004
4.441593e-004,1.381799e-004
4.785172e-004,1.211631e-004
4.809482e-004,1.025256e-004
4.548556e-004,8.745350e-005
4.237391e-004,7.627100e-005
4.085050e-004,6.914012e-005
4.117463e-004,6.687120e-005
4.219564e-004,6.995045e-005
4.271425e-004,7.578480e-005
4.222805e-004,8.226741e-005
4.091532e-004,7.967437e-005
3.877606e-004,6.849186e-005
3.577785e-004,5.228533e-005
3.196932e-004,3.980630e-005
2.790147e-004,3.737532e-005
2.420638e-004,4.191315e-005
2.060853e-004,4.823369e-005
1.652449e-004,5.163707e-005
1.188942e-004,5.698522e-005
7.140904e-005,6.589881e-005
3.089270e-005,7.465034e-005
2.623614e-007,7.675719e-005
-2.015787e-005,6.541262e-005
-3.279896e-005,4.628891e-005
-4.009190e-005,3.462021e-005
-3.992984e-005,3.559260e-005
-2.971972e-005,4.094075e-005
-1.626830e-005,4.726130e-005
-9.623623e-006,5.601283e-005
-8.002969e-006,6.508849e-005
-4.761663e-006,7.140904e-005
1.002961e-007,7.675719e-005
4.313994e-006,8.534666e-005
4.313994e-006,9.814982e-005
-8.720958e-007,1.070634e-004
-1.092015e-005,1.010670e-004
-2.518189e-005,8.210535e-005
-4.560212e-005,6.217131e-005
-7.752898e-005,4.790957e-005
-1.191798e-004,3.867184e-005
-1.663408e-004,3.462021e-005
-2.105846e-004,3.478227e-005
-2.389460e-004,3.591673e-005
-2.402425e-004,3.948217e-005
-2.196603e-004,4.612685e-005
-1.851403e-004,5.487837e-005
-1.426792e-004,6.136099e-005
-1.029732e-004,6.460230e-005
-7.671866e-005,6.492643e-005
-6.261898e-005,6.379197e-005
-5.354332e-005,6.184718e-005
-4.835723e-005,5.536457e-005
-4.381940e-005,4.320967e-005
-3.458168e-005,2.862379e-005
-1.950961e-005,1.744128e-005
-7.192643e-006,1.452411e-005
-2.168618e-006,1.954813e-005
1.002961e-007,2.700314e-005
6.258778e-006,2.943412e-005
2.878586e-005,2.230324e-005
7.529860e-005,2.531276e-006
1.427178e-004,-2.680255e-005
2.114335e-004,-5.953974e-005
2.598910e-004,-9.000801e-005
2.780423e-004,-1.143178e-004
2.678322e-004,-1.316588e-004
2.333123e-004,-1.433275e-004
1.699447e-004,-1.478653e-004
7.627100e-005,-1.467309e-004
-3.506787e-005,-1.457585e-004
-1.400862e-004,-1.478653e-004
-2.089639e-004,-1.506204e-004
-2.203085e-004,-1.501342e-004
-1.757406e-004,-1.379793e-004
-9.341139e-005,-1.102662e-004
9.338019e-006,-6.991192e-005
1.163011e-004,-2.501983e-005
2.140265e-004,1.241726e-005
2.890628e-004,3.948217e-005
3.299032e-004,6.281957e-005
3.286067e-004,8.615698e-005
2.879283e-004,1.047945e-004
2.235884e-004,1.185700e-004
1.564933e-004,1.304008e-004
9.782569e-005,1.378558e-004
5.293359e-005,1.414213e-004
2.586868e-005,1.432040e-004
1.565857e-005,1.425557e-004
2.165498e-005,1.402868e-004
4.936815e-005,1.386661e-004
9.588090e-005,1.396385e-004
1.496866e-004,1.472556e-004
1.947408e-004,1.579519e-004
2.213195e-004,1.681620e-004
2.308813e-004,1.701068e-004
2.337985e-004,1.576278e-004
2.428742e-004,1.336421e-004
2.607013e-004,1.036600e-004
2.785285e-004,7.951231e-005
2.830664e-004,6.881599e-005
2.676701e-004,7.481241e-005
2.315296e-004,9.344992e-005
1.772377e-004,1.193804e-004
1.112771e-004,1.461212e-004
4.483032e-005,1.657311e-004
-1.124428e-005,1.759412e-004
-5.402952e-005,1.759412e-004
-9.357345e-005,1.654069e-004
-1.358725e-004,1.454729e-004
-1.822232e-004,1.263492e-004
-2.316531e-004,1.154908e-004
-2.788141e-004,1.130598e-004
-3.134960e-004,1.120874e-004
-3.301888e-004,1.103047e-004
-3.295405e-004,1.081979e-004
-3.173856e-004,1.064151e-004
-2.995584e-004,1.013911e-004
-2.746004e-004,8.583285e-005
-2.397564e-004,5.925414e-005
-1.963229e-004,2.700314e-005
-1.464067e-004,-5.571990e-006
-8.935975e-005,-3.182657e-005
-2.015787e-005,-4.462973e-005
5.941620e-005,-4.219875e-005
1.406109e-004,-2.680255e-005
2.114335e-004,-3.141010e-006
2.600531e-004,2.165498e-005
2.829043e-004,3.510640e-005
2.799871e-004,3.380988e-005
2.561635e-004,2.684107e-005
2.205091e-004,2.651694e-005
1.798307e-004,3.105477e-005
1.341283e-004,3.283749e-005
8.161915e-005,2.716520e-005
2.538249e-005,1.063454e-005
-2.664048e-005,-1.529591e-005
-6.504996e-005,-3.992984e-005
-7.963584e-005,-5.386745e-005
-6.877746e-005,-5.710876e-005
-4.333321e-005,-5.208473e-005
-1.902341e-005,-4.268495e-005
-1.682422e-006,-2.874733e-005
8.689757e-006,-7.192643e-006
1.549650e-005,2.246531e-005
2.068259e-005,4.839576e-005
1.971020e-005,6.330577e-005
7.069104e-006,6.444023e-005
-1.821308e-005,5.698522e-005
-4.787104e-005,4.661304e-005
-7.299116e-005,3.899597e-005
-8.709084e-005,3.753739e-005
-8.741497e-005,4.369587e-005
-7.282909e-005,5.568870e-005
-4.932962e-005,6.444023e-005
-2.858526e-005,6.589881e-005
-9.623623e-006,6.541262e-005
1.452411e-005,6.298164e-005
5.228533e-005,5.811968e-005
1.080358e-004,5.115087e-005
1.744826e-004,4.693717e-005
2.365536e-004,4.839576e-005
2.722080e-004,5.601283e-005
2.692908e-004,6.978838e-005
2.265056e-004,8.664317e-005
1.517934e-004,1.002567e-004
5.747142e-005,1.010670e-004
-3.668853e-005,8.486046e-005
-1.139937e-004,5.941620e-005
-1.585616e-004,3.948217e-005
-1.692580e-004,3.397195e-005
-1.566169e-004,4.369587e-005
-1.303623e-004,6.200925e-005
-1.044318e-004,7.529860e-005
-8.806324e-005,7.481241e-005
-8.158062e-005,6.330577e-005
-7.752898e-005,5.179913e-005
-7.234290e-005,4.564065e-005
-6.002593e-005,4.790957e-005
-3.895744e-005,5.698522e-005
-1.108221e-005,6.914012e-005
1.971020e-005,7.935023e-005
4.839576e-005,7.935023e-005
6.589881e-005,7.319175e-005
6.816773e-005,7.043664e-005
6.168512e-005,7.886404e-005
6.217131e-005,9.879807e-005
8.032263e-005,1.216493e-004
1.154908e-004,1.412592e-004
1.637863e-004,1.548727e-004
2.180782e-004,1.616794e-004
2.712356e-004,1.633001e-004
3.166139e-004,1.603829e-004
3.474063e-004,1.511452e-004
3.571302e-004,1.338042e-004
3.456236e-004,1.117633e-004
3.203414e-004,9.037068e-005
2.919800e-004,7.384001e-005
2.650771e-004,6.136099e-005
2.368777e-004,4.823369e-005
2.004130e-004,3.445814e-005
1.493625e-004,1.841368e-005
8.453633e-005,-1.844488e-006
1.679302e-005,-2.874733e-005
-3.863331e-005,-6.245691e-005
-7.007398e-005,-1.015147e-004
-7.299116e-005,-1.370070e-004
-5.111234e-005,-1.583996e-004
-1.318906e-005,-1.621271e-004
2.408596e-005,-1.504584e-004
4.693717e-005,-1.272830e-004
5.050261e-005,-1.000561e-004
3.705119e-005,-7.736692e-005
1.209313e-005,-6.310517e-005
-1.529591e-005,-5.678463e-005
-3.587821e-005,-5.305713e-005
-4.560212e-005,-4.722277e-005
-4.381940e-005,-3.652646e-005
-3.101624e-005,-1.999580e-005
-1.464765e-005,-1.844488e-006
-4.275467e-006,1.630683e-005
-2.654814e-006,3.024445e-005
-5.896120e-006,4.045456e-005
-7.678839e-006,4.726130e-005
-4.761663e-006,5.066468e-005
3.989864e-006,5.066468e-005
1.128280e-005,4.904402e-005
1.193106e-005,4.645098e-005
6.420843e-006,4.369587e-005
-1.034161e-006,4.077869e-005
-8.002969e-006,3.818564e-005
-1.075808e-005,4.320967e-005
-1.108221e-005,5.893001e-005
-1.432352e-005,8.291567e-005
-2.761287e-005,1.077117e-004
-4.673658e-005,1.237561e-004
-5.856734e-005,1.271595e-004
-5.159854e-005,1.231079e-004
-2.113026e-005,1.188942e-004
2.554455e-005,1.161391e-004
7.384001e-005,1.141943e-004
1.075496e-004,1.069013e-004
1.218114e-004,9.280166e-005
1.198666e-004,7.254349e-005
1.156529e-004,5.212327e-005
1.231079e-004,3.948217e-005
1.420695e-004,3.721326e-005
1.584381e-004,4.466826e-005
1.605450e-004,6.168512e-005
1.477418e-004,8.793970e-005
1.234320e-004,1.198666e-004
9.182927e-005,1.516314e-004
5.260946e-005,1.785342e-004
1.209313e-005,1.983062e-004
-1.756482e-005,2.070577e-004
-3.231276e-005,2.039785e-004
-3.685059e-005,1.911753e-004
-3.198863e-005,1.748067e-004
-1.837515e-005,1.595726e-004
-2.492749e-006,1.454729e-004
6.744974e-006,1.352628e-004
1.047248e-005,1.329939e-004
1.646889e-005,1.315353e-004
1.873781e-005,1.221355e-004
7.555300e-006,1.022014e-004
-1.707863e-005,8.129502e-005
-4.625038e-005,6.881599e-005
-6.731887e-005,6.816773e-005
-7.331529e-005,7.481241e-005
-6.359137e-005,7.627100e-005
-4.592625e-005,6.006446e-005
-2.826113e-005,2.505835e-005
-8.975361e-006,-1.724069e-005
1.533444e-005,-5.565017e-005
4.628891e-005,-7.947377e-005
8.291567e-005,-8.109442e-005
1.260251e-004,-6.197072e-005
1.803169e-004,-3.215070e-005
2.386605e-004,2.045080e-006
2.731804e-004,3.316162e-005
2.589186e-004,5.309565e-005
1.944166e-004,5.747142e-005
1.018773e-004,4.839576e-005
1.987226e-005,3.445814e-005
-1.724069e-005,2.667901e-005
4.962256e-006,2.635488e-005
7.659513e-005,2.813760e-005
1.709171e-004,2.635488e-005
2.595669e-004,2.214118e-005
3.256896e-004,1.565857e-005
3.538889e-004,9.662150e-006
3.394651e-004,5.772582e-006
2.934386e-004,5.124321e-006
2.334744e-004,7.069104e-006
1.759412e-004,7.069104e-006
1.274836e-004,3.017472e-006
8.972242e-005,-3.465141e-006
5.909207e-005,-8.489165e-006
3.332369e-005,-8.002969e-006
1.338965e-005,-2.330684e-006
-1.034161e-006,5.772582e-006
-1.594417e-005,1.047248e-005
-4.025397e-005,8.527692e-006
-7.833932e-005,-1.520357e-006
-1.264727e-004,-1.529591e-005
-1.744440e-004,-2.842320e-005
-2.084778e-004,-3.296103e-005
-2.143121e-004,-2.550602e-005
-1.869231e-004,-5.734055e-006
-1.298761e-004,1.841368e-005
-5.224680e-005,3.656499e-005
3.964423e-005,4.774750e-005
1.380179e-004,5.244739e-005
2.354192e-004,5.293359e-005
3.253654e-004,5.147500e-005
4.002396e-004,4.985435e-005
4.469145e-004,5.358185e-005
4.511281e-004,6.492643e-005
4.085050e-004,7.643306e-005
3.378445e-004,8.502253e-005
2.619979e-004,8.875003e-005
1.949028e-004,8.486046e-005
1.435281e-004,7.286762e-005
1.138701e-004,5.568870e-005
9.863601e-005,4.045456e-005
7.983643e-005,2.667901e-005
4.515445e-005,1.792748e-005
-5.734055e-006,1.452411e-005
-6.699474e-005,1.549650e-005
-1.363587e-004,2.441009e-005
-2.057227e-004,4.369587e-005
-2.634179e-004,6.865393e-005
-2.961551e-004,8.956035e-005
-3.013411e-004,9.798775e-005
-2.869173e-004,9.717742e-005
-2.642282e-004,9.393611e-005
-2.368392e-004,9.685329e-005
-2.047502e-004,1.075496e-004
-1.643960e-004,1.235941e-004
-1.122110e-004,1.376937e-004
-5.338126e-005,1.430419e-004
-2.654814e-006,1.389903e-004
3.089270e-005,1.286181e-004
4.580272e-005,1.127357e-004
4.969228e-005,9.507057e-005
4.450619e-005,8.080882e-005
3.559260e-005,6.881599e-005
3.121684e-005,5.568870e-005
3.494434e-005,4.077869e-005
4.726130e-005,2.959618e-005
6.476436e-005,2.327564e-005
7.935023e-005,2.165498e-005
8.340186e-005,2.359977e-005
7.157111e-005,2.554455e-005
4.369587e-005,2.197911e-005
1.306552e-005,1.614476e-005
-8.327101e-006,1.014835e-005
-1.399939e-005,4.151929e-006
-4.113402e-006,5.864920e-007
1.549650e-005,-1.196226e-006
3.056858e-005,-5.247859e-006
3.073064e-005,-1.318906e-005
1.501031e-005,-2.534396e-005
-8.975361e-006,-3.847125e-005
-3.506787e-005,-4.738484e-005
-5.565017e-005,-4.657451e-005
-6.521203e-005,-3.085418e-005
-6.521203e-005,-2.816880e-006
-6.456376e-005,3.008238e-005
-6.812920e-005,5.698522e-005
-8.271508e-005,7.254349e-005
-1.120489e-004,7.870197e-005
-1.464067e-004,7.918817e-005
-1.707165e-004,7.659513e-005
-1.739578e-004,7.513654e-005
-1.574272e-004,7.627100e-005
-1.209625e-004,7.465034e-005
-6.796713e-005,7.124698e-005
-9.785687e-006,6.946425e-005
3.786152e-005,6.703327e-005
6.411610e-005,5.828174e-005
6.654707e-005,4.142695e-005
5.212327e-005,1.825161e-005
3.073064e-005,-5.247859e-006
8.527692e-006,-1.967167e-005
-9.299492e-006,-2.113026e-005
-2.712668e-005,-1.367526e-005
-4.430560e-005,-3.303075e-006
-5.921561e-005,-1.034161e-006
-6.796713e-005,-1.237873e-005
-6.715681e-005,-2.842320e-005
-5.727082e-005,-3.441962e-005
-4.706071e-005,-2.226472e-005
-4.155049e-005,-2.006553e-006
-4.576419e-005,1.452411e-005
-5.808115e-005,2.133085e-005
-7.137050e-005,2.019640e-005
-7.979790e-005,1.646889e-005
-7.623246e-005,1.338965e-005
-5.710876e-005,1.954813e-005
-2.258885e-005,3.753739e-005
2.959618e-005,6.849186e-005
9.539470e-005,1.054428e-004
1.692965e-004,1.365593e-004
2.417397e-004,1.508210e-004
3.042969e-004,1.464453e-004
3.535648e-004,1.300767e-004
3.804677e-004,1.114392e-004
3.828986e-004,9.766362e-005
3.668542e-004,9.166720e-005
3.509718e-004,8.826383e-005
3.535648e-004,8.550872e-005
3.850055e-004,7.853991e-005
4.336251e-004,6.719534e-005
4.812723e-004,5.439218e-005
5.078511e-004,4.126489e-005
5.052580e-004,2.846173e-005
4.798137e-004,2.197911e-005
4.444834e-004,2.765140e-005
4.005638e-004,4.045456e-005
3.451374e-004,5.406805e-005
2.799871e-004,6.314371e-005
2.177540e-004,6.638501e-005
1.723757e-004,7.286762e-005
1.430419e-004,8.777764e-005
1.257009e-004,1.086841e-004
1.130598e-004,1.308870e-004
9.328785e-005,1.509831e-004
5.341978e-005,1.681620e-004
-8.002969e-006,1.829100e-004
-7.979790e-005,1.953890e-004
-1.462447e-004,2.000889e-004
-1.896782e-004,1.919856e-004
-1.994021e-004,1.709171e-004
-1.945401e-004,1.427178e-004
-2.036158e-004,1.146805e-004
-2.298704e-004,9.020861e-005
-2.562870e-004,7.043664e-005
-2.596904e-004,5.666109e-005
-2.175534e-004,4.888196e-005
-1.161005e-004,4.693717e-005
3.867184e-005,5.082674e-005
2.174299e-004,5.893001e-005
3.854917e-004,6.427816e-005
5.196818e-004,5.957827e-005
6.107626e-004,4.320967e-005
6.566271e-004,2.376183e-005
6.665131e-004,7.555300e-006
6.452825e-004,-4.923729e-006
5.888838e-004,-1.529591e-005
5.033132e-004,-2.096819e-005
3.991052e-004,-1.934754e-005
2.838767e-004,-1.772689e-005
1.692965e-004,-2.226472e-005
7.043664e-005,-3.604027e-005
-3.627206e-006,-5.500191e-005
-5.176060e-005,-6.845333e-005
-8.725291e-005,-6.926366e-005
-1.225831e-004,-5.597430e-005
-1.653684e-004,-3.263690e-005
-2.156086e-004,-8.813297e-006
-2.656868e-004,8.365628e-006
-3.141443e-004,1.484824e-005
-3.630880e-004,1.079661e-005
-4.071698e-004,1.234753e-006
-4.363416e-004,-1.027188e-005
-4.551411e-004,-2.161646e-005
-4.728062e-004,-2.647842e-005
-4.992229e-004,-2.323711e-005
-5.373082e-004,-9.623623e-006
-5.826865e-004,7.231170e-006
-6.176926e-004,2.262737e-005
-6.262820e-004,3.883391e-005
-6.000275e-004,5.779555e-005
-5.426563e-004,7.886404e-005
-4.638926e-004,1.033359e-004
-3.768636e-004,1.305629e-004
-3.000446e-004,1.571416e-004
-2.470493e-004,1.769136e-004
-2.165810e-004,1.866375e-004
-1.998883e-004,1.869616e-004
-1.835197e-004,1.783722e-004
-1.527273e-004,1.676758e-004
-1.062145e-004,1.629759e-004
-5.192267e-005,1.642725e-004
3.017472e-006,1.670276e-004
4.839576e-005,1.629759e-004
8.307774e-005,1.467694e-004
1.114392e-004,1.237561e-004
1.428798e-004,1.017153e-004
1.840444e-004,8.469840e-005
2.375260e-004,7.286762e-005
3.000832e-004,6.119892e-005
3.592371e-004,5.050261e-005
4.088291e-004,3.915804e-005
4.431869e-004,1.987226e-005
4.597176e-004,-8.327101e-006
4.559901e-004,-3.749886e-005
4.300596e-004,-6.035006e-005
3.820883e-004,-7.639453e-005
3.200173e-004,-8.725291e-005
2.547049e-004,-9.519411e-005
1.979821e-004,-9.875954e-005
1.540623e-004,-9.373551e-005
1.294284e-004,-8.060822e-005
1.210010e-004,-5.743289e-005
1.211631e-004,-2.583015e-005
1.180839e-004,1.063454e-005
1.044704e-004,4.823369e-005
8.680524e-005,8.226741e-005
7.367795e-005,1.080358e-004
6.168512e-005,1.190562e-004
4.402000e-005,1.184080e-004
2.376183e-005,1.124116e-004
7.393235e-006,1.056048e-004
-6.706447e-006,1.009049e-004
-2.566809e-005,9.620503e-005
-5.419158e-005,9.182927e-005
-9.276313e-005,9.101894e-005
-1.358725e-004,9.377405e-005
-1.754164e-004,9.490851e-005
-2.013469e-004,9.134307e-005
-2.045882e-004,8.113296e-005
-1.877334e-004,6.330577e-005
-1.596961e-004,4.029249e-005
-1.290658e-004,1.646889e-005
-9.713889e-005,-4.599598e-006
-6.440169e-005,-1.724069e-005
-2.858526e-005,-1.740276e-005
1.711715e-005,-5.247859e-006
7.221937e-005,9.175954e-006
1.316973e-004,1.630683e-005
1.902029e-004,1.533444e-005
2.415776e-004,4.962256e-006
2.803112e-004,-1.059601e-005
3.112657e-004,-2.210265e-005
3.414099e-004,-2.339917e-005
3.762539e-004,-1.480971e-005
4.138531e-004,-5.734055e-006
4.469145e-004,-2.006553e-006
4.709001e-004,-2.330684e-006
4.785172e-004,-4.761663e-006
4.610142e-004,-7.030578e-006
4.141773e-004,-4.923729e-006
3.467580e-004,1.720949e-006
2.707494e-004,7.879431e-006
2.005751e-004,1.079661e-005
1.467694e-004,1.582063e-005
1.112771e-004,2.311357e-005
8.972242e-005,2.878586e-005
7.918817e-005,3.008238e-005
7.416414e-005,2.619281e-005
6.719534e-005,2.003433e-005
5.504044e-005,1.630683e-005
4.061663e-005,1.825161e-005
2.684107e-005,2.797553e-005
9.013888e-006,4.191315e-005
-1.237873e-005,5.487837e-005
-3.393342e-005,6.168512e-005
-5.176060e-005,5.990240e-005
-6.375343e-005,5.131293e-005
-6.375343e-005,4.304760e-005
-5.289506e-005,3.915804e-005
-3.636440e-005,4.515445e-005
-1.626830e-005,5.941620e-005
3.179537e-006,7.416414e-005
1.938607e-005,8.323980e-005
3.170303e-005,8.453633e-005
3.883391e-005,7.853991e-005
3.721326e-005,6.751947e-005
2.262737e-005,5.520250e-005
-6.176923e-008,5.066468e-005
-1.869928e-005,5.828174e-005
-2.145439e-005,7.659513e-005
-5.734055e-006,1.004187e-004
2.052053e-005,1.248906e-004
4.175108e-005,1.457970e-004
4.531652e-005,1.624898e-004
2.846173e-005,1.743205e-004
-5.734055e-006,1.780480e-004
-5.581224e-005,1.741585e-004
-1.118868e-004,1.658931e-004
-1.627753e-004,1.566554e-004
-1.961608e-004,1.474177e-004
-2.041020e-004,1.373696e-004
-1.880575e-004,1.185700e-004
-1.530514e-004,9.004655e-005
-1.125351e-004,5.828174e-005
-8.077029e-005,2.813760e-005
-6.602235e-005,3.989864e-006
-7.169464e-005,-1.124428e-005
-9.276313e-005,-1.821308e-005
-1.182074e-004,-2.015787e-005
-1.319829e-004,-1.983374e-005
-1.245279e-004,-1.983374e-005
-9.859748e-005,-2.323711e-005
-6.553616e-005,-2.534396e-005
-3.895744e-005,-1.610623e-005
-3.328516e-005,3.665733e-006
-5.030201e-005,2.943412e-005
-7.590833e-005,5.406805e-005
-9.584237e-005,7.513654e-005
-9.989400e-005,9.296372e-005
-8.514606e-005,1.077117e-004
-5.970180e-005,1.180839e-004
-3.085418e-005,1.192183e-004
9.106226e-007,1.128978e-004
4.499239e-005,1.017153e-004
1.117633e-004,9.118101e-005
2.052750e-004,8.323980e-005
3.122381e-004,7.416414e-005
4.026706e-004,5.536457e-005
4.598797e-004,2.522042e-005
4.896997e-004,-4.275467e-006
5.000719e-004,-2.291298e-005
4.942375e-004,-2.793700e-005
4.807861e-004,-2.161646e-005
4.650658e-004,-1.124428e-005
4.480489e-004,-6.220251e-006
4.237391e-004,-1.075808e-005
3.918122e-004,-2.242678e-005
3.529165e-004,-3.296103e-005
3.089968e-004,-3.879538e-005
2.618358e-004,-3.555407e-005
2.200230e-004,-2.664048e-005
1.927960e-004,-1.416145e-005
1.817755e-004,-2.168618e-006
1.843686e-004,9.338019e-006
1.900409e-004,2.392390e-005
1.851789e-004,4.677511e-005
1.642725e-004,7.513654e-005
1.318594e-004,9.652916e-005
9.199134e-005,1.077117e-004
5.034054e-005,1.112771e-004
6.258778e-006,1.140322e-004
-4.236081e-005,1.190562e-004
-9.049421e-005,1.244044e-004
-1.297140e-004,1.294284e-004
-1.501342e-004,1.295905e-004
-1.447861e-004,1.213252e-004
-1.157764e-004,1.088461e-004
-8.320127e-005,9.507057e-005
-7.526008e-005,8.323980e-005
-1.052422e-004,6.914012e-005
-1.553203e-004,4.661304e-005
-1.974573e-004,1.403791e-005
-2.091260e-004,-2.145439e-005
-1.797922e-004,-5.257093e-005
-1.136696e-004,-7.153257e-005
-2.291298e-005,-7.461181e-005
7.173317e-005,-5.970180e-005
1.461212e-004,-2.712668e-005
1.884202e-004,1.338965e-005
1.992786e-004,4.418206e-005
1.877719e-004,5.617490e-005
1.637863e-004,5.082674e-005
1.349386e-004,3.850977e-005
1.064151e-004,2.732727e-005
7.724339e-005,2.181705e-005
4.871989e-005,2.052053e-005
2.489629e-005,2.084466e-005
5.286386e-006,2.149292e-005
-1.205460e-005,2.684107e-005
-2.501983e-005,4.272347e-005
-3.198863e-005,7.027457e-005
-3.685059e-005,1.013911e-004
-4.608832e-005,1.291043e-004
-6.472583e-005,1.487142e-004
-8.790116e-005,1.590864e-004
-1.092938e-004,1.602208e-004
-1.287416e-004,1.517934e-004
-1.488377e-004,1.373696e-004
-1.765509e-004,1.203528e-004
-2.170672e-004,1.064151e-004
-2.676316e-004,9.442231e-005
-3.185201e-004,8.080882e-005
-3.587123e-004,6.735740e-005
-3.851289e-004,5.666109e-005
-4.063595e-004,5.260946e-005
-4.308313e-004,5.536457e-005
-4.593548e-004,6.249544e-005
-4.851232e-004,7.173317e-005
-4.951712e-004,7.918817e-005
-4.786406e-004,7.805372e-005
-4.324520e-004,6.751947e-005
-3.648708e-004,4.628891e-005
-2.877277e-004,1.582063e-005
-2.083157e-004,-1.772689e-005
-1.297140e-004,-4.641245e-005
-6.099833e-005,-6.326724e-005
-1.335112e-005,-6.310517e-005
7.231170e-006,-4.803310e-005
6.420843e-006,-2.161646e-005
-7.840905e-006,5.772582e-006
-2.809907e-005,2.570661e-005
-5.111234e-005,3.705119e-005
-7.363942e-005,4.320967e-005
-8.903562e-005,4.920609e-005
-9.908367e-005,5.471631e-005
-1.029732e-004,6.022653e-005
-9.503204e-005,6.444023e-005
-7.299116e-005,6.865393e-005
-3.830918e-005,7.059870e-005
2.693341e-006,6.962632e-005
4.353380e-005,6.444023e-005
8.437427e-005,6.200925e-005
1.265113e-004,6.541262e-005
1.735102e-004,6.930219e-005
2.196988e-004,7.562274e-005
2.569738e-004,8.048469e-005
2.796630e-004,7.691926e-005
2.897111e-004,6.184718e-005
2.905214e-004,4.207521e-005
2.843629e-004,2.748933e-005
2.798251e-004,2.214118e-005
2.884145e-004,2.586868e-005
3.151553e-004,3.251336e-005
3.538889e-004,3.818564e-005
3.953777e-004,3.883391e-005
4.320044e-004,3.932010e-005
4.545315e-004,4.564065e-005
4.558280e-004,5.536457e-005
4.297355e-004,6.914012e-005
3.840331e-004,8.599491e-005
3.367100e-004,1.023635e-004
2.939247e-004,1.093323e-004
2.540566e-004,1.039842e-004
2.240746e-004,8.939829e-005
2.104611e-004,7.286762e-005
2.151610e-004,6.087479e-005
2.315296e-004,5.828174e-005
2.493568e-004,6.606088e-005
2.608634e-004,7.870197e-005
2.624841e-004,8.648111e-005
2.594048e-004,8.680524e-005
2.579462e-004,8.388807e-005
2.626462e-004,7.772959e-005
2.683184e-004,7.059870e-005
2.679943e-004,6.670914e-005
2.574600e-004,6.832980e-005
2.391467e-004,7.092283e-005
2.179161e-004,6.914012e-005
1.992786e-004,6.314371e-005
1.827479e-004,5.682316e-005
1.626518e-004,5.050261e-005
1.315353e-004,4.045456e-005
9.490851e-005,3.040651e-005
6.946425e-005,2.327564e-005
6.103685e-005,2.003433e-005
6.816773e-005,1.825161e-005
8.388807e-005,1.711715e-005
9.717742e-005,1.306552e-005
1.015532e-004,1.072688e-006
9.863601e-005,-1.659243e-005
9.555677e-005,-3.134038e-005
1.005808e-004,-3.766092e-005
1.091703e-004,-3.360929e-005
1.096565e-004,-1.821308e-005
9.020861e-005,2.369210e-006
4.904402e-005,2.197911e-005
-1.302699e-005,2.992031e-005
-8.692878e-005,2.700314e-005
-1.549962e-004,1.841368e-005
-2.000504e-004,4.962256e-006
-2.170672e-004,-8.002969e-006
-2.131776e-004,-1.140634e-005
-1.976194e-004,-4.275467e-006
-1.776853e-004,9.013888e-006
-1.541859e-004,2.343770e-005
-1.225831e-004,2.846173e-005
-8.547019e-005,2.441009e-005
-4.544005e-005,1.857574e-005
-1.520357e-006,1.517237e-005
4.288554e-005,1.387585e-005
7.918817e-005,1.112074e-005
1.101426e-004,1.234753e-006
1.359110e-004,-1.367526e-005
1.535762e-004,-2.761287e-005
1.584381e-004,-3.393342e-005
1.535762e-004,-2.761287e-005
1.464453e-004,-9.461557e-006
1.454729e-004,1.630683e-005
1.566554e-004,4.272347e-005
1.762653e-004,6.055066e-005
1.880961e-004,6.508849e-005
1.751308e-004,5.844381e-005
1.320215e-004,4.596478e-005
6.168512e-005,3.510640e-005
-2.161646e-005,3.089270e-005
-9.859748e-005,3.640293e-005
-1.575892e-004,4.985435e-005
-1.956746e-004,5.941620e-005
-2.144742e-004,5.682316e-005
-2.159328e-004,4.304760e-005
-2.055606e-004,2.781346e-005
-1.891920e-004,1.808955e-005
-1.687718e-004,1.614476e-005
-1.404103e-004,2.084466e-005
-1.084835e-004,3.105477e-005
-8.239095e-005,4.483032e-005
-6.067420e-005,6.055066e-005
-3.360929e-005,7.465034e-005
7.879431e-006,8.696730e-005
6.476436e-005,1.020394e-004
1.253768e-004,1.206769e-004
1.809652e-004,1.427178e-004
2.276400e-004,1.628139e-004
2.642668e-004,1.694586e-004
2.876042e-004,1.584381e-004
2.973281e-004,1.334801e-004
2.963557e-004,1.080358e-004
2.913317e-004,9.798775e-005
2.892249e-004,1.093323e-004
2.887386e-004,1.363972e-004
2.905214e-004,1.642725e-004
3.025142e-004,1.765894e-004
3.260137e-004,1.692965e-004
3.519442e-004,1.480659e-004
3.631267e-004,1.224596e-004
3.529165e-004,1.026876e-004
3.211517e-004,9.280166e-005
2.657254e-004,8.745350e-005
1.869616e-004,7.951231e-005
9.215340e-005,6.379197e-005
-5.896120e-006,3.899597e-005
-9.195280e-005,9.338019e-006
-1.634236e-004,-1.675450e-005
-2.279256e-004,-3.377135e-005
-2.992343e-004,-3.863331e-005
-3.757291e-004,-2.809907e-005
-4.400690e-004,-8.813297e-006
-4.791268e-004,1.209313e-005
-4.830163e-004,3.218923e-005
-4.481723e-004,5.341978e-005
-3.788084e-004,7.594687e-005
-2.898345e-004,9.247753e-005
-2.019951e-004,9.652916e-005
-1.400862e-004,9.166720e-005
-1.195039e-004,8.631904e-005
-1.355484e-004,8.275361e-005
-1.697441e-004,7.918817e-005
-2.096122e-004,7.691926e-005
-2.485079e-004,7.659513e-005
-2.726556e-004,8.129502e-005
-2.729797e-004,9.523264e-005
-2.498044e-004,1.137081e-004
-2.128535e-004,1.252147e-004
-1.736337e-004,1.224596e-004
-1.415448e-004,1.109530e-004
-1.242038e-004,9.831188e-005
-1.186936e-004,8.923622e-005
-1.164247e-004,8.437427e-005
-1.177212e-004,7.675719e-005
-1.238797e-004,6.314371e-005
-1.305243e-004,4.418206e-005
-1.321450e-004,2.181705e-005
-1.186936e-004,-2.816880e-006
-8.384953e-005,-2.631635e-005
-1.545797e-005,-4.495386e-005
9.393611e-005,-5.613637e-005
2.363915e-004,-5.921561e-005
3.885709e-004,-5.905355e-005
5.156302e-004,-6.245691e-005
5.948801e-004,-7.104637e-005
6.204865e-004,-8.158062e-005
6.012007e-004,-8.935975e-005
5.587395e-004,-8.611845e-005
5.042856e-004,-6.877746e-005
4.383250e-004,-4.284701e-005
3.675024e-004,-1.724069e-005
3.026763e-004,3.017472e-006
2.466016e-004,1.614476e-005
1.926339e-004,2.295151e-005
1.360731e-004,2.230324e-005
7.432621e-005,1.695509e-005
8.203561e-006,1.193106e-005
-5.467778e-005,1.112074e-005
-1.050801e-004,1.257933e-005
-1.415448e-004,1.971020e-005
-1.682856e-004,3.494434e-005
-1.864369e-004,5.309565e-005
-1.912988e-004,6.606088e-005
-1.864369e-004,6.946425e-005
-1.750923e-004,6.606088e-005
-1.656925e-004,6.249544e-005
-1.567789e-004,6.427816e-005
-1.433275e-004,7.189524e-005
-1.287416e-004,7.643306e-005
-1.162626e-004,7.594687e-005
-9.940780e-005,7.286762e-005
-7.428768e-005,7.221937e-005
-4.284701e-005,7.675719e-005
-8.327101e-006,8.372600e-005
2.181705e-005,8.988448e-005
4.369587e-005,9.069480e-005
6.670914e-005,8.793970e-005
9.685329e-005,8.891209e-005
1.307249e-004,9.490851e-005
1.644345e-004,1.007429e-004
1.861513e-004,1.046324e-004
1.893926e-004,1.047945e-004
1.735102e-004,1.010670e-004
1.470936e-004,9.442231e-005
1.213252e-004,8.729143e-005
1.028497e-004,8.259154e-005
9.280166e-005,8.097089e-005
8.761556e-005,8.307774e-005
8.437427e-005,8.615698e-005
7.999850e-005,8.388807e-005
7.529860e-005,7.173317e-005
7.254349e-005,5.082674e-005
6.314371e-005,2.327564e-005
4.547859e-005,-2.006553e-006
2.765140e-005,-1.286493e-005
1.112074e-005,-5.896120e-006
-8.975361e-006,1.322759e-005
-2.988179e-005,3.186510e-005
-4.576419e-005,4.175108e-005
-5.062615e-005,4.061663e-005
-3.782299e-005,3.316162e-005
-5.896120e-006,2.748933e-005
3.899597e-005,2.538249e-005
8.340186e-005,2.473422e-005
1.210010e-004,2.019640e-005
1.498487e-004,1.176900e-005
1.722137e-004,4.313994e-006
1.895547e-004,1.002961e-007
1.974959e-004,5.286386e-006
1.944166e-004,2.084466e-005
1.803169e-004,4.304760e-005
1.560071e-004,6.136099e-005
1.273216e-004,6.865393e-005
9.426025e-005,6.362990e-005
5.358185e-005,5.325772e-005
7.231170e-006,4.418206e-005
-3.474375e-005,4.077869e-005
-6.326724e-005,4.207521e-005
-7.428768e-005,4.045456e-005
-7.234290e-005,2.846173e-005
-6.294311e-005,1.225519e-005
-5.127441e-005,-8.720958e-007
-4.219875e-005,-1.059601e-005
-4.057810e-005,-1.610623e-005
-4.430560e-005,-1.610623e-005
-5.419158e-005,-9.137427e-006
-6.440169e-005,-1.520357e-006
-6.748093e-005,5.286386e-006
-6.002593e-005,9.013888e-006
-4.414354e-005,1.209313e-005
-2.777494e-005,2.230324e-005
-1.529591e-005,3.996836e-005
-1.189254e-005,6.200925e-005
-1.286493e-005,8.307774e-005
-8.165034e-006,1.033359e-004
1.095867e-005,1.192183e-004
4.207521e-005,1.299146e-004
8.356393e-005,1.391524e-004
1.344524e-004,1.488763e-004
1.889064e-004,1.597346e-004
2.393087e-004,1.692965e-004
2.770700e-004,1.752929e-004
2.968419e-004,1.757791e-004
3.017039e-004,1.684862e-004
3.002453e-004,1.535762e-004
3.015418e-004,1.357490e-004
3.036486e-004,1.172735e-004
3.013797e-004,1.033359e-004
2.923041e-004,9.588090e-005
2.738286e-004,9.199134e-005
2.490327e-004,9.020861e-005
2.237504e-004,9.150514e-005
2.031682e-004,9.717742e-005
1.832341e-004,1.033359e-004
1.665414e-004,9.701536e-005
1.530900e-004,7.465034e-005
1.368834e-004,4.288554e-005
1.151667e-004,8.365628e-006
9.085687e-005,-2.275091e-005
6.460230e-005,-4.981582e-005
3.688912e-005,-7.185670e-005
1.128280e-005,-8.887356e-005
-2.978945e-006,-1.039456e-004
-2.816880e-006,-1.157764e-004
1.558884e-006,-1.224211e-004
6.907039e-006,-1.183694e-004
7.879431e-006,-9.924574e-005
1.720949e-006,-6.926366e-005
-7.840905e-006,-3.830918e-005
-1.740276e-005,-1.189254e-005
-2.323711e-005,1.257933e-005
-2.550602e-005,3.445814e-005
-2.566809e-005,4.839576e-005
-2.761287e-005,5.471631e-005
-3.263690e-005,5.828174e-005
-4.025397e-005,6.379197e-005
-5.370539e-005,7.416414e-005
-7.590833e-005,8.761556e-005
-1.020008e-004,1.015532e-004
-1.269589e-004,1.154908e-004
-1.468929e-004,1.287802e-004
-1.590478e-004,1.414213e-004
-1.668270e-004,1.467694e-004
-1.734716e-004,1.417454e-004
-1.720131e-004,1.300767e-004
-1.575892e-004,1.185700e-004
-1.324691e-004,1.070634e-004
-1.057284e-004,9.166720e-005
-9.405964e-005,7.384001e-005
-1.013526e-004,5.941620e-005
-1.199901e-004,5.277152e-005
-1.396000e-004,5.682316e-005
-1.543479e-004,6.784360e-005
-1.587237e-004,7.951231e-005
-1.514308e-004,8.583285e-005
-1.313347e-004,8.129502e-005
-9.730095e-005,7.092283e-005
-5.224680e-005,6.508849e-005
4.962256e-006,6.816773e-005
7.691926e-005,7.108490e-005
1.660552e-004,6.168512e-005
2.718839e-004,3.753739e-005
3.893812e-004,7.231170e-006
5.039615e-004,-1.529591e-005
5.955284e-004,-2.339917e-005
6.533858e-004,-1.983374e-005
6.759128e-004,-1.237873e-005
6.679717e-004,-8.327101e-006
6.371792e-004,-8.813297e-006
5.905044e-004,-1.351319e-005
5.379952e-004,-1.497178e-005
4.828930e-004,-1.059601e-005
4.146634e-004,-2.168618e-006
3.248792e-004,5.610517e-006
2.286124e-004,9.338019e-006
1.459591e-004,8.527692e-006
6.995045e-005,4.638125e-006
-2.696461e-005,4.313994e-006
-1.561307e-004,8.527692e-006
-3.024756e-004,1.776542e-005
-4.309934e-004,3.040651e-005
-4.972781e-004,3.850977e-005
-4.770199e-004,3.915804e-005
-3.801049e-004,3.656499e-005
-2.287359e-004,3.769945e-005
-4.900549e-005,4.402000e-005
1.342904e-004,5.601283e-005
2.999211e-004,7.529860e-005
4.323286e-004,9.507057e-005
5.255162e-004,1.046324e-004
5.744599e-004,1.039842e-004
5.783495e-004,9.620503e-005
5.365366e-004,8.372600e-005
4.529109e-004,6.897806e-005
3.363859e-004,5.277152e-005
2.051129e-004,4.110282e-005
8.421220e-005,3.478227e-005
-7.354708e-006,3.121684e-005
-6.456376e-005,2.473422e-005
-9.616650e-005,1.711715e-005
-1.167488e-004,1.047248e-005
-1.396000e-004,7.069104e-006
-1.690959e-004,5.286386e-006
-1.974573e-004,6.582909e-006
-2.183637e-004,9.986280e-006
-2.339220e-004,1.355172e-005
-2.452666e-004,2.003433e-005
-2.483458e-004,2.878586e-005
-2.410529e-004,3.705119e-005
-2.269532e-004,3.964423e-005
-2.081536e-004,3.786152e-005
-1.909747e-004,3.332369e-005
-1.833576e-004,3.073064e-005
-1.877334e-004,3.721326e-005
-2.032917e-004,5.909207e-005
-2.295462e-004,9.247753e-005
-2.671454e-004,1.292664e-004
-3.105789e-004,1.613553e-004
-3.506090e-004,1.825858e-004
-3.770256e-004,1.927960e-004
-3.818876e-004,1.945787e-004
-3.632501e-004,1.897167e-004
-3.319715e-004,1.824238e-004
-2.998826e-004,1.773998e-004
-2.744383e-004,1.714033e-004
-2.614731e-004,1.602208e-004
-2.592042e-004,1.467694e-004
-2.608248e-004,1.342904e-004
-2.582318e-004,1.193804e-004
-2.527216e-004,9.750155e-005
-2.504527e-004,6.573675e-005
-2.575835e-004,2.084466e-005
-2.700626e-004,-3.279896e-005
-2.694143e-004,-8.984595e-005
-2.373254e-004,-1.400862e-004
-1.716889e-004,-1.658546e-004
-7.963584e-005,-1.528894e-004
2.149292e-005,-1.037836e-004
1.137081e-004,-3.830918e-005
1.806411e-004,2.197911e-005
2.159713e-004,5.471631e-005
2.232642e-004,4.888196e-005
2.104611e-004,1.306552e-005
1.850168e-004,-3.620233e-005
1.547106e-004,-7.655659e-005
1.289422e-004,-9.519411e-005
1.093323e-004,-9.195280e-005
1.015532e-004,-7.282909e-005
1.096565e-004,-4.787104e-005
1.368834e-004,-2.242678e-005
1.772377e-004,9.106226e-007
2.175920e-004,1.987226e-005
2.401191e-004,3.202716e-005
2.346088e-004,4.191315e-005
2.077060e-004,5.293359e-005
1.751308e-004,6.314371e-005
1.492004e-004,7.302969e-005
1.360731e-004,8.259154e-005
1.385041e-004,9.620503e-005
1.508210e-004,1.132219e-004
1.697827e-004,1.312111e-004
1.900409e-004,1.479039e-004
2.104611e-004,1.555209e-004
2.323399e-004,1.488763e-004
2.564876e-004,1.300767e-004
2.817698e-004,1.065772e-004
3.004074e-004,8.502253e-005
3.062417e-004,7.092283e-005
2.958695e-004,6.395403e-005
2.728562e-004,6.200925e-005
2.431983e-004,6.395403e-005
2.117576e-004,6.606088e-005
1.803169e-004,6.298164e-005
1.485521e-004,5.455424e-005
1.200286e-004,4.677511e-005
9.717742e-005,3.980630e-005
8.405013e-005,3.348575e-005
8.259154e-005,3.202716e-005
8.810177e-005,3.445814e-005
9.701536e-005,3.932010e-005
1.059289e-004,4.742337e-005
1.164632e-004,5.811968e-005
1.279698e-004,7.076077e-005
1.423936e-004,8.405013e-005
1.548727e-004,9.588090e-005
1.597346e-004,1.030118e-004
1.568175e-004,1.023635e-004
1.443384e-004,9.620503e-005
1.279698e-004,9.020861e-005
1.122495e-004,8.826383e-005
1.026876e-004,9.085687e-005
9.977046e-005,9.101894e-005
9.685329e-005,8.242948e-005
8.745350e-005,7.059870e-005
7.594687e-005,6.427816e-005
7.027457e-005,6.265751e-005
7.238143e-005,6.168512e-005
7.465034e-005,6.103685e-005
7.108490e-005,6.055066e-005
5.811968e-005,5.811968e-005
3.624086e-005,5.536457e-005
1.419998e-005,5.358185e-005
-2.006553e-006,5.309565e-005
-1.221667e-005,4.936815e-005
-2.096819e-005,4.288554e-005
-2.664048e-005,3.769945e-005
-2.745081e-005,3.883391e-005
-2.501983e-005,4.223728e-005
-1.626830e-005,3.964423e-005
-3.858999e-007,2.732727e-005
2.084466e-005,1.014835e-005
3.948217e-005,-5.734055e-006
4.580272e-005,-1.432352e-005
3.624086e-005,-1.254080e-005
1.436204e-005,-4.275467e-006
-8.813297e-006,5.864920e-007
-1.967167e-005,-3.858999e-007
-1.367526e-005,-4.437533e-006
3.503668e-006,-1.043395e-005
2.278944e-005,-1.497178e-005
3.462021e-005,-1.059601e-005
3.769945e-005,1.234753e-006
3.445814e-005,1.776542e-005
2.684107e-005,3.445814e-005
2.359977e-005,5.066468e-005
3.089270e-005,5.893001e-005
4.758544e-005,5.633696e-005
6.379197e-005,4.466826e-005
7.173317e-005,2.635488e-005
7.384001e-005,7.717366e-006
7.351588e-005,-3.465141e-006
7.335382e-005,7.485573e-007
7.497447e-005,2.035846e-005
6.930219e-005,4.385793e-005
4.953022e-005,6.233338e-005
2.570661e-005,7.124698e-005
8.365628e-006,7.092283e-005
-7.192643e-006,6.427816e-005
-3.636440e-005,5.309565e-005
-7.720485e-005,3.980630e-005
-1.047560e-004,3.235129e-005
-9.811128e-005,3.380988e-005
-5.013995e-005,4.304760e-005
2.829966e-005,5.552663e-005
1.187321e-004,7.302969e-005
2.036543e-004,9.215340e-005
2.728562e-004,1.038221e-004
3.206655e-004,1.046324e-004
3.401134e-004,1.005808e-004
3.277964e-004,9.652916e-005
2.809595e-004,9.150514e-005
2.077060e-004,8.259154e-005
1.234320e-004,7.205730e-005
4.580272e-005,6.411610e-005
-1.464765e-005,6.103685e-005
-6.051213e-005,6.071273e-005
-9.875954e-005,6.427816e-005
-1.352242e-004,7.221937e-005
-1.663408e-004,8.469840e-005
-1.838438e-004,9.150514e-005
-1.818990e-004,8.550872e-005
-1.577513e-004,6.751947e-005
-1.143178e-004,4.304760e-005
-6.634648e-005,1.695509e-005
-2.745081e-005,-4.599598e-006
-3.951337e-006,-1.529591e-005
9.986280e-006,-1.497178e-005
2.424803e-005,-1.059601e-005
4.531652e-005,-4.599598e-006
6.768153e-005,4.313994e-006
8.988448e-005,1.841368e-005
1.187321e-004,3.672705e-005
1.610312e-004,5.487837e-005
2.119197e-004,6.703327e-005
2.631323e-004,7.059870e-005
3.039728e-004,6.346784e-005
3.240689e-004,4.774750e-005
3.213138e-004,3.121684e-005
3.000832e-004,2.149292e-005
2.615117e-004,2.246531e-005
2.099749e-004,3.332369e-005
1.537382e-004,4.774750e-005
9.977046e-005,5.747142e-005
5.309565e-005,6.152305e-005
1.614476e-005,6.038860e-005
-1.416145e-005,5.309565e-005
-3.992984e-005,4.499239e-005
-6.504996e-005,3.948217e-005
-9.098041e-005,3.980630e-005
-1.162626e-004,4.531652e-005
-1.417068e-004,5.390598e-005
-1.697441e-004,6.217131e-005
-2.002124e-004,6.136099e-005
-2.279256e-004,4.774750e-005
-2.483458e-004,2.927205e-005
-2.533698e-004,1.727922e-005
-2.418632e-004,1.355172e-005
-2.188499e-004,1.419998e-005
-1.932436e-004,2.035846e-005
-1.616409e-004,3.559260e-005
-1.081593e-004,5.536457e-005
-2.275091e-005,7.302969e-005
9.879807e-005,8.550872e-005
2.384984e-004,9.847395e-005
3.624784e-004,1.125736e-004
4.397836e-004,1.237561e-004
4.644175e-004,1.282940e-004
4.499937e-004,1.260251e-004
4.243874e-004,1.163011e-004
4.123945e-004,1.038221e-004
4.172565e-004,8.923622e-005
4.307079e-004,7.270556e-005
4.345975e-004,5.244739e-005
4.148255e-004,2.894792e-005
3.655576e-004,1.128280e-005
2.843629e-004,3.017472e-006
1.773998e-004,-8.720958e-007
6.589881e-005,-2.816880e-006
-2.680255e-005,-5.409925e-006
-9.195280e-005,-8.975361e-006
-1.340898e-004,-1.626830e-005
-1.614788e-004,-2.777494e-005
-1.831956e-004,-4.074016e-005
-2.058847e-004,-4.608832e-005
-2.300324e-004,-3.976777e-005
-2.502906e-004,-2.745081e-005
-2.634179e-004,-1.140634e-005
-2.715212e-004,9.500084e-006
-2.802727e-004,3.008238e-005
-2.937241e-004,4.337174e-005
-3.144684e-004,4.742337e-005
-3.360231e-004,4.742337e-005
-3.423437e-004,4.320967e-005
-3.194925e-004,3.624086e-005
-2.713591e-004,2.894792e-005
-2.141500e-004,2.538249e-005
-1.655304e-004,3.089270e-005
-1.321450e-004,4.742337e-005
-1.105903e-004,6.978838e-005
-9.243900e-005,8.988448e-005
-7.120844e-005,1.007429e-004
-4.625038e-005,9.912220e-005
-2.129233e-005,8.599491e-005
5.864920e-007,6.687120e-005
2.392390e-005,5.082674e-005
5.698522e-005,4.045456e-005
1.013911e-004,4.061663e-005
1.509831e-004,5.277152e-005
1.958752e-004,7.043664e-005
2.315296e-004,8.810177e-005
2.639427e-004,1.023635e-004
3.012177e-004,1.098185e-004
3.386548e-004,1.065772e-004
3.645853e-004,9.620503e-005
3.722023e-004,8.615698e-005
3.668542e-004,8.161915e-005
3.592371e-004,8.161915e-005
3.514579e-004,8.356393e-005
3.414099e-004,8.259154e-005
3.209897e-004,7.983643e-005
2.817698e-004,7.918817e-005
2.151610e-004,8.129502e-005
1.245665e-004,7.999850e-005
2.846173e-005,7.238143e-005
-5.030201e-005,6.071273e-005
-9.730095e-005,5.471631e-005
-1.149661e-004,5.244739e-005
-1.206384e-004,5.001641e-005
-1.319829e-004,4.418206e-005
-1.629374e-004,3.915804e-005
-2.207947e-004,3.867184e-005
-2.985860e-004,4.142695e-005
-3.750809e-004,4.612685e-005
-4.301830e-004,4.823369e-005
-4.530342e-004,4.580272e-005
-4.423380e-004,4.191315e-005
-4.044147e-004,4.385793e-005
-3.504469e-004,5.504044e-005
-2.929138e-004,6.962632e-005
-2.384598e-004,8.032263e-005
-1.903264e-004,8.323980e-005
-1.509446e-004,7.772959e-005
-1.266348e-004,7.497447e-005
-1.242038e-004,8.113296e-005
-1.447861e-004,9.263960e-005
-1.789819e-004,9.620503e-005
-2.079916e-004,8.956035e-005
-2.118811e-004,8.194328e-005
-1.749302e-004,7.691926e-005
-1.031353e-004,7.173317e-005
-1.270286e-005,6.281957e-005
7.918817e-005,4.661304e-005
1.548727e-004,3.008238e-005
1.850168e-004,1.808955e-005
1.503348e-004,8.203561e-006
6.962632e-005,-2.978945e-006
-1.594417e-005,-1.367526e-005
-6.326724e-005,-1.724069e-005
-4.738484e-005,-9.947754e-006
2.295151e-005,8.041497e-006
1.218114e-004,2.651694e-005
2.274780e-004,3.462021e-005
3.174242e-004,3.040651e-005
3.794953e-004,2.214118e-005
4.149876e-004,1.938607e-005
4.307079e-004,2.197911e-005
4.329768e-004,2.684107e-005
4.253598e-004,3.267542e-005
4.099635e-004,3.834771e-005
3.901916e-004,4.223728e-005
3.697713e-004,4.320967e-005
3.522683e-004,4.320967e-005
3.342790e-004,4.175108e-005
3.125622e-004,4.110282e-005
2.827422e-004,4.272347e-005
2.493568e-004,4.596478e-005
2.256952e-004,5.001641e-005
2.179161e-004,5.325772e-005
2.203471e-004,5.406805e-005
2.252090e-004,4.855782e-005
2.247228e-004,4.045456e-005
2.130541e-004,3.413401e-005
1.952270e-004,3.640293e-005
1.809652e-004,4.774750e-005
1.773998e-004,6.119892e-005
1.889064e-004,6.881599e-005
2.073818e-004,6.995045e-005
2.229401e-004,6.784360e-005
2.278021e-004,6.314371e-005
2.218057e-004,5.860587e-005
2.080301e-004,5.520250e-005
1.879340e-004,5.309565e-005
1.620035e-004,5.341978e-005
1.323456e-004,5.309565e-005
1.083599e-004,5.115087e-005
9.312579e-005,5.179913e-005
8.129502e-005,5.212327e-005
6.606088e-005,4.758544e-005
4.045456e-005,3.915804e-005
5.448451e-006,2.797553e-005
-2.939559e-005,1.614476e-005
-5.565017e-005,4.476060e-006
-7.574627e-005,-6.868512e-006
-9.762508e-005,-1.724069e-005
-1.303623e-004,-3.166451e-005
-1.737958e-004,-5.143647e-005
-2.198223e-004,-7.120844e-005
-2.554767e-004,-8.336334e-005
-2.711970e-004,-8.012203e-005
-2.648765e-004,-6.245691e-005
-2.467252e-004,-3.782299e-005
-2.292221e-004,-1.237873e-005
-2.233878e-004,8.527692e-006
-2.288980e-004,1.906194e-005
-2.361909e-004,2.311357e-005
-2.366771e-004,2.748933e-005
-2.243601e-004,3.332369e-005
-2.036158e-004,3.980630e-005
-1.789819e-004,4.402000e-005
-1.522411e-004,4.466826e-005
-1.263107e-004,4.742337e-005
-9.811128e-005,5.617490e-005
-6.829127e-005,6.946425e-005
-4.171255e-005,8.129502e-005
-1.416145e-005,8.972242e-005
2.019640e-005,9.231547e-005
5.876794e-005,8.777764e-005
9.426025e-005,7.724339e-005
1.166253e-004,6.784360e-005
1.257009e-004,6.152305e-005
1.294284e-004,5.909207e-005
1.367214e-004,6.006446e-005
1.574657e-004,6.055066e-005
1.918236e-004,6.217131e-005
2.384984e-004,7.043664e-005
2.939247e-004,8.080882e-005
3.478925e-004,8.648111e-005
3.976466e-004,8.615698e-005
4.417284e-004,8.307774e-005
4.757621e-004,7.789165e-005
4.922927e-004,7.189524e-005
4.864584e-004,6.897806e-005
4.553419e-004,6.995045e-005
4.002396e-004,7.254349e-005
3.264999e-004,7.416414e-005
2.436845e-004,7.448828e-005
1.652449e-004,7.432621e-005
1.036600e-004,7.708132e-005
6.460230e-005,8.469840e-005
4.499239e-005,9.669123e-005
4.142695e-005,1.101426e-004
4.871989e-005,1.247285e-004
5.730935e-005,1.404489e-004
5.293359e-005,1.529279e-004
2.927205e-005,1.551968e-004
-5.896120e-006,1.474177e-004
-3.911951e-005,1.338042e-004
-6.197072e-005,1.205148e-004
-7.509801e-005,1.125736e-004
-8.125648e-005,1.096565e-004
-7.882551e-005,1.093323e-004
-6.278104e-005,1.083599e-004
-3.409548e-005,9.685329e-005
-8.489165e-006,7.238143e-005
-4.437533e-006,4.207521e-005
-2.696461e-005,1.727922e-005
-6.748093e-005,2.207145e-006
-1.089697e-004,-4.923729e-006
-1.421931e-004,-5.409925e-006
-1.666649e-004,4.151929e-006
-1.836818e-004,2.116879e-005
-1.932436e-004,4.402000e-005
-1.940539e-004,7.059870e-005
-1.878955e-004,9.555677e-005
-1.755785e-004,1.163011e-004
-1.496480e-004,1.313732e-004
-1.000561e-004,1.389903e-004
-2.096819e-005,1.367214e-004
8.421220e-005,1.193804e-004
2.000889e-004,8.988448e-005
3.033245e-004,5.487837e-005
3.770643e-004,2.311357e-005
4.200116e-004,4.638125e-006
4.378388e-004,-2.238345e-007
4.363802e-004,2.855406e-006
4.251977e-004,9.013888e-006
4.156358e-004,1.679302e-005
4.070464e-004,2.424803e-005
3.971604e-004,2.538249e-005
3.874364e-004,1.987226e-005
3.850055e-004,1.176900e-005
3.822504e-004,2.531276e-006
3.610198e-004,-4.599598e-006
3.054314e-004,-1.237873e-005
2.161334e-004,-2.437157e-005
1.062531e-004,-4.592625e-005
-4.761663e-006,-7.526008e-005
-9.827335e-005,-1.070249e-004
-1.637477e-004,-1.373311e-004
-1.994021e-004,-1.630995e-004
-2.089639e-004,-1.807646e-004
-2.000504e-004,-1.836818e-004
-1.823852e-004,-1.713648e-004
-1.630995e-004,-1.447861e-004
-1.468929e-004,-1.089697e-004
-1.373311e-004,-7.331529e-005
-1.363587e-004,-4.446767e-005
-1.455964e-004,-2.177852e-005
-1.682856e-004,-3.858999e-007
-2.079916e-004,2.424803e-005
-2.603386e-004,5.082674e-005
-3.096065e-004,7.870197e-005
-3.399127e-004,1.080358e-004
-3.438023e-004,1.376937e-004
-3.292164e-004,1.571416e-004
-3.087962e-004,1.598967e-004
-2.955068e-004,1.501728e-004
-3.010170e-004,1.376937e-004
-3.259751e-004,1.226217e-004
-3.579019e-004,1.030118e-004
-3.758912e-004,8.226741e-005
-3.663293e-004,6.703327e-005
-3.259751e-004,6.395403e-005
-2.588801e-004,7.221937e-005
-1.742820e-004,7.999850e-005
-8.206682e-005,7.951231e-005
6.258778e-006,6.460230e-005
7.805372e-005,3.867184e-005
1.213252e-004,8.365628e-006
1.396385e-004,-2.339917e-005
1.427178e-004,-4.900549e-005
1.425557e-004,-6.197072e-005
1.446626e-004,-5.354332e-005
1.496866e-004,-2.404744e-005
1.633001e-004,1.841368e-005
1.890685e-004,5.909207e-005
2.284503e-004,8.793970e-005
2.741528e-004,1.052807e-004
3.135346e-004,1.103047e-004
3.397892e-004,1.051186e-004
3.517821e-004,9.361198e-005
3.451374e-004,8.680524e-005
3.192069e-004,8.826383e-005
2.799871e-004,9.717742e-005
2.352571e-004,1.081979e-004
1.914994e-004,1.180839e-004
1.457970e-004,1.224596e-004
8.388807e-005,1.263492e-004
-7.030578e-006,1.359110e-004
-1.243659e-004,1.469315e-004
-2.467252e-004,1.530900e-004
-3.468815e-004,1.526038e-004
-4.000389e-004,1.474177e-004
-3.993907e-004,1.464453e-004
-3.616295e-004,1.521176e-004
-3.027998e-004,1.620035e-004
-2.326255e-004,1.697827e-004
-1.643960e-004,1.736723e-004
-1.068628e-004,1.722137e-004
-5.970180e-005,1.624898e-004
-1.659243e-005,1.475797e-004
2.133085e-005,1.297525e-004
5.050261e-005,1.156529e-004
7.238143e-005,1.153287e-004
8.534666e-005,1.279698e-004
9.296372e-005,1.448246e-004
9.328785e-005,1.540623e-004
8.453633e-005,1.500107e-004
7.124698e-005,1.297525e-004
6.136099e-005,9.377405e-005
5.795762e-005,5.131293e-005
6.233338e-005,1.825161e-005
7.416414e-005,3.341602e-006
8.745350e-005,1.002961e-007
9.474644e-005,-1.034161e-006
8.875003e-005,-8.327101e-006
6.865393e-005,-2.453363e-005
4.337174e-005,-4.608832e-005
2.554455e-005,-6.731887e-005
2.230324e-005,-8.368747e-005
3.559260e-005,-9.632856e-005
6.233338e-005,-1.161005e-004
9.912220e-005,-1.405724e-004
1.389903e-004,-1.608306e-004
1.769136e-004,-1.666649e-004
2.086784e-004,-1.506204e-004
2.290986e-004,-1.131834e-004
2.350950e-004,-5.872941e-005
2.239125e-004,-2.330684e-006
2.021958e-004,3.834771e-005
1.827479e-004,5.747142e-005
1.728619e-004,6.508849e-005
1.714033e-004,6.914012e-005
1.688103e-004,7.076077e-005
1.558451e-004,6.865393e-005
1.362352e-004,6.492643e-005
1.163011e-004,6.314371e-005
1.012291e-004,6.638501e-005
9.960840e-005,7.238143e-005
1.172735e-004,7.805372e-005
1.495245e-004,8.048469e-005
1.877719e-004,8.097089e-005
2.242366e-004,8.340186e-005
2.543808e-004,8.826383e-005
2.694529e-004,9.069480e-005
2.577842e-004,9.020861e-005
2.221298e-004,8.875003e-005
1.790204e-004,8.453633e-005
1.472556e-004,8.016056e-005
1.341283e-004,7.562274e-005
1.389903e-004,6.832980e-005
1.595726e-004,6.168512e-005
1.880961e-004,6.071273e-005
2.114335e-004,6.703327e-005
2.226160e-004,8.275361e-005
2.247228e-004,1.025256e-004
2.224539e-004,1.169494e-004
2.145127e-004,1.182459e-004
2.044647e-004,1.057669e-004
1.970097e-004,8.291567e-005
1.934442e-004,5.974033e-005
1.916615e-004,4.564065e-005
1.876099e-004,4.418206e-005
1.775618e-004,5.374392e-005
1.568175e-004,6.622294e-005
1.268354e-004,6.881599e-005
9.652916e-005,6.038860e-005
7.157111e-005,4.661304e-005
5.730935e-005,3.445814e-005
5.568870e-005,2.797553e-005
6.184718e-005,2.878586e-005
6.978838e-005,3.332369e-005
7.724339e-005,3.429608e-005
8.113296e-005,2.635488e-005
7.675719e-005,1.387585e-005
6.460230e-005,1.396819e-006
4.871989e-005,-7.516774e-006
2.943412e-005,-8.165034e-006
3.017472e-006,-3.141010e-006
-2.907146e-005,3.665733e-006
-7.218083e-005,9.175954e-006
-1.310105e-004,1.047248e-005
-2.015089e-004,7.717366e-006
-2.705488e-004,1.558884e-006
-3.209511e-004,-4.761663e-006
-3.431540e-004,-7.840905e-006
-3.374817e-004,-4.923729e-006
-3.130099e-004,2.045080e-006
-2.901587e-004,1.144487e-005
-2.827036e-004,2.392390e-005
-2.875656e-004,3.899597e-005
-2.921034e-004,5.455424e-005
-2.865932e-004,6.946425e-005
-2.590421e-004,8.486046e-005
-2.086398e-004,9.831188e-005
-1.540238e-004,1.069013e-004
-1.070249e-004,1.099806e-004
-6.586029e-005,1.062531e-004
-2.339917e-005,9.750155e-005
1.598270e-005,8.826383e-005
4.272347e-005,8.421220e-005
5.277152e-005,8.340186e-005
5.001641e-005,7.578480e-005
3.867184e-005,5.682316e-005
3.170303e-005,3.040651e-005
3.964423e-005,2.693341e-006
6.038860e-005,-1.999580e-005
9.020861e-005,-3.344722e-005
1.261871e-004,-3.717472e-005
1.576278e-004,-3.409548e-005
1.744826e-004,-2.907146e-005
1.735102e-004,-2.761287e-005
1.663793e-004,-3.620233e-005
1.623277e-004,-5.159854e-005
1.590864e-004,-6.796713e-005
1.563313e-004,-7.153257e-005
1.597346e-004,-5.370539e-005
1.778859e-004,-1.432352e-005
2.218057e-004,3.380988e-005
3.030004e-004,7.448828e-005
4.130428e-004,9.701536e-005
5.279472e-004,1.064151e-004
6.172452e-004,1.086841e-004
6.588960e-004,1.034980e-004
6.426895e-004,9.247753e-005
5.744599e-004,8.097089e-005
4.799758e-004,7.205730e-005
3.856537e-004,6.606088e-005
3.034866e-004,6.119892e-005
2.349330e-004,6.071273e-005
1.806411e-004,6.444023e-005
1.393144e-004,6.346784e-005
1.028497e-004,5.649903e-005
6.233338e-005,4.742337e-005
1.744128e-005,4.288554e-005
-2.356124e-005,4.969228e-005
-6.083626e-005,6.930219e-005
-9.940780e-005,9.750155e-005
-1.480274e-004,1.214872e-004
-2.120432e-004,1.289422e-004
-2.802727e-004,1.188942e-004
-3.368334e-004,9.717742e-005
-3.692465e-004,7.578480e-005
-3.765395e-004,6.087479e-005
-3.679500e-004,5.471631e-005
-3.527158e-004,5.844381e-005
-3.394265e-004,6.735740e-005
-3.298646e-004,7.513654e-005
-3.204648e-004,7.951231e-005
-3.036101e-004,8.129502e-005
-2.760590e-004,8.259154e-005
-2.376495e-004,8.469840e-005
-1.908126e-004,8.615698e-005
-1.355484e-004,8.712937e-005
-7.769105e-005,8.696730e-005
-2.534396e-005,8.599491e-005
1.565857e-005,7.902610e-005
3.883391e-005,6.152305e-005
4.612685e-005,3.591673e-005
4.645098e-005,1.209313e-005
4.904402e-005,-2.006553e-006
5.601283e-005,-4.923729e-006
6.038860e-005,-1.034161e-006
5.763348e-005,6.744974e-006
4.304760e-005,1.598270e-005
1.922400e-005,2.457216e-005
-6.220251e-006,3.332369e-005
-3.296103e-005,3.510640e-005
-6.602235e-005,2.522042e-005
-1.102662e-004,1.079661e-005
-1.635857e-004,3.665733e-006
-2.170672e-004,9.338019e-006
-2.635799e-004,2.278944e-005
-3.005308e-004,3.397195e-005
-3.391023e-004,3.996836e-005
-3.992286e-004,4.256141e-005
-4.818819e-004,4.126489e-005
-5.689110e-004,3.445814e-005
-6.304957e-004,2.522042e-005
-6.442713e-004,1.857574e-005
-6.056998e-004,2.068259e-005
-5.219121e-004,2.878586e-005
-4.121938e-004,3.494434e-005
-2.984240e-004,3.737532e-005
-1.922712e-004,4.045456e-005
-1.028112e-004,4.953022e-005
-3.247483e-005,6.281957e-005
2.165498e-005,7.448828e-005
6.525056e-005,8.113296e-005
9.863601e-005,8.583285e-005
1.260251e-004,8.923622e-005
1.556830e-004,9.231547e-005
1.979821e-004,9.798775e-005
2.537325e-004,1.017153e-004
3.185587e-004,9.798775e-005
3.874364e-004,8.567078e-005
4.572866e-004,7.140904e-005
5.190336e-004,6.022653e-005
5.637636e-004,5.552663e-005
5.882355e-004,5.374392e-005
5.939078e-004,5.196120e-005
5.815907e-004,4.677511e-005
5.556603e-004,3.802358e-005
5.261644e-004,3.040651e-005
5.097958e-004,2.910999e-005
5.130371e-004,3.316162e-005
5.308643e-004,3.850977e-005
5.524190e-004,4.207521e-005
5.648981e-004,4.207521e-005
5.639257e-004,3.818564e-005
5.493397e-004,3.121684e-005
5.287575e-004,2.327564e-005
5.016925e-004,2.165498e-005
4.624727e-004,2.910999e-005
4.088291e-004,4.499239e-005
3.449753e-004,6.525056e-005
2.765838e-004,7.951231e-005
2.067336e-004,8.129502e-005
1.449867e-004,7.497447e-005
9.701536e-005,7.173317e-005
6.379197e-005,7.384001e-005
3.737532e-005,7.805372e-005
1.549650e-005,8.307774e-005
-3.858999e-007,8.745350e-005
-1.075808e-005,9.085687e-005
-2.388537e-005,8.777764e-005
-4.009190e-005,7.886404e-005
-5.176060e-005,6.962632e-005
-5.305713e-005,6.589881e-005
-4.592625e-005,6.411610e-005
-3.895744e-005,6.281957e-005
-4.203669e-005,6.362990e-005
-5.662256e-005,6.281957e-005
-7.833932e-005,5.925414e-005
-9.568031e-005,5.212327e-005
-9.665269e-005,4.612685e-005
-8.077029e-005,4.790957e-005
-5.338126e-005,5.714729e-005
-2.453363e-005,6.265751e-005
1.072688e-006,6.136099e-005
1.922400e-005,5.504044e-005
3.154097e-005,4.855782e-005
4.013043e-005,4.272347e-005
4.985435e-005,3.786152e-005
6.087479e-005,3.559260e-005
7.189524e-005,3.494434e-005
8.064676e-005,3.186510e-005
8.502253e-005,2.781346e-005
8.340186e-005,2.424803e-005
8.550872e-005,2.214118e-005
1.031738e-004,2.019640e-005
1.376937e-004,1.517237e-005
1.819376e-004,2.531276e-006
2.276400e-004,-1.335112e-005
2.749631e-004,-2.745081e-005
3.190449e-004,-3.782299e-005
3.464339e-004,-4.252288e-005
3.480546e-004,-4.122636e-005
3.248792e-004,-3.360929e-005
2.829043e-004,-2.842320e-005
2.315296e-004,-2.907146e-005
1.791825e-004,-3.004385e-005
1.305629e-004,-2.420950e-005
8.615698e-005,-1.010982e-005
4.466826e-005,6.420843e-006
3.017472e-006,1.906194e-005
-3.701266e-005,2.732727e-005
-7.461181e-005,3.510640e-005
-1.067007e-004,4.110282e-005
-1.407345e-004,4.304760e-005
-1.835197e-004,4.402000e-005
-2.353806e-004,4.628891e-005
-2.914552e-004,5.228533e-005
-3.426678e-004,6.184718e-005
-3.823738e-004,7.221937e-005
-4.131662e-004,8.032263e-005
-4.347209e-004,8.745350e-005
-4.497929e-004,9.020861e-005
-4.535204e-004,8.939829e-005
-4.436345e-004,8.777764e-005
-4.311554e-004,8.696730e-005
-4.293727e-004,8.129502e-005
-4.415276e-004,6.816773e-005
-4.535204e-004,5.066468e-005
-4.439586e-004,4.207521e-005
-3.955011e-004,4.888196e-005
-3.107410e-004,6.816773e-005
-2.062088e-004,8.972242e-005
-1.084835e-004,1.059289e-004
-3.620233e-005,1.130598e-004
9.986280e-006,1.114392e-004
4.466826e-005,1.062531e-004
8.080882e-005,1.049566e-004
1.247285e-004,1.086841e-004
1.820997e-004,1.086841e-004
2.524360e-004,9.863601e-005
3.281205e-004,8.145709e-005
4.000776e-004,6.654707e-005
4.624727e-004,6.136099e-005
5.131992e-004,6.946425e-005
5.490156e-004,8.129502e-005
5.726772e-004,8.421220e-005
5.927733e-004,7.205730e-005
6.136798e-004,4.969228e-005
6.261588e-004,2.700314e-005
6.164348e-004,1.452411e-005
5.777012e-004,1.582063e-005
5.041235e-004,2.311357e-005
4.010499e-004,3.121684e-005
2.893869e-004,3.915804e-005
1.934442e-004,4.547859e-005
1.274836e-004,5.374392e-005
8.032263e-005,6.849186e-005
3.429608e-005,8.502253e-005
-1.221667e-005,9.847395e-005
-4.770897e-005,1.098185e-004
-6.521203e-005,1.156529e-004
-6.812920e-005,1.098185e-004
-6.342930e-005,9.588090e-005
-5.824321e-005,8.097089e-005
-6.148453e-005,6.687120e-005
-7.752898e-005,5.487837e-005
-1.034594e-004,4.531652e-005
-1.306864e-004,3.510640e-005
-1.455964e-004,2.635488e-005
-1.387897e-004,2.100672e-005
-1.068628e-004,2.003433e-005
-4.868136e-005,1.906194e-005
2.457216e-005,1.614476e-005
9.150514e-005,1.290346e-005
1.313732e-004,7.879431e-006
1.316973e-004,4.313994e-006
9.588090e-005,2.623614e-007
3.478227e-005,-6.706447e-006
-3.911951e-005,-1.659243e-005
-1.266348e-004,-2.809907e-005
-2.310048e-004,-3.766092e-005
-3.389403e-004,-4.317114e-005
-4.287245e-004,-4.738484e-005
-4.815578e-004,-5.013995e-005
-4.838267e-004,-5.176060e-005
-4.303451e-004,-5.338126e-005
-3.292164e-004,-5.451571e-005
-1.994021e-004,-5.321919e-005
-7.088431e-005,-4.803310e-005
2.927205e-005,-3.393342e-005
8.405013e-005,-1.205460e-005
9.231547e-005,1.031041e-005
5.844381e-005,2.359977e-005
-5.571990e-006,2.992031e-005
-8.287714e-005,3.850977e-005
-1.561307e-004,5.212327e-005
-2.167431e-004,6.703327e-005
-2.650385e-004,7.951231e-005
-3.015032e-004,8.696730e-005
-3.306750e-004,9.296372e-005
-3.567675e-004,1.028497e-004
-3.752429e-004,1.125736e-004
-3.711913e-004,1.146805e-004
-3.282440e-004,1.057669e-004
-2.459148e-004,9.588090e-005
-1.396000e-004,9.312579e-005
-3.360929e-005,9.766362e-005
5.196120e-005,1.052807e-004
1.099806e-004,1.094944e-004
1.454729e-004,1.090082e-004
1.738343e-004,1.059289e-004
2.094887e-004,1.013911e-004
2.564876e-004,9.847395e-005
3.054314e-004,9.863601e-005
3.365479e-004,9.863601e-005
3.423823e-004,9.798775e-005
3.344411e-004,9.831188e-005
3.336308e-004,9.993253e-005
3.514579e-004,1.038221e-004
3.798194e-004,1.086841e-004
4.070464e-004,1.114392e-004
4.232529e-004,1.114392e-004
4.232529e-004,1.096565e-004
4.063981e-004,1.070634e-004
3.709058e-004,1.017153e-004
3.140208e-004,9.085687e-005
2.389846e-004,7.578480e-005
1.636242e-004,6.281957e-005
1.060910e-004,6.038860e-005
7.513654e-005,6.946425e-005
6.865393e-005,8.648111e-005
8.048469e-005,1.017153e-004
1.010670e-004,1.075496e-004
1.192183e-004,1.025256e-004
1.257009e-004,8.972242e-005
1.198666e-004,6.978838e-005
1.091703e-004,4.612685e-005
9.377405e-005,2.424803e-005
7.967437e-005,8.689757e-006
7.092283e-005,2.369210e-006
6.768153e-005,3.179537e-006
6.362990e-005,6.096713e-006
5.406805e-005,7.717366e-006
3.721326e-005,6.582909e-006
1.160693e-005,-2.816880e-006
-1.594417e-005,-2.129233e-005
-4.203669e-005,-4.414354e-005
-6.764300e-005,-6.229485e-005
-9.551824e-005,-6.667061e-005
-1.196660e-004,-6.002593e-005
-1.334415e-004,-4.965375e-005
-1.323070e-004,-4.106429e-005
-1.107524e-004,-3.182657e-005
-7.023605e-005,-1.383732e-005
-1.821308e-005,1.112074e-005
3.299956e-005,3.802358e-005
6.800567e-005,6.006446e-005
7.643306e-005,7.675719e-005
6.055066e-005,9.150514e-005
4.256141e-005,1.075496e-004
4.790957e-005,1.169494e-004
8.583285e-005,1.124116e-004
1.469315e-004,9.312579e-005
2.068957e-004,6.962632e-005
2.493568e-004,5.260946e-005
2.652392e-004,4.726130e-005
2.563256e-004,4.969228e-005
2.320158e-004,5.309565e-005
2.018716e-004,5.244739e-005
1.704310e-004,4.418206e-005
1.417454e-004,3.267542e-005
1.122495e-004,2.230324e-005
8.080882e-005,1.419998e-005
4.612685e-005,7.717366e-006
3.341602e-006,1.396819e-006
-5.078821e-005,-8.813297e-006
-1.089697e-004,-2.356124e-005
-1.593720e-004,-4.090223e-005
-1.887058e-004,-5.305713e-005
-1.912988e-004,-5.078821e-005
-1.724992e-004,-3.215070e-005
-1.368449e-004,-4.761663e-006
-9.130454e-005,2.376183e-005
-4.349527e-005,4.661304e-005
7.393235e-006,5.714729e-005
6.606088e-005,5.568870e-005
1.344524e-004,4.790957e-005
2.051129e-004,3.867184e-005
2.650771e-004,3.121684e-005
3.034866e-004,2.343770e-005
3.192069e-004,1.938607e-005
3.141829e-004,1.938607e-005
2.948972e-004,1.857574e-005
2.644288e-004,6.420843e-006
2.234263e-004,-1.562004e-005
1.733481e-004,-3.766092e-005
1.268354e-004,-5.046408e-005
9.977046e-005,-5.143647e-005
1.046324e-004,-4.155049e-005
1.378558e-004,-2.842320e-005
1.833962e-004,-1.626830e-005
2.185644e-004,-8.002969e-006
2.256952e-004,-6.176923e-008
1.986303e-004,1.095867e-005
1.448246e-004,2.554455e-005
8.583285e-005,4.126489e-005
4.029249e-005,6.184718e-005
1.274139e-005,8.696730e-005
7.485573e-007,1.174356e-004
3.017472e-006,1.475797e-004
1.938607e-005,1.720516e-004
4.369587e-005,1.855030e-004
6.849186e-005,1.884202e-004
8.810177e-005,1.863134e-004
9.685329e-005,1.824238e-004
8.712937e-005,1.817755e-004
5.795762e-005,1.871237e-004
1.322759e-005,1.937684e-004
-4.009190e-005,1.902029e-004
-8.984595e-005,1.764274e-004
-1.282554e-004,1.553589e-004
-1.520790e-004,1.341283e-004
-1.629374e-004,1.193804e-004
-1.668270e-004,1.146805e-004
-1.608306e-004,1.193804e-004
-1.431654e-004,1.242423e-004
-1.178833e-004,1.274836e-004
-9.535618e-005,1.271595e-004
-7.785312e-005,1.187321e-004
-6.261898e-005,9.814982e-005
-4.365734e-005,7.335382e-005
-1.772689e-005,5.974033e-005
1.193106e-005,6.168512e-005
4.953022e-005,7.189524e-005
9.555677e-005,8.259154e-005
1.500107e-004,8.583285e-005
2.106232e-004,8.032263e-005
2.736665e-004,7.238143e-005
3.276343e-004,6.606088e-005
3.632887e-004,6.249544e-005
3.785229e-004,5.649903e-005
3.736609e-004,4.418206e-005
3.477304e-004,2.797553e-005
3.021901e-004,1.371378e-005
2.412535e-004,3.179537e-006
1.744826e-004,-3.627206e-006
1.081979e-004,-8.651231e-006
4.564065e-005,-1.205460e-005
-9.947754e-006,-1.335112e-005
-6.148453e-005,-9.785687e-006
-1.188556e-004,-2.654814e-006
-1.841679e-004,5.772582e-006
-2.517492e-004,1.355172e-005
-2.976136e-004,1.857574e-005
-3.053928e-004,1.711715e-005
-2.780037e-004,9.013888e-006
-2.282497e-004,1.072688e-006
-1.712027e-004,-4.113402e-006
-1.172350e-004,-8.651231e-006
-7.817725e-005,-1.156841e-005
-5.791909e-005,-9.623623e-006
-5.808115e-005,-3.627206e-006
-7.153257e-005,9.338019e-006
-9.794922e-005,2.748933e-005
-1.350622e-004,4.726130e-005
-1.707165e-004,5.925414e-005
-1.919471e-004,6.071273e-005
-1.924333e-004,5.730935e-005
-1.734716e-004,5.390598e-005
-1.520790e-004,5.358185e-005
-1.608306e-004,5.374392e-005
-2.149604e-004,5.098881e-005
-2.908069e-004,4.499239e-005
-3.486642e-004,3.964423e-005
-3.635742e-004,3.996836e-005
-3.371576e-004,4.742337e-005
-2.809209e-004,5.633696e-005
-2.050744e-004,5.876794e-005
-1.201522e-004,5.536457e-005
-3.458168e-005,5.196120e-005
4.612685e-005,5.244739e-005
1.143563e-004,6.071273e-005
1.667035e-004,7.740545e-005
2.036543e-004,9.490851e-005
2.281262e-004,1.065772e-004
2.423880e-004,1.106288e-004
2.478982e-004,1.073875e-004
2.530843e-004,9.312579e-005
2.616738e-004,6.654707e-005
2.670219e-004,3.332369e-005
2.618358e-004,2.369210e-006
2.420638e-004,-1.853721e-005
2.046267e-004,-2.275091e-005
1.569795e-004,-9.785687e-006
1.128978e-004,1.112074e-005
7.562274e-005,2.927205e-005
3.996836e-005,4.077869e-005
4.244267e-007,4.709924e-005
-4.738484e-005,5.147500e-005
-1.049180e-004,5.568870e-005
-1.611547e-004,5.633696e-005
-1.972952e-004,4.839576e-005
-2.032917e-004,3.607880e-005
-1.815749e-004,2.667901e-005
-1.417068e-004,2.959618e-005
-9.292519e-005,4.483032e-005
-4.252288e-005,6.379197e-005
-6.176923e-008,7.999850e-005
3.380988e-005,9.069480e-005
5.763348e-005,9.669123e-005
6.978838e-005,9.798775e-005
7.043664e-005,9.669123e-005
5.682316e-005,9.442231e-005
2.505835e-005,9.166720e-005
-2.291298e-005,9.037068e-005
-8.401160e-005,9.053274e-005
-1.507825e-004,8.988448e-005
-2.122052e-004,8.129502e-005
-2.523974e-004,5.893001e-005
-2.596904e-004,2.214118e-005
-2.319772e-004,-2.161646e-005
-1.724992e-004,-6.504996e-005
-9.827335e-005,-1.016767e-004
-2.664048e-005,-1.329553e-004
3.218923e-005,-1.632615e-004
8.032263e-005,-1.904885e-004
1.247285e-004,-2.036158e-004
1.736723e-004,-1.947022e-004
2.297469e-004,-1.643960e-004
2.882525e-004,-1.186936e-004
3.415720e-004,-6.877746e-005
3.910019e-004,-2.745081e-005
4.444834e-004,-2.978945e-006
5.097958e-004,3.665733e-006
5.859666e-004,-6.544382e-006
6.634339e-004,-2.534396e-005
7.250187e-004,-4.155049e-005
7.671557e-004,-4.641245e-005
7.966516e-004,-3.685059e-005
8.165857e-004,-1.821308e-005
8.185304e-004,8.041497e-006
7.919517e-004,3.932010e-005
7.373357e-004,6.865393e-005
6.627856e-004,8.939829e-005
5.760806e-004,1.015532e-004
4.856481e-004,1.099806e-004
3.987810e-004,1.210010e-004
3.230965e-004,1.312111e-004
2.564876e-004,1.355869e-004
1.934442e-004,1.339663e-004
1.252147e-004,1.304008e-004
4.953022e-005,1.302387e-004
-2.761287e-005,1.312111e-004
-1.021629e-004,1.294284e-004
-1.679614e-004,1.276457e-004
-2.237119e-004,1.297525e-004
-2.724935e-004,1.394765e-004
-3.164132e-004,1.577899e-004
-3.574157e-004,1.835582e-004
-3.890185e-004,2.106232e-004
-4.031182e-004,2.268297e-004
-3.930701e-004,2.255332e-004
-3.598467e-004,2.068957e-004
-3.092824e-004,1.793446e-004
-2.462390e-004,1.535762e-004
-1.780095e-004,1.359110e-004
-1.092938e-004,1.247285e-004
-3.701266e-005,1.184080e-004
4.077869e-005,1.150046e-004
1.218114e-004,1.090082e-004
1.936063e-004,9.669123e-005
2.436845e-004,8.226741e-005
2.611876e-004,7.772959e-005
2.504912e-004,8.599491e-005
2.265056e-004,9.701536e-005
2.051129e-004,9.863601e-005
1.890685e-004,9.182927e-005
1.743205e-004,8.599491e-005
1.530900e-004,8.502253e-005
1.229458e-004,8.680524e-005
8.178122e-005,8.680524e-005
2.829966e-005,7.805372e-005
-3.393342e-005,6.087479e-005
-9.584237e-005,3.591673e-005
-1.454343e-004,8.041497e-006
-1.749302e-004,-1.626830e-005
-1.833576e-004,-2.988179e-005
-1.773612e-004,-3.134038e-005
-1.656925e-004,-2.096819e-005
-1.600202e-004,-6.706447e-006
-1.676373e-004,1.234753e-006
-1.938919e-004,9.106226e-007
-2.339220e-004,-4.113402e-006
-2.789761e-004,-1.092015e-005
-3.196545e-004,-1.691656e-005
-3.478539e-004,-1.918548e-005
-3.462333e-004,-1.221667e-005
-3.073376e-004,2.531276e-006
-2.434839e-004,1.938607e-005
-1.841679e-004,2.975825e-005
-1.605064e-004,2.505835e-005
-1.815749e-004,5.772582e-006
-2.318151e-004,-2.031993e-005
-2.794623e-004,-3.976777e-005
-2.909690e-004,-4.787104e-005
-2.530457e-004,-4.576419e-005
-1.802784e-004,-3.522994e-005
-1.010285e-004,-2.096819e-005
-3.814712e-005,-6.706447e-006
-6.176923e-008,3.665733e-006
1.954813e-005,8.203561e-006
3.543053e-005,8.851824e-006
5.974033e-005,9.824214e-006
1.106288e-004,1.355172e-005
1.936063e-004,1.663096e-005
2.923041e-004,1.225519e-005
3.841952e-004,-2.238345e-007
4.540453e-004,-1.156841e-005
4.986133e-004,-1.837515e-005
5.219507e-004,-2.080613e-005
5.238955e-004,-1.497178e-005
5.078511e-004,4.476060e-006
4.822447e-004,3.170303e-005
4.469145e-004,5.293359e-005
3.974845e-004,6.411610e-005
3.295791e-004,7.059870e-005
2.453051e-004,7.708132e-005
1.534141e-004,8.291567e-005
6.849186e-005,8.777764e-005
3.341602e-006,9.069480e-005
-3.749886e-005,9.069480e-005
-5.646050e-005,9.037068e-005
-6.359137e-005,9.280166e-005
-6.294311e-005,9.896014e-005
-5.354332e-005,1.065772e-004
-4.333321e-005,1.125736e-004
-3.863331e-005,1.187321e-004
-4.074016e-005,1.237561e-004
-4.317114e-005,1.257009e-004
-3.620233e-005,1.250527e-004
-1.999580e-005,1.266733e-004
7.879431e-006,1.349386e-004
4.515445e-005,1.490383e-004
8.226741e-005,1.647587e-004
1.117633e-004,1.704310e-004
1.266733e-004,1.616794e-004
1.273216e-004,1.457970e-004
1.201907e-004,1.318594e-004
1.127357e-004,1.201907e-004
1.106288e-004,1.065772e-004
1.132219e-004,9.085687e-005
1.119254e-004,7.529860e-005
9.150514e-005,6.411610e-005
4.936815e-005,5.649903e-005
-2.978945e-006,4.742337e-005
-4.868136e-005,3.591673e-005
-8.903562e-005,2.489629e-005
-1.475412e-004,1.808955e-005
-2.337599e-004,1.598270e-005
-3.337542e-004,1.484824e-005
-4.227281e-004,9.986280e-006
-4.796130e-004,-1.196226e-006
-4.953333e-004,-1.562004e-005
-4.784785e-004,-2.583015e-005
-4.343967e-004,-2.420950e-005
-3.663293e-004,-1.205460e-005
-2.828657e-004,1.720949e-006
-1.982676e-004,1.144487e-005
-1.269589e-004,1.387585e-005
-6.991192e-005,9.986280e-006
-2.728874e-005,1.072688e-006
1.396819e-006,-7.354708e-006
2.068259e-005,-9.623623e-006
3.348575e-005,-5.085794e-006
4.126489e-005,2.855406e-006
4.304760e-005,1.274139e-005
3.543053e-005,2.716520e-005
2.052053e-005,4.418206e-005
3.989864e-006,6.006446e-005
-9.299492e-006,7.335382e-005
-1.513384e-005,8.356393e-005
-1.075808e-005,9.004655e-005
1.234753e-006,8.988448e-005
2.230324e-005,8.178122e-005
5.406805e-005,6.832980e-005
9.344992e-005,5.487837e-005
1.313732e-004,4.726130e-005
1.603829e-004,4.142695e-005
1.777239e-004,3.445814e-005
1.905270e-004,2.813760e-005
2.114335e-004,2.327564e-005
2.444948e-004,1.695509e-005
2.733424e-004,4.800190e-006
2.782044e-004,-1.237873e-005
2.657254e-004,-2.550602e-005
2.574600e-004,-2.680255e-005
2.764217e-004,-1.610623e-005
3.203414e-004,-2.238345e-007
3.709058e-004,1.225519e-005
4.119083e-004,1.436204e-005
4.368664e-004,3.827798e-006
4.422145e-004,-1.740276e-005
4.345975e-004,-4.527799e-005
4.190392e-004,-7.088431e-005
3.978086e-004,-8.028410e-005
3.710678e-004,-6.310517e-005
3.365479e-004,-2.599222e-005
2.916558e-004,1.646889e-005
2.391467e-004,4.790957e-005
1.832341e-004,6.395403e-005
1.250527e-004,6.541262e-005
5.520250e-005,5.763348e-005
-3.004385e-005,4.758544e-005
-1.250141e-004,4.304760e-005
-2.203085e-004,4.645098e-005
-3.096065e-004,5.666109e-005
-3.906391e-004,6.914012e-005
-4.543308e-004,7.983643e-005
-4.956574e-004,8.729143e-005
-5.112157e-004,9.118101e-005
-4.932265e-004,8.939829e-005
-4.318037e-004,8.307774e-005
-3.288923e-004,7.465034e-005
-1.950263e-004,6.914012e-005
-4.851930e-005,7.659513e-005
8.405013e-005,9.604297e-005
1.850168e-004,1.166253e-004
2.514636e-004,1.318594e-004
2.927903e-004,1.401247e-004
3.200173e-004,1.432040e-004
3.462718e-004,1.401247e-004
3.869503e-004,1.316973e-004
4.493454e-004,1.234320e-004
5.269747e-004,1.197045e-004
6.026593e-004,1.219734e-004
6.519272e-004,1.323456e-004
6.548443e-004,1.475797e-004
6.112488e-004,1.607070e-004
5.405883e-004,1.670276e-004
4.666864e-004,1.660552e-004
4.083429e-004,1.584381e-004
3.650714e-004,1.459591e-004
3.255275e-004,1.273216e-004
2.762596e-004,1.030118e-004
2.156472e-004,7.708132e-005
1.488763e-004,5.309565e-005
8.469840e-005,3.008238e-005
3.073064e-005,8.041497e-006
-7.678839e-006,-8.975361e-006
-3.150244e-005,-1.805102e-005
-4.381940e-005,-2.161646e-005
-5.046408e-005,-2.064406e-005
-5.662256e-005,-1.675450e-005
-6.537409e-005,-1.416145e-005
-6.991192e-005,-1.513384e-005
-5.402952e-005,-2.485776e-005
-1.059601e-005,-3.960571e-005
4.807163e-005,-5.143647e-005
1.009049e-004,-5.062615e-005
1.240803e-004,-3.604027e-005
1.023635e-004,-1.432352e-005
3.818564e-005,5.934647e-006
-4.851930e-005,1.906194e-005
-1.321450e-004,2.505835e-005
-1.929195e-004,2.797553e-005
-2.274394e-004,3.478227e-005
-2.425115e-004,4.385793e-005
-2.446183e-004,5.617490e-005
-2.434839e-004,7.076077e-005
-2.462390e-004,8.340186e-005
-2.475355e-004,9.199134e-005
-2.436459e-004,9.409818e-005
-2.371633e-004,8.729143e-005
-2.344082e-004,7.448828e-005
-2.426735e-004,6.217131e-005
-2.590421e-004,5.504044e-005
-2.768693e-004,5.439218e-005
-2.921034e-004,5.617490e-005
-3.019894e-004,5.260946e-005
-3.096065e-004,4.499239e-005
-3.141443e-004,3.818564e-005
-3.117133e-004,3.705119e-005
-2.963171e-004,4.402000e-005
-2.608248e-004,5.649903e-005
-2.066950e-004,6.930219e-005
-1.412206e-004,7.967437e-005
-7.850138e-005,8.242948e-005
-2.745081e-005,7.740545e-005
1.808955e-005,6.768153e-005
7.108490e-005,6.022653e-005
1.312111e-004,5.423011e-005
1.905270e-004,4.807163e-005
2.402811e-004,4.612685e-005
2.757734e-004,4.871989e-005
2.955454e-004,5.179913e-005
3.004074e-004,5.406805e-005
2.876042e-004,5.455424e-005
2.571359e-004,5.147500e-005
2.229401e-004,4.596478e-005
1.974959e-004,4.207521e-005
1.816135e-004,4.628891e-005
1.723757e-004,5.666109e-005
1.600588e-004,6.460230e-005
1.469315e-004,6.703327e-005
1.376937e-004,6.411610e-005
1.325077e-004,5.730935e-005
1.274836e-004,5.131293e-005
1.156529e-004,5.406805e-005
9.604297e-005,7.076077e-005
7.173317e-005,9.798775e-005
4.483032e-005,1.287802e-004
2.052053e-005,1.564933e-004
5.864920e-007,1.743205e-004
-1.950961e-005,1.799928e-004
-4.527799e-005,1.699447e-004
-7.785312e-005,1.445005e-004
-1.109144e-004,1.109530e-004
-1.347380e-004,7.805372e-005
-1.441378e-004,5.406805e-005
-1.384655e-004,4.045456e-005
-1.196660e-004,2.748933e-005
-8.871149e-005,1.095867e-005
-5.694669e-005,-8.165034e-006
-3.814712e-005,-2.761287e-005
-3.652646e-005,-4.884343e-005
-4.495386e-005,-7.315322e-005
-5.338126e-005,-1.024870e-004
-5.808115e-005,-1.342519e-004
-5.694669e-005,-1.593720e-004
-5.176060e-005,-1.757406e-004
-4.787104e-005,-1.827094e-004
-5.127441e-005,-1.734716e-004
-6.472583e-005,-1.447861e-004
-8.401160e-005,-1.026491e-004
-1.032974e-004,-5.808115e-005
-1.144799e-004,-2.226472e-005
-1.136696e-004,-1.682422e-006
-1.023250e-004,4.313994e-006
-8.741497e-005,3.665733e-006
-7.153257e-005,1.072688e-006
-5.176060e-005,-2.238345e-007
-2.566809e-005,2.531276e-006
5.610517e-006,1.047248e-005
4.126489e-005,2.489629e-005
7.789165e-005,4.661304e-005
1.124116e-004,6.946425e-005
1.407730e-004,8.291567e-005
1.560071e-004,8.502253e-005
1.590864e-004,7.935023e-005
1.558451e-004,6.995045e-005
1.553589e-004,6.330577e-005
1.699447e-004,6.395403e-005
2.023578e-004,6.946425e-005
2.433604e-004,7.983643e-005
2.744769e-004,9.458438e-005
2.783665e-004,1.096565e-004
2.509774e-004,1.198666e-004
1.984682e-004,1.224596e-004
1.255388e-004,1.169494e-004
4.337174e-005,1.052807e-004
-1.967167e-005,9.085687e-005
-4.625038e-005,7.935023e-005
-3.668853e-005,7.529860e-005
-4.437533e-006,7.935023e-005
3.283749e-005,8.712937e-005
6.832980e-005,9.474644e-005
1.005808e-004,1.034980e-004
1.274836e-004,1.114392e-004
1.493625e-004,1.145184e-004
1.688103e-004,1.140322e-004
1.830720e-004,1.122495e-004
1.859892e-004,1.057669e-004
1.736723e-004,9.620503e-005
1.454729e-004,8.567078e-005
1.064151e-004,7.513654e-005
7.076077e-005,6.444023e-005
5.066468e-005,5.309565e-005
4.515445e-005,3.850977e-005
4.969228e-005,2.084466e-005
6.281957e-005,-2.238345e-007
8.048469e-005,-1.983374e-005
9.944633e-005,-3.733679e-005
1.219734e-004,-4.819516e-005
1.479039e-004,-4.770897e-005
1.783722e-004,-3.798505e-005
2.148369e-004,-2.177852e-005
2.537325e-004,2.623614e-007
2.882525e-004,2.214118e-005
3.117519e-004,3.899597e-005
3.158036e-004,5.487837e-005
3.013797e-004,7.157111e-005
2.701011e-004,8.729143e-005
2.290986e-004,1.005808e-004
1.893926e-004,1.088461e-004
1.607070e-004,1.124116e-004
1.445005e-004,1.133840e-004
1.329939e-004,1.145184e-004
1.151667e-004,1.145184e-004
8.875003e-005,1.116012e-004
6.103685e-005,1.046324e-004
3.737532e-005,9.928427e-005
2.019640e-005,1.022014e-004
1.063454e-005,1.137081e-004
9.175954e-006,1.269974e-004
1.160693e-005,1.339663e-004
1.906194e-005,1.281319e-004
3.364782e-005,1.090082e-004
5.487837e-005,8.405013e-005
7.027457e-005,6.541262e-005
6.703327e-005,5.471631e-005
4.061663e-005,5.050261e-005
-3.951337e-006,4.807163e-005
-4.900549e-005,4.693717e-005
-7.882551e-005,4.904402e-005
-8.255302e-005,5.471631e-005
-5.937767e-005,5.893001e-005
-2.323711e-005,5.406805e-005
6.582909e-006,4.029249e-005
1.565857e-005,2.214118e-005
2.693341e-006,3.827798e-006
-2.907146e-005,-9.461557e-006
-7.428768e-005,-1.286493e-005
-1.266348e-004,-8.002969e-006
-1.733096e-004,-1.520357e-006
-2.065330e-004,3.341602e-006
-2.248463e-004,8.203561e-006
-2.326255e-004,1.517237e-005
-2.282497e-004,2.262737e-005
-2.186879e-004,2.765140e-005
-2.190120e-004,2.975825e-005
-2.340841e-004,2.878586e-005
-2.519113e-004,2.992031e-005
-2.475355e-004,3.607880e-005
-2.029675e-004,4.239934e-005
-1.212866e-004,4.175108e-005
-1.983374e-005,3.316162e-005
8.064676e-005,2.230324e-005
1.671896e-004,1.533444e-005
2.376881e-004,1.744128e-005
3.015418e-004,2.781346e-005
3.632887e-004,4.499239e-005
4.261701e-004,6.346784e-005
4.919686e-004,8.194328e-005
5.543638e-004,9.588090e-005
5.977973e-004,1.015532e-004
6.086557e-004,9.896014e-005
5.872631e-004,8.729143e-005
5.444778e-004,7.400208e-005
4.913204e-004,6.476436e-005
4.256839e-004,6.038860e-005
3.402754e-004,5.990240e-005
2.292607e-004,5.666109e-005
9.458438e-005,4.434413e-005
-4.462973e-005,2.424803e-005
-1.652063e-004,8.527692e-006
-2.498044e-004,6.907039e-006
-2.917793e-004,1.744128e-005
-3.000446e-004,3.089270e-005
-2.932379e-004,3.899597e-005
-2.849726e-004,3.915804e-005
-2.903207e-004,3.494434e-005
-3.094444e-004,3.575467e-005
-3.355369e-004,4.596478e-005
-3.557951e-004,6.233338e-005
-3.549847e-004,8.259154e-005
-3.275957e-004,1.023635e-004
-2.783279e-004,1.141943e-004
-2.183637e-004,1.137081e-004
-1.549962e-004,1.026876e-004
-8.741497e-005,8.745350e-005
-1.432352e-005,7.659513e-005
5.682316e-005,7.384001e-005
1.172735e-004,7.546067e-005
1.709171e-004,7.448828e-005
2.245608e-004,6.687120e-005
2.819319e-004,5.795762e-005
3.324963e-004,5.098881e-005
3.581026e-004,4.628891e-005
3.485408e-004,4.288554e-005
3.007315e-004,3.591673e-005
2.232642e-004,2.603075e-005
1.378558e-004,2.084466e-005
6.606088e-005,2.489629e-005
1.841368e-005,3.672705e-005
-5.734055e-006,4.564065e-005
-2.064406e-005,4.337174e-005
-4.025397e-005,3.332369e-005
-6.748093e-005,2.246531e-005
-9.956987e-005,1.695509e-005
-1.327932e-004,1.533444e-005
-1.616409e-004,1.160693e-005
-1.806025e-004,5.934647e-006
-1.872472e-004,9.106226e-007
-1.823852e-004,-2.168618e-006
-1.665028e-004,-2.816880e-006
-1.455964e-004,-1.358292e-006
-1.229073e-004,9.106226e-007
-9.438377e-005,3.179537e-006
-5.678463e-005,5.772582e-006
-1.659243e-005,5.772582e-006
1.338965e-005,5.864920e-007
2.765140e-005,-5.571990e-006
3.494434e-005,-7.516774e-006
4.385793e-005,-5.571990e-006
6.006446e-005,5.448451e-006
7.821578e-005,2.084466e-005
9.101894e-005,3.429608e-005
1.009049e-004,4.239934e-005
1.080358e-004,5.017848e-005
1.122495e-004,6.444023e-005
1.104668e-004,8.437427e-005
9.993253e-005,1.017153e-004
7.740545e-005,1.109530e-004
4.304760e-005,1.112771e-004
2.207145e-006,1.039842e-004
-3.571614e-005,9.215340e-005
-5.970180e-005,7.821578e-005
-6.569822e-005,6.784360e-005
-5.289506e-005,6.508849e-005
-2.534396e-005,6.946425e-005
7.393235e-006,7.384001e-005
3.672705e-005,7.108490e-005
6.168512e-005,5.649903e-005
8.356393e-005,3.575467e-005
9.912220e-005,1.646889e-005
1.057669e-004,-5.479652e-007
1.015532e-004,-1.399939e-005
8.161915e-005,-2.226472e-005
4.758544e-005,-2.194059e-005
1.160693e-005,-1.513384e-005
-9.947754e-006,-8.651231e-006
-1.367526e-005,-5.085794e-006
1.234753e-006,-6.382316e-006
3.299956e-005,-8.165034e-006
7.043664e-005,-5.247859e-006
1.018773e-004,2.531276e-006
1.185700e-004,1.112074e-005
1.205148e-004,2.149292e-005
1.114392e-004,3.397195e-005
9.685329e-005,4.547859e-005
7.610893e-005,5.390598e-005
5.698522e-005,5.795762e-005
4.709924e-005,5.811968e-005
4.418206e-005,5.714729e-005
4.320967e-005,5.925414e-005
4.580272e-005,6.541262e-005
5.098881e-005,6.897806e-005
5.552663e-005,6.881599e-005
5.617490e-005,6.881599e-005
5.017848e-005,6.914012e-005
4.369587e-005,6.962632e-005
4.207521e-005,6.978838e-005
4.580272e-005,7.076077e-005
4.774750e-005,7.400208e-005
4.191315e-005,7.951231e-005
3.202716e-005,8.891209e-005
2.603075e-005,9.977046e-005
3.380988e-005,1.094944e-004
5.941620e-005,1.148425e-004
9.750155e-005,1.164632e-004
1.402868e-004,1.205148e-004
1.809652e-004,1.268354e-004
2.075439e-004,1.308870e-004
2.127300e-004,1.269974e-004
2.007372e-004,1.167873e-004
1.798307e-004,1.075496e-004
1.624898e-004,1.010670e-004
1.589243e-004,9.247753e-005
1.671896e-004,7.853991e-005
1.741585e-004,6.233338e-005
1.689724e-004,5.147500e-005
1.462832e-004,5.244739e-005
1.069013e-004,6.606088e-005
6.233338e-005,8.712937e-005
1.679302e-005,1.109530e-004
-4.722277e-005,1.276457e-004
-1.410586e-004,1.266733e-004
-2.483458e-004,1.088461e-004
-3.363473e-004,8.356393e-005
-3.713534e-004,5.860587e-005
-3.438023e-004,4.191315e-005
-2.728177e-004,3.737532e-005
-1.835197e-004,4.256141e-005
-9.811128e-005,4.888196e-005
-2.680255e-005,4.969228e-005
2.538249e-005,3.899597e-005
5.406805e-005,1.760335e-005
6.460230e-005,-7.678839e-006
6.006446e-005,-2.874733e-005
4.790957e-005,-4.333321e-005
3.769945e-005,-5.402952e-005
3.802358e-005,-5.872941e-005
4.547859e-005,-5.240886e-005
5.504044e-005,-3.733679e-005
6.687120e-005,-2.339917e-005
8.453633e-005,-1.805102e-005
1.078737e-004,-2.647842e-005
1.367214e-004,-4.657451e-005
1.723757e-004,-6.877746e-005
2.153230e-004,-8.352540e-005
2.611876e-004,-8.255302e-005
3.018659e-004,-6.488790e-005
3.331445e-004,-3.377135e-005
3.556717e-004,2.855406e-006
3.743092e-004,3.591673e-005
3.927846e-004,5.698522e-005
4.044533e-004,6.800567e-005
4.026706e-004,7.513654e-005
3.898674e-004,7.967437e-005
3.637749e-004,7.967437e-005
3.185587e-004,7.772959e-005
2.574600e-004,7.983643e-005
1.932822e-004,8.242948e-005
1.376937e-004,7.967437e-005
9.620503e-005,6.800567e-005
7.302969e-005,5.439218e-005
6.881599e-005,4.888196e-005
7.708132e-005,5.179913e-005
7.691926e-005,5.779555e-005
5.763348e-005,6.103685e-005
1.484824e-005,5.504044e-005
-4.738484e-005,4.661304e-005
-1.157764e-004,4.466826e-005
-1.736337e-004,4.985435e-005
-2.088019e-004,6.395403e-005
-2.198223e-004,8.388807e-005
-2.086398e-004,1.022014e-004
-1.831956e-004,1.114392e-004
-1.536997e-004,1.093323e-004
-1.327932e-004,1.000946e-004
-1.287416e-004,8.648111e-005
-1.391138e-004,7.400208e-005
-1.532135e-004,6.897806e-005
-1.562927e-004,6.946425e-005
-1.413827e-004,7.221937e-005
-1.139937e-004,7.286762e-005
-8.498399e-005,6.670914e-005
-5.856734e-005,5.034054e-005
-3.506787e-005,3.202716e-005
-1.302699e-005,2.408596e-005
8.365628e-006,3.008238e-005
3.089270e-005,4.207521e-005
5.098881e-005,5.423011e-005
6.930219e-005,6.362990e-005
9.280166e-005,6.460230e-005
1.316973e-004,5.536457e-005
1.877719e-004,4.061663e-005
2.488706e-004,2.278944e-005
2.995970e-004,7.231170e-006
3.229344e-004,-2.492749e-006
3.188828e-004,-7.678839e-006
2.968419e-004,-1.075808e-005
2.736665e-004,-1.529591e-005
2.576221e-004,-2.015787e-005
2.436845e-004,-1.837515e-005
2.290986e-004,-7.516774e-006
2.138645e-004,3.827798e-006
2.026820e-004,1.209313e-005
1.976579e-004,1.906194e-005
1.952270e-004,2.667901e-005
1.889064e-004,3.413401e-005
1.680000e-004,3.656499e-005
1.260251e-004,3.543053e-005
7.108490e-005,3.170303e-005
1.808955e-005,3.105477e-005
-2.566809e-005,3.413401e-005
-6.002593e-005,3.964423e-005
-9.098041e-005,4.499239e-005
-1.242038e-004,5.147500e-005
-1.525652e-004,5.909207e-005
-1.666649e-004,6.411610e-005
-1.669890e-004,6.330577e-005
-1.588858e-004,6.233338e-005
-1.392759e-004,6.606088e-005
-1.052422e-004,7.740545e-005
-6.423963e-005,9.474644e-005
-2.858526e-005,1.128978e-004
-4.599598e-006,1.255388e-004
8.689757e-006,1.268354e-004
1.176900e-005,1.184080e-004
1.002961e-007,1.031738e-004
-3.587821e-005,8.664317e-005
-9.341139e-005,7.465034e-005
-1.546721e-004,7.011251e-005
-2.029675e-004,7.481241e-005
-2.332737e-004,8.599491e-005
-2.538560e-004,9.766362e-005
-2.700626e-004,1.028497e-004
-2.843243e-004,1.000946e-004
-2.963171e-004,8.793970e-005
-3.023136e-004,6.962632e-005
-2.955068e-004,5.536457e-005
-2.677937e-004,5.196120e-005
-2.143121e-004,5.568870e-005
-1.368449e-004,6.411610e-005
-4.689864e-005,7.043664e-005
3.883391e-005,7.319175e-005
1.043083e-004,6.849186e-005
1.406109e-004,5.990240e-005
1.415833e-004,4.839576e-005
1.114392e-004,3.899597e-005
7.529860e-005,3.170303e-005
5.844381e-005,2.765140e-005
6.946425e-005,3.024445e-005
1.017153e-004,4.402000e-005
1.459591e-004,6.703327e-005
1.924718e-004,8.712937e-005
2.302331e-004,9.620503e-005
2.547049e-004,9.231547e-005
2.657254e-004,7.951231e-005
2.550291e-004,6.735740e-005
2.222919e-004,6.087479e-005
1.793446e-004,5.730935e-005
1.440143e-004,5.520250e-005
1.292664e-004,5.828174e-005
1.394765e-004,6.946425e-005
1.699447e-004,8.648111e-005
2.119197e-004,1.041462e-004
2.521119e-004,1.179218e-004
2.783665e-004,1.213252e-004
2.871180e-004,1.145184e-004
2.848491e-004,1.004187e-004
2.804733e-004,8.016056e-005
2.748010e-004,5.455424e-005
2.579462e-004,3.040651e-005
2.273159e-004,1.257933e-005
1.833962e-004,1.558884e-006
1.274836e-004,-1.358292e-006
6.687120e-005,6.907039e-006
1.306552e-005,2.311357e-005
-3.085418e-005,4.239934e-005
-6.667061e-005,6.249544e-005
-9.632856e-005,7.772959e-005
-1.170729e-004,8.469840e-005
-1.316588e-004,8.388807e-005
-1.464067e-004,7.481241e-005
-1.630995e-004,5.666109e-005
-1.734716e-004,3.413401e-005
-1.767129e-004,1.630683e-005
-1.807646e-004,7.879431e-006
-1.867610e-004,6.744974e-006
-1.840059e-004,7.393235e-006
-1.611547e-004,3.503668e-006
-1.157764e-004,-8.165034e-006
-6.018800e-005,-2.323711e-005
-5.085794e-006,-3.360929e-005
4.628891e-005,-3.004385e-005
8.923622e-005,-1.918548e-005
1.219734e-004,-1.480971e-005
1.457970e-004,-1.983374e-005
1.639483e-004,-2.518189e-005
1.733481e-004,-2.437157e-005
1.736723e-004,-1.869928e-005
1.764274e-004,-1.059601e-005
1.911753e-004,-1.034161e-006
2.086784e-004,1.079661e-005
2.128921e-004,2.376183e-005
1.910132e-004,3.299956e-005
1.443384e-004,3.413401e-005
8.891209e-005,2.116879e-005
3.543053e-005,-3.951337e-006
-2.664048e-005,-3.069211e-005
-1.206384e-004,-4.835723e-005
-2.532078e-004,-5.289506e-005
-4.021458e-004,-4.495386e-005
-5.262878e-004,-2.923352e-005
-5.859278e-004,-1.140634e-005
-5.651835e-004,4.962256e-006
-4.828543e-004,2.035846e-005
-3.760532e-004,3.737532e-005
-2.797865e-004,5.682316e-005
-2.130156e-004,7.481241e-005
-1.771991e-004,8.858796e-005
-1.595340e-004,9.426025e-005
-1.426792e-004,8.907416e-005
-1.135075e-004,7.627100e-005
-6.683268e-005,6.249544e-005
-3.627206e-006,5.277152e-005
6.914012e-005,5.374392e-005
1.427178e-004,6.168512e-005
2.039785e-004,8.340186e-005
2.433604e-004,1.146805e-004
2.584324e-004,1.446626e-004
2.532463e-004,1.624898e-004
2.384984e-004,1.714033e-004
2.265056e-004,1.759412e-004
2.263435e-004,1.767515e-004
2.360674e-004,1.689724e-004
2.545429e-004,1.483901e-004
2.877662e-004,1.190562e-004
3.376824e-004,8.777764e-005
3.953777e-004,6.768153e-005
4.452938e-004,5.990240e-005
4.767345e-004,5.601283e-005
4.837033e-004,5.260946e-005
4.629589e-004,5.325772e-005
4.156358e-004,6.606088e-005
3.404375e-004,9.166720e-005
2.449810e-004,1.201907e-004
1.470936e-004,1.401247e-004
6.444023e-005,1.498487e-004
1.047248e-005,1.467694e-004
-1.643037e-005,1.308870e-004
-2.890940e-005,1.091703e-004
-3.960571e-005,9.134307e-005
-5.305713e-005,8.113296e-005
-5.970180e-005,7.481241e-005
-5.532604e-005,6.606088e-005
-4.155049e-005,5.309565e-005
-2.096819e-005,3.526847e-005
-7.100305e-007,9.824214e-006
1.549650e-005,-1.999580e-005
2.554455e-005,-4.479180e-005
3.543053e-005,-6.213279e-005
4.904402e-005,-7.444974e-005
6.784360e-005,-8.660465e-005
9.118101e-005,-1.034594e-004
1.164632e-004,-1.282554e-004
1.449867e-004,-1.590478e-004
1.725378e-004,-1.875713e-004
1.892305e-004,-2.070192e-004
1.840444e-004,-2.062088e-004
1.542244e-004,-1.818990e-004
1.044704e-004,-1.399241e-004
4.790957e-005,-9.211487e-005
1.396819e-006,-5.451571e-005
-1.497178e-005,-3.587821e-005
7.231170e-006,-3.182657e-005
5.666109e-005,-3.279896e-005
1.114392e-004,-3.458168e-005
1.579519e-004,-3.296103e-005
1.903650e-004,-2.210265e-005
2.055991e-004,-9.461557e-006
2.093266e-004,1.720949e-006
2.124059e-004,1.274139e-005
2.229401e-004,2.473422e-005
2.407673e-004,4.402000e-005
2.561635e-004,6.897806e-005
2.572980e-004,9.685329e-005
2.357433e-004,1.208390e-004
1.947408e-004,1.354248e-004
1.441764e-004,1.394765e-004
9.134307e-005,1.417454e-004
4.045456e-005,1.467694e-004
-9.785687e-006,1.561692e-004
-5.743289e-005,1.678379e-004
-9.405964e-005,1.811273e-004
-1.161005e-004,1.903650e-004
-1.250141e-004,1.945787e-004
-1.259865e-004,1.963614e-004
-1.264727e-004,1.981441e-004
-1.331174e-004,1.983062e-004
-1.441378e-004,1.893926e-004
-1.528894e-004,1.714033e-004
-1.498101e-004,1.479039e-004
-1.314967e-004,1.253768e-004
-1.042698e-004,1.085220e-004
-7.266703e-005,1.017153e-004
-3.798505e-005,1.041462e-004
-5.896120e-006,1.056048e-004
1.371378e-005,9.831188e-005
1.468617e-005,8.242948e-005
-2.978945e-006,6.184718e-005
-3.085418e-005,3.883391e-005
-5.791909e-005,1.987226e-005
-7.088431e-005,7.717366e-006
-6.715681e-005,4.244267e-007
-4.738484e-005,-1.520357e-006
-2.145439e-005,4.313994e-006
-5.479652e-007,2.003433e-005
6.582909e-006,4.029249e-005
-8.813297e-006,5.682316e-005
-4.932962e-005,6.427816e-005
-1.071869e-004,6.573675e-005
-1.679614e-004,6.670914e-005
-2.141500e-004,7.011251e-005
-2.287359e-004,7.837785e-005
-2.044261e-004,9.247753e-005
-1.532135e-004,1.085220e-004
-9.130454e-005,1.234320e-004
-3.215070e-005,1.331559e-004
1.598270e-005,1.349386e-004
5.309565e-005,1.284560e-004
7.740545e-005,1.119254e-004
9.101894e-005,8.712937e-005
9.879807e-005,5.828174e-005
1.039842e-004,2.797553e-005
1.072255e-004,7.485573e-007
1.065772e-004,-1.950961e-005
1.033359e-004,-2.923352e-005
9.717742e-005,-2.971972e-005
8.810177e-005,-2.955766e-005
7.983643e-005,-3.328516e-005
7.367795e-005,-3.733679e-005
7.043664e-005,-3.620233e-005
6.962632e-005,-2.745081e-005
6.800567e-005,-1.335112e-005
6.330577e-005,2.855406e-006
5.568870e-005,1.744128e-005
5.196120e-005,2.684107e-005
5.828174e-005,2.829966e-005
7.238143e-005,2.489629e-005
8.777764e-005,1.744128e-005
9.652916e-005,9.175954e-006
9.166720e-005,7.717366e-006
7.140904e-005,1.873781e-005
4.158902e-005,4.320967e-005
1.306552e-005,7.027457e-005
-6.544382e-006,8.486046e-005
-1.497178e-005,8.388807e-005
-1.626830e-005,7.335382e-005
-1.659243e-005,6.119892e-005
-1.967167e-005,5.601283e-005
-2.534396e-005,5.909207e-005
-3.036798e-005,6.687120e-005
-3.393342e-005,7.043664e-005
-3.360929e-005,6.946425e-005
-2.339917e-005,6.832980e-005
-5.085794e-006,6.751947e-005
1.727922e-005,6.589881e-005
4.450619e-005,6.168512e-005
8.194328e-005,5.504044e-005
1.338042e-004,5.131293e-005
2.012234e-004,5.568870e-005
2.772320e-004,6.346784e-005
3.441650e-004,6.930219e-005
3.854917e-004,7.092283e-005
3.924605e-004,6.930219e-005
3.684748e-004,6.865393e-005
3.268240e-004,7.351588e-005
2.809595e-004,8.291567e-005
2.406053e-004,8.712937e-005
2.018716e-004,8.469840e-005
1.576278e-004,7.935023e-005
1.098185e-004,7.319175e-005
6.508849e-005,6.476436e-005
3.056858e-005,5.730935e-005
1.144487e-005,5.309565e-005
6.420843e-006,5.520250e-005
1.679302e-005,6.184718e-005
4.077869e-005,7.059870e-005
7.108490e-005,7.853991e-005
9.669123e-005,8.567078e-005
1.093323e-004,9.053274e-005
1.067393e-004,9.296372e-005
9.733949e-005,9.620503e-005
8.875003e-005,1.033359e-004
8.323980e-005,1.114392e-004
7.594687e-005,1.135460e-004
6.508849e-005,1.054428e-004
5.520250e-005,8.875003e-005
4.466826e-005,6.751947e-005
2.441009e-005,4.888196e-005
-1.367526e-005,3.656499e-005
-6.893953e-005,2.813760e-005
-1.295519e-004,2.003433e-005
-1.869231e-004,1.436204e-005
-2.384598e-004,1.841368e-005
-2.773555e-004,2.862379e-005
-2.972895e-004,4.126489e-005
-2.989102e-004,5.001641e-005
-2.827036e-004,5.082674e-005
-2.485079e-004,4.304760e-005
-2.005366e-004,3.089270e-005
-1.447861e-004,1.954813e-005
-8.417366e-005,1.322759e-005
-1.886135e-005,1.225519e-005
4.612685e-005,1.468617e-005
1.056048e-004,1.484824e-005
1.607070e-004,1.371378e-005
2.158092e-004,1.225519e-005
2.743148e-004,1.322759e-005
3.357376e-004,1.776542e-005
4.021844e-004,2.748933e-005
4.717104e-004,4.077869e-005
5.292437e-004,5.163707e-005
5.619809e-004,5.212327e-005
5.670049e-004,3.850977e-005
5.381573e-004,1.112074e-005
4.780310e-004,-2.031993e-005
3.944053e-004,-4.932962e-005
2.885766e-004,-6.667061e-005
1.628139e-004,-7.104637e-005
2.197911e-005,-6.780506e-005
-1.203142e-004,-6.116039e-005
-2.475355e-004,-5.289506e-005
-3.413713e-004,-4.446767e-005
-4.019837e-004,-3.798505e-005
-4.585445e-004,-3.215070e-005
-5.334187e-004,-3.247483e-005
-6.186650e-004,-4.074016e-005
-6.890013e-004,-5.143647e-005
-7.194696e-004,-5.548810e-005
-6.920805e-004,-4.803310e-005
-6.074825e-004,-3.344722e-005
-4.839887e-004,-1.464765e-005
-3.457470e-004,5.772582e-006
-2.083157e-004,2.716520e-005
-8.384953e-005,5.244739e-005
1.679302e-005,7.691926e-005
9.377405e-005,9.750155e-005
1.534141e-004,1.098185e-004
2.005751e-004,1.116012e-004
2.359053e-004,1.081979e-004
2.600531e-004,1.023635e-004
2.713976e-004,9.750155e-005
2.748010e-004,9.263960e-005
2.859835e-004,8.388807e-005
3.174242e-004,7.157111e-005
3.705817e-004,6.136099e-005
4.253598e-004,5.325772e-005
4.623107e-004,4.515445e-005
4.728449e-004,4.483032e-005
4.568004e-004,5.455424e-005
4.193634e-004,6.687120e-005
3.663680e-004,7.076077e-005
3.034866e-004,6.589881e-005
2.375260e-004,5.666109e-005
1.756170e-004,4.953022e-005
1.242423e-004,5.228533e-005
8.518459e-005,6.136099e-005
5.617490e-005,7.059870e-005
3.186510e-005,7.238143e-005
1.355172e-005,6.849186e-005
4.800190e-006,6.541262e-005
3.503668e-006,6.379197e-005
6.096713e-006,5.974033e-005
4.151929e-006,5.633696e-005
-8.489165e-006,5.974033e-005
-3.085418e-005,6.946425e-005
-5.824321e-005,8.032263e-005
-7.833932e-005,8.842590e-005
-8.239095e-005,9.069480e-005
-6.699474e-005,8.712937e-005
-3.928157e-005,8.502253e-005
-9.137427e-006,9.280166e-005
1.533444e-005,1.088461e-004
2.992031e-005,1.265113e-004
3.137890e-005,1.414213e-004
2.441009e-005,1.483901e-004
1.857574e-005,1.446626e-004
1.452411e-005,1.299146e-004
4.962256e-006,1.060910e-004
-1.254080e-005,8.032263e-005
-3.976777e-005,6.411610e-005
-7.266703e-005,5.666109e-005
-9.875954e-005,5.196120e-005
-1.089697e-004,4.871989e-005
-1.029732e-004,4.596478e-005
-8.968388e-005,4.256141e-005
-7.331529e-005,3.948217e-005
-5.905355e-005,3.802358e-005
-4.657451e-005,3.899597e-005
-3.036798e-005,4.531652e-005
-9.623623e-006,5.471631e-005
1.290346e-005,6.395403e-005
2.878586e-005,7.335382e-005
3.040651e-005,8.080882e-005
1.922400e-005,8.194328e-005
4.313994e-006,7.789165e-005
-8.489165e-006,7.027457e-005
-2.210265e-005,5.893001e-005
-4.138842e-005,4.304760e-005
-6.699474e-005,2.359977e-005
-9.357345e-005,3.179537e-006
-1.125351e-004,-1.367526e-005
-1.198280e-004,-2.696461e-005
-1.178833e-004,-3.328516e-005
-1.096179e-004,-3.409548e-005
-9.730095e-005,-2.372330e-005
-8.611845e-005,9.106226e-007
-7.801519e-005,3.526847e-005
-6.861539e-005,6.525056e-005
-4.819516e-005,8.469840e-005
-1.497178e-005,9.296372e-005
2.570661e-005,9.004655e-005
6.930219e-005,7.951231e-005
1.156529e-004,6.541262e-005
1.624898e-004,5.374392e-005
2.062474e-004,4.839576e-005
2.388225e-004,4.320967e-005
2.579462e-004,3.283749e-005
2.649151e-004,2.246531e-005
2.671840e-004,2.100672e-005
2.697770e-004,2.975825e-005
2.720459e-004,4.158902e-005
2.728562e-004,5.260946e-005
2.704253e-004,6.087479e-005
2.607013e-004,6.573675e-005
2.410914e-004,6.638501e-005
2.124059e-004,6.541262e-005
1.806411e-004,6.606088e-005
1.548727e-004,6.849186e-005
1.412592e-004,7.432621e-005
1.331559e-004,8.161915e-005
1.234320e-004,8.534666e-005
1.057669e-004,8.372600e-005
8.048469e-005,7.675719e-005
5.585077e-005,6.379197e-005
4.013043e-005,4.855782e-005
4.045456e-005,3.478227e-005
5.730935e-005,2.700314e-005
8.405013e-005,2.489629e-005
1.083599e-004,2.538249e-005
1.229458e-004,2.586868e-005
1.239182e-004,2.343770e-005
1.116012e-004,1.760335e-005
8.939829e-005,9.338019e-006
6.022653e-005,-3.858999e-007
2.748933e-005,-1.156841e-005
-2.330684e-006,-2.566809e-005
-1.675450e-005,-4.041603e-005
-8.165034e-006,-4.884343e-005
1.938607e-005,-5.013995e-005
5.828174e-005,-4.171255e-005
1.038221e-004,-2.566809e-005
1.501728e-004,-2.654814e-006
1.855030e-004,2.278944e-005
1.973338e-004,3.850977e-005
1.845306e-004,4.013043e-005
1.524417e-004,3.494434e-005
1.171115e-004,2.765140e-005
8.923622e-005,1.922400e-005
7.610893e-005,1.160693e-005
7.221937e-005,6.258778e-006
6.962632e-005,5.124321e-006
5.990240e-005,9.175954e-006
4.175108e-005,1.695509e-005
1.403791e-005,2.700314e-005
-1.869928e-005,3.607880e-005
-5.419158e-005,3.996836e-005
-9.211487e-005,4.110282e-005
-1.339277e-004,4.483032e-005
-1.773612e-004,5.471631e-005
-2.196603e-004,6.751947e-005
-2.596904e-004,7.789165e-005
-2.987481e-004,7.983643e-005
-3.373197e-004,7.513654e-005
-3.702189e-004,6.703327e-005
-3.830221e-004,6.379197e-005
-3.569296e-004,6.411610e-005
-2.880518e-004,6.444023e-005
-1.934057e-004,5.974033e-005
-9.292519e-005,4.969228e-005
-5.734055e-006,3.478227e-005
5.795762e-005,1.938607e-005
1.056048e-004,9.662150e-006
1.511452e-004,8.527692e-006
1.989545e-004,1.419998e-005
2.451431e-004,1.922400e-005
2.816078e-004,2.133085e-005
3.012177e-004,2.376183e-005
3.005694e-004,3.299956e-005
2.877662e-004,4.726130e-005
2.725321e-004,5.990240e-005
2.598910e-004,6.362990e-005
2.516257e-004,5.893001e-005
2.474120e-004,5.374392e-005
2.419018e-004,5.536457e-005
2.289365e-004,6.476436e-005
1.999268e-004,7.384001e-005
1.564933e-004,7.740545e-005
1.137081e-004,7.286762e-005
8.421220e-005,6.298164e-005
7.238143e-005,5.406805e-005
6.638501e-005,5.001641e-005
5.309565e-005,4.920609e-005
2.522042e-005,4.726130e-005
-1.302699e-005,4.693717e-005
-5.321919e-005,4.499239e-005
-8.790116e-005,4.045456e-005
-1.131834e-004,4.142695e-005
-1.195039e-004,5.066468e-005
-1.039456e-004,6.622294e-005
-7.590833e-005,8.275361e-005
-4.495386e-005,9.701536e-005
-1.853721e-005,1.093323e-004
9.106226e-007,1.258630e-004
1.565857e-005,1.443384e-004
2.570661e-005,1.576278e-004
3.040651e-005,1.618415e-004
2.878586e-005,1.558451e-004
2.035846e-005,1.449867e-004
1.517237e-005,1.331559e-004
2.359977e-005,1.221355e-004
4.953022e-005,1.146805e-004
8.972242e-005,1.094944e-004
1.381799e-004,9.993253e-005
1.829100e-004,8.631904e-005
2.060853e-004,7.951231e-005
1.926339e-004,8.696730e-005
1.359110e-004,1.057669e-004
4.709924e-005,1.269974e-004
-5.646050e-005,1.428798e-004
-1.645580e-004,1.485521e-004
-2.776796e-004,1.433660e-004
-3.841565e-004,1.307249e-004
-4.596789e-004,1.150046e-004
-4.810716e-004,9.960840e-005
-4.442827e-004,8.567078e-005
-3.638984e-004,7.043664e-005
-2.616351e-004,5.260946e-005
-1.585616e-004,3.624086e-005
-6.829127e-005,2.684107e-005
-8.720958e-007,2.473422e-005
4.677511e-005,2.522042e-005
8.275361e-005,1.922400e-005
1.135460e-004,4.313994e-006
1.475797e-004,-1.399939e-005
1.924718e-004,-3.215070e-005
2.513016e-004,-4.657451e-005
3.177483e-004,-5.581224e-005
3.871123e-004,-5.824321e-005
4.564763e-004,-5.143647e-005
5.251920e-004,-3.766092e-005
5.900182e-004,-2.161646e-005
6.473893e-004,-1.010982e-005
6.859609e-004,-7.192643e-006
6.929297e-004,-1.010982e-005
6.569512e-004,-1.399939e-005
5.780254e-004,-1.432352e-005
4.660382e-004,-1.335112e-005
3.337928e-004,-1.092015e-005
1.994406e-004,-7.516774e-006
8.307774e-005,-3.951337e-006
-3.627206e-006,1.883015e-006
-5.548810e-005,9.986280e-006
-7.282909e-005,1.906194e-005
-6.537409e-005,2.570661e-005
-4.981582e-005,3.218923e-005
-4.349527e-005,3.980630e-005
-5.030201e-005,4.888196e-005
-6.715681e-005,5.666109e-005
-8.320127e-005,6.719534e-005
-9.065627e-005,8.178122e-005
-8.822530e-005,9.523264e-005
-7.914964e-005,1.004187e-004
-7.363942e-005,9.474644e-005
-8.206682e-005,8.502253e-005
-1.067007e-004,7.675719e-005
-1.366828e-004,7.124698e-005
-1.608306e-004,7.027457e-005
-1.655304e-004,7.286762e-005
-1.413827e-004,8.291567e-005
-8.158062e-005,1.017153e-004
1.031041e-005,1.247285e-004
1.163011e-004,1.423936e-004
2.096508e-004,1.472556e-004
2.637806e-004,1.372075e-004
2.629703e-004,1.156529e-004
2.067336e-004,8.907416e-005
1.104668e-004,6.314371e-005
-2.006553e-006,4.013043e-005
-1.063766e-004,2.311357e-005
-1.836818e-004,9.824214e-006
-2.250084e-004,-3.465141e-006
-2.324634e-004,-1.707863e-005
-2.147983e-004,-2.615428e-005
-1.849783e-004,-3.069211e-005
-1.489998e-004,-3.053005e-005
-1.161005e-004,-2.890940e-005
-9.811128e-005,-3.101624e-005
-9.713889e-005,-4.025397e-005
-1.068628e-004,-5.224680e-005
-1.156143e-004,-5.986387e-005
-1.138316e-004,-6.099833e-005
-9.973194e-005,-4.981582e-005
-7.833932e-005,-2.615428e-005
-5.743289e-005,-8.720958e-007
-4.155049e-005,1.711715e-005
-3.150244e-005,2.700314e-005
-2.096819e-005,3.105477e-005
-9.785687e-006,3.218923e-005
-2.978945e-006,3.445814e-005
-3.858999e-007,3.980630e-005
-1.196226e-006,4.774750e-005
-6.868512e-006,5.179913e-005
-1.869928e-005,4.434413e-005
-3.263690e-005,2.684107e-005
-4.349527e-005,9.175954e-006
-4.932962e-005,-4.113402e-006
-5.127441e-005,-1.545797e-005
-5.062615e-005,-2.550602e-005
-4.916756e-005,-3.020592e-005
-4.641245e-005,-2.534396e-005
-3.863331e-005,-1.529591e-005
-2.745081e-005,-5.085794e-006
-1.837515e-005,1.720949e-006
-1.254080e-005,3.665733e-006
-1.497178e-005,7.231170e-006
-3.069211e-005,1.695509e-005
-5.759496e-005,3.429608e-005
-8.563225e-005,5.876794e-005
-9.940780e-005,8.567078e-005
-9.632856e-005,1.117633e-004
-8.530812e-005,1.299146e-004
-7.542214e-005,1.389903e-004
-6.991192e-005,1.398006e-004
-6.504996e-005,1.355869e-004
-5.419158e-005,1.289422e-004
-3.506787e-005,1.193804e-004
-8.651231e-006,1.030118e-004
2.116879e-005,8.356393e-005
4.985435e-005,6.768153e-005
7.643306e-005,6.103685e-005
1.013911e-004,6.557468e-005
1.292664e-004,7.805372e-005
1.615174e-004,9.069480e-005
1.923098e-004,9.847395e-005
2.209953e-004,1.025256e-004
2.488706e-004,1.025256e-004
2.760976e-004,1.002567e-004
2.958695e-004,1.022014e-004
3.012177e-004,1.106288e-004
2.889007e-004,1.208390e-004
2.631323e-004,1.278078e-004
2.334744e-004,1.305629e-004
2.075439e-004,1.263492e-004
1.882581e-004,1.156529e-004
1.749688e-004,9.717742e-005
1.655690e-004,7.221937e-005
1.571416e-004,4.823369e-005
1.440143e-004,3.299956e-005
1.257009e-004,3.267542e-005
1.028497e-004,4.596478e-005
8.161915e-005,6.589881e-005
7.643306e-005,8.210535e-005
9.669123e-005,9.069480e-005
1.389903e-004,9.150514e-005
1.921477e-004,9.118101e-005
2.477361e-004,9.280166e-005
2.937627e-004,9.037068e-005
3.227724e-004,8.599491e-005
3.347652e-004,8.210535e-005
3.360618e-004,8.340186e-005
3.247172e-004,8.858796e-005
2.995970e-004,9.782569e-005
2.624841e-004,1.091703e-004
2.169437e-004,1.190562e-004
1.691344e-004,1.231079e-004
1.299146e-004,1.213252e-004
1.005808e-004,1.163011e-004
7.205730e-005,1.107909e-004
3.948217e-005,1.044704e-004
4.800190e-006,9.539470e-005
-2.194059e-005,8.275361e-005
-3.279896e-005,6.427816e-005
-2.761287e-005,4.304760e-005
-1.302699e-005,2.813760e-005
6.096713e-006,2.457216e-005
2.910999e-005,3.073064e-005
5.277152e-005,3.802358e-005
7.319175e-005,4.094075e-005
8.583285e-005,4.191315e-005
8.259154e-005,4.628891e-005
5.811968e-005,5.228533e-005
1.646889e-005,5.406805e-005
-2.647842e-005,5.098881e-005
-5.775702e-005,4.564065e-005
-7.104637e-005,4.094075e-005
-7.250496e-005,3.948217e-005
-6.991192e-005,3.964423e-005
-7.363942e-005,3.721326e-005
-9.584237e-005,2.959618e-005
-1.391138e-004,2.100672e-005
-1.917850e-004,1.711715e-005
-2.318151e-004,2.165498e-005
-2.468872e-004,3.332369e-005
-2.459148e-004,5.066468e-005
-2.464010e-004,7.011251e-005
-2.579077e-004,8.275361e-005
-2.757348e-004,8.178122e-005
-2.869173e-004,6.735740e-005
-2.784900e-004,4.029249e-005
-2.408908e-004,1.079661e-005
-1.716889e-004,-1.124428e-005
-7.850138e-005,-2.518189e-005
2.230324e-005,-3.166451e-005
1.197045e-004,-3.166451e-005
2.054371e-004,-2.939559e-005
2.767458e-004,-2.939559e-005
3.313618e-004,-3.101624e-005
3.676645e-004,-3.263690e-005
3.897054e-004,-3.312309e-005
4.034809e-004,-2.826113e-005
4.133669e-004,-1.837515e-005
4.136910e-004,-6.544382e-006
4.005638e-004,-2.238345e-007
3.786849e-004,-6.176923e-008
3.546993e-004,-8.975361e-006
3.208276e-004,-2.890940e-005
2.757734e-004,-5.775702e-005
2.151610e-004,-8.482193e-005
1.344524e-004,-1.011905e-004
4.191315e-005,-1.062145e-004
