-3.342404e-004,1.468617e-005
-2.368392e-004,2.473422e-005
-1.511066e-004,3.867184e-005
-8.222889e-005,5.325772e-005
-2.809907e-005,6.265751e-005
1.209313e-005,6.508849e-005
4.402000e-005,6.233338e-005
7.497447e-005,5.585077e-005
1.075496e-004,4.661304e-005
1.414213e-004,3.575467e-005
1.725378e-004,2.505835e-005
1.965235e-004,1.776542e-005
2.153230e-004,1.436204e-005
2.352571e-004,1.695509e-005
2.576221e-004,2.230324e-005
2.765838e-004,2.489629e-005
2.845250e-004,2.311357e-005
2.863077e-004,1.873781e-005
2.893869e-004,1.436204e-005
2.987867e-004,1.209313e-005
3.102933e-004,1.225519e-005
3.122381e-004,1.403791e-005
2.929523e-004,1.971020e-005
2.517877e-004,3.299956e-005
2.008992e-004,4.774750e-005
1.722137e-004,6.055066e-005
1.876099e-004,7.043664e-005
2.402811e-004,8.129502e-005
2.986246e-004,9.977046e-005
3.208276e-004,1.287802e-004
2.796630e-004,1.628139e-004
1.788584e-004,1.906891e-004
4.628891e-005,2.005751e-004
-7.769105e-005,1.876099e-004
-1.630995e-004,1.558451e-004
-2.024813e-004,1.150046e-004
-2.097743e-004,7.497447e-005
-2.089639e-004,4.304760e-005
-2.131776e-004,2.327564e-005
-2.241981e-004,1.014835e-005
-2.292221e-004,-4.113402e-006
-2.135018e-004,-1.853721e-005
-1.754164e-004,-3.036798e-005
-1.282554e-004,-3.733679e-005
-8.887356e-005,-4.025397e-005
-6.602235e-005,-4.219875e-005
-5.305713e-005,-4.236081e-005
-3.814712e-005,-3.830918e-005
-1.124428e-005,-2.955766e-005
2.214118e-005,-1.805102e-005
4.434413e-005,-7.030578e-006
4.158902e-005,3.989864e-006
1.371378e-005,1.582063e-005
-2.550602e-005,2.700314e-005
-6.035006e-005,3.526847e-005
-8.498399e-005,4.110282e-005
-9.892161e-005,4.450619e-005
-9.713889e-005,4.369587e-005
-6.748093e-005,3.705119e-005
-1.075808e-005,2.197911e-005
5.212327e-005,-4.599598e-006
9.588090e-005,-3.620233e-005
1.083599e-004,-6.294311e-005
9.312579e-005,-7.526008e-005
6.687120e-005,-7.137050e-005
4.515445e-005,-4.997788e-005
3.705119e-005,-1.691656e-005
4.871989e-005,8.851824e-006
8.194328e-005,1.290346e-005
1.260251e-004,-2.492749e-006
1.733481e-004,-2.307504e-005
2.196988e-004,-4.041603e-005
2.615117e-004,-4.981582e-005
3.008935e-004,-4.949169e-005
3.397892e-004,-3.312309e-005
3.717161e-004,2.369210e-006
3.835469e-004,5.001641e-005
3.649094e-004,9.393611e-005
3.200173e-004,1.239182e-004
2.632944e-004,1.373696e-004
2.148369e-004,1.346145e-004
1.874478e-004,1.132219e-004
1.822617e-004,7.659513e-005
1.932822e-004,3.510640e-005
2.064095e-004,-3.141010e-006
2.093266e-004,-2.680255e-005
1.973338e-004,-2.453363e-005
1.715654e-004,1.063454e-005
1.372075e-004,6.751947e-005
9.539470e-005,1.245665e-004
4.953022e-005,1.686482e-004
5.286386e-006,1.997648e-004
-2.923352e-005,2.200230e-004
-6.294311e-005,2.316917e-004
-1.109144e-004,2.349330e-004
-1.710407e-004,2.308813e-004
-2.237119e-004,2.245608e-004
-2.532078e-004,2.164575e-004
-2.517492e-004,2.031682e-004
-2.290600e-004,1.843686e-004
-2.003745e-004,1.595726e-004
-1.778474e-004,1.295905e-004
-1.716889e-004,9.490851e-005
-1.828714e-004,5.909207e-005
-2.130156e-004,2.635488e-005
-2.593662e-004,2.623614e-007
-3.230579e-004,-1.707863e-005
-3.992286e-004,-2.761287e-005
-4.729683e-004,-2.923352e-005
-5.198051e-004,-2.356124e-005
-5.159156e-004,-1.173047e-005
-4.410414e-004,6.096713e-006
-2.924276e-004,2.441009e-005
-8.206682e-005,3.656499e-005
1.702689e-004,3.948217e-005
4.329768e-004,3.089270e-005
6.687820e-004,1.241726e-005
8.540228e-004,-1.432352e-005
9.859441e-004,-4.041603e-005
1.069894e-003,-5.305713e-005
1.114786e-003,-4.544005e-005
1.124348e-003,-2.356124e-005
1.087559e-003,-6.868512e-006
9.783270e-004,-6.706447e-006
7.804451e-004,-1.983374e-005
5.104441e-004,-3.555407e-005
2.169437e-004,-4.949169e-005
-4.268495e-005,-5.727082e-005
-2.347323e-004,-5.808115e-005
-3.596847e-004,-5.419158e-005
-4.348829e-004,-4.835723e-005
-4.721580e-004,-4.479180e-005
-4.650271e-004,-4.446767e-005
-4.083042e-004,-4.916756e-005
-3.194925e-004,-6.245691e-005
-2.271153e-004,-8.563225e-005
-1.600202e-004,-1.102662e-004
-1.366828e-004,-1.212866e-004
-1.556445e-004,-1.054042e-004
-1.951884e-004,-5.986387e-005
-2.415391e-004,-8.720958e-007
-2.916172e-004,4.418206e-005
-3.444505e-004,5.909207e-005
-3.916115e-004,4.337174e-005
-4.178661e-004,1.484824e-005
-4.112214e-004,-7.354708e-006
-3.679500e-004,-1.237873e-005
-2.984240e-004,-5.479652e-007
-2.169051e-004,1.484824e-005
-1.269589e-004,2.197911e-005
-2.858526e-005,2.149292e-005
7.238143e-005,1.841368e-005
1.620035e-004,1.711715e-005
2.203471e-004,2.246531e-005
2.261814e-004,3.235129e-005
1.694586e-004,4.029249e-005
6.265751e-005,3.834771e-005
-5.435365e-005,2.149292e-005
-1.292278e-004,-3.141010e-006
-1.360346e-004,-2.339917e-005
-7.461181e-005,-3.393342e-005
4.320967e-005,-3.604027e-005
2.094887e-004,-3.571614e-005
4.136910e-004,-3.717472e-005
6.331276e-004,-3.377135e-005
8.289026e-004,-2.388537e-005
9.582309e-004,-1.092015e-005
9.870785e-004,3.179537e-006
9.100975e-004,2.278944e-005
7.580800e-004,5.131293e-005
5.738116e-004,8.648111e-005
3.953777e-004,1.201907e-004
2.462775e-004,1.453108e-004
1.336421e-004,1.598967e-004
5.455424e-005,1.631380e-004
6.582909e-006,1.592484e-004
-1.254080e-005,1.539003e-004
-1.059601e-005,1.516314e-004
4.151929e-006,1.540623e-004
2.230324e-005,1.602208e-004
2.992031e-005,1.680000e-004
1.517237e-005,1.701068e-004
-3.393342e-005,1.655690e-004
-1.259865e-004,1.537382e-004
-2.570973e-004,1.321835e-004
-4.078180e-004,1.070634e-004
-5.364979e-004,9.182927e-005
-6.053756e-004,9.215340e-005
-5.912759e-004,1.026876e-004
-4.972781e-004,1.167873e-004
-3.561192e-004,1.325077e-004
-2.128535e-004,1.519555e-004
-1.003802e-004,1.720516e-004
-3.733679e-005,1.840444e-004
-2.907146e-005,1.804790e-004
-6.197072e-005,1.626518e-004
-1.068628e-004,1.441764e-004
-1.332795e-004,1.321835e-004
-1.196660e-004,1.297525e-004
-5.678463e-005,1.266733e-004
4.450619e-005,1.132219e-004
1.590864e-004,8.712937e-005
2.582704e-004,5.585077e-005
3.229344e-004,2.927205e-005
3.375203e-004,1.679302e-005
2.895490e-004,1.646889e-005
1.895547e-004,2.230324e-005
6.330577e-005,2.992031e-005
-5.970180e-005,3.283749e-005
-1.489998e-004,2.570661e-005
-1.833576e-004,4.800190e-006
-1.562927e-004,-2.485776e-005
-8.303921e-005,-5.743289e-005
9.824214e-006,-8.903562e-005
9.393611e-005,-1.193418e-004
1.445005e-004,-1.486757e-004
1.461212e-004,-1.724992e-004
9.717742e-005,-1.880575e-004
2.855406e-006,-1.966470e-004
-1.337657e-004,-1.972952e-004
-2.998826e-004,-1.906506e-004
-4.651892e-004,-1.797922e-004
-5.982447e-004,-1.681235e-004
-6.766843e-004,-1.553203e-004
-6.893254e-004,-1.363587e-004
-6.454058e-004,-1.073490e-004
-5.695592e-004,-6.942573e-005
-4.800992e-004,-2.988179e-005
-3.867496e-004,2.207145e-006
-2.989102e-004,1.841368e-005
-2.297083e-004,1.808955e-005
-2.016710e-004,9.662150e-006
-2.392702e-004,4.800190e-006
-3.567675e-004,5.124321e-006
-5.434667e-004,9.338019e-006
-7.586894e-004,1.792748e-005
-9.494402e-004,3.089270e-005
-1.061589e-003,4.645098e-005
-1.052028e-003,7.189524e-005
-9.029275e-004,1.151667e-004
-6.304957e-004,1.767515e-004
-2.833519e-004,2.469258e-004
7.384001e-005,3.136967e-004
3.840331e-004,3.589129e-004
6.144901e-004,3.696093e-004
7.579180e-004,3.375203e-004
8.259855e-004,2.718839e-004
8.368439e-004,1.945787e-004
8.156133e-004,1.292664e-004
7.875760e-004,9.409818e-005
7.640765e-004,9.101894e-005
7.407391e-004,1.083599e-004
7.143224e-004,1.294284e-004
6.822334e-004,1.399627e-004
6.449584e-004,1.368834e-004
6.067109e-004,1.258630e-004
5.723531e-004,1.169494e-004
5.435054e-004,1.184080e-004
5.157922e-004,1.313732e-004
4.824068e-004,1.490383e-004
4.436731e-004,1.671896e-004
4.054257e-004,1.885823e-004
3.736609e-004,2.072198e-004
3.475684e-004,2.124059e-004
3.247172e-004,1.929580e-004
3.026763e-004,1.474177e-004
2.820940e-004,9.085687e-005
2.710735e-004,4.726130e-005
2.738286e-004,3.056858e-005
2.895490e-004,3.672705e-005
3.042969e-004,4.742337e-005
3.072141e-004,4.466826e-005
2.932765e-004,2.214118e-005
2.649151e-004,-1.562004e-005
2.303951e-004,-5.451571e-005
1.950649e-004,-8.109442e-005
1.610312e-004,-9.227693e-005
1.302387e-004,-9.276313e-005
9.944633e-005,-8.887356e-005
6.816773e-005,-8.692878e-005
3.688912e-005,-8.725291e-005
8.527692e-006,-9.195280e-005
-1.594417e-005,-9.940780e-005
-3.928157e-005,-1.089697e-004
-6.537409e-005,-1.178833e-004
-9.875954e-005,-1.266348e-004
-1.374931e-004,-1.310105e-004
-1.767129e-004,-1.306864e-004
-2.109087e-004,-1.311726e-004
-2.276015e-004,-1.378173e-004
-2.198223e-004,-1.467309e-004
-1.874093e-004,-1.520790e-004
-1.413827e-004,-1.509446e-004
-9.875954e-005,-1.465688e-004
-6.521203e-005,-1.446240e-004
-3.360929e-005,-1.468929e-004
3.179537e-006,-1.498101e-004
3.964423e-005,-1.502963e-004
6.362990e-005,-1.514308e-004
7.659513e-005,-1.527273e-004
8.486046e-005,-1.541859e-004
9.393611e-005,-1.551583e-004
1.098185e-004,-1.485136e-004
1.333180e-004,-1.261486e-004
1.561692e-004,-8.692878e-005
1.733481e-004,-3.587821e-005
1.757791e-004,1.825161e-005
1.568175e-004,6.492643e-005
1.154908e-004,9.328785e-005
5.974033e-005,9.669123e-005
-3.858999e-007,8.097089e-005
-5.095028e-005,6.087479e-005
-7.720485e-005,4.466826e-005
-7.315322e-005,3.526847e-005
-4.738484e-005,3.267542e-005
-9.461557e-006,3.218923e-005
3.283749e-005,3.607880e-005
8.113296e-005,4.726130e-005
1.391524e-004,6.816773e-005
2.075439e-004,9.652916e-005
2.772320e-004,1.300767e-004
3.310377e-004,1.600588e-004
3.535648e-004,1.798307e-004
3.378445e-004,1.872858e-004
2.918179e-004,1.856651e-004
2.344468e-004,1.806411e-004
1.936063e-004,1.795066e-004
1.793446e-004,1.853410e-004
1.835582e-004,2.004130e-004
1.968476e-004,2.218057e-004
2.109473e-004,2.407673e-004
2.218057e-004,2.545429e-004
2.281262e-004,2.652392e-004
2.243987e-004,2.696149e-004
2.086784e-004,2.629703e-004
1.843686e-004,2.438465e-004
1.563313e-004,2.172678e-004
1.299146e-004,1.877719e-004
1.069013e-004,1.594105e-004
8.599491e-005,1.323456e-004
6.136099e-005,1.057669e-004
3.202716e-005,7.951231e-005
4.244267e-007,5.552663e-005
-3.766092e-005,3.559260e-005
-8.401160e-005,1.971020e-005
-1.306864e-004,8.203561e-006
-1.687718e-004,3.827798e-006
-1.955125e-004,8.527692e-006
-2.178775e-004,2.246531e-005
-2.476975e-004,4.126489e-005
-2.908069e-004,5.341978e-005
-3.421816e-004,4.888196e-005
-4.037664e-004,2.262737e-005
-4.922540e-004,-1.886135e-005
-6.220684e-004,-6.780506e-005
-7.789475e-004,-1.099420e-004
-9.304786e-004,-1.323070e-004
-1.039386e-003,-1.310105e-004
-1.074717e-003,-1.159385e-004
-1.024314e-003,-9.827335e-005
-8.995241e-004,-8.368747e-005
-7.235212e-004,-6.991192e-005
-5.223982e-004,-5.435365e-005
-3.212752e-004,-3.668853e-005
-1.447861e-004,-1.934754e-005
-4.113402e-006,-2.978945e-006
1.065772e-004,1.468617e-005
1.906891e-004,3.964423e-005
2.449810e-004,6.687120e-005
2.594048e-004,8.972242e-005
2.276400e-004,9.831188e-005
1.561692e-004,8.988448e-005
5.585077e-005,7.043664e-005
-5.565017e-005,4.904402e-005
-1.545100e-004,2.943412e-005
-2.162569e-004,1.646889e-005
-2.165810e-004,1.468617e-005
-1.407345e-004,2.797553e-005
7.717366e-006,5.390598e-005
2.049509e-004,8.242948e-005
4.125566e-004,1.051186e-004
5.880735e-004,1.137081e-004
6.861230e-004,1.043083e-004
6.679717e-004,7.886404e-005
5.302160e-004,4.564065e-005
3.156415e-004,1.484824e-005
8.745350e-005,-1.043395e-005
-8.822530e-005,-2.615428e-005
-1.697441e-004,-3.036798e-005
-1.566169e-004,-2.550602e-005
-7.898758e-005,-1.853721e-005
2.635488e-005,-1.562004e-005
1.297525e-004,-1.529591e-005
2.133783e-004,-1.497178e-005
2.726942e-004,-1.675450e-005
3.026763e-004,-1.902341e-005
3.031625e-004,-1.675450e-005
2.809595e-004,-1.108221e-005
2.454672e-004,-7.840905e-006
2.120818e-004,-6.058186e-006
1.936063e-004,1.234753e-006
1.924718e-004,1.711715e-005
1.973338e-004,4.434413e-005
1.893926e-004,7.643306e-005
1.633001e-004,1.004187e-004
1.289422e-004,1.093323e-004
1.023635e-004,1.070634e-004
9.344992e-005,1.098185e-004
1.052807e-004,1.257009e-004
1.295905e-004,1.495245e-004
1.547106e-004,1.645966e-004
1.684862e-004,1.590864e-004
1.694586e-004,1.318594e-004
1.631380e-004,9.182927e-005
1.598967e-004,4.774750e-005
1.654069e-004,5.772582e-006
1.842065e-004,-2.550602e-005
2.080301e-004,-4.284701e-005
2.234263e-004,-5.030201e-005
2.046267e-004,-5.467778e-005
1.344524e-004,-5.727082e-005
2.035846e-005,-5.500191e-005
-1.088076e-004,-4.900549e-005
-2.159328e-004,-3.782299e-005
-2.627696e-004,-2.291298e-005
-2.314910e-004,-8.489165e-006
-1.331174e-004,-3.303075e-006
-1.358292e-006,-8.651231e-006
1.208390e-004,-1.626830e-005
1.978200e-004,-1.626830e-005
2.201850e-004,-1.043395e-005
1.947408e-004,-6.706447e-006
1.454729e-004,-3.951337e-006
9.442231e-005,6.582909e-006
5.633696e-005,3.137890e-005
3.607880e-005,7.092283e-005
2.716520e-005,1.138701e-004
1.906194e-005,1.496866e-004
4.313994e-006,1.704310e-004
-9.623623e-006,1.770756e-004
-1.205460e-005,1.743205e-004
-1.844488e-006,1.705930e-004
1.582063e-005,1.707551e-004
3.008238e-005,1.733481e-004
2.635488e-005,1.707551e-004
-3.465141e-006,1.573037e-004
-5.581224e-005,1.308870e-004
-1.152902e-004,9.685329e-005
-1.635857e-004,5.844381e-005
-1.859507e-004,1.501031e-005
-1.773612e-004,-2.826113e-005
-1.430034e-004,-6.197072e-005
-9.292519e-005,-8.206682e-005
-3.587821e-005,-9.697682e-005
1.744128e-005,-1.190177e-004
6.589881e-005,-1.511066e-004
1.125736e-004,-1.802784e-004
1.582760e-004,-1.904885e-004
1.992786e-004,-1.770371e-004
2.290986e-004,-1.491618e-004
2.401191e-004,-1.161005e-004
2.162954e-004,-7.979790e-005
1.490383e-004,-3.604027e-005
4.385793e-005,1.792748e-005
-8.465986e-005,7.011251e-005
-2.214430e-004,1.046324e-004
-3.478539e-004,1.133840e-004
-4.531963e-004,9.993253e-005
-5.253154e-004,7.286762e-005
-5.580526e-004,4.385793e-005
-5.481666e-004,1.971020e-005
-4.982505e-004,7.231170e-006
-4.126800e-004,1.355172e-005
-2.958309e-004,3.526847e-005
-1.606685e-004,6.411610e-005
-2.194059e-005,8.437427e-005
1.193804e-004,8.064676e-005
2.639427e-004,5.147500e-005
4.057499e-004,6.582909e-006
5.285954e-004,-3.911951e-005
6.063868e-004,-6.764300e-005
6.258346e-004,-6.958779e-005
5.930975e-004,-4.544005e-005
5.315125e-004,-8.002969e-006
4.671726e-004,2.716520e-005
4.153117e-004,4.985435e-005
3.764160e-004,5.293359e-005
3.407616e-004,4.029249e-005
2.981384e-004,2.748933e-005
2.488706e-004,3.137890e-005
2.013854e-004,5.893001e-005
1.647587e-004,1.062531e-004
1.386661e-004,1.597346e-004
1.159770e-004,2.046267e-004
9.409818e-005,2.328261e-004
7.416414e-005,2.478982e-004
5.682316e-005,2.579462e-004
3.624086e-005,2.715597e-004
1.209313e-005,2.876042e-004
-1.173047e-005,2.963557e-004
-3.685059e-005,2.932765e-004
-6.634648e-005,2.752873e-004
-1.084835e-004,2.397949e-004
-1.715269e-004,1.919856e-004
-2.577456e-004,1.368834e-004
-3.553089e-004,8.405013e-005
-4.434724e-004,4.223728e-005
-4.974402e-004,1.630683e-005
-4.997090e-004,1.241726e-005
-4.525481e-004,3.299956e-005
-3.736223e-004,7.286762e-005
-2.841623e-004,1.240803e-004
-2.036158e-004,1.786963e-004
-1.418689e-004,2.292607e-004
-1.008664e-004,2.650771e-004
-8.174268e-005,2.812837e-004
-8.012203e-005,2.782044e-004
-8.644258e-005,2.529222e-004
-8.968388e-005,2.017096e-004
-8.206682e-005,1.297525e-004
-6.116039e-005,5.277152e-005
-3.053005e-005,-1.286493e-005
1.002961e-007,-5.808115e-005
2.441009e-005,-8.449779e-005
4.013043e-005,-9.875954e-005
4.936815e-005,-1.088076e-004
6.022653e-005,-1.102662e-004
6.946425e-005,-1.010285e-004
7.335382e-005,-8.563225e-005
7.789165e-005,-7.331529e-005
9.393611e-005,-7.072224e-005
1.154908e-004,-7.817725e-005
1.318594e-004,-9.260106e-005
1.310491e-004,-1.079973e-004
1.177597e-004,-1.191798e-004
9.847395e-005,-1.280934e-004
8.696730e-005,-1.373311e-004
9.231547e-005,-1.449481e-004
1.103047e-004,-1.489998e-004
1.312111e-004,-1.496480e-004
1.445005e-004,-1.470550e-004
1.451487e-004,-1.415448e-004
1.341283e-004,-1.350622e-004
1.169494e-004,-1.302002e-004
9.912220e-005,-1.298761e-004
8.858796e-005,-1.360346e-004
9.053274e-005,-1.499722e-004
1.046324e-004,-1.682856e-004
1.269974e-004,-1.851403e-004
1.472556e-004,-1.912988e-004
1.637863e-004,-1.831956e-004
1.778859e-004,-1.643960e-004
1.876099e-004,-1.366828e-004
1.932822e-004,-1.032974e-004
1.958752e-004,-7.266703e-005
1.981441e-004,-5.127441e-005
2.033302e-004,-4.106429e-005
2.080301e-004,-3.701266e-005
2.083542e-004,-3.069211e-005
2.010613e-004,-1.805102e-005
1.923098e-004,1.234753e-006
1.880961e-004,2.441009e-005
1.851789e-004,5.115087e-005
1.767515e-004,7.675719e-005
1.624898e-004,9.944633e-005
1.449867e-004,1.190562e-004
1.248906e-004,1.344524e-004
1.031738e-004,1.454729e-004
8.016056e-005,1.550348e-004
6.152305e-005,1.652449e-004
5.406805e-005,1.759412e-004
6.573675e-005,1.880961e-004
9.004655e-005,1.992786e-004
1.135460e-004,2.049509e-004
1.266733e-004,2.081922e-004
1.312111e-004,2.060853e-004
1.292664e-004,1.940925e-004
1.206769e-004,1.702689e-004
1.062531e-004,1.388282e-004
8.648111e-005,1.080358e-004
6.006446e-005,8.323980e-005
3.445814e-005,6.881599e-005
1.549650e-005,6.444023e-005
-3.303075e-006,6.768153e-005
-3.085418e-005,7.562274e-005
-6.683268e-005,8.469840e-005
-1.052422e-004,8.761556e-005
-1.391138e-004,8.178122e-005
-1.605064e-004,7.270556e-005
-1.677994e-004,6.395403e-005
-1.616409e-004,5.585077e-005
-1.459205e-004,4.790957e-005
-1.216107e-004,4.207521e-005
-8.790116e-005,4.110282e-005
-3.928157e-005,4.871989e-005
1.906194e-005,6.427816e-005
6.314371e-005,8.259154e-005
7.853991e-005,9.539470e-005
6.784360e-005,9.814982e-005
3.510640e-005,9.053274e-005
-9.785687e-006,7.432621e-005
-5.775702e-005,5.406805e-005
-9.875954e-005,3.575467e-005
-1.214487e-004,2.116879e-005
-1.196660e-004,1.014835e-005
-1.021629e-004,3.017472e-006
-8.109442e-005,3.341602e-006
-6.342930e-005,1.209313e-005
-5.694669e-005,2.797553e-005
-6.342930e-005,5.034054e-005
-7.428768e-005,7.286762e-005
-7.607040e-005,8.923622e-005
-6.456376e-005,9.733949e-005
-4.155049e-005,9.344992e-005
-7.030578e-006,8.032263e-005
3.445814e-005,5.860587e-005
7.756751e-005,3.364782e-005
1.182459e-004,1.630683e-005
1.498487e-004,1.014835e-005
1.636242e-004,1.419998e-005
1.569795e-004,1.808955e-005
1.320215e-004,1.371378e-005
9.312579e-005,-1.844488e-006
5.050261e-005,-3.004385e-005
1.274139e-005,-6.245691e-005
-1.302699e-005,-8.660465e-005
-2.372330e-005,-9.146661e-005
-2.615428e-005,-7.574627e-005
-2.858526e-005,-5.289506e-005
-3.409548e-005,-4.381940e-005
-3.863331e-005,-5.289506e-005
-4.009190e-005,-6.910160e-005
-4.300908e-005,-7.995997e-005
-6.132245e-005,-7.866345e-005
-9.940780e-005,-6.278104e-005
-1.446240e-004,-3.636440e-005
-1.844921e-004,-7.192643e-006
-2.125294e-004,1.906194e-005
-2.347323e-004,3.915804e-005
-2.588801e-004,5.795762e-005
-2.734659e-004,7.627100e-005
-2.585559e-004,9.507057e-005
-1.976194e-004,1.114392e-004
-9.195280e-005,1.193804e-004
3.607880e-005,1.138701e-004
1.542244e-004,1.004187e-004
2.378501e-004,8.777764e-005
2.840387e-004,8.469840e-005
3.039728e-004,9.393611e-005
3.156415e-004,1.151667e-004
3.324963e-004,1.391524e-004
3.508097e-004,1.573037e-004
3.618301e-004,1.641104e-004
3.579406e-004,1.620035e-004
3.422202e-004,1.542244e-004
3.247172e-004,1.432040e-004
3.064038e-004,1.282940e-004
2.744769e-004,1.073875e-004
2.169437e-004,8.680524e-005
1.297525e-004,7.254349e-005
2.408596e-005,6.816773e-005
-8.336334e-005,7.157111e-005
-1.742820e-004,7.513654e-005
-2.357047e-004,7.173317e-005
-2.660109e-004,6.330577e-005
-2.668213e-004,5.520250e-005
-2.433218e-004,5.098881e-005
-2.019951e-004,5.260946e-005
-1.491618e-004,5.844381e-005
-9.438377e-005,6.606088e-005
-5.046408e-005,7.238143e-005
-1.869928e-005,7.772959e-005
7.717366e-006,7.756751e-005
4.337174e-005,7.108490e-005
1.090082e-004,6.119892e-005
2.213195e-004,4.985435e-005
3.833848e-004,3.834771e-005
5.720289e-004,2.959618e-005
7.305289e-004,2.295151e-005
7.940585e-004,1.468617e-005
7.327978e-004,4.244267e-007
5.704083e-004,-1.529591e-005
3.611819e-004,-3.231276e-005
1.611932e-004,-4.754691e-005
1.241726e-005,-5.597430e-005
-7.315322e-005,-6.116039e-005
-1.128592e-004,-6.926366e-005
-1.253383e-004,-8.611845e-005
-1.259865e-004,-1.067007e-004
-1.267968e-004,-1.261486e-004
-1.360346e-004,-1.418689e-004
-1.538618e-004,-1.517549e-004
-1.728234e-004,-1.527273e-004
-1.870851e-004,-1.468929e-004
-1.968091e-004,-1.347380e-004
-2.002124e-004,-1.190177e-004
-1.971332e-004,-9.875954e-005
-1.917850e-004,-7.461181e-005
-1.900023e-004,-4.706071e-005
-1.937298e-004,-2.242678e-005
-2.028055e-004,-1.196226e-006
-2.190120e-004,1.938607e-005
-2.400805e-004,4.256141e-005
-2.635799e-004,6.768153e-005
-2.908069e-004,9.507057e-005
-3.181959e-004,1.205148e-004
-3.355369e-004,1.325077e-004
-3.350507e-004,1.197045e-004
-3.156029e-004,8.032263e-005
-2.833519e-004,2.927205e-005
-2.446183e-004,-1.059601e-005
-2.006986e-004,-2.485776e-005
-1.514308e-004,-1.529591e-005
-9.924574e-005,1.209313e-005
-4.430560e-005,4.823369e-005
1.695509e-005,8.356393e-005
8.486046e-005,1.114392e-004
1.571416e-004,1.373696e-004
2.175920e-004,1.663793e-004
2.560015e-004,2.002510e-004
2.676701e-004,2.323399e-004
2.508154e-004,2.464396e-004
2.064095e-004,2.357433e-004
1.453108e-004,2.090025e-004
8.696730e-005,1.855030e-004
4.807163e-005,1.769136e-004
3.802358e-005,1.798307e-004
5.487837e-005,1.718895e-004
8.372600e-005,1.349386e-004
1.111150e-004,7.351588e-005
1.292664e-004,8.689757e-006
1.310491e-004,-4.009190e-005
1.141943e-004,-6.472583e-005
8.631904e-005,-6.877746e-005
6.346784e-005,-5.694669e-005
5.471631e-005,-3.344722e-005
6.038860e-005,-3.465141e-006
7.805372e-005,1.987226e-005
1.056048e-004,2.505835e-005
1.446626e-004,1.031041e-005
1.963614e-004,-1.010982e-005
2.657254e-004,-2.258885e-005
3.436788e-004,-2.177852e-005
4.055878e-004,-1.189254e-005
4.310320e-004,6.907039e-006
4.109359e-004,3.040651e-005
3.501614e-004,5.017848e-005
2.538946e-004,6.606088e-005
1.409351e-004,7.999850e-005
3.105477e-005,9.328785e-005
-6.731887e-005,1.012291e-004
-1.549962e-004,9.750155e-005
-2.360288e-004,8.113296e-005
-3.076617e-004,5.876794e-005
-3.637363e-004,4.353380e-005
-3.992286e-004,4.288554e-005
-4.040906e-004,5.779555e-005
-3.765395e-004,8.405013e-005
-3.309991e-004,1.067393e-004
-2.864312e-004,1.132219e-004
-2.415391e-004,1.036600e-004
-1.775233e-004,8.745350e-005
-7.736692e-005,7.400208e-005
6.508849e-005,6.411610e-005
2.449810e-004,5.147500e-005
4.355699e-004,3.607880e-005
6.042799e-004,1.889987e-005
7.201567e-004,-5.479652e-007
7.721797e-004,-2.015787e-005
7.741245e-004,-3.749886e-005
7.426838e-004,-5.240886e-005
6.838541e-004,-6.359137e-005
5.898561e-004,-6.991192e-005
4.610142e-004,-7.218083e-005
3.172621e-004,-7.347736e-005
1.872858e-004,-7.931171e-005
9.328785e-005,-9.114247e-005
3.980630e-005,-1.062145e-004
1.873781e-005,-1.157764e-004
1.241726e-005,-1.159385e-004
1.002961e-007,-1.105903e-004
-2.453363e-005,-1.010285e-004
-5.386745e-005,-8.838737e-005
-7.590833e-005,-6.829127e-005
-8.741497e-005,-4.381940e-005
-9.243900e-005,-1.821308e-005
-1.023250e-004,2.207145e-006
-1.306864e-004,1.501031e-005
-1.830335e-004,2.035846e-005
-2.566112e-004,1.906194e-005
-3.391023e-004,1.063454e-005
-4.144627e-004,-4.761663e-006
-4.715097e-004,-1.999580e-005
-5.082985e-004,-2.696461e-005
-5.321222e-004,-2.194059e-005
-5.525423e-004,-5.571990e-006
-5.742591e-004,1.711715e-005
-5.943552e-004,4.239934e-005
-6.027826e-004,6.411610e-005
-5.886829e-004,8.161915e-005
-5.460597e-004,9.604297e-005
-4.690787e-004,1.020394e-004
-3.486642e-004,1.015532e-004
-1.872472e-004,9.669123e-005
-1.675450e-005,8.842590e-005
1.201907e-004,7.886404e-005
2.049509e-004,6.751947e-005
2.498430e-004,5.828174e-005
2.757734e-004,5.196120e-005
3.025142e-004,5.228533e-005
3.399513e-004,5.779555e-005
3.817642e-004,6.606088e-005
4.068843e-004,7.675719e-005
3.999155e-004,8.891209e-005
3.548613e-004,9.977046e-005
2.832284e-004,1.096565e-004
2.002510e-004,1.221355e-004
1.188942e-004,1.375317e-004
4.709924e-005,1.551968e-004
-1.205460e-005,1.691344e-004
-5.532604e-005,1.723757e-004
-7.914964e-005,1.665414e-004
-8.028410e-005,1.569795e-004
-5.516398e-005,1.449867e-004
-1.562004e-005,1.320215e-004
2.716520e-005,1.200286e-004
6.444023e-005,1.124116e-004
9.134307e-005,1.112771e-004
1.069013e-004,1.184080e-004
1.122495e-004,1.289422e-004
1.075496e-004,1.355869e-004
8.761556e-005,1.289422e-004
5.487837e-005,1.107909e-004
2.035846e-005,8.680524e-005
2.623614e-007,6.654707e-005
-1.844488e-006,5.374392e-005
-2.238345e-007,4.110282e-005
-9.947754e-006,2.765140e-005
-3.458168e-005,2.084466e-005
-6.731887e-005,2.441009e-005
-8.676671e-005,3.510640e-005
-5.662256e-005,4.580272e-005
3.672705e-005,5.179913e-005
1.825858e-004,5.536457e-005
3.493511e-004,6.071273e-005
4.995857e-004,6.816773e-005
6.015248e-004,6.930219e-005
6.339379e-004,5.909207e-005
5.973111e-004,3.834771e-005
5.154681e-004,1.371378e-005
4.213081e-004,-7.030578e-006
3.475684e-004,-2.307504e-005
3.083486e-004,-3.393342e-005
2.963557e-004,-3.766092e-005
2.970040e-004,-3.441962e-005
2.937627e-004,-2.939559e-005
2.736665e-004,-2.890940e-005
2.372019e-004,-3.587821e-005
1.914994e-004,-4.592625e-005
1.425557e-004,-4.981582e-005
9.717742e-005,-4.074016e-005
6.168512e-005,-2.566809e-005
4.158902e-005,-1.545797e-005
3.494434e-005,-1.383732e-005
3.073064e-005,-2.161646e-005
1.906194e-005,-3.555407e-005
-3.627206e-006,-4.625038e-005
-3.312309e-005,-4.787104e-005
-6.116039e-005,-4.479180e-005
-8.093235e-005,-4.446767e-005
-8.757703e-005,-4.835723e-005
-8.109442e-005,-5.629843e-005
-6.375343e-005,-6.602235e-005
-4.300908e-005,-7.444974e-005
-2.761287e-005,-8.174268e-005
-2.388537e-005,-8.741497e-005
-3.085418e-005,-8.952182e-005
-4.446767e-005,-8.903562e-005
-5.646050e-005,-8.077029e-005
-6.116039e-005,-6.148453e-005
-6.278104e-005,-3.312309e-005
-6.634648e-005,-4.761663e-006
-7.315322e-005,1.922400e-005
-8.303921e-005,3.624086e-005
-9.227693e-005,4.239934e-005
-9.373551e-005,4.272347e-005
-9.179074e-005,4.531652e-005
-9.146661e-005,5.471631e-005
-9.357345e-005,7.416414e-005
-9.324932e-005,1.020394e-004
-8.871149e-005,1.318594e-004
-8.206682e-005,1.548727e-004
-7.898758e-005,1.658931e-004
-7.963584e-005,1.655690e-004
-7.736692e-005,1.584381e-004
-7.056018e-005,1.537382e-004
-5.986387e-005,1.532520e-004
-4.722277e-005,1.532520e-004
-3.182657e-005,1.548727e-004
-1.626830e-005,1.590864e-004
-9.299492e-006,1.610312e-004
-1.902341e-005,1.577899e-004
-4.268495e-005,1.480659e-004
-7.137050e-005,1.341283e-004
-9.859748e-005,1.226217e-004
-1.165867e-004,1.187321e-004
-1.225831e-004,1.195424e-004
-1.188556e-004,1.166253e-004
-1.102662e-004,1.101426e-004
-1.026491e-004,1.000946e-004
-1.011905e-004,8.307774e-005
-1.023250e-004,6.022653e-005
-9.568031e-005,3.462021e-005
-7.752898e-005,1.646889e-005
-5.386745e-005,9.824214e-006
-3.166451e-005,1.193106e-005
-9.623623e-006,1.971020e-005
1.419998e-005,2.700314e-005
4.061663e-005,2.813760e-005
6.735740e-005,2.295151e-005
9.523264e-005,1.776542e-005
1.239182e-004,2.327564e-005
1.457970e-004,4.239934e-005
1.587622e-004,7.610893e-005
1.654069e-004,1.137081e-004
1.616794e-004,1.378558e-004
1.464453e-004,1.383420e-004
1.229458e-004,1.214872e-004
9.669123e-005,9.993253e-005
6.865393e-005,8.421220e-005
4.320967e-005,7.302969e-005
2.473422e-005,6.962632e-005
1.646889e-005,8.356393e-005
1.501031e-005,1.185700e-004
7.393235e-006,1.616794e-004
-2.388537e-005,1.887443e-004
-8.919769e-005,1.856651e-004
-1.817370e-004,1.503348e-004
-2.830278e-004,9.053274e-005
-3.739464e-004,1.533444e-005
-4.376381e-004,-6.164659e-005
-4.595169e-004,-1.251762e-004
-4.378001e-004,-1.645580e-004
-3.852910e-004,-1.773612e-004
-3.253268e-004,-1.695821e-004
-2.763831e-004,-1.519170e-004
-2.462390e-004,-1.300381e-004
-2.340841e-004,-1.136696e-004
-2.337599e-004,-1.135075e-004
-2.310048e-004,-1.290658e-004
-2.126914e-004,-1.470550e-004
-1.773612e-004,-1.546721e-004
-1.334415e-004,-1.496480e-004
-9.065627e-005,-1.397621e-004
-4.884343e-005,-1.310105e-004
-1.520357e-006,-1.242038e-004
5.487837e-005,-1.139937e-004
1.224596e-004,-1.024870e-004
2.043026e-004,-9.292519e-005
3.007315e-004,-8.935975e-005
4.065602e-004,-9.568031e-005
5.162784e-004,-1.065387e-004
6.157866e-004,-1.152902e-004
6.880678e-004,-1.186936e-004
7.191843e-004,-1.188556e-004
7.045984e-004,-1.220969e-004
6.569512e-004,-1.282554e-004
6.031455e-004,-1.336036e-004
5.613326e-004,-1.298761e-004
5.357263e-004,-1.050801e-004
5.131992e-004,-5.062615e-005
4.772207e-004,2.505835e-005
4.260080e-004,1.060910e-004
3.752816e-004,1.723757e-004
3.352514e-004,2.112714e-004
3.046211e-004,2.211574e-004
2.718839e-004,2.091646e-004
2.260194e-004,1.893926e-004
1.597346e-004,1.772377e-004
8.583285e-005,1.824238e-004
3.170303e-005,2.012234e-004
2.376183e-005,2.226160e-004
6.687120e-005,2.359053e-004
1.422316e-004,2.365536e-004
2.221298e-004,2.265056e-004
2.914938e-004,2.094887e-004
3.490270e-004,1.835582e-004
3.932708e-004,1.487142e-004
4.187151e-004,1.140322e-004
4.183909e-004,9.377405e-005
3.867882e-004,9.685329e-005
3.287688e-004,1.172735e-004
2.605393e-004,1.406109e-004
1.976579e-004,1.561692e-004
1.370455e-004,1.551968e-004
5.471631e-005,1.362352e-004
-7.477388e-005,1.022014e-004
-2.645523e-004,5.649903e-005
-4.927402e-004,1.047248e-005
-7.107180e-004,-1.480971e-005
-8.682455e-004,-6.544382e-006
-9.306406e-004,2.408596e-005
-8.993620e-004,5.552663e-005
-8.037435e-004,7.011251e-005
-6.867324e-004,6.508849e-005
-5.857657e-004,4.142695e-005
-5.225603e-004,7.717366e-006
-5.079744e-004,-2.664048e-005
-5.386047e-004,-5.467778e-005
-6.048895e-004,-7.509801e-005
-6.870566e-004,-8.822530e-005
-7.577170e-004,-9.568031e-005
-7.909404e-004,-1.005423e-004
-7.724649e-004,-1.008664e-004
-7.071526e-004,-9.568031e-005
-6.138030e-004,-8.676671e-005
-5.035987e-004,-7.574627e-005
-3.758912e-004,-6.715681e-005
-2.313289e-004,-6.602235e-005
-7.396355e-005,-6.861539e-005
8.615698e-005,-7.088431e-005
2.354192e-004,-6.650855e-005
3.611819e-004,-5.289506e-005
4.522626e-004,-2.858526e-005
5.086614e-004,5.448451e-006
5.422089e-004,3.948217e-005
5.648981e-004,6.768153e-005
5.807804e-004,8.453633e-005
5.913147e-004,8.972242e-005
5.883976e-004,8.210535e-005
5.623050e-004,6.087479e-005
5.059062e-004,3.299956e-005
4.229288e-004,7.555300e-006
3.279585e-004,-9.299492e-006
2.281262e-004,-1.318906e-005
1.257009e-004,-5.896120e-006
2.975825e-005,4.638125e-006
-5.159854e-005,1.031041e-005
-1.075111e-004,9.013888e-006
-1.314967e-004,6.420843e-006
-1.211245e-004,7.393235e-006
-8.482193e-005,1.468617e-005
-3.928157e-005,2.489629e-005
-5.571990e-006,3.494434e-005
5.934647e-006,4.726130e-005
3.017472e-006,5.893001e-005
7.555300e-006,6.557468e-005
4.985435e-005,7.124698e-005
1.422316e-004,8.259154e-005
2.743148e-004,1.049566e-004
4.235770e-004,1.401247e-004
5.631153e-004,1.788584e-004
6.749405e-004,2.068957e-004
7.485182e-004,2.159713e-004
7.859553e-004,2.077060e-004
7.930862e-004,1.921477e-004
7.763934e-004,1.783722e-004
7.365253e-004,1.694586e-004
6.715371e-004,1.639483e-004
5.856425e-004,1.624898e-004
4.887274e-004,1.688103e-004
3.968363e-004,1.877719e-004
3.211517e-004,2.127300e-004
2.696149e-004,2.292607e-004
2.409294e-004,2.256952e-004
2.313675e-004,2.015475e-004
2.341226e-004,1.631380e-004
2.397949e-004,1.224596e-004
2.394708e-004,8.972242e-005
2.320158e-004,6.735740e-005
2.243987e-004,5.730935e-005
2.172678e-004,5.779555e-005
2.012234e-004,6.136099e-005
1.730240e-004,6.071273e-005
1.352628e-004,5.536457e-005
1.013911e-004,5.017848e-005
8.242948e-005,4.369587e-005
7.918817e-005,3.478227e-005
8.356393e-005,2.327564e-005
8.469840e-005,7.231170e-006
8.388807e-005,-1.108221e-005
8.583285e-005,-2.566809e-005
9.215340e-005,-3.620233e-005
9.037068e-005,-4.284701e-005
6.541262e-005,-4.300908e-005
2.045080e-006,-3.522994e-005
-1.052422e-004,-2.356124e-005
-2.439700e-004,-1.529591e-005
-3.916115e-004,-1.675450e-005
-5.152673e-004,-2.793700e-005
-5.797693e-004,-4.284701e-005
-5.616180e-004,-5.127441e-005
-4.645409e-004,-5.078821e-005
-3.288923e-004,-4.317114e-005
-2.245222e-004,-3.247483e-005
-2.105846e-004,-2.599222e-005
-2.989102e-004,-2.275091e-005
-4.471999e-004,-1.918548e-005
-5.873864e-004,-1.237873e-005
-6.590192e-004,-4.923729e-006
-6.313060e-004,-6.176923e-008
-5.178603e-004,5.864920e-007
-3.642225e-004,-1.520357e-006
-2.237119e-004,-6.058186e-006
-1.329553e-004,-8.327101e-006
-1.034594e-004,-4.923729e-006
-1.232314e-004,7.069104e-006
-1.697441e-004,2.246531e-005
-2.183637e-004,3.251336e-005
-2.511009e-004,3.364782e-005
-2.535319e-004,2.619281e-005
-2.295462e-004,1.128280e-005
-1.955125e-004,-7.516774e-006
-1.712027e-004,-2.015787e-005
-1.802784e-004,-2.647842e-005
-2.334358e-004,-2.955766e-005
-3.235441e-004,-3.231276e-005
-4.191626e-004,-3.393342e-005
-4.838267e-004,-3.377135e-005
-4.932265e-004,-2.745081e-005
-4.416897e-004,-1.237873e-005
-3.423437e-004,6.582909e-006
-2.198223e-004,2.311357e-005
-9.000801e-005,3.154097e-005
3.559260e-005,2.878586e-005
1.385041e-004,1.598270e-005
2.085163e-004,2.369210e-006
2.517877e-004,-2.654814e-006
2.790147e-004,9.986280e-006
2.997591e-004,4.061663e-005
3.135346e-004,7.821578e-005
3.174242e-004,1.120874e-004
3.136967e-004,1.383420e-004
3.025142e-004,1.582760e-004
2.806354e-004,1.691344e-004
2.459534e-004,1.655690e-004
2.041405e-004,1.420695e-004
1.579519e-004,1.009049e-004
1.116012e-004,6.314371e-005
6.768153e-005,4.953022e-005
2.829966e-005,6.703327e-005
-4.923729e-006,1.060910e-004
-3.636440e-005,1.446626e-004
-7.331529e-005,1.613553e-004
-1.144799e-004,1.482280e-004
-1.465688e-004,1.109530e-004
-1.579134e-004,6.508849e-005
-1.412206e-004,2.765140e-005
-9.827335e-005,8.851824e-006
-3.685059e-005,1.306552e-005
3.008238e-005,3.413401e-005
9.150514e-005,5.957827e-005
1.398006e-004,7.837785e-005
1.680000e-004,8.583285e-005
1.678379e-004,8.405013e-005
1.393144e-004,7.562274e-005
9.539470e-005,6.492643e-005
6.119892e-005,5.050261e-005
5.828174e-005,3.543053e-005
9.474644e-005,2.230324e-005
1.692965e-004,1.031041e-005
2.803112e-004,-8.720958e-007
4.211461e-004,-1.270286e-005
5.699221e-004,-2.437157e-005
7.102708e-004,-3.053005e-005
8.334405e-004,-2.858526e-005
9.293832e-004,-2.469570e-005
9.809200e-004,-2.615428e-005
9.742754e-004,-3.263690e-005
9.047493e-004,-4.333321e-005
7.796347e-004,-5.597430e-005
6.183797e-004,-6.893953e-005
4.527488e-004,-8.093235e-005
3.164518e-004,-8.854943e-005
2.101370e-004,-8.579432e-005
9.879807e-005,-7.671866e-005
-6.537409e-005,-6.586029e-005
-2.925896e-004,-5.694669e-005
-5.329325e-004,-5.240886e-005
-7.102318e-004,-4.803310e-005
-7.784613e-004,-3.506787e-005
-7.475069e-004,-1.010982e-005
-6.659880e-004,2.019640e-005
-5.987309e-004,4.450619e-005
-6.000275e-004,5.520250e-005
-6.906220e-004,5.196120e-005
-8.486356e-004,4.239934e-005
-1.025125e-003,3.299956e-005
-1.171956e-003,2.343770e-005
-1.259309e-003,1.727922e-005
-1.277622e-003,1.533444e-005
-1.223007e-003,2.197911e-005
-1.092868e-003,3.883391e-005
-8.980655e-004,6.103685e-005
-6.737671e-004,8.064676e-005
-4.567618e-004,8.680524e-005
-2.702246e-004,7.432621e-005
-1.191798e-004,4.304760e-005
6.744974e-006,-1.844488e-006
1.221355e-004,-4.511592e-005
2.302331e-004,-6.958779e-005
3.328204e-004,-6.731887e-005
4.303838e-004,-4.689864e-005
5.318367e-004,-2.955766e-005
6.457687e-004,-3.312309e-005
7.663454e-004,-5.694669e-005
8.746051e-004,-8.611845e-005
9.525587e-004,-9.746302e-005
9.925888e-004,-7.607040e-005
9.971267e-004,-2.874733e-005
9.784891e-004,2.700314e-005
9.507759e-004,7.254349e-005
9.282487e-004,9.750155e-005
9.169042e-004,1.038221e-004
9.097733e-004,9.847395e-005
8.997252e-004,8.956035e-005
8.786567e-004,8.810177e-005
8.418679e-004,9.685329e-005
7.867657e-004,1.125736e-004
7.174016e-004,1.292664e-004
6.349103e-004,1.432040e-004
5.460985e-004,1.542244e-004
4.600418e-004,1.602208e-004
3.809539e-004,1.610312e-004
2.997591e-004,1.598967e-004
2.036543e-004,1.597346e-004
8.761556e-005,1.595726e-004
-4.057810e-005,1.542244e-004
-1.590478e-004,1.423936e-004
-2.368392e-004,1.278078e-004
-2.569353e-004,1.159770e-004
-2.287359e-004,1.070634e-004
-1.776853e-004,9.944633e-005
-1.314967e-004,9.507057e-005
-1.122110e-004,9.588090e-005
-1.214487e-004,1.022014e-004
-1.525652e-004,1.122495e-004
-1.891920e-004,1.198666e-004
-2.159328e-004,1.221355e-004
-2.214430e-004,1.159770e-004
-2.068571e-004,1.052807e-004
-1.801163e-004,9.328785e-005
-1.535376e-004,8.032263e-005
-1.342519e-004,6.573675e-005
-1.219349e-004,5.034054e-005
-1.178833e-004,3.818564e-005
-1.209625e-004,2.878586e-005
-1.258244e-004,2.100672e-005
-1.256624e-004,1.873781e-005
-1.135075e-004,2.311357e-005
-8.222889e-005,2.878586e-005
-2.745081e-005,2.846173e-005
5.504044e-005,2.149292e-005
1.602208e-004,1.144487e-005
2.686426e-004,1.072688e-006
3.504856e-004,-7.840905e-006
3.863020e-004,-1.399939e-005
3.738230e-004,-1.902341e-005
3.234207e-004,-1.853721e-005
2.427121e-004,-1.075808e-005
1.373696e-004,-4.275467e-006
1.663096e-005,-7.678839e-006
-9.973194e-005,-2.129233e-005
-1.867610e-004,-3.895744e-005
-2.324634e-004,-5.646050e-005
-2.446183e-004,-6.553616e-005
-2.352185e-004,-6.359137e-005
-2.175534e-004,-5.548810e-005
-2.008607e-004,-5.192267e-005
-1.872472e-004,-6.197072e-005
-1.750923e-004,-8.530812e-005
-1.575892e-004,-1.152902e-004
-1.321450e-004,-1.336036e-004
-9.875954e-005,-1.230693e-004
-6.456376e-005,-8.514606e-005
-4.171255e-005,-3.830918e-005
-3.377135e-005,-4.113402e-006
-3.830918e-005,1.257933e-005
-4.787104e-005,1.679302e-005
-5.435365e-005,1.517237e-005
-5.597430e-005,1.452411e-005
-5.354332e-005,1.987226e-005
-4.657451e-005,2.910999e-005
-3.539201e-005,4.110282e-005
-1.594417e-005,5.487837e-005
1.760335e-005,6.816773e-005
6.087479e-005,8.356393e-005
1.005808e-004,1.054428e-004
1.242423e-004,1.373696e-004
1.333180e-004,1.832341e-004
1.438522e-004,2.380122e-004
1.743205e-004,2.863077e-004
2.290986e-004,3.089968e-004
2.983005e-004,2.924662e-004
3.754436e-004,2.384984e-004
4.571246e-004,1.626518e-004
5.332953e-004,8.356393e-005
5.924492e-004,1.776542e-005
6.217830e-004,-2.988179e-005
6.131936e-004,-6.116039e-005
5.708945e-004,-7.461181e-005
5.044476e-004,-7.266703e-005
4.326527e-004,-5.986387e-005
3.676645e-004,-3.685059e-005
3.081865e-004,-7.840905e-006
2.441707e-004,2.522042e-005
1.728619e-004,5.941620e-005
9.539470e-005,8.891209e-005
2.019640e-005,1.116012e-004
-4.916756e-005,1.305629e-004
-1.198280e-004,1.480659e-004
-2.002124e-004,1.620035e-004
-3.110651e-004,1.681620e-004
-4.726441e-004,1.665414e-004
-6.935392e-004,1.621656e-004
-9.659709e-004,1.605450e-004
-1.260281e-003,1.649207e-004
-1.536117e-003,1.744826e-004
-1.759281e-003,1.835582e-004
-1.907408e-003,1.892305e-004
-1.959918e-003,1.903650e-004
-1.901736e-003,1.848548e-004
-1.727192e-003,1.696206e-004
-1.448277e-003,1.425557e-004
-1.103240e-003,1.062531e-004
-7.494516e-004,7.254349e-005
-4.353692e-004,4.693717e-005
-1.869231e-004,2.797553e-005
1.396819e-006,1.225519e-005
1.440143e-004,-6.382316e-006
2.537325e-004,-3.101624e-005
3.299032e-004,-5.581224e-005
3.621542e-004,-7.801519e-005
3.444891e-004,-9.438377e-005
2.842008e-004,-1.010285e-004
2.031682e-004,-9.551824e-005
1.310491e-004,-8.368747e-005
9.101894e-005,-7.218083e-005
9.004655e-005,-6.699474e-005
1.146805e-004,-6.537409e-005
1.496866e-004,-6.116039e-005
1.906891e-004,-5.548810e-005
2.302331e-004,-5.192267e-005
2.592428e-004,-5.321919e-005
2.803112e-004,-5.646050e-005
3.018659e-004,-5.970180e-005
3.336308e-004,-6.278104e-005
3.843572e-004,-6.634648e-005
4.551798e-004,-7.428768e-005
5.363746e-004,-8.482193e-005
6.172452e-004,-9.357345e-005
6.883919e-004,-9.859748e-005
7.428459e-004,-9.859748e-005
7.872518e-004,-9.081834e-005
8.216097e-004,-7.671866e-005
8.402472e-004,-6.116039e-005
8.425161e-004,-5.176060e-005
8.374921e-004,-5.095028e-005
8.173960e-004,-5.824321e-005
7.621317e-004,-6.926366e-005
6.652166e-004,-7.785312e-005
5.366987e-004,-7.736692e-005
4.112601e-004,-6.910160e-005
3.313618e-004,-5.694669e-005
3.174242e-004,-4.252288e-005
3.589129e-004,-2.291298e-005
4.219564e-004,4.313994e-006
4.707380e-004,4.077869e-005
4.814344e-004,7.837785e-005
4.566384e-004,1.116012e-004
4.088291e-004,1.329939e-004
3.504856e-004,1.367214e-004
2.893869e-004,1.260251e-004
2.284503e-004,1.090082e-004
1.756170e-004,1.004187e-004
1.316973e-004,1.083599e-004
8.875003e-005,1.206769e-004
3.251336e-005,1.211631e-004
-5.127441e-005,1.081979e-004
-1.747682e-004,9.215340e-005
-3.402368e-004,8.178122e-005
-5.176983e-004,7.497447e-005
-6.640432e-004,6.703327e-005
-7.395656e-004,5.066468e-005
-7.201179e-004,2.052053e-005
-6.128306e-004,-2.031993e-005
-4.553032e-004,-6.164659e-005
-2.924276e-004,-8.919769e-005
-1.520790e-004,-9.713889e-005
-3.668853e-005,-8.822530e-005
7.546067e-005,-6.958779e-005
2.090025e-004,-4.527799e-005
3.647473e-004,-1.416145e-005
5.175750e-004,1.711715e-005
6.285898e-004,4.239934e-005
6.699165e-004,6.055066e-005
6.407447e-004,7.140904e-005
5.623050e-004,7.935023e-005
4.657140e-004,8.777764e-005
3.730126e-004,9.555677e-005
2.793389e-004,9.879807e-005
1.597346e-004,9.685329e-005
-3.141010e-006,9.150514e-005
-1.997262e-004,8.242948e-005
-3.956631e-004,6.816773e-005
-5.421702e-004,5.568870e-005
-5.998655e-004,5.131293e-005
-5.601594e-004,5.666109e-005
-4.470378e-004,7.027457e-005
-3.045825e-004,8.712937e-005
-1.762267e-004,1.038221e-004
-8.919769e-005,1.248906e-004
-4.576419e-005,1.517934e-004
-2.210265e-005,1.842065e-004
1.468617e-005,2.159713e-004
8.421220e-005,2.373639e-004
1.820997e-004,2.386605e-004
2.803112e-004,2.219677e-004
3.452995e-004,1.927960e-004
3.572923e-004,1.550348e-004
3.175863e-004,1.141943e-004
2.331502e-004,7.027457e-005
1.145184e-004,2.295151e-005
-3.798505e-005,-2.550602e-005
-2.285738e-004,-7.526008e-005
-4.387725e-004,-1.227452e-004
-6.141271e-004,-1.596961e-004
-6.907840e-004,-1.734716e-004
-6.400576e-004,-1.618029e-004
-4.885265e-004,-1.358725e-004
-3.053928e-004,-1.102662e-004
-1.549962e-004,-9.114247e-005
-6.715681e-005,-7.947377e-005
-4.138842e-005,-6.958779e-005
-5.532604e-005,-5.727082e-005
-7.833932e-005,-4.057810e-005
-8.822530e-005,-2.177852e-005
-7.736692e-005,-3.627206e-006
-5.289506e-005,9.824214e-006
-2.226472e-005,2.003433e-005
7.393235e-006,2.943412e-005
3.024445e-005,3.883391e-005
4.385793e-005,5.196120e-005
5.325772e-005,7.059870e-005
6.508849e-005,9.215340e-005
7.967437e-005,1.091703e-004
9.588090e-005,1.161391e-004
1.044704e-004,1.107909e-004
9.685329e-005,9.831188e-005
7.351588e-005,8.729143e-005
4.207521e-005,8.421220e-005
1.549650e-005,8.858796e-005
-2.006553e-006,9.944633e-005
-4.113402e-006,1.130598e-004
1.014835e-005,1.289422e-004
3.202716e-005,1.490383e-004
4.871989e-005,1.730240e-004
5.763348e-005,1.906891e-004
7.092283e-005,1.949028e-004
1.010670e-004,1.845306e-004
1.598967e-004,1.650828e-004
2.477361e-004,1.422316e-004
3.595612e-004,1.175977e-004
4.856481e-004,9.199134e-005
6.169211e-004,7.108490e-005
7.379840e-004,6.362990e-005
8.280923e-004,7.529860e-005
8.765499e-004,9.912220e-005
8.844911e-004,1.231079e-004
8.609916e-004,1.373696e-004
8.214476e-004,1.386661e-004
7.621317e-004,1.313732e-004
6.491721e-004,1.159770e-004
4.425387e-004,9.571883e-005
1.380179e-004,7.708132e-005
-2.024813e-004,6.654707e-005
-4.788027e-004,6.427816e-005
-6.149375e-004,6.411610e-005
-5.967862e-004,6.184718e-005
-4.658374e-004,5.471631e-005
-2.893483e-004,4.045456e-005
-1.295519e-004,1.906194e-005
-2.809907e-005,-1.196226e-006
5.864920e-007,-1.043395e-005
-3.215070e-005,-5.247859e-006
-9.794922e-005,7.069104e-006
-1.627753e-004,1.679302e-005
-1.903264e-004,1.355172e-005
-1.655304e-004,-3.303075e-006
-9.600443e-005,-2.809907e-005
1.396819e-006,-5.095028e-005
1.012291e-004,-6.618442e-005
1.671896e-004,-6.910160e-005
1.602208e-004,-5.937767e-005
6.508849e-005,-4.398147e-005
-1.079973e-004,-3.296103e-005
-3.319715e-004,-3.393342e-005
-5.916001e-004,-4.462973e-005
-8.962828e-004,-5.791909e-005
-1.255744e-003,-6.893953e-005
-1.647942e-003,-7.833932e-005
-2.002703e-003,-8.887356e-005
-2.227974e-003,-1.016767e-004
-2.244829e-003,-1.105903e-004
-2.029282e-003,-1.078352e-004
-1.633194e-003,-9.017008e-005
-1.154615e-003,-6.051213e-005
-6.912702e-004,-3.053005e-005
-3.183580e-004,-1.173047e-005
-7.655659e-005,-6.544382e-006
3.737532e-005,-1.010982e-005
7.108490e-005,-1.756482e-005
7.789165e-005,-2.615428e-005
8.356393e-005,-2.826113e-005
9.101894e-005,-1.983374e-005
1.018773e-004,-2.816880e-006
1.278078e-004,1.760335e-005
1.817755e-004,3.267542e-005
2.723700e-004,3.705119e-005
4.013741e-004,3.769945e-005
5.563085e-004,4.175108e-005
7.078398e-004,4.953022e-005
8.224201e-004,5.893001e-005
8.700673e-004,6.411610e-005
8.434885e-004,5.828174e-005
7.567835e-004,4.256141e-005
6.467411e-004,2.181705e-005
5.554982e-004,3.827798e-006
5.078511e-004,-7.192643e-006
5.036373e-004,-1.270286e-005
5.279472e-004,-1.059601e-005
5.614947e-004,-3.141010e-006
5.973111e-004,9.986280e-006
6.284277e-004,3.056858e-005
6.506307e-004,5.795762e-005
6.655407e-004,8.972242e-005
6.814231e-004,1.216493e-004
7.011950e-004,1.432040e-004
7.227497e-004,1.457970e-004
7.421976e-004,1.279698e-004
7.588904e-004,9.847395e-005
7.721797e-004,6.816773e-005
7.786624e-004,4.677511e-005
7.793106e-004,3.915804e-005
7.780141e-004,4.256141e-005
7.789865e-004,5.325772e-005
7.763934e-004,6.816773e-005
7.519216e-004,8.388807e-005
6.887161e-004,9.247753e-005
5.892079e-004,8.534666e-005
4.713863e-004,6.233338e-005
3.577785e-004,3.008238e-005
2.749631e-004,-1.682422e-006
2.384984e-004,-2.583015e-005
2.425500e-004,-3.685059e-005
2.658874e-004,-3.458168e-005
2.817698e-004,-2.242678e-005
2.683184e-004,-5.571990e-006
2.057612e-004,1.257933e-005
9.263960e-005,2.959618e-005
-5.240886e-005,4.126489e-005
-1.959987e-004,4.985435e-005
-3.076617e-004,5.860587e-005
-3.775118e-004,7.205730e-005
-4.186764e-004,8.875003e-005
-4.481723e-004,1.069013e-004
-4.854473e-004,1.210010e-004
-5.217499e-004,1.287802e-004
-5.005194e-004,1.294284e-004
-3.650328e-004,1.271595e-004
-1.297140e-004,1.226217e-004
1.132219e-004,1.198666e-004
2.500050e-004,1.213252e-004
2.219677e-004,1.273216e-004
6.152305e-005,1.385041e-004
-1.344139e-004,1.551968e-004
-2.703867e-004,1.736723e-004
-2.990722e-004,1.864754e-004
-2.361909e-004,1.859892e-004
-1.366828e-004,1.680000e-004
-5.565017e-005,1.318594e-004
-3.020592e-005,8.145709e-005
-6.942573e-005,3.834771e-005
-1.452723e-004,1.906194e-005
-2.086398e-004,2.797553e-005
-2.292221e-004,5.098881e-005
-2.031296e-004,6.444023e-005
-1.501342e-004,5.617490e-005
-9.956987e-005,2.392390e-005
-6.942573e-005,-2.712668e-005
-6.229485e-005,-7.866345e-005
-6.812920e-005,-1.118868e-004
-7.655659e-005,-1.199901e-004
-8.141856e-005,-1.079973e-004
-7.979790e-005,-8.060822e-005
-6.683268e-005,-5.078821e-005
-4.106429e-005,-3.150244e-005
-1.043395e-005,-3.004385e-005
9.500084e-006,-4.284701e-005
1.371378e-005,-5.710876e-005
8.203561e-006,-5.759496e-005
5.772582e-006,-4.284701e-005
2.197911e-005,-1.950961e-005
6.411610e-005,3.989864e-006
1.203528e-004,1.792748e-005
1.563313e-004,1.727922e-005
1.388282e-004,4.151929e-006
6.362990e-005,-2.177852e-005
-3.522994e-005,-5.775702e-005
-1.071869e-004,-8.352540e-005
-1.115627e-004,-7.526008e-005
-3.830918e-005,-3.344722e-005
8.583285e-005,1.517237e-005
2.169437e-004,4.191315e-005
3.200173e-004,4.239934e-005
3.799814e-004,4.013043e-005
3.981328e-004,6.217131e-005
3.897054e-004,1.070634e-004
3.744712e-004,1.477418e-004
3.628025e-004,1.555209e-004
3.543751e-004,1.200286e-004
3.449753e-004,5.504044e-005
3.169380e-004,-1.724069e-005
2.415776e-004,-7.752898e-005
9.588090e-005,-1.143178e-004
-1.199901e-004,-1.190177e-004
-3.604950e-004,-9.389758e-005
-5.525423e-004,-4.284701e-005
-6.499436e-004,2.392390e-005
-6.609640e-004,9.490851e-005
-6.403818e-004,1.626518e-004
-6.567503e-004,2.211574e-004
-7.569067e-004,2.647530e-004
-9.424714e-004,2.889007e-004
-1.164501e-003,2.880904e-004
-1.351848e-003,2.641047e-004
-1.446008e-003,2.239125e-004
-1.409868e-003,1.738343e-004
-1.241806e-003,1.250527e-004
-9.782878e-004,8.421220e-005
-6.797636e-004,5.439218e-005
-4.027940e-004,3.137890e-005
-1.859507e-004,1.387585e-005
-4.122636e-005,3.341602e-006
4.239934e-005,-6.176923e-008
8.729143e-005,2.369210e-006
1.156529e-004,6.582909e-006
1.443384e-004,7.717366e-006
1.762653e-004,6.420843e-006
2.054371e-004,3.827798e-006
2.185644e-004,-1.196226e-006
2.137024e-004,-5.247859e-006
1.986303e-004,-4.275467e-006
1.814514e-004,2.045080e-006
1.668655e-004,9.175954e-006
1.561692e-004,4.638125e-006
1.485521e-004,-1.886135e-005
1.449867e-004,-5.937767e-005
1.464453e-004,-1.076731e-004
1.526038e-004,-1.502963e-004
1.607070e-004,-1.760647e-004
1.731861e-004,-1.802784e-004
1.911753e-004,-1.666649e-004
2.148369e-004,-1.438137e-004
2.474120e-004,-1.198280e-004
2.931144e-004,-9.746302e-005
3.556717e-004,-7.688072e-005
4.269804e-004,-6.018800e-005
4.884032e-004,-5.095028e-005
5.200059e-004,-4.706071e-005
5.086614e-004,-4.236081e-005
4.533971e-004,-3.344722e-005
3.767402e-004,-2.372330e-005
3.049452e-004,-1.724069e-005
2.563256e-004,-1.270286e-005
2.394708e-004,-6.220251e-006
2.495188e-004,1.558884e-006
2.748010e-004,8.041497e-006
3.039728e-004,1.322759e-005
3.247172e-004,1.630683e-005
3.363859e-004,1.679302e-005
3.451374e-004,1.079661e-005
3.572923e-004,-2.168618e-006
3.712299e-004,-1.124428e-005
3.850055e-004,-9.623623e-006
3.989431e-004,3.665733e-006
4.195254e-004,2.522042e-005
4.449697e-004,5.358185e-005
4.668485e-004,9.004655e-005
4.762483e-004,1.349386e-004
4.791655e-004,1.809652e-004
4.825688e-004,2.159713e-004
4.849998e-004,2.300710e-004
4.752759e-004,2.237504e-004
4.397836e-004,2.104611e-004
3.794953e-004,1.992786e-004
3.138588e-004,1.929580e-004
2.611876e-004,1.895547e-004
2.305572e-004,1.850168e-004
2.196988e-004,1.746447e-004
2.138645e-004,1.556830e-004
1.973338e-004,1.295905e-004
1.621656e-004,1.018773e-004
1.059289e-004,7.951231e-005
3.591673e-005,7.011251e-005
-3.117831e-005,7.772959e-005
-8.547019e-005,9.652916e-005
-1.313347e-004,1.218114e-004
-1.757406e-004,1.410971e-004
-2.225774e-004,1.432040e-004
-2.686040e-004,1.273216e-004
-3.091203e-004,9.847395e-005
-3.400748e-004,6.525056e-005
-3.604950e-004,3.705119e-005
-3.700568e-004,2.068259e-005
-3.703810e-004,1.889987e-005
-3.676258e-004,2.667901e-005
-3.692465e-004,3.964423e-005
-3.794566e-004,5.520250e-005
-3.925839e-004,7.238143e-005
-3.963114e-004,8.891209e-005
-3.864254e-004,9.701536e-005
-3.634122e-004,9.409818e-005
-3.235441e-004,8.161915e-005
-2.635799e-004,6.281957e-005
-1.898402e-004,4.304760e-005
-1.139937e-004,2.813760e-005
-4.171255e-005,2.765140e-005
2.133085e-005,4.353380e-005
7.465034e-005,6.930219e-005
1.222975e-004,8.891209e-005
1.649207e-004,8.664317e-005
2.010613e-004,5.990240e-005
2.318537e-004,1.760335e-005
2.529222e-004,-2.550602e-005
2.619979e-004,-5.613637e-005
2.645909e-004,-7.347736e-005
2.694529e-004,-8.093235e-005
2.723700e-004,-8.336334e-005
2.679943e-004,-8.206682e-005
2.521119e-004,-7.752898e-005
2.258573e-004,-7.218083e-005
1.945787e-004,-6.829127e-005
1.615174e-004,-6.553616e-005
1.252147e-004,-6.261898e-005
8.518459e-005,-5.678463e-005
3.948217e-005,-4.738484e-005
-1.010982e-005,-3.263690e-005
-5.565017e-005,-1.788895e-005
-8.871149e-005,-1.092015e-005
-1.114006e-004,-9.785687e-006
-1.292278e-004,-7.354708e-006
-1.470550e-004,5.864920e-007
-1.574272e-004,1.517237e-005
-1.477033e-004,3.218923e-005
-1.083214e-004,4.369587e-005
-4.365734e-005,4.677511e-005
3.218923e-005,4.272347e-005
1.047945e-004,3.624086e-005
1.620035e-004,3.380988e-005
1.960373e-004,3.478227e-005
2.052750e-004,3.883391e-005
1.893926e-004,4.239934e-005
1.466074e-004,4.142695e-005
7.870197e-005,3.413401e-005
-7.840905e-006,2.489629e-005
-9.649063e-005,1.954813e-005
-1.618029e-004,2.133085e-005
-1.862748e-004,2.975825e-005
-1.710407e-004,4.256141e-005
-1.272830e-004,5.649903e-005
-7.007398e-005,7.011251e-005
-1.416145e-005,8.599491e-005
2.716520e-005,9.944633e-005
4.774750e-005,1.046324e-004
5.001641e-005,1.015532e-004
3.769945e-005,9.620503e-005
9.824214e-006,9.247753e-005
-4.090223e-005,9.215340e-005
-1.170729e-004,9.490851e-005
-2.151224e-004,9.912220e-005
-3.134960e-004,1.070634e-004
-3.768636e-004,1.174356e-004
-3.849668e-004,1.287802e-004
-3.402368e-004,1.375317e-004
-2.695764e-004,1.415833e-004
-2.010227e-004,1.432040e-004
-1.517549e-004,1.436902e-004
-1.256624e-004,1.457970e-004
-1.086455e-004,1.490383e-004
-8.206682e-005,1.482280e-004
-3.036798e-005,1.391524e-004
4.855782e-005,1.232699e-004
1.393144e-004,1.059289e-004
2.161334e-004,9.312579e-005
2.595669e-004,8.875003e-005
2.662116e-004,9.458438e-005
2.487085e-004,1.049566e-004
2.242366e-004,1.072255e-004
2.030061e-004,9.069480e-005
1.866375e-004,5.714729e-005
1.654069e-004,1.517237e-005
1.278078e-004,-2.339917e-005
6.849186e-005,-4.932962e-005
-5.896120e-006,-5.970180e-005
-8.417366e-005,-5.921561e-005
-1.559686e-004,-5.451571e-005
-2.237119e-004,-4.770897e-005
-3.005308e-004,-3.992984e-005
-3.946908e-004,-3.166451e-005
-4.990608e-004,-1.983374e-005
-5.971103e-004,-3.465141e-006
-6.633950e-004,1.727922e-005
-6.757120e-004,3.753739e-005
-6.350335e-004,5.017848e-005
-5.551354e-004,4.742337e-005
-4.481723e-004,2.278944e-005
-3.248406e-004,-1.967167e-005
-1.956746e-004,-6.586029e-005
-7.072224e-005,-9.875954e-005
4.402000e-005,-1.104282e-004
1.419075e-004,-1.007043e-004
2.219677e-004,-8.109442e-005
2.911697e-004,-6.699474e-005
3.585888e-004,-6.391550e-005
4.266563e-004,-7.023605e-005
4.908342e-004,-8.449779e-005
5.451261e-004,-1.058904e-004
5.871010e-004,-1.298761e-004
6.172452e-004,-1.535376e-004
6.378275e-004,-1.789819e-004
6.528996e-004,-1.995642e-004
6.637580e-004,-2.086398e-004
6.767232e-004,-2.005366e-004
6.909849e-004,-1.734716e-004
6.953607e-004,-1.284175e-004
6.781818e-004,-7.461181e-005
6.404205e-004,-2.647842e-005
5.943940e-004,7.069104e-006
5.605223e-004,3.073064e-005
5.593878e-004,5.163707e-005
5.977973e-004,7.351588e-005
6.733198e-004,9.847395e-005
7.715315e-004,1.252147e-004
8.679605e-004,1.488763e-004
9.311660e-004,1.663793e-004
9.301936e-004,1.791825e-004
8.478643e-004,1.893926e-004
6.781818e-004,1.947408e-004
4.333010e-004,1.953890e-004
1.401247e-004,1.942546e-004
-1.817370e-004,1.884202e-004
-5.019780e-004,1.803169e-004
-7.797579e-004,1.761032e-004
-9.734259e-004,1.816135e-004
-1.055107e-003,1.957131e-004
-1.021397e-003,2.075439e-004
-8.889899e-004,2.030061e-004
-6.937012e-004,1.759412e-004
-4.843129e-004,1.297525e-004
-3.047445e-004,7.367795e-005
-1.760647e-004,2.019640e-005
-1.000561e-004,-1.788895e-005
-7.072224e-005,-3.685059e-005
-8.514606e-005,-3.749886e-005
-1.355484e-004,-2.485776e-005
-2.060468e-004,-5.409925e-006
-2.674695e-004,1.484824e-005
-2.916172e-004,3.024445e-005
-2.692523e-004,4.369587e-005
-2.117190e-004,5.423011e-005
-1.442999e-004,6.168512e-005
-8.935975e-005,6.492643e-005
-5.467778e-005,6.249544e-005
-3.814712e-005,5.471631e-005
-3.296103e-005,4.709924e-005
-3.911951e-005,4.596478e-005
-5.710876e-005,5.504044e-005
-7.931171e-005,6.849186e-005
-9.081834e-005,7.740545e-005
-8.514606e-005,7.432621e-005
-6.018800e-005,6.168512e-005
-1.594417e-005,4.661304e-005
4.126489e-005,3.413401e-005
1.007429e-004,2.197911e-005
1.540623e-004,9.338019e-006
2.065715e-004,1.072688e-006
2.681563e-004,-2.006553e-006
3.480546e-004,-1.358292e-006
4.427008e-004,2.623614e-007
5.342677e-004,-3.858999e-007
6.026593e-004,-3.465141e-006
6.306966e-004,-1.010982e-005
6.107626e-004,-2.064406e-005
5.529052e-004,-3.182657e-005
4.809482e-004,-3.749886e-005
4.125566e-004,-3.441962e-005
3.610198e-004,-2.501983e-005
3.274723e-004,-2.113026e-005
3.007315e-004,-2.696461e-005
2.595669e-004,-3.976777e-005
1.879340e-004,-4.981582e-005
8.518459e-005,-5.111234e-005
-3.652646e-005,-4.381940e-005
-1.569410e-004,-3.231276e-005
-2.614731e-004,-2.064406e-005
-3.520676e-004,-1.237873e-005
-4.489826e-004,-9.947754e-006
-5.810658e-004,-1.934754e-005
-7.633893e-004,-4.122636e-005
-9.760189e-004,-6.569822e-005
-1.171794e-003,-8.093235e-005
-1.290263e-003,-7.995997e-005
-1.287346e-003,-6.051213e-005
-1.144405e-003,-2.664048e-005
-8.880175e-004,9.824214e-006
-5.812279e-004,3.753739e-005
-2.943724e-004,5.147500e-005
-7.671866e-005,5.471631e-005
4.450619e-005,5.131293e-005
7.059870e-005,4.337174e-005
3.445814e-005,3.397195e-005
-2.031993e-005,2.230324e-005
-5.662256e-005,1.014835e-005
-5.467778e-005,-2.238345e-007
-1.124428e-005,-7.516774e-006
6.638501e-005,-8.489165e-006
1.623277e-004,-6.176923e-008
2.581083e-004,1.841368e-005
3.477304e-004,4.142695e-005
4.279528e-004,6.541262e-005
4.924549e-004,8.761556e-005
5.305402e-004,1.088461e-004
5.454502e-004,1.302387e-004
5.606844e-004,1.467694e-004
5.952043e-004,1.592484e-004
6.365310e-004,1.702689e-004
6.514410e-004,1.808031e-004
6.127074e-004,1.867996e-004
5.235714e-004,1.869616e-004
4.157979e-004,1.798307e-004
3.281205e-004,1.714033e-004
2.895490e-004,1.686482e-004
3.192069e-004,1.736723e-004
4.107739e-004,1.822617e-004
5.323229e-004,1.900409e-004
6.360448e-004,1.937684e-004
6.857989e-004,1.923098e-004
6.783438e-004,1.900409e-004
6.300483e-004,1.892305e-004
5.616568e-004,1.913374e-004
4.911583e-004,1.963614e-004
4.284390e-004,2.033302e-004
3.658818e-004,2.083542e-004
2.867939e-004,2.090025e-004
1.835582e-004,1.970097e-004
6.233338e-005,1.667035e-004
-6.310517e-005,1.214872e-004
-1.867610e-004,6.703327e-005
-3.078238e-004,1.727922e-005
-4.155972e-004,-6.868512e-006
-4.977643e-004,7.879431e-006
-5.578905e-004,5.115087e-005
-6.092652e-004,9.296372e-005
-6.713362e-004,1.127357e-004
-7.601480e-004,1.072255e-004
-8.831555e-004,8.696730e-005
-1.032904e-003,6.427816e-005
-1.181031e-003,4.855782e-005
-1.281836e-003,3.850977e-005
-1.300960e-003,2.829966e-005
-1.228193e-003,1.744128e-005
-1.081848e-003,7.879431e-006
-8.917450e-004,3.503668e-006
-6.930529e-004,2.693341e-006
-5.097571e-004,-2.168618e-006
-3.557951e-004,-1.821308e-005
-2.327876e-004,-4.641245e-005
-1.336036e-004,-7.801519e-005
-5.062615e-005,-1.016767e-004
2.165498e-005,-1.130213e-004
8.486046e-005,-1.141557e-004
1.404489e-004,-1.105903e-004
1.895547e-004,-1.065387e-004
2.305572e-004,-1.016767e-004
2.602152e-004,-9.811128e-005
2.783665e-004,-9.827335e-005
2.931144e-004,-1.052422e-004
3.201793e-004,-1.164247e-004
3.741471e-004,-1.326312e-004
4.626348e-004,-1.489998e-004
5.754323e-004,-1.583996e-004
6.856368e-004,-1.556445e-004
7.597007e-004,-1.402483e-004
7.707211e-004,-1.141557e-004
7.063812e-004,-8.384953e-005
5.804563e-004,-5.743289e-005
4.266563e-004,-4.122636e-005
2.895490e-004,-3.717472e-005
1.979821e-004,-3.782299e-005
1.581140e-004,-3.231276e-005
1.595726e-004,-1.950961e-005
1.885823e-004,-8.327101e-006
2.290986e-004,-1.196226e-006
2.715597e-004,3.665733e-006
3.047831e-004,1.014835e-005
3.264999e-004,2.068259e-005
3.441650e-004,2.813760e-005
3.593991e-004,2.554455e-005
3.709058e-004,1.355172e-005
3.807918e-004,-2.654814e-006
3.874364e-004,-1.626830e-005
3.879227e-004,-2.793700e-005
3.863020e-004,-3.571614e-005
3.867882e-004,-3.652646e-005
3.911640e-004,-3.053005e-005
3.958639e-004,-1.950961e-005
4.002396e-004,-6.544382e-006
3.994293e-004,6.258778e-006
3.945674e-004,1.711715e-005
3.931088e-004,2.505835e-005
4.055878e-004,3.218923e-005
4.360561e-004,3.753739e-005
4.830550e-004,4.434413e-005
5.316746e-004,5.374392e-005
5.600361e-004,6.346784e-005
5.556603e-004,7.157111e-005
5.198439e-004,8.421220e-005
4.546936e-004,1.075496e-004
3.546993e-004,1.490383e-004
2.119197e-004,2.119197e-004
2.457216e-005,2.876042e-004
-1.833576e-004,3.600474e-004
-3.679500e-004,4.055878e-004
-4.762096e-004,4.088291e-004
-4.770199e-004,3.676645e-004
-3.844807e-004,2.939247e-004
-2.511009e-004,2.075439e-004
-1.412206e-004,1.286181e-004
-9.746302e-005,7.043664e-005
-1.216107e-004,3.640293e-005
-1.924333e-004,2.311357e-005
-2.851347e-004,2.149292e-005
-3.904771e-004,1.873781e-005
-5.152673e-004,9.175954e-006
-6.658260e-004,-7.516774e-006
-8.251361e-004,-2.745081e-005
-9.479817e-004,-4.041603e-005
-9.825015e-004,-4.122636e-005
-9.006585e-004,-3.085418e-005
-7.220627e-004,-1.788895e-005
-4.963057e-004,-8.489165e-006
-2.830278e-004,-5.247859e-006
-1.250141e-004,-6.544382e-006
-4.203669e-005,-8.489165e-006
-4.090223e-005,-1.140634e-005
-1.230693e-004,-1.189254e-005
-2.707108e-004,-7.192643e-006
-4.379622e-004,2.693341e-006
-5.744212e-004,1.095867e-005
-6.457299e-004,1.711715e-005
-6.481609e-004,2.197911e-005
-5.987309e-004,2.246531e-005
-5.219121e-004,1.549650e-005
-4.300210e-004,4.151929e-006
-3.160891e-004,-5.247859e-006
-1.710407e-004,-2.816880e-006
-1.140634e-005,1.193106e-005
1.342904e-004,3.218923e-005
2.464396e-004,4.904402e-005
3.258516e-004,5.309565e-005
3.743092e-004,3.964423e-005
3.926225e-004,1.857574e-005
3.811159e-004,-3.858999e-007
3.423823e-004,-1.464765e-005
2.931144e-004,-1.983374e-005
2.629703e-004,-1.027188e-005
2.731804e-004,9.662150e-006
3.242310e-004,2.927205e-005
3.960259e-004,4.045456e-005
4.636072e-004,4.175108e-005
5.070407e-004,3.591673e-005
5.185474e-004,2.975825e-005
5.015305e-004,2.684107e-005
4.658761e-004,2.149292e-005
4.132048e-004,2.045080e-006
3.501614e-004,-3.652646e-005
2.854973e-004,-8.822530e-005
2.252090e-004,-1.384655e-004
1.673517e-004,-1.726613e-004
1.070634e-004,-1.697441e-004
3.526847e-005,-1.208004e-004
-5.321919e-005,-3.911951e-005
-1.603444e-004,4.515445e-005
-2.720073e-004,1.111150e-004
-3.613053e-004,1.492004e-004
-4.014975e-004,1.644345e-004
-3.911253e-004,1.689724e-004
-3.457470e-004,1.723757e-004
-2.750866e-004,1.741585e-004
-1.878955e-004,1.714033e-004
-9.486997e-005,1.636242e-004
-7.516774e-006,1.571416e-004
7.043664e-005,1.569795e-004
1.346145e-004,1.634621e-004
1.824238e-004,1.718895e-004
2.156472e-004,1.761032e-004
2.394708e-004,1.741585e-004
2.590807e-004,1.657311e-004
2.756114e-004,1.577899e-004
2.910076e-004,1.534141e-004
3.044590e-004,1.529279e-004
3.148312e-004,1.521176e-004
3.216379e-004,1.441764e-004
3.261757e-004,1.261871e-004
3.324963e-004,1.069013e-004
3.420582e-004,9.101894e-005
3.475684e-004,7.967437e-005
3.386548e-004,6.784360e-005
3.143450e-004,5.585077e-005
2.913317e-004,4.855782e-005
2.866318e-004,4.855782e-005
3.007315e-004,5.212327e-005
3.175863e-004,5.309565e-005
3.151553e-004,4.920609e-005
2.809595e-004,4.077869e-005
2.184023e-004,2.943412e-005
1.218114e-004,1.646889e-005
-8.165034e-006,4.476060e-006
-1.504584e-004,-5.571990e-006
-2.765452e-004,-1.480971e-005
-3.664914e-004,-2.404744e-005
-4.172178e-004,-3.409548e-005
-4.300210e-004,-4.479180e-005
-4.024699e-004,-5.710876e-005
-3.381300e-004,-7.056018e-005
-2.475355e-004,-8.368747e-005
-1.472171e-004,-9.568031e-005
-5.159854e-005,-1.036215e-004
3.640293e-005,-1.073490e-004
1.180839e-004,-1.118868e-004
1.950649e-004,-1.240417e-004
2.652392e-004,-1.421931e-004
3.248792e-004,-1.606685e-004
3.720402e-004,-1.741199e-004
4.068843e-004,-1.781715e-004
4.279528e-004,-1.760647e-004
4.352457e-004,-1.665028e-004
4.276287e-004,-1.446240e-004
3.958639e-004,-1.104282e-004
3.268240e-004,-7.137050e-005
2.211574e-004,-3.312309e-005
9.458438e-005,5.934647e-006
-3.377135e-005,4.320967e-005
-1.520790e-004,7.173317e-005
-2.621213e-004,8.453633e-005
-3.656811e-004,8.242948e-005
-4.570859e-004,6.930219e-005
-5.296912e-004,5.341978e-005
-5.791211e-004,4.726130e-005
-6.035930e-004,6.411610e-005
-5.982447e-004,1.094944e-004
-5.569181e-004,1.717275e-004
-4.802612e-004,2.295848e-004
-3.710292e-004,2.696149e-004
-2.334358e-004,2.916558e-004
-7.931171e-005,2.968419e-004
7.011251e-005,2.908455e-004
1.968476e-004,2.795009e-004
2.948972e-004,2.657254e-004
3.752816e-004,2.461155e-004
4.525867e-004,2.209953e-004
5.287575e-004,1.913374e-004
5.992559e-004,1.608691e-004
6.561409e-004,1.331559e-004
6.903367e-004,1.133840e-004
6.964952e-004,1.054428e-004
6.757508e-004,9.928427e-005
6.305345e-004,8.842590e-005
5.663566e-004,7.189524e-005
4.908342e-004,5.568870e-005
4.060740e-004,4.661304e-005
3.136967e-004,4.969228e-005
2.159713e-004,6.265751e-005
1.114392e-004,7.481241e-005
-3.951337e-006,7.886404e-005
-1.274451e-004,6.865393e-005
-2.410529e-004,4.839576e-005
-3.253268e-004,2.570661e-005
-3.788084e-004,9.175954e-006
-4.162455e-004,-6.176923e-008
-4.455793e-004,-8.327101e-006
-4.598410e-004,-1.967167e-005
-4.455793e-004,-3.652646e-005
-3.959873e-004,-5.192267e-005
-3.220855e-004,-6.245691e-005
-2.405667e-004,-6.699474e-005
-1.681235e-004,-6.602235e-005
-1.173971e-004,-6.375343e-005
-8.433573e-005,-6.456376e-005
-6.099833e-005,-6.650855e-005
-3.895744e-005,-6.812920e-005
-1.302699e-005,-7.072224e-005
1.193106e-005,-7.574627e-005
2.910999e-005,-8.417366e-005
3.786152e-005,-9.616650e-005
3.624086e-005,-1.107524e-004
1.630683e-005,-1.237176e-004
-2.664048e-005,-1.295519e-004
-9.179074e-005,-1.251762e-004
-1.731475e-004,-1.136696e-004
-2.562870e-004,-1.007043e-004
-3.104168e-004,-9.114247e-005
-3.034480e-004,-8.579432e-005
-2.264670e-004,-8.125648e-005
-9.405964e-005,-7.736692e-005
5.001641e-005,-7.380149e-005
1.611932e-004,-6.634648e-005
2.114335e-004,-5.176060e-005
2.033302e-004,-3.441962e-005
1.598967e-004,-1.983374e-005
1.111150e-004,-1.189254e-005
7.789165e-005,-1.027188e-005
6.573675e-005,-1.108221e-005
5.666109e-005,-9.623623e-006
2.327564e-005,-6.706447e-006
-5.516398e-005,-4.923729e-006
-1.669890e-004,-3.627206e-006
-2.775176e-004,-1.682422e-006
-3.480160e-004,-3.951337e-006
-3.574157e-004,-1.221667e-005
-3.123616e-004,-2.031993e-005
-2.532078e-004,-2.161646e-005
-2.420253e-004,-9.947754e-006
-3.177098e-004,1.452411e-005
-4.572480e-004,4.320967e-005
-5.894932e-004,6.670914e-005
-6.327647e-004,8.194328e-005
-5.473563e-004,8.648111e-005
-3.579019e-004,8.178122e-005
-1.451102e-004,7.432621e-005
-5.247859e-006,7.027457e-005
1.128280e-005,7.027457e-005
-5.791909e-005,6.687120e-005
-1.191798e-004,5.779555e-005
-8.530812e-005,4.256141e-005
6.589881e-005,2.327564e-005
2.890628e-004,2.693341e-006
4.976409e-004,-1.254080e-005
6.187038e-004,-2.015787e-005
6.224313e-004,-2.177852e-005
5.321608e-004,-1.772689e-005
4.013741e-004,-4.599598e-006
2.795009e-004,2.181705e-005
1.809652e-004,5.925414e-005
7.983643e-005,9.977046e-005
-5.824321e-005,1.351007e-004
-2.486699e-004,1.621656e-004
-4.632444e-004,1.822617e-004
-6.326025e-004,2.005751e-004
-6.912702e-004,2.268297e-004
-6.191512e-004,2.598910e-004
-4.444448e-004,2.931144e-004
-2.199844e-004,3.219621e-004
-2.654814e-006,3.452995e-004
1.704310e-004,3.616681e-004
2.885766e-004,3.629646e-004
3.611819e-004,3.477304e-004
4.047775e-004,3.172621e-004
4.308700e-004,2.741528e-004
4.454558e-004,2.188885e-004
4.525867e-004,1.594105e-004
4.506420e-004,1.120874e-004
4.383250e-004,9.280166e-005
4.185530e-004,1.030118e-004
3.958639e-004,1.269974e-004
3.734988e-004,1.391524e-004
3.569682e-004,1.278078e-004
3.451374e-004,9.458438e-005
3.315239e-004,5.131293e-005
3.154794e-004,8.689757e-006
2.981384e-004,-1.756482e-005
2.809595e-004,-2.518189e-005
2.673460e-004,-2.048200e-005
2.598910e-004,-9.947754e-006
2.558394e-004,3.503668e-006
2.527601e-004,1.695509e-005
2.516257e-004,2.230324e-005
2.513016e-004,1.355172e-005
2.501671e-004,-2.006553e-006
2.483844e-004,-1.335112e-005
2.466016e-004,-9.947754e-006
2.430362e-004,1.031041e-005
2.363915e-004,3.899597e-005
2.242366e-004,5.439218e-005
2.065715e-004,4.029249e-005
1.855030e-004,-1.682422e-006
1.655690e-004,-5.775702e-005
1.504969e-004,-1.104282e-004
1.435281e-004,-1.530514e-004
1.417454e-004,-1.831956e-004
1.456350e-004,-1.953505e-004
1.560071e-004,-1.917850e-004
1.680000e-004,-1.828714e-004
1.765894e-004,-1.809267e-004
1.785342e-004,-1.898402e-004
1.777239e-004,-2.062088e-004
1.772377e-004,-2.224154e-004
1.798307e-004,-2.272773e-004
1.856651e-004,-2.135018e-004
1.919856e-004,-1.815749e-004
1.978200e-004,-1.316588e-004
1.961993e-004,-6.731887e-005
1.808031e-004,4.313994e-006
1.519555e-004,7.448828e-005
1.182459e-004,1.401247e-004
9.004655e-005,1.961993e-004
7.416414e-005,2.380122e-004
7.221937e-005,2.642668e-004
8.048469e-005,2.738286e-004
8.972242e-005,2.626462e-004
9.085687e-005,2.252090e-004
8.048469e-005,1.626518e-004
6.476436e-005,9.134307e-005
5.082674e-005,2.992031e-005
4.288554e-005,-1.043395e-005
3.591673e-005,-2.988179e-005
3.170303e-005,-3.425755e-005
3.607880e-005,-2.647842e-005
5.001641e-005,-1.075808e-005
6.444023e-005,9.338019e-006
6.703327e-005,3.040651e-005
5.358185e-005,5.196120e-005
2.700314e-005,7.254349e-005
-1.027188e-005,9.166720e-005
-5.743289e-005,1.107909e-004
-1.149661e-004,1.284560e-004
-1.945401e-004,1.398006e-004
-3.057169e-004,1.423936e-004
-4.352071e-004,1.393144e-004
-5.525423e-004,1.341283e-004
-6.266062e-004,1.279698e-004
-6.376266e-004,1.193804e-004
-5.856036e-004,1.081979e-004
-4.904713e-004,9.863601e-005
-3.810773e-004,9.717742e-005
-2.786520e-004,1.020394e-004
-1.940539e-004,1.012291e-004
-1.266348e-004,8.437427e-005
-7.266703e-005,5.293359e-005
-2.631635e-005,1.954813e-005
2.068259e-005,1.396819e-006
6.411610e-005,5.286386e-006
9.037068e-005,2.100672e-005
9.701536e-005,3.494434e-005
8.567078e-005,4.191315e-005
5.909207e-005,4.061663e-005
1.841368e-005,3.380988e-005
-2.647842e-005,2.327564e-005
-5.419158e-005,9.500084e-006
-5.483985e-005,-8.651231e-006
-3.830918e-005,-2.712668e-005
-2.631635e-005,-4.219875e-005
-3.814712e-005,-4.949169e-005
-7.428768e-005,-4.689864e-005
-1.180453e-004,-3.231276e-005
-1.536997e-004,-1.156841e-005
-1.702303e-004,3.665733e-006
-1.645580e-004,5.286386e-006
-1.434896e-004,-3.789271e-006
-1.193418e-004,-1.173047e-005
-1.015147e-004,-6.544382e-006
-9.665269e-005,9.662150e-006
-9.989400e-005,2.943412e-005
-1.054042e-004,4.158902e-005
-1.073490e-004,3.980630e-005
-1.031353e-004,2.505835e-005
-8.919769e-005,5.934647e-006
-6.245691e-005,-7.192643e-006
-1.513384e-005,-1.254080e-005
5.066468e-005,-1.432352e-005
1.278078e-004,-1.432352e-005
1.991165e-004,-1.464765e-005
2.391467e-004,-1.772689e-005
2.243987e-004,-2.420950e-005
1.383420e-004,-2.971972e-005
-2.226472e-005,-3.393342e-005
-2.342461e-004,-3.863331e-005
-4.410414e-004,-4.171255e-005
-5.684248e-004,-3.992984e-005
-5.591870e-004,-3.360929e-005
-4.133283e-004,-2.599222e-005
-1.810887e-004,-2.031993e-005
7.043664e-005,-1.626830e-005
2.893869e-004,-1.059601e-005
4.491834e-004,-1.358292e-006
5.457744e-004,9.662150e-006
5.843459e-004,1.857574e-005
5.764047e-004,2.295151e-005
5.350781e-004,2.765140e-005
4.715484e-004,3.964423e-005
3.856537e-004,5.990240e-005
2.767458e-004,8.242948e-005
1.534141e-004,1.022014e-004
3.040651e-005,1.151667e-004
-7.736692e-005,1.188942e-004
-1.582375e-004,1.124116e-004
-2.073433e-004,1.004187e-004
-2.240360e-004,8.745350e-005
-2.211188e-004,7.821578e-005
-2.201465e-004,7.076077e-005
-2.326255e-004,6.411610e-005
-2.441321e-004,5.925414e-005
-2.269532e-004,6.022653e-005
-1.588858e-004,7.092283e-005
-4.122636e-005,8.858796e-005
1.026876e-004,1.065772e-004
2.415776e-004,1.242423e-004
3.509718e-004,1.399627e-004
4.240632e-004,1.509831e-004
4.764104e-004,1.537382e-004
5.328091e-004,1.448246e-004
6.110867e-004,1.313732e-004
7.109190e-004,1.240803e-004
8.199890e-004,1.260251e-004
9.232247e-004,1.321835e-004
9.985853e-004,1.336421e-004
1.025650e-003,1.257009e-004
1.005230e-003,1.096565e-004
9.509380e-004,9.507057e-005
8.627743e-004,8.518459e-005
7.120535e-004,8.016056e-005
4.709001e-004,7.983643e-005
1.312111e-004,8.275361e-005
-3.015032e-004,8.534666e-005
-7.982333e-004,8.226741e-005
-1.292532e-003,7.367795e-005
-1.698020e-003,6.330577e-005
-1.935284e-003,5.568870e-005
-1.962187e-003,5.163707e-005
-1.791208e-003,5.098881e-005
-1.477773e-003,5.325772e-005
-1.104861e-003,5.747142e-005
-7.491275e-004,5.811968e-005
-4.624341e-004,5.520250e-005
-2.553146e-004,4.677511e-005
-1.120489e-004,3.559260e-005
-8.489165e-006,2.457216e-005
6.978838e-005,7.717366e-006
1.328318e-004,-1.837515e-005
1.937684e-004,-4.916756e-005
2.611876e-004,-7.833932e-005
3.320101e-004,-9.940780e-005
3.961880e-004,-1.092938e-004
4.412422e-004,-1.068628e-004
4.608521e-004,-9.665269e-005
4.555039e-004,-8.465986e-005
4.339492e-004,-7.655659e-005
4.057499e-004,-7.412562e-005
3.751195e-004,-7.623246e-005
3.443271e-004,-7.931171e-005
3.214759e-004,-8.547019e-005
3.153174e-004,-9.568031e-005
3.230965e-004,-1.063766e-004
3.401134e-004,-1.096179e-004
3.527545e-004,-1.007043e-004
3.436788e-004,-8.028410e-005
3.080244e-004,-5.532604e-005
2.551911e-004,-3.798505e-005
1.996027e-004,-3.652646e-005
1.496866e-004,-4.398147e-005
9.977046e-005,-5.289506e-005
3.510640e-005,-5.516398e-005
-5.159854e-005,-4.689864e-005
-1.426792e-004,-2.858526e-005
-2.058847e-004,-6.868512e-006
-2.110708e-004,9.986280e-006
-1.553203e-004,1.711715e-005
-5.727082e-005,1.922400e-005
5.893001e-005,2.408596e-005
1.720516e-004,3.332369e-005
2.684805e-004,4.077869e-005
3.431926e-004,4.029249e-005
3.952156e-004,2.813760e-005
4.277907e-004,3.989864e-006
4.422145e-004,-2.842320e-005
4.339492e-004,-5.759496e-005
3.978086e-004,-6.650855e-005
3.281205e-004,-4.608832e-005
2.232642e-004,-5.085794e-006
9.182927e-005,4.077869e-005
-4.074016e-005,7.870197e-005
-1.438137e-004,1.073875e-004
-1.898402e-004,1.292664e-004
-1.703924e-004,1.493625e-004
-9.584237e-005,1.660552e-004
1.396819e-006,1.830720e-004
8.972242e-005,2.020337e-004
1.428798e-004,2.222919e-004
1.553589e-004,2.391467e-004
1.417454e-004,2.449810e-004
1.231079e-004,2.350950e-004
1.109530e-004,2.057612e-004
1.070634e-004,1.592484e-004
1.028497e-004,1.049566e-004
8.810177e-005,5.828174e-005
6.411610e-005,3.024445e-005
4.029249e-005,1.727922e-005
2.197911e-005,8.689757e-006
9.175954e-006,-6.544382e-006
4.313994e-006,-3.134038e-005
3.827798e-006,-5.597430e-005
5.772582e-006,-6.926366e-005
6.582909e-006,-6.521203e-005
7.393235e-006,-4.641245e-005
5.448451e-006,-1.594417e-005
-3.141010e-006,2.327564e-005
-1.805102e-005,6.346784e-005
-3.976777e-005,1.012291e-004
-7.380149e-005,1.328318e-004
-1.256624e-004,1.543865e-004
-1.945401e-004,1.663793e-004
-2.661730e-004,1.726999e-004
-3.194925e-004,1.777239e-004
-3.399127e-004,1.824238e-004
-3.306750e-004,1.885823e-004
-3.050687e-004,1.957131e-004
-2.724935e-004,2.000889e-004
-2.374874e-004,2.044647e-004
-2.016710e-004,2.080301e-004
-1.695821e-004,2.086784e-004
-1.384655e-004,1.986303e-004
-1.028112e-004,1.749688e-004
-6.602235e-005,1.385041e-004
-3.182657e-005,9.733949e-005
3.989864e-006,6.071273e-005
4.612685e-005,3.591673e-005
9.280166e-005,1.889987e-005
1.357490e-004,6.744974e-006
1.782101e-004,-4.761663e-006
2.268297e-004,-1.254080e-005
2.835526e-004,-1.659243e-005
3.431926e-004,-2.177852e-005
3.974845e-004,-3.377135e-005
4.399456e-004,-5.111234e-005
4.691174e-004,-6.440169e-005
4.814344e-004,-6.974985e-005
4.700898e-004,-7.266703e-005
4.358940e-004,-7.785312e-005
3.882468e-004,-8.660465e-005
3.342790e-004,-9.373551e-005
2.728562e-004,-9.276313e-005
1.958752e-004,-8.660465e-005
9.458438e-005,-8.012203e-005
-2.096819e-005,-7.428768e-005
-1.243659e-004,-7.039811e-005
-1.883817e-004,-7.218083e-005
-1.966470e-004,-7.607040e-005
-1.488377e-004,-7.509801e-005
-6.375343e-005,-6.180866e-005
3.008238e-005,-3.766092e-005
1.056048e-004,-6.220251e-006
1.537382e-004,2.359977e-005
1.769136e-004,4.596478e-005
1.819376e-004,6.038860e-005
1.728619e-004,6.995045e-005
1.506590e-004,8.291567e-005
1.159770e-004,9.928427e-005
6.735740e-005,1.140322e-004
-3.789271e-006,1.205148e-004
-1.002181e-004,1.130598e-004
-2.220912e-004,9.312579e-005
-3.493125e-004,6.200925e-005
-4.473620e-004,2.457216e-005
-4.886886e-004,-1.659243e-005
-4.692408e-004,-5.257093e-005
-3.998769e-004,-6.602235e-005
-3.015032e-004,-4.819516e-005
-1.985918e-004,-3.789271e-006
-1.120489e-004,4.920609e-005
-5.613637e-005,8.972242e-005
-3.247483e-005,1.039842e-004
-3.733679e-005,9.215340e-005
-6.326724e-005,6.622294e-005
-9.875954e-005,4.191315e-005
-1.282554e-004,2.846173e-005
-1.410586e-004,2.473422e-005
-1.337657e-004,2.586868e-005
-1.143178e-004,3.299956e-005
-9.665269e-005,4.920609e-005
-8.822530e-005,7.384001e-005
-8.757703e-005,1.030118e-004
-9.195280e-005,1.271595e-004
-9.794922e-005,1.375317e-004
-1.011905e-004,1.336421e-004
-1.015147e-004,1.188942e-004
-9.956987e-005,9.701536e-005
-9.065627e-005,7.400208e-005
-7.104637e-005,5.309565e-005
-3.928157e-005,3.624086e-005
7.485573e-007,2.327564e-005
4.110282e-005,1.468617e-005
7.448828e-005,8.203561e-006
9.798775e-005,4.638125e-006
1.104668e-004,5.286386e-006
1.154908e-004,8.527692e-006
1.180839e-004,9.500084e-006
1.257009e-004,7.717366e-006
1.360731e-004,3.665733e-006
1.352628e-004,-1.844488e-006
1.197045e-004,-6.220251e-006
9.588090e-005,-8.651231e-006
7.043664e-005,-7.840905e-006
4.466826e-005,-6.058186e-006
2.084466e-005,-5.896120e-006
6.907039e-006,-9.785687e-006
6.744974e-006,-2.161646e-005
1.825161e-005,-3.879538e-005
3.591673e-005,-5.646050e-005
5.520250e-005,-6.667061e-005
6.930219e-005,-6.472583e-005
7.789165e-005,-5.710876e-005
8.340186e-005,-4.884343e-005
8.729143e-005,-4.203669e-005
8.696730e-005,-3.490581e-005
8.064676e-005,-2.988179e-005
6.379197e-005,-2.664048e-005
2.732727e-005,-2.550602e-005
-3.360929e-005,-2.631635e-005
-1.073490e-004,-2.647842e-005
-1.760647e-004,-2.988179e-005
-2.269532e-004,-3.458168e-005
-2.507768e-004,-3.620233e-005
-2.452666e-004,-3.279896e-005
-2.177155e-004,-2.339917e-005
-1.789819e-004,-9.947754e-006
-1.415448e-004,3.665733e-006
-1.130213e-004,1.452411e-005
-9.114247e-005,1.906194e-005
-7.444974e-005,2.003433e-005
-5.176060e-005,2.214118e-005
-1.416145e-005,2.910999e-005
3.769945e-005,4.158902e-005
9.733949e-005,5.536457e-005
1.564933e-004,6.622294e-005
2.159713e-004,7.367795e-005
2.804733e-004,8.016056e-005
3.534027e-004,8.891209e-005
4.350837e-004,9.928427e-005
5.217887e-004,1.088461e-004
5.995801e-004,1.169494e-004
6.485238e-004,1.247285e-004
6.580856e-004,1.342904e-004
6.300483e-004,1.445005e-004
5.898561e-004,1.516314e-004
5.632774e-004,1.539003e-004
5.619809e-004,1.550348e-004
5.801322e-004,1.551968e-004
5.999042e-004,1.529279e-004
5.977973e-004,1.451487e-004
5.490156e-004,1.271595e-004
4.459420e-004,1.004187e-004
3.130485e-004,7.059870e-005
2.101370e-004,4.239934e-005
2.070577e-004,1.419998e-005
3.350894e-004,-1.027188e-005
5.684635e-004,-2.210265e-005
8.316578e-004,-1.156841e-005
1.028567e-003,1.841368e-005
1.090638e-003,5.098881e-005
9.989094e-004,7.238143e-005
7.755831e-004,7.821578e-005
4.751138e-004,7.983643e-005
1.514693e-004,8.939829e-005
-1.720131e-004,1.025256e-004
-5.099192e-004,1.125736e-004
-8.902864e-004,1.175977e-004
-1.309063e-003,1.154908e-004
-1.712768e-003,1.077117e-004
-2.021178e-003,1.015532e-004
-2.157151e-003,1.046324e-004
-2.087301e-003,1.143563e-004
-1.840800e-003,1.219734e-004
-1.493331e-003,1.200286e-004
-1.130953e-003,1.093323e-004
-8.227052e-004,9.717742e-005
-5.990550e-004,9.328785e-005
-4.510895e-004,1.018773e-004
-3.481780e-004,1.133840e-004
-2.616351e-004,1.200286e-004
-1.778474e-004,1.159770e-004
-9.875954e-005,9.750155e-005
-2.404744e-005,6.735740e-005
5.552663e-005,2.975825e-005
1.514693e-004,-7.030578e-006
2.652392e-004,-3.701266e-005
3.966742e-004,-5.808115e-005
5.418848e-004,-6.699474e-005
6.867713e-004,-6.683268e-005
8.135064e-004,-6.521203e-005
8.961599e-004,-6.618442e-005
9.157698e-004,-6.829127e-005
8.697432e-004,-7.169464e-005
7.778521e-004,-7.785312e-005
6.678096e-004,-8.401160e-005
5.647360e-004,-8.255302e-005
4.759242e-004,-7.218083e-005
3.994293e-004,-5.824321e-005
3.232586e-004,-4.317114e-005
2.368777e-004,-3.020592e-005
1.415833e-004,-2.194059e-005
4.758544e-005,-1.513384e-005
-3.539201e-005,-3.141010e-006
-1.101041e-004,1.452411e-005
-1.869231e-004,3.364782e-005
-2.707108e-004,5.585077e-005
-3.624398e-004,7.416414e-005
-4.497929e-004,8.080882e-005
-5.065158e-004,7.659513e-005
-5.115398e-004,6.444023e-005
-4.674581e-004,5.487837e-005
-3.870737e-004,5.293359e-005
-2.804347e-004,5.260946e-005
-1.582375e-004,5.228533e-005
-3.652646e-005,5.050261e-005
7.335382e-005,5.212327e-005
1.665414e-004,5.455424e-005
2.467637e-004,5.552663e-005
3.149932e-004,5.568870e-005
3.731747e-004,5.698522e-005
4.200116e-004,5.974033e-005
4.512902e-004,6.751947e-005
4.660382e-004,7.951231e-005
4.668485e-004,8.729143e-005
4.538833e-004,8.307774e-005
4.282769e-004,6.914012e-005
3.981328e-004,5.487837e-005
3.663680e-004,4.337174e-005
3.349273e-004,3.834771e-005
3.002453e-004,3.721326e-005
2.607013e-004,4.094075e-005
2.216436e-004,4.693717e-005
1.921477e-004,5.017848e-005
1.757791e-004,4.677511e-005
1.667035e-004,3.445814e-005
1.566554e-004,1.841368e-005
1.386661e-004,5.448451e-006
1.072255e-004,1.396819e-006
6.395403e-005,7.231170e-006
8.041497e-006,1.792748e-005
-6.715681e-005,3.267542e-005
-1.655304e-004,4.855782e-005
-2.737901e-004,5.941620e-005
-3.580640e-004,6.379197e-005
-3.878840e-004,6.184718e-005
-3.541744e-004,5.828174e-005
-2.741142e-004,5.974033e-005
-1.794681e-004,6.444023e-005
-9.535618e-005,6.735740e-005
-3.636440e-005,6.525056e-005
-7.840905e-006,5.795762e-005
-7.678839e-006,4.807163e-005
-2.145439e-005,3.737532e-005
-3.360929e-005,2.878586e-005
-3.847125e-005,2.295151e-005
-3.134038e-005,1.971020e-005
-1.205460e-005,1.776542e-005
1.290346e-005,1.841368e-005
3.380988e-005,2.197911e-005
3.915804e-005,2.522042e-005
3.024445e-005,2.457216e-005
1.193106e-005,1.792748e-005
-3.627206e-006,5.286386e-006
-2.168618e-006,-1.237873e-005
2.716520e-005,-3.182657e-005
8.745350e-005,-4.819516e-005
1.707551e-004,-5.824321e-005
2.645909e-004,-5.953974e-005
3.522683e-004,-5.419158e-005
4.214702e-004,-4.884343e-005
4.602038e-004,-4.981582e-005
4.640934e-004,-5.646050e-005
4.405939e-004,-6.423963e-005
4.051016e-004,-7.088431e-005
3.689610e-004,-7.509801e-005
3.376824e-004,-7.266703e-005
3.098072e-004,-6.035006e-005
2.756114e-004,-4.317114e-005
2.253711e-004,-2.809907e-005
1.613553e-004,-1.869928e-005
1.013911e-004,-1.691656e-005
6.784360e-005,-2.080613e-005
6.687120e-005,-2.469570e-005
9.539470e-005,-2.129233e-005
1.391524e-004,-1.254080e-005
1.799928e-004,-2.492749e-006
1.927960e-004,8.851824e-006
1.551968e-004,2.165498e-005
4.661304e-005,3.154097e-005
-1.300381e-004,3.786152e-005
-3.465574e-004,4.466826e-005
-5.638869e-004,5.131293e-005
-7.411863e-004,5.504044e-005
-8.440978e-004,5.212327e-005
-8.577112e-004,4.596478e-005
-7.933713e-004,3.786152e-005
-6.886772e-004,3.137890e-005
-5.894932e-004,3.380988e-005
-5.262878e-004,4.904402e-005
-4.967919e-004,7.610893e-005
-4.692408e-004,1.086841e-004
-4.079801e-004,1.373696e-004
-3.070135e-004,1.564933e-004
-1.872472e-004,1.655690e-004
-7.007398e-005,1.623277e-004
2.846173e-005,1.485521e-004
9.960840e-005,1.336421e-004
1.423936e-004,1.268354e-004
1.594105e-004,1.287802e-004
1.610312e-004,1.302387e-004
1.592484e-004,1.219734e-004
1.571416e-004,1.005808e-004
1.479039e-004,7.011251e-005
1.234320e-004,4.045456e-005
9.053274e-005,2.327564e-005
6.362990e-005,2.473422e-005
5.131293e-005,3.867184e-005
5.666109e-005,5.747142e-005
7.481241e-005,7.497447e-005
9.798775e-005,8.972242e-005
1.177597e-004,9.604297e-005
1.244044e-004,8.631904e-005
1.140322e-004,6.168512e-005
9.182927e-005,3.899597e-005
7.124698e-005,3.364782e-005
6.168512e-005,4.645098e-005
7.108490e-005,6.622294e-005
9.328785e-005,8.016056e-005
1.197045e-004,8.016056e-005
1.482280e-004,6.784360e-005
1.754550e-004,5.293359e-005
1.960373e-004,4.823369e-005
2.153230e-004,6.265751e-005
2.423880e-004,9.328785e-005
2.756114e-004,1.357490e-004
2.867939e-004,1.835582e-004
2.461155e-004,2.248849e-004
1.624898e-004,2.504912e-004
7.967437e-005,2.542187e-004
4.953022e-005,2.350950e-004
9.328785e-005,1.976579e-004
1.932822e-004,1.496866e-004
3.028383e-004,1.025256e-004
3.777125e-004,6.281957e-005
3.906778e-004,3.316162e-005
3.446512e-004,1.501031e-005
2.644288e-004,9.013888e-006
1.704310e-004,1.112074e-005
7.011251e-005,1.257933e-005
-3.636440e-005,7.231170e-006
-1.509446e-004,-6.220251e-006
-2.639041e-004,-2.955766e-005
-3.604950e-004,-5.872941e-005
-4.191626e-004,-8.725291e-005
-4.264555e-004,-1.083214e-004
-3.869116e-004,-1.144799e-004
-3.206269e-004,-1.057284e-004
-2.467252e-004,-8.660465e-005
-1.911368e-004,-6.991192e-005
-1.874093e-004,-6.699474e-005
-2.648765e-004,-7.558420e-005
-4.279141e-004,-8.401160e-005
-6.347094e-004,-8.012203e-005
-7.970989e-004,-6.035006e-005
-8.317808e-004,-3.733679e-005
-7.027768e-004,-2.826113e-005
-4.248349e-004,-3.652646e-005
-5.856734e-005,-5.354332e-005
3.046211e-004,-6.456376e-005
5.749461e-004,-5.402952e-005
7.026537e-004,-2.145439e-005
6.883919e-004,2.181705e-005
5.791598e-004,5.844381e-005
4.391353e-004,7.691926e-005
3.282826e-004,7.302969e-005
2.728562e-004,5.520250e-005
2.722080e-004,3.526847e-005
3.041349e-004,2.295151e-005
3.427064e-004,2.149292e-005
3.691231e-004,2.295151e-005
3.730126e-004,2.505835e-005
3.532407e-004,3.105477e-005
3.205035e-004,3.915804e-005
2.918179e-004,4.758544e-005
2.769079e-004,5.649903e-005
2.764217e-004,6.249544e-005
2.842008e-004,6.330577e-005
2.882525e-004,5.795762e-005
2.803112e-004,5.034054e-005
2.628082e-004,4.207521e-005
2.419018e-004,3.510640e-005
2.213195e-004,2.878586e-005
1.994406e-004,2.116879e-005
1.696206e-004,1.808955e-005
1.302387e-004,1.922400e-005
8.972242e-005,2.149292e-005
5.617490e-005,2.311357e-005
3.380988e-005,2.603075e-005
2.505835e-005,3.640293e-005
2.586868e-005,5.455424e-005
2.992031e-005,7.302969e-005
2.700314e-005,8.842590e-005
1.095867e-005,9.669123e-005
-1.594417e-005,9.750155e-005
-4.090223e-005,9.426025e-005
-5.435365e-005,8.988448e-005
-5.694669e-005,8.680524e-005
-5.662256e-005,8.550872e-005
-5.986387e-005,8.405013e-005
-6.326724e-005,7.951231e-005
-6.164659e-005,7.157111e-005
-5.856734e-005,6.168512e-005
-5.775702e-005,4.969228e-005
-5.970180e-005,3.607880e-005
-6.002593e-005,2.424803e-005
-5.727082e-005,1.938607e-005
-5.451571e-005,2.230324e-005
-5.338126e-005,2.538249e-005
-5.402952e-005,2.586868e-005
-5.840528e-005,2.068259e-005
-6.780506e-005,1.468617e-005
-8.044616e-005,1.095867e-005
-9.276313e-005,9.986280e-006
-9.973194e-005,1.436204e-005
-9.940780e-005,1.663096e-005
-9.081834e-005,1.128280e-005
-7.639453e-005,-6.868512e-006
-6.504996e-005,-4.236081e-005
-6.099833e-005,-9.065627e-005
-6.326724e-005,-1.381414e-004
-6.537409e-005,-1.726613e-004
-6.488790e-005,-1.869231e-004
-5.629843e-005,-1.810887e-004
-3.911951e-005,-1.569410e-004
-1.837515e-005,-1.138316e-004
-2.492749e-006,-5.743289e-005
5.448451e-006,-8.720958e-007
4.800190e-006,3.996836e-005
-2.330684e-006,5.585077e-005
-1.416145e-005,4.790957e-005
-2.842320e-005,2.003433e-005
-4.689864e-005,-1.562004e-005
-6.958779e-005,-3.863331e-005
-9.179074e-005,-3.215070e-005
-1.084835e-004,-6.176923e-008
-1.149661e-004,3.850977e-005
-1.133454e-004,6.606088e-005
-1.110765e-004,7.416414e-005
-1.141557e-004,6.476436e-005
-1.229073e-004,4.256141e-005
-1.323070e-004,1.906194e-005
-1.339277e-004,8.527692e-006
-1.196660e-004,2.100672e-005
-8.773910e-005,4.726130e-005
-4.479180e-005,7.108490e-005
2.623614e-007,7.983643e-005
4.207521e-005,7.108490e-005
8.567078e-005,5.423011e-005
1.409351e-004,3.737532e-005
2.109473e-004,2.278944e-005
2.966798e-004,1.338965e-005
3.888950e-004,1.176900e-005
4.720346e-004,1.841368e-005
5.354022e-004,3.397195e-005
5.707324e-004,5.795762e-005
5.752702e-004,9.263960e-005
5.558224e-004,1.326697e-004
5.295678e-004,1.673517e-004
5.036373e-004,1.882581e-004
4.733311e-004,1.931201e-004
4.260080e-004,1.853410e-004
3.574544e-004,1.726999e-004
2.759355e-004,1.595726e-004
1.911753e-004,1.492004e-004
1.112771e-004,1.472556e-004
4.547859e-005,1.524417e-004
4.244267e-007,1.574657e-004
-2.583015e-005,1.526038e-004
-3.944364e-005,1.436902e-004
-4.625038e-005,1.386661e-004
-5.532604e-005,1.362352e-004
-7.623246e-005,1.351007e-004
-1.099420e-004,1.310491e-004
-1.496480e-004,1.231079e-004
-1.896782e-004,1.114392e-004
-2.258187e-004,9.912220e-005
-2.543422e-004,8.486046e-005
-2.661730e-004,6.832980e-005
-2.535319e-004,5.196120e-005
-2.170672e-004,3.721326e-005
-1.710407e-004,3.056858e-005
-1.363587e-004,3.850977e-005
-1.240417e-004,5.811968e-005
-1.345760e-004,7.902610e-005
-1.629374e-004,9.409818e-005
-1.984297e-004,1.022014e-004
-2.282497e-004,1.023635e-004
-2.384598e-004,9.620503e-005
-2.198223e-004,8.469840e-005
-1.742820e-004,7.108490e-005
-1.049180e-004,5.179913e-005
-2.064406e-005,2.489629e-005
6.022653e-005,-8.651231e-006
1.240803e-004,-4.365734e-005
1.631380e-004,-7.866345e-005
1.754550e-004,-1.076731e-004
1.616794e-004,-1.251762e-004
1.312111e-004,-1.284175e-004
8.583285e-005,-1.151281e-004
4.313994e-006,-8.952182e-005
-1.371690e-004,-6.213279e-005
-3.421816e-004,-3.847125e-005
-5.711798e-004,-2.307504e-005
-7.562584e-004,-1.837515e-005
-8.358325e-004,-2.064406e-005
-7.852681e-004,-2.404744e-005
-6.259579e-004,-2.550602e-005
-4.128421e-004,-2.453363e-005
-2.076674e-004,-1.950961e-005
-4.851930e-005,-1.513384e-005
5.909207e-005,-1.351319e-005
1.312111e-004,-1.092015e-005
1.829100e-004,-6.058186e-006
2.205091e-004,-1.358292e-006
2.504912e-004,4.476060e-006
2.793389e-004,1.193106e-005
3.062417e-004,1.808955e-005
3.264999e-004,2.165498e-005
3.376824e-004,1.679302e-005
3.357376e-004,7.555300e-006
3.205035e-004,1.396819e-006
2.867939e-004,3.665733e-006
2.321778e-004,1.663096e-005
1.548727e-004,3.850977e-005
5.649903e-005,6.557468e-005
-5.500191e-005,9.134307e-005
-1.575892e-004,1.135460e-004
-2.279256e-004,1.376937e-004
-2.507768e-004,1.649207e-004
-2.314910e-004,1.892305e-004
-1.930815e-004,2.041405e-004
-1.600202e-004,2.030061e-004
-1.363587e-004,1.825858e-004
-1.060525e-004,1.493625e-004
-4.057810e-005,1.145184e-004
7.448828e-005,9.134307e-005
2.260194e-004,8.777764e-005
3.838710e-004,1.034980e-004
5.164405e-004,1.266733e-004
6.078454e-004,1.430419e-004
6.567891e-004,1.511452e-004
6.657027e-004,1.542244e-004
6.368551e-004,1.519555e-004
5.778632e-004,1.457970e-004
5.049338e-004,1.295905e-004
4.380009e-004,1.000946e-004
3.887330e-004,6.265751e-005
3.603715e-004,2.716520e-005
3.581026e-004,-1.358292e-006
3.940811e-004,-2.210265e-005
4.749518e-004,-3.668853e-005
5.932595e-004,-3.928157e-005
7.318255e-004,-2.761287e-005
8.635846e-004,-8.165034e-006
9.559620e-004,1.128280e-005
9.768684e-004,2.376183e-005
8.992390e-004,2.554455e-005
7.097846e-004,1.938607e-005
4.219564e-004,7.717366e-006
8.599491e-005,-1.043395e-005
-2.438080e-004,-3.425755e-005
-5.360117e-004,-6.067420e-005
-7.766786e-004,-8.822530e-005
-9.515471e-004,-1.144799e-004
-1.044411e-003,-1.332795e-004
-1.047328e-003,-1.389517e-004
-9.534919e-004,-1.313347e-004
-7.745718e-004,-1.157764e-004
-5.527044e-004,-9.503204e-005
-3.546606e-004,-7.137050e-005
-2.357047e-004,-4.738484e-005
-2.177155e-004,-2.890940e-005
-2.796244e-004,-1.545797e-005
-3.731361e-004,-5.409925e-006
-4.439586e-004,4.151929e-006
-4.559515e-004,1.533444e-005
-4.110594e-004,2.716520e-005
-3.290543e-004,3.899597e-005
-2.227395e-004,5.050261e-005
-1.024870e-004,6.362990e-005
8.689757e-006,7.465034e-005
7.416414e-005,8.032263e-005
6.816773e-005,8.210535e-005
-6.176923e-008,8.032263e-005
-9.405964e-005,7.367795e-005
-1.611547e-004,6.395403e-005
-1.718510e-004,5.504044e-005
-1.263107e-004,5.001641e-005
-4.851930e-005,4.418206e-005
3.397195e-005,3.607880e-005
1.031738e-004,2.813760e-005
1.539003e-004,2.343770e-005
1.855030e-004,2.359977e-005
2.033302e-004,2.992031e-005
2.154851e-004,4.207521e-005
2.274780e-004,5.633696e-005
2.412535e-004,6.411610e-005
2.605393e-004,6.346784e-005
2.817698e-004,5.698522e-005
2.991108e-004,4.450619e-005
3.107795e-004,3.105477e-005
3.166139e-004,1.841368e-005
3.143450e-004,2.207145e-006
3.039728e-004,-2.080613e-005
2.913317e-004,-4.673658e-005
2.837146e-004,-6.294311e-005
2.801492e-004,-6.375343e-005
2.717218e-004,-5.143647e-005
2.433604e-004,-3.328516e-005
1.855030e-004,-1.691656e-005
1.065772e-004,-3.303075e-006
2.619281e-005,8.851824e-006
-3.701266e-005,1.825161e-005
-7.947377e-005,2.522042e-005
-1.054042e-004,3.559260e-005
-1.219349e-004,5.179913e-005
-1.344139e-004,7.481241e-005
-1.420310e-004,9.814982e-005
-1.405724e-004,1.154908e-004
-1.255003e-004,1.250527e-004
-9.746302e-005,1.282940e-004
-5.759496e-005,1.248906e-004
-4.437533e-006,1.166253e-004
5.844381e-005,1.044704e-004
1.242423e-004,9.101894e-005
1.905270e-004,7.643306e-005
2.571359e-004,6.460230e-005
3.222862e-004,5.617490e-005
3.905157e-004,5.001641e-005
4.645796e-004,4.871989e-005
5.332953e-004,5.293359e-005
5.796460e-004,6.087479e-005
5.861287e-004,6.703327e-005
5.420469e-004,6.444023e-005
4.496696e-004,5.390598e-005
3.230965e-004,3.964423e-005
1.738343e-004,2.878586e-005
1.387585e-005,2.716520e-005
-1.365208e-004,3.008238e-005
-2.511009e-004,3.056858e-005
-3.107410e-004,2.376183e-005
-3.178718e-004,9.662150e-006
-2.875656e-004,-2.978945e-006
-2.451045e-004,-7.840905e-006
-2.084778e-004,-2.654814e-006
-1.857886e-004,1.306552e-005
-1.783336e-004,3.478227e-005
-1.820611e-004,5.536457e-005
-1.925954e-004,6.962632e-005
-2.057227e-004,7.189524e-005
-2.183637e-004,5.795762e-005
-2.232257e-004,2.927205e-005
-2.165810e-004,-4.275467e-006
-1.984297e-004,-2.890940e-005
-1.702303e-004,-3.458168e-005
-1.366828e-004,-2.226472e-005
-1.055663e-004,-7.516774e-006
-8.368747e-005,-3.141010e-006
-7.444974e-005,-8.813297e-006
-7.461181e-005,-2.048200e-005
-7.380149e-005,-3.279896e-005
-6.618442e-005,-3.798505e-005
-4.592625e-005,-3.344722e-005
-1.124428e-005,-2.550602e-005
4.596478e-005,-2.307504e-005
1.258630e-004,-2.858526e-005
2.143507e-004,-3.863331e-005
2.926282e-004,-4.738484e-005
3.402754e-004,-4.722277e-005
3.517821e-004,-3.879538e-005
3.290929e-004,-2.485776e-005
2.762596e-004,-1.059601e-005
1.934442e-004,1.002961e-007
8.323980e-005,5.448451e-006
-4.722277e-005,4.800190e-006
-1.836818e-004,1.072688e-006
-3.026377e-004,-3.789271e-006
-3.778360e-004,-6.220251e-006
-3.974459e-004,-3.627206e-006
-3.679500e-004,2.855406e-006
-3.109030e-004,1.306552e-005
-2.494803e-004,2.441009e-005
-1.981056e-004,3.073064e-005
-1.577513e-004,2.748933e-005
-1.159385e-004,1.322759e-005
-6.051213e-005,-7.516774e-006
1.144487e-005,-3.117831e-005
9.588090e-005,-5.062615e-005
1.791825e-004,-5.710876e-005
2.469258e-004,-4.949169e-005
2.948972e-004,-3.085418e-005
3.214759e-004,-5.896120e-006
3.294171e-004,2.359977e-005
3.245551e-004,5.666109e-005
3.161277e-004,9.263960e-005
3.120761e-004,1.247285e-004
3.064038e-004,1.517934e-004
2.817698e-004,1.746447e-004
2.276400e-004,1.966855e-004
1.553589e-004,2.143507e-004
9.523264e-005,2.227780e-004
7.481241e-005,2.188885e-004
9.879807e-005,2.068957e-004
1.321835e-004,1.979821e-004
1.119254e-004,1.976579e-004
-1.967167e-005,2.114335e-004
-2.861070e-004,2.350950e-004
-6.502677e-004,2.548670e-004
-1.024152e-003,2.655633e-004
-1.315870e-003,2.709115e-004
-1.465294e-003,2.765838e-004
-1.451519e-003,2.825802e-004
-1.282484e-003,2.793389e-004
-9.967632e-004,2.602152e-004
-6.502677e-004,2.313675e-004
-2.968033e-004,2.064095e-004
9.175954e-006,1.913374e-004
2.213195e-004,1.840444e-004
3.156415e-004,1.778859e-004
2.973281e-004,1.637863e-004
1.932822e-004,1.402868e-004
5.487837e-005,1.153287e-004
-5.840528e-005,9.652916e-005
-1.058904e-004,8.291567e-005
-7.428768e-005,6.719534e-005
2.133085e-005,4.758544e-005
1.472556e-004,2.408596e-005
2.692908e-004,-2.816880e-006
3.658818e-004,-3.101624e-005
4.290873e-004,-5.565017e-005
4.564763e-004,-7.720485e-005
4.550177e-004,-8.984595e-005
4.352457e-004,-8.773910e-005
4.070464e-004,-7.218083e-005
3.799814e-004,-4.900549e-005
3.574544e-004,-2.793700e-005
3.363859e-004,-1.237873e-005
3.164518e-004,-4.761663e-006
3.060797e-004,-1.205460e-005
3.101313e-004,-3.474375e-005
3.230965e-004,-6.748093e-005
3.253654e-004,-9.973194e-005
3.064038e-004,-1.302002e-004
2.701011e-004,-1.548341e-004
2.299089e-004,-1.674752e-004
2.012234e-004,-1.627753e-004
1.942546e-004,-1.460826e-004
2.122438e-004,-1.250141e-004
2.530843e-004,-1.073490e-004
3.046211e-004,-9.519411e-005
3.482167e-004,-8.887356e-005
3.665300e-004,-8.563225e-005
3.521062e-004,-8.368747e-005
3.164518e-004,-8.336334e-005
2.772320e-004,-8.141856e-005
2.506533e-004,-7.542214e-005
2.456293e-004,-6.569822e-005
2.629703e-004,-5.548810e-005
2.999211e-004,-4.625038e-005
3.602095e-004,-2.988179e-005
4.469145e-004,2.623614e-007
5.561465e-004,3.445814e-005
6.736440e-004,5.779555e-005
7.755831e-004,6.784360e-005
8.318198e-004,6.946425e-005
8.238786e-004,7.124698e-005
7.485182e-004,7.302969e-005
6.055764e-004,7.448828e-005
4.021844e-004,7.448828e-005
1.722137e-004,7.221937e-005
-3.458168e-005,7.092283e-005
-1.724992e-004,7.157111e-005
-2.170672e-004,7.335382e-005
-1.710407e-004,7.837785e-005
-6.910160e-005,9.020861e-005
4.402000e-005,1.041462e-004
1.265113e-004,1.153287e-004
1.548727e-004,1.124116e-004
1.279698e-004,8.956035e-005
7.238143e-005,5.277152e-005
1.452411e-005,1.598270e-005
-2.939559e-005,-8.813297e-006
-5.273300e-005,-1.967167e-005
-5.500191e-005,-1.707863e-005
-4.625038e-005,-5.571990e-006
-3.798505e-005,1.176900e-005
-3.944364e-005,3.073064e-005
-5.419158e-005,4.612685e-005
-8.547019e-005,5.585077e-005
-1.361966e-004,5.795762e-005
-2.073433e-004,4.969228e-005
-2.972895e-004,3.283749e-005
-3.997148e-004,1.355172e-005
-4.911196e-004,-2.654814e-006
-5.363358e-004,-1.027188e-005
-5.138087e-004,-6.868512e-006
-4.313175e-004,3.017472e-006
-3.144684e-004,1.176900e-005
-1.938919e-004,1.711715e-005
-9.778715e-005,1.889987e-005
-4.381940e-005,1.971020e-005
-3.847125e-005,2.084466e-005
-7.282909e-005,2.473422e-005
-1.417068e-004,3.559260e-005
-2.486699e-004,5.277152e-005
-3.967976e-004,7.027457e-005
-5.731246e-004,8.161915e-005
-7.394036e-004,8.453633e-005
-8.439357e-004,7.497447e-005
-8.437737e-004,5.358185e-005
-7.350278e-004,2.586868e-005
-5.653455e-004,4.151929e-006
-4.002010e-004,-6.868512e-006
-2.807589e-004,-1.140634e-005
-2.073433e-004,-1.886135e-005
-1.499722e-004,-3.717472e-005
-7.590833e-005,-6.407756e-005
2.651694e-005,-8.984595e-005
1.391524e-004,-1.060525e-004
2.318537e-004,-1.099420e-004
2.817698e-004,-1.060525e-004
2.793389e-004,-9.940780e-005
2.200230e-004,-8.336334e-005
9.296372e-005,-5.467778e-005
-1.081593e-004,-2.129233e-005
-3.499608e-004,4.476060e-006
-5.729626e-004,1.452411e-005
-7.196317e-004,1.225519e-005
-7.557722e-004,7.231170e-006
-6.817084e-004,6.582909e-006
-5.211016e-004,1.403791e-005
-3.139823e-004,2.019640e-005
-1.036215e-004,2.052053e-005
7.837785e-005,1.954813e-005
2.169437e-004,2.230324e-005
3.109416e-004,2.878586e-005
3.756057e-004,3.640293e-005
4.290873e-004,4.515445e-005
4.798137e-004,5.844381e-005
5.243817e-004,8.194328e-005
5.576051e-004,1.163011e-004
5.725151e-004,1.600588e-004
5.738116e-004,2.030061e-004
5.794839e-004,2.376881e-004
6.200003e-004,2.543808e-004
7.130259e-004,2.469258e-004
8.407334e-004,2.192126e-004
9.635790e-004,1.827479e-004
1.048015e-003,1.532520e-004
1.076539e-003,1.365593e-004
1.060494e-003,1.338042e-004
1.024354e-003,1.380179e-004
9.838373e-004,1.417454e-004
9.326246e-004,1.438522e-004
8.632605e-004,1.436902e-004
7.817416e-004,1.454729e-004
6.942262e-004,1.493625e-004
6.036317e-004,1.516314e-004
5.037994e-004,1.496866e-004
3.854917e-004,1.427178e-004
2.428742e-004,1.292664e-004
7.821578e-005,1.101426e-004
-1.007043e-004,9.085687e-005
-2.870794e-004,7.870197e-005
-4.911196e-004,7.351588e-005
-7.400519e-004,6.914012e-005
-1.043924e-003,6.265751e-005
-1.369676e-003,5.293359e-005
-1.655883e-003,4.418206e-005
-1.848903e-003,4.272347e-005
-1.912757e-003,5.001641e-005
-1.845662e-003,6.589881e-005
-1.675493e-003,7.999850e-005
-1.440012e-003,8.567078e-005
-1.175035e-003,8.356393e-005
-9.073032e-004,7.837785e-005
-6.499436e-004,7.059870e-005
-4.157593e-004,6.508849e-005
-2.182017e-004,6.200925e-005
-6.764300e-005,5.941620e-005
3.575467e-005,5.277152e-005
9.977046e-005,3.932010e-005
1.363972e-004,1.825161e-005
1.574657e-004,-8.651231e-006
1.749688e-004,-3.458168e-005
1.942546e-004,-4.576419e-005
2.182402e-004,-3.571614e-005
2.440086e-004,-8.327101e-006
2.650771e-004,2.052053e-005
2.751252e-004,3.672705e-005
2.726942e-004,3.834771e-005
2.662116e-004,3.235129e-005
2.654012e-004,2.894792e-005
2.905214e-004,3.008238e-005
3.619922e-004,3.089270e-005
4.815964e-004,2.457216e-005
6.238898e-004,2.369210e-006
7.486802e-004,-4.462973e-005
8.259855e-004,-1.028112e-004
8.493229e-004,-1.451102e-004
8.340887e-004,-1.501342e-004
7.961654e-004,-1.157764e-004
7.460872e-004,-6.132245e-005
6.832058e-004,-1.173047e-005
5.976353e-004,1.452411e-005
4.733311e-004,1.338965e-005
3.130485e-004,-6.382316e-006
1.506590e-004,-2.826113e-005
2.829966e-005,-4.544005e-005
-3.458168e-005,-5.451571e-005
-4.819516e-005,-5.775702e-005
-3.344722e-005,-5.646050e-005
-2.978945e-006,-4.479180e-005
3.688912e-005,-2.469570e-005
8.032263e-005,-6.058186e-006
1.205148e-004,1.720949e-006
1.517934e-004,-7.030578e-006
1.736723e-004,-2.842320e-005
1.913374e-004,-5.386745e-005
2.036543e-004,-7.331529e-005
1.970097e-004,-8.611845e-005
1.529279e-004,-9.195280e-005
7.059870e-005,-9.422171e-005
-2.858526e-005,-8.757703e-005
-1.123730e-004,-7.023605e-005
-1.561307e-004,-4.544005e-005
-1.468929e-004,-2.291298e-005
-9.033214e-005,-1.092015e-005
-8.327101e-006,-1.270286e-005
6.995045e-005,-1.902341e-005
1.257009e-004,-1.853721e-005
1.548727e-004,-5.409925e-006
1.600588e-004,1.841368e-005
1.498487e-004,4.790957e-005
1.331559e-004,7.756751e-005
1.213252e-004,1.018773e-004
1.175977e-004,1.193804e-004
1.187321e-004,1.329939e-004
1.214872e-004,1.462832e-004
1.255388e-004,1.574657e-004
1.292664e-004,1.652449e-004
1.315353e-004,1.741585e-004
1.307249e-004,1.816135e-004
1.260251e-004,1.843686e-004
1.174356e-004,1.780480e-004
1.023635e-004,1.595726e-004
8.080882e-005,1.333180e-004
5.277152e-005,1.052807e-004
2.278944e-005,7.837785e-005
-6.058186e-006,5.536457e-005
-3.652646e-005,4.158902e-005
-7.023605e-005,3.769945e-005
-1.067007e-004,4.434413e-005
-1.405724e-004,6.346784e-005
-1.663408e-004,9.004655e-005
-1.784957e-004,1.145184e-004
-1.715269e-004,1.237561e-004
-1.434896e-004,1.156529e-004
-1.018388e-004,9.847395e-005
-6.018800e-005,8.048469e-005
-3.036798e-005,6.233338e-005
-2.420950e-005,4.256141e-005
-4.851930e-005,2.116879e-005
-9.454584e-005,-3.627206e-006
-1.394379e-004,-3.166451e-005
-1.618029e-004,-5.532604e-005
-1.601823e-004,-6.683268e-005
-1.391138e-004,-6.926366e-005
-1.091317e-004,-6.067420e-005
-7.736692e-005,-4.025397e-005
-4.268495e-005,-1.237873e-005
-2.654814e-006,1.517237e-005
3.510640e-005,3.721326e-005
5.374392e-005,5.131293e-005
4.709924e-005,5.601283e-005
1.906194e-005,4.936815e-005
-3.036798e-005,3.299956e-005
-9.859748e-005,1.112074e-005
-1.728234e-004,-1.351319e-005
-2.321393e-004,-3.798505e-005
-2.522354e-004,-4.738484e-005
-2.201465e-004,-3.117831e-005
-1.394379e-004,2.855406e-006
-2.599222e-005,3.915804e-005
9.766362e-005,6.298164e-005
2.115955e-004,6.622294e-005
2.983005e-004,5.293359e-005
3.519442e-004,3.299956e-005
3.731747e-004,1.403791e-005
3.652335e-004,-6.058186e-006
3.370341e-004,-3.263690e-005
2.916558e-004,-6.812920e-005
2.248849e-004,-1.075111e-004
1.328318e-004,-1.378173e-004
1.306552e-005,-1.472171e-004
-1.261486e-004,-1.331174e-004
-2.669833e-004,-1.054042e-004
-3.835083e-004,-7.590833e-005
-4.510895e-004,-5.159854e-005
-4.585445e-004,-3.279896e-005
-4.107352e-004,-1.318906e-005
-3.272716e-004,5.934647e-006
-2.300324e-004,2.376183e-005
-1.344139e-004,3.737532e-005
-5.370539e-005,4.661304e-005
3.827798e-006,4.499239e-005
3.624086e-005,3.299956e-005
4.953022e-005,2.343770e-005
5.293359e-005,3.510640e-005
5.390598e-005,7.659513e-005
6.071273e-005,1.357490e-004
7.610893e-005,1.892305e-004
9.847395e-005,2.260194e-004
1.257009e-004,2.480603e-004
1.508210e-004,2.641047e-004
1.658931e-004,2.770700e-004
1.663793e-004,2.877662e-004
1.540623e-004,2.961937e-004
1.360731e-004,2.989488e-004
1.128978e-004,2.958695e-004
7.367795e-005,2.874421e-004
6.907039e-006,2.725321e-004
-8.384953e-005,2.519498e-004
-1.780095e-004,2.315296e-004
-2.470493e-004,2.166196e-004
-2.661730e-004,2.064095e-004
-2.284118e-004,1.958752e-004
-1.460826e-004,1.790204e-004
-4.754691e-005,1.581140e-004
3.721326e-005,1.376937e-004
9.037068e-005,1.203528e-004
1.059289e-004,1.020394e-004
9.215340e-005,8.113296e-005
6.427816e-005,5.455424e-005
3.413401e-005,2.197911e-005
-7.100305e-007,-9.299492e-006
-4.446767e-005,-3.085418e-005
-9.470791e-005,-3.960571e-005
-1.417068e-004,-3.474375e-005
-1.770371e-004,-2.615428e-005
-2.019951e-004,-2.080613e-005
-2.222533e-004,-2.113026e-005
-2.374874e-004,-2.469570e-005
-2.225774e-004,-2.372330e-005
-1.332795e-004,-1.286493e-005
5.520250e-005,9.106226e-007
3.115899e-004,6.096713e-006
5.707324e-004,-4.599598e-006
7.673178e-004,-2.874733e-005
8.666639e-004,-5.694669e-005
8.694190e-004,-8.044616e-005
8.023239e-004,-9.227693e-005
7.028157e-004,-8.919769e-005
6.021731e-004,-7.315322e-005
5.136854e-004,-4.981582e-005
4.443214e-004,-3.069211e-005
3.897054e-004,-2.015787e-005
3.344411e-004,-1.545797e-005
2.645909e-004,-1.724069e-005
1.673517e-004,-2.631635e-005
3.932010e-005,-4.219875e-005
-1.102662e-004,-6.618442e-005
-2.692523e-004,-9.211487e-005
-4.326140e-004,-1.060525e-004
-6.063480e-004,-9.260106e-005
-8.035815e-004,-5.889147e-005
-1.029825e-003,-2.631635e-005
-1.261092e-003,-1.399939e-005
-1.449250e-003,-2.907146e-005
-1.542275e-003,-6.099833e-005
-1.502245e-003,-9.308726e-005
-1.324783e-003,-1.099420e-004
-1.047328e-003,-1.041077e-004
-7.300038e-004,-8.433573e-005
-4.308313e-004,-6.132245e-005
-1.851403e-004,-4.349527e-005
2.531276e-006,-3.328516e-005
1.440143e-004,-2.761287e-005
2.603772e-004,-2.015787e-005
3.687989e-004,-8.651231e-006
4.658761e-004,9.175954e-006
5.319988e-004,3.397195e-005
5.598741e-004,6.606088e-005
5.553362e-004,9.685329e-005
5.336195e-004,1.148425e-004
5.059062e-004,1.145184e-004
4.765724e-004,1.013911e-004
4.478869e-004,8.858796e-005
4.169323e-004,8.810177e-005
3.877606e-004,9.896014e-005
3.650714e-004,1.151667e-004
3.499994e-004,1.310491e-004
3.386548e-004,1.391524e-004
3.297412e-004,1.419075e-004
3.279585e-004,1.457970e-004
3.389789e-004,1.526038e-004
3.679886e-004,1.590864e-004
4.055878e-004,1.613553e-004
4.378388e-004,1.561692e-004
4.493454e-004,1.435281e-004
4.388112e-004,1.257009e-004
4.255218e-004,1.075496e-004
4.344354e-004,9.490851e-005
4.785172e-004,9.085687e-005
5.550120e-004,9.166720e-005
6.368551e-004,9.361198e-005
6.804507e-004,9.474644e-005
6.624614e-004,9.296372e-005
5.896941e-004,8.826383e-005
4.905100e-004,8.323980e-005
3.957018e-004,8.226741e-005
3.237448e-004,8.502253e-005
2.773941e-004,8.777764e-005
2.548670e-004,8.307774e-005
2.534084e-004,7.043664e-005
2.642668e-004,5.244739e-005
2.749631e-004,3.429608e-005
2.752873e-004,1.873781e-005
2.655633e-004,7.555300e-006
2.495188e-004,3.179537e-006
2.307192e-004,-5.479652e-007
2.094887e-004,-9.461557e-006
1.885823e-004,-2.437157e-005
1.670276e-004,-4.219875e-005
1.396385e-004,-6.099833e-005
1.039842e-004,-7.493595e-005
5.925414e-005,-8.336334e-005
1.290346e-005,-8.887356e-005
-2.404744e-005,-9.438377e-005
-4.398147e-005,-9.940780e-005
-5.678463e-005,-1.013526e-004
-7.137050e-005,-9.600443e-005
-8.044616e-005,-7.785312e-005
-7.250496e-005,-4.803310e-005
-4.495386e-005,-1.643037e-005
-1.010982e-005,5.286386e-006
1.047248e-005,1.338965e-005
2.855406e-006,1.225519e-005
-3.036798e-005,7.555300e-006
-7.201877e-005,3.665733e-006
-1.073490e-004,9.106226e-007
-1.310105e-004,-2.654814e-006
-1.460826e-004,-1.043395e-005
-1.590478e-004,-2.599222e-005
-1.791439e-004,-4.787104e-005
-2.194982e-004,-7.282909e-005
-2.909690e-004,-9.130454e-005
-3.979321e-004,-9.308726e-005
-5.408736e-004,-7.882551e-005
-7.102318e-004,-5.646050e-005
-8.873692e-004,-4.106429e-005
-1.047652e-003,-3.814712e-005
-1.160773e-003,-4.398147e-005
-1.202910e-003,-5.240886e-005
-1.172928e-003,-6.326724e-005
-1.083792e-003,-7.671866e-005
-9.543022e-004,-8.692878e-005
-8.009885e-004,-9.098041e-005
-6.330888e-004,-8.968388e-005
-4.450931e-004,-8.498399e-005
-2.259808e-004,-7.623246e-005
1.630683e-005,-6.067420e-005
2.564876e-004,-3.847125e-005
4.660382e-004,-1.092015e-005
6.256726e-004,1.614476e-005
7.353909e-004,3.915804e-005
8.024860e-004,5.828174e-005
8.360335e-004,7.205730e-005
8.394369e-004,8.064676e-005
8.088066e-004,8.939829e-005
7.493285e-004,9.944633e-005
6.765611e-004,1.122495e-004
6.084936e-004,1.235941e-004
5.556603e-004,1.341283e-004
5.193577e-004,1.464453e-004
5.026649e-004,1.592484e-004
5.052580e-004,1.722137e-004
5.240575e-004,1.840444e-004
5.503122e-004,1.953890e-004
5.777012e-004,2.107852e-004
6.002283e-004,2.292607e-004
6.120591e-004,2.480603e-004
5.969870e-004,2.641047e-004
5.319988e-004,2.701011e-004
4.023465e-004,2.572980e-004
2.146748e-004,2.308813e-004
-8.720958e-007,2.030061e-004
-2.075054e-004,1.855030e-004
-3.791325e-004,1.833962e-004
-5.142949e-004,1.981441e-004
-6.546435e-004,2.193747e-004
-8.675972e-004,2.350950e-004
-1.184921e-003,2.360674e-004
-1.565288e-003,2.162954e-004
-1.917457e-003,1.814514e-004
-2.145645e-003,1.391524e-004
-2.174654e-003,9.474644e-005
-1.979041e-003,5.390598e-005
-1.602077e-003,2.408596e-005
-1.137922e-003,1.112074e-005
-6.831670e-004,1.565857e-005
-3.049066e-004,3.170303e-005
-2.793700e-005,5.034054e-005
1.500107e-004,6.265751e-005
2.561635e-004,6.622294e-005
3.200173e-004,6.346784e-005
3.598853e-004,6.038860e-005
3.846813e-004,6.103685e-005
3.981328e-004,6.379197e-005
3.989431e-004,6.006446e-005
3.837089e-004,4.564065e-005
3.525924e-004,2.019640e-005
3.115899e-004,-1.432352e-005
2.660495e-004,-5.305713e-005
2.213195e-004,-9.341139e-005
1.817755e-004,-1.355484e-004
1.472556e-004,-1.744440e-004
1.221355e-004,-2.013469e-004
1.111150e-004,-2.092881e-004
1.146805e-004,-1.922712e-004
1.307249e-004,-1.545100e-004
1.576278e-004,-1.054042e-004
2.004130e-004,-6.213279e-005
2.624841e-004,-3.830918e-005
3.360618e-004,-3.571614e-005
4.049395e-004,-4.770897e-005
4.516144e-004,-6.893953e-005
4.676588e-004,-8.935975e-005
4.626348e-004,-9.794922e-005
4.545315e-004,-8.449779e-005
4.553419e-004,-5.095028e-005
4.674967e-004,-7.516774e-006
4.893756e-004,3.056858e-005
5.175750e-004,6.281957e-005
5.436675e-004,9.523264e-005
5.598741e-004,1.349386e-004
5.687876e-004,1.791825e-004
5.713807e-004,2.208333e-004
5.679773e-004,2.529222e-004
5.603603e-004,2.665357e-004
5.430192e-004,2.581083e-004
5.159543e-004,2.328261e-004
4.806241e-004,1.983062e-004
4.380009e-004,1.647587e-004
3.882468e-004,1.344524e-004
3.266619e-004,1.069013e-004
2.522740e-004,7.546067e-005
1.731861e-004,4.256141e-005
1.012291e-004,1.808955e-005
4.547859e-005,1.014835e-005
5.864920e-007,2.116879e-005
-5.208473e-005,3.964423e-005
-1.292278e-004,5.439218e-005
-2.237119e-004,5.212327e-005
-3.115513e-004,3.316162e-005
-3.640604e-004,7.393235e-006
-3.645466e-004,-1.594417e-005
-3.130099e-004,-2.826113e-005
-2.243601e-004,-2.680255e-005
-1.204763e-004,-1.075808e-005
-1.902341e-005,1.436204e-005
6.897806e-005,3.705119e-005
1.355869e-004,4.855782e-005
1.848548e-004,4.402000e-005
2.331502e-004,2.214118e-005
2.970040e-004,-1.059601e-005
3.864641e-004,-4.333321e-005
4.952099e-004,-6.569822e-005
5.963388e-004,-6.537409e-005
6.507927e-004,-3.506787e-005
6.297242e-004,1.954813e-005
5.292437e-004,8.259154e-005
3.757677e-004,1.323456e-004
2.068957e-004,1.573037e-004
5.439218e-005,1.553589e-004
-6.893953e-005,1.328318e-004
-1.587237e-004,1.002567e-004
-2.167431e-004,7.286762e-005
-2.519113e-004,6.055066e-005
-2.828657e-004,5.795762e-005
-3.275957e-004,5.568870e-005
-3.993907e-004,4.288554e-005
-4.916058e-004,1.338965e-005
-5.796073e-004,-3.069211e-005
-6.283889e-004,-8.579432e-005
-6.123444e-004,-1.455964e-004
-5.342290e-004,-2.002124e-004
-4.295348e-004,-2.475355e-004
-3.376438e-004,-2.846484e-004
-2.822175e-004,-3.104168e-004
-2.626076e-004,-3.222476e-004
-2.564491e-004,-3.159270e-004
-2.374874e-004,-2.903207e-004
-1.925954e-004,-2.475355e-004
-1.256624e-004,-1.932436e-004
-5.386745e-005,-1.326312e-004
2.855406e-006,-7.671866e-005
3.056858e-005,-3.150244e-005
2.829966e-005,3.341602e-006
8.365628e-006,2.619281e-005
-1.270286e-005,3.883391e-005
-1.075808e-005,4.580272e-005
4.790957e-005,5.082674e-005
1.874478e-004,5.585077e-005
3.939191e-004,6.087479e-005
6.206486e-004,5.698522e-005
8.170719e-004,3.786152e-005
9.515862e-004,1.533444e-005
1.022895e-003,1.549650e-005
1.050446e-003,5.260946e-005
1.068435e-003,1.154908e-004
1.096959e-003,1.783722e-004
1.132775e-003,2.201850e-004
1.161785e-003,2.350950e-004
1.168106e-003,2.248849e-004
1.141365e-003,1.958752e-004
1.080752e-003,1.594105e-004
9.885371e-004,1.308870e-004
8.655294e-004,1.201907e-004
7.023295e-004,1.273216e-004
4.802999e-004,1.420695e-004
1.735102e-004,1.537382e-004
-2.313289e-004,1.532520e-004
-7.374588e-004,1.417454e-004
-1.345204e-003,1.244044e-004
-2.018099e-003,1.094944e-004
-2.660851e-003,1.047945e-004
-3.150290e-003,1.125736e-004
-3.381558e-003,1.265113e-004
-3.296635e-003,1.360731e-004
-2.912377e-003,1.401247e-004
-2.325861e-003,1.409351e-004
-1.694779e-003,1.389903e-004
-1.168877e-003,1.380179e-004
-8.155743e-004,1.393144e-004
-6.152616e-004,1.407730e-004
-5.079744e-004,1.407730e-004
-4.358554e-004,1.342904e-004
-3.523917e-004,1.195424e-004
-2.269532e-004,9.960840e-005
-5.710876e-005,8.210535e-005
1.393144e-004,7.108490e-005
3.368721e-004,6.281957e-005
5.076890e-004,5.066468e-005
6.258346e-004,3.543053e-005
6.796403e-004,2.181705e-005
6.725095e-004,1.387585e-005
6.284277e-004,1.225519e-005
5.767288e-004,1.582063e-005
5.430192e-004,2.343770e-005
5.396159e-004,3.705119e-005
5.691118e-004,5.536457e-005
6.221071e-004,7.205730e-005
6.789921e-004,7.935023e-005
7.191843e-004,7.481241e-005
7.421976e-004,6.200925e-005
7.644006e-004,4.483032e-005
7.828761e-004,2.457216e-005
7.629420e-004,6.582909e-006
6.716992e-004,-3.141010e-006
5.245437e-004,-4.761663e-006
3.783608e-004,-2.816880e-006
2.903593e-004,9.106226e-007
2.842008e-004,1.002961e-007
3.451374e-004,-7.192643e-006
4.357320e-004,-1.643037e-005
5.170887e-004,-1.254080e-005
5.616568e-004,1.176900e-005
5.493397e-004,4.693717e-005
4.619866e-004,6.930219e-005
2.874421e-004,5.763348e-005
3.996836e-005,1.565857e-005
-2.288980e-004,-3.296103e-005
-4.460654e-004,-6.731887e-005
-5.557836e-004,-7.380149e-005
-5.400633e-004,-5.435365e-005
-4.251590e-004,-1.967167e-005
-2.572594e-004,1.338965e-005
-7.477388e-005,3.154097e-005
1.025256e-004,3.186510e-005
2.748010e-004,2.100672e-005
4.423766e-004,4.962256e-006
5.999042e-004,-8.651231e-006
7.327978e-004,-1.772689e-005
8.172339e-004,-2.015787e-005
8.365197e-004,-1.497178e-005
7.955172e-004,-8.651231e-006
7.183740e-004,-2.330684e-006
6.381517e-004,3.665733e-006
5.723531e-004,6.744974e-006
5.209784e-004,2.531276e-006
4.768966e-004,-8.327101e-006
4.300596e-004,-1.999580e-005
3.775505e-004,-2.518189e-005
3.192069e-004,-2.339917e-005
2.616738e-004,-1.545797e-005
2.114335e-004,-2.006553e-006
1.688103e-004,1.257933e-005
1.347766e-004,1.825161e-005
1.051186e-004,9.338019e-006
7.254349e-005,-1.335112e-005
3.834771e-005,-4.252288e-005
1.047248e-005,-6.553616e-005
-5.734055e-006,-7.769105e-005
-1.254080e-005,-8.093235e-005
-1.643037e-005,-7.639453e-005
-2.323711e-005,-6.861539e-005
-3.717472e-005,-5.500191e-005
-5.889147e-005,-2.907146e-005
-8.757703e-005,9.338019e-006
-1.251762e-004,5.471631e-005
-1.665028e-004,9.588090e-005
-1.994021e-004,1.250527e-004
-2.123673e-004,1.427178e-004
-2.034537e-004,1.545486e-004
-1.793060e-004,1.644345e-004
-1.519170e-004,1.699447e-004
-1.310105e-004,1.675138e-004
-1.222590e-004,1.584381e-004
-1.208004e-004,1.451487e-004
-1.206384e-004,1.282940e-004
-1.195039e-004,1.072255e-004
-1.216107e-004,8.356393e-005
-1.287416e-004,5.860587e-005
-1.396000e-004,3.299956e-005
-1.519170e-004,9.824214e-006
-1.647201e-004,-1.075808e-005
-1.728234e-004,-2.566809e-005
-1.736337e-004,-3.360929e-005
-1.658546e-004,-3.166451e-005
-1.562927e-004,-1.302699e-005
-1.498101e-004,1.808955e-005
-1.481895e-004,5.050261e-005
-1.554824e-004,7.254349e-005
-1.710407e-004,7.951231e-005
-1.865989e-004,7.578480e-005
-1.984297e-004,7.124698e-005
-2.044261e-004,6.978838e-005
-2.105846e-004,6.978838e-005
-2.207947e-004,7.108490e-005
-2.337599e-004,8.388807e-005
-2.447804e-004,1.203528e-004
-2.494803e-004,1.764274e-004
-2.452666e-004,2.378501e-004
-2.311669e-004,2.884145e-004
-2.109087e-004,3.203414e-004
-1.898402e-004,3.310377e-004
-1.684476e-004,3.205035e-004
-1.442999e-004,2.869559e-004
-1.211245e-004,2.308813e-004
-1.023250e-004,1.613553e-004
-8.790116e-005,9.134307e-005
-7.526008e-005,2.813760e-005
-6.472583e-005,-2.177852e-005
-5.338126e-005,-5.581224e-005
-3.652646e-005,-7.380149e-005
-1.691656e-005,-7.801519e-005
2.531276e-006,-7.558420e-005
1.857574e-005,-7.169464e-005
3.040651e-005,-7.153257e-005
3.786152e-005,-7.898758e-005
4.239934e-005,-9.486997e-005
4.612685e-005,-1.143178e-004
5.341978e-005,-1.298761e-004
6.541262e-005,-1.363587e-004
7.643306e-005,-1.381414e-004
7.918817e-005,-1.397621e-004
7.254349e-005,-1.421931e-004
5.714729e-005,-1.457585e-004
3.316162e-005,-1.493239e-004
4.800190e-006,-1.520790e-004
-2.210265e-005,-1.486757e-004
-4.625038e-005,-1.344139e-004
-7.007398e-005,-1.105903e-004
-1.065387e-004,-8.336334e-005
-1.687718e-004,-5.500191e-005
-2.504527e-004,-2.761287e-005
-3.285681e-004,-5.571990e-006
-3.775118e-004,1.225519e-005
-3.870737e-004,2.862379e-005
-3.575778e-004,4.839576e-005
-2.977757e-004,7.043664e-005
-2.180396e-004,8.972242e-005
-1.363587e-004,1.002567e-004
-6.618442e-005,9.928427e-005
-1.075808e-005,8.615698e-005
2.781346e-005,6.865393e-005
5.066468e-005,5.212327e-005
6.281957e-005,4.061663e-005
7.497447e-005,3.672705e-005
9.620503e-005,4.223728e-005
1.333180e-004,5.309565e-005
1.902029e-004,6.476436e-005
2.691287e-004,7.221937e-005
3.683128e-004,7.351588e-005
4.869446e-004,6.865393e-005
6.347482e-004,6.184718e-005
8.102651e-004,5.893001e-005
9.971267e-004,6.233338e-005
1.166161e-003,6.978838e-005
1.288358e-003,8.161915e-005
1.337626e-003,9.490851e-005
1.300513e-003,1.090082e-004
1.181557e-003,1.239182e-004
1.000692e-003,1.352628e-004
7.794727e-004,1.380179e-004
