1.291043e-004,-5.734055e-006
1.182459e-004,-2.404744e-005
1.017153e-004,-4.009190e-005
8.291567e-005,-5.143647e-005
6.038860e-005,-5.338126e-005
3.429608e-005,-3.733679e-005
5.124321e-006,-7.192643e-006
-2.907146e-005,2.149292e-005
-6.845333e-005,3.380988e-005
-1.152902e-004,2.505835e-005
-1.673132e-004,6.096713e-006
-2.224154e-004,-7.840905e-006
-2.852967e-004,-9.461557e-006
-3.613053e-004,-1.358292e-006
-4.439586e-004,7.231170e-006
-5.146191e-004,1.014835e-005
-5.556216e-004,9.175954e-006
-5.533526e-004,6.420843e-006
-5.125122e-004,5.448451e-006
-4.462275e-004,8.527692e-006
-3.627639e-004,1.160693e-005
-2.656868e-004,1.322759e-005
-1.569410e-004,1.112074e-005
-4.608832e-005,9.175954e-006
5.811968e-005,1.063454e-005
1.508210e-004,1.565857e-005
2.248849e-004,1.922400e-005
2.825802e-004,1.614476e-005
3.264999e-004,3.179537e-006
3.581026e-004,-1.189254e-005
3.762539e-004,-1.934754e-005
3.835469e-004,-1.562004e-005
3.871123e-004,-6.706447e-006
3.986190e-004,-5.479652e-007
4.261701e-004,-5.479652e-007
4.587452e-004,2.623614e-007
4.785172e-004,8.851824e-006
4.713863e-004,2.489629e-005
4.217943e-004,4.013043e-005
3.242310e-004,5.001641e-005
1.944166e-004,5.601283e-005
7.643306e-005,6.200925e-005
1.338965e-005,6.703327e-005
2.651694e-005,6.768153e-005
1.104668e-004,6.687120e-005
2.341226e-004,6.687120e-005
3.532407e-004,6.622294e-005
4.311941e-004,6.071273e-005
4.519385e-004,5.147500e-005
4.185530e-004,4.158902e-005
3.525924e-004,3.283749e-005
2.807975e-004,2.765140e-005
2.256952e-004,2.943412e-005
1.971717e-004,4.110282e-005
1.882581e-004,5.811968e-005
1.861513e-004,7.465034e-005
1.791825e-004,8.453633e-005
1.660552e-004,8.956035e-005
1.516314e-004,9.166720e-005
1.376937e-004,9.523264e-005
1.229458e-004,9.896014e-005
1.098185e-004,1.036600e-004
9.944633e-005,1.070634e-004
9.280166e-005,1.072255e-004
8.599491e-005,1.043083e-004
7.546067e-005,9.879807e-005
6.136099e-005,8.777764e-005
4.807163e-005,7.205730e-005
3.640293e-005,5.990240e-005
2.408596e-005,5.876794e-005
8.851824e-006,7.059870e-005
-8.975361e-006,9.069480e-005
-2.113026e-005,1.166253e-004
-2.501983e-005,1.410971e-004
-1.189254e-005,1.550348e-004
2.408596e-005,1.500107e-004
7.967437e-005,1.287802e-004
1.427178e-004,9.847395e-005
1.832341e-004,6.735740e-005
1.615174e-004,4.239934e-005
5.293359e-005,3.591673e-005
-1.314967e-004,5.050261e-005
-3.454229e-004,7.465034e-005
-5.223982e-004,8.550872e-005
-6.121824e-004,7.481241e-005
-6.044033e-004,5.017848e-005
-5.236947e-004,2.441009e-005
-4.112214e-004,7.231170e-006
-3.031239e-004,-8.720958e-007
-2.182017e-004,-2.978945e-006
-1.567789e-004,-5.085794e-006
-1.135075e-004,-1.205460e-005
-8.125648e-005,-2.696461e-005
-5.370539e-005,-4.997788e-005
-2.615428e-005,-7.979790e-005
2.045080e-006,-1.109144e-004
2.894792e-005,-1.318209e-004
5.098881e-005,-1.318209e-004
6.622294e-005,-1.109144e-004
7.367795e-005,-8.174268e-005
7.805372e-005,-5.743289e-005
8.550872e-005,-4.722277e-005
9.636710e-005,-5.013995e-005
1.060910e-004,-5.889147e-005
1.151667e-004,-6.472583e-005
1.244044e-004,-6.440169e-005
1.326697e-004,-6.099833e-005
1.386661e-004,-5.743289e-005
1.409351e-004,-5.710876e-005
1.399627e-004,-5.710876e-005
1.351007e-004,-5.840528e-005
1.211631e-004,-5.808115e-005
9.636710e-005,-5.435365e-005
6.314371e-005,-4.625038e-005
2.489629e-005,-4.009190e-005
-1.302699e-005,-3.717472e-005
-4.625038e-005,-3.636440e-005
-7.688072e-005,-3.085418e-005
-9.811128e-005,-1.853721e-005
-1.045939e-004,-5.896120e-006
-9.324932e-005,7.231170e-006
-6.861539e-005,2.116879e-005
-4.122636e-005,3.299956e-005
-2.145439e-005,4.304760e-005
-8.975361e-006,5.390598e-005
-1.034161e-006,6.476436e-005
6.420843e-006,6.962632e-005
1.630683e-005,6.444023e-005
3.332369e-005,5.001641e-005
5.682316e-005,3.494434e-005
8.161915e-005,2.667901e-005
1.005808e-004,2.878586e-005
1.104668e-004,3.721326e-005
1.133840e-004,4.596478e-005
1.124116e-004,5.341978e-005
1.093323e-004,6.314371e-005
1.009049e-004,7.935023e-005
8.259154e-005,9.766362e-005
5.439218e-005,1.103047e-004
1.938607e-005,1.151667e-004
-1.367526e-005,1.130598e-004
-3.215070e-005,1.083599e-004
-2.664048e-005,1.002567e-004
-1.358292e-006,9.231547e-005
3.510640e-005,9.053274e-005
7.562274e-005,9.636710e-005
1.099806e-004,1.047945e-004
1.316973e-004,1.106288e-004
1.436902e-004,1.141943e-004
1.534141e-004,1.174356e-004
1.637863e-004,1.211631e-004
1.772377e-004,1.211631e-004
1.905270e-004,1.151667e-004
1.949028e-004,1.044704e-004
1.892305e-004,9.377405e-005
1.816135e-004,8.469840e-005
1.757791e-004,7.610893e-005
1.704310e-004,6.751947e-005
1.595726e-004,5.876794e-005
1.417454e-004,5.001641e-005
1.184080e-004,3.964423e-005
9.020861e-005,2.651694e-005
5.682316e-005,1.371378e-005
1.241726e-005,5.286386e-006
-4.155049e-005,3.989864e-006
-9.762508e-005,5.448451e-006
-1.507825e-004,8.041497e-006
-1.959987e-004,1.241726e-005
-2.284118e-004,1.857574e-005
-2.452666e-004,2.278944e-005
-2.421873e-004,2.084466e-005
-2.073433e-004,1.468617e-005
-1.336036e-004,8.689757e-006
-2.550602e-005,8.041497e-006
9.831188e-005,8.527692e-006
2.133783e-004,5.772582e-006
2.971661e-004,5.864920e-007
3.358997e-004,-5.571990e-006
3.333066e-004,-1.140634e-005
3.041349e-004,-1.448558e-005
2.662116e-004,-1.189254e-005
2.389846e-004,-4.923729e-006
2.302331e-004,2.855406e-006
2.443327e-004,1.031041e-005
2.785285e-004,2.068259e-005
3.203414e-004,3.462021e-005
3.564820e-004,4.709924e-005
3.764160e-004,5.536457e-005
3.733367e-004,5.471631e-005
3.410858e-004,4.499239e-005
2.835526e-004,3.494434e-005
2.033302e-004,3.137890e-005
1.078737e-004,3.299956e-005
-2.238345e-007,3.656499e-005
-1.178833e-004,3.883391e-005
-2.327876e-004,3.964423e-005
-3.264613e-004,3.899597e-005
-3.908012e-004,3.688912e-005
-4.228901e-004,3.348575e-005
-4.245108e-004,2.894792e-005
-3.971218e-004,2.359977e-005
-3.478539e-004,1.614476e-005
-2.922655e-004,1.047248e-005
-2.402425e-004,7.393235e-006
-2.016710e-004,1.128280e-005
-1.927574e-004,2.343770e-005
-2.287359e-004,3.850977e-005
-3.113892e-004,5.277152e-005
-4.188385e-004,6.184718e-005
-5.097571e-004,6.654707e-005
-5.467080e-004,7.157111e-005
-5.108916e-004,7.853991e-005
-4.091146e-004,8.372600e-005
-2.629317e-004,8.421220e-005
-1.063766e-004,8.210535e-005
2.505835e-005,8.129502e-005
1.103047e-004,8.486046e-005
1.503348e-004,9.426025e-005
1.637863e-004,1.062531e-004
1.680000e-004,1.098185e-004
1.741585e-004,1.030118e-004
1.808031e-004,9.134307e-005
1.825858e-004,8.275361e-005
1.722137e-004,8.080882e-005
1.496866e-004,8.907416e-005
1.235941e-004,1.017153e-004
9.993253e-005,1.078737e-004
8.113296e-005,1.026876e-004
6.784360e-005,9.134307e-005
5.941620e-005,7.853991e-005
5.277152e-005,6.703327e-005
4.450619e-005,5.649903e-005
3.462021e-005,5.228533e-005
2.392390e-005,5.601283e-005
1.176900e-005,6.460230e-005
7.485573e-007,7.076077e-005
-1.108221e-005,7.481241e-005
-3.004385e-005,7.967437e-005
-6.099833e-005,8.259154e-005
-1.041077e-004,7.967437e-005
-1.553203e-004,6.362990e-005
-2.060468e-004,3.154097e-005
-2.410529e-004,-6.868512e-006
-2.481837e-004,-3.895744e-005
-2.314910e-004,-5.775702e-005
-2.002124e-004,-5.921561e-005
-1.642339e-004,-4.122636e-005
-1.308485e-004,-1.173047e-005
-9.956987e-005,1.873781e-005
-6.812920e-005,4.013043e-005
-3.522994e-005,4.774750e-005
-1.520357e-006,4.385793e-005
3.283749e-005,3.624086e-005
6.557468e-005,3.186510e-005
9.814982e-005,2.813760e-005
1.372075e-004,1.776542e-005
1.905270e-004,-2.168618e-006
2.670219e-004,-2.631635e-005
3.660438e-004,-4.511592e-005
4.704139e-004,-5.111234e-005
5.556603e-004,-4.851930e-005
6.078454e-004,-4.414354e-005
6.195141e-004,-4.268495e-005
5.909906e-004,-4.171255e-005
5.345918e-004,-4.219875e-005
4.689553e-004,-4.770897e-005
4.080188e-004,-5.791909e-005
3.602095e-004,-6.991192e-005
3.384927e-004,-7.882551e-005
3.467580e-004,-8.660465e-005
3.715541e-004,-9.243900e-005
3.982948e-004,-9.940780e-005
4.133669e-004,-1.086455e-004
4.098015e-004,-1.149661e-004
3.885709e-004,-1.112386e-004
3.576164e-004,-9.811128e-005
3.200173e-004,-7.995997e-005
2.770700e-004,-6.391550e-005
2.323399e-004,-5.111234e-005
1.897167e-004,-3.830918e-005
1.522796e-004,-2.485776e-005
1.203528e-004,-1.124428e-005
9.199134e-005,4.244267e-007
6.379197e-005,1.371378e-005
2.927205e-005,2.441009e-005
-1.821308e-005,2.992031e-005
-8.077029e-005,3.299956e-005
-1.558065e-004,3.883391e-005
-2.373254e-004,4.774750e-005
-3.225717e-004,5.714729e-005
-4.131662e-004,6.346784e-005
-5.066778e-004,6.622294e-005
-5.927345e-004,6.832980e-005
-6.548056e-004,7.205730e-005
-6.655018e-004,7.951231e-005
-5.980827e-004,9.182927e-005
-4.518998e-004,1.041462e-004
-2.515871e-004,1.135460e-004
-3.522994e-005,1.210010e-004
1.504969e-004,1.260251e-004
2.694529e-004,1.304008e-004
3.135346e-004,1.367214e-004
2.947351e-004,1.472556e-004
2.313675e-004,1.592484e-004
1.409351e-004,1.678379e-004
4.126489e-005,1.699447e-004
-5.921561e-005,1.639483e-004
-1.652063e-004,1.539003e-004
-2.744383e-004,1.414213e-004
-3.669776e-004,1.307249e-004
-4.199730e-004,1.245665e-004
-4.185144e-004,1.235941e-004
-3.682741e-004,1.265113e-004
-2.880518e-004,1.282940e-004
-2.024813e-004,1.266733e-004
-1.326312e-004,1.244044e-004
-8.968388e-005,1.258630e-004
-8.206682e-005,1.310491e-004
-1.188556e-004,1.318594e-004
-2.008607e-004,1.265113e-004
-3.094444e-004,1.145184e-004
-4.104111e-004,1.005808e-004
-4.663236e-004,8.583285e-005
-4.557894e-004,7.140904e-005
-3.788084e-004,5.909207e-005
-2.583938e-004,4.920609e-005
-1.287416e-004,3.948217e-005
-1.821308e-005,3.024445e-005
6.670914e-005,2.181705e-005
1.300767e-004,1.225519e-005
1.788584e-004,-4.923729e-006
2.190506e-004,-3.215070e-005
2.572980e-004,-6.634648e-005
2.945730e-004,-9.940780e-005
3.229344e-004,-1.269589e-004
3.363859e-004,-1.434896e-004
3.375203e-004,-1.483515e-004
3.410858e-004,-1.423551e-004
3.576164e-004,-1.272830e-004
3.884088e-004,-1.010285e-004
4.268184e-004,-6.504996e-005
4.683071e-004,-2.890940e-005
5.097958e-004,-1.682422e-006
5.436675e-004,1.322759e-005
5.598741e-004,1.711715e-005
5.517707e-004,1.160693e-005
5.164405e-004,1.072688e-006
4.519385e-004,-8.975361e-006
3.488649e-004,-1.399939e-005
2.120818e-004,-1.545797e-005
6.249544e-005,-1.724069e-005
-6.829127e-005,-2.323711e-005
-1.475412e-004,-3.036798e-005
-1.596961e-004,-2.809907e-005
-1.157764e-004,-1.432352e-005
-4.300908e-005,3.179537e-006
3.235129e-005,1.857574e-005
9.166720e-005,3.186510e-005
1.271595e-004,3.834771e-005
1.428798e-004,4.045456e-005
1.443384e-004,4.337174e-005
1.370455e-004,5.115087e-005
1.258630e-004,6.087479e-005
1.169494e-004,7.124698e-005
1.125736e-004,8.032263e-005
1.070634e-004,8.729143e-005
9.636710e-005,8.810177e-005
8.048469e-005,8.145709e-005
6.362990e-005,6.995045e-005
5.082674e-005,5.941620e-005
4.677511e-005,5.552663e-005
4.823369e-005,6.168512e-005
5.179913e-005,7.659513e-005
5.309565e-005,9.701536e-005
5.487837e-005,1.201907e-004
5.974033e-005,1.388282e-004
6.751947e-005,1.514693e-004
7.610893e-005,1.551968e-004
7.578480e-005,1.483901e-004
6.622294e-005,1.357490e-004
5.358185e-005,1.231079e-004
3.818564e-005,1.119254e-004
1.727922e-005,1.028497e-004
-3.789271e-006,9.912220e-005
-1.675450e-005,1.013911e-004
-1.837515e-005,1.039842e-004
-1.092015e-005,9.879807e-005
-1.358292e-006,7.983643e-005
-2.978945e-006,5.082674e-005
-1.837515e-005,2.392390e-005
-4.268495e-005,6.258778e-006
-7.299116e-005,-2.654814e-006
-1.076731e-004,-4.599598e-006
-1.413827e-004,-5.247859e-006
-1.692580e-004,-8.489165e-006
-1.854645e-004,-1.173047e-005
-1.890299e-004,-1.254080e-005
-1.867610e-004,-7.354708e-006
-1.846541e-004,9.106226e-007
-1.793060e-004,9.338019e-006
-1.630995e-004,1.565857e-005
-1.363587e-004,2.262737e-005
-1.079973e-004,3.186510e-005
-8.433573e-005,4.207521e-005
-6.683268e-005,5.228533e-005
-5.597430e-005,5.909207e-005
-5.500191e-005,5.844381e-005
-6.164659e-005,5.017848e-005
-7.266703e-005,3.867184e-005
-8.611845e-005,2.457216e-005
-9.875954e-005,8.041497e-006
-1.109144e-004,-7.516774e-006
-1.277692e-004,-1.529591e-005
-1.522411e-004,-1.335112e-005
-1.857886e-004,-6.220251e-006
-2.311669e-004,3.341602e-006
-2.789761e-004,9.500084e-006
-3.136581e-004,7.879431e-006
-3.238682e-004,-3.858999e-007
-3.039342e-004,-8.489165e-006
-2.467252e-004,-1.059601e-005
-1.545100e-004,-2.168618e-006
-4.706071e-005,1.225519e-005
5.034054e-005,2.489629e-005
1.163011e-004,2.700314e-005
1.511452e-004,2.165498e-005
1.822617e-004,1.533444e-005
2.300710e-004,1.112074e-005
3.004074e-004,8.041497e-006
3.803056e-004,1.234753e-006
4.415663e-004,-8.813297e-006
4.555039e-004,-1.691656e-005
4.153117e-004,-1.724069e-005
3.446512e-004,-9.137427e-006
2.775562e-004,1.720949e-006
2.370398e-004,8.689757e-006
2.294227e-004,1.128280e-005
2.441707e-004,1.144487e-005
2.658874e-004,1.128280e-005
2.877662e-004,1.338965e-005
3.073762e-004,2.100672e-005
3.167760e-004,3.478227e-005
3.088348e-004,5.487837e-005
2.832284e-004,7.384001e-005
2.423880e-004,8.016056e-005
1.937684e-004,7.108490e-005
1.448246e-004,5.277152e-005
1.000946e-004,3.299956e-005
5.957827e-005,2.003433e-005
2.376183e-005,1.663096e-005
-2.654814e-006,2.311357e-005
-1.788895e-005,4.094075e-005
-2.485776e-005,6.038860e-005
-2.566809e-005,6.978838e-005
-1.432352e-005,6.492643e-005
1.306552e-005,5.001641e-005
5.115087e-005,2.910999e-005
8.745350e-005,1.047248e-005
1.103047e-004,3.179537e-006
1.133840e-004,1.274139e-005
9.588090e-005,3.591673e-005
5.925414e-005,6.119892e-005
4.800190e-006,7.935023e-005
-6.099833e-005,8.550872e-005
-1.290658e-004,8.259154e-005
-1.911368e-004,7.805372e-005
-2.399184e-004,7.967437e-005
-2.746004e-004,8.875003e-005
-2.985860e-004,1.034980e-004
-3.104168e-004,1.182459e-004
-3.097686e-004,1.271595e-004
-3.015032e-004,1.295905e-004
-2.885380e-004,1.248906e-004
-2.747625e-004,1.122495e-004
-2.561249e-004,9.263960e-005
-2.254946e-004,7.270556e-005
-1.760647e-004,5.779555e-005
-1.086455e-004,5.115087e-005
-3.328516e-005,5.163707e-005
4.045456e-005,5.277152e-005
1.090082e-004,4.742337e-005
1.723757e-004,3.008238e-005
2.218057e-004,4.800190e-006
2.532463e-004,-1.756482e-005
2.702632e-004,-3.036798e-005
2.731804e-004,-3.036798e-005
2.608634e-004,-2.388537e-005
2.359053e-004,-1.578211e-005
1.991165e-004,-8.813297e-006
1.517934e-004,-5.734055e-006
9.571883e-005,-7.678839e-006
3.526847e-005,-1.902341e-005
-3.279896e-005,-3.863331e-005
-1.212866e-004,-5.694669e-005
-2.357047e-004,-6.423963e-005
-3.595226e-004,-5.678463e-005
-4.658374e-004,-3.944364e-005
-5.314739e-004,-1.869928e-005
-5.509217e-004,-4.923729e-006
-5.411978e-004,-2.006553e-006
-5.209396e-004,-8.975361e-006
-4.980884e-004,-1.983374e-005
-4.625961e-004,-2.664048e-005
-3.990665e-004,-2.761287e-005
-3.000446e-004,-2.534396e-005
-1.697441e-004,-2.615428e-005
-2.793700e-005,-3.036798e-005
9.717742e-005,-3.409548e-005
1.905270e-004,-3.636440e-005
2.474120e-004,-3.749886e-005
2.691287e-004,-3.717472e-005
2.641047e-004,-3.555407e-005
2.521119e-004,-3.441962e-005
2.467637e-004,-3.668853e-005
2.504912e-004,-4.495386e-005
2.592428e-004,-5.548810e-005
2.673460e-004,-6.018800e-005
2.699391e-004,-5.305713e-005
2.676701e-004,-3.360929e-005
2.608634e-004,-5.247859e-006
2.506533e-004,2.586868e-005
2.376881e-004,5.244739e-005
2.256952e-004,7.254349e-005
2.137024e-004,8.259154e-005
1.986303e-004,8.664317e-005
1.769136e-004,8.810177e-005
1.470936e-004,8.939829e-005
1.177597e-004,9.069480e-005
9.733949e-005,8.939829e-005
9.053274e-005,8.388807e-005
9.863601e-005,7.951231e-005
1.159770e-004,8.048469e-005
1.334801e-004,8.907416e-005
1.469315e-004,1.030118e-004
1.576278e-004,1.182459e-004
1.658931e-004,1.329939e-004
1.772377e-004,1.474177e-004
1.984682e-004,1.589243e-004
2.355812e-004,1.642725e-004
2.837146e-004,1.660552e-004
3.310377e-004,1.710792e-004
3.610198e-004,1.778859e-004
3.662059e-004,1.817755e-004
3.574544e-004,1.788584e-004
3.525924e-004,1.714033e-004
3.618301e-004,1.628139e-004
3.837089e-004,1.511452e-004
4.081808e-004,1.367214e-004
4.200116e-004,1.187321e-004
4.106118e-004,1.017153e-004
3.809539e-004,9.037068e-005
3.402754e-004,8.502253e-005
2.955454e-004,8.194328e-005
2.436845e-004,7.935023e-005
1.864754e-004,7.756751e-005
1.291043e-004,7.562274e-005
7.351588e-005,7.286762e-005
2.230324e-005,7.221937e-005
-2.712668e-005,7.448828e-005
-8.482193e-005,7.902610e-005
-1.637477e-004,8.129502e-005
-2.624455e-004,7.983643e-005
-3.603329e-004,7.772959e-005
-4.295348e-004,7.837785e-005
-4.497929e-004,7.999850e-005
-4.199730e-004,7.675719e-005
-3.543365e-004,6.670914e-005
-2.742762e-004,5.341978e-005
-2.041020e-004,4.353380e-005
-1.621271e-004,3.591673e-005
-1.548341e-004,2.489629e-005
-1.728234e-004,8.689757e-006
-2.024813e-004,-8.002969e-006
-2.259808e-004,-2.761287e-005
-2.230636e-004,-5.354332e-005
-1.783336e-004,-8.401160e-005
-9.292519e-005,-1.196660e-004
7.879431e-006,-1.561307e-004
8.340186e-005,-1.854645e-004
9.344992e-005,-2.083157e-004
2.813760e-005,-2.293842e-004
-8.530812e-005,-2.457528e-004
-1.981056e-004,-2.429977e-004
-2.700626e-004,-2.053985e-004
-2.810830e-004,-1.314967e-004
-2.342461e-004,-4.349527e-005
-1.494860e-004,3.024445e-005
-4.965375e-005,6.914012e-005
4.207521e-005,7.562274e-005
1.125736e-004,6.346784e-005
1.590864e-004,4.953022e-005
1.897167e-004,4.304760e-005
2.111093e-004,4.790957e-005
2.261814e-004,5.763348e-005
2.333123e-004,6.265751e-005
2.290986e-004,6.038860e-005
2.111093e-004,5.423011e-005
1.772377e-004,5.017848e-005
1.320215e-004,5.277152e-005
7.983643e-005,6.200925e-005
2.538249e-005,7.432621e-005
-3.279896e-005,8.210535e-005
-8.935975e-005,8.307774e-005
-1.370070e-004,7.821578e-005
-1.645580e-004,7.124698e-005
-1.587237e-004,6.606088e-005
-1.217728e-004,6.314371e-005
-6.359137e-005,6.119892e-005
-1.358292e-006,5.925414e-005
4.953022e-005,5.455424e-005
8.178122e-005,4.709924e-005
9.490851e-005,4.077869e-005
9.490851e-005,3.575467e-005
9.280166e-005,3.235129e-005
9.199134e-005,3.332369e-005
9.199134e-005,3.688912e-005
9.199134e-005,3.932010e-005
9.085687e-005,4.013043e-005
8.680524e-005,3.915804e-005
7.805372e-005,3.591673e-005
6.622294e-005,3.526847e-005
5.244739e-005,3.932010e-005
3.688912e-005,4.531652e-005
1.922400e-005,5.293359e-005
3.665733e-006,6.168512e-005
-6.382316e-006,7.076077e-005
-8.651231e-006,7.951231e-005
-7.354708e-006,8.810177e-005
-6.706447e-006,9.539470e-005
-1.270286e-005,1.015532e-004
-1.950961e-005,1.094944e-004
-2.307504e-005,1.175977e-004
-2.647842e-005,1.229458e-004
-3.053005e-005,1.239182e-004
-3.506787e-005,1.192183e-004
-3.928157e-005,1.094944e-004
-4.236081e-005,9.263960e-005
-4.155049e-005,6.946425e-005
-2.826113e-005,4.353380e-005
7.069104e-006,1.679302e-005
6.476436e-005,-7.516774e-006
1.367214e-004,-2.372330e-005
2.102990e-004,-3.312309e-005
2.728562e-004,-3.879538e-005
3.141829e-004,-4.057810e-005
3.253654e-004,-3.928157e-005
2.999211e-004,-3.425755e-005
2.375260e-004,-2.923352e-005
1.501728e-004,-2.550602e-005
5.909207e-005,-2.469570e-005
-1.464765e-005,-2.761287e-005
-5.953974e-005,-3.134038e-005
-6.829127e-005,-2.890940e-005
-5.289506e-005,-1.853721e-005
-3.231276e-005,-4.437533e-006
-2.615428e-005,6.096713e-006
-4.608832e-005,8.041497e-006
-8.919769e-005,3.179537e-006
-1.428413e-004,-2.330684e-006
-1.989159e-004,-3.951337e-006
-2.569353e-004,-4.923729e-006
-3.165753e-004,-8.975361e-006
-3.805911e-004,-1.707863e-005
-4.540066e-004,-2.485776e-005
-5.313118e-004,-2.890940e-005
-5.958137e-004,-2.615428e-005
-6.300095e-004,-1.983374e-005
-6.240131e-004,-1.545797e-005
-5.787969e-004,-1.659243e-005
-5.018159e-004,-2.420950e-005
-3.995527e-004,-3.409548e-005
-2.720073e-004,-3.928157e-005
-1.222590e-004,-3.506787e-005
3.737532e-005,-2.242678e-005
1.893926e-004,-1.196226e-006
3.143450e-004,2.797553e-005
4.026706e-004,5.649903e-005
4.533971e-004,7.448828e-005
4.730070e-004,7.853991e-005
4.765724e-004,7.157111e-005
4.778689e-004,6.249544e-005
4.837033e-004,5.957827e-005
4.898618e-004,6.492643e-005
4.880791e-004,7.221937e-005
4.705760e-004,7.448828e-005
4.279528e-004,7.302969e-005
3.650714e-004,7.059870e-005
2.934386e-004,6.914012e-005
2.256952e-004,6.768153e-005
1.746447e-004,6.411610e-005
1.448246e-004,6.265751e-005
1.365593e-004,6.427816e-005
1.464453e-004,7.108490e-005
1.671896e-004,8.145709e-005
1.842065e-004,9.182927e-005
1.863134e-004,1.004187e-004
1.770756e-004,1.046324e-004
1.710792e-004,1.060910e-004
1.777239e-004,1.044704e-004
2.025199e-004,1.056048e-004
2.472499e-004,1.137081e-004
3.057555e-004,1.263492e-004
3.619922e-004,1.367214e-004
4.002396e-004,1.406109e-004
4.154738e-004,1.338042e-004
4.086670e-004,1.184080e-004
3.814400e-004,9.814982e-005
3.464339e-004,7.999850e-005
3.148312e-004,7.221937e-005
2.895490e-004,7.886404e-005
2.608634e-004,9.733949e-005
2.222919e-004,1.159770e-004
1.628139e-004,1.195424e-004
8.032263e-005,1.023635e-004
-1.399939e-005,7.497447e-005
-1.079973e-004,5.050261e-005
-1.909747e-004,3.769945e-005
-2.582318e-004,4.175108e-005
-3.113892e-004,5.795762e-005
-3.515814e-004,7.481241e-005
-3.773498e-004,8.178122e-005
-3.846427e-004,7.675719e-005
-3.687603e-004,6.379197e-005
-3.275957e-004,5.098881e-005
-2.721694e-004,4.272347e-005
-2.308428e-004,3.964423e-005
-2.290600e-004,3.834771e-005
-2.703867e-004,3.445814e-005
-3.439643e-004,2.959618e-005
-4.279141e-004,2.165498e-005
-4.956574e-004,6.420843e-006
-5.155915e-004,-1.416145e-005
-4.637306e-004,-3.279896e-005
-3.334301e-004,-4.252288e-005
-1.423551e-004,-4.284701e-005
6.978838e-005,-3.766092e-005
2.555152e-004,-3.652646e-005
3.777125e-004,-4.300908e-005
4.117463e-004,-5.646050e-005
3.574544e-004,-7.023605e-005
2.393087e-004,-7.882551e-005
1.005808e-004,-8.190475e-005
-1.918548e-005,-7.817725e-005
-9.681476e-005,-6.958779e-005
-1.313347e-004,-6.051213e-005
-1.314967e-004,-5.224680e-005
-9.989400e-005,-4.106429e-005
-3.636440e-005,-2.826113e-005
6.006446e-005,-1.464765e-005
1.785342e-004,-1.358292e-006
2.953833e-004,6.258778e-006
3.793332e-004,7.069104e-006
4.089912e-004,4.151929e-006
3.811159e-004,1.072688e-006
3.057555e-004,-1.358292e-006
2.039785e-004,-3.789271e-006
1.004187e-004,-7.678839e-006
1.614476e-005,-1.432352e-005
-4.074016e-005,-2.210265e-005
-7.120844e-005,-2.923352e-005
-8.320127e-005,-3.393342e-005
-8.368747e-005,-3.620233e-005
-7.542214e-005,-3.766092e-005
-6.099833e-005,-3.604027e-005
-5.176060e-005,-3.036798e-005
-6.634648e-005,-2.177852e-005
-1.161005e-004,-1.286493e-005
-1.922712e-004,-9.137427e-006
-2.627696e-004,-9.947754e-006
-2.961551e-004,-8.002969e-006
-2.747625e-004,9.106226e-007
-1.953505e-004,1.630683e-005
-7.623246e-005,3.154097e-005
5.585077e-005,4.531652e-005
1.767515e-004,5.828174e-005
2.671840e-004,7.205730e-005
3.141829e-004,8.745350e-005
3.138588e-004,1.057669e-004
2.717218e-004,1.214872e-004
2.070577e-004,1.295905e-004
1.428798e-004,1.244044e-004
9.685329e-005,1.120874e-004
7.594687e-005,1.010670e-004
7.740545e-005,9.539470e-005
8.631904e-005,9.458438e-005
8.242948e-005,9.636710e-005
5.844381e-005,1.013911e-004
2.116879e-005,1.106288e-004
-1.513384e-005,1.253768e-004
-3.847125e-005,1.443384e-004
-4.252288e-005,1.636242e-004
-2.923352e-005,1.791825e-004
-4.437533e-006,1.866375e-004
2.424803e-005,1.897167e-004
5.179913e-005,1.877719e-004
7.578480e-005,1.786963e-004
9.393611e-005,1.594105e-004
1.054428e-004,1.351007e-004
1.073875e-004,1.101426e-004
1.064151e-004,8.858796e-005
1.091703e-004,6.865393e-005
1.182459e-004,4.158902e-005
1.279698e-004,8.041497e-006
1.252147e-004,-2.485776e-005
9.912220e-005,-5.143647e-005
5.649903e-005,-6.812920e-005
3.017472e-006,-7.315322e-005
-6.229485e-005,-6.521203e-005
-1.384655e-004,-4.430560e-005
-2.105846e-004,-1.318906e-005
-2.621213e-004,1.987226e-005
-2.801106e-004,4.353380e-005
-2.590421e-004,5.423011e-005
-2.131776e-004,5.585077e-005
-1.710407e-004,5.277152e-005
-1.686097e-004,4.223728e-005
-2.204706e-004,2.408596e-005
-3.104168e-004,3.827798e-006
-4.011734e-004,-1.205460e-005
-4.549791e-004,-1.902341e-005
-4.501171e-004,-1.756482e-005
-3.903150e-004,-1.270286e-005
-3.000446e-004,-1.027188e-005
-2.058847e-004,-1.318906e-005
-1.180453e-004,-2.048200e-005
-4.203669e-005,-2.777494e-005
1.419998e-005,-3.522994e-005
4.515445e-005,-3.960571e-005
5.811968e-005,-4.122636e-005
6.395403e-005,-4.155049e-005
6.800567e-005,-3.766092e-005
7.562274e-005,-2.988179e-005
9.069480e-005,-2.534396e-005
1.137081e-004,-2.469570e-005
1.404489e-004,-2.372330e-005
1.704310e-004,-1.999580e-005
2.081922e-004,-1.286493e-005
2.613496e-004,-3.789271e-006
3.336308e-004,8.527692e-006
4.192013e-004,2.165498e-005
5.073649e-004,3.202716e-005
5.798081e-004,4.304760e-005
6.242140e-004,5.585077e-005
6.362069e-004,7.140904e-005
6.156245e-004,8.469840e-005
5.666808e-004,8.712937e-005
5.015305e-004,7.708132e-005
4.333010e-004,6.395403e-005
3.678265e-004,6.055066e-005
3.093210e-004,7.011251e-005
2.572980e-004,8.518459e-005
2.130541e-004,9.328785e-005
1.786963e-004,9.247753e-005
1.539003e-004,8.907416e-005
1.404489e-004,9.020861e-005
1.338042e-004,1.005808e-004
1.240803e-004,1.185700e-004
1.023635e-004,1.391524e-004
7.108490e-005,1.514693e-004
4.045456e-005,1.526038e-004
1.436204e-005,1.430419e-004
-6.220251e-006,1.299146e-004
-2.015787e-005,1.159770e-004
-3.134038e-005,1.012291e-004
-3.717472e-005,8.259154e-005
-4.074016e-005,6.200925e-005
-4.738484e-005,4.304760e-005
-5.727082e-005,2.781346e-005
-6.391550e-005,1.857574e-005
-6.423963e-005,1.257933e-005
-6.099833e-005,6.258778e-006
-6.018800e-005,-7.100305e-007
-6.537409e-005,-3.303075e-006
-7.833932e-005,2.855406e-006
-9.600443e-005,1.679302e-005
-1.114006e-004,3.299956e-005
-1.193418e-004,4.645098e-005
-1.209625e-004,5.487837e-005
-1.170729e-004,5.811968e-005
-1.109144e-004,5.844381e-005
-1.065387e-004,5.649903e-005
-1.011905e-004,5.034054e-005
-9.324932e-005,3.980630e-005
-7.995997e-005,2.894792e-005
-6.148453e-005,1.744128e-005
-4.446767e-005,6.420843e-006
-3.879538e-005,-2.330684e-006
-4.495386e-005,-6.220251e-006
-5.548810e-005,-3.303075e-006
-6.423963e-005,4.962256e-006
-6.780506e-005,1.160693e-005
-7.250496e-005,1.274139e-005
-7.752898e-005,7.069104e-006
-7.850138e-005,-3.141010e-006
-7.347736e-005,-1.140634e-005
-6.650855e-005,-1.853721e-005
-6.018800e-005,-2.680255e-005
-5.111234e-005,-3.247483e-005
-4.236081e-005,-3.409548e-005
-3.685059e-005,-3.458168e-005
-3.360929e-005,-3.425755e-005
-2.501983e-005,-3.636440e-005
-1.367526e-005,-4.041603e-005
-6.706447e-006,-4.138842e-005
-5.734055e-006,-3.733679e-005
-5.896120e-006,-2.874733e-005
-2.330684e-006,-1.675450e-005
9.013888e-006,-6.220251e-006
2.667901e-005,-1.844488e-006
3.850977e-005,-8.327101e-006
3.818564e-005,-2.728874e-005
2.878586e-005,-4.819516e-005
1.971020e-005,-5.921561e-005
1.646889e-005,-5.273300e-005
1.808955e-005,-3.215070e-005
2.732727e-005,-6.544382e-006
4.207521e-005,1.241726e-005
5.763348e-005,2.035846e-005
6.751947e-005,1.889987e-005
7.627100e-005,1.484824e-005
8.712937e-005,1.452411e-005
9.977046e-005,1.663096e-005
1.112771e-004,1.987226e-005
1.192183e-004,2.570661e-005
1.188942e-004,3.413401e-005
1.112771e-004,4.272347e-005
1.023635e-004,5.034054e-005
1.002567e-004,5.714729e-005
1.036600e-004,6.670914e-005
1.103047e-004,8.129502e-005
1.188942e-004,9.426025e-005
1.289422e-004,9.604297e-005
1.393144e-004,8.210535e-005
1.488763e-004,6.314371e-005
1.540623e-004,5.228533e-005
1.461212e-004,5.001641e-005
1.164632e-004,5.471631e-005
5.552663e-005,6.184718e-005
-2.777494e-005,6.444023e-005
-1.169109e-004,6.265751e-005
-1.987538e-004,6.087479e-005
-2.653627e-004,6.395403e-005
-3.107410e-004,7.043664e-005
-3.266234e-004,7.513654e-005
-3.138202e-004,7.805372e-005
-2.844864e-004,7.983643e-005
-2.481837e-004,8.113296e-005
-2.070192e-004,8.275361e-005
-1.642339e-004,8.210535e-005
-1.261486e-004,8.129502e-005
-9.940780e-005,8.275361e-005
-8.384953e-005,8.631904e-005
-7.444974e-005,8.745350e-005
-6.423963e-005,8.583285e-005
-4.787104e-005,8.161915e-005
-2.842320e-005,7.870197e-005
-1.286493e-005,7.821578e-005
1.072688e-006,8.388807e-005
2.489629e-005,9.620503e-005
6.816773e-005,1.101426e-004
1.312111e-004,1.184080e-004
2.094887e-004,1.146805e-004
2.958695e-004,1.013911e-004
3.760919e-004,8.113296e-005
4.423766e-004,5.649903e-005
4.895377e-004,3.202716e-005
5.131992e-004,1.646889e-005
5.052580e-004,1.225519e-005
4.618245e-004,1.630683e-005
3.924605e-004,2.781346e-005
3.101313e-004,4.077869e-005
2.300710e-004,5.244739e-005
1.600588e-004,5.990240e-005
9.928427e-005,6.022653e-005
4.564065e-005,5.504044e-005
2.855406e-006,4.499239e-005
-3.425755e-005,3.040651e-005
-6.780506e-005,1.533444e-005
-9.843541e-005,4.476060e-006
-1.242038e-004,-1.034161e-006
-1.379793e-004,-3.465141e-006
-1.347380e-004,-4.761663e-006
-1.199901e-004,-4.275467e-006
-1.011905e-004,-5.479652e-007
-8.498399e-005,8.203561e-006
-7.153257e-005,1.857574e-005
-5.581224e-005,2.278944e-005
-3.441962e-005,1.419998e-005
-7.100305e-007,-9.137427e-006
5.666109e-005,-3.782299e-005
1.406109e-004,-6.148453e-005
2.412535e-004,-7.444974e-005
3.412478e-004,-7.655659e-005
4.133669e-004,-7.072224e-005
4.360561e-004,-6.699474e-005
4.054257e-004,-6.699474e-005
3.427064e-004,-6.359137e-005
2.851732e-004,-5.127441e-005
2.657254e-004,-3.053005e-005
2.955454e-004,-5.409925e-006
3.571302e-004,1.906194e-005
4.222805e-004,3.526847e-005
4.707380e-004,3.980630e-005
4.872688e-004,3.510640e-005
4.697657e-004,3.040651e-005
4.217943e-004,3.364782e-005
3.386548e-004,4.207521e-005
2.172678e-004,4.888196e-005
7.076077e-005,5.147500e-005
-8.141856e-005,5.212327e-005
-2.207947e-004,5.390598e-005
-3.284061e-004,5.893001e-005
-3.903150e-004,6.476436e-005
-4.034423e-004,6.654707e-005
-3.820497e-004,6.281957e-005
-3.496366e-004,5.763348e-005
-3.258130e-004,5.763348e-005
-3.230579e-004,6.557468e-005
-3.454229e-004,7.951231e-005
-4.019837e-004,9.409818e-005
-5.005194e-004,1.049566e-004
-6.376266e-004,1.116012e-004
-7.881852e-004,1.145184e-004
-9.085998e-004,1.158149e-004
-9.520333e-004,1.138701e-004
-8.940139e-004,1.085220e-004
-7.491275e-004,1.052807e-004
-5.480045e-004,1.088461e-004
-3.277578e-004,1.198666e-004
-1.339277e-004,1.341283e-004
-1.205460e-005,1.467694e-004
1.387585e-005,1.522796e-004
-4.851930e-005,1.469315e-004
-1.645580e-004,1.372075e-004
-2.856208e-004,1.235941e-004
-3.739464e-004,1.062531e-004
-4.214316e-004,8.534666e-005
-4.386105e-004,6.249544e-005
-4.421759e-004,3.624086e-005
-4.403932e-004,9.986280e-006
-4.293727e-004,-1.221667e-005
-3.967976e-004,-2.939559e-005
-3.279199e-004,-4.025397e-005
-2.207947e-004,-4.349527e-005
-8.692878e-005,-3.701266e-005
4.953022e-005,-2.469570e-005
1.671896e-004,-1.156841e-005
2.589186e-004,-2.816880e-006
3.328204e-004,1.234753e-006
3.984569e-004,7.485573e-007
4.568004e-004,-3.789271e-006
5.072028e-004,-1.156841e-005
5.519328e-004,-2.177852e-005
5.893700e-004,-3.198863e-005
6.146522e-004,-4.268495e-005
6.195141e-004,-5.127441e-005
6.008766e-004,-5.694669e-005
5.657084e-004,-5.743289e-005
5.242196e-004,-5.483985e-005
4.841895e-004,-4.884343e-005
4.514523e-004,-4.187462e-005
4.273045e-004,-3.539201e-005
4.109359e-004,-2.777494e-005
4.004017e-004,-1.740276e-005
3.916502e-004,-4.437533e-006
3.781987e-004,7.231170e-006
3.572923e-004,1.501031e-005
3.274723e-004,2.003433e-005
2.900352e-004,2.149292e-005
2.545429e-004,1.663096e-005
2.320158e-004,3.827798e-006
2.266676e-004,-1.399939e-005
2.422259e-004,-2.858526e-005
2.780423e-004,-3.539201e-005
3.239068e-004,-3.944364e-005
3.598853e-004,-4.462973e-005
3.715541e-004,-4.997788e-005
3.564820e-004,-5.565017e-005
3.263378e-004,-5.889147e-005
2.976522e-004,-5.727082e-005
2.788527e-004,-5.176060e-005
2.663736e-004,-4.268495e-005
2.522740e-004,-2.777494e-005
2.303951e-004,-7.678839e-006
2.013854e-004,1.517237e-005
1.688103e-004,4.061663e-005
1.380179e-004,6.622294e-005
1.111150e-004,8.777764e-005
8.956035e-005,1.018773e-004
7.221937e-005,1.083599e-004
6.103685e-005,1.077117e-004
5.585077e-005,1.015532e-004
5.277152e-005,9.652916e-005
4.888196e-005,9.896014e-005
3.948217e-005,1.064151e-004
2.716520e-005,1.159770e-004
1.630683e-005,1.258630e-004
7.879431e-006,1.315353e-004
-1.196226e-006,1.355869e-004
-1.270286e-005,1.428798e-004
-2.680255e-005,1.540623e-004
-4.236081e-005,1.645966e-004
-5.872941e-005,1.668655e-004
-7.477388e-005,1.620035e-004
-8.595638e-005,1.517934e-004
-9.389758e-005,1.396385e-004
-1.010285e-004,1.274836e-004
-1.044318e-004,1.190562e-004
-1.067007e-004,1.184080e-004
-1.122110e-004,1.224596e-004
-1.224211e-004,1.253768e-004
-1.361966e-004,1.219734e-004
-1.525652e-004,1.140322e-004
-1.687718e-004,1.041462e-004
-1.775233e-004,9.442231e-005
-1.750923e-004,8.842590e-005
-1.647201e-004,8.664317e-005
-1.496480e-004,8.518459e-005
-1.336036e-004,8.080882e-005
-1.214487e-004,7.124698e-005
-1.170729e-004,5.698522e-005
-1.201522e-004,4.223728e-005
-1.245279e-004,2.992031e-005
-1.277692e-004,2.100672e-005
-1.314967e-004,1.565857e-005
-1.391138e-004,1.290346e-005
-1.530514e-004,9.175954e-006
-1.712027e-004,-1.196226e-006
-1.893540e-004,-1.788895e-005
-2.015089e-004,-4.009190e-005
-2.060468e-004,-5.986387e-005
-1.997262e-004,-7.153257e-005
-1.789819e-004,-7.250496e-005
-1.468929e-004,-6.731887e-005
-1.169109e-004,-6.067420e-005
-9.713889e-005,-5.629843e-005
-8.725291e-005,-5.338126e-005
-8.287714e-005,-4.900549e-005
-7.720485e-005,-3.847125e-005
-6.699474e-005,-2.129233e-005
-5.516398e-005,-7.192643e-006
-4.511592e-005,-2.006553e-006
-3.652646e-005,-5.247859e-006
-2.728874e-005,-1.318906e-005
-1.756482e-005,-1.983374e-005
-6.544382e-006,-2.615428e-005
9.013888e-006,-3.053005e-005
3.170303e-005,-2.809907e-005
6.411610e-005,-1.983374e-005
1.033359e-004,-1.448558e-005
1.407730e-004,-1.659243e-005
1.710792e-004,-2.339917e-005
1.939304e-004,-3.296103e-005
2.120818e-004,-4.009190e-005
2.218057e-004,-4.009190e-005
2.211574e-004,-3.506787e-005
2.077060e-004,-2.372330e-005
1.770756e-004,-8.813297e-006
1.289422e-004,1.883015e-006
6.719534e-005,8.689757e-006
5.864920e-007,1.727922e-005
-5.678463e-005,2.813760e-005
-8.935975e-005,3.932010e-005
-8.822530e-005,4.953022e-005
-5.791909e-005,5.747142e-005
-1.108221e-005,5.925414e-005
3.251336e-005,5.585077e-005
5.844381e-005,5.244739e-005
6.233338e-005,5.471631e-005
5.131293e-005,6.184718e-005
3.543053e-005,7.076077e-005
2.181705e-005,7.562274e-005
1.355172e-005,7.529860e-005
1.144487e-005,7.221937e-005
1.209313e-005,7.319175e-005
1.193106e-005,8.275361e-005
9.338019e-006,9.636710e-005
5.934647e-006,1.104668e-004
2.693341e-006,1.240803e-004
6.420843e-006,1.355869e-004
1.484824e-005,1.430419e-004
2.133085e-005,1.401247e-004
2.246531e-005,1.252147e-004
1.971020e-005,1.065772e-004
1.241726e-005,9.296372e-005
6.258778e-006,8.891209e-005
5.124321e-006,9.312579e-005
1.176900e-005,1.005808e-004
2.003433e-005,1.051186e-004
2.035846e-005,1.070634e-004
9.013888e-006,1.080358e-004
-6.544382e-006,1.044704e-004
-1.707863e-005,9.312579e-005
-1.643037e-005,7.805372e-005
-7.516774e-006,5.941620e-005
2.855406e-006,3.818564e-005
8.203561e-006,2.262737e-005
2.623614e-007,1.760335e-005
-2.388537e-005,2.214118e-005
-5.467778e-005,3.121684e-005
-8.303921e-005,3.769945e-005
-1.073490e-004,3.380988e-005
-1.266348e-004,2.068259e-005
-1.396000e-004,9.500084e-006
-1.431654e-004,9.175954e-006
-1.321450e-004,1.533444e-005
-1.003802e-004,1.922400e-005
-4.527799e-005,1.727922e-005
3.154097e-005,9.175954e-006
1.187321e-004,-4.437533e-006
1.885823e-004,-1.788895e-005
2.195368e-004,-2.696461e-005
2.099749e-004,-2.761287e-005
1.790204e-004,-1.869928e-005
1.472556e-004,-1.196226e-006
1.299146e-004,1.598270e-005
1.401247e-004,2.457216e-005
1.863134e-004,1.825161e-005
2.602152e-004,2.623614e-007
3.420582e-004,-1.869928e-005
4.164462e-004,-3.036798e-005
4.764104e-004,-3.458168e-005
5.138475e-004,-3.101624e-005
5.250300e-004,-2.210265e-005
5.086614e-004,-1.367526e-005
4.689553e-004,-1.335112e-005
4.226046e-004,-2.258885e-005
3.901916e-004,-3.814712e-005
3.752816e-004,-5.808115e-005
3.657197e-004,-7.752898e-005
3.415720e-004,-8.984595e-005
2.854973e-004,-9.098041e-005
1.867996e-004,-8.368747e-005
4.677511e-005,-7.153257e-005
-1.232314e-004,-5.872941e-005
-3.000446e-004,-4.317114e-005
-4.585445e-004,-2.631635e-005
-5.796073e-004,-9.947754e-006
-6.514022e-004,6.907039e-006
-6.830049e-004,2.327564e-005
-6.930529e-004,3.932010e-005
-6.980770e-004,5.601283e-005
-6.954839e-004,6.832980e-005
-6.680949e-004,7.367795e-005
-5.990550e-004,7.432621e-005
-4.778303e-004,7.465034e-005
-3.089582e-004,7.691926e-005
-1.135075e-004,7.610893e-005
8.340186e-005,7.011251e-005
2.587565e-004,5.860587e-005
3.944053e-004,4.645098e-005
4.804620e-004,3.818564e-005
5.154681e-004,3.802358e-005
5.010443e-004,4.742337e-005
4.490213e-004,6.395403e-005
3.790091e-004,8.129502e-005
3.094830e-004,9.685329e-005
2.482223e-004,1.034980e-004
1.911753e-004,9.847395e-005
1.316973e-004,8.745350e-005
6.881599e-005,7.886404e-005
3.341602e-006,7.821578e-005
-5.467778e-005,8.259154e-005
-9.746302e-005,8.534666e-005
-1.178833e-004,8.178122e-005
-1.162626e-004,7.173317e-005
-9.892161e-005,5.925414e-005
-7.444974e-005,5.325772e-005
-4.689864e-005,5.666109e-005
-1.983374e-005,6.606088e-005
-6.176923e-008,7.918817e-005
1.257933e-005,9.312579e-005
2.133085e-005,1.039842e-004
2.716520e-005,1.070634e-004
2.829966e-005,1.043083e-004
2.619281e-005,9.960840e-005
1.971020e-005,9.636710e-005
7.231170e-006,9.717742e-005
-1.173047e-005,9.896014e-005
-3.539201e-005,9.620503e-005
-5.483985e-005,8.453633e-005
-6.310517e-005,6.897806e-005
-5.921561e-005,5.617490e-005
-4.576419e-005,4.969228e-005
-2.793700e-005,5.001641e-005
-9.137427e-006,5.034054e-005
7.879431e-006,4.693717e-005
1.663096e-005,4.013043e-005
1.338965e-005,3.380988e-005
-1.358292e-006,2.992031e-005
-1.902341e-005,2.716520e-005
-3.085418e-005,2.554455e-005
-2.809907e-005,2.246531e-005
-8.651231e-006,1.193106e-005
2.262737e-005,-2.330684e-006
5.406805e-005,-1.707863e-005
7.789165e-005,-2.712668e-005
8.907416e-005,-3.134038e-005
8.793970e-005,-3.247483e-005
8.502253e-005,-3.425755e-005
9.247753e-005,-3.425755e-005
1.159770e-004,-3.506787e-005
1.498487e-004,-3.685059e-005
1.814514e-004,-3.749886e-005
1.971717e-004,-3.668853e-005
1.929580e-004,-3.441962e-005
1.759412e-004,-3.069211e-005
1.571416e-004,-2.647842e-005
1.398006e-004,-2.356124e-005
1.224596e-004,-2.080613e-005
1.072255e-004,-2.356124e-005
9.652916e-005,-3.198863e-005
8.907416e-005,-3.976777e-005
8.421220e-005,-3.782299e-005
7.627100e-005,-2.631635e-005
6.541262e-005,-1.302699e-005
6.006446e-005,-1.358292e-006
6.622294e-005,9.986280e-006
8.080882e-005,2.278944e-005
9.231547e-005,3.267542e-005
9.247753e-005,3.478227e-005
8.080882e-005,3.056858e-005
6.281957e-005,2.619281e-005
4.969228e-005,2.829966e-005
4.645098e-005,3.380988e-005
5.504044e-005,3.786152e-005
7.238143e-005,4.256141e-005
9.280166e-005,5.147500e-005
1.077117e-004,6.751947e-005
1.103047e-004,8.712937e-005
1.049566e-004,1.054428e-004
1.017153e-004,1.211631e-004
1.073875e-004,1.307249e-004
1.261871e-004,1.362352e-004
1.561692e-004,1.373696e-004
1.908512e-004,1.393144e-004
2.193747e-004,1.470936e-004
2.287745e-004,1.579519e-004
2.083542e-004,1.586002e-004
1.582760e-004,1.433660e-004
9.701536e-005,1.175977e-004
4.369587e-005,9.134307e-005
6.258778e-006,7.546067e-005
-1.432352e-005,7.254349e-005
-2.437157e-005,7.870197e-005
-3.215070e-005,8.323980e-005
-3.944364e-005,7.643306e-005
-4.041603e-005,6.281957e-005
-2.826113e-005,4.871989e-005
-4.437533e-006,3.802358e-005
2.359977e-005,3.883391e-005
4.645098e-005,5.034054e-005
5.666109e-005,6.298164e-005
4.953022e-005,7.221937e-005
2.878586e-005,7.238143e-005
3.503668e-006,6.411610e-005
-2.161646e-005,5.406805e-005
-4.511592e-005,4.385793e-005
-6.569822e-005,3.299956e-005
-7.347736e-005,1.549650e-005
-5.727082e-005,-1.059601e-005
-1.659243e-005,-3.879538e-005
3.769945e-005,-5.646050e-005
9.085687e-005,-5.678463e-005
1.320215e-004,-4.268495e-005
1.563313e-004,-1.999580e-005
1.660552e-004,2.531276e-006
1.707551e-004,1.646889e-005
1.731861e-004,2.019640e-005
1.637863e-004,1.954813e-005
1.331559e-004,1.679302e-005
6.865393e-005,1.517237e-005
-3.247483e-005,1.711715e-005
-1.669890e-004,2.424803e-005
-3.144684e-004,3.251336e-005
-4.394208e-004,3.575467e-005
-5.147811e-004,3.040651e-005
-5.355255e-004,2.165498e-005
-5.112157e-004,1.598270e-005
-4.604893e-004,1.776542e-005
-4.058733e-004,2.197911e-005
-3.689224e-004,2.149292e-005
-3.676258e-004,1.776542e-005
-4.092766e-004,1.501031e-005
-4.786406e-004,1.160693e-005
-5.431426e-004,7.555300e-006
-5.817141e-004,2.045080e-006
-5.826865e-004,-3.465141e-006
-5.439529e-004,-1.318906e-005
-4.784785e-004,-2.777494e-005
-3.974459e-004,-4.268495e-005
-3.026377e-004,-5.289506e-005
-1.974573e-004,-5.953974e-005
-8.676671e-005,-6.213279e-005
1.792748e-005,-5.678463e-005
1.111150e-004,-4.349527e-005
1.866375e-004,-2.647842e-005
2.401191e-004,-9.785687e-006
2.731804e-004,4.638125e-006
2.932765e-004,1.695509e-005
3.072141e-004,2.813760e-005
3.198552e-004,3.462021e-005
3.346032e-004,3.656499e-005
3.517821e-004,3.672705e-005
3.670162e-004,3.850977e-005
3.806297e-004,4.142695e-005
3.947294e-004,4.709924e-005
4.055878e-004,5.455424e-005
4.059119e-004,5.730935e-005
3.950535e-004,5.682316e-005
3.822504e-004,5.585077e-005
3.687989e-004,5.941620e-005
3.532407e-004,6.508849e-005
3.350894e-004,6.881599e-005
3.099692e-004,7.221937e-005
2.793389e-004,7.837785e-005
2.466016e-004,8.826383e-005
2.122438e-004,1.018773e-004
1.809652e-004,1.164632e-004
1.496866e-004,1.261871e-004
1.187321e-004,1.294284e-004
8.891209e-005,1.253768e-004
6.217131e-005,1.172735e-004
4.223728e-005,1.056048e-004
2.295151e-005,9.377405e-005
3.827798e-006,8.291567e-005
-9.623623e-006,7.740545e-005
-8.651231e-006,8.259154e-005
9.338019e-006,9.620503e-005
4.742337e-005,1.114392e-004
1.078737e-004,1.203528e-004
1.842065e-004,1.203528e-004
2.673460e-004,1.133840e-004
3.376824e-004,1.059289e-004
3.720402e-004,1.015532e-004
3.605336e-004,9.928427e-005
3.086727e-004,9.636710e-005
2.297469e-004,9.490851e-005
1.417454e-004,9.344992e-005
6.119892e-005,9.020861e-005
3.989864e-006,7.805372e-005
-2.437157e-005,6.071273e-005
-2.826113e-005,4.693717e-005
-1.659243e-005,4.045456e-005
1.002961e-007,4.110282e-005
1.128280e-005,4.320967e-005
1.047248e-005,3.769945e-005
-4.275467e-006,1.403791e-005
-2.453363e-005,-2.793700e-005
-4.155049e-005,-7.412562e-005
-5.127441e-005,-1.065387e-004
-5.111234e-005,-1.112386e-004
-4.430560e-005,-9.000801e-005
-3.506787e-005,-5.500191e-005
-2.518189e-005,-2.647842e-005
-1.821308e-005,-1.805102e-005
-1.869928e-005,-2.647842e-005
-3.069211e-005,-3.895744e-005
-5.727082e-005,-4.479180e-005
-9.179074e-005,-4.608832e-005
-1.253383e-004,-4.884343e-005
-1.511066e-004,-5.613637e-005
-1.614788e-004,-6.472583e-005
-1.564548e-004,-6.845333e-005
-1.402483e-004,-6.180866e-005
-1.185315e-004,-4.949169e-005
-9.324932e-005,-3.976777e-005
-6.602235e-005,-3.620233e-005
-4.381940e-005,-3.604027e-005
-3.393342e-005,-3.798505e-005
-3.879538e-005,-3.668853e-005
-5.305713e-005,-3.101624e-005
-6.456376e-005,-2.129233e-005
-6.440169e-005,-1.010982e-005
-4.981582e-005,-3.789271e-006
-1.853721e-005,-4.761663e-006
2.522042e-005,-3.789271e-006
7.384001e-005,2.207145e-006
1.210010e-004,1.403791e-005
1.675138e-004,2.781346e-005
2.279641e-004,3.883391e-005
3.172621e-004,4.239934e-005
4.425387e-004,3.899597e-005
5.859666e-004,3.283749e-005
7.091363e-004,3.073064e-005
7.678040e-004,3.672705e-005
7.410632e-004,4.726130e-005
6.342620e-004,5.714729e-005
4.728449e-004,6.103685e-005
2.869559e-004,5.909207e-005
1.091703e-004,5.811968e-005
-3.522994e-005,6.508849e-005
-1.310105e-004,7.805372e-005
-1.705545e-004,9.069480e-005
-1.549962e-004,9.863601e-005
-9.568031e-005,1.012291e-004
-1.529591e-005,1.033359e-004
5.925414e-005,1.062531e-004
1.111150e-004,1.075496e-004
1.381799e-004,1.059289e-004
1.483901e-004,1.010670e-004
1.514693e-004,9.344992e-005
1.477418e-004,8.648111e-005
1.286181e-004,8.437427e-005
7.562274e-005,8.453633e-005
-3.263690e-005,8.469840e-005
-2.097743e-004,8.259154e-005
-4.343967e-004,7.902610e-005
-6.595054e-004,7.805372e-005
-8.329153e-004,7.951231e-005
-9.167030e-004,7.902610e-005
-9.011448e-004,7.157111e-005
-8.022850e-004,5.763348e-005
-6.559400e-004,4.450619e-005
-5.027883e-004,3.899597e-005
-3.728119e-004,4.304760e-005
-2.794623e-004,5.260946e-005
-2.185258e-004,6.281957e-005
-1.838438e-004,6.411610e-005
-1.686097e-004,5.212327e-005
-1.639098e-004,2.732727e-005
-1.622891e-004,1.558884e-006
-1.575892e-004,-1.399939e-005
-1.473791e-004,-1.675450e-005
-1.282554e-004,-1.416145e-005
-1.015147e-004,-9.299492e-006
-6.877746e-005,-3.303075e-006
-3.279896e-005,8.203561e-006
6.096713e-006,2.684107e-005
4.126489e-005,4.888196e-005
6.541262e-005,5.990240e-005
8.161915e-005,5.147500e-005
9.620503e-005,3.008238e-005
1.080358e-004,9.500084e-006
1.103047e-004,-6.544382e-006
1.009049e-004,-1.950961e-005
8.453633e-005,-3.020592e-005
6.865393e-005,-3.733679e-005
6.200925e-005,-4.381940e-005
6.395403e-005,-4.770897e-005
6.897806e-005,-4.236081e-005
7.416414e-005,-2.258885e-005
8.291567e-005,7.717366e-006
9.636710e-005,3.948217e-005
1.103047e-004,6.168512e-005
1.227837e-004,6.622294e-005
1.357490e-004,5.730935e-005
1.586002e-004,4.288554e-005
1.968476e-004,2.862379e-005
2.422259e-004,1.857574e-005
2.825802e-004,1.533444e-005
3.085106e-004,1.598270e-005
3.166139e-004,2.084466e-005
3.117519e-004,3.073064e-005
3.018659e-004,4.158902e-005
2.866318e-004,5.196120e-005
2.594048e-004,6.314371e-005
2.193747e-004,7.627100e-005
1.722137e-004,8.858796e-005
1.222975e-004,9.588090e-005
7.286762e-005,9.555677e-005
2.586868e-005,9.020861e-005
-1.626830e-005,8.242948e-005
-5.127441e-005,7.302969e-005
-7.607040e-005,6.557468e-005
-9.454584e-005,5.844381e-005
-1.067007e-004,5.098881e-005
-1.099420e-004,4.256141e-005
-1.044318e-004,2.651694e-005
-8.514606e-005,4.800190e-006
-4.819516e-005,-1.497178e-005
5.448451e-006,-2.323711e-005
6.606088e-005,-1.772689e-005
1.269974e-004,-6.176923e-008
1.843686e-004,2.489629e-005
2.323399e-004,4.677511e-005
2.637806e-004,6.168512e-005
2.748010e-004,7.513654e-005
2.679943e-004,9.199134e-005
2.553532e-004,1.075496e-004
2.511395e-004,1.187321e-004
2.584324e-004,1.255388e-004
2.675081e-004,1.316973e-004
2.678322e-004,1.346145e-004
2.540566e-004,1.287802e-004
2.289365e-004,1.127357e-004
1.976579e-004,9.344992e-005
1.676758e-004,7.805372e-005
1.483901e-004,7.546067e-005
1.419075e-004,8.583285e-005
1.372075e-004,1.033359e-004
1.231079e-004,1.174356e-004
9.669123e-005,1.172735e-004
6.136099e-005,9.831188e-005
2.781346e-005,6.800567e-005
8.203561e-006,3.494434e-005
1.646889e-005,2.369210e-006
5.115087e-005,-2.453363e-005
9.912220e-005,-4.592625e-005
1.457970e-004,-6.180866e-005
1.778859e-004,-7.039811e-005
1.890685e-004,-6.829127e-005
1.864754e-004,-5.727082e-005
1.833962e-004,-4.333321e-005
1.866375e-004,-3.085418e-005
1.869616e-004,-1.691656e-005
1.736723e-004,-5.734055e-006
1.446626e-004,2.045080e-006
1.075496e-004,4.476060e-006
7.302969e-005,-2.238345e-007
4.758544e-005,-7.030578e-006
2.716520e-005,-1.124428e-005
1.720949e-006,-9.299492e-006
-3.555407e-005,-5.571990e-006
-8.887356e-005,-6.058186e-006
-1.574272e-004,-1.837515e-005
-2.355427e-004,-3.701266e-005
-3.188442e-004,-5.289506e-005
-4.117076e-004,-5.629843e-005
-5.108916e-004,-4.722277e-005
-6.031067e-004,-3.069211e-005
-6.653398e-004,-1.529591e-005
-6.804119e-004,-6.382316e-006
-6.424886e-004,-3.303075e-006
-5.606457e-004,-3.303075e-006
-4.596789e-004,-1.682422e-006
-3.640604e-004,2.045080e-006
-2.848105e-004,4.800190e-006
-2.235498e-004,5.286386e-006
-1.731475e-004,6.258778e-006
-1.277692e-004,1.241726e-005
-7.947377e-005,2.327564e-005
-2.242678e-005,3.267542e-005
3.688912e-005,3.753739e-005
8.615698e-005,3.867184e-005
1.247285e-004,3.721326e-005
1.548727e-004,3.607880e-005
1.801549e-004,3.867184e-005
1.986303e-004,4.110282e-005
2.112714e-004,4.061663e-005
2.175920e-004,4.239934e-005
2.174299e-004,5.017848e-005
2.083542e-004,6.055066e-005
1.924718e-004,6.978838e-005
1.812893e-004,7.351588e-005
1.793446e-004,7.059870e-005
1.804790e-004,6.492643e-005
1.775618e-004,6.168512e-005
1.725378e-004,6.038860e-005
1.652449e-004,5.876794e-005
1.568175e-004,5.471631e-005
1.498487e-004,5.001641e-005
1.451487e-004,4.596478e-005
1.388282e-004,4.369587e-005
1.336421e-004,4.823369e-005
1.331559e-004,6.379197e-005
1.372075e-004,8.793970e-005
1.440143e-004,1.128978e-004
1.469315e-004,1.305629e-004
1.419075e-004,1.349386e-004
1.300767e-004,1.265113e-004
1.185700e-004,1.125736e-004
1.104668e-004,9.896014e-005
1.054428e-004,8.161915e-005
1.051186e-004,6.330577e-005
1.098185e-004,4.953022e-005
1.133840e-004,4.223728e-005
1.106288e-004,4.531652e-005
1.017153e-004,5.876794e-005
9.020861e-005,7.594687e-005
7.918817e-005,8.745350e-005
6.930219e-005,8.648111e-005
5.844381e-005,7.400208e-005
4.596478e-005,5.196120e-005
3.364782e-005,2.667901e-005
1.825161e-005,5.610517e-006
-2.006553e-006,-9.947754e-006
-3.393342e-005,-1.999580e-005
-7.947377e-005,-2.453363e-005
-1.298761e-004,-2.145439e-005
-1.656925e-004,-1.399939e-005
-1.715269e-004,-7.516774e-006
-1.473791e-004,-2.492749e-006
-1.015147e-004,2.855406e-006
-4.511592e-005,1.484824e-005
7.393235e-006,3.364782e-005
4.207521e-005,5.649903e-005
5.341978e-005,7.870197e-005
4.434413e-005,9.571883e-005
2.667901e-005,1.034980e-004
1.695509e-005,1.000946e-004
2.392390e-005,8.502253e-005
4.547859e-005,6.444023e-005
7.221937e-005,4.807163e-005
9.701536e-005,3.737532e-005
1.198666e-004,2.992031e-005
1.419075e-004,2.489629e-005
1.676758e-004,2.214118e-005
1.926339e-004,1.825161e-005
2.044647e-004,1.079661e-005
1.973338e-004,4.244267e-007
1.777239e-004,-9.461557e-006
1.527658e-004,-1.805102e-005
1.153287e-004,-1.918548e-005
5.034054e-005,-1.432352e-005
-5.565017e-005,-6.058186e-006
-1.953505e-004,3.179537e-006
-3.392644e-004,7.393235e-006
-4.480102e-004,3.665733e-006
-4.922540e-004,-8.489165e-006
-4.648650e-004,-2.210265e-005
-3.778360e-004,-3.247483e-005
-2.572594e-004,-3.652646e-005
-1.336036e-004,-3.425755e-005
-3.441962e-005,-2.680255e-005
2.975825e-005,-1.902341e-005
6.492643e-005,-1.707863e-005
8.615698e-005,-2.096819e-005
1.036600e-004,-2.599222e-005
1.192183e-004,-2.453363e-005
1.300767e-004,-1.270286e-005
1.323456e-004,6.907039e-006
1.244044e-004,2.522042e-005
1.114392e-004,3.705119e-005
9.944633e-005,4.434413e-005
9.101894e-005,5.358185e-005
9.085687e-005,6.508849e-005
1.098185e-004,7.562274e-005
1.530900e-004,8.064676e-005
2.156472e-004,8.097089e-005
2.803112e-004,7.821578e-005
3.264999e-004,7.529860e-005
3.342790e-004,7.124698e-005
2.984626e-004,6.427816e-005
2.310434e-004,6.119892e-005
1.566554e-004,6.492643e-005
9.993253e-005,7.254349e-005
6.946425e-005,8.178122e-005
6.606088e-005,9.069480e-005
8.631904e-005,9.733949e-005
1.244044e-004,9.896014e-005
1.793446e-004,9.442231e-005
2.506533e-004,8.777764e-005
3.333066e-004,8.048469e-005
4.112601e-004,7.027457e-005
4.712243e-004,5.860587e-005
5.029890e-004,4.726130e-005
5.015305e-004,3.802358e-005
4.687933e-004,3.883391e-005
4.128807e-004,5.115087e-005
3.383307e-004,6.816773e-005
2.496809e-004,8.097089e-005
1.519555e-004,8.437427e-005
5.212327e-005,8.064676e-005
-4.495386e-005,7.221937e-005
-1.358725e-004,6.184718e-005
-2.240360e-004,5.309565e-005
-3.164132e-004,4.742337e-005
-4.209453e-004,4.661304e-005
-5.296912e-004,4.612685e-005
-6.197994e-004,4.207521e-005
-6.661501e-004,3.834771e-005
-6.578848e-004,3.834771e-005
-6.001896e-004,3.915804e-005
-5.149432e-004,3.850977e-005
-4.207833e-004,3.218923e-005
-3.277578e-004,1.841368e-005
-2.417011e-004,2.045080e-006
-1.707165e-004,-1.027188e-005
-1.149661e-004,-1.351319e-005
-6.553616e-005,-7.678839e-006
-1.837515e-005,4.151929e-006
2.262737e-005,1.160693e-005
5.131293e-005,4.800190e-006
6.735740e-005,-9.623623e-006
7.270556e-005,-2.210265e-005
6.233338e-005,-3.069211e-005
3.397195e-005,-3.441962e-005
-1.270286e-005,-3.652646e-005
-7.185670e-005,-3.733679e-005
-1.297140e-004,-3.506787e-005
-1.712027e-004,-2.939559e-005
-1.840059e-004,-2.258885e-005
-1.653684e-004,-1.416145e-005
-1.240417e-004,-1.034161e-006
-7.704279e-005,1.549650e-005
-3.911951e-005,2.781346e-005
-1.756482e-005,3.024445e-005
-4.275467e-006,2.716520e-005
6.258778e-006,2.197911e-005
1.987226e-005,1.841368e-005
4.061663e-005,2.068259e-005
7.059870e-005,3.008238e-005
1.059289e-004,4.418206e-005
1.438522e-004,5.649903e-005
1.817755e-004,6.217131e-005
2.180782e-004,6.022653e-005
2.438465e-004,5.050261e-005
2.480603e-004,3.591673e-005
2.271538e-004,2.165498e-005
1.843686e-004,1.322759e-005
1.255388e-004,9.824214e-006
6.525056e-005,7.069104e-006
2.214118e-005,2.207145e-006
5.448451e-006,-5.409925e-006
1.241726e-005,-1.869928e-005
3.850977e-005,-3.571614e-005
8.210535e-005,-4.835723e-005
1.331559e-004,-4.851930e-005
1.808031e-004,-3.490581e-005
2.154851e-004,-1.027188e-005
2.321778e-004,1.987226e-005
2.328261e-004,4.790957e-005
2.250470e-004,6.832980e-005
2.132162e-004,7.951231e-005
2.062474e-004,7.983643e-005
2.120818e-004,7.205730e-005
2.287745e-004,6.249544e-005
2.459534e-004,5.860587e-005
2.540566e-004,6.200925e-005
2.498430e-004,6.914012e-005
2.372019e-004,7.416414e-005
2.179161e-004,7.659513e-005
1.900409e-004,7.708132e-005
1.537382e-004,7.902610e-005
1.117633e-004,9.101894e-005
7.011251e-005,1.141943e-004
3.008238e-005,1.385041e-004
-4.761663e-006,1.555209e-004
-4.074016e-005,1.597346e-004
-8.709084e-005,1.504969e-004
-1.473791e-004,1.310491e-004
-2.165810e-004,1.072255e-004
-2.917793e-004,7.951231e-005
-3.737843e-004,5.034054e-005
-4.659995e-004,2.667901e-005
-5.575664e-004,1.144487e-005
-6.232028e-004,-3.858999e-007
-6.376266e-004,-1.010982e-005
-5.828486e-004,-1.869928e-005
-4.617858e-004,-2.242678e-005
-3.011791e-004,-1.805102e-005
-1.383035e-004,-4.923729e-006
-1.358292e-006,1.922400e-005
9.604297e-005,4.709924e-005
1.548727e-004,6.800567e-005
1.816135e-004,7.756751e-005
1.838824e-004,7.708132e-005
1.688103e-004,6.865393e-005
1.432040e-004,5.390598e-005
1.153287e-004,3.445814e-005
9.393611e-005,1.630683e-005
8.486046e-005,3.989864e-006
9.344992e-005,-8.720958e-007
1.164632e-004,-3.303075e-006
1.438522e-004,-4.113402e-006
1.650828e-004,-3.789271e-006
1.791825e-004,-5.085794e-006
1.936063e-004,-9.299492e-006
2.051129e-004,-1.399939e-005
2.068957e-004,-1.448558e-005
1.963614e-004,-1.189254e-005
1.770756e-004,-8.813297e-006
1.571416e-004,-2.168618e-006
1.451487e-004,7.555300e-006
1.438522e-004,1.322759e-005
1.566554e-004,1.387585e-005
1.801549e-004,9.662150e-006
2.112714e-004,6.907039e-006
2.446569e-004,8.689757e-006
2.692908e-004,1.501031e-005
2.701011e-004,2.457216e-005
2.394708e-004,3.688912e-005
1.885823e-004,4.823369e-005
1.363972e-004,5.747142e-005
1.054428e-004,6.087479e-005
1.096565e-004,5.601283e-005
1.464453e-004,4.823369e-005
1.981441e-004,4.223728e-005
2.389846e-004,3.769945e-005
2.501671e-004,3.445814e-005
2.320158e-004,3.283749e-005
1.957131e-004,3.543053e-005
1.582760e-004,4.158902e-005
1.286181e-004,4.790957e-005
1.098185e-004,5.212327e-005
1.005808e-004,5.341978e-005
9.847395e-005,5.390598e-005
9.977046e-005,5.536457e-005
9.847395e-005,5.811968e-005
9.166720e-005,6.152305e-005
7.789165e-005,6.411610e-005
5.795762e-005,6.719534e-005
4.320967e-005,7.189524e-005
3.737532e-005,7.578480e-005
3.624086e-005,8.080882e-005
3.380988e-005,8.696730e-005
2.392390e-005,9.215340e-005
6.582909e-006,9.701536e-005
-1.626830e-005,1.005808e-004
-3.814712e-005,1.015532e-004
-5.257093e-005,9.928427e-005
-5.629843e-005,9.604297e-005
-5.159854e-005,8.988448e-005
-4.138842e-005,8.340186e-005
-3.377135e-005,7.675719e-005
-3.733679e-005,7.108490e-005
-5.078821e-005,7.173317e-005
-6.748093e-005,8.405013e-005
-8.482193e-005,1.039842e-004
-1.011905e-004,1.266733e-004
-1.136696e-004,1.412592e-004
-1.209625e-004,1.389903e-004
-1.222590e-004,1.203528e-004
-1.162626e-004,9.361198e-005
-1.021629e-004,6.865393e-005
-8.644258e-005,5.277152e-005
-7.882551e-005,4.985435e-005
-8.498399e-005,5.536457e-005
-1.044318e-004,5.747142e-005
-1.323070e-004,4.823369e-005
-1.580754e-004,2.959618e-005
-1.765509e-004,7.231170e-006
-1.843300e-004,-1.610623e-005
-1.806025e-004,-3.668853e-005
-1.718510e-004,-5.419158e-005
-1.630995e-004,-6.796713e-005
-1.528894e-004,-7.347736e-005
-1.389517e-004,-6.958779e-005
-1.191798e-004,-6.035006e-005
-9.227693e-005,-4.916756e-005
-6.132245e-005,-4.057810e-005
-3.393342e-005,-3.782299e-005
-1.578211e-005,-3.749886e-005
-8.651231e-006,-3.863331e-005
-1.237873e-005,-4.252288e-005
-2.161646e-005,-5.078821e-005
-3.101624e-005,-6.197072e-005
-3.020592e-005,-6.942573e-005
1.234753e-006,-6.942573e-005
7.902610e-005,-6.148453e-005
1.987924e-004,-5.192267e-005
3.368721e-004,-4.608832e-005
4.615003e-004,-4.284701e-005
5.512845e-004,-3.863331e-005
5.976353e-004,-3.134038e-005
6.002283e-004,-2.177852e-005
5.614947e-004,-1.724069e-005
4.900239e-004,-1.869928e-005
3.944053e-004,-2.469570e-005
2.785285e-004,-3.101624e-005
1.534141e-004,-3.101624e-005
3.559260e-005,-2.793700e-005
-6.294311e-005,-2.712668e-005
-1.400862e-004,-2.793700e-005
-2.055606e-004,-2.842320e-005
-2.697384e-004,-3.101624e-005
-3.309991e-004,-3.409548e-005
-3.726499e-004,-3.166451e-005
-3.744326e-004,-1.821308e-005
-3.318094e-004,4.638125e-006
-2.642282e-004,3.348575e-005
-1.971332e-004,6.200925e-005
-1.485136e-004,8.194328e-005
-1.258244e-004,8.696730e-005
-1.350622e-004,8.080882e-005
-1.734716e-004,7.059870e-005
-2.329496e-004,6.314371e-005
-3.000446e-004,6.816773e-005
-3.613053e-004,9.037068e-005
-4.040906e-004,1.193804e-004
-4.162455e-004,1.419075e-004
-3.898288e-004,1.493625e-004
-3.245165e-004,1.417454e-004
-2.297083e-004,1.276457e-004
-1.122110e-004,1.163011e-004
1.371378e-005,1.127357e-004
1.323456e-004,1.156529e-004
2.269918e-004,1.224596e-004
2.895490e-004,1.255388e-004
3.192069e-004,1.164632e-004
3.190449e-004,9.863601e-005
2.957075e-004,8.372600e-005
2.631323e-004,7.335382e-005
2.316917e-004,5.844381e-005
2.065715e-004,3.462021e-005
1.851789e-004,1.371378e-005
1.608691e-004,7.393235e-006
1.375317e-004,2.052053e-005
1.150046e-004,4.661304e-005
9.458438e-005,7.027457e-005
7.578480e-005,7.902610e-005
6.071273e-005,6.849186e-005
4.742337e-005,4.288554e-005
3.170303e-005,1.501031e-005
1.160693e-005,-3.465141e-006
-6.868512e-006,-1.027188e-005
-1.513384e-005,-2.978945e-006
-1.416145e-005,1.338965e-005
-1.156841e-005,3.186510e-005
-1.010982e-005,4.596478e-005
-2.492749e-006,5.763348e-005
2.084466e-005,6.946425e-005
6.265751e-005,8.405013e-005
1.180839e-004,1.022014e-004
1.733481e-004,1.206769e-004
2.112714e-004,1.336421e-004
2.226160e-004,1.398006e-004
2.068957e-004,1.393144e-004
1.707551e-004,1.315353e-004
1.300767e-004,1.192183e-004
1.031738e-004,1.033359e-004
9.685329e-005,8.777764e-005
1.069013e-004,7.546067e-005
1.227837e-004,6.379197e-005
1.359110e-004,4.953022e-005
1.448246e-004,3.429608e-005
1.532520e-004,2.392390e-005
1.623277e-004,2.035846e-005
1.675138e-004,2.068259e-005
1.560071e-004,2.359977e-005
1.158149e-004,2.975825e-005
4.547859e-005,3.688912e-005
-3.814712e-005,3.786152e-005
-1.008664e-004,3.056858e-005
-1.204763e-004,1.744128e-005
-9.762508e-005,-8.720958e-007
-4.689864e-005,-2.080613e-005
1.176900e-005,-4.009190e-005
5.990240e-005,-5.937767e-005
9.069480e-005,-7.558420e-005
1.054428e-004,-8.628051e-005
1.083599e-004,-9.000801e-005
1.056048e-004,-8.871149e-005
1.028497e-004,-8.563225e-005
1.025256e-004,-8.222889e-005
1.041462e-004,-8.028410e-005
1.069013e-004,-7.574627e-005
1.112771e-004,-6.634648e-005
1.172735e-004,-5.467778e-005
1.242423e-004,-4.544005e-005
1.299146e-004,-4.074016e-005
1.326697e-004,-3.766092e-005
1.328318e-004,-3.636440e-005
1.307249e-004,-3.377135e-005
1.266733e-004,-2.777494e-005
1.167873e-004,-1.497178e-005
9.685329e-005,-1.196226e-006
7.011251e-005,8.851824e-006
4.547859e-005,1.501031e-005
2.959618e-005,1.760335e-005
2.505835e-005,1.938607e-005
2.635488e-005,2.554455e-005
2.765140e-005,3.996836e-005
2.489629e-005,6.087479e-005
1.744128e-005,8.161915e-005
1.257933e-005,9.620503e-005
1.257933e-005,9.912220e-005
1.436204e-005,9.604297e-005
1.517237e-005,9.247753e-005
1.176900e-005,9.442231e-005
3.665733e-006,9.879807e-005
-4.275467e-006,1.015532e-004
-1.140634e-005,1.041462e-004
-2.242678e-005,1.103047e-004
-3.652646e-005,1.167873e-004
-4.803310e-005,1.175977e-004
-5.419158e-005,1.175977e-004
-5.467778e-005,1.253768e-004
-4.981582e-005,1.383420e-004
-4.317114e-005,1.496866e-004
-3.539201e-005,1.548727e-004
-3.749886e-005,1.504969e-004
-5.338126e-005,1.352628e-004
-7.655659e-005,1.128978e-004
-9.746302e-005,8.907416e-005
-1.107524e-004,6.849186e-005
-1.152902e-004,5.455424e-005
-1.162626e-004,5.098881e-005
-1.216107e-004,4.936815e-005
-1.365208e-004,4.094075e-005
-1.588858e-004,2.878586e-005
-1.780095e-004,1.954813e-005
-1.865989e-004,1.889987e-005
-1.825473e-004,2.651694e-005
-1.721751e-004,3.786152e-005
-1.619650e-004,4.969228e-005
-1.540238e-004,6.136099e-005
-1.446240e-004,6.784360e-005
-1.280934e-004,7.059870e-005
-9.794922e-005,7.221937e-005
-5.791909e-005,7.157111e-005
-1.529591e-005,6.703327e-005
2.813760e-005,5.893001e-005
7.481241e-005,4.661304e-005
1.289422e-004,2.878586e-005
1.944166e-004,3.989864e-006
2.702632e-004,-2.534396e-005
3.519442e-004,-5.872941e-005
4.339492e-004,-9.276313e-005
5.122268e-004,-1.256624e-004
5.820770e-004,-1.538618e-004
6.355586e-004,-1.729855e-004
6.590580e-004,-1.812508e-004
6.434998e-004,-1.788198e-004
5.892079e-004,-1.692580e-004
5.020167e-004,-1.533756e-004
3.926225e-004,-1.308485e-004
2.741528e-004,-1.070249e-004
1.620035e-004,-8.660465e-005
6.751947e-005,-6.893953e-005
-9.623623e-006,-5.046408e-005
-8.563225e-005,-2.923352e-005
-1.707165e-004,-3.789271e-006
-2.632558e-004,1.889987e-005
-3.509331e-004,3.834771e-005
-4.238625e-004,5.552663e-005
-4.674581e-004,7.351588e-005
-4.692408e-004,9.247753e-005
-4.245108e-004,1.122495e-004
-3.452609e-004,1.305629e-004
-2.543422e-004,1.410971e-004
-1.673132e-004,1.388282e-004
-8.952182e-005,1.257009e-004
-2.015787e-005,1.041462e-004
3.607880e-005,7.772959e-005
7.708132e-005,5.487837e-005
1.052807e-004,4.855782e-005
1.295905e-004,6.087479e-005
1.519555e-004,8.259154e-005
1.699447e-004,1.038221e-004
1.754550e-004,1.177597e-004
1.641104e-004,1.226217e-004
1.386661e-004,1.239182e-004
1.051186e-004,1.250527e-004
6.962632e-005,1.295905e-004
3.478227e-005,1.359110e-004
-4.437533e-006,1.419075e-004
-4.706071e-005,1.432040e-004
-8.709084e-005,1.389903e-004
-1.212866e-004,1.297525e-004
-1.489998e-004,1.197045e-004
-1.690959e-004,1.069013e-004
-1.794681e-004,8.939829e-005
-1.862748e-004,6.914012e-005
-1.990780e-004,5.017848e-005
-2.123673e-004,3.818564e-005
-2.149604e-004,3.559260e-005
-1.979435e-004,3.753739e-005
-1.619650e-004,4.207521e-005
-1.211245e-004,4.790957e-005
-9.551824e-005,5.455424e-005
-1.008664e-004,6.087479e-005
-1.408965e-004,6.362990e-005
-2.002124e-004,5.941620e-005
-2.436459e-004,5.050261e-005
-2.465631e-004,4.013043e-005
-2.107467e-004,2.927205e-005
-1.530514e-004,2.035846e-005
-9.341139e-005,1.501031e-005
-4.365734e-005,1.582063e-005
-1.189254e-005,1.954813e-005
-1.682422e-006,2.197911e-005
-6.706447e-006,2.181705e-005
-1.675450e-005,2.019640e-005
-2.388537e-005,1.646889e-005
-2.566809e-005,1.095867e-005
-2.129233e-005,4.476060e-006
-1.513384e-005,-1.844488e-006
-1.059601e-005,-9.623623e-006
-6.868512e-006,-1.707863e-005
3.017472e-006,-2.258885e-005
2.635488e-005,-2.793700e-005
6.119892e-005,-3.798505e-005
9.912220e-005,-5.095028e-005
1.291043e-004,-6.375343e-005
1.469315e-004,-7.185670e-005
1.553589e-004,-7.315322e-005
1.603829e-004,-7.007398e-005
1.692965e-004,-6.521203e-005
1.850168e-004,-6.197072e-005
2.190506e-004,-5.953974e-005
2.840387e-004,-5.548810e-005
3.752816e-004,-4.592625e-005
4.793275e-004,-3.344722e-005
5.751082e-004,-1.934754e-005
6.345861e-004,-6.868512e-006
6.329655e-004,1.558884e-006
5.687876e-004,4.962256e-006
4.621486e-004,1.396819e-006
3.435167e-004,-3.141010e-006
2.438465e-004,-3.141010e-006
1.791825e-004,2.369210e-006
1.480659e-004,1.257933e-005
1.360731e-004,2.343770e-005
1.312111e-004,3.364782e-005
1.235941e-004,4.158902e-005
1.078737e-004,4.726130e-005
8.810177e-005,5.212327e-005
7.027457e-005,5.909207e-005
6.006446e-005,6.816773e-005
5.601283e-005,7.805372e-005
5.309565e-005,9.085687e-005
4.580272e-005,1.054428e-004
3.380988e-005,1.172735e-004
2.230324e-005,1.234320e-004
2.035846e-005,1.234320e-004
3.056858e-005,1.240803e-004
4.434413e-005,1.287802e-004
5.487837e-005,1.354248e-004
6.103685e-005,1.422316e-004
6.233338e-005,1.466074e-004
5.779555e-005,1.496866e-004
5.568870e-005,1.495245e-004
6.249544e-005,1.419075e-004
7.384001e-005,1.258630e-004
8.372600e-005,1.052807e-004
8.631904e-005,8.242948e-005
7.951231e-005,6.395403e-005
6.055066e-005,5.341978e-005
3.121684e-005,5.163707e-005
3.989864e-006,5.747142e-005
-1.092015e-005,7.011251e-005
-1.335112e-005,9.085687e-005
-1.221667e-005,1.112771e-004
-1.805102e-005,1.158149e-004
-3.668853e-005,9.782569e-005
-6.342930e-005,6.719534e-005
-9.260106e-005,3.445814e-005
-1.175591e-004,1.047248e-005
-1.352242e-004,3.665733e-006
-1.485136e-004,1.808955e-005
-1.665028e-004,4.483032e-005
-2.045882e-004,7.367795e-005
-2.763831e-004,9.263960e-005
-3.781601e-004,9.879807e-005
-4.870680e-004,9.280166e-005
-5.682627e-004,7.772959e-005
-5.958137e-004,5.763348e-005
-5.608077e-004,3.543053e-005
-4.752372e-004,1.193106e-005
-3.624398e-004,-8.489165e-006
-2.514251e-004,-2.339917e-005
-1.629374e-004,-3.198863e-005
-1.042698e-004,-3.555407e-005
-6.569822e-005,-4.106429e-005
-3.247483e-005,-5.435365e-005
9.662150e-006,-7.299116e-005
6.735740e-005,-9.000801e-005
1.351007e-004,-9.989400e-005
1.958752e-004,-9.454584e-005
2.336364e-004,-7.412562e-005
2.399570e-004,-4.819516e-005
2.208333e-004,-2.518189e-005
1.893926e-004,-6.544382e-006
1.587622e-004,5.864920e-007
1.394765e-004,1.072688e-006
1.373696e-004,-2.238345e-007
1.493625e-004,-5.479652e-007
1.678379e-004,-1.682422e-006
1.880961e-004,-7.354708e-006
2.096508e-004,-1.545797e-005
2.339606e-004,-2.031993e-005
2.610255e-004,-1.869928e-005
2.833905e-004,-1.010982e-005
2.939247e-004,2.045080e-006
2.885766e-004,1.014835e-005
2.681563e-004,1.306552e-005
2.407673e-004,1.160693e-005
2.141886e-004,4.313994e-006
1.880961e-004,-3.951337e-006
1.610312e-004,-9.461557e-006
1.438522e-004,-9.947754e-006
1.459591e-004,-6.706447e-006
1.660552e-004,-1.034161e-006
1.879340e-004,1.883015e-006
1.965235e-004,2.207145e-006
1.871237e-004,1.234753e-006
1.665414e-004,1.883015e-006
1.453108e-004,3.827798e-006
1.271595e-004,7.393235e-006
1.122495e-004,1.112074e-005
9.944633e-005,1.144487e-005
8.615698e-005,9.500084e-006
6.930219e-005,7.879431e-006
5.001641e-005,9.662150e-006
3.089270e-005,1.468617e-005
1.419998e-005,2.392390e-005
6.907039e-006,3.624086e-005
5.772582e-006,5.066468e-005
6.258778e-006,6.184718e-005
5.286386e-006,6.995045e-005
4.476060e-006,7.756751e-005
2.855406e-006,8.631904e-005
-3.465141e-006,9.733949e-005
-1.610623e-005,1.091703e-004
-3.215070e-005,1.175977e-004
-4.560212e-005,1.197045e-004
-5.451571e-005,1.167873e-004
-6.310517e-005,1.098185e-004
-7.250496e-005,1.012291e-004
-7.769105e-005,9.507057e-005
-7.120844e-005,9.215340e-005
-5.532604e-005,9.020861e-005
-3.620233e-005,8.486046e-005
-2.080613e-005,7.432621e-005
-1.480971e-005,5.828174e-005
-1.788895e-005,4.628891e-005
-3.134038e-005,4.758544e-005
-4.949169e-005,6.476436e-005
-6.796713e-005,9.069480e-005
-8.563225e-005,1.166253e-004
-1.060525e-004,1.304008e-004
-1.331174e-004,1.252147e-004
-1.643960e-004,1.002567e-004
-1.964849e-004,6.508849e-005
-2.246843e-004,3.040651e-005
-2.512630e-004,5.124321e-006
-2.801106e-004,-6.058186e-006
-3.044204e-004,-8.651231e-006
-3.177098e-004,-5.571990e-006
-3.136581e-004,9.106226e-007
-2.955068e-004,9.013888e-006
-2.609869e-004,2.084466e-005
-2.052364e-004,3.575467e-005
-1.352242e-004,4.969228e-005
-6.342930e-005,5.925414e-005
-6.220251e-006,6.492643e-005
2.813760e-005,6.768153e-005
4.483032e-005,6.897806e-005
5.228533e-005,6.832980e-005
5.795762e-005,6.265751e-005
6.638501e-005,5.260946e-005
7.789165e-005,4.158902e-005
8.988448e-005,3.364782e-005
1.018773e-004,2.878586e-005
1.198666e-004,2.927205e-005
1.508210e-004,3.235129e-005
1.924718e-004,3.397195e-005
2.287745e-004,3.413401e-005
2.513016e-004,3.526847e-005
2.572980e-004,4.239934e-005
2.446569e-004,5.406805e-005
2.188885e-004,6.735740e-005
1.893926e-004,7.384001e-005
1.621656e-004,6.654707e-005
1.394765e-004,4.483032e-005
1.235941e-004,1.744128e-005
1.164632e-004,-7.516774e-006
1.172735e-004,-2.307504e-005
1.271595e-004,-2.907146e-005
1.474177e-004,-2.501983e-005
1.728619e-004,-1.432352e-005
1.937684e-004,-5.479652e-007
2.077060e-004,1.079661e-005
2.174299e-004,1.436204e-005
2.187264e-004,9.175954e-006
2.064095e-004,1.234753e-006
1.751308e-004,-1.844488e-006
1.211631e-004,6.420843e-006
5.325772e-005,2.165498e-005
-1.480971e-005,3.267542e-005
-7.234290e-005,3.478227e-005
-1.109144e-004,2.927205e-005
-1.230693e-004,1.808955e-005
-1.084835e-004,7.717366e-006
-7.509801e-005,2.207145e-006
-3.377135e-005,2.855406e-006
3.665733e-006,9.175954e-006
3.056858e-005,2.068259e-005
4.483032e-005,3.316162e-005
4.807163e-005,4.013043e-005
4.790957e-005,3.753739e-005
5.277152e-005,2.878586e-005
6.444023e-005,2.376183e-005
8.259154e-005,2.700314e-005
1.060910e-004,3.834771e-005
1.307249e-004,5.520250e-005
1.388282e-004,6.962632e-005
1.085220e-004,7.270556e-005
3.073064e-005,6.541262e-005
-7.607040e-005,5.471631e-005
-1.705545e-004,4.985435e-005
-2.135018e-004,5.406805e-005
-1.870851e-004,6.589881e-005
-1.016767e-004,7.935023e-005
1.193106e-005,8.729143e-005
1.206769e-004,8.826383e-005
2.007372e-004,8.469840e-005
2.472499e-004,8.064676e-005
2.629703e-004,7.238143e-005
2.535705e-004,6.119892e-005
2.265056e-004,5.163707e-005
1.882581e-004,4.661304e-005
1.441764e-004,4.499239e-005
9.960840e-005,4.353380e-005
5.649903e-005,4.483032e-005
2.052053e-005,4.774750e-005
-1.270286e-005,5.212327e-005
-5.208473e-005,5.730935e-005
-1.034594e-004,5.893001e-005
-1.690959e-004,5.714729e-005
-2.428356e-004,5.131293e-005
-3.040963e-004,4.304760e-005
-3.321336e-004,3.397195e-005
-3.177098e-004,2.603075e-005
-2.637420e-004,1.711715e-005
-1.861127e-004,5.448451e-006
-1.063766e-004,-6.058186e-006
-4.544005e-005,-1.383732e-005
-1.254080e-005,-1.675450e-005
-4.113402e-006,-1.416145e-005
-8.975361e-006,-9.947754e-006
-1.416145e-005,-8.651231e-006
-1.302699e-005,-1.383732e-005
-1.844488e-006,-2.453363e-005
1.841368e-005,-3.620233e-005
4.402000e-005,-4.430560e-005
7.140904e-005,-4.868136e-005
9.571883e-005,-4.657451e-005
1.179218e-004,-3.733679e-005
1.394765e-004,-2.874733e-005
1.605450e-004,-2.534396e-005
1.793446e-004,-2.031993e-005
1.898788e-004,-7.840905e-006
1.900409e-004,1.176900e-005
1.809652e-004,2.878586e-005
1.675138e-004,3.607880e-005
1.542244e-004,3.121684e-005
1.432040e-004,1.889987e-005
1.372075e-004,4.800190e-006
1.351007e-004,-4.113402e-006
1.381799e-004,-2.654814e-006
1.443384e-004,8.527692e-006
1.543865e-004,2.343770e-005
1.644345e-004,3.251336e-005
1.637863e-004,2.846173e-005
1.483901e-004,1.695509e-005
1.237561e-004,4.313994e-006
9.669123e-005,-5.734055e-006
6.946425e-005,-1.286493e-005
3.024445e-005,-1.464765e-005
-3.409548e-005,-1.221667e-005
-1.159385e-004,-7.678839e-006
-2.003745e-004,9.106226e-007
-2.695764e-004,1.387585e-005
-3.081479e-004,2.813760e-005
-3.050687e-004,4.142695e-005
-2.605007e-004,5.325772e-005
-1.796301e-004,6.362990e-005
-8.271508e-005,7.043664e-005
1.112074e-005,7.351588e-005
8.648111e-005,7.805372e-005
1.339663e-004,8.259154e-005
1.577899e-004,8.729143e-005
1.662173e-004,9.344992e-005
1.633001e-004,9.993253e-005
1.498487e-004,1.060910e-004
1.291043e-004,1.099806e-004
1.078737e-004,1.124116e-004
9.604297e-005,1.137081e-004
9.199134e-005,1.103047e-004
9.004655e-005,9.960840e-005
8.469840e-005,8.729143e-005
7.951231e-005,7.821578e-005
7.837785e-005,7.448828e-005
8.388807e-005,7.853991e-005
9.766362e-005,8.988448e-005
1.128978e-004,1.059289e-004
1.218114e-004,1.179218e-004
1.210010e-004,1.227837e-004
1.119254e-004,1.234320e-004
9.652916e-005,1.222975e-004
7.708132e-005,1.203528e-004
6.249544e-005,1.174356e-004
5.504044e-005,1.106288e-004
5.714729e-005,9.717742e-005
6.411610e-005,7.756751e-005
6.800567e-005,5.763348e-005
5.504044e-005,4.353380e-005
1.614476e-005,3.591673e-005
-4.754691e-005,3.202716e-005
-1.217728e-004,2.813760e-005
-1.853024e-004,2.084466e-005
-2.264670e-004,7.393235e-006
-2.512630e-004,-7.030578e-006
-2.733039e-004,-1.416145e-005
-2.997205e-004,-1.237873e-005
-3.258130e-004,-3.303075e-006
-3.340783e-004,7.069104e-006
-3.049066e-004,1.112074e-005
-2.365150e-004,5.124321e-006
-1.415448e-004,-5.247859e-006
-4.851930e-005,-1.205460e-005
1.095867e-005,-1.140634e-005
2.603075e-005,-7.354708e-006
1.338965e-005,-8.975361e-006
6.420843e-006,-2.210265e-005
2.975825e-005,-4.398147e-005
9.182927e-005,-6.326724e-005
1.902029e-004,-7.347736e-005
3.098072e-004,-7.769105e-005
4.307079e-004,-8.060822e-005
5.332953e-004,-8.433573e-005
6.049282e-004,-8.077029e-005
6.371792e-004,-6.618442e-005
6.214589e-004,-4.868136e-005
5.574430e-004,-3.847125e-005
4.563142e-004,-3.587821e-005
3.357376e-004,-3.652646e-005
2.120818e-004,-3.749886e-005
1.025256e-004,-3.830918e-005
2.765140e-005,-3.409548e-005
2.045080e-006,-2.599222e-005
2.894792e-005,-1.205460e-005
9.377405e-005,4.800190e-006
1.743205e-004,2.197911e-005
2.475740e-004,4.029249e-005
2.957075e-004,5.876794e-005
3.094830e-004,7.384001e-005
2.812837e-004,8.323980e-005
2.149989e-004,8.469840e-005
1.284560e-004,7.594687e-005
4.191315e-005,6.265751e-005
-3.360929e-005,5.244739e-005
-9.778715e-005,4.904402e-005
-1.540238e-004,5.115087e-005
-2.011848e-004,5.487837e-005
-2.413770e-004,6.006446e-005
-2.794623e-004,6.800567e-005
-3.311612e-004,7.627100e-005
-4.066836e-004,8.340186e-005
-4.977643e-004,9.053274e-005
-5.870622e-004,9.636710e-005
-6.514022e-004,9.750155e-005
-6.755498e-004,9.717742e-005
-6.556159e-004,9.571883e-005
-5.990550e-004,8.988448e-005
-5.172121e-004,7.805372e-005
-4.211074e-004,5.909207e-005
-3.167374e-004,3.737532e-005
-2.141500e-004,1.987226e-005
-1.271210e-004,1.225519e-005
-5.970180e-005,1.582063e-005
-1.140634e-005,2.716520e-005
1.873781e-005,4.158902e-005
3.510640e-005,5.714729e-005
4.547859e-005,7.675719e-005
5.698522e-005,9.928427e-005
7.205730e-005,1.222975e-004
8.891209e-005,1.414213e-004
1.101426e-004,1.519555e-004
1.352628e-004,1.513072e-004
1.613553e-004,1.409351e-004
1.877719e-004,1.265113e-004
2.128921e-004,1.114392e-004
2.231022e-004,9.847395e-005
2.039785e-004,8.939829e-005
1.519555e-004,8.599491e-005
7.837785e-005,8.323980e-005
6.258778e-006,7.789165e-005
-4.106429e-005,7.367795e-005
-6.051213e-005,7.416414e-005
-6.310517e-005,8.161915e-005
-5.646050e-005,9.507057e-005
-4.317114e-005,1.080358e-004
-2.226472e-005,1.132219e-004
5.610517e-006,1.075496e-004
3.818564e-005,9.344992e-005
6.719534e-005,7.789165e-005
8.421220e-005,6.735740e-005
8.550872e-005,6.330577e-005
7.675719e-005,6.022653e-005
6.897806e-005,5.341978e-005
7.140904e-005,3.721326e-005
9.069480e-005,1.095867e-005
1.234320e-004,-2.275091e-005
1.615174e-004,-5.808115e-005
1.974959e-004,-8.838737e-005
2.287745e-004,-1.097800e-004
2.563256e-004,-1.211245e-004
2.832284e-004,-1.256624e-004
3.104554e-004,-1.280934e-004
3.355755e-004,-1.319829e-004
3.535648e-004,-1.345760e-004
3.642611e-004,-1.295519e-004
3.692851e-004,-1.156143e-004
3.640990e-004,-9.373551e-005
3.464339e-004,-6.796713e-005
3.206655e-004,-4.430560e-005
2.923041e-004,-2.356124e-005
2.660495e-004,-9.299492e-006
2.449810e-004,-2.492749e-006
2.303951e-004,-2.816880e-006
2.243987e-004,-7.516774e-006
2.248849e-004,-1.286493e-005
2.312054e-004,-1.254080e-005
2.365536e-004,-5.085794e-006
2.325020e-004,9.338019e-006
2.138645e-004,2.862379e-005
1.832341e-004,4.564065e-005
1.488763e-004,5.811968e-005
1.156529e-004,6.606088e-005
8.712937e-005,7.157111e-005
6.573675e-005,7.529860e-005
4.709924e-005,7.659513e-005
3.040651e-005,7.546067e-005
1.549650e-005,7.286762e-005
3.341602e-006,7.302969e-005
-1.196226e-006,7.805372e-005
3.827798e-006,8.291567e-005
1.630683e-005,7.837785e-005
2.586868e-005,6.508849e-005
2.522042e-005,5.277152e-005
1.257933e-005,4.953022e-005
-1.318906e-005,5.455424e-005
-5.419158e-005,6.573675e-005
-1.096179e-004,8.016056e-005
-1.797922e-004,9.296372e-005
-2.585559e-004,9.928427e-005
-3.319715e-004,9.393611e-005
-3.812393e-004,7.691926e-005
-3.984183e-004,5.325772e-005
-3.867496e-004,2.765140e-005
-3.496366e-004,4.151929e-006
-2.935620e-004,-1.108221e-005
-2.327876e-004,-1.270286e-005
-1.773612e-004,3.665733e-006
-1.340898e-004,3.478227e-005
-1.028112e-004,6.930219e-005
-7.623246e-005,1.007429e-004
-4.738484e-005,1.250527e-004
-1.594417e-005,1.398006e-004
1.695509e-005,1.440143e-004
4.564065e-005,1.336421e-004
6.087479e-005,1.161391e-004
5.876794e-005,1.009049e-004
3.251336e-005,9.312579e-005
-1.270286e-005,8.777764e-005
-6.456376e-005,7.724339e-005
-1.018388e-004,6.103685e-005
-1.034594e-004,4.645098e-005
-7.039811e-005,4.272347e-005
-2.177852e-005,5.212327e-005
1.598270e-005,7.140904e-005
2.862379e-005,9.409818e-005
1.744128e-005,1.120874e-004
-9.137427e-006,1.211631e-004
-4.219875e-005,1.213252e-004
-7.704279e-005,1.153287e-004
-1.073490e-004,1.069013e-004
-1.253383e-004,9.328785e-005
-1.293899e-004,7.270556e-005
-1.243659e-004,4.920609e-005
-1.157764e-004,2.522042e-005
-1.049180e-004,2.623614e-007
-8.725291e-005,-2.501983e-005
-5.321919e-005,-4.787104e-005
8.851824e-006,-6.731887e-005
1.020394e-004,-8.012203e-005
2.143507e-004,-8.401160e-005
3.256896e-004,-7.995997e-005
4.076946e-004,-7.104637e-005
4.323286e-004,-6.180866e-005
3.935950e-004,-5.597430e-005
3.140208e-004,-5.532604e-005
2.239125e-004,-5.727082e-005
1.490383e-004,-6.116039e-005
9.733949e-005,-6.910160e-005
6.557468e-005,-8.012203e-005
4.450619e-005,-8.725291e-005
2.748933e-005,-8.514606e-005
1.598270e-005,-7.299116e-005
1.144487e-005,-5.613637e-005
1.274139e-005,-3.911951e-005
1.646889e-005,-2.518189e-005
2.116879e-005,-1.610623e-005
2.716520e-005,-1.270286e-005
3.737532e-005,-1.432352e-005
4.709924e-005,-1.805102e-005
5.050261e-005,-2.064406e-005
4.969228e-005,-2.080613e-005
4.385793e-005,-1.886135e-005
3.429608e-005,-1.092015e-005
2.133085e-005,5.934647e-006
2.693341e-006,2.878586e-005
-1.659243e-005,4.969228e-005
-2.307504e-005,6.362990e-005
-1.659243e-005,6.719534e-005
-7.030578e-006,5.860587e-005
-3.951337e-006,4.612685e-005
-9.299492e-006,3.543053e-005
-1.821308e-005,2.910999e-005
-2.647842e-005,3.024445e-005
-3.020592e-005,4.596478e-005
-2.356124e-005,7.140904e-005
-9.623623e-006,9.717742e-005
5.610517e-006,1.148425e-004
1.679302e-005,1.185700e-004
2.149292e-005,1.069013e-004
1.857574e-005,8.712937e-005
8.203561e-006,6.865393e-005
-5.734055e-006,5.844381e-005
-1.869928e-005,5.649903e-005
-2.031993e-005,6.200925e-005
-9.461557e-006,7.140904e-005
5.124321e-006,7.886404e-005
1.873781e-005,8.129502e-005
2.910999e-005,8.486046e-005
3.575467e-005,9.426025e-005
3.510640e-005,1.059289e-004
2.408596e-005,1.151667e-004
3.017472e-006,1.177597e-004
-1.869928e-005,1.138701e-004
-3.425755e-005,1.098185e-004
-4.203669e-005,1.043083e-004
-4.041603e-005,9.798775e-005
-3.231276e-005,9.037068e-005
-2.031993e-005,8.145709e-005
-1.221667e-005,7.092283e-005
-1.075808e-005,6.233338e-005
-1.578211e-005,5.698522e-005
-2.518189e-005,5.163707e-005
-3.296103e-005,4.661304e-005
-3.506787e-005,4.434413e-005
-3.053005e-005,4.547859e-005
-2.145439e-005,4.871989e-005
-1.043395e-005,4.920609e-005
-2.238345e-007,4.839576e-005
3.827798e-006,4.596478e-005
3.827798e-006,3.932010e-005
7.879431e-006,2.635488e-005
1.663096e-005,7.717366e-006
2.829966e-005,-1.140634e-005
4.272347e-005,-2.939559e-005
5.763348e-005,-4.122636e-005
7.254349e-005,-4.495386e-005
8.599491e-005,-4.171255e-005
9.652916e-005,-3.474375e-005
1.047945e-004,-2.680255e-005
1.117633e-004,-1.950961e-005
1.172735e-004,-1.513384e-005
1.218114e-004,-1.724069e-005
1.252147e-004,-1.902341e-005
1.304008e-004,-1.399939e-005
1.427178e-004,-1.682422e-006
1.641104e-004,1.436204e-005
1.876099e-004,3.040651e-005
2.068957e-004,3.737532e-005
2.192126e-004,2.992031e-005
2.240746e-004,9.500084e-006
2.281262e-004,-1.124428e-005
2.370398e-004,-2.599222e-005
2.449810e-004,-3.263690e-005
2.443327e-004,-2.955766e-005
2.313675e-004,-2.194059e-005
2.115955e-004,-1.869928e-005
1.932822e-004,-2.583015e-005
1.775618e-004,-3.976777e-005
1.678379e-004,-5.013995e-005
1.709171e-004,-4.868136e-005
1.905270e-004,-3.782299e-005
2.214815e-004,-2.161646e-005
2.517877e-004,-7.516774e-006
2.647530e-004,-8.720958e-007
2.495188e-004,4.244267e-007
2.055991e-004,4.638125e-006
1.448246e-004,1.533444e-005
7.983643e-005,3.008238e-005
2.246531e-005,4.580272e-005
-3.198863e-005,6.071273e-005
-1.011905e-004,7.270556e-005
-1.948643e-004,8.048469e-005
-2.987481e-004,8.453633e-005
-3.825359e-004,8.907416e-005
-4.152730e-004,9.847395e-005
-3.815635e-004,1.090082e-004
-2.924276e-004,1.180839e-004
-1.833576e-004,1.255388e-004
-8.854943e-005,1.313732e-004
-2.745081e-005,1.312111e-004
-2.816880e-006,1.266733e-004
-4.599598e-006,1.229458e-004
-1.480971e-005,1.180839e-004
-1.724069e-005,1.094944e-004
-1.520357e-006,9.912220e-005
2.797553e-005,9.247753e-005
5.568870e-005,9.588090e-005
6.427816e-005,1.093323e-004
4.077869e-005,1.265113e-004
-2.194059e-005,1.391524e-004
-1.170729e-004,1.396385e-004
-2.261429e-004,1.269974e-004
-3.160891e-004,1.081979e-004
-3.653569e-004,9.442231e-005
-3.694086e-004,9.199134e-005
-3.352128e-004,9.701536e-005
-2.746004e-004,9.863601e-005
-2.019951e-004,9.069480e-005
-1.313347e-004,7.286762e-005
-7.493595e-005,5.196120e-005
-3.571614e-005,3.591673e-005
-1.205460e-005,2.505835e-005
-6.176923e-008,1.760335e-005
-2.330684e-006,1.274139e-005
-1.351319e-005,1.436204e-005
-3.053005e-005,2.230324e-005
-4.835723e-005,3.283749e-005
-6.537409e-005,4.207521e-005
-7.493595e-005,4.677511e-005
-7.007398e-005,4.547859e-005
-5.678463e-005,3.656499e-005
-4.057810e-005,2.424803e-005
-1.934754e-005,1.646889e-005
1.241726e-005,8.041497e-006
6.395403e-005,-3.627206e-006
1.441764e-004,-1.983374e-005
2.508154e-004,-3.701266e-005
3.621542e-004,-5.257093e-005
4.491834e-004,-6.310517e-005
4.898618e-004,-6.829127e-005
4.744656e-004,-6.861539e-005
4.162841e-004,-6.391550e-005
3.386548e-004,-5.419158e-005
2.628082e-004,-4.592625e-005
2.068957e-004,-4.138842e-005
1.767515e-004,-4.219875e-005
1.663793e-004,-4.544005e-005
1.691344e-004,-4.754691e-005
1.775618e-004,-4.706071e-005
1.843686e-004,-4.300908e-005
1.796687e-004,-3.328516e-005
1.645966e-004,-1.302699e-005
1.454729e-004,1.614476e-005
1.300767e-004,4.418206e-005
1.247285e-004,6.200925e-005
1.263492e-004,6.962632e-005
1.308870e-004,7.173317e-005
1.355869e-004,7.189524e-005
1.412592e-004,7.400208e-005
1.457970e-004,8.242948e-005
1.433660e-004,9.393611e-005
1.328318e-004,1.038221e-004
1.171115e-004,1.078737e-004
1.036600e-004,1.022014e-004
9.101894e-005,8.453633e-005
7.578480e-005,6.168512e-005
5.828174e-005,3.948217e-005
4.709924e-005,2.295151e-005
4.580272e-005,1.355172e-005
5.520250e-005,1.047248e-005
6.978838e-005,1.338965e-005
8.453633e-005,2.295151e-005
8.939829e-005,3.769945e-005
8.145709e-005,5.730935e-005
6.217131e-005,8.502253e-005
3.024445e-005,1.156529e-004
-8.651231e-006,1.386661e-004
-5.046408e-005,1.449867e-004
-8.838737e-005,1.357490e-004
-1.139937e-004,1.201907e-004
-1.258244e-004,1.028497e-004
-1.263107e-004,8.405013e-005
-1.232314e-004,6.152305e-005
-1.216107e-004,3.526847e-005
-1.196660e-004,3.989864e-006
-1.146419e-004,-2.518189e-005
-1.034594e-004,-4.268495e-005
-8.547019e-005,-3.911951e-005
-6.650855e-005,-2.145439e-005
-5.240886e-005,-1.034161e-006
-4.495386e-005,1.630683e-005
-5.095028e-005,3.056858e-005
-7.185670e-005,4.337174e-005
-1.013526e-004,5.617490e-005
-1.274451e-004,6.914012e-005
-1.457585e-004,7.610893e-005
-1.564548e-004,7.562274e-005
-1.608306e-004,6.865393e-005
-1.545100e-004,5.795762e-005
-1.352242e-004,4.661304e-005
-1.075111e-004,3.818564e-005
-7.850138e-005,3.786152e-005
-5.386745e-005,4.758544e-005
-3.134038e-005,6.136099e-005
-5.896120e-006,7.027457e-005
1.598270e-005,6.508849e-005
2.522042e-005,4.726130e-005
2.116879e-005,2.230324e-005
8.203561e-006,4.638125e-006
-2.816880e-006,-1.358292e-006
-2.816880e-006,9.106226e-007
8.041497e-006,5.772582e-006
2.489629e-005,3.341602e-006
4.094075e-005,-9.947754e-006
5.406805e-005,-2.696461e-005
6.573675e-005,-3.928157e-005
8.291567e-005,-4.673658e-005
1.060910e-004,-5.127441e-005
1.333180e-004,-5.143647e-005
1.615174e-004,-5.046408e-005
1.832341e-004,-4.738484e-005
1.926339e-004,-3.992984e-005
1.877719e-004,-2.923352e-005
1.652449e-004,-1.918548e-005
1.284560e-004,-1.659243e-005
8.745350e-005,-2.420950e-005
5.568870e-005,-3.636440e-005
3.672705e-005,-4.495386e-005
3.040651e-005,-4.560212e-005
3.299956e-005,-4.122636e-005
3.867184e-005,-3.830918e-005
4.272347e-005,-3.895744e-005
4.207521e-005,-3.733679e-005
3.688912e-005,-3.036798e-005
2.748933e-005,-1.918548e-005
1.744128e-005,-5.571990e-006
7.555300e-006,7.393235e-006
-4.437533e-006,2.003433e-005
-1.643037e-005,3.202716e-005
-3.360929e-005,4.256141e-005
-6.261898e-005,4.807163e-005
-1.073490e-004,4.953022e-005
-1.622891e-004,5.147500e-005
-2.089639e-004,5.568870e-005
-2.280877e-004,5.957827e-005
-2.110708e-004,6.233338e-005
-1.655304e-004,7.027457e-005
-1.079973e-004,8.259154e-005
-5.289506e-005,9.847395e-005
-9.623623e-006,1.093323e-004
2.149292e-005,1.091703e-004
4.596478e-005,9.944633e-005
6.638501e-005,8.696730e-005
8.421220e-005,7.967437e-005
9.863601e-005,8.437427e-005
1.094944e-004,1.000946e-004
1.208390e-004,1.185700e-004
1.326697e-004,1.287802e-004
1.389903e-004,1.292664e-004
1.313732e-004,1.222975e-004
1.107909e-004,1.127357e-004
8.486046e-005,1.060910e-004
5.682316e-005,1.026876e-004
3.316162e-005,1.004187e-004
1.889987e-005,9.733949e-005
1.841368e-005,9.118101e-005
2.862379e-005,8.502253e-005
4.029249e-005,8.178122e-005
4.936815e-005,8.145709e-005
5.471631e-005,8.064676e-005
5.844381e-005,7.821578e-005
5.909207e-005,7.610893e-005
5.358185e-005,7.594687e-005
3.980630e-005,7.562274e-005
2.197911e-005,7.254349e-005
8.851824e-006,6.751947e-005
3.179537e-006,6.168512e-005
4.962256e-006,5.617490e-005
9.662150e-006,4.953022e-005
1.403791e-005,4.369587e-005
1.646889e-005,4.304760e-005
1.484824e-005,4.855782e-005
1.290346e-005,5.309565e-005
1.355172e-005,5.649903e-005
1.889987e-005,5.957827e-005
2.797553e-005,5.909207e-005
3.170303e-005,4.953022e-005
2.586868e-005,2.522042e-005
1.306552e-005,-8.489165e-006
7.485573e-007,-3.895744e-005
-1.043395e-005,-5.500191e-005
-1.707863e-005,-5.435365e-005
-1.821308e-005,-4.738484e-005
-1.562004e-005,-4.479180e-005
-9.623623e-006,-5.127441e-005
2.531276e-006,-6.278104e-005
1.695509e-005,-7.137050e-005
2.829966e-005,-7.023605e-005
3.267542e-005,-5.727082e-005
3.316162e-005,-3.928157e-005
3.235129e-005,-2.275091e-005
3.656499e-005,-7.516774e-006
4.483032e-005,7.879431e-006
5.633696e-005,1.873781e-005
7.140904e-005,2.084466e-005
8.615698e-005,1.646889e-005
9.701536e-005,6.744974e-006
1.052807e-004,-7.192643e-006
1.141943e-004,-2.177852e-005
1.180839e-004,-3.247483e-005
1.088461e-004,-3.506787e-005
8.826383e-005,-3.020592e-005
6.476436e-005,-2.113026e-005
4.628891e-005,-1.351319e-005
3.413401e-005,-1.254080e-005
2.667901e-005,-2.194059e-005
1.938607e-005,-4.090223e-005
1.322759e-005,-6.180866e-005
1.112074e-005,-7.299116e-005
1.954813e-005,-6.845333e-005
3.915804e-005,-5.273300e-005
6.525056e-005,-2.907146e-005
9.134307e-005,-3.303075e-006
1.166253e-004,2.052053e-005
1.376937e-004,4.029249e-005
1.483901e-004,5.017848e-005
1.422316e-004,4.709924e-005
1.112771e-004,3.299956e-005
5.552663e-005,1.614476e-005
-1.545797e-005,3.503668e-006
-8.174268e-005,-1.844488e-006
-1.191798e-004,2.693341e-006
-1.062145e-004,1.987226e-005
-3.198863e-005,4.904402e-005
8.972242e-005,8.550872e-005
2.469258e-004,1.255388e-004
4.339492e-004,1.608691e-004
6.383137e-004,1.832341e-004
8.339267e-004,1.890685e-004
9.880509e-004,1.827479e-004
1.066653e-003,1.751308e-004
1.039750e-003,1.675138e-004
9.008597e-004,1.602208e-004
6.820713e-004,1.556830e-004
4.342734e-004,1.542244e-004
2.005751e-004,1.569795e-004
3.665733e-006,1.603829e-004
-1.608306e-004,1.613553e-004
-3.225717e-004,1.584381e-004
-5.078123e-004,1.540623e-004
-7.065043e-004,1.504969e-004
-8.804004e-004,1.435281e-004
-9.884980e-004,1.310491e-004
-1.011997e-003,1.197045e-004
-9.567332e-004,1.132219e-004
-8.410186e-004,1.122495e-004
-6.941874e-004,1.119254e-004
-5.512458e-004,1.072255e-004
-4.374760e-004,9.490851e-005
-3.575778e-004,7.740545e-005
-2.987481e-004,5.439218e-005
-2.480217e-004,2.975825e-005
-1.893540e-004,1.290346e-005
-1.159385e-004,8.365628e-006
-3.198863e-005,1.355172e-005
5.082674e-005,2.116879e-005
1.205148e-004,2.343770e-005
1.671896e-004,1.971020e-005
1.947408e-004,8.527692e-006
2.080301e-004,-6.382316e-006
2.141886e-004,-1.934754e-005
2.179161e-004,-2.728874e-005
2.143507e-004,-3.134038e-005
1.965235e-004,-3.328516e-005
1.663793e-004,-3.701266e-005
1.258630e-004,-4.479180e-005
8.275361e-005,-5.159854e-005
4.483032e-005,-5.143647e-005
1.614476e-005,-4.657451e-005
1.002961e-007,-4.527799e-005
-3.627206e-006,-4.916756e-005
5.124321e-006,-5.710876e-005
2.343770e-005,-5.905355e-005
4.596478e-005,-4.819516e-005
6.768153e-005,-3.004385e-005
8.469840e-005,-1.740276e-005
9.733949e-005,-1.643037e-005
1.036600e-004,-2.518189e-005
9.863601e-005,-4.057810e-005
8.923622e-005,-5.565017e-005
8.032263e-005,-6.002593e-005
7.918817e-005,-5.143647e-005
8.664317e-005,-3.733679e-005
9.669123e-005,-2.437157e-005
1.044704e-004,-1.448558e-005
1.086841e-004,-6.220251e-006
1.106288e-004,1.720949e-006
1.120874e-004,8.851824e-006
1.188942e-004,1.938607e-005
1.349386e-004,3.462021e-005
1.545486e-004,5.147500e-005
1.717275e-004,6.751947e-005
1.767515e-004,7.853991e-005
1.647587e-004,8.340186e-005
1.433660e-004,8.307774e-005
1.219734e-004,8.518459e-005
1.002567e-004,9.685329e-005
8.323980e-005,1.163011e-004
8.064676e-005,1.352628e-004
9.977046e-005,1.456350e-004
1.316973e-004,1.464453e-004
1.616794e-004,1.417454e-004
1.796687e-004,1.352628e-004
1.817755e-004,1.250527e-004
1.704310e-004,1.078737e-004
1.492004e-004,8.388807e-005
1.171115e-004,5.957827e-005
7.821578e-005,4.320967e-005
3.721326e-005,3.526847e-005
-7.100305e-007,2.781346e-005
-3.166451e-005,1.484824e-005
-5.338126e-005,-6.706447e-006
-6.067420e-005,-3.360929e-005
-4.495386e-005,-5.678463e-005
2.045080e-006,-6.958779e-005
7.627100e-005,-6.877746e-005
1.602208e-004,-5.581224e-005
2.297469e-004,-3.263690e-005
2.610255e-004,-6.706447e-006
2.436845e-004,1.598270e-005
1.855030e-004,3.348575e-005
1.041462e-004,4.985435e-005
7.555300e-006,6.444023e-005
-1.028112e-004,7.270556e-005
-2.263049e-004,7.238143e-005
-3.454229e-004,6.670914e-005
-4.331002e-004,6.006446e-005
-4.684305e-004,5.520250e-005
-4.412035e-004,5.260946e-005
-3.564433e-004,5.066468e-005
-2.350565e-004,4.904402e-005
-1.065387e-004,5.001641e-005
4.244267e-007,5.471631e-005
6.573675e-005,5.860587e-005
7.951231e-005,5.455424e-005
4.353380e-005,4.337174e-005
-2.842320e-005,2.700314e-005
-1.084835e-004,8.527692e-006
-1.645580e-004,-9.461557e-006
-1.781715e-004,-2.356124e-005
-1.488377e-004,-2.988179e-005
-9.227693e-005,-2.793700e-005
-3.377135e-005,-2.145439e-005
7.069104e-006,-1.659243e-005
2.295151e-005,-1.254080e-005
2.035846e-005,-6.706447e-006
1.501031e-005,4.244267e-007
1.582063e-005,4.638125e-006
2.392390e-005,-6.176923e-008
3.478227e-005,-1.367526e-005
4.223728e-005,-2.761287e-005
4.985435e-005,-3.668853e-005
6.217131e-005,-3.766092e-005
7.562274e-005,-2.647842e-005
8.648111e-005,-5.734055e-006
9.458438e-005,1.306552e-005
1.017153e-004,2.068259e-005
1.091703e-004,1.565857e-005
1.098185e-004,2.369210e-006
1.052807e-004,-1.140634e-005
9.928427e-005,-1.950961e-005
9.944633e-005,-1.805102e-005
1.091703e-004,-5.896120e-006
1.232699e-004,1.306552e-005
1.354248e-004,2.992031e-005
1.409351e-004,3.753739e-005
1.394765e-004,3.559260e-005
1.365593e-004,2.910999e-005
1.355869e-004,2.959618e-005
1.326697e-004,4.256141e-005
1.258630e-004,5.779555e-005
1.201907e-004,6.379197e-005
1.180839e-004,5.941620e-005
1.200286e-004,5.082674e-005
1.227837e-004,4.191315e-005
1.240803e-004,3.753739e-005
1.210010e-004,3.899597e-005
1.148425e-004,4.920609e-005
1.047945e-004,6.735740e-005
9.296372e-005,9.101894e-005
8.453633e-005,1.122495e-004
8.356393e-005,1.253768e-004
8.875003e-005,1.307249e-004
9.442231e-005,1.326697e-004
9.507057e-005,1.320215e-004
8.923622e-005,1.315353e-004
8.129502e-005,1.321835e-004
7.724339e-005,1.334801e-004
7.870197e-005,1.316973e-004
8.097089e-005,1.271595e-004
7.935023e-005,1.252147e-004
7.351588e-005,1.240803e-004
6.541262e-005,1.184080e-004
5.406805e-005,1.109530e-004
3.380988e-005,1.031738e-004
4.151929e-006,9.507057e-005
-3.522994e-005,8.956035e-005
-8.498399e-005,9.004655e-005
-1.455964e-004,9.555677e-005
-2.107467e-004,9.912220e-005
-2.686040e-004,9.458438e-005
-3.113892e-004,8.469840e-005
-3.365093e-004,7.205730e-005
-3.481780e-004,5.990240e-005
-3.590364e-004,4.855782e-005
-3.741085e-004,3.932010e-005
-3.848048e-004,3.283749e-005
-3.802670e-004,2.894792e-005
-3.587123e-004,2.943412e-005
-3.266234e-004,3.154097e-005
-2.924276e-004,3.235129e-005
-2.606628e-004,3.413401e-005
-2.337599e-004,3.640293e-005
-2.078295e-004,3.964423e-005
-1.718510e-004,4.369587e-005
-1.219349e-004,4.288554e-005
-5.402952e-005,3.218923e-005
3.964423e-005,1.193106e-005
1.668655e-004,-1.059601e-005
3.294171e-004,-2.874733e-005
5.138475e-004,-4.284701e-005
6.924436e-004,-5.613637e-005
8.350611e-004,-6.683268e-005
9.240351e-004,-6.926366e-005
9.647135e-004,-6.488790e-005
9.651997e-004,-5.872941e-005
9.282487e-004,-5.289506e-005
8.616399e-004,-4.641245e-005
7.806072e-004,-3.458168e-005
7.010330e-004,-2.258885e-005
6.373413e-004,-1.416145e-005
5.934216e-004,-1.205460e-005
5.624671e-004,-1.480971e-005
5.352401e-004,-1.756482e-005
5.057441e-004,-1.821308e-005
4.699277e-004,-2.129233e-005
4.256839e-004,-3.053005e-005
3.700955e-004,-4.122636e-005
2.976522e-004,-4.819516e-005
2.054371e-004,-4.868136e-005
9.312579e-005,-4.527799e-005
-3.992984e-005,-3.895744e-005
-1.908126e-004,-2.955766e-005
-3.463953e-004,-1.545797e-005
-4.867438e-004,-6.176923e-008
-5.967862e-004,1.306552e-005
-6.817084e-004,2.748933e-005
-7.575550e-004,4.499239e-005
-8.346980e-004,6.298164e-005
-9.051964e-004,7.432621e-005
-9.508988e-004,7.529860e-005
-9.538160e-004,6.541262e-005
-9.068170e-004,4.953022e-005
-8.204362e-004,3.510640e-005
-7.115284e-004,2.894792e-005
-5.956517e-004,3.316162e-005
-4.872300e-004,4.774750e-005
-3.964735e-004,6.606088e-005
-3.285681e-004,8.129502e-005
-2.778417e-004,9.118101e-005
-2.321393e-004,9.814982e-005
-1.885437e-004,1.026876e-004
-1.493239e-004,1.091703e-004
-1.162626e-004,1.203528e-004
-9.049421e-005,1.318594e-004
-7.039811e-005,1.393144e-004
-5.354332e-005,1.420695e-004
-3.960571e-005,1.389903e-004
-2.015787e-005,1.346145e-004
7.555300e-006,1.326697e-004
3.932010e-005,1.305629e-004
6.978838e-005,1.248906e-004
1.010670e-004,1.090082e-004
1.375317e-004,8.178122e-005
1.829100e-004,5.001641e-005
2.333123e-004,2.376183e-005
2.803112e-004,1.322759e-005
3.153174e-004,1.387585e-005
3.299032e-004,1.954813e-005
3.260137e-004,2.197911e-005
3.047831e-004,2.052053e-005
2.720459e-004,2.003433e-005
2.380122e-004,2.473422e-005
2.175920e-004,3.316162e-005
2.218057e-004,3.980630e-005
2.508154e-004,4.158902e-005
2.906834e-004,4.110282e-005
3.234207e-004,4.142695e-005
3.342790e-004,3.915804e-005
3.221241e-004,3.348575e-005
3.018659e-004,2.651694e-005
2.884145e-004,2.295151e-005
2.918179e-004,2.505835e-005
3.106175e-004,2.959618e-005
3.341170e-004,3.364782e-005
3.464339e-004,3.332369e-005
3.341170e-004,2.424803e-005
2.948972e-004,8.689757e-006
2.350950e-004,-8.002969e-006
1.603829e-004,-2.275091e-005
7.805372e-005,-2.923352e-005
-4.437533e-006,-2.323711e-005
-9.000801e-005,-4.923729e-006
-1.912988e-004,1.663096e-005
-3.094444e-004,3.429608e-005
-4.394208e-004,4.158902e-005
-5.745832e-004,3.575467e-005
-7.005080e-004,2.327564e-005
-7.946679e-004,9.500084e-006
-8.359945e-004,-2.654814e-006
-8.129812e-004,-1.059601e-005
-7.291935e-004,-9.947754e-006
-5.966241e-004,4.244267e-007
-4.340726e-004,1.565857e-005
-2.614731e-004,3.024445e-005
-1.003802e-004,3.705119e-005
3.251336e-005,3.348575e-005
1.274836e-004,1.808955e-005
1.827479e-004,-3.627206e-006
2.067336e-004,-2.615428e-005
2.148369e-004,-4.641245e-005
2.216436e-004,-6.213279e-005
2.354192e-004,-7.153257e-005
2.590807e-004,-7.185670e-005
2.934386e-004,-6.229485e-005
3.311998e-004,-4.057810e-005
3.642611e-004,-6.382316e-006
3.872744e-004,3.251336e-005
3.984569e-004,6.168512e-005
3.957018e-004,7.351588e-005
3.824124e-004,7.189524e-005
3.666921e-004,6.735740e-005
3.529165e-004,6.492643e-005
3.389789e-004,6.217131e-005
3.208276e-004,5.698522e-005
2.991108e-004,5.082674e-005
2.754493e-004,4.515445e-005
2.498430e-004,3.948217e-005
2.284503e-004,3.348575e-005
2.117576e-004,2.732727e-005
2.043026e-004,2.327564e-005
2.086784e-004,2.327564e-005
2.200230e-004,2.781346e-005
2.256952e-004,3.705119e-005
2.242366e-004,4.904402e-005
2.124059e-004,5.763348e-005
1.903650e-004,6.022653e-005
1.586002e-004,5.714729e-005
1.214872e-004,5.341978e-005
8.745350e-005,6.071273e-005
6.379197e-005,7.805372e-005
4.936815e-005,9.604297e-005
4.239934e-005,1.081979e-004
3.688912e-005,1.156529e-004
2.975825e-005,1.203528e-004
2.019640e-005,1.208390e-004
1.176900e-005,1.188942e-004
1.160693e-005,1.145184e-004
1.954813e-005,1.069013e-004
2.765140e-005,9.831188e-005
2.732727e-005,9.101894e-005
2.295151e-005,8.972242e-005
2.603075e-005,9.636710e-005
4.369587e-005,1.104668e-004
7.367795e-005,1.239182e-004
1.093323e-004,1.310491e-004
1.402868e-004,1.255388e-004
1.602208e-004,1.077117e-004
1.684862e-004,8.016056e-005
1.696206e-004,4.645098e-005
1.650828e-004,9.175954e-006
1.564933e-004,-2.777494e-005
1.495245e-004,-5.710876e-005
1.470936e-004,-7.396355e-005
1.485521e-004,-7.590833e-005
1.500107e-004,-6.780506e-005
1.504969e-004,-5.565017e-005
1.492004e-004,-4.592625e-005
1.428798e-004,-3.992984e-005
1.265113e-004,-2.907146e-005
1.018773e-004,-7.678839e-006
7.173317e-005,2.035846e-005
3.543053e-005,4.434413e-005
-7.030578e-006,5.455424e-005
-5.548810e-005,5.163707e-005
-1.156143e-004,4.077869e-005
-1.976194e-004,2.813760e-005
-2.968033e-004,2.149292e-005
-3.951770e-004,2.133085e-005
-4.658374e-004,2.359977e-005
-4.870680e-004,2.505835e-005
-4.553032e-004,2.100672e-005
-3.784843e-004,1.160693e-005
-2.784900e-004,1.396819e-006
-1.853024e-004,-5.571990e-006
-1.175591e-004,-1.027188e-005
-7.752898e-005,-1.740276e-005
-5.759496e-005,-2.907146e-005
-4.916756e-005,-4.009190e-005
-5.095028e-005,-4.819516e-005
-6.278104e-005,-5.581224e-005
-8.465986e-005,-6.440169e-005
-1.107524e-004,-7.995997e-005
-1.334415e-004,-1.011905e-004
-1.517549e-004,-1.191798e-004
-1.630995e-004,-1.250141e-004
-1.650442e-004,-1.177212e-004
-1.608306e-004,-1.007043e-004
-1.535376e-004,-7.882551e-005
-1.439758e-004,-5.467778e-005
-1.267968e-004,-2.745081e-005
-9.292519e-005,1.883015e-006
-3.685059e-005,3.024445e-005
4.110282e-005,4.920609e-005
1.362352e-004,5.455424e-005
2.290986e-004,4.758544e-005
2.950592e-004,3.834771e-005
3.187208e-004,3.640293e-005
2.963557e-004,4.288554e-005
2.383363e-004,5.374392e-005
1.668655e-004,6.687120e-005
1.033359e-004,8.680524e-005
6.217131e-005,1.127357e-004
4.693717e-005,1.399627e-004
4.807163e-005,1.613553e-004
5.730935e-005,1.733481e-004
6.265751e-005,1.769136e-004
5.649903e-005,1.735102e-004
3.964423e-005,1.657311e-004
1.987226e-005,1.574657e-004
2.531276e-006,1.522796e-004
-1.010982e-005,1.509831e-004
-1.886135e-005,1.495245e-004
-2.728874e-005,1.448246e-004
-3.749886e-005,1.376937e-004
-4.689864e-005,1.305629e-004
-5.321919e-005,1.232699e-004
-5.629843e-005,1.182459e-004
-5.646050e-005,1.171115e-004
-5.629843e-005,1.175977e-004
-5.953974e-005,1.143563e-004
-6.861539e-005,1.036600e-004
-7.947377e-005,9.004655e-005
-8.822530e-005,7.902610e-005
-9.486997e-005,7.319175e-005
-1.005423e-004,7.205730e-005
-1.076731e-004,7.124698e-005
-1.148040e-004,6.832980e-005
-1.144799e-004,6.038860e-005
-1.063766e-004,5.001641e-005
-9.859748e-005,4.013043e-005
-9.438377e-005,3.218923e-005
-8.984595e-005,3.218923e-005
-7.963584e-005,3.996836e-005
-5.597430e-005,4.466826e-005
-7.030578e-006,3.769945e-005
7.578480e-005,2.084466e-005
1.866375e-004,-3.858999e-007
2.994350e-004,-1.918548e-005
3.793332e-004,-3.231276e-005
3.992672e-004,-3.522994e-005
3.608577e-004,-2.793700e-005
2.840387e-004,-1.529591e-005
1.944166e-004,-5.085794e-006
1.167873e-004,3.503668e-006
6.168512e-005,7.717366e-006
3.056858e-005,3.827798e-006
1.873781e-005,-5.247859e-006
1.857574e-005,-1.237873e-005
1.663096e-005,-1.221667e-005
5.286386e-006,-8.165034e-006
-1.254080e-005,5.864920e-007
-2.971972e-005,1.646889e-005
-4.252288e-005,3.283749e-005
-4.754691e-005,4.434413e-005
-4.252288e-005,4.612685e-005
-2.777494e-005,3.510640e-005
-1.092015e-005,1.290346e-005
2.207145e-006,-1.027188e-005
1.387585e-005,-2.728874e-005
2.570661e-005,-3.377135e-005
3.543053e-005,-3.117831e-005
4.385793e-005,-2.339917e-005
5.260946e-005,-1.270286e-005
6.816773e-005,-3.789271e-006
8.956035e-005,2.623614e-007
1.096565e-004,-5.247859e-006
1.226217e-004,-1.545797e-005
1.257009e-004,-2.194059e-005
1.229458e-004,-2.015787e-005
1.239182e-004,-1.173047e-005
1.365593e-004,-5.085794e-006
1.633001e-004,-6.220251e-006
1.958752e-004,-1.740276e-005
2.205091e-004,-3.117831e-005
2.231022e-004,-3.928157e-005
1.981441e-004,-3.393342e-005
1.517934e-004,-1.416145e-005
9.944633e-005,1.193106e-005
5.666109e-005,3.364782e-005
3.283749e-005,4.920609e-005
2.910999e-005,5.957827e-005
3.672705e-005,6.508849e-005
4.628891e-005,6.946425e-005
4.839576e-005,7.465034e-005
3.656499e-005,8.129502e-005
1.517237e-005,8.615698e-005
-8.002969e-006,8.469840e-005
-1.837515e-005,7.740545e-005
-5.085794e-006,6.589881e-005
3.672705e-005,5.520250e-005
1.000946e-004,5.017848e-005
1.680000e-004,5.115087e-005
2.250470e-004,5.536457e-005
2.618358e-004,5.666109e-005
2.790147e-004,5.552663e-005
2.842008e-004,5.860587e-005
2.806354e-004,6.946425e-005
2.637806e-004,8.502253e-005
2.278021e-004,1.017153e-004
1.730240e-004,1.184080e-004
1.013911e-004,1.287802e-004
1.290346e-005,1.289422e-004
-9.146661e-005,1.193804e-004
-2.026434e-004,1.054428e-004
-3.010170e-004,9.636710e-005
-3.596847e-004,9.150514e-005
-3.596847e-004,8.583285e-005
-2.945344e-004,7.481241e-005
-1.784957e-004,5.747142e-005
-4.009190e-005,3.624086e-005
9.085687e-005,1.808955e-005
1.958752e-004,5.610517e-006
2.652392e-004,-3.951337e-006
3.010556e-004,-1.351319e-005
3.083486e-004,-2.631635e-005
3.033245e-004,-3.911951e-005
2.976522e-004,-4.657451e-005
2.901973e-004,-4.381940e-005
2.733424e-004,-3.215070e-005
2.410914e-004,-1.594417e-005
1.872858e-004,-7.100305e-007
1.101426e-004,7.231170e-006
1.225519e-005,4.151929e-006
-1.021629e-004,-6.058186e-006
-2.313289e-004,-1.367526e-005
-3.695707e-004,-1.124428e-005
-5.092709e-004,-2.978945e-006
-6.442713e-004,8.689757e-006
-7.666306e-004,2.068259e-005
-8.659766e-004,2.943412e-005
-9.314510e-004,3.073064e-005
-9.521953e-004,2.522042e-005
-9.222133e-004,1.695509e-005
-8.492839e-004,9.175954e-006
-7.518826e-004,3.989864e-006
-6.483229e-004,-8.720958e-007
-5.531906e-004,-4.599598e-006
-4.668098e-004,-3.141010e-006
-3.799428e-004,4.962256e-006
-2.758969e-004,1.663096e-005
-1.418689e-004,2.700314e-005
1.663096e-005,3.073064e-005
1.772377e-004,2.927205e-005
3.185587e-004,2.489629e-005
4.261701e-004,1.873781e-005
4.990995e-004,1.112074e-005
5.430192e-004,7.717366e-006
5.681394e-004,7.879431e-006
5.809425e-004,9.824214e-006
5.853183e-004,1.355172e-005
5.812666e-004,1.987226e-005
5.721910e-004,2.910999e-005
5.556603e-004,4.013043e-005
5.344298e-004,4.628891e-005
5.133613e-004,4.353380e-005
4.879170e-004,3.607880e-005
4.470765e-004,3.283749e-005
3.906778e-004,3.624086e-005
3.328204e-004,4.369587e-005
2.851732e-004,5.082674e-005
2.511395e-004,5.568870e-005
2.321778e-004,6.379197e-005
2.256952e-004,7.837785e-005
2.265056e-004,9.863601e-005
2.303951e-004,1.206769e-004
2.341226e-004,1.385041e-004
2.360674e-004,1.430419e-004
2.350950e-004,1.313732e-004
2.329882e-004,1.120874e-004
2.297469e-004,9.831188e-005
2.237504e-004,9.166720e-005
2.135403e-004,8.842590e-005
1.979821e-004,8.664317e-005
1.816135e-004,8.648111e-005
1.683241e-004,8.534666e-005
1.589243e-004,8.129502e-005
1.500107e-004,7.513654e-005
1.415833e-004,7.027457e-005
1.316973e-004,6.849186e-005
1.167873e-004,6.525056e-005
9.263960e-005,5.698522e-005
5.552663e-005,4.758544e-005
-6.382316e-006,4.061663e-005
-9.162867e-005,3.283749e-005
-1.927574e-004,2.700314e-005
-2.984240e-004,2.424803e-005
-3.912874e-004,2.311357e-005
-4.531963e-004,2.230324e-005
-4.737786e-004,2.586868e-005
-4.507653e-004,3.283749e-005
-3.943666e-004,3.802358e-005
-3.201407e-004,3.429608e-005
-2.455907e-004,2.392390e-005
-1.807646e-004,1.468617e-005
-1.295519e-004,7.879431e-006
-9.065627e-005,6.420843e-006
-6.197072e-005,7.555300e-006
-4.122636e-005,1.079661e-005
-2.793700e-005,1.176900e-005
-1.675450e-005,8.041497e-006
-8.720958e-007,1.234753e-006
1.841368e-005,-3.141010e-006
3.445814e-005,-6.868512e-006
4.645098e-005,-1.140634e-005
6.055066e-005,-1.659243e-005
8.161915e-005,-1.902341e-005
1.052807e-004,-1.707863e-005
1.271595e-004,-1.610623e-005
1.451487e-004,-1.480971e-005
1.582760e-004,-1.027188e-005
1.663793e-004,-7.100305e-007
1.757791e-004,1.306552e-005
1.890685e-004,2.846173e-005
2.030061e-004,4.223728e-005
2.081922e-004,5.098881e-005
1.983062e-004,5.147500e-005
1.773998e-004,4.191315e-005
1.529279e-004,2.327564e-005
1.274836e-004,2.531276e-006
1.051186e-004,-1.027188e-005
8.972242e-005,-1.270286e-005
8.259154e-005,-8.813297e-006
8.356393e-005,-7.030578e-006
9.280166e-005,-1.529591e-005
1.104668e-004,-3.360929e-005
1.294284e-004,-5.743289e-005
1.420695e-004,-7.785312e-005
1.482280e-004,-9.000801e-005
1.550348e-004,-8.806324e-005
1.598967e-004,-7.396355e-005
1.581140e-004,-5.240886e-005
1.443384e-004,-3.458168e-005
1.206769e-004,-2.437157e-005
9.312579e-005,-1.480971e-005
6.670914e-005,2.369210e-006
4.466826e-005,3.056858e-005
3.656499e-005,7.108490e-005
4.320967e-005,1.141943e-004
5.747142e-005,1.467694e-004
6.703327e-005,1.618415e-004
6.168512e-005,1.602208e-004
3.721326e-005,1.485521e-004
2.531276e-006,1.367214e-004
-2.907146e-005,1.318594e-004
-4.900549e-005,1.355869e-004
-6.018800e-005,1.445005e-004
-7.315322e-005,1.527658e-004
-9.373551e-005,1.537382e-004
-1.177212e-004,1.514693e-004
-1.421931e-004,1.461212e-004
-1.634236e-004,1.365593e-004
-1.825473e-004,1.297525e-004
-2.021572e-004,1.250527e-004
-2.233878e-004,1.205148e-004
-2.426735e-004,1.161391e-004
-2.553146e-004,1.132219e-004
-2.647144e-004,1.116012e-004
-2.749245e-004,1.135460e-004
-2.843243e-004,1.150046e-004
-2.874036e-004,1.106288e-004
-2.710350e-004,9.798775e-005
-2.248463e-004,8.534666e-005
-1.467309e-004,7.432621e-005
-4.819516e-005,6.379197e-005
5.196120e-005,5.439218e-005
1.240803e-004,4.547859e-005
1.453108e-004,3.429608e-005
1.214872e-004,1.630683e-005
7.319175e-005,-5.896120e-006
2.376183e-005,-2.809907e-005
-1.367526e-005,-4.770897e-005
-3.215070e-005,-6.326724e-005
-3.020592e-005,-6.958779e-005
-1.513384e-005,-6.375343e-005
3.017472e-006,-4.673658e-005
2.149292e-005,-2.566809e-005
3.656499e-005,-8.165034e-006
4.596478e-005,4.638125e-006
4.823369e-005,8.527692e-006
4.061663e-005,1.396819e-006
2.473422e-005,-1.221667e-005
7.717366e-006,-2.485776e-005
-3.141010e-006,-3.555407e-005
-3.465141e-006,-4.446767e-005
8.041497e-006,-5.095028e-005
2.651694e-005,-5.257093e-005
4.985435e-005,-5.111234e-005
7.627100e-005,-4.722277e-005
1.041462e-004,-4.365734e-005
1.227837e-004,-3.782299e-005
1.210010e-004,-3.134038e-005
1.012291e-004,-3.231276e-005
7.740545e-005,-4.317114e-005
5.925414e-005,-6.035006e-005
4.726130e-005,-7.882551e-005
4.077869e-005,-9.098041e-005
3.883391e-005,-9.114247e-005
4.385793e-005,-7.882551e-005
6.314371e-005,-5.808115e-005
9.166720e-005,-3.474375e-005
1.151667e-004,-1.124428e-005
1.099806e-004,1.095867e-005
5.341978e-005,2.392390e-005
-5.354332e-005,3.040651e-005
-1.742820e-004,3.883391e-005
-2.629317e-004,5.244739e-005
-2.865932e-004,7.432621e-005
-2.428356e-004,1.041462e-004
-1.582375e-004,1.349386e-004
-6.197072e-005,1.563313e-004
2.295151e-005,1.644345e-004
8.291567e-005,1.587622e-004
1.206769e-004,1.433660e-004
1.440143e-004,1.307249e-004
1.629759e-004,1.310491e-004
1.848548e-004,1.414213e-004
2.047888e-004,1.482280e-004
2.114335e-004,1.454729e-004
1.918236e-004,1.329939e-004
1.435281e-004,1.135460e-004
7.708132e-005,8.891209e-005
1.468617e-005,6.233338e-005
-2.194059e-005,4.418206e-005
-2.031993e-005,4.110282e-005
2.457216e-005,5.212327e-005
1.085220e-004,6.768153e-005
2.179161e-004,8.226741e-005
3.255275e-004,9.523264e-005
3.974845e-004,1.056048e-004
4.098015e-004,1.080358e-004
3.564820e-004,1.004187e-004
2.553532e-004,8.761556e-005
1.389903e-004,7.124698e-005
3.559260e-005,5.568870e-005
-4.155049e-005,4.515445e-005
-9.551824e-005,4.126489e-005
-1.349001e-004,4.304760e-005
-1.627753e-004,4.402000e-005
-1.763888e-004,4.353380e-005
-1.707165e-004,4.094075e-005
-1.449481e-004,3.656499e-005
-1.067007e-004,3.170303e-005
-6.586029e-005,2.343770e-005
-2.728874e-005,8.689757e-006
7.555300e-006,-1.027188e-005
3.769945e-005,-2.485776e-005
6.557468e-005,-3.150244e-005
9.069480e-005,-2.988179e-005
1.188942e-004,-2.664048e-005
1.600588e-004,-2.485776e-005
2.169437e-004,-2.226472e-005
2.798251e-004,-1.610623e-005
3.354135e-004,-6.220251e-006
3.728506e-004,3.503668e-006
3.863020e-004,7.555300e-006
3.841952e-004,6.420843e-006
3.722023e-004,1.396819e-006
3.546993e-004,-4.113402e-006
3.349273e-004,-8.975361e-006
3.169380e-004,-1.043395e-005
3.057555e-004,-8.327101e-006
3.038107e-004,-8.651231e-006
3.060797e-004,-1.124428e-005
3.049452e-004,-1.416145e-005
2.893869e-004,-1.480971e-005
2.448189e-004,-1.075808e-005
1.620035e-004,-2.006553e-006
4.353380e-005,5.610517e-006
-1.021629e-004,7.717366e-006
-2.549905e-004,2.693341e-006
-3.924218e-004,-6.868512e-006
-5.071640e-004,-1.480971e-005
-6.056998e-004,-1.837515e-005
-6.919185e-004,-1.367526e-005
-7.667927e-004,-2.816880e-006
-8.223810e-004,8.203561e-006
-8.423151e-004,1.257933e-005
-8.144398e-004,1.128280e-005
-7.384312e-004,7.879431e-006
-6.225546e-004,5.610517e-006
-4.825302e-004,8.689757e-006
-3.371576e-004,1.825161e-005
-2.115570e-004,3.056858e-005
-1.243659e-004,4.110282e-005
-7.833932e-005,4.612685e-005
-5.824321e-005,4.191315e-005
-3.944364e-005,3.267542e-005
-3.141010e-006,2.246531e-005
5.325772e-005,1.598270e-005
1.182459e-004,1.549650e-005
1.778859e-004,1.954813e-005
2.216436e-004,2.570661e-005
2.459534e-004,2.959618e-005
2.525981e-004,2.878586e-005
2.514636e-004,2.959618e-005
2.472499e-004,3.672705e-005
2.440086e-004,4.855782e-005
2.495188e-004,6.200925e-005
2.628082e-004,7.238143e-005
2.777182e-004,8.032263e-005
2.890628e-004,8.323980e-005
2.931144e-004,8.259154e-005
2.890628e-004,8.129502e-005
2.814457e-004,8.145709e-005
2.752873e-004,8.113296e-005
2.713976e-004,7.805372e-005
2.676701e-004,7.529860e-005
2.623220e-004,7.578480e-005
2.517877e-004,8.275361e-005
2.347709e-004,9.182927e-005
2.137024e-004,9.685329e-005
1.910132e-004,9.555677e-005
1.681620e-004,9.426025e-005
1.495245e-004,9.588090e-005
1.367214e-004,1.030118e-004
1.257009e-004,1.133840e-004
1.145184e-004,1.221355e-004
1.038221e-004,1.266733e-004
9.037068e-005,1.257009e-004
7.481241e-005,1.137081e-004
5.990240e-005,9.377405e-005
5.034054e-005,7.319175e-005
5.196120e-005,5.925414e-005
6.589881e-005,5.504044e-005
8.761556e-005,5.763348e-005
1.085220e-004,5.828174e-005
1.232699e-004,5.196120e-005
1.302387e-004,4.077869e-005
1.315353e-004,2.959618e-005
1.265113e-004,1.971020e-005
1.117633e-004,1.290346e-005
8.097089e-005,1.209313e-005
3.850977e-005,2.100672e-005
7.485573e-007,3.607880e-005
-2.339917e-005,4.953022e-005
-3.377135e-005,5.050261e-005
-3.555407e-005,3.640293e-005
-3.766092e-005,1.484824e-005
-4.365734e-005,-3.141010e-006
-4.868136e-005,-1.059601e-005
-4.722277e-005,-8.002969e-006
-3.766092e-005,-1.196226e-006
-2.356124e-005,5.286386e-006
-6.706447e-006,5.772582e-006
9.824214e-006,-2.238345e-007
2.748933e-005,-7.840905e-006
4.693717e-005,-1.626830e-005
6.978838e-005,-2.501983e-005
9.604297e-005,-3.231276e-005
1.180839e-004,-3.360929e-005
1.304008e-004,-2.275091e-005
1.316973e-004,-3.303075e-006
1.200286e-004,1.695509e-005
9.652916e-005,3.056858e-005
6.249544e-005,3.105477e-005
2.116879e-005,1.971020e-005
-3.247483e-005,2.045080e-006
-1.020008e-004,-1.513384e-005
-1.862748e-004,-2.647842e-005
-2.760590e-004,-2.728874e-005
-3.535262e-004,-1.950961e-005
-4.023078e-004,-8.489165e-006
-4.065215e-004,4.151929e-006
-3.638984e-004,1.663096e-005
-2.856208e-004,2.457216e-005
-1.948643e-004,2.603075e-005
-1.125351e-004,2.343770e-005
-4.738484e-005,2.003433e-005
1.720949e-006,2.084466e-005
3.915804e-005,2.975825e-005
7.043664e-005,4.094075e-005
9.831188e-005,4.709924e-005
1.222975e-004,4.580272e-005
1.428798e-004,4.337174e-005
1.590864e-004,4.175108e-005
1.673517e-004,3.964423e-005
1.667035e-004,3.705119e-005
1.573037e-004,3.850977e-005
1.440143e-004,4.450619e-005
1.328318e-004,5.293359e-005
1.282940e-004,6.087479e-005
1.338042e-004,6.670914e-005
1.493625e-004,7.465034e-005
1.749688e-004,8.486046e-005
2.007372e-004,9.879807e-005
2.177540e-004,1.135460e-004
2.214815e-004,1.226217e-004
2.122438e-004,1.240803e-004
1.965235e-004,1.182459e-004
1.804790e-004,1.096565e-004
1.647587e-004,1.009049e-004
1.492004e-004,9.101894e-005
1.331559e-004,7.740545e-005
1.133840e-004,6.249544e-005
8.761556e-005,5.341978e-005
5.763348e-005,5.439218e-005
2.992031e-005,6.184718e-005
8.527692e-006,7.270556e-005
-9.299492e-006,8.291567e-005
-2.404744e-005,9.231547e-005
-3.506787e-005,1.018773e-004
-4.236081e-005,1.081979e-004
-5.257093e-005,1.116012e-004
-6.845333e-005,1.109530e-004
-8.336334e-005,1.043083e-004
-9.049421e-005,9.182927e-005
-9.713889e-005,7.643306e-005
-1.094559e-004,6.038860e-005
-1.263107e-004,4.320967e-005
-1.387897e-004,2.311357e-005
-1.431654e-004,-1.196226e-006
-1.425172e-004,-2.615428e-005
-1.371690e-004,-4.803310e-005
-1.274451e-004,-6.618442e-005
-1.203142e-004,-7.704279e-005
-1.195039e-004,-7.979790e-005
-1.235555e-004,-7.428768e-005
-1.261486e-004,-6.407756e-005
-1.229073e-004,-5.273300e-005
-1.159385e-004,-4.171255e-005
-1.054042e-004,-3.166451e-005
-9.195280e-005,-2.874733e-005
-8.158062e-005,-3.393342e-005
-7.914964e-005,-4.252288e-005
-8.174268e-005,-5.192267e-005
-8.109442e-005,-5.953974e-005
-6.035006e-005,-6.407756e-005
-2.816880e-006,-6.423963e-005
9.328785e-005,-6.116039e-005
2.169437e-004,-5.435365e-005
3.386548e-004,-4.462973e-005
4.274666e-004,-3.312309e-005
4.610142e-004,-2.064406e-005
4.331389e-004,-8.975361e-006
3.613439e-004,-3.141010e-006
2.705873e-004,-4.275467e-006
1.855030e-004,-8.002969e-006
1.150046e-004,-1.237873e-005
5.860587e-005,-1.562004e-005
1.452411e-005,-1.788895e-005
-1.756482e-005,-1.529591e-005
-3.798505e-005,-3.141010e-006
-4.900549e-005,1.371378e-005
-5.127441e-005,2.748933e-005
-4.333321e-005,3.413401e-005
-2.518189e-005,2.992031e-005
-8.720958e-007,1.987226e-005
2.408596e-005,1.031041e-005
3.786152e-005,9.013888e-006
3.591673e-005,1.987226e-005
1.889987e-005,3.624086e-005
-8.975361e-006,4.871989e-005
-4.090223e-005,5.666109e-005
-6.521203e-005,6.119892e-005
-7.315322e-005,6.006446e-005
-6.488790e-005,5.682316e-005
-4.706071e-005,5.893001e-005
-2.469570e-005,6.784360e-005
-6.544382e-006,7.967437e-005
2.531276e-006,9.409818e-005
4.244267e-007,1.106288e-004
-1.010982e-005,1.237561e-004
-2.258885e-005,1.347766e-004
-3.328516e-005,1.420695e-004
-3.928157e-005,1.449867e-004
-3.879538e-005,1.419075e-004
-3.150244e-005,1.365593e-004
-2.258885e-005,1.318594e-004
-1.594417e-005,1.278078e-004
-6.706447e-006,1.197045e-004
1.517237e-005,1.081979e-004
5.277152e-005,9.523264e-005
9.814982e-005,8.259154e-005
1.359110e-004,7.286762e-005
1.487142e-004,7.140904e-005
1.258630e-004,8.178122e-005
7.011251e-005,1.020394e-004
-4.437533e-006,1.221355e-004
-8.060822e-005,1.307249e-004
-1.489998e-004,1.282940e-004
-2.042640e-004,1.174356e-004
-2.444563e-004,1.002567e-004
-2.720073e-004,7.999850e-005
-2.916172e-004,6.217131e-005
-3.068514e-004,5.147500e-005
-3.201407e-004,4.709924e-005
-3.284061e-004,4.418206e-005
-3.288923e-004,4.418206e-005
-3.188442e-004,4.742337e-005
-2.998826e-004,5.017848e-005
-2.715212e-004,4.985435e-005
-2.348944e-004,4.839576e-005
-1.890299e-004,4.612685e-005
-1.345760e-004,4.077869e-005
-6.472583e-005,3.154097e-005
3.073064e-005,2.052053e-005
1.527658e-004,6.420843e-006
2.897111e-004,-1.092015e-005
4.145014e-004,-2.761287e-005
4.874308e-004,-4.187462e-005
4.931031e-004,-5.030201e-005
4.564763e-004,-5.192267e-005
4.193634e-004,-4.900549e-005
4.096394e-004,-4.495386e-005
4.342734e-004,-4.203669e-005
4.796517e-004,-4.430560e-005
5.258403e-004,-5.062615e-005
5.517707e-004,-5.872941e-005
5.454502e-004,-6.391550e-005
5.059062e-004,-6.537409e-005
4.465903e-004,-6.359137e-005
3.867882e-004,-6.132245e-005
3.354135e-004,-5.629843e-005
2.939247e-004,-4.527799e-005
2.615117e-004,-3.263690e-005
2.352571e-004,-2.437157e-005
2.054371e-004,-1.918548e-005
1.660552e-004,-1.399939e-005
1.132219e-004,-8.651231e-006
4.855782e-005,-6.706447e-006
-2.453363e-005,-6.544382e-006
-1.126972e-004,-8.720958e-007
-2.225774e-004,1.063454e-005
-3.395886e-004,2.230324e-005
-4.327761e-004,2.975825e-005
-4.700511e-004,3.299956e-005
-4.405552e-004,3.478227e-005
