-7.899679e-004,1.409351e-004
-8.523631e-004,1.496866e-004
-8.603043e-004,1.423936e-004
-8.191397e-004,1.273216e-004
-7.291935e-004,1.098185e-004
-5.878726e-004,9.442231e-005
-3.979321e-004,8.113296e-005
-1.724992e-004,7.238143e-005
6.606088e-005,7.335382e-005
2.861456e-004,9.053274e-005
4.587452e-004,1.257009e-004
5.687876e-004,1.715654e-004
6.235657e-004,2.184023e-004
6.405826e-004,2.547049e-004
6.337758e-004,2.655633e-004
6.125453e-004,2.388225e-004
5.859666e-004,1.752929e-004
5.603603e-004,8.356393e-005
5.378331e-004,-3.490581e-005
5.159543e-004,-1.797922e-004
4.911583e-004,-3.387782e-004
4.652278e-004,-4.776682e-004
4.438352e-004,-5.609698e-004
4.308700e-004,-5.685868e-004
4.230909e-004,-5.016539e-004
4.112601e-004,-3.841565e-004
3.961880e-004,-2.517492e-004
3.819262e-004,-1.366828e-004
3.679886e-004,-5.176060e-005
3.483787e-004,7.231170e-006
3.117519e-004,4.628891e-005
2.461155e-004,7.367795e-005
1.453108e-004,8.988448e-005
6.096713e-006,9.879807e-005
-1.749302e-004,1.012291e-004
-3.956631e-004,9.944633e-005
-6.358439e-004,8.858796e-005
-8.520390e-004,6.395403e-005
-9.940082e-004,2.829966e-005
-1.036145e-003,-1.140634e-005
-9.823395e-004,-4.981582e-005
-8.565768e-004,-7.720485e-005
-6.914323e-004,-8.611845e-005
-5.206154e-004,-7.250496e-005
-3.695707e-004,-3.766092e-005
-2.533698e-004,1.063454e-005
-1.723372e-004,6.670914e-005
-1.165867e-004,1.240803e-004
-7.380149e-005,1.726999e-004
-3.539201e-005,2.054371e-004
-1.034161e-006,2.192126e-004
2.797553e-005,2.175920e-004
4.953022e-005,2.049509e-004
6.427816e-005,1.853410e-004
7.756751e-005,1.655690e-004
1.033359e-004,1.506590e-004
1.516314e-004,1.456350e-004
2.149989e-004,1.513072e-004
2.782044e-004,1.637863e-004
3.286067e-004,1.744826e-004
3.645853e-004,1.791825e-004
3.887330e-004,1.796687e-004
4.033188e-004,1.795066e-004
4.067222e-004,1.816135e-004
3.908399e-004,1.832341e-004
3.498373e-004,1.803169e-004
2.866318e-004,1.717275e-004
2.067336e-004,1.586002e-004
1.247285e-004,1.433660e-004
5.763348e-005,1.242423e-004
1.468617e-005,9.912220e-005
-4.437533e-006,6.946425e-005
-2.492749e-006,3.899597e-005
5.772582e-006,1.112074e-005
2.693341e-006,-1.092015e-005
-2.113026e-005,-3.134038e-005
-6.504996e-005,-5.435365e-005
-1.211245e-004,-7.833932e-005
-1.734716e-004,-9.762508e-005
-2.104225e-004,-1.067007e-004
-2.248463e-004,-1.032974e-004
-2.088019e-004,-8.725291e-005
-1.511066e-004,-5.791909e-005
-4.252288e-005,-1.659243e-005
1.127357e-004,3.624086e-005
2.931144e-004,1.007429e-004
4.616624e-004,1.788584e-004
5.747841e-004,2.715597e-004
6.062247e-004,3.720402e-004
5.593878e-004,4.668485e-004
4.621486e-004,5.402641e-004
3.524303e-004,5.742979e-004
2.566497e-004,5.559844e-004
1.869616e-004,4.864584e-004
1.461212e-004,3.830607e-004
1.248906e-004,2.623220e-004
1.132219e-004,1.302387e-004
1.073875e-004,-1.756482e-005
1.064151e-004,-1.828714e-004
1.120874e-004,-3.540124e-004
1.167873e-004,-5.011677e-004
1.034980e-004,-5.886829e-004
5.536457e-005,-6.009999e-004
-4.641245e-005,-5.499493e-004
-1.992400e-004,-4.690787e-004
-3.755671e-004,-3.872357e-004
-5.282326e-004,-3.238682e-004
-6.123444e-004,-2.823795e-004
-6.102376e-004,-2.551526e-004
-5.343910e-004,-2.339220e-004
-4.172178e-004,-2.136638e-004
-2.946965e-004,-1.890299e-004
-2.003745e-004,-1.603444e-004
-1.533756e-004,-1.289037e-004
-1.538618e-004,-1.002181e-004
-1.844921e-004,-7.898758e-005
-2.233878e-004,-6.650855e-005
-2.556388e-004,-5.775702e-005
-2.750866e-004,-5.159854e-005
-2.768693e-004,-4.544005e-005
-2.502906e-004,-3.928157e-005
-1.830335e-004,-3.085418e-005
-5.743289e-005,-1.724069e-005
1.329939e-004,-5.479652e-007
3.550234e-004,1.225519e-005
5.396159e-004,1.630683e-005
6.242140e-004,1.371378e-005
5.720289e-004,7.069104e-006
3.814400e-004,3.665733e-006
8.907416e-005,6.096713e-006
-2.112329e-004,1.063454e-005
-4.117076e-004,1.047248e-005
-4.522239e-004,4.476060e-006
-3.504469e-004,-8.720958e-007
-1.780095e-004,1.720949e-006
-1.351319e-005,1.209313e-005
9.750155e-005,2.586868e-005
1.480659e-004,3.672705e-005
1.563313e-004,4.369587e-005
1.459591e-004,4.758544e-005
1.391524e-004,5.098881e-005
1.398006e-004,5.455424e-005
1.362352e-004,6.006446e-005
1.179218e-004,6.622294e-005
8.761556e-005,6.930219e-005
5.649903e-005,6.654707e-005
3.348575e-005,6.168512e-005
2.667901e-005,6.152305e-005
3.883391e-005,6.897806e-005
6.330577e-005,8.048469e-005
8.923622e-005,8.988448e-005
1.026876e-004,9.312579e-005
1.025256e-004,9.069480e-005
9.474644e-005,8.664317e-005
8.875003e-005,8.761556e-005
9.037068e-005,9.863601e-005
9.847395e-005,1.171115e-004
1.098185e-004,1.385041e-004
1.211631e-004,1.563313e-004
1.302387e-004,1.641104e-004
1.334801e-004,1.608691e-004
1.318594e-004,1.509831e-004
1.266733e-004,1.367214e-004
1.216493e-004,1.253768e-004
1.169494e-004,1.177597e-004
1.122495e-004,1.145184e-004
1.062531e-004,1.133840e-004
9.977046e-005,1.106288e-004
9.912220e-005,1.025256e-004
1.052807e-004,9.280166e-005
1.148425e-004,8.372600e-005
1.180839e-004,7.400208e-005
1.111150e-004,6.346784e-005
9.717742e-005,5.131293e-005
8.259154e-005,3.705119e-005
7.076077e-005,2.084466e-005
6.930219e-005,2.855406e-006
7.935023e-005,-1.545797e-005
9.652916e-005,-3.101624e-005
1.067393e-004,-3.879538e-005
9.879807e-005,-4.041603e-005
7.627100e-005,-4.025397e-005
5.050261e-005,-3.960571e-005
3.218923e-005,-4.009190e-005
1.792748e-005,-4.009190e-005
9.106226e-007,-3.749886e-005
-2.566809e-005,-3.150244e-005
-6.067420e-005,-2.404744e-005
-9.859748e-005,-1.869928e-005
-1.349001e-004,-1.529591e-005
-1.669890e-004,-1.513384e-005
-1.885437e-004,-1.805102e-005
-1.947022e-004,-2.485776e-005
-1.835197e-004,-3.393342e-005
-1.611547e-004,-4.057810e-005
-1.374931e-004,-4.544005e-005
-1.159385e-004,-4.576419e-005
-9.438377e-005,-4.009190e-005
-7.234290e-005,-2.988179e-005
-5.224680e-005,-1.707863e-005
-3.636440e-005,7.485573e-007
-2.907146e-005,2.554455e-005
-3.247483e-005,5.795762e-005
-3.992984e-005,9.733949e-005
-4.430560e-005,1.373696e-004
-4.381940e-005,1.654069e-004
-4.057810e-005,1.764274e-004
-3.587821e-005,1.704310e-004
-2.971972e-005,1.553589e-004
-2.404744e-005,1.346145e-004
-2.096819e-005,1.103047e-004
-2.226472e-005,8.113296e-005
-2.501983e-005,5.098881e-005
-2.599222e-005,2.197911e-005
-2.275091e-005,-3.627206e-006
-1.480971e-005,-2.404744e-005
-2.330684e-006,-4.025397e-005
1.160693e-005,-5.289506e-005
2.100672e-005,-6.504996e-005
2.603075e-005,-7.947377e-005
2.894792e-005,-9.486997e-005
3.445814e-005,-1.070249e-004
4.142695e-005,-1.120489e-004
4.726130e-005,-1.062145e-004
4.953022e-005,-8.709084e-005
4.758544e-005,-5.759496e-005
4.450619e-005,-2.501983e-005
4.450619e-005,8.041497e-006
4.434413e-005,4.158902e-005
4.320967e-005,6.962632e-005
3.899597e-005,9.037068e-005
3.607880e-005,1.052807e-004
3.640293e-005,1.153287e-004
3.769945e-005,1.192183e-004
3.462021e-005,1.208390e-004
2.554455e-005,1.226217e-004
1.452411e-005,1.221355e-004
7.879431e-006,1.133840e-004
8.365628e-006,9.409818e-005
1.663096e-005,7.076077e-005
3.089270e-005,4.726130e-005
5.115087e-005,2.230324e-005
6.962632e-005,-7.354708e-006
7.935023e-005,-4.462973e-005
6.849186e-005,-9.049421e-005
3.543053e-005,-1.391138e-004
-6.058186e-006,-1.830335e-004
-3.279896e-005,-2.164190e-004
-2.745081e-005,-2.313289e-004
1.338965e-005,-2.180396e-004
7.999850e-005,-1.775233e-004
1.519555e-004,-1.224211e-004
2.060853e-004,-5.889147e-005
2.287745e-004,1.468617e-005
2.080301e-004,1.002567e-004
1.354248e-004,1.987924e-004
2.369210e-006,3.083486e-004
-1.825473e-004,4.183909e-004
-3.870737e-004,5.125509e-004
-5.617801e-004,5.747841e-004
-6.629088e-004,5.973111e-004
-6.645294e-004,5.777012e-004
-5.726385e-004,5.170887e-004
-4.202971e-004,4.251977e-004
-2.491561e-004,3.117519e-004
-9.065627e-005,1.790204e-004
3.283749e-005,2.667901e-005
1.127357e-004,-1.336036e-004
1.598967e-004,-2.744383e-004
1.926339e-004,-3.676258e-004
2.198609e-004,-4.008492e-004
2.388225e-004,-3.805911e-004
2.381743e-004,-3.279199e-004
2.141886e-004,-2.663351e-004
1.728619e-004,-2.144742e-004
1.331559e-004,-1.786577e-004
1.122495e-004,-1.519170e-004
1.185700e-004,-1.237176e-004
1.457970e-004,-9.486997e-005
1.775618e-004,-7.299116e-005
2.038164e-004,-6.310517e-005
2.243987e-004,-6.407756e-005
2.449810e-004,-6.699474e-005
2.786906e-004,-5.889147e-005
3.350894e-004,-3.652646e-005
4.161220e-004,-1.844488e-006
5.078511e-004,3.948217e-005
5.866148e-004,7.513654e-005
6.318311e-004,9.312579e-005
6.352345e-004,8.858796e-005
5.963388e-004,6.265751e-005
5.185474e-004,1.889987e-005
4.123945e-004,-3.571614e-005
2.906834e-004,-9.243900e-005
1.579519e-004,-1.423551e-004
1.646889e-005,-1.810887e-004
-1.391138e-004,-2.058847e-004
-3.136581e-004,-2.146362e-004
-5.047331e-004,-2.086398e-004
-6.998597e-004,-1.849783e-004
-8.799142e-004,-1.417068e-004
-1.018480e-003,-7.817725e-005
-1.105185e-003,5.772582e-006
-1.138732e-003,1.041462e-004
-1.114585e-003,2.047888e-004
-1.025125e-003,2.953833e-004
-8.714868e-004,3.590750e-004
-6.695535e-004,3.841952e-004
-4.463896e-004,3.660438e-004
-2.350565e-004,3.104554e-004
-6.472583e-005,2.159713e-004
5.228533e-005,8.291567e-005
1.365593e-004,-7.477388e-005
2.297469e-004,-2.232257e-004
3.629646e-004,-3.254889e-004
5.360504e-004,-3.616295e-004
7.062191e-004,-3.344025e-004
8.177201e-004,-2.621213e-004
8.397610e-004,-1.694200e-004
7.760693e-004,-7.720485e-005
6.564650e-004,-3.789271e-006
5.196818e-004,4.320967e-005
3.971604e-004,6.768153e-005
3.012177e-004,8.097089e-005
2.342847e-004,9.490851e-005
1.923098e-004,1.116012e-004
1.600588e-004,1.273216e-004
1.247285e-004,1.388282e-004
7.594687e-005,1.466074e-004
1.630683e-005,1.527658e-004
-3.976777e-005,1.579519e-004
-7.461181e-005,1.615174e-004
-7.412562e-005,1.592484e-004
-4.025397e-005,1.535762e-004
8.527692e-006,1.469315e-004
4.985435e-005,1.420695e-004
7.173317e-005,1.406109e-004
7.529860e-005,1.412592e-004
7.205730e-005,1.425557e-004
7.789165e-005,1.456350e-004
9.652916e-005,1.511452e-004
1.203528e-004,1.560071e-004
1.355869e-004,1.595726e-004
1.271595e-004,1.642725e-004
8.469840e-005,1.675138e-004
1.517237e-005,1.665414e-004
-6.051213e-005,1.582760e-004
-1.149661e-004,1.414213e-004
-1.344139e-004,1.182459e-004
-1.172350e-004,9.118101e-005
-7.558420e-005,6.265751e-005
-2.971972e-005,3.737532e-005
3.017472e-006,1.873781e-005
1.971020e-005,5.934647e-006
2.489629e-005,-2.492749e-006
2.230324e-005,-5.409925e-006
1.744128e-005,-2.168618e-006
1.387585e-005,6.582909e-006
1.533444e-005,1.517237e-005
2.084466e-005,1.889987e-005
2.603075e-005,1.906194e-005
2.651694e-005,1.663096e-005
2.457216e-005,1.112074e-005
2.181705e-005,5.934647e-006
2.214118e-005,3.179537e-006
3.267542e-005,4.313994e-006
6.265751e-005,5.124321e-006
1.166253e-004,1.002961e-007
1.822617e-004,-8.002969e-006
2.428742e-004,-1.270286e-005
2.850111e-004,-1.286493e-005
2.976522e-004,-1.254080e-005
2.842008e-004,-1.399939e-005
2.602152e-004,-1.788895e-005
2.449810e-004,-2.534396e-005
2.453051e-004,-3.474375e-005
2.508154e-004,-4.673658e-005
2.376881e-004,-5.872941e-005
1.866375e-004,-6.423963e-005
9.555677e-005,-5.791909e-005
-2.680255e-005,-4.122636e-005
-1.712027e-004,-2.096819e-005
-3.348887e-004,-4.923729e-006
-5.168880e-004,3.341602e-006
-7.039113e-004,6.907039e-006
-8.731075e-004,2.019640e-005
-1.000167e-003,5.439218e-005
-1.058834e-003,1.096565e-004
-1.027556e-003,1.714033e-004
-9.043860e-004,2.227780e-004
-7.081250e-004,2.525981e-004
-4.783164e-004,2.574600e-004
-2.567732e-004,2.417397e-004
-7.623246e-005,2.099749e-004
4.547859e-005,1.692965e-004
1.124116e-004,1.245665e-004
1.391524e-004,7.935023e-005
1.420695e-004,3.705119e-005
1.370455e-004,4.244267e-007
1.341283e-004,-2.858526e-005
1.344524e-004,-5.419158e-005
1.389903e-004,-8.077029e-005
1.511452e-004,-1.081593e-004
1.775618e-004,-1.339277e-004
2.171058e-004,-1.582375e-004
2.595669e-004,-1.864369e-004
2.926282e-004,-2.173913e-004
3.046211e-004,-2.426735e-004
2.953833e-004,-2.535319e-004
2.707494e-004,-2.488320e-004
2.428742e-004,-2.311669e-004
2.171058e-004,-2.052364e-004
1.947408e-004,-1.759026e-004
1.735102e-004,-1.509446e-004
1.540623e-004,-1.303623e-004
1.393144e-004,-1.102662e-004
1.304008e-004,-8.287714e-005
1.359110e-004,-4.722277e-005
1.649207e-004,-7.354708e-006
2.135403e-004,2.894792e-005
2.569738e-004,5.714729e-005
2.642668e-004,7.691926e-005
2.166196e-004,9.037068e-005
1.179218e-004,9.879807e-005
-9.137427e-006,1.028497e-004
-1.306864e-004,1.046324e-004
-2.118811e-004,1.047945e-004
-2.277635e-004,1.013911e-004
-1.624512e-004,9.393611e-005
-2.654814e-006,8.226741e-005
2.475740e-004,6.525056e-005
5.553362e-004,4.531652e-005
8.588848e-004,2.684107e-005
1.089666e-003,1.225519e-005
1.194685e-003,1.883015e-006
1.152547e-003,-2.816880e-006
9.980990e-004,-2.330684e-006
7.985964e-004,-1.844488e-006
6.156245e-004,4.244267e-007
4.788413e-004,3.503668e-006
3.814400e-004,4.313994e-006
2.942489e-004,-6.176923e-008
1.872858e-004,-1.416145e-005
3.494434e-005,-3.668853e-005
-1.896782e-004,-5.986387e-005
-4.765338e-004,-6.910160e-005
-7.708443e-004,-6.035006e-005
-9.991942e-004,-3.814712e-005
-1.109399e-003,-1.286493e-005
-1.090275e-003,5.610517e-006
-9.709949e-004,1.176900e-005
-8.064986e-004,5.124321e-006
-6.444334e-004,-8.813297e-006
-5.186707e-004,-2.194059e-005
-4.389346e-004,-2.793700e-005
-3.946908e-004,-2.939559e-005
-3.661673e-004,-3.328516e-005
-3.386162e-004,-4.187462e-005
-3.036101e-004,-5.192267e-005
-2.639041e-004,-5.402952e-005
-2.233878e-004,-4.187462e-005
-1.877334e-004,-1.529591e-005
-1.600202e-004,1.792748e-005
-1.374931e-004,5.471631e-005
-1.156143e-004,9.037068e-005
-8.498399e-005,1.198666e-004
-4.155049e-005,1.406109e-004
1.241726e-005,1.542244e-004
7.416414e-005,1.665414e-004
1.401247e-004,1.808031e-004
2.038164e-004,1.937684e-004
2.569738e-004,2.015475e-004
2.914938e-004,2.044647e-004
3.018659e-004,2.028440e-004
2.923041e-004,1.955511e-004
2.736665e-004,1.827479e-004
2.530843e-004,1.668655e-004
2.328261e-004,1.487142e-004
2.099749e-004,1.308870e-004
1.808031e-004,1.182459e-004
1.423936e-004,1.137081e-004
9.166720e-005,1.120874e-004
3.332369e-005,1.073875e-004
-2.356124e-005,1.005808e-004
-7.282909e-005,9.652916e-005
-1.110765e-004,9.393611e-005
-1.381414e-004,9.069480e-005
-1.520790e-004,8.242948e-005
-1.512687e-004,7.043664e-005
-1.318209e-004,6.006446e-005
-9.454584e-005,5.698522e-005
-4.657451e-005,6.071273e-005
1.883015e-006,6.622294e-005
4.207521e-005,6.589881e-005
6.751947e-005,5.649903e-005
8.129502e-005,4.110282e-005
9.118101e-005,2.441009e-005
1.026876e-004,1.095867e-005
1.180839e-004,-8.720958e-007
1.342904e-004,-1.497178e-005
1.511452e-004,-3.134038e-005
1.668655e-004,-4.544005e-005
1.808031e-004,-5.354332e-005
1.914994e-004,-6.002593e-005
2.004130e-004,-6.748093e-005
2.077060e-004,-7.590833e-005
2.154851e-004,-8.303921e-005
2.234263e-004,-8.303921e-005
2.297469e-004,-7.120844e-005
2.326641e-004,-4.981582e-005
2.339606e-004,-2.809907e-005
2.326641e-004,-1.221667e-005
2.273159e-004,-3.789271e-006
2.209953e-004,-5.734055e-006
2.122438e-004,-1.821308e-005
1.999268e-004,-3.522994e-005
1.830720e-004,-5.273300e-005
1.576278e-004,-6.553616e-005
1.174356e-004,-7.428768e-005
6.460230e-005,-7.898758e-005
4.476060e-006,-7.947377e-005
-5.646050e-005,-7.623246e-005
-1.091317e-004,-6.991192e-005
-1.455964e-004,-5.856734e-005
-1.549962e-004,-4.317114e-005
-1.374931e-004,-3.377135e-005
-1.097800e-004,-3.312309e-005
-8.644258e-005,-3.636440e-005
-7.120844e-005,-3.458168e-005
-5.710876e-005,-2.518189e-005
-3.847125e-005,-9.947754e-006
-1.302699e-005,5.610517e-006
1.193106e-005,1.889987e-005
2.392390e-005,2.700314e-005
1.533444e-005,3.137890e-005
-1.237873e-005,3.607880e-005
-4.916756e-005,4.223728e-005
-8.125648e-005,4.807163e-005
-9.794922e-005,5.423011e-005
-1.028112e-004,5.795762e-005
-9.940780e-005,5.633696e-005
-8.773910e-005,4.953022e-005
-6.326724e-005,4.077869e-005
-2.631635e-005,2.813760e-005
1.322759e-005,1.193106e-005
4.207521e-005,-2.978945e-006
5.714729e-005,-1.043395e-005
5.828174e-005,-6.382316e-006
4.726130e-005,5.772582e-006
2.327564e-005,2.019640e-005
-8.975361e-006,3.202716e-005
-4.219875e-005,3.526847e-005
-7.266703e-005,2.667901e-005
-9.892161e-005,6.096713e-006
-1.206384e-004,-2.145439e-005
-1.368449e-004,-5.159854e-005
-1.455964e-004,-7.947377e-005
-1.449481e-004,-9.940780e-005
-1.336036e-004,-1.039456e-004
-1.151281e-004,-8.401160e-005
-9.794922e-005,-4.041603e-005
-8.449779e-005,1.630683e-005
-7.299116e-005,7.189524e-005
-6.294311e-005,1.187321e-004
-4.900549e-005,1.535762e-004
-3.263690e-005,1.770756e-004
-2.177852e-005,1.924718e-004
-1.950961e-005,2.000889e-004
-1.983374e-005,2.007372e-004
-1.740276e-005,1.958752e-004
-8.651231e-006,1.918236e-004
8.689757e-006,1.892305e-004
3.575467e-005,1.887443e-004
6.995045e-005,1.866375e-004
1.051186e-004,1.770756e-004
1.351007e-004,1.626518e-004
1.532520e-004,1.462832e-004
1.582760e-004,1.294284e-004
1.555209e-004,1.138701e-004
1.503348e-004,1.012291e-004
1.440143e-004,9.199134e-005
1.378558e-004,8.777764e-005
1.328318e-004,9.053274e-005
1.360731e-004,1.020394e-004
1.506590e-004,1.174356e-004
1.735102e-004,1.297525e-004
1.903650e-004,1.308870e-004
1.866375e-004,1.151667e-004
1.537382e-004,8.550872e-005
9.037068e-005,5.568870e-005
5.772582e-006,3.591673e-005
-9.324932e-005,2.910999e-005
-2.005366e-004,3.802358e-005
-3.086341e-004,6.946425e-005
-4.042526e-004,1.222975e-004
-4.726441e-004,1.855030e-004
-5.082985e-004,2.391467e-004
-5.117019e-004,2.671840e-004
-4.906334e-004,2.632944e-004
-4.578962e-004,2.297469e-004
-4.178661e-004,1.757791e-004
-3.481780e-004,1.122495e-004
-2.188499e-004,4.807163e-005
-1.691656e-005,-1.010982e-005
2.357433e-004,-5.921561e-005
4.858101e-004,-1.029732e-004
6.723474e-004,-1.512687e-004
7.530560e-004,-2.104225e-004
7.114052e-004,-2.799485e-004
5.527431e-004,-3.536882e-004
2.991108e-004,-4.262935e-004
-9.461557e-006,-4.903093e-004
-3.207890e-004,-5.368220e-004
-5.825244e-004,-5.580526e-004
-7.539894e-004,-5.468701e-004
-8.163846e-004,-5.024642e-004
-7.745718e-004,-4.324520e-004
-6.507539e-004,-3.429920e-004
-4.778303e-004,-2.400805e-004
-2.945344e-004,-1.293899e-004
-1.344139e-004,-1.545797e-005
-1.286493e-005,9.782569e-005
7.270556e-005,2.041405e-004
1.286181e-004,2.932765e-004
1.654069e-004,3.516200e-004
1.931201e-004,3.733367e-004
2.166196e-004,3.584267e-004
2.344468e-004,3.106175e-004
2.448189e-004,2.276400e-004
2.461155e-004,1.002567e-004
2.422259e-004,-6.667061e-005
2.433604e-004,-2.455907e-004
2.584324e-004,-3.912874e-004
2.923041e-004,-4.681063e-004
3.444891e-004,-4.713476e-004
4.034809e-004,-4.220798e-004
4.499937e-004,-3.506090e-004
4.739794e-004,-2.908069e-004
4.767345e-004,-2.587180e-004
4.696036e-004,-2.575835e-004
4.618245e-004,-2.752486e-004
4.600418e-004,-2.882139e-004
4.676588e-004,-2.781658e-004
4.866205e-004,-2.347323e-004
5.128751e-004,-1.684476e-004
5.381573e-004,-9.778715e-005
5.537155e-004,-3.685059e-005
5.517707e-004,1.031041e-005
5.263265e-004,5.115087e-005
4.794896e-004,9.231547e-005
4.149876e-004,1.385041e-004
3.308756e-004,1.866375e-004
2.274780e-004,2.299089e-004
1.101426e-004,2.608634e-004
-1.578211e-005,2.809595e-004
-1.520790e-004,2.934386e-004
-3.104168e-004,2.971661e-004
-5.057055e-004,2.919800e-004
-7.400519e-004,2.835526e-004
-9.904427e-004,2.718839e-004
-1.218144e-003,2.535705e-004
-1.378913e-003,2.328261e-004
-1.430450e-003,2.158092e-004
-1.347797e-003,2.059233e-004
-1.138246e-003,2.025199e-004
-8.376152e-004,2.015475e-004
-4.964678e-004,1.981441e-004
-1.590478e-004,1.953890e-004
1.388282e-004,2.043026e-004
3.723644e-004,2.326641e-004
5.379952e-004,2.748010e-004
6.438239e-004,3.141829e-004
7.005468e-004,3.344411e-004
7.174016e-004,3.290929e-004
6.981159e-004,3.007315e-004
6.501445e-004,2.576221e-004
5.824011e-004,2.102990e-004
5.080131e-004,1.683241e-004
4.349216e-004,1.333180e-004
3.718782e-004,1.012291e-004
3.196932e-004,7.059870e-005
2.754493e-004,4.077869e-005
2.365536e-004,1.306552e-005
1.997648e-004,-1.205460e-005
1.615174e-004,-3.279896e-005
1.164632e-004,-4.592625e-005
6.865393e-005,-5.710876e-005
2.716520e-005,-7.023605e-005
-3.858999e-007,-8.125648e-005
-9.785687e-006,-8.417366e-005
-1.520357e-006,-7.655659e-005
2.165498e-005,-6.132245e-005
5.212327e-005,-4.479180e-005
8.567078e-005,-2.404744e-005
1.137081e-004,7.231170e-006
1.271595e-004,5.196120e-005
1.224596e-004,1.036600e-004
1.023635e-004,1.516314e-004
6.962632e-005,1.897167e-004
2.262737e-005,2.133783e-004
-3.717472e-005,2.216436e-004
-1.055663e-004,2.140265e-004
-1.729855e-004,1.914994e-004
-2.241981e-004,1.545486e-004
-2.454286e-004,1.151667e-004
-2.300324e-004,8.486046e-005
-1.825473e-004,6.897806e-005
-1.096179e-004,6.362990e-005
-2.518189e-005,5.585077e-005
5.196120e-005,3.559260e-005
1.056048e-004,1.720949e-006
1.279698e-004,-3.895744e-005
1.247285e-004,-7.137050e-005
1.020394e-004,-8.433573e-005
7.043664e-005,-7.039811e-005
4.029249e-005,-3.571614e-005
1.938607e-005,1.063454e-005
6.907039e-006,6.217131e-005
-1.358292e-006,1.177597e-004
-8.651231e-006,1.808031e-004
-1.237873e-005,2.513016e-004
-7.516774e-006,3.208276e-004
3.503668e-006,3.739850e-004
1.403791e-005,3.965121e-004
1.987226e-005,3.846813e-004
2.035846e-005,3.381686e-004
2.035846e-005,2.597290e-004
1.938607e-005,1.590864e-004
1.549650e-005,4.483032e-005
3.827798e-006,-8.303921e-005
-1.464765e-005,-2.217671e-004
-3.539201e-005,-3.588744e-004
-5.338126e-005,-4.681063e-004
-7.023605e-005,-5.154294e-004
-8.579432e-005,-4.810716e-004
-9.681476e-005,-3.700568e-004
-9.730095e-005,-2.110708e-004
-8.968388e-005,-4.252288e-005
-8.401160e-005,1.034980e-004
-7.590833e-005,2.062474e-004
-5.111234e-005,2.615117e-004
-7.030578e-006,2.777182e-004
3.850977e-005,2.637806e-004
6.622294e-005,2.235884e-004
6.687120e-005,1.602208e-004
4.337174e-005,8.356393e-005
4.476060e-006,9.662150e-006
-3.506787e-005,-4.997788e-005
-6.569822e-005,-9.000801e-005
-8.158062e-005,-1.125351e-004
-8.239095e-005,-1.246900e-004
-7.347736e-005,-1.379793e-004
-6.278104e-005,-1.635857e-004
-5.613637e-005,-2.092881e-004
-5.321919e-005,-2.778417e-004
-5.289506e-005,-3.593605e-004
-5.321919e-005,-4.405552e-004
-5.305713e-005,-5.089468e-004
-5.483985e-005,-5.543251e-004
-6.456376e-005,-5.693972e-004
-9.308726e-005,-5.510838e-004
-1.465688e-004,-4.998712e-004
-2.219292e-004,-4.206212e-004
-3.031239e-004,-3.243544e-004
-3.687603e-004,-2.259808e-004
-3.958252e-004,-1.396000e-004
-3.634122e-004,-7.104637e-005
-2.606628e-004,-1.805102e-005
-9.130454e-005,1.889987e-005
1.208390e-004,4.175108e-005
3.264999e-004,5.666109e-005
4.670106e-004,6.978838e-005
4.987753e-004,8.810177e-005
4.051016e-004,1.154908e-004
2.088404e-004,1.483901e-004
-1.886135e-005,1.759412e-004
-1.846541e-004,1.900409e-004
-2.327876e-004,1.908512e-004
-1.724992e-004,1.835582e-004
-5.905355e-005,1.730240e-004
4.969228e-005,1.597346e-004
1.171115e-004,1.441764e-004
1.401247e-004,1.229458e-004
1.378558e-004,9.733949e-005
1.307249e-004,6.800567e-005
1.312111e-004,3.932010e-005
1.419075e-004,1.452411e-005
1.573037e-004,-9.137427e-006
1.675138e-004,-3.587821e-005
1.670276e-004,-6.683268e-005
1.532520e-004,-1.026491e-004
1.304008e-004,-1.436516e-004
1.039842e-004,-1.862748e-004
7.302969e-005,-2.217671e-004
4.158902e-005,-2.386219e-004
1.176900e-005,-2.274394e-004
-9.947754e-006,-1.853024e-004
-1.432352e-005,-1.105903e-004
6.744974e-006,-4.275467e-006
4.936815e-005,1.294284e-004
9.733949e-005,2.770700e-004
1.323456e-004,4.290873e-004
1.454729e-004,5.755944e-004
1.433660e-004,7.013571e-004
1.360731e-004,7.879001e-004
1.278078e-004,8.203132e-004
1.132219e-004,7.913035e-004
8.486046e-005,7.028157e-004
3.737532e-005,5.652222e-004
-2.858526e-005,3.874364e-004
-1.136696e-004,1.791825e-004
-2.088019e-004,-4.414354e-005
-2.982619e-004,-2.473734e-004
-3.614674e-004,-3.945287e-004
-3.859392e-004,-4.634064e-004
-3.689224e-004,-4.559515e-004
-3.178718e-004,-3.914495e-004
-2.444563e-004,-2.958309e-004
-1.609926e-004,-1.958366e-004
-7.720485e-005,-1.101041e-004
1.002961e-007,-4.544005e-005
7.108490e-005,-2.492749e-006
1.360731e-004,2.603075e-005
1.895547e-004,4.839576e-005
2.213195e-004,7.043664e-005
2.161334e-004,8.810177e-005
1.584381e-004,9.928427e-005
3.737532e-005,1.022014e-004
-1.321450e-004,9.912220e-005
-3.089582e-004,9.134307e-005
-4.459034e-004,7.853991e-005
-5.126743e-004,6.217131e-005
-5.018159e-004,4.483032e-005
-4.269418e-004,3.267542e-005
-3.147926e-004,2.635488e-005
-1.938919e-004,2.603075e-005
-8.433573e-005,3.316162e-005
4.476060e-006,4.483032e-005
6.816773e-005,5.504044e-005
1.078737e-004,5.471631e-005
1.278078e-004,4.645098e-005
1.344524e-004,3.672705e-005
1.422316e-004,3.429608e-005
1.720516e-004,4.434413e-005
2.461155e-004,6.217131e-005
3.743092e-004,7.853991e-005
5.446399e-004,8.486046e-005
7.240463e-004,7.870197e-005
8.703914e-004,6.103685e-005
9.553137e-004,3.202716e-005
9.791374e-004,-8.720958e-007
9.517483e-004,-2.631635e-005
8.891911e-004,-3.960571e-005
8.063756e-004,-4.009190e-005
7.162672e-004,-3.231276e-005
6.235657e-004,-1.934754e-005
5.294057e-004,-5.896120e-006
4.328148e-004,5.286386e-006
3.320101e-004,1.371378e-005
2.218057e-004,1.889987e-005
1.004187e-004,1.873781e-005
-2.907146e-005,1.679302e-005
-1.648822e-004,1.744128e-005
-3.096065e-004,2.068259e-005
-4.617858e-004,2.424803e-005
-6.162340e-004,2.862379e-005
-7.620928e-004,3.251336e-005
-8.818590e-004,3.850977e-005
-9.539780e-004,4.758544e-005
-9.547884e-004,5.974033e-005
-8.718109e-004,7.124698e-005
-7.150938e-004,8.097089e-005
-5.175362e-004,8.956035e-005
-3.154408e-004,1.017153e-004
-1.449481e-004,1.187321e-004
-2.372330e-005,1.414213e-004
4.628891e-005,1.639483e-004
7.918817e-005,1.825858e-004
9.361198e-005,1.923098e-004
1.057669e-004,1.927960e-004
1.214872e-004,1.851789e-004
1.386661e-004,1.726999e-004
1.540623e-004,1.550348e-004
1.684862e-004,1.318594e-004
1.851789e-004,1.065772e-004
1.987924e-004,8.161915e-005
1.974959e-004,5.990240e-005
1.726999e-004,3.867184e-005
1.289422e-004,1.679302e-005
7.594687e-005,-1.520357e-006
1.954813e-005,-8.165034e-006
-3.685059e-005,1.396819e-006
-8.417366e-005,2.311357e-005
-1.102662e-004,4.742337e-005
-1.067007e-004,6.816773e-005
-7.412562e-005,8.080882e-005
-2.372330e-005,7.497447e-005
3.283749e-005,4.385793e-005
8.583285e-005,-1.740276e-005
1.284560e-004,-1.151281e-004
1.608691e-004,-2.519113e-004
1.859892e-004,-4.108973e-004
2.047888e-004,-5.538389e-004
2.166196e-004,-6.366542e-004
2.222919e-004,-6.358439e-004
2.243987e-004,-5.543251e-004
2.282883e-004,-4.209453e-004
2.410914e-004,-2.771934e-004
2.666978e-004,-1.569410e-004
3.018659e-004,-7.931171e-005
3.381686e-004,-4.284701e-005
3.676645e-004,-3.360929e-005
3.807918e-004,-3.847125e-005
3.652335e-004,-4.738484e-005
3.109416e-004,-5.386745e-005
2.148369e-004,-5.257093e-005
8.567078e-005,-4.041603e-005
-6.132245e-005,-2.226472e-005
-2.115570e-004,-4.275467e-006
-3.556330e-004,6.907039e-006
-4.935506e-004,1.338965e-005
-6.243372e-004,1.744128e-005
-7.471828e-004,2.019640e-005
-8.554424e-004,2.522042e-005
-9.359888e-004,3.299956e-005
-9.778016e-004,4.434413e-005
-9.716431e-004,5.666109e-005
-9.084377e-004,6.800567e-005
-7.810544e-004,7.400208e-005
-5.945172e-004,7.546067e-005
-3.647087e-004,7.529860e-005
-1.185315e-004,7.675719e-005
1.065772e-004,8.502253e-005
2.838767e-004,1.005808e-004
4.025085e-004,1.192183e-004
4.689553e-004,1.385041e-004
4.979650e-004,1.576278e-004
5.050959e-004,1.744826e-004
5.026649e-004,1.871237e-004
4.987753e-004,1.895547e-004
4.942375e-004,1.811273e-004
4.862963e-004,1.649207e-004
4.673347e-004,1.445005e-004
4.341113e-004,1.265113e-004
3.908399e-004,1.156529e-004
3.422202e-004,1.145184e-004
2.905214e-004,1.221355e-004
2.427121e-004,1.310491e-004
2.070577e-004,1.388282e-004
1.908512e-004,1.428798e-004
1.989545e-004,1.402868e-004
2.313675e-004,1.320215e-004
2.830664e-004,1.245665e-004
3.427064e-004,1.201907e-004
3.978086e-004,1.137081e-004
4.329768e-004,1.033359e-004
4.286011e-004,9.150514e-005
3.726885e-004,8.307774e-005
2.600531e-004,7.837785e-005
8.956035e-005,7.594687e-005
-1.298761e-004,7.335382e-005
-3.624398e-004,6.865393e-005
-5.569181e-004,6.460230e-005
-6.732810e-004,5.763348e-005
-7.008321e-004,4.337174e-005
-6.548056e-004,1.841368e-005
-5.616180e-004,-1.092015e-005
-4.502792e-004,-3.393342e-005
-3.403989e-004,-3.992984e-005
-2.379736e-004,-2.501983e-005
-1.405724e-004,5.772582e-006
-4.625038e-005,3.980630e-005
4.077869e-005,6.525056e-005
1.150046e-004,7.789165e-005
1.720516e-004,8.323980e-005
2.083542e-004,7.805372e-005
2.185644e-004,6.606088e-005
1.952270e-004,5.666109e-005
1.398006e-004,6.006446e-005
6.119892e-005,8.405013e-005
-2.307504e-005,1.244044e-004
-8.887356e-005,1.675138e-004
-1.209625e-004,2.005751e-004
-1.130213e-004,2.096508e-004
-7.477388e-005,1.911753e-004
-2.583015e-005,1.532520e-004
1.825161e-005,1.070634e-004
4.580272e-005,5.909207e-005
5.714729e-005,1.160693e-005
5.585077e-005,-3.296103e-005
4.985435e-005,-7.655659e-005
4.499239e-005,-1.161005e-004
4.515445e-005,-1.498101e-004
5.115087e-005,-1.731475e-004
5.779555e-005,-1.887058e-004
6.687120e-005,-1.981056e-004
7.416414e-005,-2.003745e-004
7.221937e-005,-1.971332e-004
5.374392e-005,-1.925954e-004
1.744128e-005,-1.878955e-004
-2.728874e-005,-1.831956e-004
-6.667061e-005,-1.728234e-004
-8.903562e-005,-1.480274e-004
-9.033214e-005,-1.054042e-004
-7.282909e-005,-4.997788e-005
-4.203669e-005,1.403791e-005
-7.354708e-006,8.972242e-005
2.197911e-005,1.718895e-004
4.288554e-005,2.420638e-004
5.714729e-005,2.927903e-004
6.865393e-005,3.190449e-004
8.194328e-005,3.172621e-004
1.004187e-004,2.897111e-004
1.242423e-004,2.457913e-004
1.432040e-004,1.937684e-004
1.480659e-004,1.393144e-004
1.352628e-004,8.388807e-005
1.080358e-004,3.218923e-005
7.205730e-005,-1.675450e-005
3.380988e-005,-6.326724e-005
2.531276e-006,-1.018388e-004
-1.724069e-005,-1.269589e-004
-2.566809e-005,-1.415448e-004
-2.923352e-005,-1.566169e-004
-3.150244e-005,-1.817370e-004
-3.134038e-005,-2.188499e-004
-2.129233e-005,-2.640661e-004
1.558884e-006,-3.047445e-004
3.624086e-005,-3.319715e-004
7.740545e-005,-3.392644e-004
1.184080e-004,-3.293785e-004
1.508210e-004,-3.081479e-004
1.712413e-004,-2.849726e-004
1.791825e-004,-2.596904e-004
1.788584e-004,-2.201465e-004
1.710792e-004,-1.592099e-004
1.569795e-004,-8.368747e-005
1.383420e-004,-5.085794e-006
1.148425e-004,7.092283e-005
8.712937e-005,1.375317e-004
6.119892e-005,1.876099e-004
5.649903e-005,2.213195e-004
9.814982e-005,2.401191e-004
2.004130e-004,2.527601e-004
3.650714e-004,2.626462e-004
5.789977e-004,2.689667e-004
8.050791e-004,2.713976e-004
9.899957e-004,2.773941e-004
1.077997e-003,2.872800e-004
1.036833e-003,2.924662e-004
8.627743e-004,2.926282e-004
5.655463e-004,2.887386e-004
1.681620e-004,2.751252e-004
-2.966413e-004,2.436845e-004
-7.711684e-004,1.931201e-004
-1.191566e-003,1.229458e-004
-1.497545e-003,3.186510e-005
-1.639838e-003,-7.639453e-005
-1.602888e-003,-1.851403e-004
-1.403871e-003,-2.742762e-004
-1.090599e-003,-3.243544e-004
-7.249798e-004,-3.102547e-004
-3.715154e-004,-2.123673e-004
-8.660465e-005,-3.992984e-005
9.993253e-005,1.600588e-004
1.889064e-004,3.248792e-004
1.958752e-004,4.085050e-004
1.414213e-004,3.932708e-004
4.499239e-005,2.919800e-004
-7.380149e-005,1.357490e-004
-2.011848e-004,-4.689864e-005
-3.282440e-004,-2.305186e-004
-4.528722e-004,-4.036044e-004
-5.715040e-004,-5.559457e-004
-6.760361e-004,-6.695535e-004
-7.491275e-004,-7.293556e-004
-7.646858e-004,-7.207661e-004
-6.919185e-004,-6.288751e-004
-5.168880e-004,-4.515757e-004
-2.493182e-004,-1.994021e-004
8.097089e-005,8.842590e-005
4.339492e-004,3.587509e-004
7.720176e-004,5.590637e-004
1.061791e-003,6.626235e-004
1.271179e-003,6.713750e-004
1.367284e-003,5.987698e-004
1.329847e-003,4.662002e-004
1.148172e-003,3.021901e-004
8.352232e-004,1.451487e-004
4.545315e-004,3.624086e-005
9.701536e-005,2.693341e-006
-1.629374e-004,4.142695e-005
-2.948585e-004,1.203528e-004
-3.078238e-004,1.905270e-004
-2.387839e-004,2.171058e-004
-1.332795e-004,1.914994e-004
-2.923352e-005,1.273216e-004
4.904402e-005,3.721326e-005
9.118101e-005,-7.509801e-005
1.031738e-004,-2.036158e-004
9.669123e-005,-3.308370e-004
8.405013e-005,-4.201350e-004
7.481241e-005,-4.412035e-004
7.562274e-005,-3.885323e-004
8.631904e-005,-2.864312e-004
1.039842e-004,-1.718510e-004
1.190562e-004,-7.380149e-005
1.221355e-004,-2.330684e-006
1.044704e-004,4.742337e-005
6.687120e-005,8.956035e-005
2.133085e-005,1.297525e-004
-1.610623e-005,1.681620e-004
-3.053005e-005,1.963614e-004
-1.351319e-005,2.081922e-004
3.364782e-005,2.033302e-004
1.017153e-004,1.866375e-004
1.726999e-004,1.658931e-004
2.378501e-004,1.509831e-004
2.979764e-004,1.479039e-004
3.550234e-004,1.568175e-004
4.083429e-004,1.712413e-004
4.598797e-004,1.855030e-004
5.055821e-004,1.974959e-004
5.366987e-004,2.021958e-004
5.535535e-004,1.923098e-004
5.687876e-004,1.616794e-004
6.020110e-004,1.137081e-004
6.606787e-004,5.909207e-005
7.327978e-004,1.663096e-005
7.966516e-004,-2.006553e-006
8.259855e-004,2.369210e-006
7.940585e-004,2.068259e-005
6.849886e-004,4.823369e-005
4.935893e-004,8.453633e-005
2.329882e-004,1.349386e-004
-7.914964e-005,2.044647e-004
-4.211074e-004,2.963557e-004
-7.705201e-004,4.033188e-004
-1.111830e-003,5.026649e-004
-1.440012e-003,5.713807e-004
-1.758470e-003,5.911527e-004
-2.068015e-003,5.495019e-004
-2.347740e-003,4.439973e-004
-2.556805e-003,2.743148e-004
-2.641727e-003,5.082674e-005
-2.552105e-003,-1.909747e-004
-2.267032e-003,-3.933942e-004
-1.803038e-003,-5.112157e-004
-1.212472e-003,-5.324463e-004
-5.703695e-004,-4.768579e-004
4.013043e-005,-3.833462e-004
5.456123e-004,-2.914552e-004
9.169042e-004,-2.243601e-004
1.160651e-003,-1.885437e-004
1.295489e-003,-1.768750e-004
1.338599e-003,-1.721751e-004
1.304079e-003,-1.569410e-004
1.211053e-003,-1.201522e-004
1.089018e-003,-6.504996e-005
9.718444e-004,-4.437533e-006
8.810877e-004,4.661304e-005
8.206373e-004,8.129502e-005
7.822278e-004,1.020394e-004
7.572697e-004,1.175977e-004
7.400908e-004,1.386661e-004
7.199947e-004,1.680000e-004
6.901746e-004,2.034923e-004
6.431757e-004,2.357433e-004
5.759185e-004,2.577842e-004
4.942375e-004,2.673460e-004
4.151496e-004,2.629703e-004
3.581026e-004,2.427121e-004
3.378445e-004,2.068957e-004
3.572923e-004,1.584381e-004
4.132048e-004,1.028497e-004
4.943996e-004,4.369587e-005
5.785116e-004,-2.242678e-005
6.459308e-004,-9.681476e-005
6.819093e-004,-1.724992e-004
6.775335e-004,-2.399184e-004
6.183797e-004,-2.935620e-004
4.861343e-004,-3.339163e-004
2.553532e-004,-3.640604e-004
-8.790116e-005,-3.882081e-004
-5.121881e-004,-4.071698e-004
-9.487920e-004,-4.178661e-004
-1.316356e-003,-4.198109e-004
-1.548434e-003,-4.181902e-004
-1.614232e-003,-4.144627e-004
-1.526879e-003,-4.010113e-004
-1.329969e-003,-3.728119e-004
-1.075527e-003,-3.241924e-004
-8.107123e-004,-2.553146e-004
-5.627525e-004,-1.705545e-004
-3.478539e-004,-8.077029e-005
-1.690959e-004,2.531276e-006
-2.793700e-005,7.286762e-005
7.675719e-005,1.284560e-004
1.530900e-004,1.692965e-004
2.044647e-004,1.957131e-004
2.372019e-004,2.059233e-004
2.584324e-004,2.002510e-004
2.670219e-004,1.885823e-004
2.475740e-004,1.799928e-004
1.743205e-004,1.738343e-004
3.543053e-005,1.636242e-004
-1.511066e-004,1.467694e-004
-3.428299e-004,1.258630e-004
-4.873921e-004,1.041462e-004
-5.437908e-004,8.194328e-005
-5.029504e-004,6.103685e-005
-3.875599e-004,4.272347e-005
-2.368392e-004,2.570661e-005
-8.822530e-005,4.151929e-006
2.927205e-005,-2.226472e-005
1.013911e-004,-4.900549e-005
1.294284e-004,-7.234290e-005
1.274836e-004,-8.692878e-005
1.094944e-004,-8.741497e-005
8.275361e-005,-7.218083e-005
4.888196e-005,-4.787104e-005
1.095867e-005,-2.194059e-005
-1.254080e-005,-6.176923e-008
3.179537e-006,1.695509e-005
7.465034e-005,3.089270e-005
1.957131e-004,4.709924e-005
3.506476e-004,7.076077e-005
5.211404e-004,1.154908e-004
6.763990e-004,1.927960e-004
7.866035e-004,2.987867e-004
8.318198e-004,4.198496e-004
8.165857e-004,5.379952e-004
7.577559e-004,6.268070e-004
6.810990e-004,6.650545e-004
6.028214e-004,6.420412e-004
5.243817e-004,5.619809e-004
4.469145e-004,4.439973e-004
3.762539e-004,3.183966e-004
3.166139e-004,2.172678e-004
2.728562e-004,1.589243e-004
2.478982e-004,1.415833e-004
2.357433e-004,1.492004e-004
2.260194e-004,1.574657e-004
2.122438e-004,1.564933e-004
1.934442e-004,1.457970e-004
1.702689e-004,1.316973e-004
1.453108e-004,1.221355e-004
1.205148e-004,1.237561e-004
9.879807e-005,1.326697e-004
8.356393e-005,1.435281e-004
7.724339e-005,1.445005e-004
7.999850e-005,1.329939e-004
9.280166e-005,1.088461e-004
1.047945e-004,7.578480e-005
9.669123e-005,4.013043e-005
4.223728e-005,5.772582e-006
-7.007398e-005,-2.420950e-005
-2.319772e-004,-3.879538e-005
-4.241866e-004,-2.518189e-005
-6.147754e-004,2.813760e-005
-7.723029e-004,1.339663e-004
-8.705144e-004,2.908455e-004
-8.940139e-004,4.704139e-004
-8.348601e-004,6.235657e-004
-6.898117e-004,7.042743e-004
-4.684305e-004,6.883919e-004
-2.003745e-004,5.833735e-004
6.816773e-005,4.091532e-004
2.866318e-004,1.835582e-004
4.243874e-004,-8.384953e-005
4.820826e-004,-3.812393e-004
4.943996e-004,-6.852738e-004
5.059062e-004,-9.661330e-004
5.422089e-004,-1.191404e-003
6.076833e-004,-1.333535e-003
6.872574e-004,-1.377779e-003
7.559732e-004,-1.326404e-003
7.914655e-004,-1.194807e-003
7.731521e-004,-1.009891e-003
6.820713e-004,-8.000160e-004
5.089855e-004,-5.864140e-004
2.645909e-004,-3.815635e-004
-3.263690e-005,-1.990780e-004
-3.574157e-004,-4.641245e-005
-6.766843e-004,7.092283e-005
-9.533298e-004,1.479039e-004
-1.163528e-003,1.811273e-004
-1.294964e-003,1.691344e-004
-1.344717e-003,1.099806e-004
-1.312953e-003,2.045080e-006
-1.206638e-003,-1.569410e-004
-1.039710e-003,-3.638984e-004
-8.384255e-004,-6.018102e-004
-6.309819e-004,-8.340498e-004
-4.389346e-004,-1.006811e-003
-2.778417e-004,-1.085251e-003
-1.524032e-004,-1.059807e-003
-6.310517e-005,-9.445782e-004
-2.492749e-006,-7.698719e-004
3.996836e-005,-5.716661e-004
7.254349e-005,-3.788084e-004
9.831188e-005,-2.133397e-004
1.179218e-004,-7.574627e-005
1.310491e-004,4.936815e-005
1.420695e-004,1.756170e-004
1.587622e-004,3.089968e-004
1.851789e-004,4.503178e-004
2.187264e-004,5.952043e-004
2.560015e-004,7.237222e-004
2.945730e-004,8.102651e-004
3.350894e-004,8.387886e-004
3.760919e-004,8.118858e-004
4.133669e-004,7.499768e-004
4.431869e-004,6.848265e-004
4.683071e-004,6.438239e-004
4.963444e-004,6.407447e-004
5.311884e-004,6.687820e-004
5.670049e-004,7.099466e-004
5.952043e-004,7.446286e-004
6.073592e-004,7.559732e-004
5.888838e-004,7.339323e-004
5.253541e-004,6.716992e-004
4.096394e-004,5.802942e-004
2.563256e-004,4.890515e-004
9.944633e-005,4.315182e-004
-9.299492e-006,4.206599e-004
-2.096819e-005,4.482110e-004
8.810177e-005,4.901859e-004
2.901973e-004,5.204921e-004
5.138475e-004,5.196818e-004
6.718612e-004,4.833791e-004
6.841783e-004,4.128807e-004
4.987753e-004,3.114278e-004
1.124116e-004,1.806411e-004
-3.997148e-004,3.235129e-005
-9.066550e-004,-1.047560e-004
-1.283943e-003,-1.994021e-004
-1.462053e-003,-2.365150e-004
-1.445684e-003,-2.199844e-004
-1.289291e-003,-1.697441e-004
-1.070179e-003,-1.110765e-004
-8.552803e-004,-6.423963e-005
-6.877048e-004,-4.381940e-005
-5.817141e-004,-5.013995e-005
-5.324463e-004,-7.363942e-005
-5.275843e-004,-9.956987e-005
-5.531906e-004,-1.182074e-004
-5.969482e-004,-1.248521e-004
-6.502677e-004,-1.126972e-004
-7.058561e-004,-8.303921e-005
-7.539894e-004,-4.430560e-005
-7.755441e-004,-9.137427e-006
-7.489654e-004,9.986280e-006
-6.585330e-004,1.128280e-005
-5.001953e-004,-8.720958e-007
-2.822175e-004,-1.853721e-005
-2.712668e-005,-3.571614e-005
2.333123e-004,-4.479180e-005
4.678209e-004,-4.171255e-005
6.519272e-004,-2.923352e-005
7.741245e-004,-9.785687e-006
8.430023e-004,1.760335e-005
8.755775e-004,5.666109e-005
8.859496e-004,1.025256e-004
8.822222e-004,1.488763e-004
8.674742e-004,1.864754e-004
8.446230e-004,2.052750e-004
8.170719e-004,1.992786e-004
7.875760e-004,1.728619e-004
7.582422e-004,1.381799e-004
7.261531e-004,1.075496e-004
6.846644e-004,8.696730e-005
6.287518e-004,7.351588e-005
5.642498e-004,5.617490e-005
5.039615e-004,3.299956e-005
4.579349e-004,8.527692e-006
4.302217e-004,-1.578211e-005
4.128807e-004,-4.041603e-005
4.004017e-004,-6.893953e-005
3.874364e-004,-1.052422e-004
3.689610e-004,-1.493239e-004
3.435167e-004,-1.976194e-004
3.149932e-004,-2.441321e-004
2.968419e-004,-2.844864e-004
2.960316e-004,-3.138202e-004
3.073762e-004,-3.326198e-004
3.138588e-004,-3.436402e-004
2.955454e-004,-3.557951e-004
2.451431e-004,-3.762153e-004
1.694586e-004,-4.023078e-004
8.048469e-005,-4.251590e-004
-1.237873e-005,-4.389346e-004
-9.276313e-005,-4.413656e-004
-1.405724e-004,-4.285624e-004
-1.447861e-004,-4.011734e-004
-1.076731e-004,-3.574157e-004
-4.819516e-005,-2.925896e-004
9.662150e-006,-1.945401e-004
4.953022e-005,-4.932962e-005
6.265751e-005,1.474177e-004
4.645098e-005,3.861399e-004
6.744974e-006,6.425274e-004
-4.236081e-005,8.760637e-004
-8.935975e-005,1.032295e-003
-1.253383e-004,1.066005e-003
-1.444620e-004,9.627687e-004
-1.433275e-004,7.373357e-004
-1.198280e-004,4.273045e-004
-7.720485e-005,9.409818e-005
-2.599222e-005,-1.914609e-004
1.857574e-005,-3.767015e-004
4.807163e-005,-4.478482e-004
6.525056e-005,-4.249970e-004
7.610893e-005,-3.438023e-004
8.599491e-005,-2.408908e-004
9.733949e-005,-1.449481e-004
1.117633e-004,-7.315322e-005
1.258630e-004,-2.745081e-005
1.346145e-004,-8.002969e-006
1.286181e-004,-8.975361e-006
1.043083e-004,-2.809907e-005
6.055066e-005,-5.694669e-005
-6.058186e-006,-7.639453e-005
-8.871149e-005,-6.715681e-005
-1.731475e-004,-2.096819e-005
-2.399184e-004,5.374392e-005
-2.801106e-004,1.362352e-004
-2.969654e-004,1.994406e-004
-2.909690e-004,2.247228e-004
-2.600145e-004,2.133783e-004
-2.049123e-004,1.837203e-004
-1.336036e-004,1.590864e-004
-5.321919e-005,1.629759e-004
3.073064e-005,2.052750e-004
1.120874e-004,2.796630e-004
1.863134e-004,3.736609e-004
2.498430e-004,4.772207e-004
2.957075e-004,5.819149e-004
3.218000e-004,6.809368e-004
3.271481e-004,7.520836e-004
3.193690e-004,7.561353e-004
3.138588e-004,6.622994e-004
3.266619e-004,4.624727e-004
3.671783e-004,1.858272e-004
4.333010e-004,-1.154523e-004
5.031511e-004,-3.966356e-004
5.467467e-004,-6.397335e-004
5.384814e-004,-8.437737e-004
4.597176e-004,-1.002273e-003
3.065658e-004,-1.091409e-003
9.701536e-005,-1.097568e-003
-1.353863e-004,-1.032904e-003
-3.579019e-004,-9.283717e-004
-5.580526e-004,-8.191397e-004
-7.526929e-004,-7.303280e-004
-9.846083e-004,-6.687432e-004
-1.296746e-003,-6.303337e-004
-1.688620e-003,-6.039171e-004
-2.104156e-003,-5.698833e-004
-2.445790e-003,-5.149432e-004
-2.609314e-003,-4.326140e-004
-2.526012e-003,-3.274337e-004
-2.193778e-003,-2.120432e-004
-1.677600e-003,-1.003802e-004
-1.078120e-003,-3.303075e-006
-4.932265e-004,7.902610e-005
4.962256e-006,1.501728e-004
3.867882e-004,2.055991e-004
6.473893e-004,2.461155e-004
7.932482e-004,2.691287e-004
8.425161e-004,2.757734e-004
8.229063e-004,2.675081e-004
7.686143e-004,2.451431e-004
7.110811e-004,2.094887e-004
6.707268e-004,1.707551e-004
6.491721e-004,1.401247e-004
6.331276e-004,1.261871e-004
6.049282e-004,1.323456e-004
5.507984e-004,1.550348e-004
4.762483e-004,1.876099e-004
4.016982e-004,2.185644e-004
3.441650e-004,2.453051e-004
3.128864e-004,2.704253e-004
3.012177e-004,2.958695e-004
2.942489e-004,3.206655e-004
2.801492e-004,3.449753e-004
2.602152e-004,3.637749e-004
2.415776e-004,3.770643e-004
2.349330e-004,3.837089e-004
2.521119e-004,3.777125e-004
2.961937e-004,3.576164e-004
3.585888e-004,3.209897e-004
4.232529e-004,2.713976e-004
4.696036e-004,2.112714e-004
4.919686e-004,1.469315e-004
4.872688e-004,8.907416e-005
4.511281e-004,4.094075e-005
3.769022e-004,6.420843e-006
2.597290e-004,-1.594417e-005
1.052807e-004,-1.480971e-005
-6.553616e-005,3.721326e-005
-2.267911e-004,1.547106e-004
-3.562813e-004,3.167760e-004
-4.287245e-004,4.807861e-004
-4.186764e-004,6.021731e-004
-3.032860e-004,6.540340e-004
-8.482193e-005,6.340999e-004
1.919856e-004,5.537155e-004
4.546936e-004,4.331389e-004
6.323173e-004,2.939247e-004
6.747784e-004,1.492004e-004
5.608465e-004,3.665733e-006
2.983005e-004,-1.407345e-004
-4.965375e-005,-2.814071e-004
-3.600088e-004,-4.102490e-004
-5.193189e-004,-5.202913e-004
-4.849611e-004,-6.024585e-004
-3.019894e-004,-6.444334e-004
-6.391550e-005,-6.381128e-004
1.338042e-004,-5.838209e-004
2.297469e-004,-4.886886e-004
2.133783e-004,-3.674638e-004
1.182459e-004,-2.290600e-004
-2.006553e-006,-7.736692e-005
-1.034594e-004,8.097089e-005
-1.579134e-004,2.287745e-004
-1.553203e-004,3.420582e-004
-8.903562e-005,4.047775e-004
3.607880e-005,4.153117e-004
2.051129e-004,3.846813e-004
3.903536e-004,3.292550e-004
5.433434e-004,2.707494e-004
6.130315e-004,2.231022e-004
5.647360e-004,1.887443e-004
3.846813e-004,1.581140e-004
1.083599e-004,1.210010e-004
-1.840059e-004,7.416414e-005
-4.118697e-004,2.230324e-005
-5.283947e-004,-2.777494e-005
-5.178603e-004,-7.169464e-005
-3.964735e-004,-1.047560e-004
-2.008607e-004,-1.302002e-004
2.408596e-005,-1.572651e-004
2.363915e-004,-1.956746e-004
4.025085e-004,-2.481837e-004
5.029890e-004,-3.126857e-004
5.355643e-004,-3.784843e-004
5.127130e-004,-4.347209e-004
4.524247e-004,-4.710235e-004
3.759298e-004,-4.833405e-004
2.937627e-004,-4.747510e-004
2.067336e-004,-4.517377e-004
1.059289e-004,-4.190006e-004
-1.578211e-005,-3.784843e-004
-1.650442e-004,-3.316474e-004
-3.410472e-004,-2.763831e-004
-5.295291e-004,-2.104225e-004
-6.941874e-004,-1.303623e-004
-7.953162e-004,-4.041603e-005
-8.152502e-004,5.244739e-005
-7.643617e-004,1.438522e-004
-6.703638e-004,2.325020e-004
-5.682627e-004,3.252033e-004
-4.914437e-004,4.248735e-004
-4.525481e-004,5.318367e-004
-4.518998e-004,6.383137e-004
-4.818819e-004,7.279359e-004
-5.290429e-004,7.879001e-004
-5.637249e-004,8.204752e-004
-5.458976e-004,8.413817e-004
-4.475240e-004,8.692570e-004
-2.713591e-004,9.214421e-004
-5.338126e-005,9.976128e-004
1.545486e-004,1.083832e-003
3.060797e-004,1.172320e-003
3.843572e-004,1.266804e-003
4.106118e-004,1.372471e-003
4.167703e-004,1.488347e-003
4.256839e-004,1.610221e-003
4.428628e-004,1.720588e-003
4.662002e-004,1.784604e-003
4.859722e-004,1.758025e-003
4.906721e-004,1.601631e-003
4.739794e-004,1.296138e-003
4.414042e-004,8.402472e-004
4.047775e-004,2.584324e-004
3.731747e-004,-3.862634e-004
3.553475e-004,-9.936841e-004
3.537268e-004,-1.476315e-003
3.637749e-004,-1.784401e-003
3.788470e-004,-1.912595e-003
3.901916e-004,-1.892823e-003
3.927846e-004,-1.778242e-003
3.919743e-004,-1.615529e-003
3.910019e-004,-1.427047e-003
3.793332e-004,-1.223655e-003
3.380065e-004,-1.017832e-003
2.538946e-004,-8.316187e-004
1.318594e-004,-6.852738e-004
-8.651231e-006,-5.946793e-004
-1.378173e-004,-5.661558e-004
-2.274394e-004,-5.903036e-004
-2.676316e-004,-6.548056e-004
-2.634179e-004,-7.596618e-004
-2.279256e-004,-9.016310e-004
-1.775233e-004,-1.043438e-003
-1.255003e-004,-1.131926e-003
-8.044616e-005,-1.122688e-003
-4.381940e-005,-1.008270e-003
-1.221667e-005,-8.222189e-004
1.452411e-005,-6.110479e-004
3.283749e-005,-4.138144e-004
4.126489e-005,-2.457528e-004
4.223728e-005,-1.063766e-004
4.402000e-005,1.193106e-005
5.341978e-005,1.180839e-004
7.157111e-005,2.127300e-004
9.215340e-005,2.790147e-004
1.116012e-004,3.038107e-004
1.273216e-004,2.845250e-004
1.406109e-004,2.328261e-004
1.490383e-004,1.610312e-004
1.516314e-004,7.659513e-005
1.483901e-004,-2.550602e-005
1.339663e-004,-1.533756e-004
1.075496e-004,-3.126857e-004
7.772959e-005,-4.938747e-004
5.860587e-005,-6.669604e-004
5.471631e-005,-7.852681e-004
6.573675e-005,-8.019608e-004
8.064676e-005,-6.962942e-004
8.648111e-005,-4.891748e-004
7.691926e-005,-2.365150e-004
5.698522e-005,-5.479652e-007
3.932010e-005,1.736723e-004
3.672705e-005,2.697770e-004
4.855782e-005,3.052693e-004
6.119892e-005,3.136967e-004
5.536457e-005,3.243930e-004
1.922400e-005,3.498373e-004
-4.252288e-005,3.871123e-004
-1.143178e-004,4.336251e-004
-1.757406e-004,4.833791e-004
-2.141500e-004,5.214645e-004
-2.243601e-004,5.371849e-004
-2.135018e-004,5.255162e-004
-1.948643e-004,4.866205e-004
-1.784957e-004,4.311941e-004
-1.671511e-004,3.861399e-004
-1.587237e-004,3.778746e-004
-1.488377e-004,4.213081e-004
-1.365208e-004,5.159543e-004
-1.208004e-004,6.483617e-004
-9.681476e-005,7.966516e-004
-6.910160e-005,9.303557e-004
-4.381940e-005,1.014630e-003
-2.129233e-005,1.025164e-003
-1.682422e-006,9.660100e-004
1.322759e-005,8.635846e-004
2.635488e-005,7.501388e-004
3.883391e-005,6.488480e-004
4.515445e-005,5.720289e-004
3.705119e-005,5.204921e-004
1.663096e-005,4.822447e-004
-6.544382e-006,4.352457e-004
-1.853721e-005,3.658818e-004
-2.492749e-006,2.772320e-004
4.645098e-005,1.824238e-004
1.206769e-004,9.944633e-005
2.102990e-004,4.402000e-005
3.065658e-004,2.457216e-005
4.046154e-004,3.964423e-005
5.007202e-004,8.064676e-005
5.890458e-004,1.315353e-004
6.652166e-004,1.770756e-004
7.172396e-004,2.051129e-004
7.295565e-004,2.081922e-004
6.835299e-004,1.872858e-004
5.715428e-004,1.550348e-004
3.911640e-004,1.205148e-004
1.419075e-004,8.810177e-005
-1.710407e-004,6.071273e-005
-5.256395e-004,3.688912e-005
-8.854244e-004,2.035846e-005
-1.195131e-003,1.452411e-005
-1.398361e-003,2.197911e-005
-1.464970e-003,4.013043e-005
-1.393175e-003,5.941620e-005
-1.206314e-003,6.914012e-005
-9.450644e-004,6.314371e-005
-6.497815e-004,4.013043e-005
-3.593605e-004,2.855406e-006
-1.081593e-004,-4.689864e-005
7.546067e-005,-9.179074e-005
1.796687e-004,-9.681476e-005
2.080301e-004,-3.944364e-005
1.806411e-004,6.816773e-005
1.213252e-004,1.872858e-004
4.661304e-005,2.773941e-004
-3.911951e-005,3.068900e-004
-1.412206e-004,2.645909e-004
-2.611490e-004,1.594105e-004
-3.945287e-004,1.047248e-005
-5.191569e-004,-1.512687e-004
-6.026205e-004,-2.974516e-004
-6.073205e-004,-4.110594e-004
-5.032745e-004,-4.954954e-004
-2.817312e-004,-5.643732e-004
3.640293e-005,-6.309819e-004
3.940811e-004,-6.949977e-004
7.075156e-004,-7.442656e-004
8.895152e-004,-7.654961e-004
8.844911e-004,-7.455621e-004
6.801265e-004,-6.831670e-004
3.091589e-004,-5.911139e-004
-1.374931e-004,-4.864197e-004
-5.334187e-004,-3.904771e-004
-7.713305e-004,-3.126857e-004
-8.014746e-004,-2.553146e-004
-6.431369e-004,-2.133397e-004
-3.736223e-004,-1.823852e-004
-8.806324e-005,-1.572651e-004
1.373696e-004,-1.334415e-004
2.704253e-004,-1.091317e-004
3.310377e-004,-7.914964e-005
3.584267e-004,-4.041603e-005
3.875985e-004,9.013888e-006
4.258459e-004,6.946425e-005
4.571246e-004,1.372075e-004
4.576108e-004,2.062474e-004
4.130428e-004,2.558394e-004
3.320101e-004,2.560015e-004
2.365536e-004,1.914994e-004
1.513072e-004,6.525056e-005
9.053274e-005,-1.052422e-004
6.217131e-005,-2.976136e-004
6.006446e-005,-4.873921e-004
7.221937e-005,-6.463781e-004
8.275361e-005,-7.450759e-004
8.761556e-005,-7.672788e-004
8.988448e-005,-7.199558e-004
9.588090e-005,-6.254717e-004
1.069013e-004,-5.053813e-004
1.248906e-004,-3.799428e-004
1.555209e-004,-2.645523e-004
2.012234e-004,-1.679614e-004
2.542187e-004,-9.324932e-005
2.992729e-004,-3.587821e-005
3.269861e-004,7.717366e-006
3.334687e-004,4.175108e-005
3.230965e-004,6.768153e-005
3.072141e-004,8.453633e-005
2.898731e-004,9.507057e-005
2.731804e-004,1.093323e-004
2.582704e-004,1.284560e-004
2.495188e-004,1.492004e-004
2.474120e-004,1.728619e-004
2.504912e-004,1.991165e-004
2.555152e-004,2.269918e-004
2.642668e-004,2.516257e-004
2.869559e-004,2.712356e-004
3.282826e-004,2.801492e-004
3.799814e-004,2.735045e-004
4.230909e-004,2.470879e-004
4.428628e-004,2.044647e-004
4.376767e-004,1.608691e-004
4.102877e-004,1.278078e-004
3.723644e-004,1.150046e-004
3.350894e-004,1.257009e-004
3.017039e-004,1.514693e-004
2.628082e-004,1.767515e-004
2.028440e-004,1.923098e-004
1.130598e-004,2.017096e-004
-7.678839e-006,2.119197e-004
-1.473791e-004,2.287745e-004
-2.911311e-004,2.607013e-004
-4.180282e-004,3.114278e-004
-5.113778e-004,3.738230e-004
-5.656697e-004,4.420525e-004
-5.787969e-004,5.073649e-004
-5.441150e-004,5.576051e-004
-4.572480e-004,5.806184e-004
-3.241924e-004,5.731634e-004
-1.567789e-004,5.328091e-004
3.429608e-005,4.553419e-004
2.346088e-004,3.425443e-004
4.120704e-004,1.953890e-004
5.329712e-004,2.862379e-005
5.730013e-004,-1.358725e-004
5.208162e-004,-2.760590e-004
3.838710e-004,-3.694086e-004
1.871237e-004,-3.982562e-004
-3.296103e-005,-3.647087e-004
-2.412149e-004,-2.844864e-004
-4.168937e-004,-1.760647e-004
-5.646973e-004,-3.863331e-005
-7.105560e-004,1.451487e-004
-8.791039e-004,3.788470e-004
-1.074717e-003,6.396102e-004
-1.260444e-003,8.966460e-004
-1.373079e-003,1.125645e-003
-1.355252e-003,1.307482e-003
-1.186866e-003,1.420928e-003
-8.899622e-004,1.436162e-003
-5.185086e-004,1.317854e-003
-1.436516e-004,1.057577e-003
1.762653e-004,6.883919e-004
4.132048e-004,2.751252e-004
5.692738e-004,-1.193418e-004
6.525755e-004,-4.655133e-004
6.759128e-004,-7.586894e-004
6.569512e-004,-9.768292e-004
6.133557e-004,-1.083306e-003
5.619809e-004,-1.042628e-003
5.174129e-004,-8.518769e-004
4.814344e-004,-5.488148e-004
4.459420e-004,-2.107467e-004
4.020223e-004,8.032263e-005
3.485408e-004,2.741528e-004
2.984626e-004,3.577785e-004
2.691287e-004,3.465960e-004
2.662116e-004,2.725321e-004
2.751252e-004,1.714033e-004
2.676701e-004,6.978838e-005
2.221298e-004,-9.785687e-006
1.282940e-004,-5.386745e-005
-8.489165e-006,-7.137050e-005
-1.728234e-004,-9.405964e-005
-3.413713e-004,-1.504584e-004
-4.799371e-004,-2.619593e-004
-5.598352e-004,-4.337485e-004
-5.591870e-004,-6.403818e-004
-4.674581e-004,-8.254602e-004
-2.953447e-004,-9.356646e-004
-6.926366e-005,-9.371233e-004
1.832341e-004,-8.291877e-004
4.464283e-004,-6.436231e-004
7.144844e-004,-4.369898e-004
9.718444e-004,-2.647144e-004
1.183664e-003,-1.642339e-004
1.302620e-003,-1.417068e-004
1.295813e-003,-1.723372e-004
1.163244e-003,-2.169051e-004
9.295453e-004,-2.434839e-004
6.289139e-004,-2.399184e-004
3.136967e-004,-2.131776e-004
5.617490e-005,-1.818990e-004
-8.012203e-005,-1.609926e-004
-7.509801e-005,-1.546721e-004
4.239934e-005,-1.626133e-004
2.088404e-004,-1.846541e-004
3.480546e-004,-2.113949e-004
4.063981e-004,-2.279256e-004
3.681507e-004,-2.203085e-004
2.466016e-004,-1.754164e-004
6.427816e-005,-8.790116e-005
-1.553203e-004,3.413401e-005
-3.838324e-004,1.746447e-004
-5.967862e-004,3.135346e-004
-7.731132e-004,4.334631e-004
-8.988758e-004,5.272989e-004
-9.658088e-004,5.896941e-004
-9.719673e-004,6.170831e-004
-9.327475e-004,6.028214e-004
-8.805625e-004,5.391297e-004
-8.410186e-004,4.310320e-004
-8.233534e-004,2.903593e-004
-8.136295e-004,1.380179e-004
-7.821888e-004,-3.303075e-006
-7.000217e-004,-1.198280e-004
-5.598352e-004,-2.136638e-004
-3.848048e-004,-2.968033e-004
-2.041020e-004,-3.878840e-004
-5.159854e-005,-4.979264e-004
4.029249e-005,-6.185029e-004
5.633696e-005,-7.217385e-004
-5.571990e-006,-7.800820e-004
-1.263107e-004,-7.813785e-004
-2.694143e-004,-7.278970e-004
-3.984183e-004,-6.348715e-004
-4.831784e-004,-5.228844e-004
-5.065158e-004,-4.050630e-004
-4.596789e-004,-2.802727e-004
-3.514193e-004,-1.402483e-004
-1.977814e-004,1.501031e-005
-1.562004e-005,1.739964e-004
1.738343e-004,3.214759e-004
3.477304e-004,4.521005e-004
4.804620e-004,5.640878e-004
5.584154e-004,6.564650e-004
5.725151e-004,7.319875e-004
5.311884e-004,7.895207e-004
4.615003e-004,8.240407e-004
3.937570e-004,8.455954e-004
3.420582e-004,8.786567e-004
2.994350e-004,9.447794e-004
2.547049e-004,1.048664e-003
2.043026e-004,1.177344e-003
1.472556e-004,1.298244e-003
7.837785e-005,1.373443e-003
-1.335112e-005,1.370688e-003
-1.272830e-004,1.276204e-003
-2.417011e-004,1.107979e-003
-3.287302e-004,9.005356e-004
-3.655190e-004,6.900126e-004
-3.365093e-004,5.086614e-004
-2.292221e-004,3.812780e-004
-4.673658e-005,3.221241e-004
1.858272e-004,3.300653e-004
4.187151e-004,3.843572e-004
5.974732e-004,4.464283e-004
6.924436e-004,4.743035e-004
7.008709e-004,4.409180e-004
6.447963e-004,3.354135e-004
5.516087e-004,1.613553e-004
4.498316e-004,-5.953974e-005
3.563199e-004,-2.937241e-004
2.762596e-004,-4.984125e-004
2.093266e-004,-6.411921e-004
1.579519e-004,-7.129869e-004
1.305629e-004,-7.283832e-004
1.287802e-004,-7.159041e-004
1.438522e-004,-7.052078e-004
1.602208e-004,-7.139593e-004
1.600588e-004,-7.387553e-004
1.380179e-004,-7.643617e-004
9.831188e-005,-7.771648e-004
5.098881e-005,-7.714925e-004
4.638125e-006,-7.444276e-004
-2.858526e-005,-6.962942e-004
-3.749886e-005,-6.285509e-004
-1.756482e-005,-5.494631e-004
2.262737e-005,-4.723200e-004
7.189524e-005,-4.078180e-004
1.143563e-004,-3.661673e-004
1.420695e-004,-3.489884e-004
1.547106e-004,-3.507711e-004
1.613553e-004,-3.587123e-004
1.694586e-004,-3.638984e-004
1.820997e-004,-3.548227e-004
1.884202e-004,-3.253268e-004
1.775618e-004,-2.833519e-004
1.433660e-004,-2.447804e-004
9.182927e-005,-2.243601e-004
3.802358e-005,-2.274394e-004
-2.006553e-006,-2.478596e-004
-2.420950e-005,-2.724935e-004
-3.749886e-005,-2.838381e-004
-6.051213e-005,-2.677937e-004
-1.029732e-004,-2.188499e-004
-1.572651e-004,-1.331174e-004
-2.000504e-004,-2.064406e-005
-1.961608e-004,9.863601e-005
-1.164247e-004,2.122438e-004
4.628891e-005,3.117519e-004
2.697770e-004,3.958639e-004
5.073649e-004,4.657140e-004
6.997365e-004,5.143337e-004
7.879001e-004,5.339436e-004
7.316634e-004,5.174129e-004
5.225990e-004,4.692795e-004
1.636242e-004,4.020223e-004
-3.185201e-004,3.200173e-004
-8.481494e-004,2.177540e-004
-1.331428e-003,8.923622e-005
-1.684731e-003,-6.537409e-005
-1.853117e-003,-2.318151e-004
-1.814545e-003,-3.848048e-004
-1.583116e-003,-4.930644e-004
-1.210689e-003,-5.292050e-004
-7.729511e-004,-4.877162e-004
-3.428299e-004,-3.792946e-004
2.408596e-005,-2.240360e-004
2.957075e-004,-4.236081e-005
4.587452e-004,1.469315e-004
5.151440e-004,3.315239e-004
4.811102e-004,5.070407e-004
3.778746e-004,6.577615e-004
2.320158e-004,7.579180e-004
6.330577e-005,7.953551e-004
-1.055663e-004,7.789865e-004
-2.653627e-004,7.447907e-004
-4.245108e-004,7.310151e-004
-6.045653e-004,7.478699e-004
-8.189777e-004,7.759072e-004
-1.055269e-003,7.713694e-004
-1.267250e-003,6.911471e-004
-1.385234e-003,5.170887e-004
-1.342611e-003,2.618358e-004
-1.109237e-003,-3.506787e-005
-7.105560e-004,-3.240303e-004
-2.091260e-004,-5.601594e-004
3.073762e-004,-7.116904e-004
7.538663e-004,-7.622548e-004
1.086425e-003,-7.154179e-004
1.293545e-003,-5.839830e-004
1.387867e-003,-3.692465e-004
1.401318e-003,-5.775702e-005
1.366960e-003,3.482167e-004
1.308617e-003,8.003791e-004
1.235687e-003,1.206353e-003
1.153844e-003,1.459824e-003
1.067139e-003,1.490778e-003
9.814063e-004,1.297434e-003
9.026424e-004,9.449415e-004
8.310095e-004,5.281092e-004
7.621317e-004,1.257009e-004
6.922815e-004,-2.133397e-004
6.183797e-004,-4.570859e-004
5.379952e-004,-5.760418e-004
4.493454e-004,-5.517320e-004
3.538889e-004,-4.044147e-004
2.558394e-004,-1.874093e-004
1.587622e-004,3.170303e-005
6.768153e-005,1.889064e-004
-1.075808e-005,2.519498e-004
-7.056018e-005,2.206712e-004
-1.067007e-004,1.150046e-004
-1.240417e-004,-4.284701e-005
-1.355484e-004,-2.405667e-004
-1.574272e-004,-4.684305e-004
-1.971332e-004,-7.090974e-004
-2.496423e-004,-9.333958e-004
-3.005308e-004,-1.105509e-003
-3.306750e-004,-1.194159e-003
-3.355369e-004,-1.188162e-003
-3.246786e-004,-1.102592e-003
-3.121995e-004,-9.635399e-004
-3.047445e-004,-7.841336e-004
-3.070135e-004,-5.648593e-004
-3.183580e-004,-3.042583e-004
-3.402368e-004,-1.156841e-005
-3.713534e-004,2.900352e-004
-4.096008e-004,5.563085e-004
-4.467137e-004,7.332840e-004
-4.684305e-004,7.760693e-004
-4.578962e-004,6.610029e-004
-4.029561e-004,3.816021e-004
-3.070135e-004,-5.500191e-005
-1.775233e-004,-5.990550e-004
-1.562004e-005,-1.137436e-003
1.671896e-004,-1.545678e-003
3.563199e-004,-1.740805e-003
5.345918e-004,-1.703530e-003
6.909849e-004,-1.466915e-003
8.136685e-004,-1.092382e-003
8.890289e-004,-6.544814e-004
9.165801e-004,-2.128535e-004
9.107458e-004,1.923098e-004
8.856255e-004,5.402641e-004
8.467298e-004,8.233925e-004
7.911414e-004,1.037481e-003
7.054087e-004,1.192902e-003
5.794839e-004,1.292896e-003
4.162841e-004,1.324175e-003
2.323399e-004,1.268424e-003
4.466826e-005,1.130344e-003
-1.358725e-004,9.355418e-004
-3.112271e-004,7.067053e-004
-4.883645e-004,4.451317e-004
-6.700397e-004,1.503348e-004
-8.541459e-004,-1.541859e-004
-1.030473e-003,-4.151110e-004
-1.184435e-003,-5.870622e-004
-1.298043e-003,-6.604778e-004
-1.358493e-003,-6.573986e-004
-1.348931e-003,-6.073205e-004
-1.248775e-003,-5.389288e-004
-1.037117e-003,-4.763717e-004
-7.058561e-004,-4.382863e-004
-2.786520e-004,-4.271038e-004
1.788584e-004,-4.300210e-004
5.794839e-004,-4.259694e-004
8.428402e-004,-3.974459e-004
9.207938e-004,-3.258130e-004
8.152892e-004,-1.969711e-004
5.700841e-004,-1.416145e-005
2.496809e-004,1.949028e-004
-7.461181e-005,3.939191e-004
-3.426678e-004,5.558224e-004
-5.165638e-004,6.645683e-004
-5.928966e-004,7.067053e-004
-6.079687e-004,6.765611e-004
-6.424886e-004,5.762426e-004
-7.829992e-004,4.242253e-004
-1.073258e-003,2.566497e-004
-1.487659e-003,1.180839e-004
-1.945980e-003,4.871989e-005
-2.340609e-003,6.346784e-005
-2.561343e-003,1.516314e-004
-2.524554e-003,2.816078e-004
-2.192158e-003,4.107739e-004
-1.595270e-003,5.005581e-004
-8.287015e-004,5.191956e-004
-2.242678e-005,4.512902e-004
7.047605e-004,3.099692e-004
1.290465e-003,1.383420e-004
1.736470e-003,-1.351319e-005
2.085236e-003,-1.086455e-004
2.387003e-003,-1.449481e-004
2.671915e-003,-1.477033e-004
2.926683e-003,-1.444620e-004
3.085832e-003,-1.541859e-004
3.080160e-003,-1.934057e-004
2.881791e-003,-2.666592e-004
2.524110e-003,-3.600088e-004
2.069191e-003,-4.530342e-004
1.571001e-003,-5.298532e-004
1.083832e-003,-5.731246e-004
6.773715e-004,-5.661558e-004
4.263321e-004,-5.044090e-004
3.778746e-004,-3.958252e-004
5.109303e-004,-2.525595e-004
7.433321e-004,-7.995997e-005
9.755719e-004,1.287802e-004
1.139744e-003,3.824124e-004
1.211701e-003,6.747784e-004
1.203112e-003,9.663342e-004
1.146389e-003,1.191767e-003
1.064546e-003,1.299217e-003
9.455898e-004,1.271504e-003
7.415494e-004,1.126131e-003
3.966742e-004,9.057217e-004
-1.125351e-004,6.639201e-004
-7.369726e-004,4.624727e-004
-1.358979e-003,3.542131e-004
-1.850037e-003,3.590750e-004
-2.106749e-003,4.587452e-004
-2.090056e-003,6.115729e-004
-1.864785e-003,7.650488e-004
-1.580198e-003,8.737948e-004
-1.409219e-003,9.079906e-004
-1.450708e-003,8.587227e-004
-1.669010e-003,7.376598e-004
-1.938525e-003,5.754323e-004
-2.115987e-003,4.110980e-004
-2.093622e-003,2.754493e-004
-1.834641e-003,1.824238e-004
-1.376806e-003,1.237561e-004
-8.131433e-004,7.740545e-005
-2.595283e-004,2.246531e-005
1.842065e-004,-4.511592e-005
4.639313e-004,-1.151281e-004
5.785116e-004,-1.665028e-004
5.600361e-004,-1.817370e-004
4.545315e-004,-1.645580e-004
3.073762e-004,-1.293899e-004
1.459591e-004,-8.595638e-005
-2.307504e-005,-4.349527e-005
-2.079916e-004,-9.947754e-006
-4.225660e-004,1.306552e-005
-6.666363e-004,2.700314e-005
-9.183237e-004,2.667901e-005
-1.138732e-003,8.689757e-006
-1.275840e-003,-2.907146e-005
-1.262388e-003,-9.746302e-005
-1.051055e-003,-2.079916e-004
-6.462161e-004,-3.681121e-004
-1.081593e-004,-5.734488e-004
4.644175e-004,-8.034194e-004
9.682790e-004,-1.020587e-003
1.342813e-003,-1.178925e-003
1.578456e-003,-1.248775e-003
1.682340e-003,-1.224627e-003
1.676830e-003,-1.113450e-003
1.610545e-003,-9.241580e-004
1.548636e-003,-6.703638e-004
1.533078e-003,-3.757291e-004
1.553498e-003,-6.310517e-005
1.568570e-003,2.543808e-004
1.519302e-003,5.537155e-004
1.362098e-003,8.029722e-004
1.107979e-003,9.626067e-004
8.034584e-004,9.943715e-004
4.943996e-004,8.635846e-004
2.067336e-004,5.363746e-004
-5.597430e-005,-5.896120e-006
-2.874036e-004,-7.123387e-004
-4.734545e-004,-1.447953e-003
-5.881967e-004,-2.054726e-003
-6.201236e-004,-2.416942e-003
-5.883588e-004,-2.501865e-003
-5.465459e-004,-2.354061e-003
-5.721523e-004,-2.063639e-003
-7.267625e-004,-1.714064e-003
-1.020425e-003,-1.357845e-003
-1.383937e-003,-1.022208e-003
-1.696724e-003,-7.219006e-004
-1.841286e-003,-4.655133e-004
-1.750043e-003,-2.536940e-004
-1.421536e-003,-7.412562e-005
-9.073032e-004,8.405013e-005
-2.979378e-004,2.240746e-004
2.906834e-004,3.375203e-004
7.556491e-004,4.104497e-004
1.041209e-003,4.367043e-004
1.137638e-003,4.227667e-004
1.077997e-003,3.781987e-004
9.191731e-004,3.198552e-004
7.182119e-004,2.683184e-004
5.188715e-004,2.401191e-004
3.508097e-004,2.436845e-004
2.271538e-004,2.827422e-004
1.420695e-004,3.558337e-004
9.085687e-005,4.533971e-004
7.627100e-005,5.629533e-004
9.766362e-005,6.718612e-004
1.398006e-004,7.666695e-004
1.775618e-004,8.310095e-004
1.963614e-004,8.464057e-004
2.162954e-004,7.943827e-004
2.981384e-004,6.710509e-004
4.992615e-004,5.023408e-004
7.942206e-004,3.307136e-004
1.085939e-003,1.913374e-004
1.262266e-003,1.025256e-004
1.223532e-003,7.059870e-005
9.251695e-004,8.291567e-005
4.072085e-004,1.151667e-004
-2.110708e-004,1.459591e-004
-7.990436e-004,1.584381e-004
-1.259957e-003,1.480659e-004
-1.524286e-003,1.198666e-004
-1.566099e-003,8.518459e-005
-1.407761e-003,5.601283e-005
-1.106644e-003,4.337174e-005
-7.280590e-004,5.487837e-005
-3.350507e-004,1.039842e-004
-3.627206e-006,2.077060e-004
1.940925e-004,3.726885e-004
2.115955e-004,5.752702e-004
5.260946e-005,7.695867e-004
-2.211188e-004,9.066940e-004
-5.198051e-004,9.592033e-004
-7.622548e-004,9.303557e-004
-8.795901e-004,8.498091e-004
-8.275671e-004,7.627800e-004
-6.035930e-004,7.067053e-004
-2.489941e-004,6.932539e-004
1.613553e-004,7.144844e-004
5.407503e-004,7.415494e-004
8.261476e-004,7.355530e-004
9.972887e-004,6.729957e-004
1.070056e-003,5.576051e-004
1.068435e-003,4.094774e-004
9.993955e-004,2.607013e-004
8.447851e-004,1.443384e-004
5.739737e-004,8.518459e-005
1.804790e-004,1.004187e-004
-3.156029e-004,1.979821e-004
-8.551182e-004,3.683128e-004
-1.350066e-003,5.815907e-004
-1.716657e-003,7.866035e-004
-1.908057e-003,9.233868e-004
-1.915674e-003,9.476966e-004
-1.763656e-003,8.455954e-004
-1.487821e-003,6.391240e-004
-1.117340e-003,3.846813e-004
-6.744154e-004,1.508210e-004
-1.827094e-004,-1.399939e-005
3.243930e-004,-9.438377e-005
8.084824e-004,-1.065387e-004
1.242656e-003,-8.125648e-005
1.603900e-003,-5.597430e-005
1.864340e-003,-5.727082e-005
1.996586e-003,-9.308726e-005
1.987672e-003,-1.590478e-004
1.844082e-003,-2.394322e-004
1.571001e-003,-3.279199e-004
1.177181e-003,-4.280762e-004
7.080018e-004,-5.390910e-004
2.508154e-004,-6.510781e-004
-9.811128e-005,-7.513964e-004
-2.849726e-004,-8.274050e-004
-3.190063e-004,-8.663007e-004
-2.511009e-004,-8.502562e-004
-1.433275e-004,-7.617687e-004
-4.171255e-005,-5.956517e-004
3.251336e-005,-3.661673e-004
7.400208e-005,-1.047560e-004
8.712937e-005,1.435281e-004
7.691926e-005,3.375203e-004
5.406805e-005,4.499937e-004
3.283749e-005,4.715484e-004
2.603075e-005,4.078567e-004
4.288554e-005,2.757734e-004
8.664317e-005,9.247753e-005
1.603829e-004,-1.156143e-004
2.715597e-004,-3.188442e-004
4.211461e-004,-4.977643e-004
5.943940e-004,-6.470264e-004
7.624558e-004,-7.710063e-004
8.870841e-004,-8.748902e-004
9.363521e-004,-9.653226e-004
9.049113e-004,-1.051055e-003
8.079962e-004,-1.131277e-003
6.731577e-004,-1.202910e-003
5.315125e-004,-1.266116e-003
4.088291e-004,-1.310684e-003
3.091589e-004,-1.311170e-003
2.224539e-004,-1.237754e-003
1.386661e-004,-1.067910e-003
5.212327e-005,-7.883473e-004
-4.074016e-005,-4.010113e-004
-1.507825e-004,6.022653e-005
-2.895104e-004,5.235714e-004
-4.546549e-004,8.984287e-004
-6.272544e-004,1.116893e-003
-7.813785e-004,1.162758e-003
-8.979035e-004,1.066329e-003
-9.693743e-004,8.705535e-004
-9.967632e-004,6.200003e-004
-9.799085e-004,3.650714e-004
-9.163789e-004,1.650828e-004
-8.063366e-004,5.520250e-005
-6.645294e-004,3.267542e-005
-5.070020e-004,6.768153e-005
-3.544986e-004,1.239182e-004
-2.266291e-004,1.859892e-004
-1.379793e-004,2.464396e-004
-9.357345e-005,2.997591e-004
-7.963584e-005,3.315239e-004
-7.007398e-005,3.232586e-004
-4.333321e-005,2.644288e-004
1.257933e-005,1.527658e-004
1.054428e-004,-1.853721e-005
2.224539e-004,-2.428356e-004
3.417340e-004,-4.914437e-004
4.341113e-004,-7.238454e-004
4.754380e-004,-9.060067e-004
4.420525e-004,-1.022856e-003
3.224483e-004,-1.076175e-003
1.257009e-004,-1.075365e-003
-1.065387e-004,-1.019939e-003
-3.149546e-004,-9.035757e-004
-4.564376e-004,-7.176869e-004
-5.340669e-004,-4.700511e-004
-5.945172e-004,-1.807646e-004
-6.919185e-004,1.175977e-004
-8.534976e-004,3.843572e-004
-1.063372e-003,5.858045e-004
-1.259471e-003,7.028157e-004
-1.364003e-003,7.306910e-004
-1.314087e-003,6.754267e-004
-1.076013e-003,5.546879e-004
-6.572365e-004,3.935950e-004
-1.164247e-004,2.239125e-004
4.423766e-004,7.043664e-005
9.117181e-004,-5.500191e-005
1.214457e-003,-1.462447e-004
1.313641e-003,-1.971332e-004
1.217860e-003,-1.945401e-004
9.689272e-004,-1.327932e-004
6.258346e-004,-2.420950e-005
2.592428e-004,1.015532e-004
-6.359137e-005,2.153230e-004
-2.998826e-004,2.953833e-004
-4.413656e-004,3.287688e-004
-5.031124e-004,3.164518e-004
-5.108916e-004,2.741528e-004
-4.875541e-004,2.256952e-004
-4.480102e-004,1.872858e-004
-3.932322e-004,1.772377e-004
-3.183580e-004,2.141886e-004
-2.235498e-004,3.081865e-004
-1.058904e-004,4.495075e-004
3.996836e-005,6.165970e-004
2.080301e-004,7.765555e-004
3.660438e-004,9.029665e-004
4.660382e-004,9.849716e-004
4.739794e-004,1.020302e-003
3.798194e-004,9.945336e-004
1.963614e-004,8.848152e-004
-3.490581e-005,6.864471e-004
-2.564491e-004,4.405939e-004
-4.271038e-004,2.221298e-004
-5.450873e-004,8.729143e-005
-6.330888e-004,5.925414e-005
-6.833291e-004,1.370455e-004
-6.018102e-004,3.047831e-004
-2.465631e-004,5.154681e-004
4.495075e-004,7.037881e-004
1.364367e-003,8.227442e-004
2.236119e-003,8.572641e-004
2.783741e-003,8.118858e-004
2.832361e-003,6.943883e-004
2.375658e-003,5.054200e-004
1.535995e-003,2.386605e-004
5.089855e-004,-1.232314e-004
-4.669719e-004,-5.766901e-004
-1.193835e-003,-1.075851e-003
-1.609694e-003,-1.542437e-003
-1.717954e-003,-1.896712e-003
-1.576309e-003,-2.080818e-003
-1.277947e-003,-2.076281e-003
-9.286958e-004,-1.896874e-003
-6.053756e-004,-1.567071e-003
-3.473677e-004,-1.109074e-003
-1.616409e-004,-5.544871e-004
-3.620233e-005,5.957827e-005
4.499239e-005,7.091363e-004
9.215340e-005,1.376684e-003
1.094944e-004,2.010361e-003
1.036600e-004,2.519735e-003
8.518459e-005,2.790872e-003
7.708132e-005,2.735445e-003
1.007429e-004,2.346162e-003
1.649207e-004,1.692712e-003
2.639427e-004,8.626123e-004
3.746333e-004,-6.148453e-005
4.634451e-004,-9.651606e-004
5.013684e-004,-1.725571e-003
4.819206e-004,-2.245153e-003
4.298976e-004,-2.477231e-003
3.762539e-004,-2.449031e-003
3.431926e-004,-2.231377e-003
3.329825e-004,-1.896874e-003
3.378445e-004,-1.510024e-003
3.495132e-004,-1.127064e-003
3.650714e-004,-7.849439e-004
3.879227e-004,-5.084606e-004
4.190392e-004,-3.170615e-004
4.606900e-004,-2.229016e-004
5.062303e-004,-2.259808e-004
5.475571e-004,-3.240303e-004
5.751082e-004,-5.027883e-004
5.824011e-004,-7.301659e-004
5.642498e-004,-9.667812e-004
5.183853e-004,-1.168390e-003
4.517764e-004,-1.290912e-003
3.887330e-004,-1.304201e-003
3.417340e-004,-1.203397e-003
2.989488e-004,-9.935220e-004
2.265056e-004,-6.937012e-004
9.555677e-005,-3.314853e-004
-9.730095e-005,5.730935e-005
-3.256510e-004,4.266563e-004
-5.400633e-004,7.334461e-004
-6.867324e-004,9.444553e-004
-7.162283e-004,1.051743e-003
-5.943552e-004,1.072001e-003
-3.246786e-004,1.032943e-003
4.142695e-005,9.575827e-004
4.162841e-004,8.697432e-004
7.146465e-004,7.859553e-004
8.786567e-004,7.037881e-004
8.786567e-004,6.292380e-004
7.047605e-004,5.822390e-004
3.759298e-004,5.742979e-004
-7.671866e-005,5.892079e-004
-6.011620e-004,5.987698e-004
-1.125929e-003,5.802942e-004
-1.584574e-003,5.349160e-004
-1.948573e-003,4.845136e-004
-2.220843e-003,4.587452e-004
-2.408839e-003,4.828930e-004
-2.508185e-003,5.697600e-004
-2.502189e-003,7.107570e-004
-2.380477e-003,8.734707e-004
-2.154558e-003,1.018195e-003
-1.849875e-003,1.110572e-003
-1.498842e-003,1.125158e-003
-1.129981e-003,1.047853e-003
-7.677650e-004,8.788188e-004
-4.296969e-004,6.347482e-004
-1.229073e-004,3.542131e-004
1.490383e-004,8.097089e-005
3.840331e-004,-1.472171e-004
5.765667e-004,-3.068514e-004
7.224256e-004,-3.872357e-004
8.216097e-004,-3.862634e-004
8.763878e-004,-3.133340e-004
8.895152e-004,-1.924333e-004
8.634226e-004,-4.835723e-005
8.042687e-004,9.296372e-005
7.232359e-004,2.102990e-004
6.399344e-004,3.005694e-004
5.731634e-004,3.785229e-004
5.378331e-004,4.590693e-004
5.388056e-004,5.332953e-004
5.686256e-004,5.718669e-004
6.117350e-004,5.430192e-004
6.554926e-004,4.271425e-004
7.117293e-004,2.261814e-004
8.088066e-004,-2.809907e-005
9.603378e-004,-2.780037e-004
1.145093e-003,-4.588686e-004
1.320123e-003,-5.196431e-004
1.448965e-003,-4.282383e-004
1.518167e-003,-1.927574e-004
1.529026e-003,1.304008e-004
1.488996e-003,4.448076e-004
1.403101e-003,6.611649e-004
1.277014e-003,7.363633e-004
1.116569e-003,6.752646e-004
9.277626e-004,5.261644e-004
7.221015e-004,3.689610e-004
5.185474e-004,2.744769e-004
3.397892e-004,2.812837e-004
2.111093e-004,4.042912e-004
1.488763e-004,6.329655e-004
1.367214e-004,9.224144e-004
1.399627e-004,1.185123e-003
1.255388e-004,1.311534e-003
6.800567e-005,1.228394e-003
-4.122636e-005,9.379727e-004
-1.791439e-004,5.161164e-004
-3.019894e-004,6.670914e-005
-3.673017e-004,-3.156029e-004
-3.562813e-004,-5.676145e-004
-2.827036e-004,-6.624226e-004
-1.690959e-004,-6.149375e-004
-2.226472e-005,-4.817198e-004
1.603829e-004,-3.488263e-004
3.647473e-004,-2.891863e-004
5.431813e-004,-3.340783e-004
6.191900e-004,-4.762096e-004
5.250300e-004,-6.736051e-004
2.603772e-004,-8.706765e-004
-1.032974e-004,-1.017021e-003
-4.609755e-004,-1.083144e-003
-7.355140e-004,-1.061913e-003
-8.919070e-004,-9.690501e-004
-9.280476e-004,-8.231914e-004
-8.581975e-004,-6.395714e-004
-7.112043e-004,-4.420138e-004
-5.191569e-004,-2.553146e-004
-3.141443e-004,-9.568031e-005
-1.297140e-004,2.343770e-005
3.503668e-006,8.793970e-005
7.124698e-005,8.939829e-005
7.789165e-005,3.996836e-005
4.142695e-005,-3.134038e-005
-1.805102e-005,-8.239095e-005
-8.320127e-005,-7.542214e-005
-1.483515e-004,1.014835e-005
-2.191741e-004,1.752929e-004
-3.015032e-004,3.935950e-004
-3.964735e-004,6.130315e-004
-4.920920e-004,7.739624e-004
-5.595111e-004,8.276061e-004
-5.612939e-004,7.397666e-004
-4.710235e-004,4.924549e-004
-2.872415e-004,9.847395e-005
-4.430560e-005,-3.729740e-004
1.918236e-004,-8.123330e-004
3.532407e-004,-1.123174e-003
4.013741e-004,-1.263523e-003
3.370341e-004,-1.252988e-003
1.824238e-004,-1.146836e-003
-2.501983e-005,-1.007460e-003
-2.480217e-004,-8.760247e-004
-4.604893e-004,-7.710063e-004
-6.635570e-004,-6.971046e-004
-8.880175e-004,-6.510781e-004
-1.173739e-003,-6.283889e-004
-1.531255e-003,-6.233649e-004
-1.909353e-003,-6.197994e-004
-2.215171e-003,-5.953276e-004
-2.342068e-003,-5.324463e-004
-2.207716e-003,-4.301830e-004
-1.792666e-003,-3.081479e-004
-1.152832e-003,-1.919471e-004
-4.021458e-004,-9.875954e-005
3.243930e-004,-4.009190e-005
9.002115e-004,-2.145439e-005
1.265831e-003,-3.134038e-005
1.420442e-003,-5.030201e-005
1.408773e-003,-6.035006e-005
1.291113e-003,-5.273300e-005
1.125158e-003,-3.425755e-005
9.548275e-004,-1.335112e-005
8.016757e-004,8.041497e-006
6.723474e-004,3.348575e-005
5.637636e-004,6.119892e-005
4.634451e-004,8.907416e-005
3.598853e-004,1.107909e-004
2.511395e-004,1.226217e-004
1.432040e-004,1.266733e-004
4.790957e-005,1.286181e-004
-2.404744e-005,1.407730e-004
-6.748093e-005,1.778859e-004
-8.141856e-005,2.457913e-004
-7.185670e-005,3.386548e-004
-4.965375e-005,4.462662e-004
-2.696461e-005,5.613326e-004
-1.010982e-005,6.734819e-004
2.855406e-006,7.809313e-004
1.727922e-005,8.844911e-004
4.029249e-005,9.792994e-004
7.043664e-005,1.043315e-003
1.044704e-004,1.039426e-003
1.378558e-004,9.358659e-004
1.650828e-004,7.266394e-004
1.856651e-004,4.320044e-004
2.033302e-004,8.712937e-005
2.188885e-004,-2.616351e-004
2.299089e-004,-5.653455e-004
2.295848e-004,-7.872129e-004
2.161334e-004,-9.178375e-004
1.994406e-004,-9.664571e-004
1.942546e-004,-9.445782e-004
2.062474e-004,-8.690558e-004
2.341226e-004,-7.577170e-004
2.668598e-004,-6.287130e-004
2.948972e-004,-5.006815e-004
3.127243e-004,-3.909633e-004
3.211517e-004,-3.083100e-004
3.218000e-004,-2.465631e-004
3.119140e-004,-1.914609e-004
2.940868e-004,-1.314967e-004
2.705873e-004,-5.937767e-005
2.414156e-004,1.063454e-005
2.096508e-004,5.633696e-005
1.799928e-004,6.589881e-005
1.581140e-004,4.742337e-005
1.470936e-004,2.230324e-005
1.448246e-004,1.614476e-005
1.513072e-004,4.855782e-005
1.623277e-004,1.198666e-004
1.759412e-004,2.096508e-004
1.887443e-004,2.952213e-004
1.919856e-004,3.653956e-004
1.735102e-004,4.232529e-004
1.263492e-004,4.747897e-004
4.320967e-005,5.276230e-004
-7.088431e-005,5.853183e-004
-2.154466e-004,6.441480e-004
-3.844807e-004,6.953607e-004
-5.517320e-004,7.303669e-004
-6.763602e-004,7.501388e-004
-7.267625e-004,7.622938e-004
-6.920805e-004,7.658592e-004
-5.856036e-004,7.477078e-004
-4.455793e-004,6.929297e-004
-3.256510e-004,6.000663e-004
-2.749245e-004,4.820826e-004
-3.134960e-004,3.624784e-004
-4.212695e-004,2.582704e-004
-5.504355e-004,1.730240e-004
-6.541573e-004,1.064151e-004
-6.992114e-004,5.277152e-005
-6.680949e-004,1.257933e-005
-5.632387e-004,-5.085794e-006
-4.021458e-004,1.241726e-005
-2.149604e-004,7.400208e-005
-3.814712e-005,1.817755e-004
9.069480e-005,3.179104e-004
1.493625e-004,4.474007e-004
1.423936e-004,5.561465e-004
9.977046e-005,6.528996e-004
6.152305e-005,7.456010e-004
5.941620e-005,8.339267e-004
1.060910e-004,9.015080e-004
1.884202e-004,9.241971e-004
2.822560e-004,8.718500e-004
3.626405e-004,7.185361e-004
4.091532e-004,4.439973e-004
4.222805e-004,4.337174e-005
4.123945e-004,-4.442827e-004
3.971604e-004,-9.325854e-004
3.863020e-004,-1.332563e-003
3.833848e-004,-1.585222e-003
3.827366e-004,-1.678410e-003
3.757677e-004,-1.633032e-003
3.610198e-004,-1.490252e-003
3.444891e-004,-1.305012e-003
3.339549e-004,-1.124309e-003
3.320101e-004,-9.637020e-004
3.349273e-004,-8.099020e-004
3.321721e-004,-6.441093e-004
3.224483e-004,-4.634064e-004
3.096451e-004,-2.877277e-004
2.976522e-004,-1.545100e-004
2.908455e-004,-9.924574e-005
2.940868e-004,-1.297140e-004
3.060797e-004,-2.219292e-004
3.201793e-004,-3.470436e-004
3.219621e-004,-4.898231e-004
3.059176e-004,-6.360059e-004
2.689667e-004,-7.570687e-004
2.166196e-004,-8.081193e-004
1.566554e-004,-7.298418e-004
1.034980e-004,-4.813957e-004
7.173317e-005,-7.785312e-005
6.703327e-005,4.085050e-004
7.983643e-005,8.896772e-004
1.009049e-004,1.314937e-003
1.282940e-004,1.671482e-003
1.592484e-004,1.954287e-003
1.871237e-004,2.141149e-003
2.018716e-004,2.189931e-003
1.989545e-004,2.070974e-003
1.725378e-004,1.796272e-003
1.221355e-004,1.437459e-003
5.034054e-005,1.095825e-003
-3.717472e-005,8.524021e-004
-1.287416e-004,7.240463e-004
-2.100984e-004,6.579236e-004
-2.715212e-004,6.037937e-004
-3.091203e-004,5.708945e-004
-3.224097e-004,6.177314e-004
-3.157650e-004,8.050791e-004
-2.927517e-004,1.134072e-003
-2.611490e-004,1.536157e-003
-2.229016e-004,1.868392e-003
-1.781715e-004,1.939701e-003
-1.302002e-004,1.583480e-003
-8.871149e-005,7.538663e-004
-6.018800e-005,-4.248349e-004
-5.078821e-005,-1.646483e-003
-6.067420e-005,-2.599752e-003
-8.709084e-005,-3.069419e-003
-1.203142e-004,-2.984820e-003
-1.489998e-004,-2.436228e-003
-1.715269e-004,-1.631897e-003
-1.911368e-004,-8.162226e-004
-2.117190e-004,-1.964849e-004
-2.363530e-004,1.188942e-004
-2.579077e-004,1.448246e-004
-2.681178e-004,-1.124428e-005
-2.593662e-004,-2.188499e-004
-2.303566e-004,-3.882081e-004
-1.861127e-004,-4.914437e-004
-1.365208e-004,-5.403875e-004
-9.130454e-005,-5.637249e-004
-5.548810e-005,-5.826865e-004
-2.761287e-005,-5.980827e-004
-3.303075e-006,-6.035930e-004
2.068259e-005,-6.005137e-004
4.239934e-005,-5.987309e-004
6.217131e-005,-5.917621e-004
7.935023e-005,-5.481666e-004
9.134307e-005,-4.340726e-004
9.701536e-005,-2.541802e-004
9.993253e-005,-4.300908e-005
1.069013e-004,1.537382e-004
1.174356e-004,2.948972e-004
1.200286e-004,3.545372e-004
1.133840e-004,3.182345e-004
1.015532e-004,1.923098e-004
8.972242e-005,-7.100305e-007
8.323980e-005,-2.165810e-004
8.518459e-005,-4.128421e-004
9.766362e-005,-5.768521e-004
1.171115e-004,-7.142835e-004
1.325077e-004,-8.181673e-004
1.325077e-004,-8.804004e-004
1.177597e-004,-8.996861e-004
9.620503e-005,-8.496080e-004
7.351588e-005,-6.575607e-004
5.293359e-005,-2.384598e-004
3.672705e-005,4.376767e-004
3.024445e-005,1.290303e-003
2.846173e-005,2.157031e-003
2.246531e-005,2.834305e-003
3.827798e-006,3.096853e-003
-2.890940e-005,2.777096e-003
-7.282909e-005,1.855588e-003
-1.195039e-004,4.966685e-004
-1.652063e-004,-9.646743e-004
-2.131776e-004,-2.131545e-003
-2.614731e-004,-2.799255e-003
-3.026377e-004,-2.916915e-003
-3.269475e-004,-2.581115e-003
-3.280819e-004,-1.970452e-003
-3.049066e-004,-1.278919e-003
-2.554767e-004,-6.645294e-004
-1.822232e-004,-2.178775e-004
-9.162867e-005,5.098881e-005
3.179537e-006,1.908512e-004
8.518459e-005,2.678322e-004
1.412592e-004,3.362238e-004
1.616794e-004,4.245494e-004
1.540623e-004,5.274609e-004
1.394765e-004,6.141660e-004
1.372075e-004,6.530616e-004
1.573037e-004,6.248623e-004
1.952270e-004,5.341056e-004
2.342847e-004,4.096394e-004
2.579462e-004,2.743148e-004
2.658874e-004,1.284560e-004
2.657254e-004,-4.608832e-005
2.636185e-004,-2.793003e-004
2.605393e-004,-5.739350e-004
2.551911e-004,-8.876934e-004
2.509774e-004,-1.145701e-003
2.472499e-004,-1.274057e-003
2.406053e-004,-1.234189e-003
2.269918e-004,-1.038414e-003
2.030061e-004,-7.432931e-004
1.730240e-004,-4.262935e-004
1.446626e-004,-1.553203e-004
1.258630e-004,5.050261e-005
1.153287e-004,2.146748e-004
1.028497e-004,3.738230e-004
6.735740e-005,5.506363e-004
-9.137427e-006,7.441424e-004
-1.337657e-004,9.370003e-004
-2.934000e-004,1.096149e-003
-4.587065e-004,1.181719e-003
-5.953276e-004,1.169564e-003
-6.781429e-004,1.069084e-003
-7.035872e-004,9.167421e-004
-6.808981e-004,7.626179e-004
-6.222304e-004,6.588960e-004
-5.397392e-004,6.488480e-004
-4.408794e-004,7.402528e-004
-3.368334e-004,9.044252e-004
-2.392702e-004,1.095987e-003
-1.588858e-004,1.288196e-003
-9.956987e-005,1.472465e-003
-6.991192e-005,1.650899e-003
-7.347736e-005,1.820096e-003
-9.811128e-005,1.958338e-003
-1.224211e-004,2.024785e-003
-1.188556e-004,1.969359e-003
-7.120844e-005,1.751866e-003
2.116879e-005,1.363719e-003
1.459591e-004,8.193408e-004
2.757734e-004,1.684862e-004
3.809539e-004,-4.741028e-004
4.439973e-004,-9.669433e-004
4.652278e-004,-1.222196e-003
4.501558e-004,-1.229975e-003
4.125566e-004,-1.051541e-003
3.642611e-004,-7.787854e-004
3.166139e-004,-4.946851e-004
2.757734e-004,-2.476975e-004
2.419018e-004,-6.132245e-005
2.143507e-004,5.649903e-005
1.910132e-004,1.096565e-004
1.662173e-004,1.154908e-004
1.359110e-004,9.134307e-005
1.017153e-004,3.073064e-005
7.837785e-005,-9.341139e-005
7.902610e-005,-2.985860e-004
1.080358e-004,-5.674524e-004
1.608691e-004,-8.444219e-004
2.229401e-004,-1.057052e-003
2.798251e-004,-1.151860e-003
3.208276e-004,-1.111830e-003
3.358997e-004,-9.555987e-004
3.146691e-004,-7.220627e-004
2.466016e-004,-4.596789e-004
1.334801e-004,-2.133397e-004
-9.137427e-006,-6.382316e-006
-1.494860e-004,1.584381e-004
-2.499665e-004,2.947351e-004
-2.786520e-004,4.177427e-004
-2.204706e-004,5.383193e-004
-8.320127e-005,6.564650e-004
9.896014e-005,7.736383e-004
2.798251e-004,8.825463e-004
4.286011e-004,9.583930e-004
5.378331e-004,9.794615e-004
6.078454e-004,9.410520e-004
6.337758e-004,8.457575e-004
6.131936e-004,6.981159e-004
5.537155e-004,5.018546e-004
4.709001e-004,2.694529e-004
3.801435e-004,2.489629e-005
2.924662e-004,-2.133397e-004
2.145127e-004,-4.303451e-004
1.470936e-004,-6.183409e-004
8.307774e-005,-7.656582e-004
8.851824e-006,-8.606284e-004
-8.465986e-005,-8.992000e-004
-2.010227e-004,-8.919070e-004
-3.342404e-004,-8.541459e-004
-4.609755e-004,-7.956403e-004
-5.458976e-004,-7.254660e-004
-5.556216e-004,-6.535090e-004
-4.745890e-004,-5.856036e-004
-3.167374e-004,-5.212637e-004
-1.208004e-004,-4.517377e-004
6.816773e-005,-3.700568e-004
2.154851e-004,-2.733039e-004
3.051073e-004,-1.663408e-004
3.367100e-004,-6.002593e-005
3.140208e-004,2.133085e-005
2.428742e-004,5.260946e-005
1.347766e-004,3.154097e-005
-3.858999e-007,-2.161646e-005
-1.567789e-004,-7.882551e-005
-3.308370e-004,-1.211245e-004
-5.089468e-004,-1.428413e-004
-6.745775e-004,-1.512687e-004
-8.170329e-004,-1.546721e-004
-9.350164e-004,-1.590478e-004
-1.038414e-003,-1.681235e-004
-1.142298e-003,-1.802784e-004
-1.245371e-003,-1.908126e-004
-1.311656e-003,-1.930815e-004
-1.286374e-003,-1.807646e-004
-1.128360e-003,-1.520790e-004
-8.361566e-004,-1.151281e-004
-4.575721e-004,-8.239095e-005
-6.099833e-005,-6.602235e-005
2.872800e-004,-7.234290e-005
5.383193e-004,-9.697682e-005
6.776956e-004,-1.279313e-004
7.152948e-004,-1.525652e-004
6.780197e-004,-1.629374e-004
5.958526e-004,-1.605064e-004
4.981271e-004,-1.545100e-004
4.041292e-004,-1.556445e-004
3.248792e-004,-1.690959e-004
2.657254e-004,-1.859507e-004
2.284503e-004,-1.935677e-004
2.109473e-004,-1.784957e-004
2.081922e-004,-1.397621e-004
2.117576e-004,-8.644258e-005
2.135403e-004,-3.847125e-005
2.135403e-004,-1.497178e-005
2.130541e-004,-1.886135e-005
2.088404e-004,-4.511592e-005
1.936063e-004,-8.433573e-005
1.691344e-004,-1.274451e-004
1.394765e-004,-1.707165e-004
1.112771e-004,-2.052364e-004
9.636710e-005,-2.191741e-004
1.033359e-004,-2.104225e-004
1.342904e-004,-1.865989e-004
1.887443e-004,-1.587237e-004
2.605393e-004,-1.378173e-004
3.292550e-004,-1.297140e-004
3.791711e-004,-1.331174e-004
4.086670e-004,-1.389517e-004
4.151496e-004,-1.378173e-004
3.934329e-004,-1.361966e-004
3.375203e-004,-1.592099e-004
2.478982e-004,-2.248463e-004
1.417454e-004,-3.151167e-004
4.450619e-005,-3.718396e-004
-1.918548e-005,-3.371576e-004
-3.685059e-005,-1.961608e-004
-1.205460e-005,2.035846e-005
4.094075e-005,2.634565e-004
1.026876e-004,4.799758e-004
1.592484e-004,6.208106e-004
2.021958e-004,6.550064e-004
2.281262e-004,5.866148e-004
2.381743e-004,4.530729e-004
2.334744e-004,3.130485e-004
2.111093e-004,2.360674e-004
1.692965e-004,2.953833e-004
1.122495e-004,5.425331e-004
5.277152e-005,9.833510e-004
1.558884e-006,1.571811e-003
-3.928157e-005,2.211809e-003
-7.590833e-005,2.759431e-003
-1.186936e-004,3.076108e-003
-1.703924e-004,3.091667e-003
-2.216050e-004,2.805295e-003
-2.523974e-004,2.236929e-003
-2.506147e-004,1.421739e-003
-2.165810e-004,4.331389e-004
-1.561307e-004,-5.839830e-004
-8.125648e-005,-1.461891e-003
-1.254080e-005,-2.116959e-003
4.029249e-005,-2.501703e-003
8.080882e-005,-2.587597e-003
1.138701e-004,-2.376588e-003
1.325077e-004,-1.911298e-003
1.237561e-004,-1.285726e-003
8.583285e-005,-6.204477e-004
2.878586e-005,-2.923352e-005
-2.955766e-005,3.869503e-004
-7.477388e-005,5.548500e-004
-1.007043e-004,4.370285e-004
-1.114006e-004,4.110282e-005
-1.186936e-004,-5.527044e-004
-1.258244e-004,-1.185569e-003
-1.331174e-004,-1.697210e-003
-1.313347e-004,-1.986658e-003
-1.133454e-004,-2.035116e-003
-7.769105e-005,-1.885043e-003
-3.150244e-005,-1.592677e-003
1.128280e-005,-1.204855e-003
3.591673e-005,-7.569067e-004
3.996836e-005,-2.758969e-004
2.667901e-005,2.085163e-004
6.907039e-006,6.634339e-004
-4.761663e-006,1.066329e-003
-2.654814e-006,1.401156e-003
1.047248e-005,1.665809e-003
2.700314e-005,1.860613e-003
3.834771e-005,1.987348e-003
3.348575e-005,2.015871e-003
9.824214e-006,1.882977e-003
-2.777494e-005,1.531133e-003
-7.039811e-005,9.663342e-004
-1.096179e-004,3.010556e-004
-1.392759e-004,-2.767072e-004
-1.535376e-004,-6.026205e-004
-1.485136e-004,-6.163961e-004
-1.219349e-004,-3.512573e-004
-8.206682e-005,7.513654e-005
-4.041603e-005,4.956961e-004
-6.058186e-006,7.528939e-004
1.727922e-005,7.506250e-004
2.829966e-005,4.906721e-004
2.408596e-005,8.664317e-005
4.244267e-007,-2.890242e-004
-4.932962e-005,-4.805854e-004
-1.263107e-004,-4.303451e-004
-2.164190e-004,-2.006986e-004
-2.908069e-004,8.534666e-005
-3.172235e-004,3.044590e-004
-2.820554e-004,3.705817e-004
-1.909747e-004,2.534084e-004
-6.748093e-005,-2.080613e-005
5.844381e-005,-3.630880e-004
1.642725e-004,-6.651777e-004
2.406053e-004,-8.533355e-004
2.887386e-004,-8.998482e-004
3.119140e-004,-8.100641e-004
3.088348e-004,-6.120203e-004
2.756114e-004,-3.441264e-004
2.151610e-004,-4.171255e-005
1.404489e-004,2.702632e-004
6.751947e-005,5.736496e-004
1.112074e-005,8.501332e-004
-2.842320e-005,1.069084e-003
-6.504996e-005,1.195171e-003
-1.188556e-004,1.210891e-003
-2.031296e-004,1.112193e-003
-3.016653e-004,9.107458e-004
-3.890185e-004,6.305345e-004
-4.437965e-004,3.046211e-004
-4.528722e-004,-2.712668e-005
-4.141386e-004,-3.143064e-004
-3.350507e-004,-5.016539e-004
-2.332737e-004,-5.546492e-004
-1.266348e-004,-4.812336e-004
-2.858526e-005,-3.241924e-004
5.423011e-005,-1.396000e-004
1.213252e-004,2.797553e-005
1.684862e-004,1.543865e-004
1.921477e-004,2.350950e-004
1.989545e-004,2.748010e-004
1.966855e-004,2.848491e-004
1.897167e-004,2.699391e-004
1.808031e-004,2.310434e-004
1.741585e-004,1.793446e-004
1.696206e-004,1.360731e-004
1.597346e-004,1.299146e-004
1.453108e-004,1.871237e-004
1.308870e-004,3.072141e-004
1.203528e-004,4.589073e-004
1.211631e-004,5.893700e-004
1.419075e-004,6.559788e-004
1.864754e-004,6.430136e-004
2.443327e-004,5.554982e-004
2.957075e-004,3.960259e-004
3.226103e-004,1.717275e-004
3.148312e-004,-8.255302e-005
2.675081e-004,-3.170615e-004
1.905270e-004,-5.037607e-004
1.044704e-004,-6.411921e-004
3.397195e-005,-7.549619e-004
-8.720958e-007,-8.779694e-004
9.824214e-006,-9.990322e-004
6.103685e-005,-1.045221e-003
1.302387e-004,-9.338820e-004
1.910132e-004,-6.225546e-004
2.252090e-004,-1.378173e-004
2.297469e-004,4.068843e-004
2.117576e-004,8.574261e-004
1.855030e-004,1.077673e-003
1.564933e-004,9.827028e-004
1.292664e-004,5.725151e-004
1.078737e-004,-7.574627e-005
9.701536e-005,-8.160605e-004
1.009049e-004,-1.471939e-003
1.193804e-004,-1.903519e-003
1.492004e-004,-2.054240e-003
1.832341e-004,-1.958297e-003
2.080301e-004,-1.709202e-003
2.104611e-004,-1.413271e-003
1.845306e-004,-1.146674e-003
1.305629e-004,-9.429576e-004
5.406805e-005,-7.927230e-004
-3.685059e-005,-6.599916e-004
-1.334415e-004,-5.021400e-004
-2.152845e-004,-2.945344e-004
-2.595283e-004,-4.608832e-005
-2.562870e-004,1.989545e-004
-2.147983e-004,3.799814e-004
-1.614788e-004,4.632831e-004
-1.143178e-004,4.653899e-004
-7.590833e-005,4.438352e-004
-4.462973e-005,4.606900e-004
-1.837515e-005,5.328091e-004
3.017472e-006,6.310208e-004
2.035846e-005,7.230739e-004
2.959618e-005,7.974620e-004
2.943412e-005,8.360335e-004
2.684107e-005,7.989205e-004
1.938607e-005,6.488480e-004
-2.238345e-007,3.910019e-004
-3.555407e-005,7.254349e-005
-7.914964e-005,-2.329496e-004
-1.178833e-004,-4.655133e-004
-1.413827e-004,-6.069963e-004
-1.528894e-004,-6.625847e-004
-1.658546e-004,-6.249855e-004
-1.869231e-004,-4.742648e-004
-2.079916e-004,-1.981056e-004
-2.151224e-004,1.919856e-004
-1.982676e-004,6.467411e-004
-1.618029e-004,1.076539e-003
-1.267968e-004,1.384463e-003
-1.169109e-004,1.519302e-003
-1.428413e-004,1.510874e-003
-1.935677e-004,1.432597e-003
-2.365150e-004,1.346540e-003
-2.326255e-004,1.285117e-003
-1.682856e-004,1.279121e-003
-5.791909e-005,1.356264e-003
6.071273e-005,1.496289e-003
1.422316e-004,1.609086e-003
1.582760e-004,1.570677e-003
1.111150e-004,1.279607e-003
2.635488e-005,7.366874e-004
-6.197072e-005,7.108490e-005
-1.256624e-004,-5.097571e-004
-1.472171e-004,-8.343739e-004
-1.263107e-004,-8.415048e-004
-7.655659e-005,-5.904656e-004
-2.113026e-005,-2.243601e-004
1.306552e-005,8.793970e-005
1.063454e-005,2.180782e-004
-2.664048e-005,1.120874e-004
-8.271508e-005,-2.050744e-004
-1.413827e-004,-6.492953e-004
-1.849783e-004,-1.116043e-003
-2.053985e-004,-1.510348e-003
-1.997262e-004,-1.754095e-003
-1.681235e-004,-1.805793e-003
-1.190177e-004,-1.678734e-003
-6.132245e-005,-1.430774e-003
-6.382316e-006,-1.135329e-003
3.624086e-005,-8.528493e-004
6.816773e-005,-6.142893e-004
9.733949e-005,-4.301830e-004
1.263492e-004,-2.968033e-004
1.513072e-004,-2.060468e-004
1.680000e-004,-1.515928e-004
1.691344e-004,-1.259865e-004
1.521176e-004,-1.227452e-004
1.237561e-004,-1.361966e-004
9.685329e-005,-1.618029e-004
8.972242e-005,-1.896782e-004
1.171115e-004,-1.961608e-004
1.756170e-004,-1.418689e-004
2.469258e-004,4.313994e-006
3.099692e-004,2.278021e-004
3.522683e-004,4.710622e-004
3.673404e-004,6.642442e-004
3.524303e-004,7.503009e-004
3.107795e-004,6.927677e-004
2.527601e-004,4.859722e-004
1.902029e-004,1.699447e-004
1.349386e-004,-1.765509e-004
9.717742e-005,-4.663236e-004
8.567078e-005,-6.411921e-004
1.007429e-004,-6.854359e-004
1.313732e-004,-6.254717e-004
1.610312e-004,-4.997090e-004
1.765894e-004,-3.522297e-004
1.782101e-004,-2.118811e-004
1.756170e-004,-9.017008e-005
1.791825e-004,1.582063e-005
1.966855e-004,1.093323e-004
2.271538e-004,1.895547e-004
2.602152e-004,2.511395e-004
2.799871e-004,2.864697e-004
2.786906e-004,2.995970e-004
2.572980e-004,3.013797e-004
2.190506e-004,3.047831e-004
1.697827e-004,3.146691e-004
1.060910e-004,3.302274e-004
2.149292e-005,3.488649e-004
-8.158062e-005,3.647473e-004
-1.838438e-004,3.715541e-004
-2.590421e-004,3.529165e-004
-2.857829e-004,2.684805e-004
-2.617972e-004,8.939829e-005
-1.942160e-004,-1.618029e-004
-1.000561e-004,-4.070077e-004
3.989864e-006,-5.583767e-004
1.026876e-004,-5.585387e-004
1.761032e-004,-4.068456e-004
2.128921e-004,-1.473791e-004
2.167816e-004,1.626518e-004
2.000889e-004,4.676588e-004
1.705930e-004,7.269635e-004
1.286181e-004,9.233868e-004
6.946425e-005,1.053363e-003
4.244267e-007,1.126617e-003
-6.391550e-005,1.162434e-003
-1.039456e-004,1.177181e-003
-1.049180e-004,1.177344e-003
-7.282909e-005,1.157896e-003
-2.113026e-005,1.107331e-003
3.575467e-005,1.019816e-003
7.886404e-005,8.890289e-004
8.777764e-005,7.107570e-004
5.196120e-005,4.921307e-004
-1.691656e-005,2.564876e-004
-9.713889e-005,5.990240e-005
-1.629374e-004,-3.960571e-005
-2.006986e-004,-1.950961e-005
-2.071812e-004,1.012291e-004
-1.870851e-004,2.726942e-004
-1.483515e-004,4.378388e-004
-1.003802e-004,5.563085e-004
-5.305713e-005,6.118970e-004
-1.367526e-005,6.021731e-004
1.112074e-005,5.096338e-004
2.570661e-005,3.017039e-004
3.137890e-005,-3.863331e-005
3.154097e-005,-4.925782e-004
2.538249e-005,-1.006487e-003
1.144487e-005,-1.510834e-003
-1.432352e-005,-1.920374e-003
-5.013995e-005,-2.141755e-003
-8.676671e-005,-2.089408e-003
-1.190177e-004,-1.710985e-003
-1.415448e-004,-1.015077e-003
-1.520790e-004,-6.748093e-005
-1.467309e-004,1.011550e-003
-1.297140e-004,2.086532e-003
-1.092938e-004,2.991510e-003
-9.438377e-005,3.489865e-003
-9.211487e-005,3.361346e-003
-1.021629e-004,2.524921e-003
-1.225831e-004,1.124186e-003
-1.515928e-004,-5.232086e-004
-1.814128e-004,-1.979528e-003
-2.071812e-004,-2.981903e-003
-2.290600e-004,-3.422560e-003
-2.514251e-004,-3.337475e-003
-2.750866e-004,-2.869754e-003
-2.966413e-004,-2.202205e-003
-3.107410e-004,-1.495276e-003
-3.134960e-004,-8.614387e-004
-2.995584e-004,-3.527158e-004
-2.600145e-004,5.779555e-005
-1.840059e-004,4.328148e-004
-7.201877e-005,8.029722e-004
6.217131e-005,1.143310e-003
2.026820e-004,1.381060e-003
3.354135e-004,1.430328e-003
4.495075e-004,1.223370e-003
5.350781e-004,7.590525e-004
5.875872e-004,1.174356e-004
6.075212e-004,-5.449253e-004
5.880735e-004,-1.078444e-003
5.193577e-004,-1.421374e-003
4.038051e-004,-1.592353e-003
2.595669e-004,-1.645187e-003
1.043083e-004,-1.615042e-003
-5.500191e-005,-1.522179e-003
-2.241981e-004,-1.379237e-003
-4.040906e-004,-1.192052e-003
-5.736108e-004,-9.737500e-004
-7.029389e-004,-7.596618e-004
-7.692236e-004,-5.912759e-004
-7.582032e-004,-4.820439e-004
-6.718223e-004,-4.154351e-004
-5.282326e-004,-3.504469e-004
-3.621157e-004,-2.423494e-004
-2.050744e-004,-7.250496e-005
-8.093235e-005,1.406109e-004
3.017472e-006,3.535648e-004
5.196120e-005,5.250300e-004
7.578480e-005,6.284277e-004
8.421220e-005,6.490100e-004
8.599491e-005,5.830494e-004
9.263960e-005,4.428628e-004
1.135460e-004,2.728562e-004
1.537382e-004,1.299146e-004
2.052750e-004,5.714729e-005
2.587565e-004,6.233338e-005
3.077003e-004,1.163011e-004
3.472442e-004,1.684862e-004
3.670162e-004,1.641104e-004
3.629646e-004,9.199134e-005
3.409237e-004,-1.075808e-005
3.104554e-004,-8.692878e-005
2.793389e-004,-9.600443e-005
2.513016e-004,-3.377135e-005
2.297469e-004,8.469840e-005
2.162954e-004,2.367157e-004
2.138645e-004,3.997534e-004
2.222919e-004,5.567948e-004
2.305572e-004,7.013571e-004
2.256952e-004,8.417058e-004
2.026820e-004,9.827028e-004
1.678379e-004,1.126131e-003
1.307249e-004,1.266642e-003
1.005808e-004,1.388029e-003
8.453633e-005,1.477489e-003
8.226741e-005,1.539722e-003
8.777764e-005,1.579752e-003
9.701536e-005,1.574890e-003
1.073875e-004,1.489320e-003
1.132219e-004,1.322230e-003
1.044704e-004,1.101983e-003
8.145709e-005,8.549952e-004
5.293359e-005,6.039558e-004
2.943412e-005,3.984569e-004
1.387585e-005,3.062417e-004
6.744974e-006,3.764160e-004
1.072688e-006,5.950422e-004
-9.461557e-006,8.765499e-004
-3.004385e-005,1.106845e-003
-5.808115e-005,1.192254e-003
-8.563225e-005,1.093718e-003
-1.028112e-004,8.237166e-004
-1.031353e-004,4.170944e-004
-8.547019e-005,-7.817725e-005
-5.127441e-005,-5.843071e-004
-9.137427e-006,-1.011511e-003
2.765140e-005,-1.298367e-003
5.196120e-005,-1.423643e-003
6.314371e-005,-1.406140e-003
6.508849e-005,-1.292532e-003
6.557468e-005,-1.130629e-003
6.703327e-005,-9.598124e-004
7.351588e-005,-8.005023e-004
9.004655e-005,-6.539952e-004
1.182459e-004,-5.149432e-004
1.521176e-004,-3.818876e-004
1.879340e-004,-2.587180e-004
2.235884e-004,-1.468929e-004
2.581083e-004,-3.134038e-005
2.817698e-004,1.018773e-004
2.900352e-004,2.474120e-004
2.842008e-004,3.966742e-004
2.705873e-004,5.363746e-004
2.527601e-004,6.383137e-004
2.240746e-004,6.473893e-004
1.765894e-004,5.044476e-004
1.143563e-004,1.822617e-004
5.682316e-005,-2.805968e-004
2.278944e-005,-7.723029e-004
1.857574e-005,-1.169201e-003
3.640293e-005,-1.385396e-003
6.119892e-005,-1.393337e-003
8.226741e-005,-1.225437e-003
9.458438e-005,-9.559228e-004
1.010670e-004,-6.729568e-004
1.041462e-004,-4.421759e-004
1.085220e-004,-2.859450e-004
1.133840e-004,-1.935677e-004
1.153287e-004,-1.387897e-004
1.067393e-004,-9.454584e-005
8.615698e-005,-4.851930e-005
6.249544e-005,9.106226e-007
4.337174e-005,4.693717e-005
2.829966e-005,8.291567e-005
1.630683e-005,1.093323e-004
6.907039e-006,1.352628e-004
-1.358292e-006,1.631380e-004
-1.578211e-005,1.902029e-004
-4.576419e-005,2.026820e-004
-9.843541e-005,1.686482e-004
-1.690959e-004,5.017848e-005
-2.421873e-004,-1.477033e-004
-2.985860e-004,-3.664914e-004
-3.316474e-004,-5.261257e-004
-3.454229e-004,-5.630766e-004
-3.543365e-004,-4.475240e-004
-3.690844e-004,-1.985918e-004
-3.959873e-004,1.148425e-004
-4.340726e-004,3.984569e-004
-4.784785e-004,5.780254e-004
-5.173741e-004,6.318311e-004
-5.345531e-004,5.605223e-004
-5.167259e-004,3.796573e-004
-4.637306e-004,1.459591e-004
-3.951770e-004,-5.840528e-005
-3.403989e-004,-1.600202e-004
-3.162512e-004,-1.183694e-004
-3.177098e-004,7.627100e-005
-3.237062e-004,4.162841e-004
-3.104168e-004,8.882186e-004
-2.690902e-004,1.456421e-003
-2.083157e-004,2.060764e-003
-1.470550e-004,2.618919e-003
-1.057284e-004,3.034457e-003
-8.822530e-005,3.182100e-003
-7.947377e-005,2.927818e-003
-6.035006e-005,2.186851e-003
-2.258885e-005,1.008471e-003
2.975825e-005,-3.942045e-004
8.388807e-005,-1.674358e-003
1.282940e-004,-2.595053e-003
1.595726e-004,-3.050619e-003
1.801549e-004,-3.041705e-003
1.929580e-004,-2.666848e-003
2.073818e-004,-2.081143e-003
2.256952e-004,-1.438067e-003
2.389846e-004,-8.428013e-004
2.383363e-004,-3.322956e-004
2.208333e-004,8.259154e-005
1.867996e-004,3.702575e-004
1.414213e-004,4.621486e-004
1.012291e-004,2.889007e-004
7.837785e-005,-1.519170e-004
7.546067e-005,-7.646858e-004
8.696730e-005,-1.403871e-003
1.023635e-004,-1.913243e-003
1.137081e-004,-2.155693e-003
1.148425e-004,-2.041923e-003
1.044704e-004,-1.575661e-003
8.939829e-005,-8.661386e-004
7.870197e-005,-7.380149e-005
7.935023e-005,6.378275e-004
9.523264e-005,1.147361e-003
1.206769e-004,1.388191e-003
1.385041e-004,1.334547e-003
1.402868e-004,1.010902e-003
1.242423e-004,5.080131e-004
1.000946e-004,-3.247483e-005
7.853991e-005,-4.638926e-004
6.962632e-005,-6.878669e-004
7.627100e-005,-6.933770e-004
1.039842e-004,-5.431426e-004
1.542244e-004,-3.387782e-004
2.171058e-004,-1.739578e-004
2.752873e-004,-9.260106e-005
3.143450e-004,-8.935975e-005
3.287688e-004,-1.399241e-004
3.239068e-004,-2.204706e-004
3.106175e-004,-3.092824e-004
2.991108e-004,-3.943666e-004
2.911697e-004,-4.677822e-004
2.795009e-004,-5.095950e-004
2.556773e-004,-4.883645e-004
2.175920e-004,-3.716775e-004
1.723757e-004,-1.470550e-004
1.282940e-004,1.720516e-004
9.701536e-005,5.386435e-004
8.323980e-005,8.656915e-004
8.453633e-005,1.055146e-003
1.005808e-004,1.049474e-003
1.265113e-004,8.592089e-004
1.551968e-004,5.527431e-004
1.744826e-004,2.247228e-004
1.765894e-004,-3.749886e-005
1.594105e-004,-1.823852e-004
1.294284e-004,-2.024813e-004
9.814982e-005,-1.250141e-004
7.043664e-005,5.448451e-006
4.013043e-005,1.393144e-004
1.558884e-006,2.363915e-004
-4.365734e-005,2.842008e-004
-8.514606e-005,2.932765e-004
-1.149661e-004,2.837146e-004
-1.353863e-004,2.733424e-004
-1.553203e-004,2.731804e-004
-1.853024e-004,3.062417e-004
-2.373254e-004,3.918122e-004
-3.160891e-004,5.345918e-004
-4.201350e-004,7.167534e-004
-5.283947e-004,8.972943e-004
-6.035930e-004,1.015602e-003
-6.139651e-004,1.015278e-003
-5.465459e-004,8.720121e-004
-4.131662e-004,6.178935e-004
-2.532078e-004,3.295791e-004
-1.084835e-004,9.263960e-005
-1.189254e-005,-2.583015e-005
2.473422e-005,-1.196226e-006
5.610517e-006,1.590864e-004
-5.710876e-005,4.148255e-004
-1.473791e-004,7.136741e-004
-2.415391e-004,1.019168e-003
-3.052307e-004,1.310237e-003
-3.117133e-004,1.555767e-003
-2.574215e-004,1.698222e-003
-1.650442e-004,1.688823e-003
-6.521203e-005,1.515250e-003
2.019640e-005,1.194036e-003
8.210535e-005,7.611593e-004
1.226217e-004,2.791768e-004
1.504969e-004,-1.624512e-004
1.746447e-004,-4.723200e-004
1.983062e-004,-6.069963e-004
2.203471e-004,-5.917621e-004
2.441707e-004,-4.911196e-004
2.689667e-004,-3.687603e-004
2.890628e-004,-2.668213e-004
2.974902e-004,-1.984297e-004
2.923041e-004,-1.648822e-004
2.767458e-004,-1.666649e-004
2.511395e-004,-1.992400e-004
2.154851e-004,-2.551526e-004
1.788584e-004,-3.193304e-004
1.548727e-004,-3.762153e-004
1.513072e-004,-4.123559e-004
1.641104e-004,-4.261314e-004
1.808031e-004,-4.271038e-004
1.864754e-004,-4.254832e-004
1.691344e-004,-4.215936e-004
1.300767e-004,-4.087905e-004
8.550872e-005,-3.809152e-004
5.341978e-005,-3.347266e-004
4.175108e-005,-2.733039e-004
4.531652e-005,-2.078295e-004
5.487837e-005,-1.603444e-004
5.601283e-005,-1.507825e-004
4.466826e-005,-1.882196e-004
1.695509e-005,-2.689281e-004
-2.826113e-005,-3.684362e-004
-9.162867e-005,-4.574100e-004
-1.618029e-004,-5.082985e-004
-2.180396e-004,-5.021400e-004
-2.433218e-004,-4.410414e-004
-2.308428e-004,-3.381300e-004
-1.849783e-004,-2.102605e-004
-1.183694e-004,-5.678463e-005
-4.900549e-005,1.333180e-004
4.962256e-006,3.709058e-004
3.753739e-005,6.575995e-004
5.066468e-005,9.838373e-004
4.790957e-005,1.341678e-003
3.364782e-005,1.708109e-003
1.760335e-005,2.007120e-003
8.689757e-006,2.123970e-003
1.322759e-005,1.956231e-003
3.218923e-005,1.460472e-003
6.411610e-005,6.937401e-004
1.060910e-004,-1.943781e-004
1.498487e-004,-1.009729e-003
1.840444e-004,-1.616663e-003
2.007372e-004,-1.959107e-003
1.973338e-004,-2.045650e-003
1.825858e-004,-1.929449e-003
1.642725e-004,-1.685703e-003
1.483901e-004,-1.383127e-003
1.385041e-004,-1.073582e-003
1.331559e-004,-8.008264e-004
1.263492e-004,-5.890070e-004
1.148425e-004,-4.397449e-004
9.896014e-005,-3.369955e-004
8.178122e-005,-2.600145e-004
6.152305e-005,-1.963229e-004
3.769945e-005,-1.480274e-004
9.986280e-006,-1.245279e-004
-1.399939e-005,-1.326312e-004
-2.955766e-005,-1.690959e-004
-3.279896e-005,-2.219292e-004
-2.177852e-005,-2.780037e-004
2.369210e-006,-3.224097e-004
3.316162e-005,-3.454229e-004
5.682316e-005,-3.418575e-004
6.687120e-005,-3.134960e-004
6.362990e-005,-2.669833e-004
5.585077e-005,-2.065330e-004
4.920609e-005,-1.337657e-004
3.721326e-005,-5.176060e-005
5.772582e-006,3.688912e-005
-5.467778e-005,1.222975e-004
-1.426792e-004,1.934442e-004
-2.397564e-004,2.487085e-004
-3.136581e-004,2.976522e-004
-3.350507e-004,3.415720e-004
-2.950206e-004,3.619922e-004
-2.063709e-004,3.328204e-004
-9.908367e-005,2.355812e-004
-3.141010e-006,7.918817e-005
6.184718e-005,-1.028112e-004
8.712937e-005,-2.694143e-004
7.546067e-005,-3.810773e-004
3.607880e-005,-4.100870e-004
-1.610623e-005,-3.506090e-004
-5.986387e-005,-2.272773e-004
-7.720485e-005,-7.655659e-005
-6.407756e-005,6.362990e-005
-3.085418e-005,1.803169e-004
7.069104e-006,2.819319e-004
4.207521e-005,3.867882e-004
6.881599e-005,5.308643e-004
8.210535e-005,7.579180e-004
8.486046e-005,1.077349e-003
8.453633e-005,1.436810e-003
8.469840e-005,1.725774e-003
8.161915e-005,1.827713e-003
7.497447e-005,1.667592e-003
6.184718e-005,1.243628e-003
4.158902e-005,6.363689e-004
2.068259e-005,-2.372330e-005
5.934647e-006,-6.073205e-004
-3.141010e-006,-1.049272e-003
-1.270286e-005,-1.351686e-003
-2.631635e-005,-1.524448e-003
-4.608832e-005,-1.571285e-003
-7.396355e-005,-1.516831e-003
-1.128592e-004,-1.425750e-003
-1.590478e-004,-1.364489e-003
-2.021572e-004,-1.342611e-003
-2.292221e-004,-1.304363e-003
-2.279256e-004,-1.176494e-003
-1.838438e-004,-9.324233e-004
-1.028112e-004,-6.102376e-004
-5.085794e-006,-2.780037e-004
8.453633e-005,1.257933e-005
1.469315e-004,2.378501e-004
1.749688e-004,4.000776e-004
1.712413e-004,5.143337e-004
1.464453e-004,6.024972e-004
1.182459e-004,6.772094e-004
9.588090e-005,7.433321e-004
8.486046e-005,8.086445e-004
8.810177e-005,8.841670e-004
1.043083e-004,9.750857e-004
1.265113e-004,1.062277e-003
1.461212e-004,1.111545e-003
1.551968e-004,1.090638e-003
1.488763e-004,9.882130e-004
1.273216e-004,8.284165e-004
8.777764e-005,6.676475e-004
2.765140e-005,5.650601e-004
-5.321919e-005,5.480432e-004
-1.426792e-004,5.914768e-004
-2.133397e-004,6.355586e-004
-2.389460e-004,6.125453e-004
-2.083157e-004,4.801379e-004
-1.316588e-004,2.443327e-004
-2.469570e-005,-2.955766e-005
1.028497e-004,-2.519113e-004
2.331502e-004,-3.635742e-004
3.401134e-004,-3.614674e-004
4.034809e-004,-2.893483e-004
4.119083e-004,-2.084778e-004
3.670162e-004,-1.671511e-004
2.814457e-004,-1.851403e-004
1.793446e-004,-2.468872e-004
9.020861e-005,-2.969654e-004
3.753739e-005,-2.857829e-004
2.700314e-005,-2.110708e-004
4.839576e-005,-1.152902e-004
8.016056e-005,-4.754691e-005
1.043083e-004,-3.685059e-005
1.140322e-004,-8.222889e-005
1.116012e-004,-1.538618e-004
1.047945e-004,-2.113949e-004
9.896014e-005,-2.233878e-004
8.875003e-005,-1.882196e-004
6.670914e-005,-1.292278e-004
2.716520e-005,-7.315322e-005
-2.971972e-005,-2.048200e-005
-9.956987e-005,5.244739e-005
-1.797922e-004,1.749688e-004
-2.690902e-004,3.650714e-004
-3.557951e-004,6.135177e-004
-4.172178e-004,8.634226e-004
-4.290486e-004,1.033105e-003
-3.838324e-004,1.058387e-003
-2.940482e-004,9.060458e-004
-1.804405e-004,5.997421e-004
-6.423963e-005,2.094887e-004
3.656499e-005,-1.817370e-004
1.078737e-004,-5.073261e-004
1.529279e-004,-7.398898e-004
1.772377e-004,-8.722972e-004
1.850168e-004,-9.108687e-004
1.730240e-004,-8.705144e-004
1.370455e-004,-7.774889e-004
7.853991e-005,-6.591813e-004
7.555300e-006,-5.405495e-004
-6.310517e-005,-4.358554e-004
-1.233935e-004,-3.528779e-004
-1.668270e-004,-2.875656e-004
-1.874093e-004,-2.344082e-004
-1.796301e-004,-1.841679e-004
-1.494860e-004,-1.070249e-004
-1.065387e-004,3.364782e-005
-6.261898e-005,2.525981e-004
-2.258885e-005,5.379952e-004
1.679302e-005,8.619640e-004
6.006446e-005,1.175075e-003
1.075496e-004,1.402939e-003
1.509831e-004,1.472141e-003
1.762653e-004,1.354157e-003
1.715654e-004,1.076701e-003
1.359110e-004,6.866092e-004
8.275361e-005,2.308813e-004
3.105477e-005,-2.229016e-004
-5.247859e-006,-5.930586e-004
-1.853721e-005,-8.227052e-004
-5.247859e-006,-8.998482e-004
3.073064e-005,-8.465288e-004
7.546067e-005,-7.026148e-004
1.164632e-004,-5.214258e-004
1.419075e-004,-3.468815e-004
1.417454e-004,-2.086398e-004
1.135460e-004,-1.156143e-004
6.768153e-005,-6.213279e-005
1.971020e-005,-3.425755e-005
-2.096819e-005,-1.545797e-005
-4.754691e-005,5.286386e-006
-5.629843e-005,2.943412e-005
-4.981582e-005,4.726130e-005
-4.090223e-005,4.823369e-005
-4.041603e-005,3.089270e-005
-5.257093e-005,3.179537e-006
-7.477388e-005,-2.210265e-005
-9.908367e-005,-3.377135e-005
-1.149661e-004,-1.950961e-005
-1.102662e-004,2.765140e-005
-8.093235e-005,1.049566e-004
-3.134038e-005,1.971717e-004
2.457216e-005,2.861456e-004
7.400208e-005,3.524303e-004
1.077117e-004,3.833848e-004
1.242423e-004,3.756057e-004
1.276457e-004,3.201793e-004
1.221355e-004,2.062474e-004
1.098185e-004,5.050261e-005
9.361198e-005,-1.032974e-004
7.610893e-005,-2.188499e-004
6.087479e-005,-2.937241e-004
5.747142e-005,-3.533641e-004
7.189524e-005,-4.295348e-004
9.588090e-005,-5.481666e-004
1.132219e-004,-7.112043e-004
9.733949e-005,-8.820211e-004
3.202716e-005,-9.943324e-004
-7.850138e-005,-9.909290e-004
-2.031296e-004,-8.395599e-004
-3.021515e-004,-5.308256e-004
-3.476918e-004,-9.000801e-005
-3.319715e-004,4.344354e-004
-2.617972e-004,1.003123e-003
-1.562927e-004,1.590287e-003
-4.430560e-005,2.159462e-003
5.406805e-005,2.634154e-003
1.300767e-004,2.899294e-003
1.843686e-004,2.850350e-003
2.154851e-004,2.463174e-003
2.252090e-004,1.818313e-003
2.162954e-004,1.043639e-003
1.989545e-004,2.367157e-004
1.819376e-004,-5.593491e-004
1.722137e-004,-1.307118e-003
1.720516e-004,-1.932853e-003
1.769136e-004,-2.331534e-003
1.808031e-004,-2.445952e-003
1.749688e-004,-2.295717e-003
1.602208e-004,-1.966400e-003
1.381799e-004,-1.568854e-003
1.153287e-004,-1.200804e-003
9.782569e-005,-9.167030e-004
8.631904e-005,-7.220627e-004
8.275361e-005,-5.893311e-004
8.291567e-005,-4.658374e-004
8.534666e-005,-2.989102e-004
8.615698e-005,-8.579432e-005
8.486046e-005,1.342904e-004
8.226741e-005,3.159656e-004
7.627100e-005,4.337872e-004
6.784360e-005,4.721966e-004
5.828174e-005,4.187151e-004
4.466826e-005,2.720459e-004
2.376183e-005,5.358185e-005
-6.382316e-006,-1.904885e-004
-4.414354e-005,-4.018217e-004
-8.093235e-005,-5.335807e-004
-1.110765e-004,-5.705316e-004
-1.311726e-004,-5.300153e-004
-1.408965e-004,-4.407173e-004
-1.349001e-004,-3.198166e-004
-1.135075e-004,-1.742820e-004
-8.303921e-005,3.341602e-006
-4.868136e-005,2.279641e-004
-1.286493e-005,5.034753e-004
1.711715e-005,8.169098e-004
3.802358e-005,1.138934e-003
4.547859e-005,1.416714e-003
3.932010e-005,1.579428e-003
1.679302e-005,1.578942e-003
-1.902341e-005,1.415904e-003
-5.856734e-005,1.131155e-003
-8.547019e-005,7.674798e-004
-8.384953e-005,3.773884e-004
-4.916756e-005,3.445814e-005
3.827798e-006,-1.900023e-004
5.471631e-005,-2.750866e-004
8.550872e-005,-2.752486e-004
8.793970e-005,-2.840002e-004
6.508849e-005,-3.823738e-004
2.992031e-005,-6.027826e-004
-6.176923e-008,-9.254545e-004
-1.221667e-005,-1.284267e-003
-5.247859e-006,-1.592029e-003
1.760335e-005,-1.774191e-003
4.839576e-005,-1.796556e-003
7.983643e-005,-1.668200e-003
1.083599e-004,-1.423805e-003
1.255388e-004,-1.106644e-003
1.263492e-004,-7.557722e-004
1.106288e-004,-4.089525e-004
8.161915e-005,-1.047560e-004
4.158902e-005,1.325077e-004
-3.303075e-006,2.987867e-004
-4.479180e-005,3.999155e-004
-7.153257e-005,4.504799e-004
-8.433573e-005,4.785172e-004
-8.952182e-005,5.117406e-004
-9.211487e-005,5.678153e-004
-9.195280e-005,6.553305e-004
-8.498399e-005,7.653730e-004
-6.310517e-005,8.746051e-004
-2.988179e-005,9.549896e-004
7.069104e-006,9.882130e-004
3.850977e-005,9.742754e-004
5.341978e-005,9.238730e-004
4.726130e-005,8.493229e-004
2.570661e-005,7.611593e-004
2.855406e-006,6.707268e-004
-1.270286e-005,5.846700e-004
-1.788895e-005,5.081752e-004
-1.448558e-005,4.441593e-004
-6.220251e-006,3.885709e-004
-2.978945e-006,3.371962e-004
-1.351319e-005,2.889007e-004
-4.544005e-005,2.464396e-004
-9.503204e-005,2.114335e-004
-1.449481e-004,1.840444e-004
-1.757406e-004,1.623277e-004
-1.788198e-004,1.430419e-004
-1.567789e-004,1.245665e-004
-1.136696e-004,1.065772e-004
-5.710876e-005,9.150514e-005
-3.858999e-007,8.518459e-005
5.147500e-005,9.118101e-005
9.701536e-005,1.073875e-004
1.360731e-004,1.331559e-004
1.602208e-004,1.746447e-004
1.676758e-004,2.333123e-004
1.634621e-004,2.997591e-004
1.530900e-004,3.653956e-004
1.417454e-004,4.188771e-004
1.315353e-004,4.461041e-004
1.248906e-004,4.363802e-004
1.239182e-004,3.772264e-004
1.276457e-004,2.710735e-004
1.342904e-004,1.432040e-004
1.339663e-004,2.894792e-005
1.187321e-004,-5.192267e-005
9.247753e-005,-1.034594e-004
6.411610e-005,-1.415448e-004
4.029249e-005,-1.783336e-004
2.992031e-005,-2.125294e-004
3.688912e-005,-2.413770e-004
5.277152e-005,-2.652006e-004
7.335382e-005,-2.856208e-004
9.247753e-005,-3.066893e-004
9.960840e-005,-3.212752e-004
8.550872e-005,-3.240303e-004
5.001641e-005,-3.222476e-004
7.879431e-006,-3.284061e-004
-2.501983e-005,-3.478539e-004
-4.430560e-005,-3.757291e-004
-5.289506e-005,-3.956631e-004
-5.419158e-005,-3.904771e-004
-5.338126e-005,-3.805911e-004
-6.099833e-005,-4.175420e-004
-8.303921e-005,-5.305015e-004
-1.165867e-004,-7.005080e-004
-1.489998e-004,-8.651663e-004
-1.655304e-004,-9.565711e-004
-1.566169e-004,-9.366371e-004
-1.238797e-004,-8.111986e-004
-7.704279e-005,-6.142893e-004
-2.923352e-005,-3.886943e-004
2.623614e-007,-1.645580e-004
-3.858999e-007,4.839576e-005
-3.198863e-005,2.495188e-004
-8.530812e-005,4.439973e-004
-1.498101e-004,6.532237e-004
-2.117190e-004,9.021562e-004
-2.509389e-004,1.192254e-003
-2.533698e-004,1.502447e-003
-2.172293e-004,1.803565e-003
-1.520790e-004,2.046178e-003
-7.315322e-005,2.161407e-003
1.558884e-006,2.081508e-003
5.698522e-005,1.787521e-003
8.631904e-005,1.306510e-003
9.247753e-005,6.883919e-004
8.534666e-005,7.555300e-006
7.772959e-005,-6.196374e-004
8.291567e-005,-1.069044e-003
1.033359e-004,-1.274543e-003
1.321835e-004,-1.254609e-003
1.611932e-004,-1.089141e-003
1.803169e-004,-8.664628e-004
1.887443e-004,-6.617744e-004
1.939304e-004,-5.206154e-004
2.047888e-004,-4.562756e-004
2.256952e-004,-4.476861e-004
2.542187e-004,-4.551411e-004
2.848491e-004,-4.342347e-004
3.125622e-004,-3.655190e-004
3.284447e-004,-2.569353e-004
3.218000e-004,-1.352242e-004
2.903593e-004,-3.166451e-005
2.399570e-004,4.353380e-005
1.817755e-004,1.026876e-004
1.281319e-004,1.636242e-004
8.923622e-005,2.368777e-004
7.157111e-005,3.109416e-004
7.076077e-005,3.576164e-004
7.772959e-005,3.299032e-004
8.129502e-005,1.934442e-004
7.724339e-005,-2.210265e-005
7.319175e-005,-2.420253e-004
7.529860e-005,-4.011734e-004
8.712937e-005,-4.742648e-004
1.020394e-004,-4.822060e-004
1.103047e-004,-4.716718e-004
1.064151e-004,-4.911196e-004
8.923622e-005,-5.557836e-004
6.330577e-005,-6.418403e-004
3.850977e-005,-7.061802e-004
2.084466e-005,-7.086112e-004
1.711715e-005,-6.411921e-004
3.040651e-005,-5.429805e-004
5.601283e-005,-4.796130e-004
8.631904e-005,-5.031124e-004
1.166253e-004,-5.980827e-004
1.375317e-004,-6.604778e-004
1.323456e-004,-5.376323e-004
8.323980e-005,-1.185315e-004
-2.388537e-005,5.793219e-004
-1.906506e-004,1.388029e-003
-4.013354e-004,2.079563e-003
-6.199615e-004,2.470467e-003
-8.003402e-004,2.472250e-003
-8.983896e-004,2.089125e-003
-8.927173e-004,1.404397e-003
-7.911024e-004,5.584154e-004
-6.241752e-004,-2.828657e-004
-4.363416e-004,-9.698604e-004
-2.642282e-004,-1.425750e-003
-1.327932e-004,-1.633032e-003
-4.576419e-005,-1.631411e-003
6.907039e-006,-1.500786e-003
3.786152e-005,-1.321218e-003
5.828174e-005,-1.141650e-003
7.481241e-005,-9.876876e-004
8.793970e-005,-8.693800e-004
9.733949e-005,-7.865646e-004
1.086841e-004,-7.280590e-004
1.221355e-004,-6.732810e-004
1.297525e-004,-6.034308e-004
1.114392e-004,-5.078123e-004
5.374392e-005,-3.852910e-004
-3.863331e-005,-2.436459e-004
-1.373311e-004,-9.405964e-005
-2.065330e-004,5.666109e-005
-2.245222e-004,2.021958e-004
-1.885437e-004,3.422202e-004
-1.133454e-004,4.717104e-004
-1.967167e-005,5.854804e-004
7.286762e-005,6.728336e-004
1.514693e-004,7.279359e-004
2.075439e-004,7.606731e-004
2.393087e-004,7.846588e-004
2.521119e-004,8.019998e-004
2.485465e-004,7.968137e-004
2.326641e-004,7.504629e-004
2.068957e-004,6.572753e-004
1.762653e-004,5.279472e-004
1.475797e-004,3.754436e-004
1.300767e-004,2.133783e-004
1.315353e-004,5.568870e-005
1.551968e-004,-7.671866e-005
1.945787e-004,-1.587237e-004
2.396328e-004,-1.697441e-004
2.788527e-004,-9.486997e-005
3.132105e-004,7.497447e-005
3.427064e-004,3.441650e-004
3.632887e-004,7.143224e-004
3.684748e-004,1.180099e-003
3.508097e-004,1.700005e-003
3.042969e-004,2.158327e-003
2.339606e-004,2.368365e-003
1.573037e-004,2.154114e-003
1.005808e-004,1.442807e-003
7.627100e-005,3.454615e-004
7.384001e-005,-8.449081e-004
7.675719e-005,-1.795421e-003
7.805372e-005,-2.321972e-003
7.594687e-005,-2.372698e-003
6.735740e-005,-2.019882e-003
5.147500e-005,-1.424616e-003
2.878586e-005,-7.617687e-004
3.503668e-006,-1.695821e-004
-1.724069e-005,2.877662e-004
-3.328516e-005,6.015248e-004
-4.592625e-005,7.927620e-004
-5.678463e-005,8.815739e-004
-6.294311e-005,8.797912e-004
-6.294311e-005,8.045929e-004
-6.051213e-005,6.747784e-004
-5.646050e-005,5.104441e-004
-5.030201e-005,3.311998e-004
-4.511592e-005,1.573037e-004
-4.317114e-005,1.322759e-005
-4.706071e-005,-7.396355e-005
-5.095028e-005,-8.530812e-005
