1.969035e-003,1.722137e-004
1.879898e-003,1.506590e-004
1.403101e-003,1.214872e-004
5.119027e-004,8.761556e-005
-6.736051e-004,5.520250e-005
-1.925884e-003,2.748933e-005
-3.062450e-003,1.720949e-006
-3.968237e-003,-2.518189e-005
-4.562696e-003,-5.078821e-005
-4.739025e-003,-7.137050e-005
-4.407761e-003,-8.595638e-005
-3.605209e-003,-9.730095e-005
-2.507699e-003,-1.067007e-004
-1.374213e-003,-1.130213e-004
-4.651892e-004,-1.139937e-004
6.346784e-005,-1.084835e-004
2.057612e-004,-9.632856e-005
7.367795e-005,-7.412562e-005
-1.807646e-004,-4.252288e-005
-4.206212e-004,-8.975361e-006
-5.527044e-004,1.663096e-005
-5.355255e-004,2.781346e-005
-3.721637e-004,2.214118e-005
-9.875954e-005,6.420843e-006
2.247228e-004,-1.682422e-006
5.307022e-004,1.014835e-005
7.634282e-004,4.353380e-005
8.947012e-004,9.118101e-005
9.267902e-004,1.456350e-004
8.947012e-004,1.937684e-004
8.502953e-004,2.167816e-004
8.342508e-004,2.054371e-004
8.629364e-004,1.671896e-004
9.232247e-004,1.201907e-004
9.810821e-004,8.323980e-005
1.006527e-003,6.800567e-005
9.867544e-004,7.319175e-005
9.183628e-004,8.405013e-005
8.135064e-004,8.664317e-005
6.917953e-004,7.837785e-005
5.678153e-004,5.941620e-005
4.569625e-004,2.570661e-005
3.731747e-004,-3.101624e-005
3.158036e-004,-1.123730e-004
2.835526e-004,-2.100984e-004
2.788527e-004,-3.039342e-004
3.083486e-004,-3.638984e-004
3.725264e-004,-3.673017e-004
4.760862e-004,-3.149546e-004
6.326414e-004,-2.219292e-004
8.316578e-004,-1.097800e-004
1.013981e-003,5.864920e-007
1.081887e-003,9.118101e-005
9.478587e-004,1.542244e-004
5.927733e-004,1.835582e-004
8.648111e-005,1.832341e-004
-4.420138e-004,1.605450e-004
-8.669490e-004,1.281319e-004
-1.117664e-003,9.588090e-005
-1.167742e-003,6.427816e-005
-1.032094e-003,3.008238e-005
-7.525309e-004,-5.896120e-006
-3.873978e-004,-3.522994e-005
3.503668e-006,-4.414354e-005
3.704196e-004,-2.550602e-005
6.838541e-004,1.711715e-005
9.384589e-004,7.238143e-005
1.146713e-003,1.286181e-004
1.303917e-003,1.795066e-004
1.373929e-003,2.213195e-004
1.312506e-003,2.511395e-004
1.077349e-003,2.645909e-004
6.543581e-004,2.584324e-004
8.761556e-005,2.346088e-004
-5.360117e-004,2.018716e-004
-1.148294e-003,1.731861e-004
-1.711147e-003,1.548727e-004
-2.205771e-003,1.487142e-004
-2.602021e-003,1.517934e-004
-2.856626e-003,1.514693e-004
-2.933770e-003,1.427178e-004
-2.829886e-003,1.193804e-004
-2.564584e-003,7.708132e-005
-2.171575e-003,1.744128e-005
-1.694617e-003,-5.435365e-005
-1.170011e-003,-1.334415e-004
-5.982447e-004,-2.071812e-004
3.024445e-005,-2.609869e-004
6.968193e-004,-2.818933e-004
1.334547e-003,-2.634179e-004
1.827875e-003,-2.159328e-004
2.045206e-003,-1.543479e-004
1.893674e-003,-9.373551e-005
1.364853e-003,-4.171255e-005
5.683014e-004,-2.168618e-006
-2.775176e-004,2.748933e-005
-9.317751e-004,4.904402e-005
-1.254123e-003,6.784360e-005
-1.236944e-003,8.939829e-005
-9.784498e-004,1.175977e-004
-6.144513e-004,1.448246e-004
-2.478596e-004,1.530900e-004
6.687120e-005,1.331559e-004
3.070520e-004,9.296372e-005
4.728449e-004,5.487837e-005
5.781874e-004,4.029249e-005
6.409067e-004,5.714729e-005
6.695923e-004,1.020394e-004
6.739681e-004,1.571416e-004
6.755887e-004,2.007372e-004
6.898505e-004,2.224539e-004
7.256669e-004,2.222919e-004
7.804451e-004,2.059233e-004
8.452713e-004,1.820997e-004
9.122043e-004,1.577899e-004
9.736271e-004,1.347766e-004
1.025326e-003,1.169494e-004
1.090476e-003,1.038221e-004
1.211539e-003,9.523264e-005
1.399211e-003,8.405013e-005
1.605359e-003,5.893001e-005
1.739225e-003,1.257933e-005
1.694819e-003,-4.819516e-005
1.402777e-003,-1.068628e-004
8.867600e-004,-1.460826e-004
2.451431e-004,-1.566169e-004
-4.045767e-004,-1.426792e-004
-9.844463e-004,-1.125351e-004
-1.472749e-003,-7.299116e-005
-1.870619e-003,-3.004385e-005
-2.163958e-003,5.934647e-006
-2.318731e-003,3.008238e-005
-2.317920e-003,4.029249e-005
-2.159096e-003,3.510640e-005
-1.829293e-003,1.128280e-005
-1.314249e-003,-3.004385e-005
-6.262820e-004,-8.093235e-005
1.715654e-004,-1.280934e-004
9.677928e-004,-1.601823e-004
1.663216e-003,-1.726613e-004
2.225909e-003,-1.697441e-004
2.679856e-003,-1.608306e-004
3.048557e-003,-1.496480e-004
3.309646e-003,-1.360346e-004
3.415314e-003,-1.159385e-004
3.349191e-003,-8.773910e-005
3.160545e-003,-4.981582e-005
2.958448e-003,-1.027188e-005
2.826850e-003,1.695509e-005
2.740307e-003,2.781346e-005
2.534483e-003,2.278944e-005
1.979083e-003,7.555300e-006
9.088010e-004,-6.868512e-006
-6.502677e-004,-5.896120e-006
-2.423101e-003,1.144487e-005
-4.080224e-003,3.640293e-005
-4.967539e-003,6.103685e-005
-4.967539e-003,8.696730e-005
-4.967539e-003,1.232699e-004
-4.967539e-003,1.741585e-004
-4.967377e-003,2.312054e-004
-3.994978e-003,2.731804e-004
-2.668630e-003,2.864697e-004
-1.452815e-003,2.652392e-004
-5.462218e-004,2.196988e-004
-2.469570e-005,1.731861e-004
1.798307e-004,1.459591e-004
2.080301e-004,1.508210e-004
1.939304e-004,1.869616e-004
2.201850e-004,2.388225e-004
3.119140e-004,2.835526e-004
4.540453e-004,3.026763e-004
6.107626e-004,2.887386e-004
7.519216e-004,2.456293e-004
8.577503e-004,1.872858e-004
9.232247e-004,1.269974e-004
9.645515e-004,7.157111e-005
1.001016e-003,1.922400e-005
1.035860e-003,-3.344722e-005
1.076539e-003,-8.368747e-005
1.137799e-003,-1.256624e-004
1.231149e-003,-1.488377e-004
1.346054e-003,-1.507825e-004
1.439242e-003,-1.321450e-004
1.452855e-003,-9.713889e-005
1.346054e-003,-5.694669e-005
1.110735e-003,-2.096819e-005
7.827140e-004,7.393235e-006
4.524247e-004,3.235129e-005
2.253711e-004,5.536457e-005
1.539003e-004,8.032263e-005
2.072198e-004,1.072255e-004
3.013797e-004,1.313732e-004
3.436788e-004,1.498487e-004
2.895490e-004,1.650828e-004
1.467694e-004,1.811273e-004
-6.180866e-005,1.987924e-004
-3.577399e-004,2.193747e-004
-7.659823e-004,2.425500e-004
-1.246344e-003,2.618358e-004
-1.680841e-003,2.718839e-004
-1.933339e-003,2.676701e-004
-1.914701e-003,2.472499e-004
-1.637570e-003,2.088404e-004
-1.227544e-003,1.568175e-004
-8.616008e-004,1.018773e-004
-6.794395e-004,5.504044e-005
-7.230350e-004,2.408596e-005
-9.197823e-004,1.630683e-005
-1.124633e-003,2.910999e-005
-1.210365e-003,5.277152e-005
-1.119609e-003,7.351588e-005
-8.544700e-004,8.032263e-005
-4.306693e-004,7.205730e-005
1.483901e-004,5.552663e-005
8.771982e-004,3.559260e-005
1.702598e-003,1.711715e-005
2.513252e-003,1.234753e-006
3.166218e-003,-1.173047e-005
3.519685e-003,-2.307504e-005
3.472847e-003,-3.279896e-005
3.007554e-003,-4.268495e-005
2.216347e-003,-5.386745e-005
1.270693e-003,-6.553616e-005
3.863020e-004,-7.736692e-005
-2.421873e-004,-8.871149e-005
-5.319600e-004,-9.713889e-005
-5.258016e-004,-9.859748e-005
-3.497987e-004,-8.692878e-005
-1.481895e-004,-6.116039e-005
-1.918548e-005,-2.631635e-005
9.662150e-006,6.582909e-006
-3.085418e-005,2.975825e-005
-9.276313e-005,3.802358e-005
-1.399241e-004,2.813760e-005
-1.520790e-004,-5.085794e-006
-1.274451e-004,-5.937767e-005
-7.234290e-005,-1.196660e-004
8.365628e-006,-1.621271e-004
1.208390e-004,-1.723372e-004
2.822560e-004,-1.511066e-004
5.167646e-004,-1.084835e-004
8.360335e-004,-6.018800e-005
1.215429e-003,-1.902341e-005
1.560953e-003,3.017472e-006
1.720425e-003,6.420843e-006
1.567435e-003,-5.479652e-007
1.055956e-003,-6.706447e-006
2.637806e-004,-8.002969e-006
-6.040791e-004,-5.734055e-006
-1.316518e-003,-4.923729e-006
-1.736591e-003,-9.137427e-006
-1.838207e-003,-2.177852e-005
-1.666255e-003,-3.830918e-005
-1.305498e-003,-5.127441e-005
-8.581975e-004,-5.321919e-005
-4.211074e-004,-4.236081e-005
-5.694669e-005,-2.420950e-005
2.122438e-004,-3.627206e-006
3.926225e-004,1.727922e-005
5.068786e-004,3.899597e-005
5.825632e-004,6.265751e-005
6.449584e-004,8.680524e-005
7.114052e-004,1.085220e-004
7.861174e-004,1.261871e-004
8.473782e-004,1.383420e-004
8.421920e-004,1.440143e-004
7.159431e-004,1.472556e-004
4.537212e-004,1.516314e-004
9.960840e-005,1.576278e-004
-2.601766e-004,1.611932e-004
-5.502734e-004,1.590864e-004
-7.510723e-004,1.492004e-004
-8.815349e-004,1.255388e-004
-9.533298e-004,7.951231e-005
-9.453886e-004,1.468617e-005
-8.468529e-004,-6.261898e-005
-6.901358e-004,-1.425172e-004
-5.507596e-004,-2.261429e-004
-4.904713e-004,-3.083100e-004
-5.141328e-004,-3.729740e-004
-5.723143e-004,-4.000389e-004
-5.771763e-004,-3.848048e-004
-4.557894e-004,-3.382920e-004
-1.660166e-004,-2.718453e-004
2.850111e-004,-1.979435e-004
8.089686e-004,-1.217728e-004
1.248652e-003,-4.738484e-005
1.444428e-003,2.878586e-005
1.309913e-003,1.070634e-004
8.840049e-004,1.872858e-004
3.299032e-004,2.645909e-004
-1.094559e-004,3.273102e-004
-2.305186e-004,3.610198e-004
1.549650e-005,3.559958e-004
5.015305e-004,3.171001e-004
9.906440e-004,2.603772e-004
1.260969e-003,2.064095e-004
1.232446e-003,1.671896e-004
9.767064e-004,1.441764e-004
6.227554e-004,1.341283e-004
2.498430e-004,1.318594e-004
-1.525652e-004,1.305629e-004
-6.591813e-004,1.250527e-004
-1.321542e-003,1.151667e-004
-2.084546e-003,1.069013e-004
-2.800552e-003,1.030118e-004
-3.302956e-003,1.072255e-004
-3.465184e-003,1.175977e-004
-3.253039e-003,1.244044e-004
-2.742532e-003,1.304008e-004
-2.080332e-003,1.378558e-004
-1.419754e-003,1.453108e-004
-8.703523e-004,1.456350e-004
-4.698891e-004,1.328318e-004
-1.955125e-004,1.062531e-004
-3.303075e-006,7.124698e-005
1.539003e-004,3.769945e-005
3.020280e-004,1.095867e-005
4.464283e-004,-1.156841e-005
5.804563e-004,-3.377135e-005
6.947124e-004,-5.273300e-005
7.835244e-004,-6.261898e-005
8.438127e-004,-6.197072e-005
8.708776e-004,-4.592625e-005
8.663398e-004,-1.578211e-005
8.387886e-004,1.808955e-005
8.031343e-004,4.580272e-005
7.754210e-004,6.525056e-005
7.695867e-004,8.032263e-005
7.938965e-004,9.523264e-005
8.449472e-004,1.093323e-004
9.300315e-004,1.167873e-004
1.061953e-003,1.146805e-004
1.232446e-003,1.010670e-004
1.376846e-003,7.740545e-005
1.392242e-003,5.115087e-005
1.212836e-003,2.959618e-005
8.713638e-004,1.160693e-005
4.647416e-004,-5.896120e-006
1.030118e-004,-2.129233e-005
-1.253383e-004,-2.890940e-005
-1.833576e-004,-2.745081e-005
-1.112386e-004,-1.724069e-005
-2.006553e-006,-3.627206e-006
5.957827e-005,1.209313e-005
4.045456e-005,2.846173e-005
-3.247483e-005,3.948217e-005
-8.838737e-005,4.385793e-005
-5.710876e-005,4.418206e-005
7.902610e-005,4.158902e-005
2.791768e-004,4.045456e-005
4.660382e-004,4.531652e-005
5.660325e-004,5.941620e-005
5.576051e-004,8.032263e-005
4.689553e-004,9.847395e-005
3.427064e-004,1.025256e-004
1.923098e-004,9.296372e-005
1.630683e-005,8.421220e-005
-1.660166e-004,9.085687e-005
-3.177098e-004,1.114392e-004
-4.193247e-004,1.316973e-004
-4.833405e-004,1.433660e-004
-5.209396e-004,1.438522e-004
-5.138087e-004,1.393144e-004
-4.442827e-004,1.333180e-004
-3.374817e-004,1.247285e-004
-2.669833e-004,1.179218e-004
-2.992343e-004,1.169494e-004
-4.402311e-004,1.239182e-004
-6.191512e-004,1.388282e-004
-7.392415e-004,1.586002e-004
-7.497758e-004,1.783722e-004
-6.642053e-004,1.929580e-004
-5.353634e-004,1.986303e-004
-3.937184e-004,1.916615e-004
-2.209568e-004,1.704310e-004
9.662150e-006,1.363972e-004
2.825802e-004,9.507057e-005
5.323229e-004,5.293359e-005
6.841783e-004,1.371378e-005
7.033019e-004,-1.610623e-005
6.054144e-004,-3.668853e-005
4.326527e-004,-5.532604e-005
2.205091e-004,-7.850138e-005
-1.529591e-005,-1.118868e-004
-2.645523e-004,-1.533756e-004
-5.115398e-004,-1.995642e-004
-7.215764e-004,-2.470493e-004
-8.491218e-004,-2.891863e-004
-8.627353e-004,-3.157650e-004
-7.734373e-004,-3.154408e-004
-6.313060e-004,-2.823795e-004
-4.943609e-004,-2.207947e-004
-3.807532e-004,-1.441378e-004
-2.598524e-004,-6.780506e-005
-9.260106e-005,-6.868512e-006
1.373696e-004,3.705119e-005
4.200116e-004,6.606088e-005
7.235601e-004,8.323980e-005
1.012685e-003,8.777764e-005
1.276204e-003,8.291567e-005
1.542964e-003,6.914012e-005
1.862233e-003,4.855782e-005
2.268046e-003,2.376183e-005
2.727828e-003,-6.706447e-006
3.142880e-003,-3.733679e-005
3.393435e-003,-5.824321e-005
3.368152e-003,-6.634648e-005
2.982920e-003,-6.245691e-005
2.210351e-003,-5.305713e-005
1.075890e-003,-3.814712e-005
-2.890242e-004,-1.545797e-005
-1.593974e-003,1.306552e-005
-2.550646e-003,3.964423e-005
-2.980607e-003,5.390598e-005
-2.870726e-003,5.406805e-005
-2.366054e-003,4.758544e-005
-1.707582e-003,4.207521e-005
-1.146836e-003,4.191315e-005
-8.651663e-004,5.163707e-005
-9.154065e-004,7.173317e-005
-1.212796e-003,1.028497e-004
-1.594136e-003,1.406109e-004
-1.882612e-003,1.733481e-004
-1.918105e-003,1.918236e-004
-1.614556e-003,1.914994e-004
-9.969254e-004,1.752929e-004
-2.045882e-004,1.482280e-004
5.509604e-004,1.127357e-004
1.088856e-003,7.546067e-005
1.362747e-003,4.628891e-005
1.445076e-003,3.186510e-005
1.448479e-003,3.348575e-005
1.449452e-003,5.017848e-005
1.468575e-003,7.610893e-005
1.484296e-003,1.015532e-004
1.459824e-003,1.169494e-004
1.354967e-003,1.193804e-004
1.132937e-003,1.127357e-004
7.629420e-004,1.031738e-004
2.469258e-004,9.328785e-005
-3.684362e-004,8.453633e-005
-1.008918e-003,7.691926e-005
-1.612612e-003,7.335382e-005
-2.122307e-003,7.384001e-005
-2.464590e-003,7.610893e-005
-2.521637e-003,7.918817e-005
-2.168334e-003,7.756751e-005
-1.381182e-003,6.281957e-005
-3.087962e-004,3.559260e-005
7.405770e-004,3.665733e-006
1.397104e-003,-2.437157e-005
1.384950e-003,-4.090223e-005
6.396102e-004,-4.673658e-005
-5.854416e-004,-5.095028e-005
-1.809035e-003,-5.694669e-005
-2.612555e-003,-6.342930e-005
-2.787262e-003,-6.731887e-005
-2.364433e-003,-6.488790e-005
-1.541627e-003,-5.208473e-005
-5.775004e-004,-2.971972e-005
2.786906e-004,-8.165034e-006
8.543470e-004,7.231170e-006
1.095338e-003,1.792748e-005
1.075404e-003,2.878586e-005
9.421864e-004,4.369587e-005
8.489988e-004,6.281957e-005
8.904876e-004,8.421220e-005
1.082211e-003,1.030118e-004
1.367446e-003,1.106288e-004
1.648306e-003,1.060910e-004
1.822689e-003,9.458438e-005
1.816693e-003,8.421220e-005
1.617676e-003,7.708132e-005
1.266317e-003,6.362990e-005
8.295509e-004,3.591673e-005
3.720402e-004,-1.520357e-006
-6.132245e-005,-3.231276e-005
-4.502792e-004,-3.717472e-005
-8.008264e-004,-8.002969e-006
-1.121392e-003,4.564065e-005
-1.370972e-003,9.896014e-005
-1.470966e-003,1.226217e-004
-1.354603e-003,1.018773e-004
-1.009729e-003,4.985435e-005
-5.185086e-004,1.558884e-006
-3.377135e-005,-1.335112e-005
3.213138e-004,1.387585e-005
5.183853e-004,7.513654e-005
6.114109e-004,1.566554e-004
6.775335e-004,2.320158e-004
7.780141e-004,2.744769e-004
9.269522e-004,2.712356e-004
1.085776e-003,2.239125e-004
1.191281e-003,1.407730e-004
1.201005e-003,3.494434e-005
1.115759e-003,-7.380149e-005
9.749237e-004,-1.635857e-004
8.269579e-004,-2.190120e-004
7.063812e-004,-2.344082e-004
6.266450e-004,-2.125294e-004
5.811046e-004,-1.583996e-004
5.639257e-004,-7.995997e-005
5.689497e-004,1.565857e-005
5.893700e-004,1.130598e-004
6.063868e-004,1.953890e-004
6.039558e-004,2.472499e-004
5.764047e-004,2.618358e-004
5.143337e-004,2.444948e-004
3.867882e-004,2.060853e-004
1.739964e-004,1.503348e-004
-1.005423e-004,8.664317e-005
-3.893426e-004,3.024445e-005
-6.313060e-004,-1.108221e-005
-7.632272e-004,-3.733679e-005
-7.390795e-004,-5.500191e-005
-5.475183e-004,-6.667061e-005
-2.214430e-004,-7.072224e-005
1.602208e-004,-5.937767e-005
4.999098e-004,-3.263690e-005
7.269635e-004,3.179537e-006
8.089686e-004,3.737532e-005
7.399287e-004,6.233338e-005
5.360504e-004,7.335382e-005
2.360674e-004,7.043664e-005
-9.665269e-005,6.557468e-005
-3.862634e-004,7.059870e-005
-5.928966e-004,9.247753e-005
-7.387553e-004,1.250527e-004
-8.841279e-004,1.534141e-004
-1.069044e-003,1.665414e-004
-1.272598e-003,1.608691e-004
-1.423643e-003,1.344524e-004
-1.428181e-003,9.166720e-005
-1.220738e-003,4.288554e-005
-8.241637e-004,-3.858999e-007
-3.494745e-004,-3.441962e-005
5.066468e-005,-5.613637e-005
2.506533e-004,-6.310517e-005
2.135403e-004,-5.872941e-005
-2.238345e-007,-4.738484e-005
-2.750866e-004,-3.409548e-005
-5.011677e-004,-1.853721e-005
-6.222304e-004,-3.789271e-006
-6.488091e-004,9.824214e-006
-6.244993e-004,2.100672e-005
-5.844692e-004,3.121684e-005
-5.363358e-004,4.207521e-005
-4.779923e-004,5.455424e-005
-4.060353e-004,6.362990e-005
-3.165753e-004,6.379197e-005
-2.023193e-004,5.293359e-005
-3.928157e-005,2.846173e-005
2.039785e-004,-4.923729e-006
5.704083e-004,-3.749886e-005
1.091611e-003,-5.889147e-005
1.758673e-003,-6.845333e-005
2.477759e-003,-6.942573e-005
3.061685e-003,-6.731887e-005
3.291171e-003,-6.537409e-005
2.996210e-003,-6.391550e-005
2.153466e-003,-6.683268e-005
9.272764e-004,-7.769105e-005
-3.747567e-004,-9.940780e-005
-1.430612e-003,-1.303623e-004
-2.073850e-003,-1.700683e-004
-2.298634e-003,-2.206326e-004
-2.197667e-003,-2.775176e-004
-1.904167e-003,-3.297026e-004
-1.535955e-003,-3.476918e-004
-1.174873e-003,-3.096065e-004
-8.658145e-004,-2.141500e-004
-6.272544e-004,-8.287714e-005
-4.635685e-004,5.131293e-005
-3.718396e-004,1.603829e-004
-3.334301e-004,2.234263e-004
-3.193304e-004,2.326641e-004
-2.993964e-004,2.017096e-004
-2.570973e-004,1.573037e-004
-1.904885e-004,1.291043e-004
-1.117248e-004,1.362352e-004
-3.976777e-005,1.780480e-004
1.209313e-005,2.347709e-004
4.418206e-005,2.786906e-004
6.395403e-005,2.846870e-004
8.032263e-005,2.498430e-004
1.025256e-004,1.936063e-004
1.368834e-004,1.433660e-004
1.772377e-004,1.185700e-004
2.077060e-004,1.289422e-004
2.127300e-004,1.660552e-004
1.949028e-004,2.127300e-004
1.788584e-004,2.503292e-004
1.978200e-004,2.681563e-004
2.772320e-004,2.671840e-004
4.166082e-004,2.572980e-004
5.892079e-004,2.467637e-004
7.606731e-004,2.420638e-004
9.230627e-004,2.417397e-004
1.104900e-003,2.365536e-004
1.340219e-003,2.154851e-004
1.630803e-003,1.785342e-004
1.929166e-003,1.342904e-004
2.169672e-003,8.956035e-005
2.296894e-003,4.612685e-005
2.274205e-003,1.031041e-005
2.081022e-003,-1.092015e-005
1.712322e-003,-1.659243e-005
1.202788e-003,-1.254080e-005
6.344241e-004,-7.100305e-007
8.291567e-005,1.825161e-005
-4.087905e-004,3.915804e-005
-8.337256e-004,5.552663e-005
-1.222682e-003,6.638501e-005
-1.630763e-003,6.849186e-005
-2.104318e-003,6.346784e-005
-2.637514e-003,5.795762e-005
-3.153045e-003,5.747142e-005
-3.521583e-003,6.330577e-005
-3.619146e-003,6.816773e-005
-3.388040e-003,6.768153e-005
-2.855816e-003,5.698522e-005
-2.137541e-003,3.105477e-005
-1.396903e-003,-5.571990e-006
-7.732753e-004,-4.171255e-005
-3.460712e-004,-6.634648e-005
-1.478653e-004,-7.963584e-005
-1.998883e-004,-7.995997e-005
-4.924161e-004,-7.574627e-005
-9.609468e-004,-7.234290e-005
-1.499166e-003,-7.282909e-005
-1.988441e-003,-7.623246e-005
-2.295879e-003,-8.060822e-005
-2.298148e-003,-8.692878e-005
-1.929773e-003,-9.324932e-005
-1.206476e-003,-9.892161e-005
-2.253325e-004,-1.016767e-004
8.473782e-004,-9.746302e-005
1.832737e-003,-8.417366e-005
2.618595e-003,-6.132245e-005
3.162328e-003,-3.247483e-005
3.481437e-003,-4.113402e-006
3.601204e-003,1.614476e-005
3.528112e-003,2.505835e-005
3.286147e-003,2.700314e-005
2.950183e-003,2.586868e-005
2.632209e-003,2.327564e-005
2.393323e-003,2.586868e-005
2.218292e-003,3.996836e-005
2.042450e-003,6.622294e-005
1.821879e-003,9.879807e-005
1.597742e-003,1.221355e-004
1.479272e-003,1.257009e-004
1.566463e-003,1.116012e-004
1.876171e-003,8.907416e-005
2.306456e-003,6.508849e-005
2.664622e-003,4.499239e-005
2.742414e-003,3.478227e-005
2.403534e-003,2.846173e-005
1.649279e-003,2.149292e-005
5.950422e-004,1.565857e-005
-5.833348e-004,1.403791e-005
-1.679544e-003,1.679302e-005
-2.551133e-003,2.100672e-005
-3.129869e-003,2.343770e-005
-3.439415e-003,2.667901e-005
-3.562585e-003,3.413401e-005
-3.570526e-003,4.288554e-005
-3.466966e-003,4.612685e-005
-3.218195e-003,4.337174e-005
-2.824375e-003,4.126489e-005
-2.320351e-003,4.742337e-005
-1.757660e-003,6.411610e-005
-1.182166e-003,8.437427e-005
-6.366542e-004,1.030118e-004
-1.760647e-004,1.132219e-004
1.522796e-004,1.158149e-004
3.336308e-004,1.124116e-004
3.981328e-004,9.831188e-005
4.012120e-004,6.654707e-005
3.981328e-004,1.582063e-005
4.130428e-004,-4.268495e-005
4.401077e-004,-9.065627e-005
4.650658e-004,-1.211245e-004
4.743035e-004,-1.379793e-004
4.631210e-004,-1.430034e-004
4.328148e-004,-1.368449e-004
3.892192e-004,-1.191798e-004
3.388168e-004,-8.935975e-005
2.901973e-004,-5.289506e-005
2.500050e-004,-1.659243e-005
2.239125e-004,8.203561e-006
2.171058e-004,1.582063e-005
2.312054e-004,5.772582e-006
2.579462e-004,-1.659243e-005
2.837146e-004,-3.636440e-005
2.973281e-004,-4.171255e-005
2.939247e-004,-2.485776e-005
2.717218e-004,1.468617e-005
2.386605e-004,7.384001e-005
2.073818e-004,1.415833e-004
1.918236e-004,2.052750e-004
1.992786e-004,2.503292e-004
2.214815e-004,2.610255e-004
2.453051e-004,2.396328e-004
2.631323e-004,2.025199e-004
2.736665e-004,1.644345e-004
2.773941e-004,1.323456e-004
2.783665e-004,1.051186e-004
2.770700e-004,7.643306e-005
2.775562e-004,4.239934e-005
2.804733e-004,6.582909e-006
2.859835e-004,-1.626830e-005
2.921420e-004,-1.950961e-005
2.923041e-004,-6.544382e-006
2.801492e-004,9.013888e-006
2.495188e-004,1.922400e-005
1.944166e-004,2.181705e-005
1.232699e-004,2.052053e-005
5.487837e-005,2.343770e-005
4.313994e-006,3.478227e-005
-2.161646e-005,4.758544e-005
-2.696461e-005,5.131293e-005
-1.918548e-005,4.726130e-005
-4.275467e-006,4.077869e-005
1.906194e-005,3.964423e-005
5.001641e-005,4.596478e-005
8.178122e-005,5.520250e-005
1.049566e-004,6.217131e-005
1.201907e-004,6.492643e-005
1.299146e-004,6.735740e-005
1.294284e-004,7.367795e-005
1.041462e-004,8.178122e-005
4.596478e-005,8.696730e-005
-4.608832e-005,9.247753e-005
-1.681235e-004,9.685329e-005
-3.091203e-004,9.571883e-005
-4.540066e-004,8.907416e-005
-5.886829e-004,7.675719e-005
-6.977528e-004,6.589881e-005
-7.557722e-004,6.103685e-005
-7.306521e-004,6.119892e-005
-6.052136e-004,6.476436e-005
-3.878840e-004,6.719534e-005
-1.054042e-004,6.557468e-005
2.078680e-004,5.779555e-005
5.167646e-004,4.515445e-005
7.903310e-004,3.218923e-005
1.009281e-003,2.376183e-005
1.192416e-003,2.441009e-005
1.391108e-003,3.591673e-005
1.650737e-003,5.455424e-005
1.969197e-003,7.108490e-005
2.251677e-003,7.643306e-005
2.351834e-003,6.962632e-005
2.147793e-003,5.487837e-005
1.600335e-003,3.656499e-005
7.726659e-004,1.971020e-005
-1.888679e-004,1.306552e-005
-1.101295e-003,2.068259e-005
-1.820541e-003,4.175108e-005
-2.240777e-003,6.881599e-005
-2.262656e-003,9.344992e-005
-1.837234e-003,1.124116e-004
-1.044897e-003,1.253768e-004
-1.041077e-004,1.308870e-004
6.948745e-004,1.276457e-004
1.088207e-003,1.184080e-004
9.345693e-004,1.049566e-004
2.436845e-004,8.858796e-005
-8.176811e-004,7.140904e-005
-1.978393e-003,5.390598e-005
-2.972665e-003,3.526847e-005
-3.590137e-003,1.355172e-005
-3.723031e-003,-9.461557e-006
-3.401492e-003,-3.247483e-005
-2.774135e-003,-5.354332e-005
-2.035926e-003,-7.688072e-005
-1.350714e-003,-1.037836e-004
-7.904542e-004,-1.269589e-004
-3.391023e-004,-1.358725e-004
5.066468e-005,-1.287416e-004
4.072085e-004,-1.068628e-004
7.229118e-004,-7.509801e-005
9.616343e-004,-4.122636e-005
1.093069e-003,-8.165034e-006
1.121431e-003,2.684107e-005
1.073622e-003,6.362990e-005
9.718444e-004,9.847395e-005
8.172339e-004,1.257009e-004
5.940698e-004,1.490383e-004
2.798251e-004,1.686482e-004
-1.083214e-004,1.840444e-004
-4.956574e-004,1.934442e-004
-7.779751e-004,1.910132e-004
-8.611146e-004,1.741585e-004
-6.974287e-004,1.454729e-004
-3.160891e-004,1.101426e-004
1.906891e-004,7.805372e-005
7.154568e-004,5.552663e-005
1.184636e-003,4.418206e-005
1.575701e-003,3.769945e-005
1.903074e-003,3.510640e-005
2.182637e-003,3.299956e-005
2.406613e-003,2.667901e-005
2.551500e-003,1.452411e-005
2.590396e-003,-5.571990e-006
2.504663e-003,-3.701266e-005
2.303052e-003,-7.833932e-005
2.022516e-003,-1.220969e-004
1.714267e-003,-1.485136e-004
1.422873e-003,-1.397621e-004
1.162109e-003,-9.568031e-005
9.224144e-004,-2.777494e-005
6.785059e-004,4.256141e-005
4.054257e-004,9.960840e-005
8.421220e-005,1.357490e-004
-2.925896e-004,1.516314e-004
-7.058561e-004,1.542244e-004
-1.108750e-003,1.472556e-004
-1.450708e-003,1.410971e-004
-1.704016e-003,1.404489e-004
-1.873213e-003,1.417454e-004
-1.993141e-003,1.355869e-004
-2.103508e-003,1.179218e-004
-2.223112e-003,8.842590e-005
-2.320351e-003,4.645098e-005
-2.322782e-003,-1.270286e-005
-2.161203e-003,-9.503204e-005
-1.816004e-003,-2.005366e-004
-1.327215e-003,-3.136581e-004
-7.807303e-004,-4.060353e-004
-2.726556e-004,-4.475240e-004
1.229458e-004,-4.243487e-004
3.851675e-004,-3.497987e-004
5.407503e-004,-2.522354e-004
6.287518e-004,-1.562927e-004
6.802886e-004,-7.104637e-005
7.021675e-004,4.962256e-006
6.879057e-004,7.205730e-005
6.295621e-004,1.289422e-004
5.339436e-004,1.723757e-004
4.206599e-004,1.963614e-004
3.153174e-004,1.987924e-004
2.537325e-004,1.822617e-004
2.537325e-004,1.589243e-004
2.992729e-004,1.441764e-004
3.671783e-004,1.383420e-004
4.428628e-004,1.352628e-004
5.162784e-004,1.273216e-004
5.678153e-004,1.132219e-004
5.710566e-004,9.101894e-005
4.932652e-004,6.444023e-005
3.033245e-004,3.915804e-005
9.013888e-006,1.873781e-005
-3.149546e-004,7.485573e-007
-5.572422e-004,-1.318906e-005
-6.214201e-004,-2.242678e-005
-4.637306e-004,-2.809907e-005
-1.203142e-004,-3.036798e-005
2.901973e-004,-2.712668e-005
6.060626e-004,-1.805102e-005
7.164293e-004,-5.896120e-006
6.334517e-004,4.962256e-006
4.684691e-004,1.436204e-005
3.370341e-004,2.667901e-005
2.816078e-004,3.964423e-005
2.717218e-004,5.098881e-005
2.564876e-004,6.071273e-005
2.300710e-004,6.849186e-005
2.329882e-004,7.481241e-005
3.039728e-004,7.675719e-005
4.441593e-004,7.935023e-005
6.250243e-004,8.486046e-005
8.118858e-004,9.490851e-005
9.830269e-004,1.036600e-004
1.128886e-003,1.070634e-004
1.228232e-003,1.083599e-004
1.240387e-003,1.085220e-004
1.127751e-003,1.091703e-004
8.754155e-004,1.125736e-004
5.166026e-004,1.188942e-004
1.206769e-004,1.248906e-004
-2.381357e-004,1.252147e-004
-5.003573e-004,1.195424e-004
-6.400576e-004,1.091703e-004
-6.572365e-004,9.328785e-005
-5.536768e-004,7.124698e-005
-3.290543e-004,4.547859e-005
-1.034161e-006,2.181705e-005
3.731747e-004,7.393235e-006
6.872574e-004,6.582909e-006
8.266338e-004,1.387585e-005
7.128638e-004,2.343770e-005
3.456236e-004,3.591673e-005
-1.687718e-004,5.487837e-005
-6.483229e-004,7.902610e-005
-9.351785e-004,1.065772e-004
-9.703466e-004,1.360731e-004
-7.870508e-004,1.675138e-004
-4.812336e-004,1.955511e-004
-1.838438e-004,2.141886e-004
-3.069211e-005,2.239125e-004
-1.065387e-004,2.290986e-004
-3.987424e-004,2.308813e-004
-8.017988e-004,2.284503e-004
-1.150563e-003,2.193747e-004
-1.320246e-003,2.020337e-004
-1.254447e-003,1.778859e-004
-9.826636e-004,1.485521e-004
-6.123444e-004,1.143563e-004
-2.489941e-004,7.513654e-005
5.893001e-005,3.543053e-005
3.038107e-004,4.313994e-006
4.705760e-004,-1.221667e-005
5.083373e-004,-1.805102e-005
3.613439e-004,-2.566809e-005
1.371378e-005,-4.576419e-005
-4.971160e-004,-7.850138e-005
-1.099675e-003,-1.122110e-004
-1.706285e-003,-1.321450e-004
-2.229594e-003,-1.264727e-004
-2.598618e-003,-9.438377e-005
-2.744963e-003,-4.706071e-005
-2.607369e-003,2.693341e-006
-2.168172e-003,5.050261e-005
-1.459946e-003,9.231547e-005
-5.700454e-004,1.239182e-004
3.590750e-004,1.430419e-004
1.167782e-003,1.440143e-004
1.757214e-003,1.295905e-004
2.104521e-003,1.049566e-004
2.250867e-003,7.092283e-005
2.281498e-003,2.765140e-005
2.289115e-003,-2.064406e-005
2.351186e-003,-6.618442e-005
2.496884e-003,-9.405964e-005
2.683260e-003,-9.697682e-005
2.821340e-003,-7.833932e-005
2.818261e-003,-5.257093e-005
2.624916e-003,-3.506787e-005
2.244871e-003,-3.198863e-005
1.670509e-003,-4.122636e-005
8.896772e-004,-5.548810e-005
-3.393342e-005,-6.569822e-005
-9.513850e-004,-7.169464e-005
-1.717792e-003,-7.185670e-005
-2.251636e-003,-6.440169e-005
-2.493924e-003,-5.435365e-005
-2.405274e-003,-4.851930e-005
-2.029444e-003,-4.835723e-005
-1.513103e-003,-4.738484e-005
-1.031607e-003,-3.814712e-005
-6.980770e-004,-2.015787e-005
-5.209396e-004,2.693341e-006
-4.382863e-004,2.538249e-005
-3.718396e-004,4.207521e-005
-2.718453e-004,4.774750e-005
-1.366828e-004,4.564065e-005
-6.868512e-006,3.769945e-005
7.432621e-005,2.538249e-005
1.117633e-004,1.808955e-005
1.509831e-004,2.538249e-005
2.308813e-004,4.855782e-005
3.508097e-004,7.853991e-005
4.896997e-004,1.007429e-004
6.332896e-004,1.132219e-004
7.823899e-004,1.218114e-004
9.400796e-004,1.305629e-004
1.097445e-003,1.378558e-004
1.239253e-003,1.398006e-004
1.344757e-003,1.326697e-004
1.390622e-003,1.177597e-004
1.348323e-003,9.831188e-005
1.190633e-003,7.789165e-005
9.042631e-004,5.925414e-005
4.942375e-004,4.434413e-005
-1.610623e-005,3.202716e-005
-5.838209e-004,2.052053e-005
-1.140515e-003,9.986280e-006
-1.597701e-003,5.934647e-006
-1.885692e-003,8.365628e-006
-1.982283e-003,6.744974e-006
-1.896874e-003,-1.075808e-005
-1.647293e-003,-4.689864e-005
-1.266116e-003,-9.227693e-005
-8.178432e-004,-1.329553e-004
-3.836703e-004,-1.588858e-004
-1.886135e-005,-1.616409e-004
2.688046e-004,-1.420310e-004
4.990995e-004,-1.018388e-004
6.767232e-004,-4.511592e-005
7.728280e-004,1.760335e-005
7.374978e-004,7.335382e-005
5.394538e-004,1.119254e-004
2.154851e-004,1.304008e-004
-1.308485e-004,1.323456e-004
-3.822118e-004,1.240803e-004
-4.723200e-004,1.083599e-004
-4.215936e-004,8.988448e-005
-3.164132e-004,7.659513e-005
-2.541802e-004,7.384001e-005
-2.898345e-004,8.372600e-005
-4.298589e-004,1.025256e-004
-6.471885e-004,1.226217e-004
-9.089239e-004,1.389903e-004
-1.191242e-003,1.504969e-004
-1.466591e-003,1.543865e-004
-1.675979e-003,1.519555e-004
-1.725247e-003,1.459591e-004
-1.523314e-003,1.389903e-004
-1.055593e-003,1.248906e-004
-4.036044e-004,8.437427e-005
2.833905e-004,9.013888e-006
8.593709e-004,-9.049421e-005
1.258538e-003,-1.796301e-004
1.492075e-003,-2.199844e-004
1.598552e-003,-1.953505e-004
1.607142e-003,-1.203142e-004
1.535995e-003,-2.745081e-005
1.397915e-003,5.082674e-005
1.199709e-003,9.328785e-005
9.575827e-004,9.620503e-005
6.877437e-004,7.465034e-005
4.117463e-004,5.050261e-005
1.529279e-004,3.834771e-005
-5.451571e-005,4.547859e-005
-1.512687e-004,6.897806e-005
-4.770897e-005,1.004187e-004
3.086727e-004,1.299146e-004
8.682846e-004,1.539003e-004
1.481703e-003,1.733481e-004
1.951693e-003,1.851789e-004
2.113435e-003,1.877719e-004
1.902587e-003,1.817755e-004
1.390784e-003,1.735102e-004
7.541904e-004,1.657311e-004
1.968476e-004,1.624898e-004
-1.323070e-004,1.611932e-004
-1.994021e-004,1.564933e-004
-7.704279e-005,1.435281e-004
1.180839e-004,1.211631e-004
2.816078e-004,9.409818e-005
3.548613e-004,7.011251e-005
3.365479e-004,6.071273e-005
2.632944e-004,7.351588e-005
1.829100e-004,1.059289e-004
1.273216e-004,1.501728e-004
1.069013e-004,2.005751e-004
1.062531e-004,2.482223e-004
1.009049e-004,2.833905e-004
6.768153e-005,3.008935e-004
-8.720958e-007,3.017039e-004
-9.098041e-005,2.872800e-004
-1.765509e-004,2.626462e-004
-2.264670e-004,2.320158e-004
-2.185258e-004,1.947408e-004
-1.478653e-004,1.485521e-004
-2.712668e-005,8.793970e-005
1.122495e-004,5.286386e-006
2.235884e-004,-1.039456e-004
2.731804e-004,-2.358668e-004
2.478982e-004,-3.762153e-004
1.631380e-004,-5.042469e-004
5.585077e-005,-5.951655e-004
-3.020592e-005,-6.235269e-004
-7.234290e-005,-5.779866e-004
-7.558420e-005,-4.716718e-004
-6.991192e-005,-3.322956e-004
-8.757703e-005,-1.864369e-004
-1.520790e-004,-5.743289e-005
-2.687660e-004,3.883391e-005
-4.160834e-004,9.312579e-005
-5.690730e-004,1.192183e-004
-7.128249e-004,1.310491e-004
-8.329153e-004,1.380179e-004
-9.016310e-004,1.470936e-004
-8.787797e-004,1.634621e-004
-7.178489e-004,1.850168e-004
-4.154351e-004,2.038164e-004
-4.981582e-005,2.075439e-004
2.741528e-004,1.872858e-004
4.777069e-004,1.438522e-004
4.974788e-004,8.340186e-005
2.945730e-004,2.052053e-005
-1.049180e-004,-2.761287e-005
-5.969482e-004,-5.565017e-005
-1.047004e-003,-6.586029e-005
-1.345852e-003,-6.602235e-005
-1.439688e-003,-5.905355e-005
-1.332887e-003,-4.673658e-005
-1.094975e-003,-3.312309e-005
-8.167087e-004,-2.631635e-005
-5.672903e-004,-3.166451e-005
-3.838324e-004,-4.398147e-005
-2.669833e-004,-5.467778e-005
-1.930815e-004,-6.083626e-005
-1.347380e-004,-6.748093e-005
-7.169464e-005,-8.109442e-005
2.369210e-006,-1.076731e-004
7.756751e-005,-1.447861e-004
1.331559e-004,-1.791439e-004
1.615174e-004,-1.906506e-004
1.892305e-004,-1.660166e-004
2.503292e-004,-1.096179e-004
3.597233e-004,-4.365734e-005
5.000719e-004,1.079661e-005
6.323173e-004,4.256141e-005
7.107570e-004,5.487837e-005
7.114052e-004,5.568870e-005
6.472273e-004,4.920609e-005
5.401021e-004,4.061663e-005
4.002396e-004,3.299956e-005
2.263435e-004,2.943412e-005
2.894792e-005,2.797553e-005
-1.652063e-004,3.186510e-005
-3.279199e-004,4.126489e-005
-4.368277e-004,5.471631e-005
-4.723200e-004,6.638501e-005
-4.462275e-004,7.335382e-005
-3.908012e-004,7.092283e-005
-3.366714e-004,5.747142e-005
-3.066893e-004,3.154097e-005
-3.060411e-004,-2.978945e-006
-2.963171e-004,-3.620233e-005
-2.324634e-004,-5.386745e-005
-1.101041e-004,-4.495386e-005
2.975825e-005,-1.108221e-005
1.389903e-004,3.397195e-005
2.077060e-004,7.578480e-005
2.994350e-004,1.117633e-004
4.955340e-004,1.467694e-004
7.922758e-004,1.804790e-004
1.087397e-003,2.083542e-004
1.247518e-003,2.282883e-004
1.177830e-003,2.381743e-004
8.887048e-004,2.360674e-004
4.950479e-004,2.253711e-004
1.477418e-004,2.130541e-004
-5.386745e-005,1.986303e-004
-1.336036e-004,1.825858e-004
-2.199844e-004,1.628139e-004
-4.186764e-004,1.423936e-004
-7.402139e-004,1.250527e-004
-1.106481e-003,1.109530e-004
-1.376806e-003,9.944633e-005
-1.406140e-003,8.745350e-005
-1.129819e-003,7.302969e-005
-5.859278e-004,6.087479e-005
1.018773e-004,5.617490e-005
7.561353e-004,5.666109e-005
1.207002e-003,6.055066e-005
1.351240e-003,6.816773e-005
1.190309e-003,7.578480e-005
8.313336e-004,8.097089e-005
4.352457e-004,8.405013e-005
1.398006e-004,9.004655e-005
8.365628e-006,1.054428e-004
2.797553e-005,1.302387e-004
1.404489e-004,1.556830e-004
2.803112e-004,1.730240e-004
4.023465e-004,1.778859e-004
4.866205e-004,1.723757e-004
5.243817e-004,1.621656e-004
5.067165e-004,1.519555e-004
4.166082e-004,1.398006e-004
2.532463e-004,1.219734e-004
7.286762e-005,1.033359e-004
-4.268495e-005,8.631904e-005
-4.203669e-005,7.027457e-005
7.205730e-005,5.050261e-005
2.524360e-004,2.376183e-005
4.444834e-004,-5.896120e-006
6.055764e-004,-3.279896e-005
7.130259e-004,-4.754691e-005
7.684522e-004,-4.527799e-005
8.044308e-004,-3.150244e-005
8.677984e-004,-1.545797e-005
9.828649e-004,-8.489165e-006
1.122079e-003,-1.286493e-005
1.203922e-003,-2.712668e-005
1.134396e-003,-4.138842e-005
8.319819e-004,-4.754691e-005
2.558394e-004,-4.673658e-005
-5.693972e-004,-4.041603e-005
-1.532065e-003,-2.923352e-005
-2.448221e-003,-1.270286e-005
-3.118038e-003,2.369210e-006
-3.374913e-003,7.555300e-006
-3.134083e-003,2.369210e-006
-2.452435e-003,-3.465141e-006
-1.507269e-003,1.396819e-006
-5.198051e-004,1.452411e-005
3.315239e-004,2.894792e-005
9.640653e-004,3.559260e-005
1.374253e-003,3.186510e-005
1.574080e-003,2.489629e-005
1.560953e-003,2.246531e-005
1.330009e-003,2.765140e-005
8.961599e-004,3.753739e-005
3.266619e-004,4.612685e-005
-2.699005e-004,4.580272e-005
-7.667927e-004,3.543053e-005
-1.048948e-003,2.052053e-005
-1.048138e-003,8.527692e-006
-7.684133e-004,2.045080e-006
-2.914552e-004,3.341602e-006
2.568118e-004,9.500084e-006
7.561353e-004,1.873781e-005
1.132775e-003,2.927205e-005
1.364367e-003,4.175108e-005
1.478299e-003,5.471631e-005
1.528702e-003,6.444023e-005
1.574404e-003,7.027457e-005
1.662406e-003,6.962632e-005
1.827065e-003,6.881599e-005
2.060602e-003,6.897806e-005
2.280687e-003,7.011251e-005
2.368527e-003,7.546067e-005
2.258808e-003,8.291567e-005
1.947642e-003,8.729143e-005
1.413149e-003,8.550872e-005
6.024972e-004,8.048469e-005
-4.826922e-004,7.465034e-005
-1.680517e-003,6.703327e-005
-2.753715e-003,6.022653e-005
-3.506348e-003,5.504044e-005
-3.851873e-003,5.341978e-005
-3.817839e-003,5.747142e-005
-3.490952e-003,6.687120e-005
-2.973152e-003,7.578480e-005
-2.344175e-003,7.918817e-005
-1.655559e-003,7.432621e-005
-9.573814e-004,6.281957e-005
-3.331059e-004,4.288554e-005
1.044704e-004,1.063454e-005
2.511395e-004,-3.393342e-005
7.254349e-005,-7.801519e-005
-3.444505e-004,-1.073490e-004
-8.230293e-004,-1.188556e-004
-1.176494e-003,-1.148040e-004
-1.307280e-003,-9.730095e-005
-1.218955e-003,-6.342930e-005
-9.773155e-004,-1.221667e-005
-6.561021e-004,4.985435e-005
-3.076617e-004,1.138701e-004
3.008238e-005,1.692965e-004
3.339549e-004,2.067336e-004
6.023351e-004,2.213195e-004
8.504573e-004,2.120818e-004
1.091773e-003,1.861513e-004
1.326768e-003,1.495245e-004
1.558684e-003,1.052807e-004
1.808427e-003,5.909207e-005
2.093339e-003,1.338965e-005
2.396078e-003,-2.242678e-005
2.656194e-003,-3.960571e-005
2.778879e-003,-3.863331e-005
2.643554e-003,-2.550602e-005
2.141959e-003,-8.813297e-006
1.258052e-003,1.234753e-006
1.320215e-004,-1.034161e-006
-9.611089e-004,-1.724069e-005
-1.775325e-003,-4.333321e-005
-2.219547e-003,-7.736692e-005
-2.327806e-003,-1.123730e-004
-2.184378e-003,-1.394379e-004
-1.852468e-003,-1.491618e-004
-1.374213e-003,-1.365208e-004
-8.000160e-004,-1.042698e-004
-2.123673e-004,-6.148453e-005
2.851732e-004,-2.113026e-005
6.104385e-004,8.365628e-006
7.386322e-004,2.586868e-005
6.898505e-004,2.975825e-005
5.065545e-004,1.954813e-005
2.457913e-004,2.623614e-007
-2.339917e-005,-2.323711e-005
-2.305186e-004,-4.155049e-005
-3.262992e-004,-4.738484e-005
-2.969654e-004,-4.187462e-005
-1.606685e-004,-3.053005e-005
4.434413e-005,-1.772689e-005
2.701011e-004,-5.571990e-006
4.679830e-004,5.448451e-006
6.073592e-004,1.744128e-005
6.736440e-004,3.332369e-005
6.587339e-004,4.823369e-005
5.538776e-004,6.298164e-005
3.524303e-004,7.529860e-005
6.622294e-005,8.291567e-005
-2.622834e-004,8.291567e-005
-5.616180e-004,7.659513e-005
-7.638755e-004,7.254349e-005
-8.312946e-004,7.448828e-005
-7.611204e-004,8.194328e-005
-5.765280e-004,9.134307e-005
-3.180339e-004,1.013911e-004
-3.020592e-005,1.128978e-004
2.574600e-004,1.239182e-004
5.407503e-004,1.312111e-004
8.378162e-004,1.347766e-004
1.165188e-003,1.339663e-004
1.532753e-003,1.286181e-004
1.935811e-003,1.193804e-004
2.310183e-003,1.072255e-004
2.545827e-003,9.409818e-005
2.537238e-003,7.886404e-005
2.226881e-003,6.606088e-005
1.663378e-003,5.925414e-005
9.781650e-004,6.152305e-005
3.362238e-004,7.302969e-005
-1.237176e-004,8.405013e-005
-3.486642e-004,8.178122e-005
-3.601709e-004,6.703327e-005
-1.948643e-004,4.888196e-005
1.193804e-004,3.235129e-005
5.563085e-004,2.052053e-005
1.047853e-003,1.906194e-005
1.454800e-003,3.089270e-005
1.620755e-003,5.390598e-005
1.423845e-003,7.935023e-005
8.391127e-004,9.912220e-005
-3.636440e-005,1.085220e-004
-9.935220e-004,1.091703e-004
-1.802228e-003,1.054428e-004
-2.302200e-003,9.863601e-005
-2.431852e-003,8.939829e-005
-2.228622e-003,7.983643e-005
-1.797204e-003,6.687120e-005
-1.280053e-003,5.325772e-005
-8.064986e-004,3.932010e-005
-4.561135e-004,2.554455e-005
-2.368392e-004,1.419998e-005
-1.020008e-004,8.689757e-006
1.306552e-005,1.371378e-005
1.362352e-004,2.619281e-005
2.242366e-004,4.061663e-005
1.814514e-004,5.147500e-005
-5.791909e-005,5.649903e-005
-4.600031e-004,5.585077e-005
-9.058446e-004,5.293359e-005
-1.264981e-003,4.790957e-005
-1.455732e-003,4.207521e-005
-1.470156e-003,3.526847e-005
-1.357197e-003,2.910999e-005
-1.182166e-003,2.327564e-005
-1.003732e-003,1.614476e-005
-8.646800e-004,7.069104e-006
-7.891576e-004,-2.816880e-006
-7.744097e-004,-8.813297e-006
-7.995298e-004,-8.165034e-006
-8.197880e-004,-1.844488e-006
-7.556102e-004,7.717366e-006
-5.342290e-004,1.679302e-005
-1.511066e-004,1.971020e-005
3.010556e-004,1.663096e-005
6.945504e-004,9.013888e-006
9.391072e-004,-4.275467e-006
1.030350e-003,-2.437157e-005
1.025974e-003,-4.835723e-005
1.017709e-003,-6.634648e-005
1.058549e-003,-7.412562e-005
1.121269e-003,-7.412562e-005
1.129372e-003,-7.153257e-005
1.023868e-003,-6.683268e-005
8.018378e-004,-5.629843e-005
5.153061e-004,-3.587821e-005
2.393087e-004,-9.299492e-006
3.591673e-005,1.452411e-005
-7.444974e-005,3.121684e-005
-1.387897e-004,4.402000e-005
-2.386219e-004,5.893001e-005
-4.146248e-004,7.902610e-005
-6.322784e-004,1.067393e-004
-8.047159e-004,1.385041e-004
-8.620870e-004,1.662173e-004
-7.998540e-004,1.833962e-004
-6.789533e-004,1.858272e-004
-5.643732e-004,1.767515e-004
-4.854473e-004,1.636242e-004
-4.301830e-004,1.493625e-004
-3.614674e-004,1.338042e-004
-2.220912e-004,1.098185e-004
2.943412e-005,6.362990e-005
3.901916e-004,-1.821308e-005
8.071859e-004,-1.290658e-004
1.193550e-003,-2.323013e-004
1.461120e-003,-2.854588e-004
1.572460e-003,-2.647144e-004
1.560629e-003,-1.801163e-004
1.514278e-003,-5.937767e-005
1.534860e-003,7.043664e-005
1.681692e-003,1.830720e-004
1.918308e-003,2.555152e-004
2.130290e-003,2.791768e-004
2.174696e-003,2.600531e-004
1.943752e-003,2.132162e-004
1.418497e-003,1.542244e-004
6.857989e-004,9.393611e-005
-1.099420e-004,3.397195e-005
-8.377773e-004,-2.437157e-005
-1.434502e-003,-7.363942e-005
-1.914863e-003,-9.924574e-005
-2.311924e-003,-9.017008e-005
-2.635407e-003,-4.625038e-005
-2.857275e-003,1.889987e-005
-2.912377e-003,8.534666e-005
-2.738967e-003,1.410971e-004
-2.324403e-003,1.804790e-004
-1.707420e-003,2.043026e-004
-9.734259e-004,2.151610e-004
-2.433218e-004,2.175920e-004
3.637749e-004,2.135403e-004
7.760693e-004,2.036543e-004
9.953439e-004,1.921477e-004
1.063898e-003,1.824238e-004
1.040236e-003,1.701068e-004
9.833510e-004,1.501728e-004
9.382968e-004,1.211631e-004
9.238730e-004,8.956035e-005
9.267902e-004,6.330577e-005
9.169042e-004,4.693717e-005
8.778464e-004,3.996836e-005
8.243648e-004,3.753739e-005
7.738004e-004,3.640293e-005
7.237222e-004,3.494434e-005
6.569512e-004,3.364782e-005
5.574430e-004,3.105477e-005
4.132048e-004,2.392390e-005
1.799928e-004,7.393235e-006
-2.342461e-004,-1.902341e-005
-8.859106e-004,-4.349527e-005
-1.671765e-003,-5.597430e-005
-2.344499e-003,-5.483985e-005
-2.634596e-003,-5.013995e-005
-2.342392e-003,-4.544005e-005
-1.430612e-003,-4.074016e-005
-8.530812e-005,-3.231276e-005
1.318989e-003,-2.048200e-005
2.382141e-003,-1.205460e-005
2.909180e-003,-1.108221e-005
2.898159e-003,-1.529591e-005
2.463498e-003,-1.594417e-005
1.712646e-003,-7.840905e-006
6.994124e-004,-1.358292e-006
-4.987367e-004,-8.002969e-006
-1.701423e-003,-4.300908e-005
-2.679489e-003,-1.021629e-004
-3.220950e-003,-1.635857e-004
-3.213333e-003,-1.977814e-004
-2.673168e-003,-1.883817e-004
-1.732864e-003,-1.391138e-004
-5.820383e-004,-6.942573e-005
5.736496e-004,-1.205460e-005
1.536643e-003,1.387585e-005
2.192361e-003,4.313994e-006
2.510659e-003,-3.733679e-005
2.529135e-003,-9.697682e-005
2.336600e-003,-1.553203e-004
2.047799e-003,-1.968091e-004
1.764021e-003,-2.143121e-004
1.534374e-003,-2.026434e-004
1.347350e-003,-1.621271e-004
1.135044e-003,-9.778715e-005
7.998929e-004,-1.869928e-005
2.722080e-004,5.844381e-005
-4.159213e-004,1.211631e-004
-1.107292e-003,1.579519e-004
-1.606291e-003,1.670276e-004
-1.786670e-003,1.600588e-004
-1.639838e-003,1.535762e-004
-1.267574e-003,1.551968e-004
-8.270809e-004,1.598967e-004
-4.621099e-004,1.636242e-004
-2.519113e-004,1.610312e-004
-2.078295e-004,1.519555e-004
-2.974516e-004,1.401247e-004
-4.612996e-004,1.318594e-004
-6.368163e-004,1.302387e-004
-7.727891e-004,1.315353e-004
-8.408565e-004,1.367214e-004
-8.363186e-004,1.464453e-004
-7.750580e-004,1.543865e-004
-6.815463e-004,1.551968e-004
-5.619422e-004,1.467694e-004
-3.914495e-004,1.329939e-004
-1.339277e-004,1.190562e-004
2.148369e-004,1.086841e-004
6.159487e-004,1.009049e-004
1.008633e-003,9.296372e-005
1.332927e-003,8.064676e-005
1.553174e-003,6.055066e-005
1.692550e-003,3.818564e-005
1.811993e-003,2.343770e-005
1.956718e-003,2.230324e-005
2.135476e-003,3.348575e-005
2.290087e-003,4.855782e-005
2.315531e-003,6.444023e-005
2.108087e-003,8.097089e-005
1.592556e-003,9.588090e-005
7.710453e-004,1.069013e-004
-2.306807e-004,1.137081e-004
-1.199669e-003,1.198666e-004
-1.952138e-003,1.258630e-004
-2.382098e-003,1.315353e-004
-2.484037e-003,1.305629e-004
-2.343527e-003,1.145184e-004
-2.072715e-003,7.983643e-005
-1.763494e-003,3.267542e-005
-1.478421e-003,-1.562004e-005
-1.245371e-003,-4.965375e-005
-1.058996e-003,-6.164659e-005
-8.862347e-004,-5.176060e-005
-6.830049e-004,-2.323711e-005
-4.332623e-004,1.598270e-005
-1.562927e-004,5.439218e-005
1.116012e-004,8.323980e-005
3.401134e-004,9.750155e-005
5.135234e-004,9.361198e-005
6.397723e-004,7.546067e-005
7.477078e-004,4.985435e-005
8.718500e-004,2.716520e-005
1.029378e-003,1.112074e-005
1.202788e-003,-3.789271e-006
1.340381e-003,-2.712668e-005
1.382357e-003,-6.569822e-005
1.306510e-003,-1.107524e-004
1.132937e-003,-1.457585e-004
9.016700e-004,-1.598582e-004
6.483617e-004,-1.515928e-004
3.911640e-004,-1.217728e-004
1.312111e-004,-7.266703e-005
-1.285796e-004,-1.464765e-005
-3.650328e-004,3.510640e-005
-5.386047e-004,6.719534e-005
-6.099135e-004,8.680524e-005
-5.567560e-004,1.018773e-004
-3.767015e-004,1.143563e-004
-8.919769e-005,1.250527e-004
2.623220e-004,1.349386e-004
6.125453e-004,1.412592e-004
8.940530e-004,1.412592e-004
1.050446e-003,1.380179e-004
1.062763e-003,1.328318e-004
9.616343e-004,1.292664e-004
8.112375e-004,1.278078e-004
6.619752e-004,1.291043e-004
5.298919e-004,1.341283e-004
4.115842e-004,1.410971e-004
3.025142e-004,1.441764e-004
2.051129e-004,1.407730e-004
1.098185e-004,1.297525e-004
-1.092015e-005,1.114392e-004
-1.906506e-004,8.648111e-005
-4.666477e-004,5.552663e-005
-8.497701e-004,2.084466e-005
-1.311818e-003,-1.399939e-005
-1.802876e-003,-4.641245e-005
-2.268652e-003,-7.185670e-005
-2.643834e-003,-8.514606e-005
-2.854033e-003,-8.174268e-005
-2.849496e-003,-6.002593e-005
-2.633786e-003,-2.534396e-005
-2.233646e-003,1.371378e-005
-1.673872e-003,4.353380e-005
-9.567332e-004,5.909207e-005
-1.018388e-004,6.071273e-005
7.757451e-004,5.617490e-005
1.474248e-003,5.163707e-005
1.809886e-003,5.131293e-005
1.689471e-003,5.487837e-005
1.172157e-003,6.038860e-005
4.686312e-004,6.087479e-005
-1.478653e-004,5.244739e-005
-4.807474e-004,3.624086e-005
-4.859335e-004,1.922400e-005
-2.519113e-004,2.369210e-006
7.643306e-005,-1.432352e-005
3.738230e-004,-3.020592e-005
5.681394e-004,-4.511592e-005
6.431757e-004,-5.889147e-005
6.190279e-004,-6.958779e-005
5.331332e-004,-7.574627e-005
4.342734e-004,-7.396355e-005
3.814400e-004,-6.456376e-005
4.431869e-004,-5.208473e-005
6.833678e-004,-3.814712e-005
1.129210e-003,-2.194059e-005
1.729825e-003,-2.330684e-006
2.358479e-003,1.776542e-005
2.855698e-003,3.186510e-005
3.072219e-003,4.094075e-005
2.884870e-003,5.147500e-005
2.225261e-003,6.930219e-005
1.130993e-003,9.588090e-005
-2.143121e-004,1.210010e-004
-1.503541e-003,1.363972e-004
-2.466534e-003,1.354248e-004
-2.946735e-003,1.208390e-004
-2.913187e-003,9.717742e-005
-2.457459e-003,6.816773e-005
-1.767222e-003,3.559260e-005
-1.058672e-003,6.096713e-006
-4.964678e-004,-1.480971e-005
-1.447861e-004,-2.761287e-005
2.473422e-005,-3.263690e-005
8.664317e-005,-3.134038e-005
1.116012e-004,-2.501983e-005
1.409351e-004,-1.545797e-005
1.809652e-004,-3.465141e-006
2.107852e-004,1.322759e-005
1.984682e-004,3.267542e-005
1.385041e-004,5.374392e-005
6.995045e-005,7.432621e-005
4.094075e-005,9.328785e-005
7.853991e-005,1.103047e-004
1.863134e-004,1.226217e-004
3.550234e-004,1.308870e-004
5.626291e-004,1.385041e-004
7.703970e-004,1.493625e-004
9.420243e-004,1.587622e-004
1.054012e-003,1.639483e-004
1.094042e-003,1.634621e-004
1.039750e-003,1.569795e-004
8.781705e-004,1.485521e-004
6.235657e-004,1.349386e-004
3.232586e-004,1.103047e-004
3.510640e-005,7.157111e-005
-2.071812e-004,2.295151e-005
-4.110594e-004,-2.631635e-005
-6.176926e-004,-5.970180e-005
-8.675972e-004,-6.748093e-005
-1.139219e-003,-5.111234e-005
-1.333535e-003,-2.242678e-005
-1.320570e-003,7.555300e-006
-1.009891e-003,3.818564e-005
-4.058733e-004,6.184718e-005
3.676645e-004,7.448828e-005
1.111383e-003,7.691926e-005
1.656410e-003,7.108490e-005
1.942294e-003,6.022653e-005
2.015871e-003,4.936815e-005
1.958987e-003,4.142695e-005
1.807455e-003,3.510640e-005
1.538102e-003,3.413401e-005
1.119162e-003,4.110282e-005
5.728393e-004,5.115087e-005
-2.745081e-005,5.795762e-005
-5.912759e-004,5.876794e-005
-1.048138e-003,5.325772e-005
-1.375834e-003,4.272347e-005
-1.588464e-003,2.003433e-005
-1.705637e-003,-2.372330e-005
-1.714388e-003,-9.049421e-005
-1.581333e-003,-1.718510e-004
-1.299987e-003,-2.462390e-004
-9.141100e-004,-2.851347e-004
-5.131605e-004,-2.655248e-004
-1.810887e-004,-1.875713e-004
6.184718e-005,-7.833932e-005
2.650771e-004,2.619281e-005
5.266506e-004,9.555677e-005
9.050734e-004,1.167873e-004
1.336006e-003,9.539470e-005
1.656085e-003,5.504044e-005
1.671158e-003,2.052053e-005
1.254487e-003,6.258778e-006
4.326527e-004,1.160693e-005
-6.257959e-004,2.716520e-005
-1.699641e-003,4.402000e-005
-2.620335e-003,5.585077e-005
-3.308142e-003,5.925414e-005
-3.735510e-003,5.649903e-005
-3.882018e-003,5.115087e-005
-3.718493e-003,4.580272e-005
-3.209768e-003,3.834771e-005
-2.346930e-003,2.992031e-005
-1.195617e-003,2.246531e-005
7.529860e-005,2.100672e-005
1.198736e-003,2.424803e-005
1.925439e-003,2.311357e-005
2.141149e-003,1.274139e-005
1.886057e-003,-5.479652e-007
1.329037e-003,-7.030578e-006
6.979537e-004,-7.840905e-006
1.872858e-004,-6.706447e-006
-9.649063e-005,-4.275467e-006
-1.433275e-004,1.558884e-006
-7.840905e-006,1.193106e-005
2.334744e-004,2.765140e-005
5.094717e-004,4.450619e-005
7.757451e-004,5.747142e-005
1.004258e-003,6.427816e-005
1.181071e-003,6.476436e-005
1.299541e-003,6.362990e-005
1.364691e-003,6.670914e-005
1.395160e-003,7.221937e-005
1.417363e-003,7.465034e-005
1.445400e-003,7.481241e-005
1.475382e-003,7.562274e-005
1.490454e-003,8.129502e-005
1.466955e-003,9.685329e-005
1.380088e-003,1.175977e-004
1.226773e-003,1.354248e-004
1.012847e-003,1.425557e-004
7.561353e-004,1.423936e-004
4.888894e-004,1.419075e-004
2.474120e-004,1.472556e-004
6.281957e-005,1.620035e-004
-4.884343e-005,1.793446e-004
-7.898758e-005,1.924718e-004
-2.826113e-005,1.979821e-004
8.242948e-005,2.021958e-004
2.195368e-004,2.093266e-004
3.383307e-004,2.201850e-004
3.874364e-004,2.337985e-004
3.274723e-004,2.487085e-004
1.498487e-004,2.592428e-004
-1.165867e-004,2.607013e-004
-4.060353e-004,2.511395e-004
-6.366542e-004,2.290986e-004
-7.577170e-004,1.994406e-004
-7.778131e-004,1.686482e-004
-7.483172e-004,1.423936e-004
-7.219006e-004,1.195424e-004
-7.162283e-004,9.588090e-005
-7.180110e-004,6.768153e-005
-6.992114e-004,3.948217e-005
-6.398956e-004,1.322759e-005
-5.313118e-004,-1.092015e-005
-3.838324e-004,-3.506787e-005
-2.241981e-004,-5.727082e-005
-7.995997e-005,-8.336334e-005
2.943412e-005,-1.242038e-004
9.977046e-005,-1.828714e-004
1.354248e-004,-2.462390e-004
1.496866e-004,-2.932379e-004
1.568175e-004,-3.063652e-004
1.613553e-004,-2.783279e-004
1.602208e-004,-2.177155e-004
1.469315e-004,-1.426792e-004
1.208390e-004,-7.201877e-005
8.550872e-005,-1.610623e-005
4.742337e-005,2.327564e-005
5.610517e-006,4.855782e-005
-4.074016e-005,6.217131e-005
-9.000801e-005,6.573675e-005
-1.415448e-004,6.119892e-005
-1.942160e-004,5.163707e-005
-2.434839e-004,4.126489e-005
-2.768693e-004,3.218923e-005
-2.887001e-004,2.635488e-005
-2.899966e-004,1.971020e-005
-2.891863e-004,8.851824e-006
-2.809209e-004,-9.623623e-006
-2.472113e-004,-3.733679e-005
-1.632615e-004,-6.748093e-005
-2.469570e-005,-8.709084e-005
1.422316e-004,-8.692878e-005
2.936006e-004,-6.699474e-005
3.942432e-004,-3.620233e-005
4.454558e-004,-1.043395e-005
4.704139e-004,5.448451e-006
4.822447e-004,1.306552e-005
4.824068e-004,1.922400e-005
4.918065e-004,3.089270e-005
5.456123e-004,4.953022e-005
6.535478e-004,7.302969e-005
8.088066e-004,9.393611e-005
1.028729e-003,1.099806e-004
1.359667e-003,1.210010e-004
1.829334e-003,1.261871e-004
2.353131e-003,1.253768e-004
2.726369e-003,1.156529e-004
2.764941e-003,1.005808e-004
2.414392e-003,8.145709e-005
1.735336e-003,6.103685e-005
8.290648e-004,3.980630e-005
-1.942160e-004,2.084466e-005
-1.204693e-003,7.393235e-006
-2.085680e-003,-1.196226e-006
-2.749015e-003,-4.275467e-006
-3.138621e-003,-2.654814e-006
-3.234077e-003,-6.176923e-008
-3.055319e-003,-1.034161e-006
-2.665065e-003,-4.275467e-006
-2.156179e-003,-7.840905e-006
-1.632383e-003,-7.192643e-006
-1.174873e-003,-3.465141e-006
-8.301602e-004,-3.627206e-006
-6.099135e-004,-1.173047e-005
-4.951712e-004,-2.031993e-005
-4.475240e-004,-2.161646e-005
-4.285624e-004,-1.173047e-005
-3.980942e-004,3.341602e-006
-3.177098e-004,1.468617e-005
-1.674752e-004,1.792748e-005
6.006446e-005,1.468617e-005
3.543751e-004,1.176900e-005
6.705647e-004,8.041497e-006
9.352176e-004,5.124321e-006
1.071515e-003,4.638125e-006
1.033753e-003,9.824214e-006
8.125340e-004,2.230324e-005
4.427008e-004,4.272347e-005
6.420843e-006,6.670914e-005
-3.619536e-004,9.020861e-005
-5.334187e-004,1.143563e-004
-4.711856e-004,1.415833e-004
-2.642282e-004,1.717275e-004
-8.077029e-005,2.026820e-004
-6.067420e-005,2.253711e-004
-2.423494e-004,2.352571e-004
-5.497872e-004,2.331502e-004
-8.475012e-004,2.213195e-004
-1.015563e-003,2.017096e-004
-9.752086e-004,1.795066e-004
-7.043975e-004,1.592484e-004
-2.417011e-004,1.456350e-004
3.203414e-004,1.359110e-004
8.687708e-004,1.265113e-004
1.317692e-003,1.111150e-004
1.619621e-003,8.826383e-005
1.755918e-003,6.136099e-005
1.737442e-003,4.045456e-005
1.587856e-003,2.651694e-005
1.332278e-003,1.711715e-005
9.964784e-004,7.879431e-006
6.041179e-004,-6.868512e-006
1.783722e-004,-2.631635e-005
-2.624455e-004,-4.268495e-005
-7.068285e-004,-5.321919e-005
-1.160287e-003,-5.613637e-005
-1.615205e-003,-5.030201e-005
-2.000434e-003,-3.814712e-005
-2.206581e-003,-1.967167e-005
-2.133165e-003,7.485573e-007
-1.738698e-003,1.727922e-005
-1.076013e-003,2.878586e-005
-2.802727e-004,3.802358e-005
4.757621e-004,4.418206e-005
1.035536e-003,4.272347e-005
1.301486e-003,3.543053e-005
1.247518e-003,2.975825e-005
9.572585e-004,3.170303e-005
5.960146e-004,4.288554e-005
3.112657e-004,5.698522e-005
1.759412e-004,7.335382e-005
2.002510e-004,9.685329e-005
3.697713e-004,1.258630e-004
6.561409e-004,1.561692e-004
1.007337e-003,1.786963e-004
1.365826e-003,1.856651e-004
1.676506e-003,1.746447e-004
1.890108e-003,1.443384e-004
1.967900e-003,9.960840e-005
1.897077e-003,5.374392e-005
1.686392e-003,1.549650e-005
1.355454e-003,-1.480971e-005
9.194972e-004,-4.754691e-005
3.752816e-004,-9.195280e-005
-2.775176e-004,-1.462447e-004
-9.812050e-004,-1.966470e-004
-1.634652e-003,-2.272773e-004
-2.127493e-003,-2.295462e-004
-2.385502e-003,-2.011848e-004
-2.383071e-003,-1.481895e-004
-2.150345e-003,-8.336334e-005
-1.780187e-003,-1.497178e-005
-1.405330e-003,4.564065e-005
-1.160125e-003,8.648111e-005
-1.120581e-003,1.012291e-004
-1.264657e-003,9.717742e-005
-1.471128e-003,8.388807e-005
-1.564964e-003,6.914012e-005
-1.380534e-003,5.682316e-005
-8.270809e-004,5.293359e-005
6.832980e-005,5.487837e-005
1.149792e-003,5.585077e-005
2.163838e-003,5.228533e-005
2.892163e-003,4.207521e-005
3.216296e-003,2.522042e-005
3.153576e-003,5.934647e-006
2.835278e-003,-9.299492e-006
2.416013e-003,-1.464765e-005
1.977300e-003,-7.840905e-006
1.540046e-003,8.041497e-006
1.122890e-003,2.684107e-005
7.467354e-004,4.337174e-005
4.436731e-004,5.131293e-005
2.373639e-004,5.115087e-005
1.211631e-004,4.402000e-005
5.520250e-005,3.413401e-005
-4.599598e-006,2.667901e-005
-8.320127e-005,2.100672e-005
-1.726613e-004,1.565857e-005
-2.514251e-004,1.257933e-005
-3.050687e-004,1.646889e-005
-3.297026e-004,3.008238e-005
-3.309991e-004,4.953022e-005
-3.204648e-004,6.362990e-005
-3.173856e-004,6.411610e-005
-3.485022e-004,5.293359e-005
-4.285624e-004,3.769945e-005
-5.390910e-004,2.408596e-005
-6.243372e-004,1.419998e-005
-6.034308e-004,1.193106e-005
-4.334243e-004,1.614476e-005
-1.524032e-004,2.149292e-005
1.372075e-004,2.035846e-005
3.355755e-004,1.144487e-005
3.937570e-004,-1.682422e-006
3.287688e-004,-1.027188e-005
2.064095e-004,-5.734055e-006
1.203528e-004,1.306552e-005
1.738343e-004,3.575467e-005
4.469145e-004,5.358185e-005
9.379727e-004,6.622294e-005
1.540533e-003,7.335382e-005
2.075836e-003,7.546067e-005
2.349727e-003,7.027457e-005
2.224450e-003,5.795762e-005
1.673264e-003,4.029249e-005
8.055652e-004,2.019640e-005
-1.549962e-004,-1.682422e-006
-9.515471e-004,-1.999580e-005
-1.415054e-003,-2.453363e-005
-1.506459e-003,-9.947754e-006
-1.304849e-003,1.792748e-005
-9.573814e-004,5.358185e-005
-6.142893e-004,8.891209e-005
-3.703810e-004,1.182459e-004
-2.347323e-004,1.386661e-004
-1.643960e-004,1.469315e-004
-1.462447e-004,1.430419e-004
-2.259808e-004,1.295905e-004
-4.392587e-004,1.156529e-004
-7.424828e-004,1.078737e-004
-1.021235e-003,1.070634e-004
-1.170335e-003,1.159770e-004
-1.150401e-003,1.351007e-004
-9.917392e-004,1.548727e-004
-7.583653e-004,1.657311e-004
-5.207775e-004,1.658931e-004
-3.327818e-004,1.582760e-004
-2.224154e-004,1.449867e-004
-1.890299e-004,1.333180e-004
-2.023193e-004,1.263492e-004
-2.143121e-004,1.224596e-004
-1.938919e-004,1.161391e-004
-1.428413e-004,1.062531e-004
-1.154523e-004,9.247753e-005
-1.854645e-004,7.772959e-005
-3.985803e-004,5.811968e-005
-7.465344e-004,2.343770e-005
-1.183787e-003,-3.620233e-005
-1.645187e-003,-1.162626e-004
-2.034306e-003,-1.919471e-004
-2.240939e-003,-2.331117e-004
-2.184540e-003,-2.250084e-004
-1.851982e-003,-1.752544e-004
-1.306470e-003,-1.049180e-004
-6.655018e-004,-3.620233e-005
-4.527799e-005,1.484824e-005
4.647416e-004,4.402000e-005
8.216097e-004,5.860587e-005
1.011875e-003,7.092283e-005
1.048177e-003,8.259154e-005
9.679548e-004,9.344992e-005
8.290648e-004,1.000946e-004
6.924436e-004,1.013911e-004
5.997421e-004,9.588090e-005
5.610085e-004,8.259154e-005
5.642498e-004,6.654707e-005
5.887217e-004,5.601283e-005
6.164348e-004,5.666109e-005
6.339379e-004,6.606088e-005
6.298863e-004,8.016056e-005
6.005524e-004,9.328785e-005
5.517707e-004,9.717742e-005
4.901859e-004,9.166720e-005
4.311941e-004,8.064676e-005
3.879227e-004,6.654707e-005
3.652335e-004,5.358185e-005
3.563199e-004,4.175108e-005
3.616681e-004,3.494434e-005
3.854917e-004,3.008238e-005
4.298976e-004,2.473422e-005
4.929410e-004,1.922400e-005
5.812666e-004,1.549650e-005
6.997365e-004,1.193106e-005
8.345749e-004,5.610517e-006
9.514242e-004,-3.141010e-006
1.019654e-003,-1.173047e-005
1.028891e-003,-1.805102e-005
9.914543e-004,-1.869928e-005
9.237109e-004,-1.740276e-005
8.279303e-004,-1.140634e-005
6.804507e-004,3.827798e-006
4.694415e-004,2.619281e-005
2.378501e-004,4.580272e-005
7.432621e-005,5.341978e-005
5.763348e-005,4.385793e-005
2.196988e-004,2.133085e-005
5.423710e-004,-7.354708e-006
9.684410e-004,-3.668853e-005
1.407639e-003,-6.229485e-005
1.730798e-003,-7.363942e-005
1.777149e-003,-6.083626e-005
1.407153e-003,-1.869928e-005
5.853183e-004,4.450619e-005
-5.672903e-004,1.127357e-004
-1.772732e-003,1.696206e-004
-2.741722e-003,2.104611e-004
-3.284642e-003,2.336364e-004
-3.358544e-003,2.350950e-004
-3.043164e-003,2.137024e-004
-2.476096e-003,1.786963e-004
-1.787480e-003,1.417454e-004
-1.085737e-003,1.091703e-004
-4.694028e-004,7.724339e-005
-3.425755e-005,3.218923e-005
1.671896e-004,-3.247483e-005
1.804790e-004,-1.097800e-004
1.219734e-004,-1.830335e-004
9.231547e-005,-2.288980e-004
1.274836e-004,-2.345703e-004
1.893926e-004,-2.042640e-004
1.991165e-004,-1.470550e-004
9.247753e-005,-7.671866e-005
-1.313347e-004,-4.113402e-006
-3.933942e-004,5.585077e-005
-5.682627e-004,9.328785e-005
-5.501113e-004,1.059289e-004
-3.160891e-004,9.669123e-005
3.024445e-005,7.302969e-005
3.167760e-004,4.709924e-005
4.407560e-004,2.797553e-005
4.185530e-004,1.695509e-005
3.198552e-004,1.452411e-005
2.018716e-004,1.971020e-005
9.798775e-005,3.186510e-005
4.369587e-005,5.115087e-005
6.589881e-005,7.140904e-005
1.707551e-004,7.870197e-005
3.710678e-004,6.168512e-005
6.960090e-004,2.165498e-005
1.146875e-003,-3.134038e-005
1.669213e-003,-7.882551e-005
2.169510e-003,-1.076731e-004
2.539993e-003,-1.101041e-004
2.663163e-003,-8.935975e-005
2.419740e-003,-5.710876e-005
1.708109e-003,-2.647842e-005
4.937514e-004,-3.627206e-006
-1.072286e-003,1.776542e-005
-2.660203e-003,4.434413e-005
-3.952354e-003,7.627100e-005
-4.702560e-003,1.124116e-004
-4.802231e-003,1.501728e-004
-4.302579e-003,1.817755e-004
-3.386582e-003,1.966855e-004
-2.285021e-003,1.919856e-004
-1.200641e-003,1.736723e-004
-2.684419e-004,1.532520e-004
4.571246e-004,1.425557e-004
9.888613e-004,1.438522e-004
1.368581e-003,1.506590e-004
1.629020e-003,1.534141e-004
1.794328e-003,1.524417e-004
1.882005e-003,1.529279e-004
1.914904e-003,1.568175e-004
1.921873e-003,1.628139e-004
1.923980e-003,1.704310e-004
1.920415e-003,1.811273e-004
1.892377e-003,1.887443e-004
1.816044e-003,1.893926e-004
1.676992e-003,1.848548e-004
1.479920e-003,1.754550e-004
1.252218e-003,1.605450e-004
1.022571e-003,1.354248e-004
8.216097e-004,8.939829e-005
6.760749e-004,2.003433e-005
6.002283e-004,-5.791909e-005
5.830494e-004,-1.170729e-004
5.909906e-004,-1.349001e-004
5.856425e-004,-1.070249e-004
5.386435e-004,-4.317114e-005
4.410801e-004,3.332369e-005
3.161277e-004,9.798775e-005
2.073818e-004,1.355869e-004
1.529279e-004,1.448246e-004
1.683241e-004,1.328318e-004
2.412535e-004,1.056048e-004
3.449753e-004,6.816773e-005
4.509661e-004,2.327564e-005
5.412365e-004,-2.129233e-005
6.075212e-004,-6.261898e-005
6.452825e-004,-9.438377e-005
6.465790e-004,-1.089697e-004
6.110867e-004,-1.031353e-004
5.336195e-004,-7.720485e-005
4.042912e-004,-3.992984e-005
2.166196e-004,-5.571990e-006
-2.469570e-005,1.679302e-005
-3.031239e-004,2.473422e-005
-6.021343e-004,2.262737e-005
-9.147582e-004,1.176900e-005
-1.247964e-003,-3.465141e-006
-1.606291e-003,-2.031993e-005
-1.981148e-003,-3.668853e-005
-2.325375e-003,-5.095028e-005
-2.558263e-003,-5.953974e-005
-2.603480e-003,-6.796713e-005
-2.423911e-003,-8.239095e-005
-2.039330e-003,-1.020008e-004
-1.508079e-003,-1.195039e-004
-9.103825e-004,-1.250141e-004
-3.319715e-004,-1.161005e-004
1.488763e-004,-9.243900e-005
4.887274e-004,-5.694669e-005
6.883919e-004,-1.902341e-005
7.770417e-004,1.144487e-005
7.961654e-004,3.348575e-005
7.765555e-004,4.677511e-005
7.386322e-004,5.374392e-005
7.047605e-004,5.260946e-005
6.948745e-004,4.353380e-005
7.180499e-004,2.894792e-005
7.652109e-004,1.582063e-005
8.123720e-004,9.013888e-006
8.229063e-004,8.203561e-006
7.739624e-004,1.695509e-005
6.655407e-004,3.316162e-005
5.271368e-004,5.163707e-005
4.000776e-004,6.768153e-005
3.128864e-004,8.048469e-005
2.607013e-004,8.777764e-005
2.036543e-004,8.664317e-005
9.442231e-005,7.935023e-005
-9.341139e-005,6.930219e-005
-3.522297e-004,6.103685e-005
-6.363300e-004,5.714729e-005
-8.671110e-004,5.617490e-005
-9.773155e-004,5.617490e-005
-9.481437e-004,5.390598e-005
-8.095779e-004,4.726130e-005
-6.175305e-004,4.045456e-005
-4.269418e-004,3.073064e-005
-2.689281e-004,2.149292e-005
-1.494860e-004,1.792748e-005
-6.553616e-005,1.954813e-005
-1.853721e-005,2.441009e-005
-4.437533e-006,2.829966e-005
-1.480971e-005,2.797553e-005
-4.284701e-005,2.813760e-005
-7.914964e-005,3.121684e-005
-1.195039e-004,3.850977e-005
-1.632615e-004,5.017848e-005
-2.089639e-004,6.362990e-005
-2.491561e-004,7.092283e-005
-2.843243e-004,6.832980e-005
-3.225717e-004,5.990240e-005
-3.642225e-004,5.487837e-005
-3.885323e-004,6.038860e-005
-3.786463e-004,7.918817e-005
-3.308370e-004,1.043083e-004
-2.493182e-004,1.281319e-004
-1.313347e-004,1.428798e-004
2.165498e-005,1.404489e-004
2.012234e-004,1.255388e-004
3.948915e-004,1.137081e-004
5.914768e-004,1.163011e-004
7.849829e-004,1.328318e-004
9.716824e-004,1.556830e-004
1.139096e-003,1.739964e-004
1.255621e-003,1.741585e-004
1.283334e-003,1.582760e-004
1.202626e-003,1.359110e-004
1.017547e-003,1.143563e-004
7.550008e-004,9.426025e-005
4.618245e-004,8.064676e-005
1.895547e-004,7.302969e-005
-2.647842e-005,6.719534e-005
-1.626133e-004,6.200925e-005
-2.136638e-004,5.649903e-005
-1.979435e-004,5.196120e-005
-1.472171e-004,4.888196e-005
-9.908367e-005,5.001641e-005
-8.498399e-005,5.471631e-005
-1.229073e-004,5.941620e-005
-2.298704e-004,5.893001e-005
-4.050630e-004,4.888196e-005
-6.259579e-004,2.489629e-005
-8.533355e-004,-1.010982e-005
-1.047652e-003,-4.932962e-005
-1.177628e-003,-8.530812e-005
-1.222358e-003,-1.120489e-004
-1.184435e-003,-1.229073e-004
-1.119933e-003,-1.144799e-004
-1.118636e-003,-8.790116e-005
-1.247478e-003,-4.657451e-005
-1.487983e-003,-2.238345e-007
-1.740157e-003,3.737532e-005
-1.878399e-003,5.893001e-005
-1.803687e-003,6.784360e-005
-1.473397e-003,6.897806e-005
-9.123273e-004,6.314371e-005
-2.146362e-004,5.001641e-005
4.663623e-004,3.202716e-005
9.695755e-004,1.290346e-005
1.195495e-003,-6.382316e-006
1.127751e-003,-2.404744e-005
8.284165e-004,-3.425755e-005
4.229288e-004,-3.166451e-005
6.233338e-005,-1.562004e-005
-1.308485e-004,1.176900e-005
-1.190177e-004,3.753739e-005
5.001641e-005,5.082674e-005
2.929523e-004,5.034054e-005
5.213025e-004,3.818564e-005
6.631097e-004,2.116879e-005
6.955228e-004,4.800190e-006
6.410688e-004,-4.761663e-006
5.394538e-004,-5.409925e-006
4.320044e-004,3.989864e-006
3.637749e-004,2.473422e-005
3.989431e-004,5.309565e-005
6.140039e-004,8.161915e-005
1.035860e-003,1.044704e-004
1.553012e-003,1.182459e-004
1.942132e-003,1.175977e-004
1.981514e-003,1.041462e-004
1.575377e-003,8.372600e-005
8.118858e-004,6.314371e-005
-5.062615e-005,4.677511e-005
-6.852738e-004,3.656499e-005
-8.486356e-004,3.218923e-005
-4.378001e-004,3.186510e-005
4.794896e-004,3.251336e-005
1.670995e-003,3.348575e-005
2.848081e-003,3.380988e-005
3.775426e-003,3.397195e-005
4.291772e-003,3.008238e-005
4.307817e-003,2.295151e-005
3.773968e-003,1.387585e-005
2.703194e-003,6.420843e-006
1.217212e-003,4.313994e-006
-4.235384e-004,7.879431e-006
-1.860247e-003,1.549650e-005
-2.868295e-003,2.586868e-005
-3.385771e-003,3.462021e-005
-3.469721e-003,3.769945e-005
-3.234564e-003,3.510640e-005
-2.788883e-003,2.765140e-005
-2.204150e-003,2.068259e-005
-1.532389e-003,2.035846e-005
-8.371290e-004,3.073064e-005
-1.929195e-004,4.596478e-005
3.310377e-004,5.698522e-005
6.895264e-004,5.747142e-005
8.721742e-004,4.499239e-005
8.961599e-004,2.343770e-005
7.921138e-004,-7.100305e-007
6.046041e-004,-2.096819e-005
3.835469e-004,-3.020592e-005
1.736723e-004,-1.950961e-005
4.800190e-006,1.355172e-005
-1.023250e-004,6.362990e-005
-1.344139e-004,1.174356e-004
-9.324932e-005,1.555209e-004
-3.490581e-005,1.686482e-004
-5.483985e-005,1.550348e-004
-1.985918e-004,1.244044e-004
-4.277521e-004,9.539470e-005
-6.432989e-004,8.388807e-005
-7.475069e-004,9.280166e-005
-7.079630e-004,1.187321e-004
-5.695592e-004,1.501728e-004
-4.097628e-004,1.731861e-004
-2.862691e-004,1.838824e-004
-2.196603e-004,1.838824e-004
-1.992400e-004,1.756170e-004
-1.882196e-004,1.650828e-004
-1.420310e-004,1.573037e-004
-3.830918e-005,1.501728e-004
1.128978e-004,1.363972e-004
2.712356e-004,1.116012e-004
3.765781e-004,8.064676e-005
3.935950e-004,5.196120e-005
3.299032e-004,3.089270e-005
2.192126e-004,1.355172e-005
1.090082e-004,-6.220251e-006
4.969228e-005,-3.733679e-005
7.594687e-005,-8.790116e-005
1.903650e-004,-1.653684e-004
3.478925e-004,-2.611490e-004
4.587452e-004,-3.457470e-004
4.452938e-004,-3.857772e-004
3.013797e-004,-3.627639e-004
7.821578e-005,-2.848105e-004
-1.770371e-004,-1.788198e-004
-4.437965e-004,-7.428768e-005
-7.308142e-004,1.112074e-005
-1.056079e-003,6.735740e-005
-1.393013e-003,9.798775e-005
-1.648428e-003,1.099806e-004
-1.708554e-003,1.117633e-004
-1.502245e-003,1.075496e-004
-1.033390e-003,9.523264e-005
-3.818876e-004,7.027457e-005
3.342790e-004,3.753739e-005
9.992335e-004,3.989864e-006
1.533240e-003,-1.837515e-005
1.895943e-003,-2.275091e-005
2.079239e-003,-1.205460e-005
2.106790e-003,1.176900e-005
2.009065e-003,4.515445e-005
1.816044e-003,7.481241e-005
1.550094e-003,8.486046e-005
1.241684e-003,6.800567e-005
9.476966e-004,2.927205e-005
7.170775e-004,-1.675450e-005
5.597120e-004,-5.467778e-005
4.376767e-004,-7.250496e-005
2.872800e-004,-7.250496e-005
6.703327e-005,-5.532604e-005
-2.122052e-004,-2.242678e-005
-4.916058e-004,2.181705e-005
-6.941874e-004,6.914012e-005
-7.612825e-004,1.106288e-004
-6.886772e-004,1.420695e-004
-5.348772e-004,1.608691e-004
-3.833462e-004,1.665414e-004
-3.063652e-004,1.586002e-004
-3.274337e-004,1.433660e-004
-4.339106e-004,1.281319e-004
-6.024585e-004,1.198666e-004
-8.097399e-004,1.172735e-004
-1.014753e-003,1.182459e-004
-1.169039e-003,1.179218e-004
-1.209069e-003,1.109530e-004
-1.073906e-003,1.007429e-004
-7.314624e-004,8.567078e-005
-2.282497e-004,6.849186e-005
2.825802e-004,5.325772e-005
6.141660e-004,4.288554e-005
6.684579e-004,4.094075e-005
4.947237e-004,4.969228e-005
2.511395e-004,6.622294e-005
1.059289e-004,8.307774e-005
1.623277e-004,9.490851e-005
4.153117e-004,9.944633e-005
7.652109e-004,9.896014e-005
1.082535e-003,1.012291e-004
1.264859e-003,1.090082e-004
1.259187e-003,1.171115e-004
1.072163e-003,1.184080e-004
7.603490e-004,1.073875e-004
4.096394e-004,8.388807e-005
8.858796e-005,5.504044e-005
-1.859507e-004,3.040651e-005
-4.512515e-004,1.744128e-005
-7.629031e-004,2.246531e-005
-1.150725e-003,4.061663e-005
-1.598674e-003,6.281957e-005
-2.015506e-003,7.886404e-005
-2.256983e-003,8.145709e-005
-2.188916e-003,6.930219e-005
-1.765439e-003,4.256141e-005
-1.073096e-003,4.476060e-006
-2.934000e-004,-4.074016e-005
3.548613e-004,-9.162867e-005
7.010330e-004,-1.430034e-004
6.927677e-004,-1.919471e-004
4.055878e-004,-2.381357e-004
-5.896120e-006,-2.687660e-004
-3.877220e-004,-2.729797e-004
-6.358439e-004,-2.459148e-004
-7.139593e-004,-1.930815e-004
-6.361680e-004,-1.305243e-004
-4.483344e-004,-7.315322e-005
-2.105846e-004,-2.566809e-005
2.684107e-005,1.760335e-005
2.370398e-004,5.941620e-005
4.060740e-004,9.879807e-005
5.324850e-004,1.286181e-004
6.076833e-004,1.490383e-004
6.044420e-004,1.610312e-004
4.812723e-004,1.686482e-004
2.159713e-004,1.722137e-004
-1.454343e-004,1.723757e-004
-4.859335e-004,1.692965e-004
-6.815463e-004,1.615174e-004
-6.674466e-004,1.516314e-004
-4.647030e-004,1.391524e-004
-1.618029e-004,1.291043e-004
1.357490e-004,1.305629e-004
3.623164e-004,1.446626e-004
5.072028e-004,1.618415e-004
5.901803e-004,1.680000e-004
6.434998e-004,1.553589e-004
6.877437e-004,1.287802e-004
7.258290e-004,9.231547e-005
7.493285e-004,5.309565e-005
7.439803e-004,2.149292e-005
7.008709e-004,5.610517e-006
6.151383e-004,6.420843e-006
5.029890e-004,1.857574e-005
3.944053e-004,3.462021e-005
3.237448e-004,4.823369e-005
3.033245e-004,5.795762e-005
3.099692e-004,6.930219e-005
2.991108e-004,8.842590e-005
2.307192e-004,1.107909e-004
1.172735e-004,1.294284e-004
2.392390e-005,1.376937e-004
8.365628e-006,1.346145e-004
7.935023e-005,1.239182e-004
1.880961e-004,1.124116e-004
2.581083e-004,1.022014e-004
2.287745e-004,9.280166e-005
8.680524e-005,8.388807e-005
-1.391138e-004,7.983643e-005
-3.995527e-004,8.259154e-005
-6.209339e-004,9.215340e-005
-7.116904e-004,1.005808e-004
-5.972724e-004,9.733949e-005
-2.553146e-004,7.448828e-005
3.065658e-004,3.753739e-005
1.040722e-003,-3.789271e-006
1.833061e-003,-3.749886e-005
2.520707e-003,-5.629843e-005
2.906587e-003,-5.451571e-005
2.823447e-003,-3.522994e-005
2.244384e-003,-1.059601e-005
1.312506e-003,7.393235e-006
2.754493e-004,1.047248e-005
-5.987309e-004,-1.520357e-006
-1.143108e-003,-1.950961e-005
-1.340990e-003,-3.312309e-005
-1.289939e-003,-4.219875e-005
-1.129495e-003,-4.916756e-005
-9.543022e-004,-5.694669e-005
-7.714925e-004,-6.780506e-005
-5.510838e-004,-7.947377e-005
-2.836761e-004,-8.352540e-005
-1.513384e-005,-7.282909e-005
1.680000e-004,-4.608832e-005
1.893926e-004,-1.027188e-005
3.154097e-005,2.619281e-005
-2.626076e-004,5.779555e-005
-6.251476e-004,8.388807e-005
-9.416611e-004,9.620503e-005
-1.070665e-003,9.474644e-005
-9.225374e-004,8.567078e-005
-5.215878e-004,7.124698e-005
1.558884e-006,5.293359e-005
4.595555e-004,3.348575e-005
6.951987e-004,1.760335e-005
6.744543e-004,1.720949e-006
4.778689e-004,-1.772689e-005
2.339606e-004,-4.041603e-005
4.969228e-005,-6.180866e-005
-2.437157e-005,-7.898758e-005
5.610517e-006,-9.389758e-005
8.793970e-005,-1.079973e-004
1.490383e-004,-1.272830e-004
1.214872e-004,-1.530514e-004
-2.712668e-005,-1.778474e-004
-2.885380e-004,-1.951884e-004
-6.188271e-004,-1.987538e-004
-9.434438e-004,-1.822232e-004
-1.182976e-003,-1.462447e-004
-1.289939e-003,-9.519411e-005
-1.257688e-003,-3.539201e-005
-1.104699e-003,1.760335e-005
-8.496080e-004,5.034054e-005
-5.053813e-004,5.747142e-005
-9.211487e-005,5.001641e-005
3.499994e-004,4.353380e-005
7.679660e-004,4.969228e-005
1.129534e-003,7.157111e-005
1.416552e-003,1.077117e-004
1.621403e-003,1.472556e-004
1.756404e-003,1.785342e-004
1.849592e-003,1.924718e-004
1.916687e-003,1.889064e-004
1.940835e-003,1.769136e-004
1.876819e-003,1.644345e-004
1.675695e-003,1.563313e-004
1.320609e-003,1.535762e-004
8.368439e-004,1.564933e-004
2.869559e-004,1.629759e-004
-2.567732e-004,1.675138e-004
-7.152559e-004,1.639483e-004
-9.983840e-004,1.526038e-004
-1.036793e-003,1.355869e-004
-8.217327e-004,1.143563e-004
-4.147868e-004,9.426025e-005
7.384001e-005,7.691926e-005
5.379952e-004,6.411610e-005
8.812498e-004,5.828174e-005
1.000044e-003,5.633696e-005
7.844967e-004,5.568870e-005
1.586002e-004,5.358185e-005
-8.546320e-004,4.742337e-005
-2.078225e-003,3.786152e-005
-3.238777e-003,3.121684e-005
-4.046191e-003,3.316162e-005
-4.305497e-003,3.980630e-005
-3.997733e-003,4.320967e-005
-3.293232e-003,4.353380e-005
-2.477555e-003,4.774750e-005
-1.782456e-003,5.990240e-005
-1.242454e-003,7.448828e-005
-7.219006e-004,8.567078e-005
-8.174268e-005,8.891209e-005
6.934159e-004,8.226741e-005
1.467279e-003,6.800567e-005
2.046016e-003,4.985435e-005
2.276798e-003,3.656499e-005
2.111977e-003,3.980630e-005
1.630803e-003,5.860587e-005
1.007661e-003,8.437427e-005
4.441593e-004,1.034980e-004
9.717742e-005,1.111150e-004
2.278944e-005,1.140322e-004
1.714033e-004,1.218114e-004
4.329768e-004,1.365593e-004
7.021675e-004,1.571416e-004
9.235489e-004,1.816135e-004
1.092907e-003,2.025199e-004
1.234715e-003,2.135403e-004
1.356588e-003,2.120818e-004
1.436486e-003,2.025199e-004
1.435514e-003,1.953890e-004
1.315099e-003,1.961993e-004
1.053687e-003,2.057612e-004
6.665131e-004,2.111093e-004
1.973338e-004,1.992786e-004
-3.156029e-004,1.602208e-004
-8.596560e-004,9.944633e-005
-1.408895e-003,3.073064e-005
-1.895254e-003,-3.571614e-005
-2.207391e-003,-9.422171e-005
-2.211281e-003,-1.465688e-004
-1.818434e-003,-2.031296e-004
-1.030959e-003,-2.710350e-004
6.411610e-005,-3.460712e-004
1.272314e-003,-4.107352e-004
2.304511e-003,-4.397449e-004
2.863802e-003,-4.183523e-004
2.750193e-003,-3.504469e-004
1.988320e-003,-2.561249e-004
8.418679e-004,-1.585616e-004
-3.047445e-004,-7.769105e-005
-1.128847e-003,-2.501983e-005
-1.513265e-003,-1.034161e-006
-1.497383e-003,4.638125e-006
-1.208259e-003,2.045080e-006
-7.946679e-004,-2.816880e-006
-3.773498e-004,-9.461557e-006
-2.728874e-005,-1.886135e-005
2.279641e-004,-2.566809e-005
3.911640e-004,-2.664048e-005
4.804620e-004,-2.339917e-005
5.119027e-004,-1.464765e-005
4.953720e-004,1.558884e-006
4.423766e-004,3.105477e-005
3.618301e-004,7.821578e-005
2.720459e-004,1.393144e-004
1.924718e-004,2.021958e-004
1.394765e-004,2.535705e-004
1.211631e-004,2.722080e-004
1.417454e-004,2.384984e-004
1.924718e-004,1.516314e-004
2.538946e-004,3.364782e-005
3.049452e-004,-7.817725e-005
3.344411e-004,-1.452723e-004
3.420582e-004,-1.455964e-004
3.371962e-004,-8.660465e-005
3.329825e-004,6.907039e-006
3.263378e-004,1.030118e-004
3.098072e-004,1.715654e-004
2.777182e-004,1.921477e-004
2.303951e-004,1.657311e-004
1.756170e-004,1.156529e-004
1.188942e-004,6.606088e-005
6.800567e-005,3.688912e-005
3.089270e-005,3.510640e-005
9.824214e-006,5.617490e-005
-5.409925e-006,8.583285e-005
-2.842320e-005,1.073875e-004
-7.509801e-005,1.156529e-004
-1.502963e-004,1.158149e-004
-2.378116e-004,1.128978e-004
-3.159270e-004,1.088461e-004
-3.642225e-004,1.049566e-004
-3.690844e-004,1.057669e-004
-3.319715e-004,1.138701e-004
-2.710350e-004,1.279698e-004
-2.050744e-004,1.449867e-004
-1.462447e-004,1.584381e-004
-1.021629e-004,1.620035e-004
-7.056018e-005,1.524417e-004
-4.544005e-005,1.315353e-004
-2.680255e-005,1.062531e-004
-1.432352e-005,8.194328e-005
2.855406e-006,6.460230e-005
3.705119e-005,5.244739e-005
8.486046e-005,4.337174e-005
1.281319e-004,3.721326e-005
1.456350e-004,3.137890e-005
1.385041e-004,2.376183e-005
1.325077e-004,1.663096e-005
1.631380e-004,9.986280e-006
2.517877e-004,5.864920e-007
3.945674e-004,-1.173047e-005
5.639257e-004,-2.129233e-005
7.167534e-004,-2.275091e-005
8.076721e-004,-1.529591e-005
8.123720e-004,-3.951337e-006
7.259911e-004,5.124321e-006
5.674911e-004,9.662150e-006
3.623164e-004,6.096713e-006
1.386661e-004,-2.168618e-006
-8.093235e-005,-8.975361e-006
-2.896725e-004,-9.623623e-006
-4.901472e-004,-2.168618e-006
-6.747395e-004,1.355172e-005
-8.275671e-004,3.494434e-005
-9.157307e-004,5.277152e-005
-9.043860e-004,5.747142e-005
-7.802441e-004,4.742337e-005
-5.776625e-004,2.959618e-005
-3.741085e-004,1.371378e-005
-2.564491e-004,7.393235e-006
-2.945344e-004,1.403791e-005
-5.138087e-004,3.332369e-005
-8.560906e-004,5.763348e-005
-1.197886e-003,7.999850e-005
-1.406951e-003,9.766362e-005
-1.399820e-003,1.132219e-004
-1.172442e-003,1.261871e-004
-7.894817e-004,1.321835e-004
-3.399127e-004,1.300767e-004
8.437427e-005,1.214872e-004
4.063981e-004,1.065772e-004
5.785116e-004,8.340186e-005
5.981215e-004,5.439218e-005
5.036373e-004,2.019640e-005
3.585888e-004,-1.286493e-005
2.310434e-004,-3.409548e-005
1.795066e-004,-3.976777e-005
2.553532e-004,-3.377135e-005
4.754380e-004,-2.194059e-005
7.807692e-004,-8.327101e-006
1.057253e-003,4.244267e-007
1.174751e-003,7.485573e-007
1.034888e-003,-5.571990e-006
6.504686e-004,-8.002969e-006
1.461212e-004,-5.479652e-007
-3.204648e-004,1.403791e-005
-6.439472e-004,3.137890e-005
-7.904542e-004,4.142695e-005
-8.024470e-004,4.207521e-005
-7.408622e-004,3.737532e-005
-6.343853e-004,2.862379e-005
-4.903093e-004,1.954813e-005
-3.074996e-004,1.306552e-005
-9.373551e-005,9.824214e-006
1.389903e-004,1.355172e-005
3.816021e-004,2.376183e-005
6.251864e-004,3.688912e-005
8.614778e-004,4.369587e-005
1.076701e-003,3.996836e-005
1.228070e-003,2.829966e-005
1.245087e-003,1.695509e-005
1.073135e-003,1.112074e-005
7.209671e-004,1.095867e-005
2.482223e-004,1.436204e-005
-2.690902e-004,1.825161e-005
-7.633893e-004,1.808955e-005
-1.173576e-003,1.063454e-005
-1.414243e-003,-1.844488e-006
-1.407437e-003,-1.545797e-005
-1.176332e-003,-2.647842e-005
-8.552803e-004,-3.182657e-005
-6.197994e-004,-3.101624e-005
-5.924104e-004,-2.356124e-005
-7.672788e-004,-1.010982e-005
-1.015239e-003,6.420843e-006
-1.172280e-003,2.003433e-005
-1.131115e-003,2.910999e-005
-8.859106e-004,3.056858e-005
-5.123501e-004,2.570661e-005
-1.120489e-004,1.419998e-005
2.389846e-004,1.002961e-007
5.000719e-004,-8.975361e-006
6.679717e-004,-4.599598e-006
7.692626e-004,1.257933e-005
8.418679e-004,3.591673e-005
9.144733e-004,5.682316e-005
9.919406e-004,7.254349e-005
1.059036e-003,8.226741e-005
1.086101e-003,8.631904e-005
1.042991e-003,8.615698e-005
9.271143e-004,8.129502e-005
7.588904e-004,7.627100e-005
5.854804e-004,7.221937e-005
4.739794e-004,6.476436e-005
4.877549e-004,4.936815e-005
6.412309e-004,2.927205e-005
8.723362e-004,1.079661e-005
1.074270e-003,-1.196226e-006
1.156113e-003,-2.816880e-006
1.085290e-003,6.744974e-006
8.945392e-004,2.327564e-005
6.559788e-004,3.786152e-005
4.383250e-004,4.191315e-005
2.807975e-004,3.510640e-005
1.949028e-004,2.505835e-005
1.746447e-004,2.019640e-005
2.114335e-004,2.424803e-005
2.880904e-004,3.624086e-005
3.790091e-004,5.730935e-005
4.608521e-004,8.583285e-005
5.120648e-004,1.145184e-004
5.174129e-004,1.362352e-004
4.749518e-004,1.467694e-004
4.075326e-004,1.462832e-004
3.454615e-004,1.420695e-004
3.260137e-004,1.399627e-004
3.969983e-004,1.398006e-004
6.054144e-004,1.389903e-004
9.630928e-004,1.357490e-004
1.403425e-003,1.321835e-004
1.785738e-003,1.312111e-004
1.960607e-003,1.355869e-004
1.868716e-003,1.435281e-004
1.597904e-003,1.500107e-004
1.315423e-003,1.503348e-004
1.146713e-003,1.427178e-004
1.100362e-003,1.268354e-004
1.067787e-003,1.013911e-004
8.831946e-004,7.157111e-005
4.198496e-004,4.466826e-005
-3.264613e-004,2.748933e-005
-1.229975e-003,1.484824e-005
-2.116149e-003,1.234753e-006
-2.858247e-003,-1.853721e-005
-3.413160e-003,-4.706071e-005
-3.794826e-003,-8.060822e-005
-4.013453e-003,-1.104282e-004
-4.034198e-003,-1.251762e-004
-3.796285e-003,-1.214487e-004
-3.280752e-003,-9.843541e-005
-2.547081e-003,-5.921561e-005
-1.717306e-003,-1.092015e-005
-9.184857e-004,3.510640e-005
-2.374874e-004,7.043664e-005
2.947351e-004,8.550872e-005
6.746163e-004,7.821578e-005
9.084768e-004,5.649903e-005
1.008795e-003,3.121684e-005
9.950198e-004,1.322759e-005
9.028045e-004,5.286386e-006
7.755831e-004,4.313994e-006
6.470652e-004,9.013888e-006
5.303781e-004,1.614476e-005
4.266563e-004,2.230324e-005
3.261757e-004,3.170303e-005
2.282883e-004,4.531652e-005
1.475797e-004,6.119892e-005
1.033359e-004,7.416414e-005
9.539470e-005,8.469840e-005
1.022014e-004,9.409818e-005
9.215340e-005,1.034980e-004
4.320967e-005,1.094944e-004
-4.770897e-005,1.119254e-004
-1.553203e-004,1.073875e-004
-2.378116e-004,9.523264e-005
-2.619593e-004,8.097089e-005
-2.203085e-004,6.557468e-005
-1.339277e-004,4.969228e-005
-3.150244e-005,3.526847e-005
7.562274e-005,2.214118e-005
2.030061e-004,1.014835e-005
3.697713e-004,-3.303075e-006
5.546879e-004,-2.080613e-005
7.036260e-004,-4.252288e-005
7.642385e-004,-6.926366e-005
7.219394e-004,-1.024870e-004
6.128695e-004,-1.408965e-004
4.956961e-004,-1.768750e-004
4.154738e-004,-1.982676e-004
3.854917e-004,-1.972952e-004
3.859779e-004,-1.739578e-004
3.832228e-004,-1.321450e-004
3.449753e-004,-8.109442e-005
2.504912e-004,-3.036798e-005
9.053274e-005,1.063454e-005
-1.308485e-004,4.013043e-005
-3.969597e-004,6.362990e-005
-6.885151e-004,8.437427e-005
-9.784498e-004,1.030118e-004
-1.233216e-003,1.159770e-004
-1.422347e-003,1.190562e-004
-1.495600e-003,1.064151e-004
-1.386044e-003,7.967437e-005
-1.035983e-003,4.645098e-005
-4.515757e-004,2.246531e-005
2.616738e-004,1.857574e-005
9.133388e-004,3.040651e-005
1.316234e-003,4.596478e-005
1.374577e-003,5.341978e-005
1.129696e-003,5.017848e-005
7.232359e-004,4.207521e-005
3.125622e-004,3.510640e-005
3.179537e-006,3.526847e-005
-1.746061e-004,4.564065e-005
-2.551526e-004,6.638501e-005
-2.985860e-004,8.729143e-005
-3.212752e-004,1.020394e-004
-2.767072e-004,1.098185e-004
-1.173971e-004,1.114392e-004
1.637863e-004,1.135460e-004
5.349160e-004,1.253768e-004
9.358659e-004,1.504969e-004
1.313154e-003,1.814514e-004
1.640689e-003,2.059233e-004
1.905991e-003,2.219677e-004
2.097391e-003,2.336364e-004
2.200140e-003,2.469258e-004
2.177451e-003,2.605393e-004
1.996424e-003,2.660495e-004
1.670509e-003,2.602152e-004
1.254163e-003,2.441707e-004
7.981102e-004,2.245608e-004
3.156415e-004,2.093266e-004
-2.220912e-004,2.017096e-004
-8.342118e-004,1.986303e-004
-1.477287e-003,1.994406e-004
-2.058615e-003,1.957131e-004
-2.487927e-003,1.694586e-004
-2.731836e-003,1.069013e-004
-2.831506e-003,1.014835e-005
-2.861164e-003,-1.034594e-004
-2.867971e-003,-2.118811e-004
-2.862947e-003,-2.942103e-004
-2.848037e-003,-3.314853e-004
-2.851440e-003,-3.211131e-004
-2.880450e-003,-2.692523e-004
-2.883691e-003,-1.912988e-004
-2.762790e-003,-1.076731e-004
-2.419698e-003,-3.960571e-005
-1.813572e-003,-5.247859e-006
-1.007135e-003,-1.108221e-005
-1.368449e-004,-4.868136e-005
6.373413e-004,-9.584237e-005
1.189336e-003,-1.316588e-004
1.457231e-003,-1.472171e-004
1.428707e-003,-1.433275e-004
1.165351e-003,-1.203142e-004
8.232304e-004,-8.676671e-005
5.883976e-004,-5.224680e-005
5.820770e-004,-2.258885e-005
8.172339e-004,-1.682422e-006
1.226612e-003,1.468617e-005
1.705677e-003,3.073064e-005
2.127535e-003,4.256141e-005
2.327200e-003,4.645098e-005
2.143742e-003,4.661304e-005
1.530160e-003,5.066468e-005
6.211348e-004,6.168512e-005
-3.096065e-004,7.513654e-005
-9.533298e-004,8.502253e-005
-1.099837e-003,8.113296e-005
-6.718223e-004,5.893001e-005
2.375260e-004,1.922400e-005
1.374415e-003,-2.615428e-005
2.423630e-003,-6.391550e-005
3.118894e-003,-8.368747e-005
3.292467e-003,-8.287714e-005
2.908045e-003,-6.521203e-005
2.077619e-003,-3.425755e-005
1.038453e-003,1.072688e-006
7.659513e-005,3.316162e-005
-5.752315e-004,5.309565e-005
-8.128192e-004,5.925414e-005
-6.543194e-004,5.568870e-005
-1.901644e-004,4.191315e-005
4.488592e-004,2.133085e-005
1.099390e-003,1.072688e-006
1.586883e-003,-1.351319e-005
1.776176e-003,-1.562004e-005
1.610707e-003,-6.220251e-006
1.152061e-003,9.500084e-006
5.645739e-004,2.927205e-005
5.552663e-005,5.439218e-005
-2.235498e-004,8.858796e-005
-2.395943e-004,1.289422e-004
-7.898758e-005,1.657311e-004
1.143563e-004,1.889064e-004
2.101370e-004,1.932822e-004
1.487142e-004,1.819376e-004
-4.819516e-005,1.676758e-004
-3.143064e-004,1.616794e-004
-5.940310e-004,1.689724e-004
-8.567389e-004,1.895547e-004
-1.091896e-003,2.167816e-004
-1.290750e-003,2.396328e-004
-1.428991e-003,2.500050e-004
-1.460918e-003,2.457913e-004
-1.334994e-003,2.303951e-004
-1.032580e-003,2.054371e-004
-6.115341e-004,1.709171e-004
-1.891920e-004,1.316973e-004
1.140322e-004,9.361198e-005
2.372019e-004,6.330577e-005
2.012234e-004,4.450619e-005
7.902610e-005,3.948217e-005
-4.851930e-005,4.564065e-005
-1.284175e-004,5.163707e-005
-1.493239e-004,5.147500e-005
-1.225831e-004,4.369587e-005
-6.294311e-005,2.992031e-005
1.663096e-005,1.565857e-005
9.490851e-005,6.582909e-006
1.530900e-004,6.420843e-006
1.754550e-004,1.533444e-005
1.548727e-004,3.251336e-005
1.070634e-004,5.439218e-005
5.941620e-005,7.043664e-005
4.045456e-005,7.643306e-005
6.573675e-005,6.978838e-005
1.274836e-004,4.855782e-005
2.112714e-004,1.922400e-005
2.994350e-004,-3.951337e-006
3.619922e-004,-1.092015e-005
3.485408e-004,2.207145e-006
1.987924e-004,2.846173e-005
-1.096179e-004,5.471631e-005
-5.173741e-004,7.157111e-005
-9.040619e-004,7.335382e-005
-1.142622e-003,6.119892e-005
-1.130305e-003,4.126489e-005
-8.220569e-004,2.262737e-005
-2.775176e-004,9.500084e-006
3.571302e-004,-2.816880e-006
9.015080e-004,-2.210265e-005
1.212350e-003,-5.159854e-005
1.223694e-003,-8.255302e-005
9.791374e-004,-1.031353e-004
6.055764e-004,-1.079973e-004
2.511395e-004,-1.000561e-004
2.748933e-005,-8.611845e-005
-2.728874e-005,-7.315322e-005
5.131293e-005,-6.829127e-005
1.806411e-004,-7.023605e-005
2.673460e-004,-7.542214e-005
2.608634e-004,-8.028410e-005
1.558451e-004,-7.963584e-005
-2.291298e-005,-6.942573e-005
-2.543422e-004,-5.159854e-005
-5.402254e-004,-3.166451e-005
-8.852624e-004,-1.756482e-005
-1.269519e-003,-1.108221e-005
-1.621363e-003,-8.651231e-006
-1.836910e-003,-1.844488e-006
-1.833345e-003,1.711715e-005
-1.588626e-003,4.547859e-005
-1.145701e-003,7.708132e-005
-5.932207e-004,1.059289e-004
-3.393342e-005,1.286181e-004
4.321665e-004,1.459591e-004
7.431700e-004,1.558451e-004
8.878945e-004,1.545486e-004
9.008597e-004,1.456350e-004
8.371680e-004,1.349386e-004
7.451148e-004,1.242423e-004
6.584098e-004,1.154908e-004
5.916388e-004,1.078737e-004
5.483674e-004,9.523264e-005
5.272989e-004,7.043664e-005
5.242196e-004,3.834771e-005
5.337815e-004,1.063454e-005
5.483674e-004,-5.085794e-006
5.619809e-004,-7.354708e-006
5.705704e-004,2.855406e-006
5.636016e-004,2.197911e-005
5.310263e-004,4.418206e-005
4.713863e-004,5.844381e-005
3.948915e-004,6.152305e-005
3.177483e-004,5.682316e-005
2.529222e-004,4.564065e-005
2.102990e-004,3.235129e-005
1.926339e-004,1.727922e-005
1.848548e-004,2.693341e-006
1.709171e-004,-6.544382e-006
1.417454e-004,-4.113402e-006
1.012291e-004,9.338019e-006
5.957827e-005,2.684107e-005
2.278944e-005,3.980630e-005
-1.075808e-005,4.466826e-005
-3.701266e-005,4.191315e-005
-6.164659e-005,3.024445e-005
-1.015147e-004,1.014835e-005
-1.619650e-004,-1.594417e-005
-2.143121e-004,-4.122636e-005
-2.023193e-004,-5.953974e-005
-7.461181e-005,-6.877746e-005
1.521176e-004,-6.423963e-005
3.824124e-004,-4.835723e-005
4.973168e-004,-2.631635e-005
4.130428e-004,-3.303075e-006
1.446626e-004,1.954813e-005
-1.677994e-004,4.142695e-005
-3.360231e-004,6.136099e-005
-2.506147e-004,7.967437e-005
4.904402e-005,9.458438e-005
3.921364e-004,1.057669e-004
5.840217e-004,1.124116e-004
5.123889e-004,1.124116e-004
1.728619e-004,1.034980e-004
-3.647087e-004,9.231547e-005
-1.004056e-003,8.453633e-005
-1.656045e-003,7.902610e-005
-2.220357e-003,7.384001e-005
-2.565232e-003,7.027457e-005
-2.565718e-003,6.670914e-005
-2.177734e-003,6.249544e-005
-1.481987e-003,5.730935e-005
-6.595054e-004,5.163707e-005
8.275361e-005,4.304760e-005
6.091419e-004,3.235129e-005
8.948633e-004,1.727922e-005
9.791374e-004,-4.113402e-006
9.076665e-004,-3.312309e-005
7.112431e-004,-6.780506e-005
4.130428e-004,-1.023250e-004
5.568870e-005,-1.276072e-004
-2.901587e-004,-1.332795e-004
-5.496251e-004,-1.182074e-004
-6.802498e-004,-8.595638e-005
-6.959701e-004,-3.685059e-005
-6.629088e-004,1.841368e-005
-6.577227e-004,6.703327e-005
-7.313003e-004,1.046324e-004
-8.781315e-004,1.318594e-004
-1.049597e-003,1.509831e-004
-1.177142e-003,1.623277e-004
-1.203234e-003,1.631380e-004
-1.100323e-003,1.453108e-004
-8.800763e-004,1.114392e-004
-5.977585e-004,7.610893e-005
-3.303509e-004,5.325772e-005
-1.522411e-004,4.693717e-005
-8.239095e-005,5.082674e-005
-5.694669e-005,5.536457e-005
1.873781e-005,5.471631e-005
2.051129e-004,5.066468e-005
5.018546e-004,5.293359e-005
8.700673e-004,7.076077e-005
1.272314e-003,1.094944e-004
1.673102e-003,1.658931e-004
2.030944e-003,2.307192e-004
2.305483e-003,2.906834e-004
2.461877e-003,3.352514e-004
2.482784e-003,3.592371e-004
2.366744e-003,3.590750e-004
2.136935e-003,3.370341e-004
1.824958e-003,2.986246e-004
1.458203e-003,2.529222e-004
1.048825e-003,2.093266e-004
5.832114e-004,1.667035e-004
5.066468e-005,1.208390e-004
-5.185086e-004,7.465034e-005
-1.044573e-003,3.494434e-005
-1.422347e-003,7.555300e-006
-1.571933e-003,-9.461557e-006
-1.466591e-003,-2.339917e-005
-1.135329e-003,-5.127441e-005
-6.546435e-004,-1.008664e-004
-1.292278e-004,-1.699062e-004
3.384927e-004,-2.386219e-004
6.812610e-004,-2.812450e-004
8.921082e-004,-2.828657e-004
1.001826e-003,-2.444563e-004
1.043477e-003,-1.807646e-004
1.043315e-003,-1.118868e-004
1.012847e-003,-5.192267e-005
9.493173e-004,-5.571990e-006
8.512677e-004,2.813760e-005
7.172396e-004,5.115087e-005
5.517707e-004,5.974033e-005
3.691231e-004,5.260946e-005
1.903650e-004,3.251336e-005
3.672705e-005,6.258778e-006
-7.785312e-005,-1.821308e-005
-1.413827e-004,-3.522994e-005
-1.501342e-004,-4.819516e-005
-1.086455e-004,-6.294311e-005
-3.425755e-005,-8.287714e-005
4.272347e-005,-1.081593e-004
9.507057e-005,-1.387897e-004
1.164632e-004,-1.694200e-004
1.247285e-004,-1.888679e-004
1.571416e-004,-1.867610e-004
2.404432e-004,-1.616409e-004
3.751195e-004,-1.186936e-004
5.321608e-004,-6.391550e-005
6.660269e-004,-5.734055e-006
7.272876e-004,4.742337e-005
6.937401e-004,8.583285e-005
5.749461e-004,1.056048e-004
4.034809e-004,1.104668e-004
2.138645e-004,1.091703e-004
2.927205e-005,1.109530e-004
-1.426792e-004,1.198666e-004
-3.026377e-004,1.302387e-004
-4.517377e-004,1.341283e-004
-5.747453e-004,1.244044e-004
-6.421645e-004,1.033359e-004
-6.118583e-004,8.194328e-005
-4.497929e-004,6.444023e-005
-1.682856e-004,5.455424e-005
1.526038e-004,5.131293e-005
4.000776e-004,5.390598e-005
4.721966e-004,6.265751e-005
3.250413e-004,7.578480e-005
1.274139e-005,8.810177e-005
-3.452609e-004,9.507057e-005
-6.403818e-004,9.652916e-005
-8.136295e-004,9.604297e-005
-8.483115e-004,9.458438e-005
-7.517206e-004,9.377405e-005
-5.565939e-004,9.912220e-005
-3.196545e-004,1.078737e-004
-1.063766e-004,1.145184e-004
4.045456e-005,1.184080e-004
1.222975e-004,1.226217e-004
1.613553e-004,1.274836e-004
1.898788e-004,1.300767e-004
2.245608e-004,1.279698e-004
2.649151e-004,1.240803e-004
3.051073e-004,1.182459e-004
3.391410e-004,1.112771e-004
3.542131e-004,1.057669e-004
3.292550e-004,1.041462e-004
2.401191e-004,1.083599e-004
7.546067e-005,1.125736e-004
-1.485136e-004,1.043083e-004
-3.916115e-004,7.999850e-005
-6.207718e-004,4.531652e-005
-8.337256e-004,1.128280e-005
-1.039549e-003,-9.785687e-006
-1.215389e-003,-8.327101e-006
-1.287833e-003,1.355172e-005
-1.176332e-003,4.677511e-005
-8.719731e-004,8.178122e-005
-4.760475e-004,1.135460e-004
-1.611547e-004,1.336421e-004
-7.607040e-005,1.394765e-004
-2.472113e-004,1.313732e-004
-5.559457e-004,1.138701e-004
-8.183294e-004,9.361198e-005
-8.886657e-004,7.205730e-005
-7.342175e-004,4.920609e-005
-4.274279e-004,2.732727e-005
-9.730095e-005,4.800190e-006
1.347766e-004,-2.485776e-005
2.051129e-004,-6.423963e-005
1.248906e-004,-1.110765e-004
-4.673658e-005,-1.535376e-004
-2.370012e-004,-1.815749e-004
-3.833462e-004,-1.922712e-004
-4.305072e-004,-1.861127e-004
-3.335922e-004,-1.647201e-004
-9.778715e-005,-1.324691e-004
2.077060e-004,-9.438377e-005
4.712243e-004,-5.305713e-005
6.076833e-004,-1.286493e-005
5.932595e-004,1.906194e-005
4.681450e-004,3.705119e-005
3.200173e-004,3.932010e-005
2.412535e-004,3.137890e-005
2.722080e-004,2.278944e-005
3.636129e-004,2.327564e-005
4.192013e-004,3.721326e-005
3.671783e-004,5.941620e-005
2.070577e-004,8.145709e-005
-1.351319e-005,9.798775e-005
-2.501285e-004,1.072255e-004
-4.732924e-004,1.141943e-004
-6.423265e-004,1.245665e-004
-6.985632e-004,1.338042e-004
-5.859278e-004,1.294284e-004
-2.887001e-004,1.120874e-004
1.527658e-004,8.810177e-005
6.494962e-004,6.670914e-005
1.099714e-003,5.196120e-005
1.442159e-003,4.385793e-005
1.674237e-003,4.661304e-005
1.836627e-003,5.455424e-005
1.971628e-003,5.957827e-005
2.087829e-003,5.909207e-005
2.168700e-003,5.406805e-005
2.194792e-003,4.839576e-005
2.154438e-003,4.596478e-005
2.044719e-003,5.244739e-005
1.867743e-003,6.865393e-005
1.633558e-003,8.907416e-005
1.351726e-003,1.056048e-004
1.025002e-003,1.128978e-004
6.491721e-004,1.090082e-004
2.044647e-004,9.490851e-005
-3.614674e-004,7.367795e-005
-1.088816e-003,4.790957e-005
-1.931880e-003,2.829966e-005
-2.734429e-003,2.489629e-005
-3.315759e-003,3.688912e-005
-3.545730e-003,5.244739e-005
-3.377992e-003,5.747142e-005
-2.870240e-003,4.531652e-005
-2.166389e-003,2.052053e-005
-1.439364e-003,-5.896120e-006
-8.163846e-004,-1.788895e-005
-3.386162e-004,-8.651231e-006
3.105477e-005,1.808955e-005
3.636129e-004,4.985435e-005
6.877437e-004,7.529860e-005
9.583930e-004,8.567078e-005
1.096959e-003,8.323980e-005
1.029378e-003,7.189524e-005
7.337703e-004,5.860587e-005
2.795009e-004,4.661304e-005
-2.196603e-004,3.510640e-005
-6.698776e-004,2.424803e-005
-1.013456e-003,1.517237e-005
-1.229165e-003,1.290346e-005
-1.315870e-003,1.922400e-005
-1.258337e-003,3.105477e-005
-1.037766e-003,4.256141e-005
-6.539952e-004,4.304760e-005
-1.501342e-004,2.975825e-005
3.642611e-004,7.717366e-006
7.439803e-004,-7.030578e-006
8.752534e-004,-7.840905e-006
7.417114e-004,1.558884e-006
4.196875e-004,1.241726e-005
2.554455e-005,1.906194e-005
-3.541744e-004,1.857574e-005
-6.920805e-004,1.582063e-005
-9.912531e-004,1.906194e-005
-1.238727e-003,2.910999e-005
-1.393337e-003,3.705119e-005
-1.397713e-003,3.980630e-005
-1.204207e-003,3.510640e-005
-8.152502e-004,2.570661e-005
-2.990722e-004,1.889987e-005
2.419018e-004,1.760335e-005
7.117293e-004,1.987226e-005
1.048664e-003,1.873781e-005
1.236822e-003,1.176900e-005
1.296786e-003,6.744974e-006
1.281228e-003,9.662150e-006
1.247032e-003,2.295151e-005
1.233094e-003,4.126489e-005
1.264211e-003,5.228533e-005
1.374415e-003,4.888196e-005
1.611679e-003,3.526847e-005
1.995127e-003,2.019640e-005
2.475005e-003,8.203561e-006
2.935435e-003,-7.100305e-007
3.224724e-003,-6.868512e-006
3.201062e-003,-8.813297e-006
2.782606e-003,-2.654814e-006
2.001286e-003,9.175954e-006
1.003285e-003,2.392390e-005
5.124321e-006,3.526847e-005
-7.799199e-004,4.418206e-005
-1.229165e-003,4.612685e-005
-1.331266e-003,4.158902e-005
-1.164825e-003,3.478227e-005
-8.643559e-004,3.154097e-005
-5.541630e-004,3.008238e-005
-3.110651e-004,2.424803e-005
-1.632615e-004,9.824214e-006
-9.665269e-005,-1.594417e-005
-8.206682e-005,-4.479180e-005
-9.211487e-005,-6.326724e-005
-1.144799e-004,-6.359137e-005
-1.491618e-004,-4.706071e-005
-2.032917e-004,-1.967167e-005
-2.857829e-004,9.500084e-006
-3.942045e-004,3.478227e-005
-5.076503e-004,5.017848e-005
-5.904656e-004,5.115087e-005
-6.050515e-004,4.223728e-005
-5.374703e-004,2.910999e-005
-4.133283e-004,1.873781e-005
-2.710350e-004,1.452411e-005
-1.412206e-004,1.582063e-005
-3.328516e-005,2.343770e-005
5.293359e-005,3.397195e-005
1.281319e-004,4.596478e-005
1.932822e-004,5.925414e-005
2.384984e-004,7.059870e-005
2.540566e-004,7.691926e-005
2.341226e-004,7.432621e-005
1.845306e-004,6.071273e-005
1.069013e-004,4.272347e-005
1.072688e-006,3.040651e-005
-1.287416e-004,3.024445e-005
-2.762210e-004,4.515445e-005
-4.345588e-004,7.465034e-005
-6.021343e-004,1.141943e-004
-7.700340e-004,1.513072e-004
-9.139479e-004,1.749688e-004
-9.894704e-004,1.801549e-004
-9.572193e-004,1.714033e-004
-8.076331e-004,1.547106e-004
-5.729626e-004,1.305629e-004
-3.237062e-004,1.052807e-004
-1.507825e-004,8.421220e-005
-1.208004e-004,7.140904e-005
-2.256567e-004,6.670914e-005
-3.942045e-004,6.314371e-005
-5.428185e-004,5.763348e-005
-6.142893e-004,5.471631e-005
-5.901415e-004,5.666109e-005
-4.859335e-004,6.346784e-005
-3.295405e-004,7.465034e-005
-1.603444e-004,8.583285e-005
-1.545797e-005,9.328785e-005
8.858796e-005,9.701536e-005
1.551968e-004,9.685329e-005
2.012234e-004,9.442231e-005
2.419018e-004,8.842590e-005
2.934386e-004,7.124698e-005
3.663680e-004,3.769945e-005
4.705760e-004,-1.124428e-005
6.165970e-004,-6.569822e-005
8.091307e-004,-1.049180e-004
1.039264e-003,-1.180453e-004
1.276528e-003,-1.063766e-004
1.476841e-003,-8.060822e-005
1.598228e-003,-5.289506e-005
1.603738e-003,-3.182657e-005
1.471655e-003,-2.453363e-005
1.192740e-003,-2.696461e-005
7.867657e-004,-3.296103e-005
3.111037e-004,-3.263690e-005
-1.541859e-004,-1.772689e-005
-5.395771e-004,1.646889e-005
-8.066607e-004,6.606088e-005
-9.557608e-004,1.239182e-004
-1.020911e-003,1.798307e-004
-1.049110e-003,2.261814e-004
-1.072448e-003,2.568118e-004
-1.097244e-003,2.717218e-004
-1.107940e-003,2.743148e-004
-1.087520e-003,2.683184e-004
-1.031769e-003,2.545429e-004
-9.507368e-004,2.326641e-004
-8.507424e-004,1.994406e-004
-7.228730e-004,1.537382e-004
-5.418460e-004,1.033359e-004
-2.883759e-004,5.568870e-005
3.510640e-005,8.527692e-006
3.838710e-004,-5.030201e-005
6.822334e-004,-1.321450e-004
8.647191e-004,-2.459148e-004
9.092871e-004,-3.833462e-004
8.417058e-004,-5.176983e-004
7.109190e-004,-6.126686e-004
5.499880e-004,-6.376266e-004
3.608577e-004,-5.838209e-004
1.316973e-004,-4.624341e-004
-1.418689e-004,-3.019894e-004
-4.413656e-004,-1.384655e-004
-7.103939e-004,-3.951337e-006
-8.755384e-004,9.004655e-005
-8.719731e-004,1.456350e-004
-6.841394e-004,1.756170e-004
-3.682741e-004,1.910132e-004
-1.659243e-005,1.994406e-004
2.863077e-004,2.086784e-004
4.890515e-004,2.206712e-004
5.885596e-004,2.331502e-004
6.067109e-004,2.441707e-004
5.783495e-004,2.446569e-004
5.460985e-004,2.297469e-004
5.420469e-004,2.049509e-004
5.833735e-004,1.778859e-004
6.629477e-004,1.485521e-004
7.481941e-004,1.177597e-004
7.997308e-004,8.745350e-005
7.754210e-004,5.763348e-005
6.449584e-004,2.829966e-005
3.892192e-004,1.234753e-006
1.841368e-005,-2.031993e-005
-4.050630e-004,-3.636440e-005
-7.797579e-004,-4.722277e-005
-1.011997e-003,-5.143647e-005
-1.057538e-003,-4.592625e-005
-9.337199e-004,-2.631635e-005
-6.915944e-004,7.393235e-006
-3.933942e-004,4.531652e-005
-9.422171e-005,8.210535e-005
1.665414e-004,1.214872e-004
3.765781e-004,1.667035e-004
5.345918e-004,2.182402e-004
6.331276e-004,2.733424e-004
6.572753e-004,3.253654e-004
5.869390e-004,3.624784e-004
3.991052e-004,3.725264e-004
1.030118e-004,3.493511e-004
-2.507768e-004,3.002453e-004
-5.909518e-004,2.459534e-004
-8.377773e-004,2.034923e-004
-9.395542e-004,1.765894e-004
-8.847762e-004,1.595726e-004
-7.043975e-004,1.461212e-004
-4.549791e-004,1.304008e-004
-1.968091e-004,1.075496e-004
3.073064e-005,7.691926e-005
2.138645e-004,4.288554e-005
3.543751e-004,1.209313e-005
4.459420e-004,-1.432352e-005
4.683071e-004,-3.798505e-005
3.992672e-004,-6.618442e-005
2.362295e-004,-1.041077e-004
-3.789271e-006,-1.483515e-004
-2.729797e-004,-1.906506e-004
-4.920920e-004,-2.267911e-004
-5.914380e-004,-2.528836e-004
-5.444391e-004,-2.626076e-004
-3.643846e-004,-2.522354e-004
-8.158062e-005,-2.159328e-004
2.558394e-004,-1.546721e-004
5.914768e-004,-8.093235e-005
8.775223e-004,-1.221667e-005
1.082211e-003,4.239934e-005
1.196629e-003,7.724339e-005
1.224829e-003,9.555677e-005
1.180909e-003,1.051186e-004
1.088207e-003,1.137081e-004
9.838373e-004,1.245665e-004
9.018321e-004,1.341283e-004
8.493229e-004,1.372075e-004
8.094548e-004,1.326697e-004
7.503009e-004,1.190562e-004
6.413930e-004,1.002567e-004
4.632831e-004,8.032263e-005
2.175920e-004,6.200925e-005
-8.320127e-005,4.807163e-005
-4.345588e-004,4.061663e-005
-8.359945e-004,3.867184e-005
-1.272922e-003,4.288554e-005
-1.708068e-003,5.293359e-005
-2.060884e-003,6.379197e-005
-2.211605e-003,7.043664e-005
-2.040788e-003,7.319175e-005
-1.481014e-003,7.238143e-005
-5.685868e-004,6.914012e-005
5.157922e-004,6.330577e-005
1.472465e-003,5.147500e-005
2.026082e-003,3.364782e-005
2.025434e-003,1.160693e-005
1.512171e-003,-9.461557e-006
7.225877e-004,-2.826113e-005
-1.545797e-005,-4.009190e-005
-4.538446e-004,-4.673658e-005
-5.245051e-004,-4.965375e-005
-3.105789e-004,-5.208473e-005
2.700314e-005,-5.548810e-005
3.371962e-004,-5.889147e-005
5.339436e-004,-5.791909e-005
6.196762e-004,-4.479180e-005
6.640821e-004,-1.853721e-005
7.671557e-004,1.776542e-005
1.005554e-003,5.666109e-005
1.401804e-003,8.907416e-005
1.901939e-003,1.137081e-004
2.364638e-003,1.341283e-004
2.608871e-003,1.573037e-004
2.504501e-003,1.817755e-004
2.018627e-003,2.005751e-004
1.206839e-003,2.055991e-004
1.863134e-004,1.835582e-004
-8.859106e-004,1.282940e-004
-1.840962e-003,5.309565e-005
-2.527471e-003,-1.480971e-005
-2.833613e-003,-4.819516e-005
-2.734105e-003,-3.911951e-005
-2.301714e-003,1.883015e-006
-1.690241e-003,5.601283e-005
-1.092220e-003,1.010670e-004
-6.765223e-004,1.210010e-004
-5.052193e-004,1.141943e-004
-5.165638e-004,8.599491e-005
-5.959758e-004,4.628891e-005
-6.491333e-004,6.258778e-006
-6.236890e-004,-3.085418e-005
-5.086227e-004,-6.845333e-005
-3.262992e-004,-1.083214e-004
-1.154523e-004,-1.434896e-004
8.388807e-005,-1.635857e-004
2.440086e-004,-1.609926e-004
3.519442e-004,-1.363587e-004
4.067222e-004,-9.373551e-005
4.153117e-004,-4.268495e-005
3.948915e-004,4.962256e-006
3.619922e-004,3.818564e-005
3.279585e-004,5.698522e-005
2.950592e-004,6.654707e-005
2.584324e-004,7.108490e-005
2.185644e-004,7.400208e-005
1.814514e-004,7.124698e-005
1.511452e-004,5.779555e-005
1.354248e-004,3.769945e-005
1.503348e-004,1.630683e-005
2.216436e-004,1.072688e-006
3.602095e-004,-5.734055e-006
5.516087e-004,-8.165034e-006
7.496526e-004,-1.318906e-005
9.037769e-004,-1.837515e-005
9.789753e-004,-2.080613e-005
9.690893e-004,-1.837515e-005
8.921082e-004,-1.173047e-005
7.726659e-004,9.106226e-007
6.316690e-004,2.019640e-005
4.590693e-004,3.688912e-005
2.368777e-004,4.564065e-005
-4.041603e-005,4.790957e-005
-3.669776e-004,4.661304e-005
-7.236833e-004,4.483032e-005
-1.087520e-003,4.450619e-005
-1.442767e-003,4.596478e-005
-1.782294e-003,4.823369e-005
-2.082763e-003,4.774750e-005
-2.283400e-003,4.385793e-005
-2.311762e-003,3.802358e-005
-2.114366e-003,3.218923e-005
-1.689268e-003,3.024445e-005
-1.103078e-003,3.154097e-005
-4.810716e-004,3.235129e-005
4.596478e-005,3.591673e-005
3.968363e-004,4.515445e-005
5.623050e-004,6.395403e-005
5.874252e-004,8.648111e-005
5.383193e-004,1.067393e-004
4.814344e-004,1.227837e-004
4.631210e-004,1.352628e-004
4.987753e-004,1.472556e-004
5.759185e-004,1.600588e-004
6.579236e-004,1.744826e-004
7.141603e-004,1.817755e-004
7.271255e-004,1.814514e-004
6.945504e-004,1.752929e-004
6.323173e-004,1.667035e-004
5.623050e-004,1.547106e-004
4.976409e-004,1.440143e-004
4.414042e-004,1.385041e-004
3.809539e-004,1.359110e-004
2.851732e-004,1.313732e-004
1.351007e-004,1.229458e-004
-5.532604e-005,1.094944e-004
-2.480217e-004,9.750155e-005
-4.021458e-004,9.312579e-005
-4.736166e-004,9.652916e-005
-4.369898e-004,1.002567e-004
-3.146305e-004,9.782569e-005
-1.888679e-004,8.939829e-005
-1.614788e-004,7.432621e-005
-2.984240e-004,5.439218e-005
-5.838209e-004,3.397195e-005
-9.218892e-004,2.084466e-005
-1.182814e-003,1.322759e-005
-1.243103e-003,6.096713e-006
-1.018156e-003,-3.465141e-006
-5.113778e-004,-1.480971e-005
1.691344e-004,-2.550602e-005
8.485126e-004,-3.182657e-005
1.360802e-003,-3.458168e-005
1.610383e-003,-3.668853e-005
1.586883e-003,-3.782299e-005
1.358857e-003,-3.733679e-005
1.029378e-003,-3.506787e-005
6.909849e-004,-3.215070e-005
4.085050e-004,-2.809907e-005
2.028440e-004,-2.275091e-005
5.844381e-005,-1.740276e-005
-4.462973e-005,-1.464765e-005
-1.209625e-004,-1.643037e-005
-1.815749e-004,-2.096819e-005
-2.465631e-004,-2.566809e-005
-3.504469e-004,-2.858526e-005
-5.010056e-004,-3.053005e-005
-6.557779e-004,-3.393342e-005
-7.591756e-004,-3.992984e-005
-7.648478e-004,-4.673658e-005
-6.565882e-004,-4.949169e-005
-4.559515e-004,-4.252288e-005
-2.172293e-004,-2.615428e-005
-8.327101e-006,-3.141010e-006
1.190562e-004,1.922400e-005
1.605450e-004,3.640293e-005
1.461212e-004,4.547859e-005
1.135460e-004,4.580272e-005
9.426025e-005,3.494434e-005
1.075496e-004,1.306552e-005
1.467694e-004,-1.707863e-005
1.963614e-004,-4.673658e-005
2.480603e-004,-6.456376e-005
3.020280e-004,-6.391550e-005
3.592371e-004,-4.641245e-005
4.217943e-004,-1.756482e-005
4.940755e-004,1.679302e-005
5.728393e-004,4.855782e-005
6.441480e-004,7.092283e-005
6.874196e-004,8.161915e-005
6.879057e-004,8.437427e-005
6.384758e-004,8.761556e-005
5.396159e-004,9.199134e-005
4.198496e-004,9.814982e-005
3.245551e-004,1.046324e-004
2.932765e-004,1.106288e-004
3.465960e-004,1.146805e-004
4.833791e-004,1.154908e-004
6.892022e-004,1.148425e-004
9.264661e-004,1.117633e-004
1.136341e-003,1.020394e-004
1.265345e-003,8.842590e-005
1.283010e-003,7.643306e-005
1.191605e-003,7.027457e-005
1.030998e-003,7.027457e-005
8.502953e-004,7.675719e-005
6.879057e-004,8.583285e-005
5.553362e-004,8.972242e-005
4.409180e-004,8.437427e-005
3.363859e-004,6.930219e-005
2.519498e-004,4.807163e-005
2.114335e-004,2.943412e-005
2.352571e-004,2.214118e-005
3.196932e-004,2.813760e-005
4.337872e-004,4.158902e-005
5.334574e-004,5.504044e-005
5.854804e-004,6.541262e-005
5.746220e-004,7.254349e-005
4.864584e-004,7.529860e-005
2.871180e-004,7.351588e-005
-8.239095e-005,7.529860e-005
-6.679328e-004,8.145709e-005
-1.453950e-003,8.972242e-005
-2.350495e-003,9.539470e-005
-3.201664e-003,9.344992e-005
-3.823836e-003,8.567078e-005
-4.056887e-003,7.270556e-005
-3.800336e-003,5.358185e-005
-3.051429e-003,2.489629e-005
-1.895416e-003,-1.351319e-005
-5.173741e-004,-5.532604e-005
7.741245e-004,-9.114247e-005
1.665323e-003,-1.136696e-004
2.032727e-003,-1.195039e-004
1.923332e-003,-1.070249e-004
1.477489e-003,-8.077029e-005
8.499712e-004,-4.965375e-005
1.704310e-004,-1.497178e-005
-4.596789e-004,2.748933e-005
-9.534919e-004,7.999850e-005
-1.224303e-003,1.347766e-004
-1.221386e-003,1.808031e-004
-9.648364e-004,2.090025e-004
-5.468701e-004,2.127300e-004
-9.017008e-005,1.965235e-004
3.004074e-004,1.678379e-004
5.788357e-004,1.331559e-004
7.577559e-004,9.863601e-005
8.797912e-004,7.254349e-005
9.836751e-004,5.893001e-005
1.081077e-003,5.520250e-005
1.148820e-003,5.504044e-005
1.150441e-003,5.585077e-005
1.064870e-003,5.406805e-005
9.037769e-004,4.239934e-005
7.125397e-004,1.403791e-005
5.446399e-004,-3.895744e-005
4.341113e-004,-1.112386e-004
3.833848e-004,-1.865989e-004
3.830607e-004,-2.428356e-004
4.362181e-004,-2.603386e-004
5.619809e-004,-2.324634e-004
7.663454e-004,-1.673132e-004
9.979369e-004,-8.028410e-005
1.159678e-003,9.824214e-006
1.160651e-003,8.388807e-005
9.418623e-004,1.299146e-004
4.871067e-004,1.406109e-004
-1.485136e-004,1.119254e-004
-8.095779e-004,4.709924e-005
-1.313925e-003,-4.155049e-005
-1.547947e-003,-1.308485e-004
-1.495276e-003,-1.917850e-004
-1.209069e-003,-2.050744e-004
-7.714925e-004,-1.700683e-004
-2.951827e-004,-1.063766e-004
8.664317e-005,-3.539201e-005
2.858215e-004,2.635488e-005
3.216379e-004,7.092283e-005
2.739907e-004,9.652916e-005
2.167816e-004,1.051186e-004
2.052750e-004,1.039842e-004
2.705873e-004,9.896014e-005
3.929467e-004,9.588090e-005
5.075269e-004,9.733949e-005
5.287575e-004,1.096565e-004
3.916502e-004,1.295905e-004
8.372600e-005,1.530900e-004
-3.361852e-004,1.714033e-004
-7.633893e-004,1.757791e-004
-1.075365e-003,1.631380e-004
-1.173901e-003,1.375317e-004
-1.020263e-003,1.103047e-004
-6.517263e-004,9.101894e-005
-1.757406e-004,8.259154e-005
2.666978e-004,8.502253e-005
5.509604e-004,9.393611e-005
6.023351e-004,1.036600e-004
4.041292e-004,1.109530e-004
1.501031e-005,1.140322e-004
-4.329382e-004,1.141943e-004
-7.834854e-004,1.151667e-004
-9.167030e-004,1.195424e-004
-7.990436e-004,1.257009e-004
-5.060296e-004,1.250527e-004
-1.903264e-004,1.072255e-004
-5.409925e-006,6.622294e-005
-2.939559e-005,7.879431e-006
-2.428356e-004,-5.208473e-005
-5.536768e-004,-1.005423e-004
-8.635456e-004,-1.313347e-004
-1.119771e-003,-1.404103e-004
-1.306632e-003,-1.274451e-004
-1.414892e-003,-9.470791e-005
-1.403871e-003,-4.965375e-005
-1.207286e-003,-2.978945e-006
-8.155743e-004,3.915804e-005
-3.269475e-004,7.286762e-005
7.529860e-005,9.814982e-005
2.438465e-004,1.146805e-004
1.576278e-004,1.245665e-004
-9.017008e-005,1.304008e-004
-3.499608e-004,1.357490e-004
-4.969540e-004,1.415833e-004
-4.763717e-004,1.417454e-004
-3.060411e-004,1.292664e-004
-4.916756e-005,1.101426e-004
2.192126e-004,8.907416e-005
4.423766e-004,6.865393e-005
5.880735e-004,5.115087e-005
6.530616e-004,3.526847e-005
6.522513e-004,2.068259e-005
6.141660e-004,3.341602e-006
5.718669e-004,-1.869928e-005
5.533914e-004,-4.560212e-005
5.734875e-004,-7.380149e-005
6.271311e-004,-9.584237e-005
6.945504e-004,-1.028112e-004
7.533801e-004,-8.822530e-005
7.904932e-004,-5.208473e-005
8.028101e-004,-3.627206e-006
7.922758e-004,4.612685e-005
7.642385e-004,8.567078e-005
7.246946e-004,1.065772e-004
6.789921e-004,1.111150e-004
6.295621e-004,1.067393e-004
5.815907e-004,1.078737e-004
5.444778e-004,1.190562e-004
5.243817e-004,1.334801e-004
5.229231e-004,1.423936e-004
5.319988e-004,1.440143e-004
5.412365e-004,1.402868e-004
5.373469e-004,1.354248e-004
5.063924e-004,1.299146e-004
4.388112e-004,1.188942e-004
3.363859e-004,1.000946e-004
2.227780e-004,7.610893e-005
1.304008e-004,5.066468e-005
7.724339e-005,3.040651e-005
6.298164e-005,2.116879e-005
6.832980e-005,3.024445e-005
6.800567e-005,5.439218e-005
4.369587e-005,8.064676e-005
-7.516774e-006,9.733949e-005
-7.542214e-005,9.798775e-005
-1.449481e-004,8.599491e-005
-2.026434e-004,7.189524e-005
-2.365150e-004,6.298164e-005
-2.376495e-004,5.520250e-005
-2.003745e-004,4.272347e-005
-1.323070e-004,2.651694e-005
-4.057810e-005,6.096713e-006
5.925414e-005,-1.221667e-005
1.539003e-004,-2.356124e-005
2.297469e-004,-2.226472e-005
2.769079e-004,-1.270286e-005
3.007315e-004,-3.627206e-006
3.240689e-004,-2.816880e-006
3.757677e-004,-9.947754e-006
4.623107e-004,-1.805102e-005
5.584154e-004,-1.886135e-005
6.183797e-004,-1.383732e-005
6.013628e-004,-7.840905e-006
5.007202e-004,-3.303075e-006
3.352514e-004,1.002961e-007
1.501728e-004,3.179537e-006
-8.720958e-007,5.772582e-006
-8.141856e-005,7.879431e-006
-7.558420e-005,1.095867e-005
1.234753e-006,1.338965e-005
1.128978e-004,1.760335e-005
2.169437e-004,2.554455e-005
2.863077e-004,3.332369e-005
3.182345e-004,4.045456e-005
3.206655e-004,4.758544e-005
2.997591e-004,5.147500e-005
2.537325e-004,4.564065e-005
1.835582e-004,3.056858e-005
9.912220e-005,1.371378e-005
1.452411e-005,3.503668e-006
-6.051213e-005,4.638125e-006
-1.151281e-004,1.517237e-005
-1.483515e-004,2.392390e-005
-1.619650e-004,2.133085e-005
-1.527273e-004,3.179537e-006
-1.180453e-004,-2.064406e-005
-6.002593e-005,-3.328516e-005
7.555300e-006,-2.323711e-005
6.411610e-005,6.582909e-006
9.685329e-005,4.337174e-005
1.039842e-004,7.384001e-005
8.988448e-005,9.085687e-005
6.865393e-005,9.442231e-005
6.444023e-005,8.664317e-005
1.013911e-004,6.784360e-005
1.829100e-004,4.304760e-005
2.726942e-004,2.295151e-005
3.148312e-004,1.533444e-005
2.462775e-004,2.133085e-005
1.695509e-005,3.008238e-005
-3.950149e-004,3.170303e-005
-9.555987e-004,2.424803e-005
-1.567557e-003,1.209313e-005
-2.102211e-003,1.396819e-006
-2.452435e-003,-3.627206e-006
-2.573173e-003,-3.465141e-006
-2.475934e-003,1.396819e-006
-2.204798e-003,8.527692e-006
-1.807738e-003,1.695509e-005
-1.331266e-003,2.197911e-005
-8.296740e-004,2.019640e-005
-3.640604e-004,6.582909e-006
-1.724069e-005,-1.480971e-005
1.299146e-004,-3.539201e-005
6.184718e-005,-4.625038e-005
-1.370070e-004,-4.398147e-005
-3.290543e-004,-3.571614e-005
-3.723257e-004,-2.728874e-005
-1.545100e-004,-2.015787e-005
3.628025e-004,-1.659243e-005
1.111221e-003,-1.707863e-005
1.960607e-003,-1.999580e-005
2.774017e-003,-1.999580e-005
3.432169e-003,-1.497178e-005
3.831177e-003,-2.654814e-006
3.899408e-003,1.630683e-005
3.602987e-003,3.672705e-005
2.970603e-003,5.471631e-005
2.116839e-003,7.562274e-005
1.202626e-003,9.912220e-005
3.509718e-004,1.235941e-004
-3.833462e-004,1.440143e-004
-1.004380e-003,1.582760e-004
-1.546489e-003,1.665414e-004
-2.038681e-003,1.699447e-004
-2.517909e-003,1.736723e-004
-2.998434e-003,1.777239e-004
-3.441360e-003,1.785342e-004
-3.778619e-003,1.684862e-004
-3.933879e-003,1.448246e-004
-3.827077e-003,1.085220e-004
-3.406191e-003,7.092283e-005
-2.675761e-003,4.693717e-005
-1.703206e-003,3.980630e-005
-6.207718e-004,4.466826e-005
3.765781e-004,5.698522e-005
1.100686e-003,7.448828e-005
1.487699e-003,9.620503e-005
1.619459e-003,1.195424e-004
1.666296e-003,1.401247e-004
1.768073e-003,1.498487e-004
1.932732e-003,1.419075e-004
2.039047e-003,1.185700e-004
1.930787e-003,8.956035e-005
1.506661e-003,6.687120e-005
7.951930e-004,4.677511e-005
-4.009190e-005,2.133085e-005
-7.739235e-004,-7.678839e-006
-1.234999e-003,-3.587821e-005
-1.342124e-003,-5.970180e-005
-1.115719e-003,-8.028410e-005
-6.582089e-004,-9.989400e-005
-1.050801e-004,-1.173971e-004
4.123945e-004,-1.269589e-004
8.057273e-004,-1.219349e-004
1.053525e-003,-1.020008e-004
1.179775e-003,-7.072224e-005
1.218184e-003,-3.134038e-005
1.200681e-003,5.610517e-006
1.145093e-003,3.332369e-005
1.040722e-003,4.871989e-005
8.572641e-004,5.293359e-005
5.786736e-004,4.871989e-005
2.399570e-004,4.402000e-005
-8.741497e-005,3.964423e-005
-3.175477e-004,3.526847e-005
-3.901529e-004,3.316162e-005
-2.980999e-004,4.094075e-005
-8.806324e-005,6.606088e-005
1.746447e-004,1.094944e-004
4.208219e-004,1.594105e-004
6.099522e-004,1.997648e-004
7.255049e-004,2.206712e-004
7.679660e-004,2.245608e-004
7.490044e-004,2.214815e-004
6.945504e-004,2.209953e-004
6.342620e-004,2.295848e-004
5.875872e-004,2.461155e-004
5.574430e-004,2.658874e-004
5.375090e-004,2.853353e-004
5.230852e-004,3.004074e-004
5.086614e-004,3.075383e-004
4.978030e-004,3.049452e-004
4.861343e-004,2.892249e-004
4.649037e-004,2.568118e-004
4.300596e-004,2.070577e-004
3.869503e-004,1.459591e-004
3.470822e-004,8.048469e-005
3.271481e-004,1.646889e-005
3.324963e-004,-4.317114e-005
3.592371e-004,-1.076731e-004
3.887330e-004,-1.922712e-004
4.025085e-004,-3.049066e-004
3.947294e-004,-4.335864e-004
3.718782e-004,-5.499493e-004
3.409237e-004,-6.230407e-004
3.065658e-004,-6.309819e-004
2.730183e-004,-5.737729e-004
2.430362e-004,-4.757234e-004
2.205091e-004,-3.637363e-004
2.010613e-004,-2.572594e-004
1.586002e-004,-1.621271e-004
3.526847e-005,-8.222889e-005
-2.088019e-004,-1.950961e-005
-5.437908e-004,2.910999e-005
-8.758626e-004,6.654707e-005
-1.101782e-003,9.085687e-005
-1.165797e-003,1.015532e-004
-1.079417e-003,1.043083e-004
-8.945001e-004,1.046324e-004
-6.546435e-004,1.033359e-004
-3.695707e-004,9.539470e-005
-4.365734e-005,7.853991e-005
2.811216e-004,5.779555e-005
5.352401e-004,3.640293e-005
6.558168e-004,1.808955e-005
6.222692e-004,2.693341e-006
4.647416e-004,-7.354708e-006
2.415776e-004,-9.623623e-006
1.776542e-005,-2.816880e-006
-1.564548e-004,1.047248e-005
-2.647144e-004,2.894792e-005
-3.215993e-004,4.628891e-005
-3.488263e-004,5.601283e-005
-3.613053e-004,6.071273e-005
-3.627639e-004,6.978838e-005
-3.559572e-004,8.340186e-005
-3.447747e-004,9.296372e-005
-3.352128e-004,9.717742e-005
-3.282440e-004,1.005808e-004
-3.183580e-004,1.077117e-004
-3.027998e-004,1.175977e-004
-2.843243e-004,1.248906e-004
-2.742762e-004,1.271595e-004
-2.882139e-004,1.260251e-004
-3.308370e-004,1.245665e-004
-3.898288e-004,1.247285e-004
-4.425000e-004,1.239182e-004
-4.760475e-004,1.213252e-004
-4.898231e-004,1.179218e-004
-4.873921e-004,1.151667e-004
-4.758855e-004,1.151667e-004
-4.590307e-004,1.156529e-004
-4.379622e-004,1.192183e-004
-4.039285e-004,1.245665e-004
-3.593605e-004,1.325077e-004
-3.104168e-004,1.407730e-004
-2.606628e-004,1.496866e-004
-2.091260e-004,1.553589e-004
-1.549962e-004,1.547106e-004
-1.029732e-004,1.449867e-004
-6.132245e-005,1.313732e-004
-3.231276e-005,1.245665e-004
-1.205460e-005,1.297525e-004
7.393235e-006,1.432040e-004
3.008238e-005,1.532520e-004
4.580272e-005,1.542244e-004
3.948217e-005,1.483901e-004
7.485573e-007,1.422316e-004
-6.423963e-005,1.406109e-004
-1.327932e-004,1.477418e-004
-1.810887e-004,1.621656e-004
-1.971332e-004,1.764274e-004
-1.865989e-004,1.811273e-004
-1.595340e-004,1.684862e-004
-1.271210e-004,1.410971e-004
-9.746302e-005,1.047945e-004
-7.331529e-005,7.076077e-005
-4.608832e-005,5.277152e-005
