3.846813e-004,7.546067e-005
4.564763e-004,6.930219e-005
5.451261e-004,5.536457e-005
6.397723e-004,3.769945e-005
7.084880e-004,2.489629e-005
7.023295e-004,2.311357e-005
5.608465e-004,2.878586e-005
2.490327e-004,3.332369e-005
-2.086398e-004,2.959618e-005
-7.230350e-004,1.922400e-005
-1.167580e-003,7.069104e-006
-1.421861e-003,-3.303075e-006
-1.419754e-003,-8.327101e-006
-1.175521e-003,-5.247859e-006
-7.650100e-004,5.610517e-006
-2.851347e-004,1.971020e-005
1.765894e-004,2.829966e-005
5.558224e-004,2.765140e-005
8.148029e-004,1.468617e-005
9.431588e-004,-2.816880e-006
9.745996e-004,-1.027188e-005
9.567723e-004,7.485573e-007
9.104216e-004,2.748933e-005
8.139926e-004,6.298164e-005
6.203245e-004,9.685329e-005
2.947351e-004,1.206769e-004
-1.579134e-004,1.313732e-004
-6.974287e-004,1.248906e-004
-1.249909e-003,1.030118e-004
-1.690241e-003,7.578480e-005
-1.880830e-003,5.423011e-005
-1.739022e-003,4.110282e-005
-1.266278e-003,3.688912e-005
-5.685868e-004,4.013043e-005
1.422316e-004,4.564065e-005
6.258346e-004,4.790957e-005
7.261531e-004,4.596478e-005
4.452938e-004,4.175108e-005
-4.511592e-005,3.364782e-005
-4.963057e-004,2.278944e-005
-7.034251e-004,7.393235e-006
-6.402197e-004,-1.059601e-005
-4.937127e-004,-2.761287e-005
-5.061917e-004,-3.944364e-005
-7.804061e-004,-4.025397e-005
-1.217820e-003,-2.809907e-005
-1.609532e-003,-6.706447e-006
-1.766574e-003,1.387585e-005
-1.622011e-003,2.667901e-005
-1.256230e-003,3.073064e-005
-8.348601e-004,2.927205e-005
-5.100812e-004,2.522042e-005
-3.344025e-004,2.068259e-005
-2.475355e-004,1.549650e-005
-1.425172e-004,1.160693e-005
5.714729e-005,1.063454e-005
3.655576e-004,1.290346e-005
7.318255e-004,1.938607e-005
1.080266e-003,3.040651e-005
1.354157e-003,4.353380e-005
1.535671e-003,5.471631e-005
1.630155e-003,5.990240e-005
1.642796e-003,5.844381e-005
1.581373e-003,5.471631e-005
1.465658e-003,4.953022e-005
1.323689e-003,4.239934e-005
1.183988e-003,3.235129e-005
1.067139e-003,2.424803e-005
9.794615e-004,2.246531e-005
9.138250e-004,2.619281e-005
8.598571e-004,3.008238e-005
8.086445e-004,3.089270e-005
7.527319e-004,2.943412e-005
6.812610e-004,2.522042e-005
5.932595e-004,1.971020e-005
5.025028e-004,1.403791e-005
4.294114e-004,8.851824e-006
3.874364e-004,3.017472e-006
3.765781e-004,-2.654814e-006
3.859779e-004,-6.544382e-006
4.025085e-004,-9.137427e-006
4.149876e-004,-6.544382e-006
4.148255e-004,2.623614e-007
4.033188e-004,8.689757e-006
3.859779e-004,1.517237e-005
3.642611e-004,2.230324e-005
3.360618e-004,3.397195e-005
2.953833e-004,4.531652e-005
2.333123e-004,5.131293e-005
1.482280e-004,5.131293e-005
4.888196e-005,4.823369e-005
-4.462973e-005,4.693717e-005
-1.161005e-004,4.596478e-005
-1.553203e-004,4.256141e-005
-1.624512e-004,3.915804e-005
-1.562927e-004,4.239934e-005
-1.580754e-004,5.277152e-005
-1.809267e-004,6.346784e-005
-2.178775e-004,6.670914e-005
-2.404046e-004,6.298164e-005
-1.976194e-004,5.536457e-005
-4.932962e-005,4.434413e-005
1.911753e-004,3.413401e-005
4.465903e-004,2.538249e-005
6.159487e-004,1.857574e-005
6.358827e-004,1.484824e-005
5.091476e-004,1.517237e-005
2.997591e-004,1.419998e-005
8.875003e-005,9.986280e-006
-6.812920e-005,3.341602e-006
-1.535376e-004,-4.923729e-006
-1.770371e-004,-1.140634e-005
-1.486757e-004,-1.318906e-005
-7.623246e-005,-1.286493e-005
3.429608e-005,-8.975361e-006
1.650828e-004,5.864920e-007
2.948972e-004,1.582063e-005
3.947294e-004,2.992031e-005
4.423766e-004,3.624086e-005
4.373526e-004,3.721326e-005
3.910019e-004,4.158902e-005
3.185587e-004,4.839576e-005
2.362295e-004,4.904402e-005
1.686482e-004,4.547859e-005
1.370455e-004,4.418206e-005
1.438522e-004,4.645098e-005
1.723757e-004,4.888196e-005
2.000889e-004,4.855782e-005
2.137024e-004,4.320967e-005
2.135403e-004,3.559260e-005
2.015475e-004,3.040651e-005
1.770756e-004,3.024445e-005
1.218114e-004,3.494434e-005
9.106226e-007,4.013043e-005
-2.297083e-004,4.126489e-005
-5.964620e-004,3.721326e-005
-1.049597e-003,2.781346e-005
-1.469346e-003,1.679302e-005
-1.748422e-003,9.175954e-006
-1.839665e-003,5.934647e-006
-1.752636e-003,3.665733e-006
-1.539682e-003,-1.196226e-006
-1.269357e-003,-8.975361e-006
-1.005191e-003,-1.756482e-005
-7.885094e-004,-2.372330e-005
-6.301716e-004,-2.031993e-005
-5.196431e-004,-5.247859e-006
-4.329382e-004,1.646889e-005
-3.520676e-004,3.737532e-005
-2.723315e-004,5.730935e-005
-2.005366e-004,7.902610e-005
-1.454343e-004,9.960840e-005
-1.060525e-004,1.114392e-004
-7.817725e-005,1.120874e-004
-5.791909e-005,1.033359e-004
-4.284701e-005,8.453633e-005
-2.971972e-005,6.006446e-005
-1.626830e-005,3.753739e-005
-2.816880e-006,2.230324e-005
5.448451e-006,1.679302e-005
8.851824e-006,2.214118e-005
1.889987e-005,3.267542e-005
4.677511e-005,4.142695e-005
8.988448e-005,4.790957e-005
1.279698e-004,4.969228e-005
1.448246e-004,4.742337e-005
1.409351e-004,4.320967e-005
1.197045e-004,3.753739e-005
8.534666e-005,3.105477e-005
4.645098e-005,2.522042e-005
6.096713e-006,2.181705e-005
-3.555407e-005,1.889987e-005
-7.639453e-005,1.873781e-005
-1.122110e-004,1.906194e-005
-1.384655e-004,1.468617e-005
-1.533756e-004,6.744974e-006
-1.655304e-004,5.864920e-007
-1.901644e-004,-3.858999e-007
-2.418632e-004,3.341602e-006
-3.115513e-004,1.128280e-005
-3.736223e-004,2.311357e-005
-4.031182e-004,3.656499e-005
-3.977700e-004,4.855782e-005
-3.510952e-004,5.747142e-005
-2.530457e-004,5.925414e-005
-1.007043e-004,5.325772e-005
9.393611e-005,4.531652e-005
3.164518e-004,3.850977e-005
5.473950e-004,3.235129e-005
7.712073e-004,2.781346e-005
9.744375e-004,2.327564e-005
1.152547e-003,1.792748e-005
1.307320e-003,1.176900e-005
1.442159e-003,4.313994e-006
1.545719e-003,-6.058186e-006
1.590773e-003,-1.578211e-005
1.537453e-003,-1.772689e-005
1.342650e-003,-9.137427e-006
9.822166e-004,2.693341e-006
4.605280e-004,1.306552e-005
-1.763888e-004,2.100672e-005
-8.434496e-004,2.748933e-005
-1.455570e-003,3.445814e-005
-1.945170e-003,4.272347e-005
-2.275621e-003,5.066468e-005
-2.416456e-003,5.649903e-005
-2.339961e-003,5.747142e-005
-2.039006e-003,5.536457e-005
-1.543247e-003,5.358185e-005
-9.136238e-004,5.293359e-005
-2.323013e-004,5.309565e-005
4.266563e-004,5.390598e-005
1.006364e-003,5.163707e-005
1.465496e-003,3.980630e-005
1.777311e-003,2.359977e-005
1.939539e-003,7.717366e-006
1.970169e-003,-4.599598e-006
1.906639e-003,-1.075808e-005
1.784604e-003,-1.092015e-005
1.625131e-003,-7.030578e-006
1.441997e-003,1.396819e-006
1.246059e-003,1.193106e-005
1.053201e-003,2.667901e-005
8.833566e-004,4.823369e-005
7.480319e-004,7.772959e-005
6.480376e-004,1.057669e-004
5.673291e-004,1.231079e-004
4.788413e-004,1.245665e-004
3.563199e-004,1.124116e-004
1.885823e-004,9.312579e-005
-1.335112e-005,7.205730e-005
-2.191741e-004,5.795762e-005
-3.891806e-004,5.730935e-005
-4.948471e-004,6.687120e-005
-5.258016e-004,7.724339e-005
-4.940368e-004,8.161915e-005
-4.220798e-004,7.416414e-005
-3.384541e-004,5.957827e-005
-2.648765e-004,4.693717e-005
-2.126914e-004,4.029249e-005
-1.843300e-004,3.769945e-005
-1.796301e-004,3.478227e-005
-1.953505e-004,2.667901e-005
-2.245222e-004,1.517237e-005
-2.570973e-004,6.420843e-006
-2.822175e-004,6.582909e-006
-2.896725e-004,1.711715e-005
-2.716832e-004,3.478227e-005
-2.306807e-004,5.439218e-005
-1.718510e-004,7.076077e-005
-9.260106e-005,8.275361e-005
9.013888e-006,9.150514e-005
1.339663e-004,9.620503e-005
2.735045e-004,9.312579e-005
4.020223e-004,8.421220e-005
4.887274e-004,7.319175e-005
4.987753e-004,6.606088e-005
4.073705e-004,6.395403e-005
2.094887e-004,6.525056e-005
-7.185670e-005,6.525056e-005
-3.935563e-004,6.265751e-005
-7.037492e-004,5.455424e-005
-9.496023e-004,3.996836e-005
-1.093678e-003,2.586868e-005
-1.124471e-003,1.695509e-005
-1.052514e-003,9.986280e-006
-9.063308e-004,7.485573e-007
-7.314624e-004,-1.205460e-005
-5.749073e-004,-2.777494e-005
-4.643788e-004,-4.106429e-005
-3.974459e-004,-5.095028e-005
-3.540124e-004,-5.710876e-005
-3.175477e-004,-5.872941e-005
-2.794623e-004,-5.613637e-005
-2.340841e-004,-4.835723e-005
-1.817370e-004,-3.911951e-005
-1.229073e-004,-3.085418e-005
-5.419158e-005,-2.664048e-005
1.987226e-005,-2.615428e-005
8.307774e-005,-2.907146e-005
1.239182e-004,-3.749886e-005
1.388282e-004,-4.592625e-005
1.253768e-004,-4.997788e-005
8.356393e-005,-4.787104e-005
1.128280e-005,-3.895744e-005
-9.454584e-005,-2.129233e-005
-2.248463e-004,3.665733e-006
-3.585502e-004,3.332369e-005
-4.703752e-004,6.233338e-005
-5.290429e-004,8.858796e-005
-5.018159e-004,1.101426e-004
-3.645466e-004,1.266733e-004
-1.105903e-004,1.407730e-004
2.543808e-004,1.517934e-004
7.188602e-004,1.574657e-004
1.237470e-003,1.545486e-004
1.731608e-003,1.464453e-004
2.125104e-003,1.389903e-004
2.362855e-003,1.351007e-004
2.418443e-003,1.331559e-004
2.278743e-003,1.302387e-004
1.944563e-003,1.208390e-004
1.455124e-003,1.057669e-004
8.853014e-004,9.069480e-005
3.112657e-004,7.902610e-005
-2.151224e-004,7.254349e-005
-6.676087e-004,6.719534e-005
-1.037117e-003,6.119892e-005
-1.309063e-003,5.309565e-005
-1.461567e-003,4.580272e-005
-1.503217e-003,4.256141e-005
-1.487173e-003,4.288554e-005
-1.477449e-003,4.483032e-005
-1.491387e-003,4.418206e-005
-1.465780e-003,3.656499e-005
-1.281512e-003,1.906194e-005
-8.350221e-004,-1.027188e-005
-1.285796e-004,-4.706071e-005
6.914712e-004,-8.287714e-005
1.375712e-003,-1.135075e-004
1.684771e-003,-1.378173e-004
1.470196e-003,-1.512687e-004
7.644006e-004,-1.470550e-004
-2.073433e-004,-1.220969e-004
-1.121392e-003,-8.320127e-005
-1.723788e-003,-4.041603e-005
-1.896550e-003,-6.868512e-006
-1.648104e-003,1.290346e-005
-1.081686e-003,1.971020e-005
-3.467194e-004,1.679302e-005
4.140152e-004,9.338019e-006
1.096635e-003,3.503668e-006
1.668565e-003,2.369210e-006
2.132883e-003,2.693341e-006
2.490077e-003,-3.858999e-007
2.715187e-003,-1.075808e-005
2.725073e-003,-2.599222e-005
2.416985e-003,-3.814712e-005
1.736470e-003,-3.782299e-005
7.076777e-004,-2.404744e-005
-5.274222e-004,-3.951337e-006
-1.733188e-003,1.825161e-005
-2.727460e-003,3.380988e-005
-3.400033e-003,3.624086e-005
-3.697100e-003,3.008238e-005
-3.591757e-003,2.408596e-005
-3.074281e-003,2.311357e-005
-2.205771e-003,2.765140e-005
-1.156560e-003,3.299956e-005
-1.925954e-004,3.607880e-005
4.315182e-004,3.478227e-005
6.114109e-004,3.283749e-005
4.376767e-004,2.846173e-005
1.166253e-004,2.457216e-005
-1.472171e-004,2.570661e-005
-2.400805e-004,3.494434e-005
-1.611547e-004,5.293359e-005
2.327564e-005,7.837785e-005
2.431983e-004,1.073875e-004
4.474007e-004,1.338042e-004
6.086557e-004,1.472556e-004
7.225877e-004,1.428798e-004
7.904932e-004,1.248906e-004
8.062135e-004,1.009049e-004
7.700729e-004,7.951231e-005
6.893643e-004,6.362990e-005
5.843459e-004,4.839576e-005
4.837033e-004,2.910999e-005
4.159599e-004,2.855406e-006
4.016982e-004,-3.053005e-005
4.405939e-004,-6.861539e-005
5.127130e-004,-1.062145e-004
5.924492e-004,-1.350622e-004
6.645683e-004,-1.472171e-004
7.250187e-004,-1.417068e-004
7.713694e-004,-1.183694e-004
8.041066e-004,-8.287714e-005
8.243648e-004,-3.895744e-005
8.306854e-004,5.448451e-006
8.216097e-004,4.547859e-005
7.867657e-004,7.756751e-005
7.104328e-004,1.000946e-004
6.144901e-004,1.101426e-004
5.595500e-004,1.090082e-004
6.003904e-004,1.041462e-004
7.473837e-004,1.020394e-004
9.616343e-004,1.034980e-004
1.186257e-003,1.064151e-004
1.383815e-003,1.057669e-004
1.547015e-003,1.007429e-004
1.679585e-003,9.685329e-005
1.772125e-003,1.015532e-004
1.792707e-003,1.182459e-004
1.690281e-003,1.415833e-004
1.416552e-003,1.566554e-004
9.690893e-004,1.547106e-004
4.083429e-004,1.360731e-004
-1.582375e-004,1.119254e-004
-6.355197e-004,9.377405e-005
-9.927116e-004,8.777764e-005
-1.260768e-003,9.053274e-005
-1.480528e-003,9.555677e-005
-1.655235e-003,9.814982e-005
-1.751339e-003,9.863601e-005
-1.728164e-003,9.652916e-005
-1.561885e-003,9.037068e-005
-1.257688e-003,7.805372e-005
-8.575492e-004,5.163707e-005
-4.284004e-004,1.630683e-005
-4.219875e-005,-1.788895e-005
2.448189e-004,-4.025397e-005
3.919743e-004,-4.544005e-005
3.739850e-004,-3.474375e-005
2.078680e-004,-1.399939e-005
-4.236081e-005,1.063454e-005
-2.987481e-004,3.235129e-005
-5.081365e-004,4.320967e-005
-6.465402e-004,4.142695e-005
-7.150938e-004,3.040651e-005
-7.222247e-004,1.322759e-005
-6.800877e-004,-5.409925e-006
-6.037550e-004,-2.323711e-005
-5.021400e-004,-3.604027e-005
-3.715154e-004,-4.074016e-005
-2.222533e-004,-3.490581e-005
-8.320127e-005,-1.934754e-005
9.175954e-006,-1.844488e-006
2.943412e-005,9.500084e-006
-2.501983e-005,1.160693e-005
-1.271210e-004,9.662150e-006
-2.491561e-004,8.041497e-006
-3.754050e-004,1.063454e-005
-5.129984e-004,1.695509e-005
-6.783050e-004,2.489629e-005
-8.826694e-004,3.137890e-005
-1.111343e-003,3.397195e-005
-1.301932e-003,3.591673e-005
-1.372269e-003,4.320967e-005
-1.263199e-003,5.277152e-005
-9.643502e-004,5.876794e-005
-5.146191e-004,5.990240e-005
9.824214e-006,5.828174e-005
5.209784e-004,5.552663e-005
9.433209e-004,5.066468e-005
1.223046e-003,4.547859e-005
1.342002e-003,4.304760e-005
1.314289e-003,4.515445e-005
1.179775e-003,5.115087e-005
9.895095e-004,6.184718e-005
7.950310e-004,7.335382e-005
6.426895e-004,8.145709e-005
5.571189e-004,8.648111e-005
5.297298e-004,9.004655e-005
5.354022e-004,9.588090e-005
5.464226e-004,1.028497e-004
5.420469e-004,1.070634e-004
5.063924e-004,1.043083e-004
4.268184e-004,9.344992e-005
3.039728e-004,7.821578e-005
1.611932e-004,6.476436e-005
3.348575e-005,5.633696e-005
-5.500191e-005,4.985435e-005
-1.063766e-004,4.158902e-005
-1.352242e-004,3.121684e-005
-1.643960e-004,2.165498e-005
-2.086398e-004,1.517237e-005
-2.726556e-004,1.387585e-005
-3.528779e-004,1.808955e-005
-4.340726e-004,2.505835e-005
-4.988987e-004,3.462021e-005
-5.489769e-004,4.304760e-005
-5.941931e-004,4.531652e-005
-6.233649e-004,3.624086e-005
-5.998655e-004,1.889987e-005
-4.804233e-004,-2.816880e-006
-2.475355e-004,-2.145439e-005
3.299956e-005,-3.020592e-005
2.255332e-004,-2.793700e-005
2.252090e-004,-2.161646e-005
4.045456e-005,-1.270286e-005
-2.096122e-004,-1.196226e-006
-3.768636e-004,1.014835e-005
-3.582261e-004,1.857574e-005
-1.426792e-004,2.408596e-005
1.887443e-004,2.943412e-005
5.128751e-004,3.056858e-005
7.120535e-004,2.197911e-005
7.178878e-004,5.864920e-007
5.284333e-004,-2.680255e-005
1.949028e-004,-5.435365e-005
-1.971332e-004,-7.817725e-005
-5.646973e-004,-9.373551e-005
-8.497701e-004,-1.008664e-004
-1.012646e-003,-1.010285e-004
-9.922255e-004,-9.243900e-005
-7.283832e-004,-7.363942e-005
-2.274394e-004,-5.127441e-005
3.950535e-004,-3.020592e-005
9.361900e-004,-1.027188e-005
1.210405e-003,1.160693e-005
1.128238e-003,3.737532e-005
7.240463e-004,6.168512e-005
1.219734e-004,7.513654e-005
-5.198051e-004,7.756751e-005
-1.074393e-003,7.367795e-005
-1.493656e-003,6.476436e-005
-1.805307e-003,5.455424e-005
-2.067043e-003,4.466826e-005
-2.295231e-003,3.478227e-005
-2.426666e-003,2.667901e-005
-2.372698e-003,1.954813e-005
-2.090056e-003,1.290346e-005
-1.622335e-003,1.144487e-005
-1.099999e-003,1.808955e-005
-6.664742e-004,3.137890e-005
-3.720016e-004,4.823369e-005
-1.564548e-004,6.622294e-005
5.811968e-005,8.405013e-005
2.879283e-004,9.750155e-005
5.059062e-004,1.031738e-004
6.754267e-004,1.049566e-004
7.781762e-004,1.072255e-004
8.271199e-004,1.109530e-004
8.621261e-004,1.154908e-004
9.316522e-004,1.185700e-004
1.062763e-003,1.197045e-004
1.238766e-003,1.203528e-004
1.424494e-003,1.193804e-004
1.586073e-003,1.138701e-004
1.682988e-003,1.051186e-004
1.692226e-003,9.636710e-005
1.619134e-003,9.101894e-005
1.494182e-003,8.664317e-005
1.350754e-003,8.307774e-005
1.208784e-003,7.578480e-005
1.068922e-003,6.265751e-005
9.303557e-004,4.774750e-005
7.985964e-004,3.445814e-005
6.879057e-004,2.165498e-005
6.110867e-004,1.014835e-005
5.710566e-004,2.531276e-006
5.616568e-004,-3.858999e-007
5.796460e-004,-1.196226e-006
6.159487e-004,5.864920e-007
6.473893e-004,7.555300e-006
6.478755e-004,1.808955e-005
6.075212e-004,2.813760e-005
5.310263e-004,3.089270e-005
4.240632e-004,2.570661e-005
2.846870e-004,1.582063e-005
1.125736e-004,6.420843e-006
-8.757703e-005,1.002961e-007
-3.092824e-004,-3.858999e-007
-5.220741e-004,3.341602e-006
-6.565882e-004,8.365628e-006
-6.236890e-004,9.824214e-006
-3.608191e-004,2.369210e-006
1.329939e-004,-1.740276e-005
7.929241e-004,-4.673658e-005
1.506823e-003,-7.720485e-005
2.153466e-003,-1.002181e-004
2.629940e-003,-1.109144e-004
2.843543e-003,-1.131834e-004
2.755055e-003,-1.148040e-004
2.393810e-003,-1.220969e-004
1.825606e-003,-1.350622e-004
1.153520e-003,-1.511066e-004
5.021787e-004,-1.643960e-004
-3.522994e-005,-1.660166e-004
-4.698891e-004,-1.491618e-004
-8.906105e-004,-1.156143e-004
-1.361086e-003,-7.218083e-005
-1.861544e-003,-2.664048e-005
-2.314679e-003,1.322759e-005
-2.618066e-003,4.337174e-005
-2.688564e-003,6.298164e-005
-2.503647e-003,7.076077e-005
-2.126359e-003,6.687120e-005
-1.695589e-003,5.212327e-005
-1.355252e-003,4.094075e-005
-1.165960e-003,4.207521e-005
-1.086223e-003,5.471631e-005
-1.030797e-003,7.497447e-005
-9.411749e-004,9.296372e-005
-8.165467e-004,1.017153e-004
-6.891634e-004,1.026876e-004
-5.938690e-004,1.020394e-004
-5.413598e-004,1.020394e-004
-5.047331e-004,1.026876e-004
-4.303451e-004,1.075496e-004
-2.797865e-004,1.151667e-004
-4.041603e-005,1.206769e-004
2.665357e-004,1.201907e-004
5.990939e-004,1.133840e-004
9.076665e-004,1.052807e-004
1.153034e-003,9.912220e-005
1.306186e-003,9.539470e-005
1.340219e-003,9.361198e-005
1.243953e-003,9.085687e-005
1.022085e-003,8.486046e-005
6.880678e-004,7.805372e-005
2.778803e-004,7.951231e-005
-1.259865e-004,9.118101e-005
-3.904771e-004,1.072255e-004
-4.031182e-004,1.193804e-004
-1.865989e-004,1.205148e-004
8.178122e-005,1.116012e-004
1.644345e-004,1.025256e-004
-9.762508e-005,1.005808e-004
-6.971046e-004,1.117633e-004
-1.458812e-003,1.281319e-004
-2.130248e-003,1.443384e-004
-2.499920e-003,1.537382e-004
-2.481930e-003,1.550348e-004
-2.131059e-003,1.506590e-004
-1.597215e-003,1.443384e-004
-1.041817e-003,1.396385e-004
-5.792831e-004,1.362352e-004
-2.519113e-004,1.300767e-004
-3.782299e-005,1.182459e-004
1.211631e-004,1.012291e-004
2.728562e-004,8.178122e-005
4.394594e-004,6.622294e-005
6.187038e-004,5.811968e-005
7.909793e-004,5.828174e-005
9.254937e-004,6.233338e-005
9.945336e-004,6.751947e-005
9.880509e-004,7.594687e-005
9.216041e-004,8.648111e-005
8.319819e-004,9.701536e-005
7.627800e-004,1.023635e-004
7.428459e-004,1.036600e-004
7.691005e-004,1.052807e-004
8.196649e-004,1.059289e-004
8.692570e-004,1.022014e-004
8.963219e-004,9.814982e-005
8.904876e-004,9.701536e-005
8.509436e-004,9.442231e-005
7.825519e-004,8.307774e-005
6.934159e-004,6.119892e-005
5.932595e-004,3.834771e-005
4.874308e-004,1.889987e-005
3.777125e-004,2.623614e-007
2.848491e-004,-1.691656e-005
2.495188e-004,-3.198863e-005
3.004074e-004,-4.673658e-005
4.404318e-004,-5.970180e-005
6.480376e-004,-7.056018e-005
8.830325e-004,-7.801519e-005
1.102469e-003,-8.417366e-005
1.271828e-003,-9.357345e-005
1.370039e-003,-1.117248e-004
1.389001e-003,-1.378173e-004
1.329685e-003,-1.616409e-004
1.184150e-003,-1.692580e-004
9.301936e-004,-1.609926e-004
5.477191e-004,-1.459205e-004
6.184718e-005,-1.357104e-004
-4.587065e-004,-1.366828e-004
-9.254545e-004,-1.442999e-004
-1.279729e-003,-1.549962e-004
-1.519910e-003,-1.629374e-004
-1.692996e-003,-1.605064e-004
-1.875320e-003,-1.441378e-004
-2.125386e-003,-1.172350e-004
-2.425856e-003,-8.482193e-005
-2.663930e-003,-5.046408e-005
-2.689699e-003,-2.048200e-005
-2.406894e-003,-6.176923e-008
-1.831400e-003,1.452411e-005
-1.068072e-003,2.522042e-005
-2.412149e-004,3.543053e-005
5.279472e-004,4.693717e-005
1.150116e-003,6.038860e-005
1.603576e-003,7.416414e-005
1.922197e-003,8.178122e-005
2.159948e-003,7.610893e-005
2.359127e-003,5.649903e-005
2.523624e-003,3.040651e-005
2.627023e-003,2.045080e-006
2.639340e-003,-2.664048e-005
2.518114e-003,-5.791909e-005
2.194630e-003,-8.757703e-005
1.592394e-003,-1.101041e-004
6.754267e-004,-1.164247e-004
-4.873921e-004,-9.616650e-005
-1.691861e-003,-5.127441e-005
-2.737346e-003,7.231170e-006
-3.476366e-003,6.508849e-005
-3.824484e-003,1.133840e-004
-3.746692e-003,1.462832e-004
-3.265194e-003,1.613553e-004
-2.477717e-003,1.634621e-004
-1.546165e-003,1.584381e-004
-6.517263e-004,1.490383e-004
5.666109e-005,1.370455e-004
5.062303e-004,1.261871e-004
7.250187e-004,1.184080e-004
8.041066e-004,1.107909e-004
8.509436e-004,1.005808e-004
9.574206e-004,8.242948e-005
1.158058e-003,5.439218e-005
1.397429e-003,2.230324e-005
1.584939e-003,-6.382316e-006
1.644579e-003,-2.485776e-005
1.517357e-003,-2.939559e-005
1.216563e-003,-1.934754e-005
8.601813e-004,5.124321e-006
5.966629e-004,3.834771e-005
5.187094e-004,7.400208e-005
6.187038e-004,1.069013e-004
7.859553e-004,1.372075e-004
8.629364e-004,1.631380e-004
7.558112e-004,1.845306e-004
4.934272e-004,1.994406e-004
1.788584e-004,2.025199e-004
-9.843541e-005,1.885823e-004
-2.961551e-004,1.603829e-004
-4.143007e-004,1.292664e-004
-4.703752e-004,1.028497e-004
-4.867438e-004,8.210535e-005
-4.838267e-004,6.444023e-005
-4.659995e-004,4.807163e-005
-4.177041e-004,3.850977e-005
-3.331059e-004,3.769945e-005
-2.395943e-004,4.256141e-005
-1.929195e-004,5.001641e-005
-2.506147e-004,5.374392e-005
-4.413656e-004,4.726130e-005
-7.368106e-004,3.283749e-005
-1.052514e-003,1.549650e-005
-1.292532e-003,-8.720958e-007
-1.390420e-003,-1.237873e-005
-1.337425e-003,-1.367526e-005
-1.166608e-003,-1.682422e-006
-9.293441e-004,1.776542e-005
-6.747395e-004,3.429608e-005
-4.400690e-004,4.239934e-005
-2.441321e-004,4.531652e-005
-8.935975e-005,4.256141e-005
2.862379e-005,3.688912e-005
1.265113e-004,3.105477e-005
2.218057e-004,2.603075e-005
3.221241e-004,2.408596e-005
4.227667e-004,2.570661e-005
5.138475e-004,2.732727e-005
5.861287e-004,2.473422e-005
6.387999e-004,1.663096e-005
6.780197e-004,5.124321e-006
7.101087e-004,-7.354708e-006
7.527319e-004,-1.788895e-005
8.271199e-004,-2.323711e-005
9.373245e-004,-2.145439e-005
1.044126e-003,-1.254080e-005
1.074756e-003,2.623614e-007
9.661721e-004,1.452411e-005
7.016812e-004,2.732727e-005
3.365479e-004,3.526847e-005
-2.258885e-005,3.899597e-005
-2.840002e-004,4.175108e-005
-3.972838e-004,4.402000e-005
-3.728119e-004,4.628891e-005
-2.642282e-004,4.515445e-005
-1.391138e-004,3.932010e-005
-5.208473e-005,3.089270e-005
-2.226472e-005,2.165498e-005
-5.921561e-005,1.549650e-005
-1.817370e-004,1.598270e-005
-4.044147e-004,2.100672e-005
-7.063423e-004,2.392390e-005
-1.025287e-003,2.003433e-005
-1.280378e-003,1.225519e-005
-1.394147e-003,5.610517e-006
-1.331266e-003,3.827798e-006
-1.137112e-003,5.610517e-006
-8.938518e-004,9.500084e-006
-6.449196e-004,1.501031e-005
-3.773498e-004,2.295151e-005
-3.571614e-005,3.380988e-005
4.196875e-004,4.385793e-005
9.028045e-004,4.191315e-005
1.207002e-003,1.808955e-005
1.128238e-003,-2.161646e-005
6.511168e-004,-5.889147e-005
1.225519e-005,-7.088431e-005
-4.781544e-004,-4.803310e-005
-6.575607e-004,9.106226e-007
-5.514079e-004,5.552663e-005
-2.974516e-004,1.002567e-004
-6.391550e-005,1.266733e-004
1.582063e-005,1.373696e-004
-1.091317e-004,1.417454e-004
-3.820497e-004,1.438522e-004
-6.713362e-004,1.420695e-004
-8.450702e-004,1.305629e-004
-8.457184e-004,1.065772e-004
-7.150938e-004,7.675719e-005
-5.376323e-004,4.985435e-005
-3.687603e-004,3.283749e-005
-2.100984e-004,2.392390e-005
-2.356124e-005,1.841368e-005
2.248849e-004,1.063454e-005
5.279472e-004,-2.238345e-007
8.405714e-004,-1.254080e-005
1.114786e-003,-2.404744e-005
1.337788e-003,-3.182657e-005
1.533078e-003,-3.652646e-005
1.723343e-003,-3.847125e-005
1.896753e-003,-3.587821e-005
2.004041e-003,-3.231276e-005
1.981189e-003,-3.053005e-005
1.767263e-003,-3.458168e-005
1.332764e-003,-3.847125e-005
7.203188e-004,-3.782299e-005
3.056858e-005,-3.004385e-005
-6.186650e-004,-1.772689e-005
-1.123336e-003,-8.327101e-006
-1.422347e-003,-6.382316e-006
-1.503217e-003,-1.124428e-005
-1.404520e-003,-1.821308e-005
-1.204045e-003,-2.258885e-005
-9.821773e-004,-1.675450e-005
-7.795958e-004,-1.196226e-006
-5.940310e-004,1.922400e-005
-4.060353e-004,3.786152e-005
-2.086398e-004,4.709924e-005
-1.108221e-005,4.985435e-005
1.668655e-004,5.228533e-005
3.067279e-004,5.358185e-005
4.148255e-004,5.487837e-005
5.204921e-004,5.374392e-005
6.548443e-004,4.709924e-005
8.297130e-004,3.688912e-005
1.036995e-003,3.008238e-005
1.252056e-003,3.364782e-005
1.441186e-003,4.596478e-005
1.571811e-003,6.200925e-005
1.623834e-003,7.384001e-005
1.590125e-003,8.129502e-005
1.485268e-003,8.550872e-005
1.348485e-003,8.550872e-005
1.224180e-003,7.983643e-005
1.141851e-003,7.157111e-005
1.098580e-003,6.427816e-005
1.080428e-003,6.168512e-005
1.069084e-003,6.395403e-005
1.035536e-003,7.254349e-005
9.400796e-004,8.680524e-005
7.452769e-004,1.052807e-004
4.380009e-004,1.214872e-004
3.883391e-005,1.278078e-004
-4.037664e-004,1.237561e-004
-8.335636e-004,1.099806e-004
-1.206962e-003,9.377405e-005
-1.484094e-003,8.194328e-005
-1.636273e-003,7.384001e-005
-1.645025e-003,6.816773e-005
-1.506135e-003,6.476436e-005
-1.232892e-003,6.379197e-005
-8.640318e-004,6.217131e-005
-4.621099e-004,5.779555e-005
-8.854943e-005,5.601283e-005
2.171058e-004,5.909207e-005
4.533971e-004,6.249544e-005
6.642442e-004,5.536457e-005
9.250075e-004,3.056858e-005
1.292896e-003,-8.651231e-006
1.772611e-003,-5.192267e-005
2.289925e-003,-8.077029e-005
2.693794e-003,-8.287714e-005
2.809185e-003,-5.937767e-005
2.515035e-003,-2.145439e-005
1.795786e-003,1.338965e-005
7.120535e-004,3.478227e-005
-6.219063e-004,4.013043e-005
-2.033333e-003,3.494434e-005
-3.350279e-003,2.910999e-005
-4.358330e-003,3.089270e-005
-4.830268e-003,4.191315e-005
-4.651833e-003,5.763348e-005
-3.913945e-003,7.254349e-005
-2.885636e-003,7.935023e-005
-1.888933e-003,7.886404e-005
-1.191080e-003,7.529860e-005
-9.053584e-004,7.108490e-005
-9.568952e-004,6.670914e-005
-1.151860e-003,6.460230e-005
-1.274705e-003,6.638501e-005
-1.175845e-003,6.622294e-005
-8.274050e-004,6.362990e-005
-3.250027e-004,6.265751e-005
1.678379e-004,6.589881e-005
5.044476e-004,7.059870e-005
6.247002e-004,7.351588e-005
5.661946e-004,6.881599e-005
4.169323e-004,5.568870e-005
2.632944e-004,3.867184e-005
1.537382e-004,2.311357e-005
9.571883e-005,1.419998e-005
7.740545e-005,1.306552e-005
9.847395e-005,1.695509e-005
1.558451e-004,1.419998e-005
2.430362e-004,2.207145e-006
3.498373e-004,-1.156841e-005
4.615003e-004,-2.080613e-005
5.653843e-004,-2.761287e-005
6.558168e-004,-3.863331e-005
7.381460e-004,-5.921561e-005
8.076721e-004,-8.871149e-005
8.527263e-004,-1.188556e-004
8.606674e-004,-1.418689e-004
8.358714e-004,-1.567789e-004
8.110754e-004,-1.655304e-004
8.319819e-004,-1.621271e-004
9.154456e-004,-1.418689e-004
1.023543e-003,-1.070249e-004
1.086911e-003,-6.699474e-005
1.051094e-003,-2.955766e-005
9.091251e-004,4.313994e-006
7.151327e-004,3.624086e-005
5.533914e-004,6.038860e-005
4.846757e-004,7.027457e-005
5.088234e-004,6.460230e-005
5.697600e-004,4.839576e-005
5.947181e-004,3.332369e-005
5.292437e-004,3.024445e-005
3.584267e-004,4.126489e-005
7.935023e-005,6.103685e-005
-3.288923e-004,7.983643e-005
-8.711627e-004,8.939829e-005
-1.475342e-003,8.777764e-005
-1.991845e-003,7.465034e-005
-2.266221e-003,5.893001e-005
-2.206419e-003,4.807163e-005
-1.818921e-003,4.628891e-005
-1.211176e-003,5.455424e-005
-5.544871e-004,6.768153e-005
-2.168618e-006,7.918817e-005
3.757677e-004,8.891209e-005
6.052523e-004,9.571883e-005
7.624558e-004,1.000946e-004
9.117181e-004,1.004187e-004
1.058387e-003,9.490851e-005
1.154654e-003,8.145709e-005
1.154492e-003,6.314371e-005
1.051581e-003,4.888196e-005
8.655294e-004,4.661304e-005
6.347482e-004,5.698522e-005
4.313562e-004,7.254349e-005
3.550234e-004,8.567078e-005
4.791655e-004,8.729143e-005
7.838485e-004,8.145709e-005
1.111707e-003,7.562274e-005
1.229042e-003,7.221937e-005
9.193352e-004,7.059870e-005
9.539470e-005,6.800567e-005
-1.104375e-003,6.265751e-005
-2.372536e-003,5.520250e-005
-3.387716e-003,4.774750e-005
-3.921075e-003,4.110282e-005
-3.892876e-003,3.380988e-005
-3.367782e-003,2.667901e-005
-2.516613e-003,2.149292e-005
-1.535792e-003,2.084466e-005
-5.946793e-004,2.278944e-005
1.961993e-004,2.311357e-005
7.990826e-004,1.938607e-005
1.227422e-003,1.047248e-005
1.493858e-003,-3.141010e-006
1.594014e-003,-1.869928e-005
1.524326e-003,-3.053005e-005
1.305213e-003,-3.782299e-005
1.000368e-003,-3.782299e-005
7.099466e-004,-3.101624e-005
5.248679e-004,-2.129233e-005
4.832171e-004,-1.691656e-005
5.657084e-004,-1.918548e-005
7.238842e-004,-2.420950e-005
9.023183e-004,-2.550602e-005
1.056767e-003,-2.194059e-005
1.159192e-003,-1.399939e-005
1.210567e-003,-3.627206e-006
1.234877e-003,7.879431e-006
1.244277e-003,1.889987e-005
1.233742e-003,2.457216e-005
1.184636e-003,2.554455e-005
1.080266e-003,2.278944e-005
9.190111e-004,1.922400e-005
7.430080e-004,2.019640e-005
6.070351e-004,2.538249e-005
5.365366e-004,3.024445e-005
5.274609e-004,3.202716e-005
5.610085e-004,3.251336e-005
6.175693e-004,3.397195e-005
6.755887e-004,3.672705e-005
7.088121e-004,4.320967e-005
6.950366e-004,5.358185e-005
6.229175e-004,6.703327e-005
4.892135e-004,7.789165e-005
3.004074e-004,8.842590e-005
7.562274e-005,1.012291e-004
-1.606685e-004,1.145184e-004
-3.943666e-004,1.227837e-004
-6.152616e-004,1.235941e-004
-8.155743e-004,1.224596e-004
-9.920634e-004,1.195424e-004
-1.126902e-003,1.138701e-004
-1.197400e-003,1.077117e-004
-1.191404e-003,1.022014e-004
-1.111506e-003,1.022014e-004
-9.520333e-004,1.117633e-004
-7.032630e-004,1.284560e-004
-3.715154e-004,1.435281e-004
7.555300e-006,1.500107e-004
3.832228e-004,1.470936e-004
7.094605e-004,1.359110e-004
9.540172e-004,1.169494e-004
1.104900e-003,9.523264e-005
1.155627e-003,7.886404e-005
1.104900e-003,7.302969e-005
9.580688e-004,7.837785e-005
7.290703e-004,8.826383e-005
4.352457e-004,9.377405e-005
1.015532e-004,8.956035e-005
-2.567732e-004,7.416414e-005
-6.510781e-004,5.115087e-005
-1.098864e-003,2.765140e-005
-1.591705e-003,5.124321e-006
-2.069636e-003,-1.869928e-005
-2.430556e-003,-4.268495e-005
-2.571067e-003,-6.213279e-005
-2.419535e-003,-7.412562e-005
-1.958297e-003,-7.785312e-005
-1.221386e-003,-7.347736e-005
-2.630937e-004,-6.618442e-005
8.230683e-004,-5.710876e-005
1.861261e-003,-4.835723e-005
2.658626e-003,-3.976777e-005
3.082753e-003,-3.377135e-005
3.073678e-003,-3.279896e-005
2.650522e-003,-3.522994e-005
1.893674e-003,-4.171255e-005
9.053975e-004,-4.754691e-005
-1.661787e-004,-4.851930e-005
-1.131277e-003,-4.625038e-005
-1.866892e-003,-4.511592e-005
-2.334289e-003,-4.673658e-005
-2.528281e-003,-4.689864e-005
-2.448545e-003,-4.430560e-005
-2.109666e-003,-3.992984e-005
-1.560264e-003,-3.458168e-005
-8.928794e-004,-2.971972e-005
-2.308428e-004,-2.615428e-005
2.992729e-004,-2.534396e-005
6.073592e-004,-2.372330e-005
6.674855e-004,-2.096819e-005
5.000719e-004,-1.545797e-005
1.295905e-004,-6.220251e-006
-3.982562e-004,8.365628e-006
-9.884980e-004,2.862379e-005
-1.507107e-003,5.568870e-005
-1.827348e-003,8.712937e-005
-1.877102e-003,1.151667e-004
-1.669010e-003,1.321835e-004
-1.282322e-003,1.313732e-004
-8.244879e-004,1.164632e-004
-4.047388e-004,9.701536e-005
-9.730095e-005,7.967437e-005
7.627100e-005,6.654707e-005
1.402868e-004,5.633696e-005
1.433660e-004,4.839576e-005
1.368834e-004,4.288554e-005
1.631380e-004,3.980630e-005
2.568118e-004,3.753739e-005
4.501558e-004,3.591673e-005
7.430080e-004,3.526847e-005
1.092421e-003,3.526847e-005
1.415580e-003,2.862379e-005
1.639068e-003,1.679302e-005
1.740360e-003,4.313994e-006
1.750894e-003,-8.813297e-006
1.704867e-003,-2.664048e-005
1.595473e-003,-4.949169e-005
1.393539e-003,-7.347736e-005
1.084966e-003,-9.681476e-005
6.989262e-004,-1.151281e-004
3.308756e-004,-1.167488e-004
1.017153e-004,-9.292519e-005
7.448828e-005,-4.365734e-005
2.218057e-004,1.841368e-005
4.602038e-004,7.772959e-005
7.174016e-004,1.245665e-004
9.859441e-004,1.524417e-004
1.306672e-003,1.634621e-004
1.702923e-003,1.618415e-004
2.116514e-003,1.534141e-004
2.448264e-003,1.419075e-004
2.621999e-003,1.338042e-004
2.607250e-003,1.346145e-004
2.395592e-003,1.401247e-004
1.960121e-003,1.487142e-004
1.280093e-003,1.589243e-004
4.169323e-004,1.621656e-004
-5.042469e-004,1.487142e-004
-1.344231e-003,1.198666e-004
-1.984065e-003,8.291567e-005
-2.360706e-003,4.450619e-005
-2.505106e-003,8.527692e-006
-2.513371e-003,-2.210265e-005
-2.494409e-003,-4.997788e-005
-2.526012e-003,-7.882551e-005
-2.634596e-003,-1.045939e-004
-2.804279e-003,-1.151281e-004
-3.004430e-003,-1.047560e-004
-3.207661e-003,-8.141856e-005
-3.382692e-003,-4.835723e-005
-3.467939e-003,-8.327101e-006
-3.365675e-003,3.089270e-005
-3.004106e-003,5.828174e-005
-2.398629e-003,7.059870e-005
-1.662366e-003,6.995045e-005
-9.849325e-004,6.298164e-005
-5.384427e-004,5.325772e-005
-3.528779e-004,4.612685e-005
-2.898345e-004,4.175108e-005
-1.502963e-004,3.721326e-005
1.843686e-004,3.040651e-005
6.927677e-004,2.035846e-005
1.235363e-003,4.476060e-006
1.628372e-003,-1.254080e-005
1.741332e-003,-2.469570e-005
1.569542e-003,-2.842320e-005
1.231311e-003,-2.226472e-005
9.019942e-004,-8.489165e-006
7.256669e-004,6.582909e-006
7.528939e-004,1.792748e-005
9.311660e-004,2.781346e-005
1.153358e-003,3.575467e-005
1.324823e-003,4.029249e-005
1.402453e-003,4.077869e-005
1.396618e-003,4.126489e-005
1.341516e-003,4.191315e-005
1.273772e-003,4.126489e-005
1.218832e-003,4.077869e-005
1.185123e-003,4.337174e-005
1.164540e-003,5.131293e-005
1.142500e-003,6.460230e-005
1.105711e-003,7.627100e-005
1.052877e-003,7.918817e-005
9.966404e-004,7.465034e-005
9.562862e-004,6.670914e-005
9.438071e-004,5.730935e-005
9.540172e-004,4.450619e-005
9.742754e-004,3.186510e-005
9.865924e-004,2.813760e-005
9.752478e-004,3.899597e-005
9.457518e-004,6.022653e-005
9.238730e-004,8.113296e-005
9.382968e-004,9.669123e-005
9.822166e-004,1.052807e-004
1.009444e-003,1.069013e-004
9.637411e-004,1.026876e-004
8.159374e-004,9.393611e-005
5.874252e-004,8.291567e-005
3.367100e-004,7.173317e-005
1.279698e-004,6.427816e-005
-6.058186e-006,6.087479e-005
-6.780506e-005,5.876794e-005
-8.433573e-005,5.601283e-005
-8.838737e-005,5.520250e-005
-1.049180e-004,5.957827e-005
-1.455964e-004,6.346784e-005
-2.045882e-004,5.666109e-005
-2.564491e-004,2.959618e-005
-2.608248e-004,-1.254080e-005
-2.002124e-004,-5.419158e-005
-1.007043e-004,-7.639453e-005
1.744128e-005,-7.072224e-005
1.428798e-004,-4.106429e-005
2.616738e-004,3.179537e-006
3.572923e-004,4.839576e-005
4.148255e-004,8.226741e-005
4.287631e-004,9.896014e-005
4.020223e-004,9.977046e-005
3.490270e-004,8.696730e-005
2.765838e-004,6.508849e-005
1.683241e-004,4.077869e-005
-1.464765e-005,2.214118e-005
-3.074996e-004,1.355172e-005
-7.005080e-004,1.225519e-005
-1.116854e-003,1.614476e-005
-1.443415e-003,2.684107e-005
-1.600781e-003,4.353380e-005
-1.610667e-003,6.152305e-005
-1.575498e-003,7.983643e-005
-1.598674e-003,1.007429e-004
-1.724437e-003,1.229458e-004
-1.913567e-003,1.396385e-004
-2.055698e-003,1.423936e-004
-2.029768e-003,1.312111e-004
-1.764143e-003,1.103047e-004
-1.257040e-003,8.599491e-005
-5.702075e-004,6.525056e-005
1.864754e-004,5.341978e-005
8.914599e-004,5.212327e-005
1.468251e-003,5.358185e-005
1.913122e-003,5.147500e-005
2.260105e-003,3.802358e-005
2.502232e-003,1.306552e-005
2.571272e-003,-1.497178e-005
2.398833e-003,-3.458168e-005
1.963038e-003,-4.009190e-005
1.325958e-003,-3.182657e-005
6.303724e-004,-1.707863e-005
2.943412e-005,-2.006553e-006
-3.903150e-004,1.002961e-007
-6.408680e-004,-1.902341e-005
-7.956403e-004,-5.970180e-005
-9.248063e-004,-1.118868e-004
-1.056079e-003,-1.574272e-004
-1.177142e-003,-1.864369e-004
-1.267412e-003,-1.966470e-004
-1.323487e-003,-1.901644e-004
-1.347473e-003,-1.721751e-004
-1.336614e-003,-1.467309e-004
-1.275029e-003,-1.152902e-004
-1.142460e-003,-8.012203e-005
-9.241580e-004,-4.236081e-005
-6.348715e-004,-7.030578e-006
-3.186821e-004,1.889987e-005
-2.518189e-005,3.640293e-005
2.119197e-004,4.531652e-005
3.859779e-004,4.612685e-005
5.229231e-004,4.077869e-005
6.588960e-004,3.137890e-005
8.063756e-004,2.586868e-005
9.512621e-004,3.137890e-005
1.069246e-003,4.888196e-005
1.147361e-003,7.416414e-005
1.173616e-003,9.896014e-005
1.121107e-003,1.143563e-004
9.540172e-004,1.161391e-004
6.597064e-004,1.060910e-004
2.477361e-004,9.280166e-005
-2.491561e-004,8.178122e-005
-7.499378e-004,7.286762e-005
-1.142622e-003,6.362990e-005
-1.320570e-003,5.131293e-005
-1.231110e-003,2.894792e-005
-9.068170e-004,1.234753e-006
-4.546549e-004,-2.550602e-005
-5.571990e-006,-4.398147e-005
3.524303e-004,-5.402952e-005
6.140039e-004,-5.208473e-005
8.441368e-004,-3.847125e-005
1.135206e-003,-1.497178e-005
1.537129e-003,1.063454e-005
1.999665e-003,3.802358e-005
2.374362e-003,6.816773e-005
2.460581e-003,1.022014e-004
2.093987e-003,1.342904e-004
1.258700e-003,1.584381e-004
1.093323e-004,1.731861e-004
-1.083468e-003,1.780480e-004
-2.074660e-003,1.704310e-004
-2.727298e-003,1.477418e-004
-3.012209e-003,1.120874e-004
-3.000703e-003,7.286762e-005
-2.819027e-003,3.510640e-005
-2.607693e-003,4.800190e-006
-2.470910e-003,-1.351319e-005
-2.439956e-003,-1.837515e-005
-2.461997e-003,-1.189254e-005
-2.444007e-003,3.503668e-006
-2.307548e-003,2.343770e-005
-2.019234e-003,4.142695e-005
-1.604346e-003,5.358185e-005
-1.138732e-003,6.200925e-005
-7.118525e-004,6.622294e-005
-3.979321e-004,6.362990e-005
-2.332737e-004,5.649903e-005
-2.037778e-004,5.147500e-005
-2.553146e-004,5.244739e-005
-3.071755e-004,5.941620e-005
-2.869173e-004,6.946425e-005
-1.475412e-004,7.886404e-005
1.175977e-004,8.534666e-005
4.765724e-004,8.956035e-005
8.765499e-004,8.907416e-005
1.267614e-003,8.113296e-005
1.614110e-003,7.092283e-005
1.890757e-003,6.622294e-005
2.080374e-003,6.897806e-005
2.161569e-003,7.400208e-005
2.104197e-003,7.465034e-005
1.894646e-003,7.286762e-005
1.555281e-003,7.416414e-005
1.152872e-003,8.032263e-005
7.561353e-004,9.004655e-005
3.994293e-004,9.798775e-005
7.772959e-005,1.010670e-004
-2.384598e-004,9.847395e-005
-5.638869e-004,9.134307e-005
-8.625732e-004,8.016056e-005
-1.060779e-003,6.832980e-005
-1.086061e-003,6.006446e-005
-9.157307e-004,5.487837e-005
-5.898174e-004,5.131293e-005
-1.851403e-004,5.309565e-005
2.180782e-004,5.909207e-005
5.687876e-004,5.860587e-005
8.564538e-004,4.337174e-005
1.090152e-003,1.338965e-005
1.285603e-003,-2.226472e-005
1.448803e-003,-5.127441e-005
1.567111e-003,-6.472583e-005
1.628210e-003,-6.148453e-005
1.652844e-003,-4.381940e-005
1.674399e-003,-2.177852e-005
1.676992e-003,-3.627206e-006
1.609411e-003,8.365628e-006
1.425628e-003,1.517237e-005
1.120296e-003,2.084466e-005
7.112431e-004,2.473422e-005
2.287745e-004,2.424803e-005
-2.705488e-004,1.403791e-005
-6.935392e-004,-7.840905e-006
-9.507368e-004,-3.231276e-005
-1.007298e-003,-4.641245e-005
-9.089239e-004,-4.381940e-005
-7.714925e-004,-2.518189e-005
-7.095836e-004,2.531276e-006
-7.462103e-004,2.813760e-005
-7.904542e-004,4.223728e-005
-7.043975e-004,4.126489e-005
-3.763774e-004,3.332369e-005
2.313675e-004,2.878586e-005
1.069894e-003,2.927205e-005
2.021220e-003,3.235129e-005
2.937056e-003,3.494434e-005
3.657604e-003,3.526847e-005
4.030033e-003,2.975825e-005
3.942842e-003,2.343770e-005
3.379983e-003,1.760335e-005
2.456529e-003,1.403791e-005
1.379601e-003,1.322759e-005
3.551854e-004,1.112074e-005
-4.799371e-004,7.231170e-006
-1.073420e-003,2.045080e-006
-1.418457e-003,-2.816880e-006
-1.533037e-003,-1.358292e-006
-1.465618e-003,1.095867e-005
-1.293667e-003,2.927205e-005
-1.089465e-003,4.726130e-005
-8.867210e-004,5.487837e-005
-6.517263e-004,4.807163e-005
-3.311612e-004,3.380988e-005
7.578480e-005,1.857574e-005
4.841895e-004,5.448451e-006
7.644006e-004,-4.599598e-006
8.313336e-004,-9.137427e-006
7.047605e-004,-8.651231e-006
5.096338e-004,-6.706447e-006
3.822504e-004,-1.027188e-005
3.901916e-004,-1.934754e-005
4.909962e-004,-3.069211e-005
5.294057e-004,-4.090223e-005
3.256896e-004,-4.868136e-005
-2.178775e-004,-5.419158e-005
-1.054297e-003,-6.083626e-005
-2.008699e-003,-6.926366e-005
-2.864892e-003,-7.931171e-005
-3.464049e-003,-8.611845e-005
-3.730972e-003,-8.336334e-005
-3.655773e-003,-6.423963e-005
-3.295014e-003,-3.555407e-005
-2.759711e-003,-1.092015e-005
-2.173034e-003,2.855406e-006
-1.616015e-003,3.503668e-006
-1.103888e-003,-4.275467e-006
-6.277406e-004,-1.578211e-005
-1.895161e-004,-3.004385e-005
1.832341e-004,-4.106429e-005
4.602038e-004,-4.495386e-005
6.344241e-004,-4.219875e-005
7.052467e-004,-3.069211e-005
6.681337e-004,-1.205460e-005
5.172509e-004,2.207145e-006
2.456293e-004,4.638125e-006
-1.373311e-004,-1.034161e-006
-5.505976e-004,-1.196226e-006
-8.677593e-004,1.371378e-005
-9.906049e-004,4.045456e-005
-9.051964e-004,6.946425e-005
-6.757120e-004,9.280166e-005
-3.948528e-004,1.093323e-004
-1.326312e-004,1.213252e-004
7.967437e-005,1.299146e-004
2.457913e-004,1.299146e-004
3.910019e-004,1.214872e-004
5.430192e-004,1.062531e-004
7.114052e-004,8.567078e-005
8.809257e-004,6.897806e-005
1.035212e-003,6.314371e-005
1.170375e-003,6.978838e-005
1.295003e-003,8.453633e-005
1.408287e-003,1.034980e-004
1.472465e-003,1.208390e-004
1.447021e-003,1.375317e-004
1.335682e-003,1.571416e-004
1.189823e-003,1.837203e-004
1.070704e-003,2.088404e-004
1.005716e-003,2.231022e-004
9.698996e-004,2.203471e-004
9.238730e-004,1.981441e-004
8.536986e-004,1.650828e-004
7.645627e-004,1.320215e-004
6.775335e-004,1.069013e-004
6.110867e-004,9.409818e-005
5.733254e-004,9.020861e-005
5.509604e-004,9.134307e-005
5.178991e-004,9.733949e-005
4.647416e-004,1.039842e-004
4.114221e-004,1.057669e-004
3.885709e-004,1.020394e-004
4.162841e-004,9.361198e-005
4.974788e-004,8.307774e-005
6.081695e-004,7.529860e-005
7.217774e-004,7.400208e-005
8.212855e-004,7.983643e-005
9.078285e-004,9.037068e-005
9.888613e-004,1.017153e-004
1.076215e-003,1.094944e-004
1.196305e-003,1.101426e-004
1.338437e-003,1.049566e-004
1.401966e-003,9.555677e-005
1.232932e-003,8.372600e-005
7.376598e-004,7.059870e-005
-3.053005e-005,5.487837e-005
-8.909347e-004,3.526847e-005
-1.632059e-003,8.527692e-006
-2.128952e-003,-1.772689e-005
-2.397494e-003,-3.668853e-005
-2.542219e-003,-4.381940e-005
-2.665065e-003,-4.025397e-005
-2.821782e-003,-2.988179e-005
-3.030523e-003,-2.194059e-005
-3.283022e-003,-2.129233e-005
-3.516558e-003,-2.923352e-005
-3.612015e-003,-4.576419e-005
-3.441198e-003,-6.715681e-005
-2.955973e-003,-8.741497e-005
-2.240291e-003,-1.002181e-004
-1.457839e-003,-1.032974e-004
-7.567446e-004,-9.730095e-005
-2.112329e-004,-8.644258e-005
1.832341e-004,-7.347736e-005
4.935893e-004,-6.002593e-005
8.201511e-004,-4.527799e-005
1.253838e-003,-3.085418e-005
1.820096e-003,-1.837515e-005
2.453612e-003,-9.623623e-006
3.013551e-003,-2.816880e-006
3.323098e-003,4.638125e-006
3.222455e-003,1.095867e-005
2.617785e-003,1.501031e-005
1.543126e-003,1.922400e-005
2.075439e-004,2.424803e-005
-1.051865e-003,2.716520e-005
-1.953597e-003,3.073064e-005
-2.359085e-003,3.526847e-005
-2.251473e-003,4.061663e-005
-1.725085e-003,4.564065e-005
-9.466851e-004,4.985435e-005
-1.054042e-004,5.844381e-005
6.376654e-004,7.027457e-005
1.175399e-003,7.886404e-005
1.453341e-003,7.448828e-005
1.468089e-003,5.844381e-005
1.261942e-003,3.818564e-005
9.225765e-004,1.954813e-005
5.548500e-004,4.800190e-006
2.237504e-004,-6.176923e-008
-5.224680e-005,6.258778e-006
-2.763831e-004,2.133085e-005
-4.634064e-004,4.158902e-005
-6.285509e-004,6.346784e-005
-7.549619e-004,8.421220e-005
-7.983954e-004,1.051186e-004
-7.108801e-004,1.291043e-004
-4.724821e-004,1.553589e-004
-1.222590e-004,1.814514e-004
2.542187e-004,1.981441e-004
5.943940e-004,2.002510e-004
8.809257e-004,1.858272e-004
1.129048e-003,1.597346e-004
1.342650e-003,1.308870e-004
1.452693e-003,1.051186e-004
1.327578e-003,8.696730e-005
8.600192e-004,7.740545e-005
5.795762e-005,7.302969e-005
-9.076273e-004,6.946425e-005
-1.762036e-003,5.957827e-005
-2.266870e-003,4.385793e-005
-2.313707e-003,2.359977e-005
-1.945656e-003,5.286386e-006
-1.317490e-003,-8.975361e-006
-6.196374e-004,-2.388537e-005
-1.124428e-005,-4.803310e-005
4.261701e-004,-8.644258e-005
7.094605e-004,-1.412206e-004
9.057217e-004,-2.052364e-004
1.064546e-003,-2.647144e-004
1.194360e-003,-3.071755e-004
1.280417e-003,-3.282440e-004
1.301324e-003,-3.272716e-004
1.238766e-003,-3.034480e-004
1.091287e-003,-2.598524e-004
8.815739e-004,-2.041020e-004
6.528996e-004,-1.444620e-004
4.433490e-004,-9.049421e-005
2.897111e-004,-4.576419e-005
2.287745e-004,-1.108221e-005
2.864697e-004,1.841368e-005
4.775448e-004,4.515445e-005
8.058894e-004,6.638501e-005
1.240711e-003,7.805372e-005
1.718805e-003,8.340186e-005
2.139366e-003,8.583285e-005
2.364962e-003,8.793970e-005
2.315045e-003,8.680524e-005
2.009389e-003,7.902610e-005
1.511199e-003,6.897806e-005
8.624502e-004,6.314371e-005
1.018773e-004,6.265751e-005
-6.690673e-004,6.589881e-005
-1.297557e-003,6.946425e-005
-1.682137e-003,6.670914e-005
-1.831886e-003,5.277152e-005
-1.842906e-003,3.024445e-005
-1.815355e-003,8.041497e-006
-1.775325e-003,-2.816880e-006
-1.656531e-003,5.124321e-006
-1.371296e-003,2.732727e-005
-8.769971e-004,5.228533e-005
-2.350565e-004,7.432621e-005
3.843572e-004,9.182927e-005
7.937344e-004,9.977046e-005
9.047493e-004,9.652916e-005
7.467354e-004,8.680524e-005
4.120704e-004,7.481241e-005
-1.318906e-005,6.622294e-005
-4.522239e-004,6.622294e-005
-8.340498e-004,7.724339e-005
-1.099351e-003,9.507057e-005
-1.205666e-003,1.083599e-004
-1.155911e-003,1.145184e-004
-1.006487e-003,1.135460e-004
-8.324290e-004,1.080358e-004
-6.938633e-004,1.005808e-004
-6.185029e-004,9.199134e-005
-6.001896e-004,8.680524e-005
-6.099135e-004,8.923622e-005
-6.172064e-004,9.944633e-005
-6.078066e-004,1.137081e-004
-5.843071e-004,1.266733e-004
-5.493010e-004,1.362352e-004
-4.788027e-004,1.393144e-004
-3.356990e-004,1.352628e-004
-1.050801e-004,1.269974e-004
1.867996e-004,1.195424e-004
5.026649e-004,1.137081e-004
8.191787e-004,1.080358e-004
1.127589e-003,1.023635e-004
1.427897e-003,1.009049e-004
1.723343e-003,1.059289e-004
2.015709e-003,1.146805e-004
2.286846e-003,1.244044e-004
2.500287e-003,1.282940e-004
2.613571e-003,1.195424e-004
2.577106e-003,9.798775e-005
2.363665e-003,6.768153e-005
1.974545e-003,3.154097e-005
1.409908e-003,-3.627206e-006
6.707268e-004,-3.587821e-005
-1.963229e-004,-6.618442e-005
-1.028852e-003,-9.341139e-005
-1.613584e-003,-1.123730e-004
-1.805956e-003,-1.128592e-004
-1.596891e-003,-8.968388e-005
-1.105509e-003,-4.770897e-005
-5.066778e-004,3.179537e-006
5.601283e-005,4.871989e-005
4.973168e-004,7.724339e-005
7.669936e-004,8.323980e-005
8.430023e-004,7.140904e-005
7.084880e-004,5.017848e-005
3.819262e-004,2.619281e-005
-4.479180e-005,5.448451e-006
-4.237005e-004,-7.030578e-006
-6.465402e-004,-1.205460e-005
-7.090974e-004,-1.237873e-005
-6.894875e-004,-1.448558e-005
-6.761981e-004,-1.918548e-005
-7.167145e-004,-2.809907e-005
-8.194639e-004,-4.155049e-005
-1.002273e-003,-5.759496e-005
-1.279729e-003,-7.331529e-005
-1.601429e-003,-8.271508e-005
-1.858789e-003,-8.352540e-005
-1.957163e-003,-7.704279e-005
-1.893795e-003,-6.294311e-005
-1.747936e-003,-4.236081e-005
-1.596081e-003,-1.578211e-005
-1.445036e-003,9.986280e-006
-1.267412e-003,3.332369e-005
-1.069855e-003,5.390598e-005
-8.956345e-004,7.221937e-005
-7.876991e-004,8.696730e-005
-7.231971e-004,9.831188e-005
-5.992171e-004,1.069013e-004
-3.165753e-004,1.138701e-004
1.175977e-004,1.143563e-004
5.754323e-004,1.062531e-004
8.955116e-004,9.037068e-005
9.752478e-004,7.367795e-005
8.066997e-004,6.119892e-005
4.423766e-004,5.212327e-005
-4.495386e-005,4.677511e-005
-5.554595e-004,4.191315e-005
-9.573814e-004,3.786152e-005
-1.139705e-003,3.721326e-005
-1.060131e-003,4.175108e-005
-7.510723e-004,5.050261e-005
-2.976136e-004,6.119892e-005
2.064095e-004,7.400208e-005
6.994124e-004,8.518459e-005
1.143796e-003,9.312579e-005
1.504230e-003,9.474644e-005
1.733067e-003,8.891209e-005
1.777797e-003,7.789165e-005
1.599362e-003,6.589881e-005
1.203922e-003,5.536457e-005
6.657027e-004,4.855782e-005
1.151667e-004,4.531652e-005
-3.207890e-004,4.693717e-005
-5.859278e-004,5.001641e-005
-7.005080e-004,4.904402e-005
-6.924047e-004,4.337174e-005
-5.552974e-004,3.299956e-005
-2.831898e-004,1.792748e-005
8.048469e-005,-2.238345e-007
4.423766e-004,-1.869928e-005
7.225877e-004,-3.150244e-005
8.990770e-004,-3.620233e-005
1.001502e-003,-3.441962e-005
1.072163e-003,-2.907146e-005
1.127103e-003,-2.064406e-005
1.156761e-003,-7.516774e-006
1.146227e-003,9.986280e-006
1.098580e-003,2.684107e-005
1.039750e-003,3.478227e-005
9.874026e-004,3.186510e-005
9.473725e-004,2.246531e-005
9.261419e-004,1.387585e-005
9.306798e-004,1.193106e-005
9.827028e-004,1.614476e-005
1.124510e-003,2.052053e-005
1.399860e-003,2.181705e-005
1.792383e-003,2.376183e-005
2.199492e-003,3.137890e-005
2.472250e-003,4.353380e-005
2.481001e-003,5.455424e-005
2.173886e-003,5.828174e-005
1.588180e-003,5.763348e-005
8.201511e-004,5.244739e-005
1.371378e-005,4.256141e-005
-6.695535e-004,3.299956e-005
-1.113450e-003,2.781346e-005
-1.285888e-003,2.570661e-005
-1.236458e-003,2.343770e-005
-1.066289e-003,2.327564e-005
-8.763488e-004,2.813760e-005
-7.178489e-004,3.672705e-005
-5.851174e-004,4.061663e-005
-4.342347e-004,3.721326e-005
-2.250084e-004,2.603075e-005
6.444023e-005,8.365628e-006
4.201737e-004,-1.399939e-005
8.170719e-004,-2.988179e-005
1.211053e-003,-3.328516e-005
1.490292e-003,-2.615428e-005
1.484134e-003,-1.205460e-005
1.059846e-003,8.203561e-006
2.464396e-004,2.667901e-005
-7.586894e-004,3.640293e-005
-1.702882e-003,3.445814e-005
-2.395063e-003,2.262737e-005
-2.742532e-003,1.047248e-005
-2.748042e-003,5.610517e-006
-2.484848e-003,1.176900e-005
-2.063315e-003,2.327564e-005
-1.593002e-003,3.850977e-005
-1.163528e-003,5.439218e-005
-8.342118e-004,6.330577e-005
-6.236890e-004,6.136099e-005
-5.180224e-004,4.904402e-005
-4.894990e-004,3.332369e-005
-5.081365e-004,1.776542e-005
-5.531906e-004,1.234753e-006
-6.078066e-004,-1.756482e-005
-6.512401e-004,-3.685059e-005
-6.627467e-004,-4.981582e-005
-6.227166e-004,-5.078821e-005
-5.219121e-004,-3.847125e-005
-3.713534e-004,-1.562004e-005
-2.015089e-004,1.257933e-005
-4.851930e-005,3.883391e-005
5.893001e-005,5.876794e-005
1.195424e-004,6.914012e-005
1.718895e-004,7.043664e-005
2.812837e-004,6.687120e-005
4.978030e-004,6.087479e-005
8.185304e-004,5.536457e-005
1.162109e-003,5.179913e-005
1.399049e-003,5.293359e-005
1.445238e-003,5.795762e-005
1.290141e-003,6.444023e-005
9.708721e-004,6.995045e-005
5.687876e-004,7.173317e-005
1.735102e-004,7.011251e-005
-1.493239e-004,6.768153e-005
-3.705430e-004,6.654707e-005
-4.930644e-004,6.832980e-005
-5.352014e-004,7.092283e-005
-5.298532e-004,7.465034e-005
-5.099192e-004,7.513654e-005
-4.820439e-004,6.654707e-005
-4.358554e-004,5.050261e-005
-3.538503e-004,3.170303e-005
-2.261429e-004,1.646889e-005
-7.169464e-005,9.662150e-006
4.693717e-005,1.160693e-005
6.217131e-005,2.311357e-005
-4.592625e-005,4.110282e-005
-2.410529e-004,6.152305e-005
-4.489826e-004,7.578480e-005
-5.893311e-004,7.918817e-005
-6.063480e-004,7.238143e-005
-4.948471e-004,6.055066e-005
-2.891863e-004,4.807163e-005
-5.192267e-005,3.883391e-005
1.530900e-004,3.380988e-005
2.939247e-004,3.024445e-005
3.914881e-004,2.473422e-005
4.981271e-004,1.776542e-005
6.496583e-004,1.387585e-005
8.384645e-004,1.484824e-005
1.025326e-003,2.133085e-005
1.160489e-003,3.218923e-005
1.214132e-003,4.045456e-005
1.185447e-003,3.769945e-005
1.083183e-003,2.586868e-005
9.097733e-004,1.209313e-005
6.537099e-004,1.558884e-006
3.004074e-004,-2.492749e-006
-1.417068e-004,7.485573e-007
-6.416783e-004,1.047248e-005
-1.169687e-003,2.586868e-005
-1.718278e-003,4.369587e-005
-2.297824e-003,6.071273e-005
-2.889364e-003,7.173317e-005
-3.385123e-003,7.513654e-005
-3.616715e-003,7.400208e-005
-3.437795e-003,7.254349e-005
-2.797796e-003,7.465034e-005
-1.759767e-003,8.453633e-005
-4.723200e-004,9.652916e-005
8.621261e-004,1.025256e-004
2.032240e-003,9.636710e-005
2.905939e-003,8.178122e-005
3.402997e-003,6.557468e-005
3.499427e-003,5.244739e-005
3.232341e-003,4.223728e-005
2.701249e-003,3.429608e-005
2.046016e-003,2.554455e-005
1.396780e-003,1.711715e-005
8.373301e-004,1.193106e-005
4.240632e-004,1.176900e-005
1.944166e-004,1.112074e-005
1.474177e-004,1.558884e-006
2.485465e-004,-2.064406e-005
4.412422e-004,-5.078821e-005
6.566271e-004,-7.655659e-005
8.301992e-004,-9.227693e-005
9.136629e-004,-9.762508e-005
8.877324e-004,-9.422171e-005
7.558112e-004,-8.352540e-005
5.337815e-004,-6.812920e-005
2.441707e-004,-4.673658e-005
-7.428768e-005,-1.659243e-005
-3.682741e-004,1.971020e-005
-5.726385e-004,5.536457e-005
-6.416783e-004,8.275361e-005
-5.762039e-004,9.912220e-005
-4.227281e-004,1.026876e-004
-2.451045e-004,9.442231e-005
-1.034594e-004,7.562274e-005
-3.830918e-005,4.726130e-005
-4.981582e-005,1.565857e-005
-9.130454e-005,-9.461557e-006
-1.114006e-004,-2.469570e-005
-1.045939e-004,-2.599222e-005
-1.212866e-004,-1.335112e-005
-2.146362e-004,1.079661e-005
-3.786463e-004,3.850977e-005
-5.258016e-004,6.314371e-005
-5.470321e-004,8.291567e-005
-3.937184e-004,9.442231e-005
-1.107524e-004,9.814982e-005
1.949028e-004,9.523264e-005
4.157979e-004,8.972242e-005
4.710622e-004,8.242948e-005
3.080244e-004,7.578480e-005
-6.229485e-005,6.914012e-005
-5.272602e-004,6.055066e-005
-9.239960e-004,4.904402e-005
-1.118150e-003,3.575467e-005
-1.047166e-003,2.603075e-005
-7.256281e-004,2.554455e-005
-2.151224e-004,3.121684e-005
3.952156e-004,3.721326e-005
9.870785e-004,3.786152e-005
1.407963e-003,3.380988e-005
1.505364e-003,2.619281e-005
1.153196e-003,1.598270e-005
3.321721e-004,8.203561e-006
-8.021229e-004,7.231170e-006
-1.941280e-003,1.306552e-005
-2.792610e-003,2.230324e-005
-3.159365e-003,3.040651e-005
-2.986279e-003,3.397195e-005
-2.356654e-003,2.878586e-005
-1.450222e-003,1.857574e-005
-4.668098e-004,1.225519e-005
4.102877e-004,1.517237e-005
1.051094e-003,2.813760e-005
1.405532e-003,4.726130e-005
1.500989e-003,6.281957e-005
1.429355e-003,6.638501e-005
1.299055e-003,6.087479e-005
1.184961e-003,4.904402e-005
1.109114e-003,3.316162e-005
1.054984e-003,1.873781e-005
9.854579e-004,8.203561e-006
8.653674e-004,9.106226e-007
6.733198e-004,-7.840905e-006
4.119083e-004,-1.643037e-005
9.944633e-005,-2.177852e-005
-2.467252e-004,-2.145439e-005
-6.133168e-004,-1.545797e-005
-9.790981e-004,-5.247859e-006
-1.294477e-003,4.962256e-006
-1.486849e-003,1.452411e-005
-1.486687e-003,2.068259e-005
-1.255258e-003,2.522042e-005
-8.162226e-004,3.073064e-005
-2.658489e-004,3.721326e-005
2.657254e-004,4.499239e-005
6.767232e-004,5.423011e-005
9.212799e-004,5.811968e-005
9.982612e-004,5.585077e-005
9.587171e-004,5.358185e-005
8.877324e-004,5.341978e-005
8.575883e-004,5.601283e-005
8.963219e-004,6.038860e-005
9.985853e-004,6.492643e-005
1.139258e-003,6.492643e-005
1.281228e-003,5.844381e-005
1.379601e-003,4.515445e-005
1.400508e-003,2.894792e-005
1.330171e-003,2.035846e-005
1.166809e-003,2.457216e-005
9.105837e-004,3.867184e-005
5.634395e-004,5.423011e-005
1.539003e-004,6.136099e-005
-2.523974e-004,6.152305e-005
-5.319600e-004,5.779555e-005
-5.387668e-004,5.293359e-005
-1.763888e-004,5.325772e-005
5.527431e-004,5.925414e-005
1.526595e-003,6.849186e-005
2.511956e-003,7.967437e-005
3.228451e-003,8.939829e-005
3.402025e-003,9.085687e-005
2.908370e-003,7.870197e-005
1.863368e-003,5.471631e-005
5.486915e-004,2.975825e-005
-7.251419e-004,1.533444e-005
-1.769005e-003,6.420843e-006
-2.571229e-003,2.207145e-006
-3.177841e-003,5.286386e-006
-3.586409e-003,1.857574e-005
-3.726596e-003,3.932010e-005
-3.542003e-003,6.184718e-005
-3.043002e-003,7.659513e-005
-2.300255e-003,7.886404e-005
-1.427209e-003,7.173317e-005
-5.523803e-004,6.379197e-005
2.226160e-004,5.974033e-005
8.186925e-004,5.779555e-005
1.185609e-003,5.974033e-005
1.312992e-003,6.525056e-005
1.228070e-003,7.286762e-005
9.883750e-004,7.643306e-005
6.644062e-004,7.351588e-005
3.287688e-004,6.038860e-005
5.341978e-005,3.915804e-005
-9.649063e-005,1.663096e-005
-1.204763e-004,-2.238345e-007
-8.352540e-005,-1.237873e-005
-7.509801e-005,-2.388537e-005
-2.109087e-004,-3.733679e-005
-5.985689e-004,-5.013995e-005
-1.225275e-003,-5.759496e-005
-1.944197e-003,-6.083626e-005
-2.551295e-003,-6.035006e-005
-2.848523e-003,-5.467778e-005
-2.726001e-003,-4.317114e-005
-2.221005e-003,-2.631635e-005
-1.507917e-003,-7.192643e-006
-8.162226e-004,1.290346e-005
-3.073376e-004,3.089270e-005
-2.492749e-006,4.596478e-005
1.989545e-004,5.471631e-005
4.170944e-004,5.633696e-005
7.138362e-004,5.504044e-005
1.072163e-003,5.163707e-005
1.425790e-003,4.515445e-005
1.696116e-003,3.462021e-005
1.830144e-003,2.457216e-005
1.819772e-003,2.100672e-005
1.690119e-003,2.554455e-005
1.466631e-003,3.380988e-005
1.158220e-003,4.288554e-005
7.598628e-004,4.304760e-005
2.853353e-004,3.429608e-005
-1.958366e-004,1.938607e-005
-5.721523e-004,-3.858999e-007
-7.588515e-004,-2.226472e-005
-7.437794e-004,-4.398147e-005
-5.851174e-004,-6.018800e-005
-3.647087e-004,-6.213279e-005
-1.360346e-004,-4.511592e-005
7.691926e-005,-1.659243e-005
2.590807e-004,1.419998e-005
3.999155e-004,4.094075e-005
4.994237e-004,6.152305e-005
5.660325e-004,7.627100e-005
6.130315e-004,8.615698e-005
6.592201e-004,9.020861e-005
7.136741e-004,9.101894e-005
7.702350e-004,8.858796e-005
8.164236e-004,8.194328e-005
8.603433e-004,7.076077e-005
9.233868e-004,5.390598e-005
1.004744e-003,3.364782e-005
1.048664e-003,1.630683e-005
9.715203e-004,7.393235e-006
7.154568e-004,8.689757e-006
2.866318e-004,1.711715e-005
-2.311669e-004,2.927205e-005
-6.849497e-004,4.434413e-005
-9.348543e-004,5.617490e-005
-9.228615e-004,6.200925e-005
-6.902979e-004,6.265751e-005
-3.544986e-004,5.828174e-005
-5.435365e-005,5.568870e-005
1.073875e-004,5.795762e-005
1.091703e-004,6.670914e-005
5.772582e-006,7.610893e-005
-1.271210e-004,7.772959e-005
-2.485079e-004,7.059870e-005
-3.656811e-004,5.941620e-005
-5.032745e-004,4.191315e-005
-6.708500e-004,1.646889e-005
-8.408565e-004,-1.578211e-005
-9.546263e-004,-4.738484e-005
-9.598124e-004,-6.602235e-005
-8.455564e-004,-6.634648e-005
-6.423265e-004,-4.819516e-005
-4.011734e-004,-1.772689e-005
-1.757406e-004,1.565857e-005
7.393235e-006,4.823369e-005
1.530900e-004,7.367795e-005
2.694529e-004,8.712937e-005
3.577785e-004,8.534666e-005
4.130428e-004,7.302969e-005
4.365423e-004,5.730935e-005
4.344354e-004,4.223728e-005
4.157979e-004,3.137890e-005
3.851675e-004,2.781346e-005
3.430306e-004,2.862379e-005
2.801492e-004,2.927205e-005
1.906891e-004,2.781346e-005
8.615698e-005,2.343770e-005
-1.594417e-005,1.598270e-005
-9.794922e-005,7.555300e-006
-1.326312e-004,1.072688e-006
-9.276313e-005,-2.006553e-006
1.938607e-005,-4.437533e-006
1.788584e-004,-5.247859e-006
3.574544e-004,-4.761663e-006
5.571189e-004,-7.516774e-006
8.141547e-004,-1.221667e-005
1.150279e-003,-1.659243e-005
1.512009e-003,-1.562004e-005
1.766938e-003,-6.382316e-006
1.770180e-003,7.231170e-006
1.445562e-003,2.165498e-005
8.524021e-004,3.591673e-005
1.748067e-004,4.709924e-005
-3.695707e-004,5.406805e-005
-6.549676e-004,5.682316e-005
-6.773326e-004,5.649903e-005
-5.285567e-004,5.828174e-005
-3.350507e-004,6.476436e-005
-1.959987e-004,7.416414e-005
-1.596961e-004,8.323980e-005
-2.211188e-004,8.648111e-005
-3.386162e-004,8.518459e-005
-4.687546e-004,8.097089e-005
-5.865761e-004,7.497447e-005
-6.940254e-004,6.995045e-005
-8.126571e-004,6.816773e-005
-9.513850e-004,6.589881e-005
-1.075689e-003,6.119892e-005
-1.116854e-003,5.617490e-005
-1.020749e-003,5.260946e-005
-7.836474e-004,5.115087e-005
-4.506033e-004,5.050261e-005
-8.465986e-005,4.758544e-005
2.748010e-004,4.369587e-005
6.117350e-004,3.705119e-005
9.113940e-004,2.813760e-005
1.145093e-003,1.889987e-005
1.289331e-003,1.209313e-005
1.340544e-003,1.144487e-005
1.310886e-003,1.598270e-005
1.217050e-003,2.181705e-005
1.080104e-003,2.473422e-005
9.237109e-004,2.684107e-005
7.676419e-004,3.056858e-005
6.180555e-004,3.364782e-005
4.741414e-004,3.462021e-005
3.393030e-004,3.332369e-005
2.137024e-004,3.056858e-005
9.150514e-005,2.927205e-005
-3.685059e-005,2.959618e-005
-1.810887e-004,2.813760e-005
-3.441264e-004,2.311357e-005
-5.060296e-004,1.663096e-005
-6.304957e-004,6.420843e-006
-6.606399e-004,-5.085794e-006
-5.646973e-004,-1.092015e-005
-3.831841e-004,-5.409925e-006
-2.149604e-004,8.689757e-006
-1.629374e-004,2.214118e-005
-2.804347e-004,3.089270e-005
-5.373082e-004,3.672705e-005
-8.261085e-004,3.996836e-005
-1.020587e-003,3.899597e-005
-1.032094e-003,3.397195e-005
-8.220569e-004,2.732727e-005
-4.217557e-004,2.181705e-005
6.719534e-005,1.646889e-005
5.112544e-004,1.079661e-005
8.070238e-004,6.744974e-006
9.024804e-004,5.124321e-006
8.015136e-004,1.225519e-005
5.535535e-004,3.380988e-005
2.312054e-004,6.119892e-005
-1.078352e-004,8.502253e-005
-4.146248e-004,1.025256e-004
-6.361680e-004,1.174356e-004
-7.400519e-004,1.263492e-004
-7.308142e-004,1.266733e-004
-6.439472e-004,1.174356e-004
-5.415219e-004,1.039842e-004
-5.097571e-004,8.972242e-005
-6.246614e-004,8.097089e-005
-8.935277e-004,7.821578e-005
-1.228517e-003,8.178122e-005
-1.505972e-003,9.361198e-005
-1.648752e-003,1.145184e-004
-1.660259e-003,1.388282e-004
-1.631411e-003,1.571416e-004
-1.695427e-003,1.655690e-004
-1.927505e-003,1.634621e-004
-2.287290e-003,1.521176e-004
-2.653558e-003,1.307249e-004
-2.877857e-003,9.928427e-005
-2.828103e-003,5.682316e-005
-2.424073e-003,-5.479652e-007
-1.644052e-003,-5.986387e-005
-5.010056e-004,-1.047560e-004
9.165801e-004,-1.326312e-004
2.369175e-003,-1.478653e-004
3.584025e-003,-1.530514e-004
4.335531e-003,-1.499722e-004
4.500678e-003,-1.417068e-004
4.094537e-003,-1.292278e-004
3.262485e-003,-1.130213e-004
2.220237e-003,-9.632856e-005
1.204246e-003,-8.222889e-005
4.208219e-004,-7.526008e-005
-5.734055e-006,-7.785312e-005
-7.461181e-005,-8.822530e-005
1.056048e-004,-1.044318e-004
3.598853e-004,-1.214487e-004
5.451261e-004,-1.342519e-004
6.029834e-004,-1.370070e-004
5.472329e-004,-1.229073e-004
4.736553e-004,-8.952182e-005
5.329712e-004,-4.025397e-005
8.344129e-004,1.014835e-005
1.363881e-003,5.082674e-005
1.953314e-003,8.048469e-005
2.349727e-003,1.012291e-004
2.349241e-003,1.101426e-004
1.896105e-003,1.124116e-004
1.118514e-003,1.148425e-004
2.877662e-004,1.166253e-004
-3.180339e-004,1.148425e-004
-5.627525e-004,1.111150e-004
-4.770199e-004,1.062531e-004
-1.934057e-004,1.005808e-004
1.388282e-004,9.733949e-005
4.120704e-004,1.018773e-004
5.791598e-004,1.117633e-004
6.472273e-004,1.185700e-004
6.498203e-004,1.200286e-004
6.078454e-004,1.174356e-004
5.156302e-004,1.154908e-004
3.587509e-004,1.153287e-004
1.412592e-004,1.146805e-004
-8.676671e-005,1.128978e-004
-2.368392e-004,1.090082e-004
-2.199844e-004,1.064151e-004
2.693341e-006,1.067393e-004
3.647473e-004,1.075496e-004
6.691061e-004,1.054428e-004
6.773715e-004,1.036600e-004
2.550291e-004,1.031738e-004
-5.259637e-004,1.031738e-004
-1.446981e-003,1.034980e-004
-2.271732e-003,1.044704e-004
-2.830372e-003,1.078737e-004
-3.053861e-003,1.141943e-004
-2.963752e-003,1.187321e-004
-2.642213e-003,1.167873e-004
-2.200098e-003,1.081979e-004
-1.739509e-003,9.685329e-005
-1.328025e-003,8.550872e-005
-9.972495e-004,7.335382e-005
-7.441035e-004,6.217131e-005
-5.494631e-004,5.212327e-005
-3.919356e-004,4.304760e-005
-2.536940e-004,3.526847e-005
-1.245279e-004,2.943412e-005
1.072688e-006,2.359977e-005
1.295905e-004,1.517237e-005
2.594048e-004,1.720949e-006
3.830607e-004,-1.432352e-005
4.921307e-004,-2.890940e-005
5.742979e-004,-3.814712e-005
6.209727e-004,-4.333321e-005
6.315069e-004,-5.257093e-005
6.162728e-004,-7.526008e-005
5.976353e-004,-1.096179e-004
5.939078e-004,-1.475412e-004
6.136798e-004,-1.765509e-004
6.611649e-004,-1.875713e-004
7.201567e-004,-1.799543e-004
7.543525e-004,-1.585616e-004
7.374978e-004,-1.292278e-004
6.746163e-004,-9.373551e-005
5.956905e-004,-5.451571e-005
5.274609e-004,-1.562004e-005
4.783551e-004,2.165498e-005
4.399456e-004,5.455424e-005
4.041292e-004,7.886404e-005
3.668542e-004,8.745350e-005
3.255275e-004,8.210535e-005
2.712356e-004,7.043664e-005
1.913374e-004,6.038860e-005
7.254349e-005,5.568870e-005
-7.720485e-005,5.698522e-005
-2.190120e-004,6.411610e-005
-3.057169e-004,7.076077e-005
-3.081479e-004,6.978838e-005
-2.332737e-004,5.909207e-005
-1.162626e-004,4.077869e-005
-6.176923e-008,2.586868e-005
9.361198e-005,2.100672e-005
1.696206e-004,2.829966e-005
2.422259e-004,4.353380e-005
3.177483e-004,6.055066e-005
3.814400e-004,7.221937e-005
4.208219e-004,7.497447e-005
4.383250e-004,7.092283e-005
4.386491e-004,6.670914e-005
4.345975e-004,6.362990e-005
4.493454e-004,6.168512e-005
4.931031e-004,5.941620e-005
5.650601e-004,5.779555e-005
6.838541e-004,5.730935e-005
9.011839e-004,6.314371e-005
1.260969e-003,7.513654e-005
1.733067e-003,9.199134e-005
2.192524e-003,1.122495e-004
2.464146e-003,1.305629e-004
2.396889e-003,1.352628e-004
1.937270e-003,1.219734e-004
1.169889e-003,9.620503e-005
2.937627e-004,7.319175e-005
-4.747510e-004,6.541262e-005
-1.034524e-003,7.351588e-005
-1.433853e-003,8.793970e-005
-1.806280e-003,9.669123e-005
-2.257956e-003,9.426025e-005
-2.776728e-003,8.729143e-005
-3.260170e-003,8.356393e-005
-3.613636e-003,8.178122e-005
-3.798553e-003,8.161915e-005
-3.806333e-003,7.789165e-005
-3.624494e-003,6.492643e-005
-3.242019e-003,4.110282e-005
-2.656799e-003,8.527692e-006
-1.910326e-003,-2.664048e-005
-1.101619e-003,-5.889147e-005
-3.710292e-004,-8.644258e-005
1.641104e-004,-1.136696e-004
4.621486e-004,-1.441378e-004
5.584154e-004,-1.721751e-004
5.120648e-004,-1.893540e-004
3.848434e-004,-1.927574e-004
2.402811e-004,-1.851403e-004
1.291043e-004,-1.650442e-004
7.448828e-005,-1.314967e-004
7.918817e-005,-8.303921e-005
1.216493e-004,-2.291298e-005
1.726999e-004,4.029249e-005
2.206712e-004,9.993253e-005
2.764217e-004,1.540623e-004
3.517821e-004,2.023578e-004
4.305458e-004,2.443327e-004
4.768966e-004,2.731804e-004
4.759242e-004,2.854973e-004
4.553419e-004,2.796630e-004
4.794896e-004,2.487085e-004
6.138418e-004,1.853410e-004
8.721742e-004,8.729143e-005
1.212512e-003,-3.668853e-005
1.552363e-003,-1.692580e-004
1.807131e-003,-2.882139e-004
1.934190e-003,-3.870737e-004
1.945859e-003,-4.695649e-004
1.893512e-003,-5.317980e-004
1.820258e-003,-5.599973e-004
1.728853e-003,-5.390910e-004
1.578132e-003,-4.653512e-004
1.315261e-003,-3.532020e-004
9.224144e-004,-2.290600e-004
4.564763e-004,-1.173971e-004
2.635488e-005,-3.231276e-005
-2.639041e-004,2.765140e-005
-3.606571e-004,6.881599e-005
-2.686040e-004,9.847395e-005
-3.895744e-005,1.210010e-004
2.613496e-004,1.407730e-004
5.794839e-004,1.608691e-004
8.799533e-004,1.759412e-004
1.126779e-003,1.835582e-004
1.269721e-003,1.866375e-004
1.263562e-003,1.897167e-004
1.097445e-003,1.931201e-004
8.063756e-004,1.949028e-004
4.689553e-004,1.958752e-004
1.855030e-004,1.950649e-004
3.170303e-005,1.919856e-004
3.341602e-006,1.846927e-004
-1.302699e-005,1.725378e-004
-1.909747e-004,1.551968e-004
-6.509160e-004,1.363972e-004
-1.370810e-003,1.242423e-004
-2.181299e-003,1.198666e-004
-2.858085e-003,1.269974e-004
-3.230512e-003,1.432040e-004
-3.230188e-003,1.620035e-004
-2.891146e-003,1.752929e-004
-2.324565e-003,1.824238e-004
-1.666579e-003,1.833962e-004
-1.043438e-003,1.822617e-004
-5.377944e-004,1.799928e-004
-1.689338e-004,1.770756e-004
9.393611e-005,1.744826e-004
2.848491e-004,1.686482e-004
4.226046e-004,1.594105e-004
5.106062e-004,1.472556e-004
5.509604e-004,1.385041e-004
5.506363e-004,1.383420e-004
5.149819e-004,1.436902e-004
4.517764e-004,1.506590e-004
3.746333e-004,1.576278e-004
3.068900e-004,1.573037e-004
2.712356e-004,1.428798e-004
2.817698e-004,1.185700e-004
3.367100e-004,9.166720e-005
4.130428e-004,6.978838e-005
4.809482e-004,5.552663e-005
5.117406e-004,4.385793e-005
4.948858e-004,2.667901e-005
4.375147e-004,6.582909e-006
3.577785e-004,-7.192643e-006
2.843629e-004,-1.059601e-005
2.532463e-004,-7.100305e-007
2.838767e-004,2.473422e-005
3.590750e-004,5.811968e-005
4.384870e-004,8.421220e-005
4.875929e-004,9.458438e-005
4.909962e-004,8.858796e-005
4.644175e-004,7.643306e-005
4.472386e-004,6.541262e-005
4.791655e-004,5.568870e-005
5.918010e-004,4.855782e-005
8.102651e-004,4.402000e-005
1.149792e-003,4.191315e-005
1.592070e-003,4.045456e-005
2.057198e-003,3.624086e-005
2.410827e-003,2.538249e-005
2.509200e-003,8.365628e-006
2.253947e-003,-1.156841e-005
1.645875e-003,-2.793700e-005
7.974620e-004,-3.587821e-005
-1.083214e-004,-3.425755e-005
-8.674352e-004,-2.518189e-005
-1.346824e-003,-1.432352e-005
-1.519100e-003,-6.220251e-006
-1.426398e-003,-5.409925e-006
-1.122202e-003,-1.237873e-005
-6.718223e-004,-2.356124e-005
-1.660166e-004,-3.247483e-005
2.796630e-004,-3.296103e-005
5.601982e-004,-2.550602e-005
6.292380e-004,-1.318906e-005
5.191956e-004,-1.196226e-006
3.287688e-004,8.851824e-006
1.853410e-004,1.727922e-005
1.720516e-004,2.052053e-005
2.843629e-004,2.003433e-005
4.414042e-004,1.971020e-005
5.457744e-004,2.068259e-005
5.315125e-004,1.938607e-005
3.790091e-004,1.160693e-005
9.847395e-005,1.002961e-007
-2.596904e-004,-1.221667e-005
-6.186650e-004,-2.453363e-005
-9.560849e-004,-3.749886e-005
-1.338883e-003,-5.062615e-005
-1.830752e-003,-5.921561e-005
-2.389067e-003,-5.581224e-005
-2.886446e-003,-4.041603e-005
-3.200044e-003,-2.015787e-005
-3.265842e-003,-4.599598e-006
-3.089191e-003,4.313994e-006
-2.719681e-003,1.225519e-005
-2.230567e-003,2.035846e-005
-1.700613e-003,2.829966e-005
-1.205341e-003,3.073064e-005
-7.980713e-004,2.586868e-005
-5.000332e-004,1.889987e-005
-3.070135e-004,1.241726e-005
-2.008607e-004,6.582909e-006
-1.558065e-004,1.234753e-006
-1.467309e-004,-4.761663e-006
-1.517549e-004,-1.205460e-005
-1.530514e-004,-1.772689e-005
-1.287416e-004,-2.015787e-005
-5.597430e-005,-1.562004e-005
7.708132e-005,-5.247859e-006
2.626462e-004,5.610517e-006
4.718725e-004,8.041497e-006
6.657027e-004,2.207145e-006
8.070238e-004,-7.030578e-006
8.784947e-004,-1.448558e-005
8.885428e-004,-1.513384e-005
8.642329e-004,-1.156841e-005
8.280923e-004,-1.043395e-005
7.838485e-004,-1.562004e-005
7.224256e-004,-2.809907e-005
6.387999e-004,-4.122636e-005
5.407503e-004,-4.932962e-005
4.446455e-004,-5.046408e-005
3.717161e-004,-4.576419e-005
3.522683e-004,-3.474375e-005
4.089912e-004,-1.643037e-005
5.274609e-004,3.989864e-006
6.648924e-004,2.003433e-005
7.921138e-004,2.829966e-005
9.136629e-004,2.894792e-005
1.053363e-003,2.554455e-005
1.205381e-003,1.922400e-005
1.312668e-003,1.160693e-005
1.284145e-003,7.717366e-006
1.039264e-003,7.393235e-006
5.645739e-004,8.041497e-006
-5.127441e-005,6.420843e-006
-6.332508e-004,6.096713e-006
-1.013942e-003,8.527692e-006
-1.110209e-003,1.436204e-005
-9.515471e-004,2.424803e-005
-6.416783e-004,3.883391e-005
-2.946965e-004,5.633696e-005
8.041497e-006,7.432621e-005
2.312054e-004,9.182927e-005
3.807918e-004,1.104668e-004
4.846757e-004,1.279698e-004
5.624671e-004,1.410971e-004
6.258346e-004,1.483901e-004
6.760749e-004,1.492004e-004
7.149706e-004,1.457970e-004
7.426838e-004,1.394765e-004
7.410632e-004,1.312111e-004
6.726715e-004,1.239182e-004
5.151440e-004,1.153287e-004
2.824181e-004,1.049566e-004
2.035846e-005,9.231547e-005
-2.019951e-004,7.853991e-005
-3.295405e-004,6.508849e-005
-3.235441e-004,5.585077e-005
-1.459205e-004,5.617490e-005
2.237504e-004,6.784360e-005
7.606731e-004,8.323980e-005
1.383977e-003,8.680524e-005
1.970817e-003,6.849186e-005
2.404668e-003,3.105477e-005
2.615192e-003,-9.461557e-006
2.592178e-003,-3.911951e-005
2.375172e-003,-5.451571e-005
2.033699e-003,-6.359137e-005
1.631289e-003,-7.607040e-005
1.193388e-003,-8.887356e-005
7.131879e-004,-9.357345e-005
1.649207e-004,-8.401160e-005
-4.629203e-004,-5.953974e-005
-1.138084e-003,-2.647842e-005
-1.803200e-003,6.420843e-006
-2.410298e-003,3.478227e-005
-2.959376e-003,5.763348e-005
-3.487711e-003,7.546067e-005
-4.002918e-003,8.729143e-005
-4.429640e-003,9.004655e-005
-4.629468e-003,8.631904e-005
-4.465619e-003,7.789165e-005
-3.882990e-003,6.200925e-005
-2.947059e-003,4.013043e-005
-1.810818e-003,1.938607e-005
-6.486471e-004,9.662150e-006
3.838710e-004,1.533444e-005
1.162434e-003,3.332369e-005
1.608600e-003,5.552663e-005
1.699843e-003,7.157111e-005
1.482837e-003,7.772959e-005
1.084318e-003,7.416414e-005
6.731577e-004,6.751947e-005
3.848434e-004,6.087479e-005
2.850111e-004,5.568870e-005
3.548613e-004,5.341978e-005
5.243817e-004,5.406805e-005
7.201567e-004,5.763348e-005
8.869221e-004,6.265751e-005
1.007985e-003,6.751947e-005
1.085939e-003,7.189524e-005
1.131155e-003,7.448828e-005
1.155303e-003,7.367795e-005
1.169564e-003,6.751947e-005
1.179775e-003,5.779555e-005
1.192902e-003,4.499239e-005
1.218022e-003,2.748933e-005
1.259511e-003,8.689757e-006
1.302296e-003,-6.868512e-006
1.324013e-003,-1.464765e-005
1.317854e-003,-1.416145e-005
1.296948e-003,-8.489165e-006
1.278310e-003,-5.896120e-006
1.258862e-003,-8.002969e-006
1.207164e-003,-1.335112e-005
1.088045e-003,-1.724069e-005
8.781705e-004,-1.480971e-005
5.754323e-004,-5.896120e-006
2.070577e-004,4.638125e-006
-1.841679e-004,1.274139e-005
-5.543251e-004,1.501031e-005
-8.661386e-004,1.290346e-005
-1.104375e-003,6.258778e-006
-1.268061e-003,5.864920e-007
-1.369676e-003,-2.330684e-006
-1.428181e-003,-2.330684e-006
-1.458649e-003,-1.844488e-006
-1.452329e-003,-1.844488e-006
-1.389448e-003,-3.141010e-006
-1.258499e-003,-2.654814e-006
-1.072286e-003,2.855406e-006
-8.543079e-004,1.549650e-005
-6.345474e-004,3.543053e-005
-4.413656e-004,6.281957e-005
-2.932379e-004,9.377405e-005
-1.930815e-004,1.240803e-004
-1.342519e-004,1.453108e-004
-1.015147e-004,1.495245e-004
-8.239095e-005,1.346145e-004
-6.958779e-005,1.054428e-004
-5.905355e-005,7.011251e-005
-5.208473e-005,3.818564e-005
-5.597430e-005,1.484824e-005
-8.368747e-005,4.313994e-006
-1.310105e-004,3.665733e-006
-1.645580e-004,8.203561e-006
-1.502963e-004,1.582063e-005
-7.574627e-005,2.959618e-005
5.341978e-005,5.390598e-005
2.102990e-004,8.696730e-005
3.572923e-004,1.210010e-004
4.640934e-004,1.490383e-004
5.242196e-004,1.644345e-004
5.407503e-004,1.730240e-004
5.200059e-004,1.953890e-004
4.585831e-004,2.448189e-004
3.553475e-004,3.185587e-004
2.159713e-004,4.015361e-004
4.693717e-005,4.809482e-004
-1.514308e-004,5.472329e-004
-3.911253e-004,5.901803e-004
-6.878669e-004,5.990939e-004
-1.019615e-003,5.637636e-004
-1.317004e-003,4.768966e-004
-1.494790e-003,3.394651e-004
-1.490576e-003,1.636242e-004
-1.286212e-003,-2.583015e-005
-9.123273e-004,-1.992400e-004
-4.397449e-004,-3.356990e-004
4.337174e-005,-4.363416e-004
4.525867e-004,-5.108916e-004
7.298806e-004,-5.737729e-004
8.580744e-004,-6.290372e-004
8.663398e-004,-6.679328e-004
8.118858e-004,-6.794395e-004
7.553250e-004,-6.554538e-004
7.319875e-004,-5.922483e-004
7.441424e-004,-4.847991e-004
7.645627e-004,-3.292164e-004
7.655350e-004,-1.230693e-004
7.327978e-004,1.257009e-004
6.755887e-004,3.932708e-004
6.093039e-004,6.452825e-004
5.506363e-004,8.554814e-004
5.083373e-004,1.017385e-003
4.802999e-004,1.140393e-003
4.613383e-004,1.234553e-003
4.462662e-004,1.298569e-003
4.287631e-004,1.309103e-003
3.952156e-004,1.233580e-003
3.375203e-004,1.042505e-003
2.619979e-004,7.277738e-004
1.761032e-004,3.146691e-004
8.826383e-005,-1.386276e-004
1.225519e-005,-5.601594e-004
-4.057810e-005,-8.972552e-004
-7.218083e-005,-1.135491e-003
-9.324932e-005,-1.288805e-003
-1.086455e-004,-1.390582e-003
-1.126972e-004,-1.471615e-003
-9.859748e-005,-1.538548e-003
-6.812920e-005,-1.569016e-003
-3.620233e-005,-1.531255e-003
-2.113026e-005,-1.411650e-003
-3.814712e-005,-1.224465e-003
-9.195280e-005,-1.001301e-003
-1.736337e-004,-7.776510e-004
-2.436459e-004,-5.797693e-004
-2.452666e-004,-4.204591e-004
-1.339277e-004,-2.935620e-004
8.340186e-005,-1.848162e-004
3.569682e-004,-8.498399e-005
6.256726e-004,7.393235e-006
8.462437e-004,9.231547e-005
9.961543e-004,1.715654e-004
1.073784e-003,2.417397e-004
1.094852e-003,2.995970e-004
1.075242e-003,3.449753e-004
1.017547e-003,3.816021e-004
9.024804e-004,4.085050e-004
6.982779e-004,4.282769e-004
3.914881e-004,4.425387e-004
6.744974e-006,4.519385e-004
-4.181902e-004,4.584211e-004
-8.661386e-004,4.679830e-004
-1.333373e-003,4.809482e-004
-1.802876e-003,4.879170e-004
-2.199450e-003,4.858101e-004
-2.416780e-003,4.974788e-004
-2.379991e-003,5.576051e-004
-2.100590e-003,6.705647e-004
-1.711147e-003,7.982723e-004
-1.413433e-003,8.872462e-004
-1.353469e-003,8.972943e-004
-1.541465e-003,8.154512e-004
-1.858627e-003,6.619752e-004
-2.119390e-003,4.705760e-004
-2.141269e-003,2.760976e-004
-1.830752e-003,1.056048e-004
-1.236620e-003,-2.890940e-005
-4.822060e-004,-1.306864e-004
3.055935e-004,-2.113949e-004
1.047691e-003,-2.781658e-004
1.731284e-003,-3.386162e-004
2.357345e-003,-4.016596e-004
2.895566e-003,-4.718338e-004
3.289712e-003,-5.416840e-004
3.493106e-003,-5.998655e-004
3.476737e-003,-6.343853e-004
3.236068e-003,-6.421645e-004
2.799461e-003,-6.232028e-004
2.199492e-003,-5.820383e-004
1.459500e-003,-5.275843e-004
5.940698e-004,-4.674581e-004
-3.509331e-004,-4.018217e-004
-1.263361e-003,-3.285681e-004
-1.992655e-003,-2.421873e-004
-2.390850e-003,-1.358725e-004
-2.380153e-003,-2.492749e-006
-1.988279e-003,1.584381e-004
-1.352659e-003,3.323342e-004
-6.595054e-004,4.986133e-004
-7.866345e-005,6.383137e-004
2.916558e-004,7.389563e-004
4.405939e-004,8.029722e-004
4.193634e-004,8.431644e-004
2.986246e-004,8.747672e-004
1.519555e-004,9.052355e-004
2.927205e-005,9.233868e-004
-5.370539e-005,9.021562e-004
-1.172350e-004,8.172339e-004
-1.934057e-004,6.621373e-004
-3.193304e-004,4.457800e-004
-5.113778e-004,1.923098e-004
-7.253040e-004,-6.083626e-005
-8.533355e-004,-2.694143e-004
-7.985575e-004,-4.070077e-004
-5.274222e-004,-4.781544e-004
-7.785312e-005,-4.977643e-004
4.741414e-004,-4.776682e-004
1.047529e-003,-4.240246e-004
1.584452e-003,-3.462333e-004
2.006310e-003,-2.587180e-004
2.190579e-003,-1.731475e-004
2.047799e-003,-9.227693e-005
1.586721e-003,-1.740276e-005
9.217662e-004,4.693717e-005
2.307192e-004,9.344992e-005
-3.126857e-004,1.188942e-004
-6.212580e-004,1.325077e-004
-7.225489e-004,1.470936e-004
-7.170386e-004,1.684862e-004
-7.116904e-004,1.931201e-004
-7.575550e-004,2.122438e-004
-8.296740e-004,2.219677e-004
-8.544700e-004,2.245608e-004
-7.377830e-004,2.182402e-004
-4.117076e-004,2.057612e-004
1.257009e-004,1.947408e-004
8.102651e-004,1.919856e-004
1.545719e-003,1.960373e-004
2.241468e-003,1.968476e-004
2.830092e-003,1.903650e-004
3.267509e-003,1.795066e-004
3.525519e-003,1.652449e-004
3.575922e-003,1.521176e-004
3.365722e-003,1.483901e-004
2.830416e-003,1.568175e-004
1.945697e-003,1.739964e-004
7.658592e-004,1.902029e-004
-5.828486e-004,1.965235e-004
-1.931232e-003,1.924718e-004
-3.186754e-003,1.830720e-004
-4.324134e-003,1.735102e-004
-4.967863e-003,1.668655e-004
-4.967863e-003,1.605450e-004
-4.968025e-003,1.492004e-004
-4.967702e-003,1.289422e-004
-4.967863e-003,1.018773e-004
-3.998867e-003,7.610893e-005
-2.041599e-003,5.860587e-005
-3.474375e-005,5.131293e-005
1.563870e-003,5.260946e-005
2.489104e-003,5.633696e-005
2.778879e-003,6.136099e-005
2.651495e-003,6.622294e-005
2.387327e-003,6.914012e-005
2.200627e-003,6.978838e-005
2.166107e-003,7.124698e-005
2.227530e-003,7.286762e-005
2.267722e-003,7.027457e-005
2.188472e-003,5.730935e-005
1.950883e-003,2.667901e-005
1.581211e-003,-1.821308e-005
1.142013e-003,-6.504996e-005
6.966572e-004,-1.013526e-004
2.853353e-004,-1.190177e-004
-8.644258e-005,-1.146419e-004
-4.467137e-004,-9.454584e-005
-8.301602e-004,-7.363942e-005
-1.231758e-003,-6.602235e-005
-1.597377e-003,-7.542214e-005
-1.860410e-003,-9.422171e-005
-1.987955e-003,-1.097800e-004
-1.985848e-003,-1.172350e-004
-1.871754e-003,-1.148040e-004
-1.659448e-003,-1.101041e-004
-1.377293e-003,-1.126972e-004
-1.059158e-003,-1.240417e-004
-7.338934e-004,-1.402483e-004
-4.224039e-004,-1.598582e-004
-1.383035e-004,-1.838438e-004
1.112771e-004,-2.057227e-004
3.256896e-004,-2.172293e-004
5.185474e-004,-2.141500e-004
7.178878e-004,-2.000504e-004
9.548275e-004,-1.841679e-004
1.254325e-003,-1.733096e-004
1.623024e-003,-1.665028e-004
2.042450e-003,-1.585616e-004
2.451343e-003,-1.477033e-004
2.722804e-003,-1.363587e-004
2.683908e-003,-1.274451e-004
2.203382e-003,-1.233935e-004
1.318665e-003,-1.237176e-004
2.265056e-004,-1.245279e-004
-8.077951e-004,-1.208004e-004
-1.570637e-003,-1.128592e-004
-1.971748e-003,-1.032974e-004
-2.021989e-003,-9.486997e-005
-1.802228e-003,-8.773910e-005
-1.415702e-003,-7.720485e-005
-9.554367e-004,-5.953974e-005
-4.924161e-004,-3.766092e-005
-8.255302e-005,-1.821308e-005
2.389846e-004,-6.706447e-006
4.629589e-004,-1.358292e-006
5.971491e-004,4.313994e-006
6.574374e-004,1.160693e-005
6.601926e-004,1.922400e-005
6.229175e-004,2.473422e-005
5.619809e-004,2.684107e-005
4.948858e-004,2.992031e-005
4.357320e-004,3.640293e-005
3.888950e-004,4.693717e-005
3.639370e-004,5.568870e-005
3.911640e-004,5.860587e-005
5.025028e-004,5.487837e-005
6.924436e-004,4.547859e-005
8.940530e-004,3.705119e-005
1.000530e-003,3.251336e-005
9.154456e-004,3.121684e-005
5.965008e-004,3.267542e-005
8.291567e-005,3.705119e-005
-5.023021e-004,4.320967e-005
-1.001301e-003,4.985435e-005
-1.302418e-003,5.439218e-005
-1.375996e-003,5.714729e-005
-1.257202e-003,5.552663e-005
-1.006325e-003,5.050261e-005
-6.825187e-004,5.017848e-005
-3.352128e-004,5.552663e-005
-1.189254e-005,6.346784e-005
2.513016e-004,6.606088e-005
4.482110e-004,6.362990e-005
5.965008e-004,6.168512e-005
7.146465e-004,6.281957e-005
8.209614e-004,6.735740e-005
9.308418e-004,7.254349e-005
1.054660e-003,7.335382e-005
1.197926e-003,6.881599e-005
1.359343e-003,5.957827e-005
1.522543e-003,4.726130e-005
1.655113e-003,3.316162e-005
1.716374e-003,2.424803e-005
1.667106e-003,2.068259e-005
1.484134e-003,2.068259e-005
1.169240e-003,2.343770e-005
7.387943e-004,2.603075e-005
2.333123e-004,3.137890e-005
-2.773555e-004,3.818564e-005
-7.364865e-004,4.385793e-005
-1.123660e-003,4.304760e-005
-1.437257e-003,3.607880e-005
-1.663986e-003,2.781346e-005
-1.752150e-003,2.019640e-005
-1.641945e-003,1.387585e-005
-1.332401e-003,1.241726e-005
-9.137859e-004,1.792748e-005
-5.389288e-004,2.862379e-005
-3.536882e-004,3.883391e-005
-4.133283e-004,4.888196e-005
-6.502677e-004,6.071273e-005
-9.121652e-004,7.286762e-005
-1.056403e-003,8.275361e-005
-1.023018e-003,8.712937e-005
-8.334015e-004,8.307774e-005
-5.595111e-004,7.448828e-005
-2.844864e-004,6.800567e-005
-6.504996e-005,6.476436e-005
8.680524e-005,6.184718e-005
1.859892e-004,5.925414e-005
2.574600e-004,5.730935e-005
3.229344e-004,5.601283e-005
3.945674e-004,5.568870e-005
4.746277e-004,5.487837e-005
5.488536e-004,5.325772e-005
6.007145e-004,5.325772e-005
6.180555e-004,5.341978e-005
5.932595e-004,5.601283e-005
5.260024e-004,6.200925e-005
4.235770e-004,7.319175e-005
3.013797e-004,8.842590e-005
1.762653e-004,9.912220e-005
6.508849e-005,1.026876e-004
-1.724069e-005,1.015532e-004
-7.477388e-005,1.025256e-004
-1.297140e-004,1.028497e-004
-1.872472e-004,9.928427e-005
-2.230636e-004,9.069480e-005
-2.216050e-004,7.870197e-005
-1.771991e-004,7.302969e-005
-8.368747e-005,7.432621e-005
5.617490e-005,7.481241e-005
2.222919e-004,7.076077e-005
3.770643e-004,6.411610e-005
4.853239e-004,6.136099e-005
5.355643e-004,6.654707e-005
5.517707e-004,7.853991e-005
5.794839e-004,9.409818e-005
6.767232e-004,1.077117e-004
9.052355e-004,1.111150e-004
1.287548e-003,1.051186e-004
1.735660e-003,9.636710e-005
2.053147e-003,8.631904e-005
2.000313e-003,7.513654e-005
1.394187e-003,6.395403e-005
2.206712e-004,5.309565e-005
-1.277460e-003,4.077869e-005
-2.708012e-003,2.732727e-005
-3.755444e-003,1.290346e-005
-4.265466e-003,-4.761663e-006
-4.264332e-003,-2.404744e-005
-3.905031e-003,-4.057810e-005
-3.378964e-003,-4.560212e-005
-2.827941e-003,-4.155049e-005
-2.336396e-003,-3.101624e-005
-1.929611e-003,-1.707863e-005
-1.593164e-003,-2.654814e-006
-1.298691e-003,8.365628e-006
-1.022046e-003,1.274139e-005
-7.661444e-004,1.095867e-005
-5.493010e-004,7.069104e-006
-3.831841e-004,6.907039e-006
-2.583938e-004,1.355172e-005
-1.350622e-004,2.716520e-005
5.666109e-005,4.758544e-005
3.741471e-004,7.173317e-005
8.253373e-004,9.458438e-005
1.351726e-003,1.138701e-004
1.828523e-003,1.265113e-004
2.127211e-003,1.252147e-004
2.188472e-003,1.103047e-004
2.045206e-003,8.615698e-005
1.804538e-003,6.103685e-005
1.589314e-003,4.110282e-005
1.460472e-003,2.846173e-005
1.412339e-003,2.149292e-005
1.404397e-003,1.517237e-005
1.391756e-003,7.069104e-006
1.331144e-003,-2.978945e-006
1.169564e-003,-1.189254e-005
8.656915e-004,-1.869928e-005
4.036430e-004,-2.031993e-005
-1.890299e-004,-1.675450e-005
-8.178432e-004,-9.947754e-006
-1.340666e-003,-2.978945e-006
-1.622497e-003,2.693341e-006
-1.609208e-003,6.096713e-006
-1.331266e-003,5.448451e-006
-8.794280e-004,3.341602e-006
-3.700568e-004,1.883015e-006
9.539470e-005,2.207145e-006
4.712243e-004,2.623614e-007
7.648868e-004,-1.682422e-006
9.979369e-004,4.151929e-006
1.195819e-003,1.727922e-005
1.375226e-003,3.510640e-005
1.527243e-003,5.115087e-005
1.618972e-003,5.941620e-005
1.618162e-003,5.763348e-005
1.525947e-003,5.293359e-005
1.376522e-003,5.406805e-005
1.225801e-003,6.200925e-005
1.129210e-003,7.529860e-005
1.113003e-003,8.599491e-005
1.153520e-003,8.226741e-005
1.194360e-003,5.925414e-005
1.204408e-003,2.538249e-005
1.194685e-003,-5.085794e-006
1.196629e-003,-2.145439e-005
1.212998e-003,-1.837515e-005
1.190147e-003,1.883015e-006
1.036022e-003,3.299956e-005
6.984400e-004,6.816773e-005
2.102990e-004,1.026876e-004
-3.164132e-004,1.292664e-004
-7.559343e-004,1.443384e-004
-1.026259e-003,1.466074e-004
-1.109074e-003,1.381799e-004
-1.044086e-003,1.208390e-004
-9.165410e-004,9.912220e-005
-8.108744e-004,7.805372e-005
-7.817026e-004,5.844381e-005
-8.591698e-004,4.191315e-005
-1.056565e-003,3.008238e-005
-1.355738e-003,1.987226e-005
-1.698830e-003,9.986280e-006
-1.977097e-003,1.720949e-006
-2.074822e-003,-2.654814e-006
-1.917294e-003,-6.220251e-006
-1.503217e-003,-1.124428e-005
-9.299924e-004,-1.853721e-005
-3.544986e-004,-3.166451e-005
8.340186e-005,-5.159854e-005
3.151553e-004,-7.882551e-005
3.495132e-004,-1.099420e-004
2.519498e-004,-1.366828e-004
1.051186e-004,-1.509446e-004
-1.837515e-005,-1.485136e-004
-6.893953e-005,-1.313347e-004
-3.798505e-005,-1.031353e-004
5.811968e-005,-6.764300e-005
1.864754e-004,-2.955766e-005
3.047831e-004,5.772582e-006
3.903536e-004,3.494434e-005
4.456179e-004,5.601283e-005
4.880791e-004,6.703327e-005
5.329712e-004,7.157111e-005
5.858045e-004,7.448828e-005
6.371792e-004,7.594687e-005
6.687820e-004,7.562274e-005
6.629477e-004,7.319175e-005
6.073592e-004,6.557468e-005
5.047718e-004,5.066468e-005
3.853296e-004,2.781346e-005
2.884145e-004,9.106226e-007
2.376881e-004,-2.599222e-005
2.273159e-004,-4.446767e-005
2.290986e-004,-5.176060e-005
2.049509e-004,-4.706071e-005
1.297525e-004,-3.166451e-005
3.827798e-006,-9.785687e-006
-1.486757e-004,1.160693e-005
-2.955068e-004,2.829966e-005
-4.036044e-004,3.753739e-005
-4.425000e-004,3.705119e-005
-3.880461e-004,3.218923e-005
-2.384598e-004,3.089270e-005
-2.194059e-005,3.705119e-005
2.104611e-004,4.904402e-005
4.013741e-004,6.103685e-005
5.088234e-004,6.832980e-005
5.136854e-004,7.384001e-005
4.235770e-004,7.691926e-005
2.688046e-004,7.513654e-005
9.458438e-005,6.897806e-005
-4.495386e-005,6.103685e-005
-1.120489e-004,5.617490e-005
-9.551824e-005,5.179913e-005
-1.788895e-005,4.466826e-005
8.858796e-005,3.526847e-005
2.031682e-004,2.716520e-005
3.146691e-004,2.311357e-005
4.080188e-004,2.392390e-005
4.499937e-004,2.716520e-005
3.828986e-004,3.202716e-005
1.696206e-004,4.061663e-005
-1.665028e-004,5.244739e-005
-5.381185e-004,6.200925e-005
-8.325911e-004,6.784360e-005
-9.743983e-004,7.416414e-005
-9.543022e-004,8.242948e-005
-8.267568e-004,9.085687e-005
-6.742533e-004,9.247753e-005
-5.578905e-004,8.242948e-005
-4.995470e-004,6.703327e-005
-4.982505e-004,6.136099e-005
-5.246671e-004,7.384001e-005
-5.108916e-004,9.863601e-005
-3.736223e-004,1.255388e-004
-4.884343e-005,1.410971e-004
4.726828e-004,1.399627e-004
1.111221e-003,1.240803e-004
1.710864e-003,1.039842e-004
2.100470e-003,8.793970e-005
2.169672e-003,7.886404e-005
1.921873e-003,7.756751e-005
1.463389e-003,7.967437e-005
9.301936e-004,8.259154e-005
4.355699e-004,8.388807e-005
4.337174e-005,8.761556e-005
-2.389460e-004,9.960840e-005
-4.480102e-004,1.218114e-004
-6.405438e-004,1.480659e-004
-8.643559e-004,1.681620e-004
-1.142298e-003,1.730240e-004
-1.439526e-003,1.608691e-004
-1.648590e-003,1.368834e-004
-1.638380e-003,1.091703e-004
-1.317977e-003,8.615698e-005
-6.839773e-004,7.335382e-005
1.866375e-004,6.784360e-005
1.160165e-003,6.249544e-005
2.062222e-003,5.439218e-005
2.692984e-003,4.256141e-005
2.846136e-003,2.667901e-005
2.386517e-003,7.879431e-006
1.340381e-003,-1.383732e-005
-6.926366e-005,-3.587821e-005
-1.464646e-003,-5.678463e-005
-2.521799e-003,-7.169464e-005
-3.096808e-003,-7.736692e-005
-3.190644e-003,-8.044616e-005
-2.921777e-003,-8.822530e-005
-2.478365e-003,-1.031353e-004
-2.038357e-003,-1.235555e-004
-1.723464e-003,-1.447861e-004
-1.585709e-003,-1.614788e-004
-1.615853e-003,-1.710407e-004
-1.737726e-003,-1.692580e-004
-1.780187e-003,-1.585616e-004
-1.548596e-003,-1.451102e-004
-9.615951e-004,-1.280934e-004
-7.234290e-005,-1.076731e-004
9.473725e-004,-8.530812e-005
1.816693e-003,-5.986387e-005
2.253947e-003,-3.393342e-005
2.064167e-003,-1.027188e-005
1.221912e-003,7.069104e-006
-9.162867e-005,1.160693e-005
-1.492521e-003,2.855406e-006
-2.585328e-003,-1.075808e-005
-3.126466e-003,-2.194059e-005
-3.072174e-003,-2.615428e-005
-2.541571e-003,-2.372330e-005
-1.745667e-003,-1.659243e-005
-8.912588e-004,-6.544382e-006
-1.225831e-004,6.258778e-006
4.901859e-004,2.100672e-005
9.290591e-004,3.737532e-005
1.202788e-003,5.147500e-005
1.338113e-003,5.990240e-005
1.378143e-003,6.006446e-005
1.368419e-003,5.163707e-005
1.345730e-003,4.045456e-005
1.335195e-003,3.429608e-005
1.342002e-003,3.640293e-005
1.364367e-003,4.612685e-005
1.396780e-003,5.941620e-005
1.431138e-003,7.173317e-005
1.449452e-003,7.935023e-005
1.434055e-003,8.226741e-005
1.381546e-003,7.999850e-005
1.306834e-003,7.205730e-005
1.231149e-003,5.325772e-005
1.166485e-003,2.278944e-005
1.101983e-003,-1.545797e-005
1.018357e-003,-4.625038e-005
9.003735e-004,-5.500191e-005
7.451148e-004,-3.636440e-005
5.705704e-004,1.720949e-006
4.086670e-004,4.466826e-005
2.872800e-004,7.627100e-005
2.166196e-004,9.490851e-005
1.819376e-004,1.044704e-004
1.524417e-004,1.098185e-004
1.093323e-004,1.125736e-004
5.504044e-005,1.135460e-004
1.047248e-005,1.153287e-004
6.096713e-006,1.187321e-004
7.659513e-005,1.226217e-004
2.425500e-004,1.239182e-004
5.070407e-004,1.211631e-004
8.553193e-004,1.172735e-004
1.252704e-003,1.130598e-004
1.651710e-003,1.081979e-004
2.004041e-003,1.010670e-004
2.250381e-003,9.312579e-005
2.331252e-003,8.502253e-005
2.213106e-003,8.016056e-005
1.904046e-003,8.016056e-005
1.464686e-003,8.534666e-005
9.972887e-004,9.150514e-005
6.021731e-004,9.442231e-005
3.247172e-004,9.263960e-005
1.542244e-004,8.810177e-005
5.293359e-005,8.502253e-005
-1.805102e-005,8.453633e-005
-8.190475e-005,8.275361e-005
-1.430034e-004,7.643306e-005
-1.972952e-004,6.719534e-005
-2.376495e-004,5.925414e-005
-2.545043e-004,5.455424e-005
-2.347323e-004,5.260946e-005
-1.833576e-004,5.260946e-005
-1.433275e-004,5.536457e-005
-1.744440e-004,6.265751e-005
-3.238682e-004,7.157111e-005
-6.029447e-004,7.902610e-005
-9.645123e-004,8.502253e-005
-1.301122e-003,9.020861e-005
-1.503055e-003,8.972242e-005
-1.525907e-003,8.194328e-005
-1.416999e-003,6.622294e-005
-1.283943e-003,4.499239e-005
-1.224303e-003,2.295151e-005
-1.270492e-003,6.420843e-006
-1.379237e-003,-4.761663e-006
-1.478259e-003,-1.302699e-005
-1.498517e-003,-1.837515e-005
-1.388637e-003,-1.821308e-005
-1.120905e-003,-1.416145e-005
-6.865704e-004,-8.651231e-006
-1.049180e-004,-3.627206e-006
5.553362e-004,-1.682422e-006
1.174913e-003,-9.137427e-006
1.629831e-003,-2.647842e-005
1.826255e-003,-4.689864e-005
1.716374e-003,-6.180866e-005
1.317692e-003,-6.942573e-005
7.221015e-004,-7.007398e-005
7.189524e-005,-6.537409e-005
-4.933885e-004,-5.354332e-005
-8.979035e-004,-3.782299e-005
-1.135167e-003,-2.372330e-005
-1.248613e-003,-1.529591e-005
-1.296260e-003,-1.448558e-005
-1.320570e-003,-1.594417e-005
-1.328187e-003,-1.497178e-005
-1.301284e-003,-9.461557e-006
-1.221386e-003,2.369210e-006
-1.086061e-003,1.549650e-005
-9.134617e-004,2.619281e-005
-7.293556e-004,3.154097e-005
-5.569181e-004,3.429608e-005
-4.086284e-004,3.688912e-005
-2.872415e-004,4.207521e-005
-1.901644e-004,5.179913e-005
-1.094559e-004,6.508849e-005
-4.090223e-005,7.432621e-005
1.549650e-005,7.902610e-005
5.990240e-005,8.178122e-005
9.474644e-005,8.567078e-005
1.245665e-004,8.615698e-005
1.472556e-004,7.935023e-005
1.634621e-004,6.346784e-005
1.704310e-004,4.288554e-005
1.652449e-004,2.392390e-005
1.445005e-004,1.063454e-005
1.109530e-004,3.017472e-006
7.238143e-005,1.234753e-006
3.899597e-005,5.610517e-006
1.565857e-005,1.549650e-005
2.855406e-006,2.343770e-005
4.151929e-006,2.765140e-005
2.619281e-005,3.429608e-005
6.654707e-005,4.855782e-005
1.158149e-004,6.476436e-005
1.668655e-004,7.351588e-005
2.114335e-004,6.816773e-005
2.399570e-004,5.504044e-005
2.537325e-004,4.304760e-005
2.629703e-004,4.045456e-005
2.777182e-004,4.466826e-005
3.046211e-004,4.353380e-005
3.452995e-004,3.251336e-005
4.002396e-004,1.501031e-005
4.725208e-004,-3.858999e-007
5.619809e-004,-6.706447e-006
6.686199e-004,-2.238345e-007
7.880622e-004,1.355172e-005
9.045872e-004,2.376183e-005
9.903199e-004,2.538249e-005
1.016412e-003,1.792748e-005
9.595274e-004,5.286386e-006
8.128582e-004,-1.156841e-005
5.961767e-004,-3.101624e-005
3.436788e-004,-4.803310e-005
8.988448e-005,-6.002593e-005
-1.332795e-004,-6.278104e-005
-3.015032e-004,-5.597430e-005
-4.125179e-004,-4.430560e-005
-4.809095e-004,-3.150244e-005
-5.222362e-004,-2.145439e-005
-5.405495e-004,-1.529591e-005
-5.249913e-004,-1.724069e-005
-4.606513e-004,-2.550602e-005
-3.316474e-004,-3.490581e-005
-1.391138e-004,-4.041603e-005
8.032263e-005,-4.203669e-005
2.697770e-004,-4.122636e-005
3.804677e-004,-3.506787e-005
3.914881e-004,-2.015787e-005
3.054314e-004,7.485573e-007
1.247285e-004,2.003433e-005
-1.762267e-004,3.267542e-005
-6.296854e-004,3.640293e-005
-1.198048e-003,3.705119e-005
-1.757822e-003,4.045456e-005
-2.145807e-003,5.471631e-005
-2.232836e-003,8.048469e-005
-1.993627e-003,1.132219e-004
-1.512131e-003,1.419075e-004
-9.218892e-004,1.590864e-004
-3.442885e-004,1.634621e-004
1.461212e-004,1.558451e-004
5.201680e-004,1.414213e-004
7.849829e-004,1.265113e-004
9.645515e-004,1.164632e-004
1.077673e-003,1.148425e-004
1.136017e-003,1.216493e-004
1.139744e-003,1.362352e-004
1.087073e-003,1.566554e-004
9.938853e-004,1.833962e-004
9.055596e-004,2.104611e-004
8.583986e-004,2.323399e-004
8.595330e-004,2.415776e-004
8.859496e-004,2.331502e-004
9.233868e-004,2.080301e-004
9.933992e-004,1.743205e-004
1.127913e-003,1.380179e-004
1.305699e-003,1.039842e-004
1.437135e-003,7.675719e-005
1.379763e-003,5.520250e-005
1.006688e-003,3.559260e-005
3.324963e-004,1.744128e-005
-4.326140e-004,1.072688e-006
-9.927116e-004,-1.562004e-005
-1.131926e-003,-3.587821e-005
-8.003402e-004,-6.067420e-005
-1.172350e-004,-8.611845e-005
6.874196e-004,-1.070249e-004
1.364205e-003,-1.173971e-004
1.734039e-003,-1.156143e-004
1.720425e-003,-1.041077e-004
1.352050e-003,-8.579432e-005
7.548388e-004,-6.715681e-005
1.231079e-004,-5.419158e-005
-3.784843e-004,-5.062615e-005
-6.927288e-004,-5.694669e-005
-8.578733e-004,-7.380149e-005
-9.453886e-004,-9.373551e-005
-1.023342e-003,-1.067007e-004
-1.148943e-003,-1.079973e-004
-1.351524e-003,-9.519411e-005
-1.608560e-003,-6.974985e-005
-1.839827e-003,-3.182657e-005
-1.941442e-003,1.614476e-005
-1.833993e-003,6.654707e-005
-1.510024e-003,1.167873e-004
-1.044248e-003,1.733481e-004
-5.596732e-004,2.430362e-004
-1.677994e-004,3.261757e-004
6.897806e-005,4.065602e-004
1.457970e-004,4.621486e-004
1.059289e-004,4.760862e-004
1.128280e-005,4.433490e-004
-8.725291e-005,3.671783e-004
-1.545100e-004,2.576221e-004
-1.799543e-004,1.331559e-004
-1.728234e-004,1.679302e-005
-1.431654e-004,-8.547019e-005
-1.000561e-004,-1.806025e-004
-5.402952e-005,-2.757348e-004
-1.869928e-005,-3.653569e-004
-3.627206e-006,-4.342347e-004
-3.141010e-006,-4.664857e-004
1.234753e-006,-4.496309e-004
2.700314e-005,-3.912874e-004
8.502253e-005,-3.123616e-004
1.822617e-004,-2.358668e-004
3.127243e-004,-1.741199e-004
4.417284e-004,-1.318209e-004
5.204921e-004,-1.062145e-004
5.187094e-004,-9.470791e-005
4.542074e-004,-9.422171e-005
3.799814e-004,-9.632856e-005
3.548613e-004,-9.373551e-005
4.119083e-004,-7.963584e-005
5.415606e-004,-5.532604e-005
6.963331e-004,-2.339917e-005
8.259855e-004,8.527692e-006
8.943771e-004,3.299956e-005
8.838428e-004,4.758544e-005
7.926000e-004,5.633696e-005
6.501445e-004,6.816773e-005
5.099579e-004,8.972242e-005
4.200116e-004,1.214872e-004
4.020223e-004,1.608691e-004
4.548556e-004,2.075439e-004
5.558224e-004,2.662116e-004
6.715371e-004,3.350894e-004
7.674798e-004,4.068843e-004
8.248510e-004,4.734932e-004
8.379783e-004,5.222749e-004
8.037825e-004,5.324850e-004
7.114052e-004,4.838654e-004
5.644119e-004,3.709058e-004
3.712299e-004,2.094887e-004
1.326697e-004,3.024445e-005
-1.668270e-004,-1.355484e-004
-5.493010e-004,-2.686040e-004
-1.001949e-003,-3.653569e-004
-1.455408e-003,-4.355312e-004
-1.809197e-003,-4.870680e-004
-1.969155e-003,-5.087847e-004
-1.874833e-003,-4.749131e-004
-1.524772e-003,-3.729740e-004
-9.789361e-004,-2.211188e-004
-3.397506e-004,-5.516398e-005
2.880904e-004,8.712937e-005
8.282544e-004,1.830720e-004
1.245249e-003,2.274780e-004
1.543936e-003,2.279641e-004
1.757052e-003,1.968476e-004
1.884112e-003,1.498487e-004
1.891729e-003,1.023635e-004
1.767100e-003,5.844381e-005
1.513144e-003,1.452411e-005
1.125483e-003,-3.344722e-005
6.336138e-004,-9.081834e-005
1.054428e-004,-1.519170e-004
-3.839945e-004,-2.058847e-004
-7.617687e-004,-2.408908e-004
-9.748844e-004,-2.522354e-004
-1.001625e-003,-2.405667e-004
-8.732696e-004,-2.110708e-004
-6.823567e-004,-1.737958e-004
-5.507596e-004,-1.306864e-004
-5.575664e-004,-7.590833e-005
-6.909461e-004,1.002961e-007
-8.483115e-004,1.059289e-004
-9.105446e-004,2.393087e-004
-8.097399e-004,3.924605e-004
-5.437908e-004,5.595500e-004
-1.658546e-004,7.350668e-004
2.336364e-004,9.058837e-004
5.496639e-004,1.051743e-003
7.015192e-004,1.150927e-003
6.528996e-004,1.176695e-003
4.258459e-004,1.119648e-003
9.182927e-005,9.964784e-004
-2.650385e-004,8.389507e-004
-5.758798e-004,6.835299e-004
-8.089296e-004,5.525811e-004
-9.614330e-004,4.350837e-004
-1.050731e-003,2.880904e-004
-1.084765e-003,7.140904e-005
-1.063048e-003,-2.141500e-004
-9.808808e-004,-5.091088e-004
-8.405324e-004,-7.398898e-004
-6.573986e-004,-8.598181e-004
-4.583824e-004,-8.724592e-004
-2.668213e-004,-8.178432e-004
-8.984595e-005,-7.387553e-004
7.157111e-005,-6.578848e-004
2.213195e-004,-5.830106e-004
3.649094e-004,-5.159156e-004
5.026649e-004,-4.561135e-004
6.102764e-004,-3.987424e-004
6.486858e-004,-3.423437e-004
5.995801e-004,-2.878897e-004
4.867825e-004,-2.418632e-004
3.668542e-004,-2.083157e-004
3.132105e-004,-1.890299e-004
3.875985e-004,-1.767129e-004
6.044420e-004,-1.616409e-004
9.149594e-004,-1.313347e-004
1.234391e-003,-8.579432e-005
1.484782e-003,-3.215070e-005
1.638420e-003,1.857574e-005
1.741494e-003,6.265751e-005
1.888974e-003,9.733949e-005
2.166431e-003,1.257009e-004
2.569327e-003,1.449867e-004
2.957476e-003,1.547106e-004
3.083888e-003,1.574657e-004
2.715673e-003,1.574657e-004
1.772449e-003,1.571416e-004
3.871123e-004,1.532520e-004
-1.137760e-003,1.461212e-004
-2.458755e-003,1.380179e-004
-3.371347e-003,1.349386e-004
-3.807629e-003,1.381799e-004
-3.843121e-003,1.454729e-004
-3.659339e-003,1.513072e-004
-3.471018e-003,1.511452e-004
-3.456918e-003,1.440143e-004
-3.677004e-003,1.325077e-004
-4.025284e-003,1.234320e-004
-4.244398e-003,1.216493e-004
-4.053484e-003,1.261871e-004
-3.318676e-003,1.357490e-004
-2.130897e-003,1.511452e-004
-7.572308e-004,1.691344e-004
4.386491e-004,1.848548e-004
1.163568e-003,1.945787e-004
1.362747e-003,1.955511e-004
1.194360e-003,1.869616e-004
9.105837e-004,1.705930e-004
7.136741e-004,1.492004e-004
6.721854e-004,1.268354e-004
7.352288e-004,1.057669e-004
8.073479e-004,8.923622e-005
8.149650e-004,7.675719e-005
7.378219e-004,6.508849e-005
5.885596e-004,5.455424e-005
3.864641e-004,4.564065e-005
1.388282e-004,4.029249e-005
-1.609926e-004,3.575467e-005
-5.029504e-004,3.235129e-005
-8.134674e-004,3.462021e-005
-9.761809e-004,4.450619e-005
-9.038998e-004,5.795762e-005
-5.838209e-004,6.735740e-005
-7.088431e-005,6.978838e-005
5.551741e-004,6.427816e-005
1.229691e-003,5.196120e-005
1.903722e-003,3.624086e-005
2.504339e-003,2.052053e-005
2.922956e-003,8.527692e-006
3.036888e-003,3.179537e-006
2.766886e-003,3.827798e-006
2.141959e-003,1.306552e-005
1.308941e-003,2.570661e-005
4.830550e-004,3.591673e-005
-1.191798e-004,3.802358e-005
-3.718396e-004,3.218923e-005
-2.882139e-004,2.441009e-005
1.484824e-005,2.230324e-005
3.871123e-004,2.586868e-005
7.114052e-004,2.846173e-005
9.311660e-004,2.781346e-005
1.046881e-003,2.424803e-005
1.098418e-003,1.727922e-005
1.125807e-003,6.582909e-006
1.145417e-003,-9.623623e-006
1.156113e-003,-2.501983e-005
1.148334e-003,-2.971972e-005
1.104576e-003,-2.048200e-005
1.011064e-003,-4.113402e-006
8.593709e-004,1.257933e-005
6.397723e-004,2.441009e-005
3.508097e-004,2.910999e-005
2.651694e-005,2.635488e-005
-2.663351e-004,2.019640e-005
-4.515757e-004,1.695509e-005
-4.810716e-004,2.149292e-005
-3.528779e-004,3.024445e-005
-1.112386e-004,3.332369e-005
1.739964e-004,2.230324e-005
4.404318e-004,-6.176923e-008
6.464170e-004,-2.501983e-005
7.681281e-004,-4.965375e-005
8.032963e-004,-7.234290e-005
7.653730e-004,-8.838737e-005
6.794783e-004,-9.373551e-005
5.695979e-004,-8.725291e-005
4.446455e-004,-6.731887e-005
3.055935e-004,-4.138842e-005
1.563313e-004,-1.659243e-005
1.484824e-005,5.448451e-006
-1.005423e-004,2.635488e-005
-1.806025e-004,4.677511e-005
-2.165810e-004,6.638501e-005
-1.959987e-004,8.372600e-005
-1.109144e-004,9.814982e-005
3.640293e-005,1.111150e-004
2.312054e-004,1.214872e-004
4.441593e-004,1.265113e-004
6.294001e-004,1.269974e-004
7.162672e-004,1.271595e-004
6.323173e-004,1.274836e-004
3.388168e-004,1.261871e-004
-1.392759e-004,1.235941e-004
-7.084491e-004,1.248906e-004
-1.241806e-003,1.331559e-004
-1.646159e-003,1.394765e-004
-1.894119e-003,1.341283e-004
-2.014372e-003,1.138701e-004
-2.048892e-003,8.097089e-005
-2.017451e-003,3.769945e-005
-1.902546e-003,-1.950961e-005
-1.663500e-003,-9.098041e-005
-1.277784e-003,-1.681235e-004
-7.855922e-004,-2.370012e-004
-2.972895e-004,-2.854588e-004
5.260946e-005,-3.070135e-004
1.748067e-004,-3.045825e-004
7.108490e-005,-2.823795e-004
-1.686097e-004,-2.446183e-004
-4.267797e-004,-1.969711e-004
-6.155858e-004,-1.462447e-004
-6.979149e-004,-9.989400e-005
-6.773326e-004,-5.662256e-005
-5.809038e-004,-8.327101e-006
-4.454172e-004,4.418206e-005
-2.959930e-004,9.426025e-005
-1.468929e-004,1.357490e-004
-8.813297e-006,1.582760e-004
1.041462e-004,1.516314e-004
1.752929e-004,1.188942e-004
1.903650e-004,7.432621e-005
1.467694e-004,3.364782e-005
5.552663e-005,5.286386e-006
-6.699474e-005,-7.840905e-006
-1.968091e-004,-1.237873e-005
-3.010170e-004,-1.918548e-005
-3.486642e-004,-3.571614e-005
-3.256510e-004,-6.569822e-005
-2.426735e-004,-1.045939e-004
-1.182074e-004,-1.384655e-004
2.181705e-005,-1.530514e-004
1.517934e-004,-1.433275e-004
2.553532e-004,-1.138316e-004
3.295791e-004,-7.380149e-005
3.796573e-004,-3.036798e-005
4.068843e-004,6.744974e-006
4.075326e-004,3.121684e-005
3.827366e-004,4.353380e-005
3.384927e-004,5.439218e-005
2.851732e-004,6.800567e-005
2.461155e-004,8.648111e-005
2.409294e-004,1.056048e-004
2.637806e-004,1.197045e-004
2.675081e-004,1.269974e-004
1.824238e-004,1.291043e-004
-3.782299e-005,1.289422e-004
-3.622777e-004,1.302387e-004
-6.932150e-004,1.333180e-004
-9.225374e-004,1.367214e-004
-9.726156e-004,1.412592e-004
-8.381014e-004,1.432040e-004
-5.860899e-004,1.401247e-004
-3.133340e-004,1.315353e-004
-9.405964e-005,1.210010e-004
5.601283e-005,1.130598e-004
1.662173e-004,1.096565e-004
2.726942e-004,1.049566e-004
3.848434e-004,9.199134e-005
4.888894e-004,6.930219e-005
5.730013e-004,4.175108e-005
6.506307e-004,1.744128e-005
7.410632e-004,4.313994e-006
8.379783e-004,4.962256e-006
9.078285e-004,2.327564e-005
8.974564e-004,5.811968e-005
7.608352e-004,1.005808e-004
4.890515e-004,1.359110e-004
1.376937e-004,1.592484e-004
-1.880575e-004,1.728619e-004
-3.833462e-004,1.869616e-004
-3.909633e-004,2.094887e-004
-2.097743e-004,2.396328e-004
1.085220e-004,2.675081e-004
4.896997e-004,2.822560e-004
8.647191e-004,2.816078e-004
1.172157e-003,2.673460e-004
1.370850e-003,2.419018e-004
1.473275e-003,2.085163e-004
1.543774e-003,1.697827e-004
1.622700e-003,1.287802e-004
1.685419e-003,8.388807e-005
1.644741e-003,3.510640e-005
1.381708e-003,-1.529591e-005
8.287406e-004,-6.926366e-005
3.332369e-005,-1.220969e-004
-8.512287e-004,-1.674752e-004
-1.639514e-003,-2.002124e-004
-2.180651e-003,-2.216050e-004
-2.389229e-003,-2.327876e-004
-2.256011e-003,-2.297083e-004
-1.840313e-003,-2.131776e-004
-1.250882e-003,-1.854645e-004
-6.165581e-004,-1.475412e-004
-5.694669e-005,-9.956987e-005
3.613439e-004,-3.879538e-005
6.323173e-004,3.753739e-005
7.781762e-004,1.287802e-004
8.070238e-004,2.295848e-004
6.986020e-004,3.352514e-004
4.235770e-004,4.397836e-004
-3.166451e-005,5.319988e-004
-6.225546e-004,5.930975e-004
-1.220413e-003,6.026593e-004
-1.661231e-003,5.454502e-004
-1.817786e-003,4.237391e-004
-1.679869e-003,2.553532e-004
-1.358331e-003,7.513654e-005
-1.014753e-003,-8.222889e-005
-7.556102e-004,-1.972952e-004
-5.703695e-004,-2.758969e-004
-3.684362e-004,-3.426678e-004
-8.255302e-005,-4.045767e-004
2.618358e-004,-4.416897e-004
5.668428e-004,-4.340726e-004
7.575939e-004,-3.792946e-004
8.287406e-004,-2.922655e-004
8.149650e-004,-1.961608e-004
7.415494e-004,-1.136696e-004
6.081695e-004,-5.775702e-005
4.203357e-004,-2.988179e-005
2.245608e-004,-1.934754e-005
8.194328e-005,-1.869928e-005
3.235129e-005,-2.210265e-005
7.999850e-005,-2.728874e-005
2.081922e-004,-3.101624e-005
3.856537e-004,-3.863331e-005
5.775391e-004,-5.500191e-005
7.606731e-004,-7.817725e-005
9.395934e-004,-9.811128e-005
1.150927e-003,-1.054042e-004
1.415256e-003,-1.008664e-004
1.690767e-003,-8.692878e-005
1.889946e-003,-6.391550e-005
1.924142e-003,-3.393342e-005
1.729501e-003,3.989864e-006
1.308455e-003,5.196120e-005
7.558112e-004,1.120874e-004
2.328261e-004,1.799928e-004
-1.128592e-004,2.483844e-004
-2.329496e-004,3.149932e-004
-1.917850e-004,3.734988e-004
-1.036215e-004,4.070464e-004
-5.273300e-005,4.012120e-004
-5.694669e-005,3.495132e-004
-7.153257e-005,2.561635e-004
-1.886135e-005,1.378558e-004
1.624898e-004,2.197911e-005
4.963444e-004,-6.456376e-005
9.720065e-004,-1.146419e-004
1.525785e-003,-1.383035e-004
2.014089e-003,-1.423551e-004
2.232230e-003,-1.263107e-004
1.989941e-003,-9.438377e-005
1.244277e-003,-5.176060e-005
1.582760e-004,2.369210e-006
-9.857429e-004,8.583285e-005
-1.938687e-003,2.081922e-004
-2.593432e-003,3.556717e-004
-2.966020e-003,4.929410e-004
-3.139917e-003,5.895320e-004
-3.200206e-003,6.483617e-004
-3.206364e-003,6.874196e-004
-3.193075e-003,7.094605e-004
-3.146562e-003,7.021675e-004
-2.992275e-003,6.465790e-004
-2.645617e-003,5.337815e-004
-2.069150e-003,3.666921e-004
-1.326404e-003,1.594105e-004
-5.715040e-004,-6.586029e-005
2.813760e-005,-2.851347e-004
3.675024e-004,-4.732924e-004
4.428628e-004,-6.115341e-004
3.297412e-004,-6.847876e-004
1.425557e-004,-6.930529e-004
-1.189254e-005,-6.489712e-004
-7.104637e-005,-5.779866e-004
-2.599222e-005,-5.021400e-004
9.669123e-005,-4.321278e-004
2.637806e-004,-3.690844e-004
4.491834e-004,-3.104168e-004
6.358827e-004,-2.559629e-004
8.076721e-004,-2.100984e-004
9.517483e-004,-1.861127e-004
1.062763e-003,-2.042640e-004
1.142175e-003,-2.793003e-004
1.196791e-003,-3.972838e-004
1.242008e-003,-5.154294e-004
1.292086e-003,-5.792831e-004
1.352212e-003,-5.515699e-004
1.419469e-003,-4.322899e-004
1.492885e-003,-2.527216e-004
1.560142e-003,-6.083626e-005
1.600497e-003,9.539470e-005
1.575863e-003,1.775618e-004
1.450910e-003,1.717275e-004
1.214619e-003,8.956035e-005
8.890289e-004,-2.907146e-005
5.128751e-004,-1.340898e-004
1.237561e-004,-1.815749e-004
-2.590421e-004,-1.582375e-004
-6.290372e-004,-9.146661e-005
-9.925496e-004,-3.441962e-005
-1.357197e-003,-2.777494e-005
-1.708554e-003,-7.801519e-005
-1.984389e-003,-1.603444e-004
-2.068177e-003,-2.379736e-004
-1.857330e-003,-2.877277e-004
-1.335966e-003,-3.058790e-004
-5.993792e-004,-3.032860e-004
1.803169e-004,-2.959930e-004
8.254993e-004,-2.993964e-004
1.234391e-003,-3.083100e-004
1.392729e-003,-2.953447e-004
1.356588e-003,-2.342461e-004
1.216887e-003,-1.203142e-004
1.054336e-003,2.635488e-005
9.125284e-004,1.738343e-004
7.917897e-004,2.945730e-004
6.694302e-004,3.788470e-004
5.232472e-004,4.286011e-004
3.436788e-004,4.558280e-004
1.360731e-004,4.710622e-004
-8.368747e-005,4.793275e-004
-2.938861e-004,4.848377e-004
-4.612996e-004,4.846757e-004
-5.327704e-004,4.765724e-004
-4.342347e-004,4.593935e-004
-1.344139e-004,4.363802e-004
3.161277e-004,4.101256e-004
8.154512e-004,3.812780e-004
1.240549e-003,3.496752e-004
1.485106e-003,3.177483e-004
1.494830e-003,2.895490e-004
1.297596e-003,2.705873e-004
9.797856e-004,2.639427e-004
6.245381e-004,2.735045e-004
2.699391e-004,3.005694e-004
-7.947377e-005,3.378445e-004
-4.322899e-004,3.707437e-004
-7.864025e-004,3.898674e-004
-1.125605e-003,3.950535e-004
-1.429154e-003,3.922984e-004
-1.662366e-003,3.892192e-004
-1.780511e-003,3.911640e-004
-1.751339e-003,3.931088e-004
-1.584412e-003,3.932708e-004
-1.328187e-003,3.927846e-004
-1.039062e-003,3.963500e-004
-7.481551e-004,4.000776e-004
-4.509274e-004,3.953777e-004
-1.323070e-004,3.809539e-004
1.945787e-004,3.626405e-004
4.882411e-004,3.469201e-004
7.112431e-004,3.313618e-004
8.491608e-004,3.128864e-004
8.890289e-004,2.924662e-004
8.000550e-004,2.676701e-004
5.582533e-004,2.397949e-004
1.764274e-004,2.141886e-004
-2.710350e-004,1.942546e-004
-6.526987e-004,1.785342e-004
-8.364808e-004,1.620035e-004
-7.674409e-004,1.423936e-004
-4.888507e-004,1.214872e-004
-1.120489e-004,1.034980e-004
2.352571e-004,9.231547e-005
4.718725e-004,8.907416e-005
5.869390e-004,8.875003e-005
6.250243e-004,8.388807e-005
6.107626e-004,7.076077e-005
5.135234e-004,5.196120e-005
2.650771e-004,3.413401e-005
-1.553203e-004,2.246531e-005
-6.648535e-004,1.565857e-005
-1.116043e-003,8.041497e-006
-1.376320e-003,-2.654814e-006
-1.387665e-003,-1.367526e-005
-1.174873e-003,-2.453363e-005
-8.322670e-004,-3.522994e-005
-4.488206e-004,-4.657451e-005
-8.660465e-005,-5.678463e-005
1.973338e-004,-6.812920e-005
3.519442e-004,-7.866345e-005
3.731747e-004,-8.692878e-005
3.146691e-004,-9.422171e-005
2.681563e-004,-1.010285e-004
3.363859e-004,-1.047560e-004
5.738116e-004,-1.031353e-004
9.428347e-004,-1.008664e-004
1.336006e-003,-1.008664e-004
1.627400e-003,-1.024870e-004
1.745384e-003,-1.079973e-004
1.719615e-003,-1.198280e-004
1.648793e-003,-1.370070e-004
1.631938e-003,-1.532135e-004
1.718967e-003,-1.658546e-004
1.910529e-003,-1.750923e-004
2.162217e-003,-1.840059e-004
2.396240e-003,-1.919471e-004
2.513090e-003,-1.953505e-004
2.403209e-003,-1.908126e-004
1.950721e-003,-1.794681e-004
1.076863e-003,-1.663408e-004
-1.627753e-004,-1.564548e-004
-1.535792e-003,-1.541859e-004
-2.760359e-003,-1.624512e-004
-3.609584e-003,-1.786577e-004
-3.965482e-003,-1.935677e-004
-3.829022e-003,-2.018331e-004
-3.299876e-003,-2.042640e-004
-2.543353e-003,-2.034537e-004
-1.758794e-003,-2.006986e-004
-1.147484e-003,-1.955125e-004
-8.672731e-004,-1.882196e-004
-9.486299e-004,-1.765509e-004
-1.254933e-003,-1.558065e-004
-1.562371e-003,-1.279313e-004
-1.685217e-003,-9.665269e-005
-1.551837e-003,-6.893953e-005
-1.198535e-003,-5.208473e-005
-7.282211e-004,-5.013995e-005
-2.520733e-004,-6.213279e-005
1.563313e-004,-8.125648e-005
4.652278e-004,-9.908367e-005
6.668372e-004,-1.128592e-004
7.609972e-004,-1.186936e-004
7.527319e-004,-1.133454e-004
6.601926e-004,-1.007043e-004
5.125509e-004,-8.773910e-005
3.300653e-004,-7.801519e-005
1.154908e-004,-7.201877e-005
-1.368449e-004,-6.699474e-005
-4.143007e-004,-6.326724e-005
-6.663122e-004,-6.699474e-005
-8.165467e-004,-7.995997e-005
-8.100641e-004,-9.616650e-005
-6.267682e-004,-1.083214e-004
-2.943724e-004,-1.128592e-004
1.250527e-004,-1.062145e-004
5.550120e-004,-9.243900e-005
9.269522e-004,-7.882551e-005
1.185285e-003,-6.958779e-005
1.300189e-003,-6.537409e-005
1.267776e-003,-6.245691e-005
1.116407e-003,-5.678463e-005
8.971322e-004,-4.462973e-005
6.666752e-004,-2.501983e-005
4.634451e-004,-1.520357e-006
3.033245e-004,1.906194e-005
1.947408e-004,3.413401e-005
1.432040e-004,4.661304e-005
1.399627e-004,6.217131e-005
1.691344e-004,7.675719e-005
2.044647e-004,8.777764e-005
2.216436e-004,8.875003e-005
2.119197e-004,7.918817e-005
1.952270e-004,6.541262e-005
1.958752e-004,5.260946e-005
2.278021e-004,4.969228e-005
2.931144e-004,5.487837e-005
3.872744e-004,5.893001e-005
5.039615e-004,5.390598e-005
6.274553e-004,3.834771e-005
7.494906e-004,1.841368e-005
8.783326e-004,4.476060e-006
1.032295e-003,3.503668e-006
1.215267e-003,1.549650e-005
1.418659e-003,3.932010e-005
1.618810e-003,7.027457e-005
1.772611e-003,9.993253e-005
1.843758e-003,1.227837e-004
1.810372e-003,1.338042e-004
1.674075e-003,1.325077e-004
1.467927e-003,1.248906e-004
1.247194e-003,1.214872e-004
1.059846e-003,1.250527e-004
9.207938e-004,1.323456e-004
8.141547e-004,1.399627e-004
7.000606e-004,1.482280e-004
5.430192e-004,1.551968e-004
3.303894e-004,1.598967e-004
7.400208e-005,1.626518e-004
-1.968091e-004,1.621656e-004
-4.530342e-004,1.589243e-004
-6.844635e-004,1.542244e-004
-8.957966e-004,1.461212e-004
-1.095785e-003,1.360731e-004
-1.291722e-003,1.245665e-004
-1.471290e-003,1.130598e-004
-1.603698e-003,1.020394e-004
-1.644863e-003,9.247753e-005
-1.556699e-003,8.437427e-005
-1.317977e-003,8.080882e-005
-9.499264e-004,8.567078e-005
-5.270981e-004,9.685329e-005
-1.590478e-004,1.064151e-004
6.055066e-005,1.060910e-004
9.960840e-005,9.717742e-005
9.106226e-007,8.323980e-005
-1.517549e-004,7.335382e-005
-2.815692e-004,7.529860e-005
-3.413713e-004,8.502253e-005
-3.160891e-004,9.426025e-005
-2.182017e-004,9.507057e-005
-8.628051e-005,8.680524e-005
3.494434e-005,6.962632e-005
1.148425e-004,5.017848e-005
1.480659e-004,3.332369e-005
1.487142e-004,2.246531e-005
1.393144e-004,1.841368e-005
1.357490e-004,1.727922e-005
1.381799e-004,1.290346e-005
1.291043e-004,5.124321e-006
8.145709e-005,-4.599598e-006
-6.706447e-006,-1.432352e-005
-1.065387e-004,-2.339917e-005
-1.726613e-004,-2.583015e-005
-1.747682e-004,-1.805102e-005
-1.167488e-004,-7.100305e-007
-3.150244e-005,2.262737e-005
3.834771e-005,4.499239e-005
5.341978e-005,5.925414e-005
-1.156841e-005,6.395403e-005
-1.712027e-004,6.233338e-005
-4.061974e-004,5.455424e-005
-6.774946e-004,4.823369e-005
-9.588400e-004,5.034054e-005
-1.262550e-003,5.844381e-005
-1.613908e-003,6.606088e-005
-2.008537e-003,6.865393e-005
-2.375291e-003,6.589881e-005
-2.602021e-003,6.136099e-005
-2.607531e-003,5.568870e-005
-2.376750e-003,4.790957e-005
-1.967697e-003,3.834771e-005
-1.496573e-003,2.992031e-005
-1.091571e-003,2.716520e-005
-8.390738e-004,3.559260e-005
-7.428070e-004,5.228533e-005
-7.262763e-004,6.897806e-005
-6.839773e-004,8.129502e-005
-5.415219e-004,8.826383e-005
-2.843243e-004,9.231547e-005
5.131293e-005,9.344992e-005
4.044533e-004,9.539470e-005
7.178878e-004,1.025256e-004
9.532069e-004,1.145184e-004
1.096311e-003,1.291043e-004
1.154654e-003,1.417454e-004
1.155465e-003,1.500107e-004
1.135693e-003,1.535762e-004
1.130831e-003,1.547106e-004
1.183340e-003,1.556830e-004
1.323851e-003,1.535762e-004
1.536157e-003,1.488763e-004
1.763697e-003,1.396385e-004
1.942942e-003,1.266733e-004
2.024461e-003,1.130598e-004
1.990913e-003,9.782569e-005
1.858830e-003,8.550872e-005
1.665161e-003,7.967437e-005
1.459176e-003,8.178122e-005
1.285279e-003,8.793970e-005
1.167620e-003,9.101894e-005
1.111059e-003,8.842590e-005
1.126617e-003,8.178122e-005
1.239415e-003,7.546067e-005
1.478623e-003,6.897806e-005
1.825444e-003,6.249544e-005
2.176803e-003,5.325772e-005
2.329955e-003,3.850977e-005
2.044071e-003,1.679302e-005
1.166809e-003,-9.137427e-006
-2.157707e-004,-2.939559e-005
-1.744371e-003,-3.749886e-005
-3.024040e-003,-3.685059e-005
-3.797905e-003,-3.069211e-005
-3.986226e-003,-2.048200e-005
-3.661932e-003,-1.140634e-005
-2.978014e-003,-5.571990e-006
-2.106749e-003,-5.896120e-006
-1.181356e-003,-1.027188e-005
-2.833519e-004,-1.691656e-005
5.355643e-004,-2.518189e-005
1.224829e-003,-3.555407e-005
1.739873e-003,-5.078821e-005
2.042937e-003,-6.667061e-005
2.116191e-003,-8.125648e-005
1.976165e-003,-9.422171e-005
1.666944e-003,-1.073490e-004
1.234715e-003,-1.159385e-004
7.062191e-004,-1.139937e-004
1.094944e-004,-9.956987e-005
-4.817198e-004,-8.077029e-005
-9.517092e-004,-6.164659e-005
-1.205017e-003,-4.916756e-005
-1.223007e-003,-4.284701e-005
-1.077634e-003,-3.928157e-005
-8.880175e-004,-3.506787e-005
-7.710063e-004,-2.761287e-005
-8.006643e-004,-1.788895e-005
-9.698604e-004,-6.544382e-006
-1.196752e-003,2.693341e-006
-1.362707e-003,7.231170e-006
-1.366596e-003,8.365628e-006
-1.161259e-003,5.772582e-006
-7.520447e-004,2.693341e-006
-1.977814e-004,3.017472e-006
4.080188e-004,4.313994e-006
9.686031e-004,3.017472e-006
1.379601e-003,-2.168618e-006
1.533240e-003,-1.464765e-005
1.398077e-003,-3.814712e-005
1.045422e-003,-6.974985e-005
6.114109e-004,-1.028112e-004
2.637806e-004,-1.287416e-004
1.219734e-004,-1.415448e-004
1.958752e-004,-1.336036e-004
4.070464e-004,-1.044318e-004
