-2.696506e-003,1.883015e-006
-3.011075e-003,3.989864e-006
-2.911729e-003,1.225519e-005
-2.544326e-003,2.489629e-005
-2.056347e-003,3.867184e-005
-1.562695e-003,5.147500e-005
-1.130467e-003,6.136099e-005
-7.731132e-004,6.914012e-005
-4.749131e-004,7.740545e-005
-2.237119e-004,8.907416e-005
-1.383732e-005,1.039842e-004
1.613553e-004,1.206769e-004
3.030004e-004,1.380179e-004
4.106118e-004,1.516314e-004
4.884032e-004,1.594105e-004
5.418848e-004,1.613553e-004
5.734875e-004,1.594105e-004
5.796460e-004,1.573037e-004
5.486915e-004,1.586002e-004
4.767345e-004,1.620035e-004
3.619922e-004,1.624898e-004
2.047888e-004,1.532520e-004
4.151929e-006,1.325077e-004
-2.298704e-004,1.020394e-004
-4.742648e-004,6.978838e-005
-6.974287e-004,4.499239e-005
-8.669490e-004,3.218923e-005
-9.389059e-004,3.040651e-005
-8.564147e-004,3.299956e-005
-6.045653e-004,3.445814e-005
-2.658489e-004,3.316162e-005
1.144487e-005,3.397195e-005
1.065772e-004,3.932010e-005
-3.789271e-006,4.547859e-005
-2.429977e-004,4.645098e-005
-4.896610e-004,4.207521e-005
-6.416783e-004,3.316162e-005
-6.535090e-004,2.197911e-005
-5.329325e-004,9.175954e-006
-3.154408e-004,-5.247859e-006
-5.743289e-005,-1.934754e-005
1.731861e-004,-2.939559e-005
3.222862e-004,-2.826113e-005
3.715541e-004,-1.432352e-005
3.216379e-004,1.468617e-005
1.919856e-004,5.228533e-005
3.429608e-005,9.053274e-005
-8.676671e-005,1.198666e-004
-1.337657e-004,1.281319e-004
-1.136696e-004,1.122495e-004
-7.428768e-005,8.113296e-005
-6.861539e-005,4.839576e-005
-1.164247e-004,2.214118e-005
-1.985918e-004,3.989864e-006
-2.742762e-004,-8.813297e-006
-2.984240e-004,-1.626830e-005
-2.433218e-004,-1.886135e-005
-1.071869e-004,-1.707863e-005
7.951231e-005,-1.205460e-005
2.733424e-004,-7.354708e-006
4.334631e-004,-1.027188e-005
5.324850e-004,-2.501983e-005
5.600361e-004,-4.560212e-005
5.209784e-004,-6.245691e-005
4.512902e-004,-6.748093e-005
4.060740e-004,-6.197072e-005
4.281149e-004,-4.949169e-005
5.276230e-004,-3.312309e-005
7.005468e-004,-2.031993e-005
9.319763e-004,-1.626830e-005
1.186743e-003,-2.210265e-005
1.433245e-003,-3.571614e-005
1.659651e-003,-4.916756e-005
1.857695e-003,-5.662256e-005
2.009065e-003,-5.451571e-005
2.075188e-003,-4.268495e-005
2.038074e-003,-2.988179e-005
1.916039e-003,-2.145439e-005
1.735660e-003,-2.064406e-005
1.521085e-003,-2.388537e-005
1.296462e-003,-2.599222e-005
1.067301e-003,-2.275091e-005
8.209614e-004,-9.623623e-006
5.592257e-004,1.241726e-005
3.260137e-004,3.607880e-005
1.840444e-004,5.325772e-005
1.423936e-004,6.103685e-005
1.059289e-004,6.119892e-005
-8.935975e-005,5.957827e-005
-5.676145e-004,5.747142e-005
-1.318463e-003,5.795762e-005
-2.188268e-003,6.541262e-005
-2.951111e-003,7.967437e-005
-3.396630e-003,9.750155e-005
-3.400843e-003,1.091703e-004
-2.947221e-003,1.101426e-004
-2.112421e-003,9.896014e-005
-1.045059e-003,8.145709e-005
7.481241e-005,6.638501e-005
1.078970e-003,6.168512e-005
1.852347e-003,6.703327e-005
2.322662e-003,7.789165e-005
2.441619e-003,8.793970e-005
2.204192e-003,9.231547e-005
1.661434e-003,8.939829e-005
9.318143e-004,8.097089e-005
1.739964e-004,7.254349e-005
-4.762096e-004,6.541262e-005
-9.709949e-004,6.136099e-005
-1.387016e-003,6.298164e-005
-1.861058e-003,6.670914e-005
-2.430718e-003,6.703327e-005
-2.986927e-003,6.314371e-005
-3.376047e-003,5.617490e-005
-3.479932e-003,4.693717e-005
-3.265032e-003,3.899597e-005
-2.791800e-003,4.013043e-005
-2.177572e-003,5.260946e-005
-1.541627e-003,7.335382e-005
-9.632158e-004,9.831188e-005
-4.702132e-004,1.219734e-004
-6.083626e-005,1.389903e-004
2.773941e-004,1.436902e-004
5.509604e-004,1.333180e-004
7.541904e-004,1.065772e-004
8.660157e-004,7.319175e-005
8.804395e-004,4.726130e-005
8.233925e-004,3.008238e-005
7.480319e-004,1.841368e-005
6.990882e-004,1.160693e-005
6.799645e-004,8.527692e-006
6.553305e-004,7.879431e-006
5.866148e-004,8.527692e-006
4.543695e-004,1.355172e-005
2.574600e-004,2.133085e-005
-8.002969e-006,2.716520e-005
-3.376438e-004,2.570661e-005
-6.883531e-004,1.646889e-005
-9.637020e-004,-3.465141e-006
-1.060941e-003,-3.279896e-005
-9.024413e-004,-6.423963e-005
-4.710235e-004,-9.535618e-005
1.493625e-004,-1.232314e-004
7.977861e-004,-1.415448e-004
1.323851e-003,-1.467309e-004
1.653006e-003,-1.339277e-004
1.798703e-003,-1.055663e-004
1.833547e-003,-6.650855e-005
1.830792e-003,-2.566809e-005
1.828686e-003,6.744974e-006
1.819934e-003,2.684107e-005
1.764832e-003,3.559260e-005
1.618162e-003,3.575467e-005
1.356102e-003,3.008238e-005
9.940474e-004,2.651694e-005
5.909906e-004,2.829966e-005
2.104611e-004,3.656499e-005
-1.191798e-004,4.742337e-005
-3.998769e-004,5.633696e-005
-6.502677e-004,6.217131e-005
-8.936898e-004,6.670914e-005
-1.132088e-003,7.173317e-005
-1.332401e-003,8.080882e-005
-1.430288e-003,9.215340e-005
-1.366596e-003,1.009049e-004
-1.117178e-003,1.060910e-004
-7.136352e-004,1.056048e-004
-2.212809e-004,9.863601e-005
2.767458e-004,8.631904e-005
6.984400e-004,7.254349e-005
9.971267e-004,5.763348e-005
1.177181e-003,4.402000e-005
1.271179e-003,3.267542e-005
1.295813e-003,2.505835e-005
1.258700e-003,2.408596e-005
1.169889e-003,2.878586e-005
1.050770e-003,3.786152e-005
9.344073e-004,4.855782e-005
8.489988e-004,5.617490e-005
8.050791e-004,5.666109e-005
7.940585e-004,4.936815e-005
7.968137e-004,3.867184e-005
7.942206e-004,3.105477e-005
7.713694e-004,2.910999e-005
7.135121e-004,2.829966e-005
6.034696e-004,2.505835e-005
4.384870e-004,2.116879e-005
2.286124e-004,1.808955e-005
-1.682422e-006,1.679302e-005
-2.232257e-004,1.468617e-005
-4.126800e-004,1.387585e-005
-5.499493e-004,1.776542e-005
-6.264441e-004,2.700314e-005
-6.554538e-004,4.061663e-005
-6.650157e-004,5.617490e-005
-6.750637e-004,6.703327e-005
-6.924047e-004,6.784360e-005
-7.082871e-004,5.974033e-005
-6.938633e-004,4.580272e-005
-6.178546e-004,3.024445e-005
-4.822060e-004,1.922400e-005
-3.335922e-004,1.646889e-005
-2.426735e-004,1.792748e-005
-2.643903e-004,1.598270e-005
-3.995527e-004,9.824214e-006
-5.937069e-004,1.720949e-006
-7.703581e-004,-4.437533e-006
-8.538217e-004,-9.623623e-006
-7.966127e-004,-1.626830e-005
-5.924104e-004,-2.809907e-005
-2.825416e-004,-4.641245e-005
6.217131e-005,-6.099833e-005
3.762539e-004,-6.586029e-005
6.294001e-004,-6.132245e-005
8.277682e-004,-4.932962e-005
9.817304e-004,-3.101624e-005
1.087073e-003,-9.623623e-006
1.105548e-003,1.079661e-005
9.608240e-004,3.056858e-005
5.982835e-004,4.985435e-005
3.283749e-005,6.703327e-005
-6.536711e-004,8.242948e-005
-1.325432e-003,9.474644e-005
-1.836100e-003,1.004187e-004
-2.072229e-003,9.685329e-005
-1.980338e-003,8.291567e-005
-1.564640e-003,6.152305e-005
-8.893140e-004,3.607880e-005
-9.017008e-005,1.322759e-005
6.381517e-004,2.045080e-006
1.101497e-003,6.907039e-006
1.195819e-003,2.165498e-005
9.413761e-004,3.980630e-005
4.636072e-004,5.585077e-005
-7.185670e-005,6.638501e-005
-5.212637e-004,6.946425e-005
-7.975851e-004,6.444023e-005
-8.923932e-004,5.504044e-005
-8.547941e-004,4.871989e-005
-7.455621e-004,4.774750e-005
-6.048895e-004,5.196120e-005
-4.480102e-004,5.909207e-005
-2.746004e-004,6.606088e-005
-1.110765e-004,7.400208e-005
-2.242678e-005,8.048469e-005
-7.785312e-005,8.372600e-005
-2.909690e-004,8.388807e-005
-5.933827e-004,8.178122e-005
-8.737558e-004,7.529860e-005
-1.024314e-003,6.703327e-005
-9.867153e-004,6.233338e-005
-7.719788e-004,6.200925e-005
-4.425000e-004,7.027457e-005
-8.206682e-005,8.518459e-005
2.380122e-004,9.912220e-005
4.788413e-004,1.049566e-004
6.352345e-004,9.831188e-005
7.221015e-004,8.259154e-005
7.644006e-004,6.055066e-005
7.919517e-004,3.850977e-005
8.303613e-004,1.630683e-005
8.968081e-004,-8.813297e-006
9.862683e-004,-3.539201e-005
1.076377e-003,-6.018800e-005
1.140231e-003,-8.077029e-005
1.168268e-003,-1.018388e-004
1.172806e-003,-1.242038e-004
1.171347e-003,-1.391138e-004
1.169726e-003,-1.355484e-004
1.154168e-003,-1.068628e-004
1.107655e-003,-5.710876e-005
1.028729e-003,-3.465141e-006
9.297074e-004,4.110282e-005
8.250131e-004,7.157111e-005
7.276117e-004,9.004655e-005
6.405826e-004,1.017153e-004
5.504742e-004,1.086841e-004
4.341113e-004,1.109530e-004
2.645909e-004,1.047945e-004
1.241726e-005,8.988448e-005
-3.321336e-004,6.865393e-005
-7.432931e-004,4.385793e-005
-1.146025e-003,1.857574e-005
-1.455084e-003,-2.654814e-006
-1.582467e-003,-2.275091e-005
-1.474208e-003,-4.187462e-005
-1.151536e-003,-5.921561e-005
-6.958080e-004,-7.785312e-005
-2.023193e-004,-9.276313e-005
2.607013e-004,-9.859748e-005
6.669993e-004,-9.292519e-005
1.017547e-003,-7.461181e-005
1.298731e-003,-4.527799e-005
1.476841e-003,-7.516774e-006
1.520436e-003,3.267542e-005
1.428545e-003,6.573675e-005
1.212026e-003,8.453633e-005
8.780085e-004,9.361198e-005
4.388112e-004,1.017153e-004
-7.947377e-005,1.114392e-004
-6.180167e-004,1.239182e-004
-1.085737e-003,1.359110e-004
-1.418943e-003,1.446626e-004
-1.617960e-003,1.470936e-004
-1.738698e-003,1.430419e-004
-1.872564e-003,1.323456e-004
-2.087949e-003,1.180839e-004
-2.365081e-003,1.039842e-004
-2.583708e-003,9.199134e-005
-2.581115e-003,7.999850e-005
-2.232998e-003,6.654707e-005
-1.519100e-003,5.050261e-005
-5.167259e-004,3.494434e-005
6.306966e-004,2.635488e-005
1.752677e-003,2.619281e-005
2.736579e-003,3.040651e-005
3.537512e-003,3.932010e-005
4.105233e-003,5.179913e-005
4.340717e-003,6.249544e-005
4.104585e-003,6.849186e-005
3.295223e-003,6.995045e-005
1.984917e-003,6.573675e-005
4.145014e-004,6.006446e-005
-1.106644e-003,5.487837e-005
-2.341096e-003,4.936815e-005
-3.194047e-003,4.029249e-005
-3.636811e-003,2.570661e-005
-3.692238e-003,8.527692e-006
-3.425964e-003,-5.734055e-006
-2.941549e-003,-1.399939e-005
-2.352602e-003,-1.513384e-005
-1.749070e-003,-5.734055e-006
-1.182814e-003,1.079661e-005
-6.768464e-004,2.554455e-005
-2.254946e-004,3.316162e-005
1.968476e-004,3.267542e-005
6.159487e-004,2.748933e-005
1.044126e-003,2.197911e-005
1.457879e-003,2.343770e-005
1.795624e-003,2.992031e-005
1.968386e-003,3.883391e-005
1.903560e-003,4.758544e-005
1.594825e-003,5.487837e-005
1.119000e-003,5.844381e-005
5.952043e-004,5.957827e-005
1.336421e-004,6.184718e-005
-2.008607e-004,6.492643e-005
-3.933942e-004,6.638501e-005
-4.617858e-004,6.849186e-005
-4.258073e-004,6.622294e-005
-3.034480e-004,5.876794e-005
-1.238797e-004,4.483032e-005
7.140904e-005,3.154097e-005
2.456293e-004,2.457216e-005
3.809539e-004,2.554455e-005
4.704139e-004,3.024445e-005
4.978030e-004,3.170303e-005
4.423766e-004,2.813760e-005
2.999211e-004,2.311357e-005
9.912220e-005,2.214118e-005
-9.568031e-005,2.619281e-005
-2.123673e-004,3.218923e-005
-2.058847e-004,3.624086e-005
-7.752898e-005,3.640293e-005
1.349386e-004,3.332369e-005
3.746333e-004,2.992031e-005
5.840217e-004,2.230324e-005
7.311772e-004,1.079661e-005
7.987585e-004,-2.238345e-007
7.768796e-004,-5.896120e-006
6.702406e-004,-6.382316e-006
4.978030e-004,-2.816880e-006
2.863077e-004,-1.358292e-006
7.384001e-005,-8.165034e-006
-1.114006e-004,-2.258885e-005
-2.728177e-004,-3.717472e-005
-4.412035e-004,-4.252288e-005
-6.499436e-004,-3.749886e-005
-9.132997e-004,-2.761287e-005
-1.201938e-003,-1.902341e-005
-1.446981e-003,-1.140634e-005
-1.564640e-003,-2.492749e-006
-1.489766e-003,6.907039e-006
-1.186542e-003,1.549650e-005
-6.710120e-004,2.295151e-005
-1.545797e-005,3.121684e-005
6.747784e-004,3.948217e-005
1.296948e-003,4.596478e-005
1.783469e-003,4.888196e-005
2.105818e-003,4.466826e-005
2.277122e-003,3.559260e-005
2.340814e-003,2.554455e-005
2.351024e-003,1.954813e-005
2.328821e-003,1.614476e-005
2.240009e-003,9.986280e-006
2.029323e-003,2.623614e-007
1.668889e-003,-1.286493e-005
1.191605e-003,-2.339917e-005
6.838541e-004,-2.599222e-005
2.409294e-004,-2.194059e-005
-1.020008e-004,-1.497178e-005
-3.651949e-004,-7.840905e-006
-5.760418e-004,-2.168618e-006
-7.466965e-004,4.244267e-007
-8.808866e-004,1.002961e-007
-9.560849e-004,-3.627206e-006
-9.392301e-004,-9.137427e-006
-8.168708e-004,-1.173047e-005
-6.321164e-004,-6.868512e-006
-4.938747e-004,5.286386e-006
-5.058675e-004,2.149292e-005
-6.797636e-004,3.980630e-005
-9.398783e-004,6.087479e-005
-1.202748e-003,8.340186e-005
-1.441308e-003,1.015532e-004
-1.647618e-003,1.132219e-004
-1.796070e-003,1.172735e-004
-1.838855e-003,1.124116e-004
-1.734971e-003,9.960840e-005
-1.473559e-003,7.999850e-005
-1.091247e-003,5.763348e-005
-6.731189e-004,4.191315e-005
-3.010170e-004,4.207521e-005
-1.286493e-005,6.217131e-005
1.929580e-004,9.442231e-005
3.305515e-004,1.291043e-004
4.161220e-004,1.516314e-004
4.683071e-004,1.581140e-004
5.042856e-004,1.530900e-004
5.326470e-004,1.420695e-004
5.542017e-004,1.282940e-004
5.642498e-004,1.138701e-004
5.498260e-004,1.047945e-004
4.859722e-004,1.002567e-004
3.676645e-004,9.733949e-005
2.380122e-004,9.555677e-005
1.581140e-004,9.831188e-005
1.678379e-004,1.026876e-004
2.816078e-004,1.052807e-004
4.828930e-004,9.944633e-005
7.347426e-004,8.858796e-005
9.979369e-004,7.821578e-005
1.238280e-003,6.768153e-005
1.422711e-003,5.179913e-005
1.526271e-003,2.781346e-005
1.530809e-003,5.448451e-006
1.442645e-003,-5.896120e-006
1.295976e-003,-4.923729e-006
1.150279e-003,2.369210e-006
1.081401e-003,1.112074e-005
1.108304e-003,1.825161e-005
1.144120e-003,2.084466e-005
1.052877e-003,1.760335e-005
7.467354e-004,8.527692e-006
2.350950e-004,-1.844488e-006
-3.792946e-004,-1.092015e-005
-9.591641e-004,-1.756482e-005
-1.376806e-003,-2.226472e-005
-1.554754e-003,-2.680255e-005
-1.479232e-003,-3.231276e-005
-1.218307e-003,-3.701266e-005
-9.094101e-004,-3.506787e-005
-7.110421e-004,-2.826113e-005
-7.248177e-004,-2.275091e-005
-9.471713e-004,-1.999580e-005
-1.306794e-003,-1.740276e-005
-1.719737e-003,-1.270286e-005
-2.109342e-003,-4.599598e-006
-2.388581e-003,4.962256e-006
-2.431204e-003,1.533444e-005
-2.118904e-003,2.084466e-005
-1.435636e-003,1.744128e-005
-5.207775e-004,5.772582e-006
3.448132e-004,-8.165034e-006
8.601813e-004,-1.837515e-005
8.823843e-004,-2.145439e-005
4.935893e-004,-2.113026e-005
-5.565017e-005,-1.691656e-005
-5.006815e-004,-7.678839e-006
-6.982390e-004,3.017472e-006
-6.515642e-004,1.387585e-005
-4.574100e-004,1.906194e-005
-2.298704e-004,1.646889e-005
-3.571614e-005,8.041497e-006
1.117633e-004,-2.492749e-006
2.269918e-004,-1.059601e-005
3.282826e-004,-1.286493e-005
4.350837e-004,-1.610623e-005
5.713807e-004,-2.258885e-005
7.420356e-004,-2.696461e-005
9.214421e-004,-2.420950e-005
1.063898e-003,-7.678839e-006
1.127589e-003,2.052053e-005
1.088045e-003,4.693717e-005
9.532069e-004,5.844381e-005
7.665075e-004,5.277152e-005
5.785116e-004,3.786152e-005
4.012120e-004,2.441009e-005
2.141886e-004,2.214118e-005
-3.858999e-007,3.170303e-005
-2.334358e-004,4.402000e-005
-4.742648e-004,5.163707e-005
-7.220627e-004,5.163707e-005
-9.787740e-004,4.580272e-005
-1.233865e-003,3.559260e-005
-1.436609e-003,2.603075e-005
-1.493007e-003,2.327564e-005
-1.302743e-003,2.603075e-005
-8.210845e-004,3.267542e-005
-9.989400e-005,4.742337e-005
7.037881e-004,6.962632e-005
1.421900e-003,8.972242e-005
1.970655e-003,9.701536e-005
2.335628e-003,8.810177e-005
2.540317e-003,6.849186e-005
2.632533e-003,4.142695e-005
2.651819e-003,1.387585e-005
2.619406e-003,-7.516774e-006
2.525245e-003,-1.934754e-005
2.341786e-003,-1.837515e-005
2.043909e-003,-6.220251e-006
1.620269e-003,1.274139e-005
1.074594e-003,3.575467e-005
4.410801e-004,5.893001e-005
-2.099363e-004,7.416414e-005
-7.948300e-004,7.708132e-005
-1.272112e-003,6.654707e-005
-1.635301e-003,4.758544e-005
-1.872888e-003,2.554455e-005
-1.948411e-003,8.041497e-006
-1.829617e-003,-2.654814e-006
-1.521693e-003,-6.706447e-006
-1.070503e-003,-8.813297e-006
-5.306635e-004,-1.432352e-005
5.811968e-005,-2.275091e-005
6.832058e-004,-2.664048e-005
1.360478e-003,-2.031993e-005
2.071946e-003,-1.108221e-005
2.694280e-003,-4.113402e-006
2.992968e-003,1.883015e-006
2.712918e-003,1.290346e-005
1.729015e-003,2.797553e-005
1.451487e-004,3.883391e-005
-1.714388e-003,3.834771e-005
-3.449787e-003,2.781346e-005
-4.805635e-003,1.792748e-005
-4.968025e-003,1.792748e-005
-4.967863e-003,2.862379e-005
-4.967863e-003,4.596478e-005
-4.967863e-003,6.492643e-005
-4.096269e-003,8.064676e-005
-3.020475e-003,8.761556e-005
-1.908705e-003,8.421220e-005
-8.222189e-004,7.643306e-005
1.738343e-004,6.881599e-005
9.946957e-004,6.654707e-005
1.563060e-003,7.189524e-005
1.847971e-003,8.161915e-005
1.872930e-003,9.037068e-005
1.713133e-003,9.328785e-005
1.457393e-003,9.199134e-005
1.172968e-003,8.502253e-005
9.013459e-004,7.529860e-005
6.682958e-004,6.865393e-005
5.034753e-004,6.411610e-005
4.341113e-004,5.682316e-005
4.538833e-004,4.904402e-005
5.289195e-004,4.628891e-005
6.229175e-004,5.066468e-005
7.238842e-004,5.974033e-005
8.451092e-004,6.573675e-005
1.001826e-003,6.022653e-005
1.187554e-003,4.142695e-005
1.367771e-003,1.646889e-005
1.497909e-003,-4.599598e-006
1.547663e-003,-1.513384e-005
1.504878e-003,-1.108221e-005
1.375226e-003,7.717366e-006
1.174102e-003,3.705119e-005
9.293832e-004,6.638501e-005
6.859609e-004,8.648111e-005
4.997478e-004,8.988448e-005
4.206599e-004,8.178122e-005
4.563142e-004,6.946425e-005
5.681394e-004,5.795762e-005
7.110811e-004,5.131293e-005
8.741189e-004,5.179913e-005
1.065356e-003,5.649903e-005
1.238766e-003,6.184718e-005
1.272476e-003,6.395403e-005
1.031323e-003,6.508849e-005
4.524247e-004,6.703327e-005
-3.843186e-004,6.816773e-005
-1.264819e-003,6.427816e-005
-1.929611e-003,5.487837e-005
-2.204475e-003,4.320967e-005
-2.072715e-003,3.478227e-005
-1.644863e-003,3.056858e-005
-1.091896e-003,3.105477e-005
-5.544871e-004,3.429608e-005
-1.058904e-004,3.850977e-005
2.337985e-004,3.915804e-005
4.642555e-004,3.251336e-005
5.945560e-004,1.792748e-005
6.540340e-004,2.045080e-006
6.890402e-004,-9.785687e-006
7.292324e-004,-1.383732e-005
7.762313e-004,-1.140634e-005
8.250131e-004,-6.382316e-006
8.828705e-004,-4.437533e-006
9.797856e-004,-7.678839e-006
1.139420e-003,-7.678839e-006
1.357074e-003,3.017472e-006
1.591745e-003,2.149292e-005
1.770018e-003,4.272347e-005
1.808265e-003,5.925414e-005
1.642958e-003,6.606088e-005
1.247518e-003,5.617490e-005
6.512789e-004,3.056858e-005
-7.023605e-005,-3.627206e-006
-8.321049e-004,-3.263690e-005
-1.581171e-003,-4.608832e-005
-2.275135e-003,-4.268495e-005
-2.853871e-003,-2.615428e-005
-3.238777e-003,-2.816880e-006
-3.369079e-003,2.570661e-005
-3.223057e-003,5.471631e-005
-2.820972e-003,7.708132e-005
-2.205123e-003,9.118101e-005
-1.445846e-003,9.733949e-005
-6.528607e-004,1.005808e-004
3.559260e-005,1.059289e-004
4.935893e-004,1.104668e-004
6.627856e-004,1.090082e-004
5.742979e-004,1.018773e-004
3.475684e-004,9.393611e-005
1.320215e-004,8.988448e-005
3.121684e-005,8.810177e-005
6.670914e-005,8.502253e-005
2.015475e-004,7.918817e-005
3.687989e-004,7.254349e-005
4.982892e-004,6.995045e-005
5.392918e-004,7.837785e-005
4.762483e-004,9.166720e-005
3.256896e-004,1.022014e-004
1.333180e-004,1.069013e-004
-4.706071e-005,1.038221e-004
-1.854645e-004,9.182927e-005
-2.736280e-004,7.043664e-005
-3.121995e-004,4.272347e-005
-2.951827e-004,1.452411e-005
-2.073433e-004,-7.516774e-006
-5.159854e-005,-2.226472e-005
1.396385e-004,-3.895744e-005
3.256896e-004,-6.213279e-005
4.801379e-004,-8.741497e-005
6.018489e-004,-1.034594e-004
7.005468e-004,-1.010285e-004
7.815795e-004,-8.077029e-005
8.415437e-004,-4.657451e-005
8.741189e-004,-7.840905e-006
8.723362e-004,2.441009e-005
8.303613e-004,4.207521e-005
7.490044e-004,4.790957e-005
6.409067e-004,4.936815e-005
5.169267e-004,4.839576e-005
3.851675e-004,4.385793e-005
2.517877e-004,3.202716e-005
1.265113e-004,1.290346e-005
1.419998e-005,-8.975361e-006
-8.514606e-005,-2.826113e-005
-1.737958e-004,-4.106429e-005
-2.545043e-004,-4.706071e-005
-3.335922e-004,-4.965375e-005
-4.060353e-004,-5.338126e-005
-4.452551e-004,-5.921561e-005
-4.214316e-004,-6.586029e-005
-3.031239e-004,-6.699474e-005
-5.354332e-005,-5.953974e-005
3.668542e-004,-4.349527e-005
9.622825e-004,-2.226472e-005
1.654951e-003,-1.844488e-006
2.302080e-003,1.582063e-005
2.737228e-003,2.975825e-005
2.815992e-003,4.320967e-005
2.472087e-003,5.730935e-005
1.760780e-003,6.541262e-005
8.339267e-004,6.298164e-005
-1.015147e-004,5.082674e-005
-8.413427e-004,3.397195e-005
-1.274219e-003,1.695509e-005
-1.378589e-003,9.106226e-007
-1.194645e-003,-1.513384e-005
-8.252982e-004,-3.004385e-005
-4.224039e-004,-4.317114e-005
-1.340898e-004,-5.273300e-005
-5.257093e-005,-5.856734e-005
-1.864369e-004,-5.889147e-005
-4.815578e-004,-5.013995e-005
-8.598181e-004,-3.312309e-005
-1.225924e-003,-1.286493e-005
-1.483445e-003,5.772582e-006
-1.565775e-003,2.133085e-005
-1.447305e-003,3.445814e-005
-1.159801e-003,4.304760e-005
-7.958023e-004,4.709924e-005
-4.909575e-004,4.807163e-005
-3.732981e-004,4.953022e-005
-5.214258e-004,5.147500e-005
-9.277235e-004,5.358185e-005
-1.474694e-003,5.277152e-005
-1.987631e-003,5.001641e-005
-2.318244e-003,4.985435e-005
-2.390688e-003,5.277152e-005
-2.195561e-003,5.763348e-005
-1.771111e-003,6.233338e-005
-1.164825e-003,6.330577e-005
-4.162455e-004,6.168512e-005
4.239012e-004,5.925414e-005
1.282200e-003,5.925414e-005
2.042288e-003,6.281957e-005
2.591044e-003,6.557468e-005
2.858291e-003,6.638501e-005
2.810644e-003,6.930219e-005
2.455557e-003,7.821578e-005
1.871795e-003,8.956035e-005
1.185933e-003,9.814982e-005
5.472329e-004,9.993253e-005
7.432621e-005,9.604297e-005
-1.925954e-004,9.150514e-005
-2.864312e-004,8.729143e-005
-2.741142e-004,8.340186e-005
-2.170672e-004,7.951231e-005
-1.554824e-004,7.772959e-005
-1.039456e-004,7.772959e-005
-6.375343e-005,7.643306e-005
-3.344722e-005,7.513654e-005
-1.691656e-005,7.400208e-005
-1.610623e-005,7.319175e-005
-2.907146e-005,7.254349e-005
-4.203669e-005,7.286762e-005
-3.636440e-005,7.594687e-005
1.396819e-006,8.372600e-005
6.136099e-005,9.393611e-005
1.002567e-004,1.002567e-004
5.293359e-005,1.007429e-004
-1.423551e-004,9.733949e-005
-4.967919e-004,8.680524e-005
-9.338820e-004,6.768153e-005
-1.322352e-003,4.758544e-005
-1.541303e-003,3.445814e-005
-1.533524e-003,2.813760e-005
-1.329808e-003,2.748933e-005
-1.017994e-003,3.348575e-005
-6.873807e-004,4.612685e-005
-3.886943e-004,5.682316e-005
-1.331174e-004,6.362990e-005
9.134307e-005,6.687120e-005
2.890628e-004,6.508849e-005
4.496696e-004,5.747142e-005
5.587395e-004,4.709924e-005
6.018489e-004,3.883391e-005
5.811046e-004,3.024445e-005
5.256782e-004,1.825161e-005
4.702519e-004,2.531276e-006
4.371905e-004,-1.805102e-005
4.415663e-004,-3.766092e-005
4.943996e-004,-5.030201e-005
5.888838e-004,-5.013995e-005
7.058950e-004,-4.236081e-005
8.209614e-004,-3.036798e-005
9.034527e-004,-1.821308e-005
9.211179e-004,-9.299492e-006
8.515918e-004,-5.734055e-006
7.133500e-004,-5.085794e-006
5.650601e-004,-6.868512e-006
4.530729e-004,-1.059601e-005
3.626405e-004,-1.173047e-005
2.156472e-004,-1.140634e-005
-6.715681e-005,-1.043395e-005
-4.890127e-004,-5.896120e-006
-9.568952e-004,-1.034161e-006
-1.336290e-003,1.883015e-006
-1.518452e-003,2.693341e-006
-1.450384e-003,2.855406e-006
-1.151860e-003,5.864920e-007
-7.113663e-004,-3.951337e-006
-2.504527e-004,-8.813297e-006
1.289422e-004,-1.027188e-005
3.877606e-004,-8.975361e-006
5.465847e-004,-4.437533e-006
6.451205e-004,6.420843e-006
7.165913e-004,2.457216e-005
7.682901e-004,4.288554e-005
7.807692e-004,5.212327e-005
7.253428e-004,5.017848e-005
5.883976e-004,4.304760e-005
3.794953e-004,3.575467e-005
1.143563e-004,2.732727e-005
-1.922712e-004,1.987226e-005
-5.296912e-004,1.776542e-005
-8.786177e-004,1.954813e-005
-1.185731e-003,2.165498e-005
-1.365786e-003,2.538249e-005
-1.347473e-003,3.218923e-005
-1.108913e-003,3.996836e-005
-6.937012e-004,4.515445e-005
-1.925954e-004,5.050261e-005
3.030004e-004,5.747142e-005
7.405770e-004,6.638501e-005
1.106521e-003,7.789165e-005
1.390460e-003,9.020861e-005
1.588828e-003,9.977046e-005
1.704543e-003,1.044704e-004
1.752839e-003,1.052807e-004
1.753973e-003,1.046324e-004
1.715726e-003,1.056048e-004
1.638744e-003,1.086841e-004
1.521409e-003,1.073875e-004
1.360964e-003,9.507057e-005
1.154330e-003,7.205730e-005
9.075044e-004,4.726130e-005
6.368551e-004,2.894792e-005
3.652335e-004,2.197911e-005
1.065772e-004,2.327564e-005
-1.493239e-004,2.878586e-005
-4.133283e-004,3.299956e-005
-6.496194e-004,3.121684e-005
-7.808923e-004,2.133085e-005
-7.298418e-004,8.851824e-006
-4.804233e-004,5.864920e-007
-8.498399e-005,7.485573e-007
3.514579e-004,7.555300e-006
7.055708e-004,1.679302e-005
8.671501e-004,2.441009e-005
7.809313e-004,3.121684e-005
5.060683e-004,3.753739e-005
1.952270e-004,4.369587e-005
-1.578211e-005,4.369587e-005
-8.854943e-005,3.332369e-005
-9.875954e-005,2.035846e-005
-1.721751e-004,1.257933e-005
-3.898288e-004,9.986280e-006
-7.400519e-004,7.555300e-006
-1.126415e-003,3.341602e-006
-1.429154e-003,-1.682422e-006
-1.586681e-003,-6.382316e-006
-1.627521e-003,-7.030578e-006
-1.639838e-003,-6.868512e-006
-1.714064e-003,-5.896120e-006
-1.887150e-003,2.855406e-006
-2.075957e-003,2.116879e-005
-2.113880e-003,4.337174e-005
-1.875481e-003,6.136099e-005
-1.334994e-003,6.897806e-005
-5.533526e-004,6.508849e-005
3.462718e-004,5.179913e-005
1.214943e-003,3.429608e-005
1.945211e-003,1.371378e-005
2.486511e-003,-6.706447e-006
2.825716e-003,-2.096819e-005
2.965417e-003,-2.275091e-005
2.939000e-003,-1.221667e-005
2.791520e-003,7.555300e-006
2.535617e-003,3.235129e-005
2.130452e-003,5.455424e-005
1.521571e-003,7.108490e-005
7.128638e-004,8.032263e-005
-2.120432e-004,8.226741e-005
-1.148618e-003,7.659513e-005
-2.035278e-003,6.541262e-005
-2.806548e-003,5.066468e-005
-3.336503e-003,3.299956e-005
-3.467128e-003,8.851824e-006
-3.109449e-003,-2.356124e-005
-2.340285e-003,-6.213279e-005
-1.373565e-003,-1.008664e-004
-4.655133e-004,-1.295519e-004
1.855030e-004,-1.376552e-004
4.997478e-004,-1.227452e-004
5.169267e-004,-8.952182e-005
3.435167e-004,-4.495386e-005
9.604297e-005,7.393235e-006
-1.370070e-004,6.265751e-005
-3.092824e-004,1.122495e-004
-4.079801e-004,1.485521e-004
-4.212695e-004,1.676758e-004
-3.261371e-004,1.764274e-004
-9.762508e-005,1.799928e-004
2.483844e-004,1.820997e-004
6.247002e-004,1.840444e-004
8.909737e-004,1.820997e-004
9.238730e-004,1.756170e-004
6.900126e-004,1.631380e-004
2.697770e-004,1.433660e-004
-1.888679e-004,1.172735e-004
-5.567560e-004,8.113296e-005
-7.737615e-004,3.721326e-005
-8.395599e-004,-2.006553e-006
-7.802441e-004,-2.226472e-005
-6.319543e-004,-1.999580e-005
-4.282383e-004,-1.844488e-006
-1.945401e-004,2.522042e-005
5.293359e-005,5.293359e-005
2.940868e-004,7.140904e-005
5.109303e-004,7.821578e-005
6.913091e-004,7.400208e-005
8.295509e-004,6.427816e-005
9.258178e-004,5.698522e-005
9.820545e-004,5.098881e-005
1.011875e-003,4.450619e-005
1.028243e-003,3.559260e-005
1.032781e-003,2.441009e-005
1.013009e-003,1.306552e-005
9.538552e-004,1.396819e-006
8.559676e-004,-1.092015e-005
7.332840e-004,-2.096819e-005
6.109247e-004,-2.518189e-005
5.148199e-004,-2.534396e-005
4.569625e-004,-2.177852e-005
4.321665e-004,-1.853721e-005
4.206599e-004,-1.934754e-005
3.982948e-004,-2.242678e-005
3.418961e-004,-2.712668e-005
2.386605e-004,-3.360929e-005
9.912220e-005,-3.766092e-005
-4.527799e-005,-3.539201e-005
-1.712027e-004,-2.858526e-005
-2.720073e-004,-1.691656e-005
-3.544986e-004,1.234753e-006
-4.259694e-004,2.392390e-005
-4.885265e-004,4.353380e-005
-5.408736e-004,5.487837e-005
-5.805796e-004,5.568870e-005
-5.862519e-004,5.131293e-005
-5.356875e-004,4.385793e-005
-4.211074e-004,3.445814e-005
-2.277635e-004,2.230324e-005
8.826383e-005,1.403791e-005
5.961767e-004,1.209313e-005
1.317854e-003,1.193106e-005
2.129156e-003,7.069104e-006
2.803999e-003,-3.627206e-006
3.122459e-003,-1.691656e-005
2.951642e-003,-2.680255e-005
2.303863e-003,-2.728874e-005
1.348809e-003,-1.578211e-005
3.308756e-004,3.827798e-006
-5.241809e-004,2.003433e-005
-1.085089e-003,2.748933e-005
-1.328187e-003,2.959618e-005
-1.330456e-003,3.137890e-005
-1.229813e-003,3.494434e-005
-1.159477e-003,3.737532e-005
-1.186542e-003,3.802358e-005
-1.300960e-003,3.883391e-005
-1.438391e-003,3.899597e-005
-1.509700e-003,3.915804e-005
-1.444712e-003,3.948217e-005
-1.234513e-003,3.932010e-005
-9.283717e-004,3.737532e-005
-6.013240e-004,3.332369e-005
-3.379679e-004,2.829966e-005
-1.942160e-004,2.603075e-005
-1.747682e-004,2.441009e-005
-2.175534e-004,2.052053e-005
-2.397564e-004,1.517237e-005
-1.896782e-004,7.879431e-006
-4.236081e-005,-6.176923e-008
2.073818e-004,-6.220251e-006
5.178991e-004,-4.761663e-006
8.023239e-004,4.962256e-006
9.593654e-004,1.954813e-005
9.251695e-004,3.462021e-005
7.206429e-004,4.628891e-005
4.237391e-004,5.682316e-005
8.729143e-005,6.362990e-005
-2.977757e-004,6.508849e-005
-7.392415e-004,5.990240e-005
-1.207124e-003,5.131293e-005
-1.636759e-003,4.013043e-005
-1.942901e-003,3.186510e-005
-2.031713e-003,2.716520e-005
-1.822810e-003,2.311357e-005
-1.299015e-003,1.808955e-005
-5.337428e-004,1.387585e-005
3.190449e-004,1.387585e-005
1.065194e-003,2.100672e-005
1.567922e-003,3.332369e-005
1.789952e-003,4.726130e-005
1.758673e-003,6.087479e-005
1.530971e-003,7.335382e-005
1.188688e-003,8.550872e-005
8.183684e-004,9.652916e-005
4.749518e-004,1.007429e-004
1.545486e-004,9.523264e-005
-1.995642e-004,8.259154e-005
-6.303337e-004,6.379197e-005
-1.101944e-003,4.353380e-005
-1.513590e-003,2.846173e-005
-1.761226e-003,2.311357e-005
-1.792504e-003,2.489629e-005
-1.655883e-003,2.862379e-005
-1.452653e-003,3.705119e-005
-1.245209e-003,5.228533e-005
-1.027069e-003,6.897806e-005
-7.398898e-004,8.194328e-005
-3.384541e-004,8.729143e-005
1.435281e-004,8.323980e-005
5.762426e-004,7.140904e-005
7.776900e-004,5.471631e-005
6.083316e-004,3.883391e-005
9.636710e-005,2.667901e-005
-5.493010e-004,1.857574e-005
-1.053324e-003,1.857574e-005
-1.227058e-003,2.667901e-005
-1.040521e-003,3.607880e-005
-5.875484e-004,4.239934e-005
-1.075808e-005,4.207521e-005
5.472329e-004,3.575467e-005
9.789753e-004,2.716520e-005
1.239577e-003,2.068259e-005
1.348971e-003,1.695509e-005
1.347188e-003,1.792748e-005
1.249625e-003,2.262737e-005
1.057739e-003,3.008238e-005
7.794727e-004,3.883391e-005
4.551798e-004,4.726130e-005
1.581140e-004,4.920609e-005
-4.268495e-005,4.645098e-005
-1.024870e-004,4.531652e-005
-7.678839e-006,4.596478e-005
2.308813e-004,4.450619e-005
5.713807e-004,3.899597e-005
9.190111e-004,2.959618e-005
1.137638e-003,2.408596e-005
1.107493e-003,2.246531e-005
7.969757e-004,2.165498e-005
3.080244e-004,1.533444e-005
-1.773612e-004,-8.720958e-007
-4.898231e-004,-1.983374e-005
-5.499493e-004,-2.793700e-005
-3.836703e-004,-1.772689e-005
-8.903562e-005,6.907039e-006
2.365536e-004,3.607880e-005
5.345918e-004,5.990240e-005
7.968137e-004,7.043664e-005
1.030188e-003,6.411610e-005
1.221101e-003,4.564065e-005
1.326606e-003,2.651694e-005
1.301162e-003,9.824214e-006
1.109114e-003,-4.275467e-006
7.558112e-004,-1.221667e-005
3.117519e-004,-1.286493e-005
-9.811128e-005,-6.382316e-006
-3.541744e-004,5.286386e-006
-3.955011e-004,1.987226e-005
-2.332737e-004,2.829966e-005
5.682316e-005,2.813760e-005
3.645853e-004,2.473422e-005
5.932595e-004,2.651694e-005
6.932539e-004,3.721326e-005
6.645683e-004,5.131293e-005
5.462606e-004,6.525056e-005
3.910019e-004,7.691926e-005
2.501671e-004,8.745350e-005
1.535762e-004,9.361198e-005
1.211631e-004,9.280166e-005
1.590864e-004,8.826383e-005
2.694529e-004,8.016056e-005
4.477248e-004,7.189524e-005
7.007089e-004,6.557468e-005
1.049636e-003,6.719534e-005
1.504716e-003,7.465034e-005
2.015871e-003,8.291567e-005
2.426709e-003,8.842590e-005
2.495101e-003,9.166720e-005
2.009713e-003,9.474644e-005
9.582309e-004,9.798775e-005
-3.930701e-004,9.993253e-005
-1.624766e-003,9.912220e-005
-2.447087e-003,9.604297e-005
-2.768949e-003,9.182927e-005
-2.669116e-003,8.956035e-005
-2.327644e-003,8.664317e-005
-1.916322e-003,8.145709e-005
-1.530606e-003,7.270556e-005
-1.203072e-003,5.909207e-005
-9.406887e-004,4.126489e-005
-7.381071e-004,2.619281e-005
-5.917621e-004,1.841368e-005
-5.057055e-004,1.549650e-005
-5.021400e-004,1.549650e-005
-5.903036e-004,1.841368e-005
-7.293556e-004,1.598270e-005
-8.188156e-004,5.864920e-007
-7.374588e-004,-3.215070e-005
-4.157593e-004,-8.060822e-005
9.555677e-005,-1.363587e-004
6.073592e-004,-1.818990e-004
8.830325e-004,-2.120432e-004
7.716935e-004,-2.272773e-004
2.686426e-004,-2.287359e-004
-4.606513e-004,-2.180396e-004
-1.133546e-003,-1.924333e-004
-1.496897e-003,-1.553203e-004
-1.441308e-003,-1.128592e-004
-1.025611e-003,-7.120844e-005
-4.136524e-004,-3.328516e-005
2.213195e-004,-2.654814e-006
7.611593e-004,1.922400e-005
1.160975e-003,3.056858e-005
1.421576e-003,3.202716e-005
1.532429e-003,2.846173e-005
1.474410e-003,2.700314e-005
1.247356e-003,2.846173e-005
9.042631e-004,3.251336e-005
5.300540e-004,3.996836e-005
1.788584e-004,5.001641e-005
-1.528894e-004,5.666109e-005
-4.929024e-004,5.601283e-005
-8.285395e-004,4.936815e-005
-1.070989e-003,4.077869e-005
-1.097568e-003,3.154097e-005
-8.372911e-004,2.197911e-005
-3.423437e-004,1.355172e-005
2.094887e-004,9.013888e-006
5.715428e-004,1.306552e-005
5.370228e-004,2.424803e-005
3.559260e-005,4.013043e-005
-7.917507e-004,5.520250e-005
-1.644052e-003,6.703327e-005
-2.237698e-003,7.756751e-005
-2.402518e-003,8.032263e-005
-2.104318e-003,7.594687e-005
-1.443901e-003,7.205730e-005
-6.001896e-004,7.918817e-005
2.349330e-004,9.798775e-005
9.000494e-004,1.214872e-004
1.308455e-003,1.409351e-004
1.459662e-003,1.500107e-004
1.397267e-003,1.472556e-004
1.192416e-003,1.342904e-004
9.154456e-004,1.148425e-004
6.106005e-004,9.523264e-005
3.021901e-004,8.210535e-005
8.365628e-006,7.967437e-005
-2.556388e-004,8.729143e-005
-4.741028e-004,1.018773e-004
-6.178546e-004,1.150046e-004
-6.280647e-004,1.244044e-004
-4.381243e-004,1.294284e-004
-2.923352e-005,1.263492e-004
5.191956e-004,1.146805e-004
1.046395e-003,9.539470e-005
1.360640e-003,7.529860e-005
1.326768e-003,6.411610e-005
9.515862e-004,6.152305e-005
3.971604e-004,6.622294e-005
-1.185315e-004,7.319175e-005
-4.538446e-004,7.724339e-005
-5.948414e-004,7.821578e-005
-5.924104e-004,7.286762e-005
-4.831784e-004,6.152305e-005
-2.726556e-004,4.661304e-005
3.624086e-005,3.753739e-005
4.076946e-004,3.672705e-005
7.608352e-004,3.867184e-005
1.007337e-003,3.688912e-005
1.098742e-003,2.635488e-005
1.043315e-003,6.744974e-006
8.900014e-004,-2.177852e-005
7.016812e-004,-5.548810e-005
5.240575e-004,-8.401160e-005
3.663680e-004,-9.940780e-005
2.219677e-004,-9.422171e-005
1.164632e-004,-6.699474e-005
1.130598e-004,-2.761287e-005
2.641047e-004,8.851824e-006
5.435054e-004,3.073064e-005
8.306854e-004,3.202716e-005
9.600137e-004,1.663096e-005
8.235545e-004,-2.168618e-006
4.342734e-004,-1.399939e-005
-6.877746e-005,-1.578211e-005
-5.050572e-004,-9.785687e-006
-7.528550e-004,-1.034161e-006
-7.839716e-004,6.258778e-006
-6.510781e-004,1.257933e-005
-4.431483e-004,1.906194e-005
-2.295462e-004,2.522042e-005
-4.544005e-005,3.154097e-005
9.847395e-005,3.769945e-005
1.869616e-004,4.337174e-005
1.895547e-004,4.564065e-005
5.730935e-005,4.418206e-005
-2.263049e-004,4.045456e-005
-6.019723e-004,3.397195e-005
-9.538160e-004,2.376183e-005
-1.169525e-003,1.582063e-005
-1.199021e-003,1.484824e-005
-1.065155e-003,1.744128e-005
-8.377773e-004,1.954813e-005
-5.925724e-004,2.068259e-005
-3.846427e-004,2.441009e-005
-2.360288e-004,2.813760e-005
-1.441378e-004,2.878586e-005
-9.535618e-005,2.829966e-005
-7.688072e-005,2.959618e-005
-7.396355e-005,3.105477e-005
-8.465986e-005,3.121684e-005
-1.208004e-004,3.056858e-005
-1.924333e-004,3.186510e-005
-2.877277e-004,3.672705e-005
-3.739464e-004,4.742337e-005
-4.126800e-004,5.860587e-005
-3.980942e-004,6.314371e-005
-3.570916e-004,5.941620e-005
-3.240303e-004,5.179913e-005
-3.091203e-004,4.483032e-005
-2.987481e-004,3.980630e-005
-2.708729e-004,4.061663e-005
-2.164190e-004,4.369587e-005
-1.344139e-004,4.515445e-005
-2.777494e-005,5.115087e-005
9.604297e-005,5.925414e-005
2.300710e-004,6.946425e-005
3.734988e-004,7.724339e-005
5.211404e-004,7.562274e-005
6.661889e-004,6.476436e-005
7.926000e-004,5.163707e-005
8.870841e-004,4.564065e-005
9.428347e-004,4.839576e-005
9.700616e-004,5.341978e-005
9.917784e-004,5.131293e-005
1.025488e-003,3.705119e-005
1.069084e-003,1.906194e-005
1.113976e-003,8.527692e-006
1.154330e-003,1.436204e-005
1.191281e-003,3.105477e-005
1.229529e-003,4.547859e-005
1.275231e-003,5.131293e-005
1.332278e-003,4.823369e-005
1.396942e-003,3.883391e-005
1.460796e-003,3.186510e-005
1.509902e-003,3.024445e-005
1.525622e-003,3.267542e-005
1.485754e-003,3.802358e-005
1.365988e-003,4.580272e-005
1.138124e-003,5.374392e-005
7.921138e-004,5.552663e-005
3.499994e-004,4.612685e-005
-1.313347e-004,2.975825e-005
-5.700454e-004,1.403791e-005
-8.901243e-004,3.827798e-006
-1.058348e-003,-2.006553e-006
-1.091409e-003,-7.678839e-006
-1.039710e-003,-2.015787e-005
-9.573814e-004,-3.814712e-005
-8.841279e-004,-5.208473e-005
-8.424771e-004,-5.467778e-005
-8.426392e-004,-4.462973e-005
-8.757006e-004,-2.712668e-005
-9.121652e-004,-8.165034e-006
-9.129756e-004,5.772582e-006
-8.504183e-004,1.403791e-005
-7.175248e-004,2.149292e-005
-5.217499e-004,2.797553e-005
-2.814071e-004,2.992031e-005
-1.497178e-005,3.008238e-005
2.543808e-004,3.056858e-005
4.943996e-004,3.008238e-005
6.593821e-004,2.570661e-005
7.292324e-004,1.517237e-005
7.280979e-004,2.693341e-006
7.023295e-004,-3.627206e-006
6.963331e-004,-2.330684e-006
7.383081e-004,4.962256e-006
8.224201e-004,1.176900e-005
9.303557e-004,1.873781e-005
1.039750e-003,2.684107e-005
1.123376e-003,3.672705e-005
1.152385e-003,4.790957e-005
1.102631e-003,5.617490e-005
9.485069e-004,5.828174e-005
6.773715e-004,5.730935e-005
3.057555e-004,5.439218e-005
-1.143178e-004,4.936815e-005
-5.063537e-004,4.547859e-005
-8.077951e-004,4.855782e-005
-1.030959e-003,6.071273e-005
-1.297394e-003,8.032263e-005
-1.803524e-003,1.023635e-004
-2.680947e-003,1.167873e-004
-3.831129e-003,1.177597e-004
-4.911464e-003,1.039842e-004
-4.968025e-003,7.918817e-005
-4.967863e-003,5.423011e-005
-4.689918e-003,4.175108e-005
-3.555454e-003,5.017848e-005
-2.397008e-003,7.497447e-005
-1.495924e-003,1.012291e-004
-9.403646e-004,1.166253e-004
-6.319543e-004,1.167873e-004
-4.097628e-004,1.060910e-004
-1.619650e-004,8.907416e-005
1.443384e-004,6.881599e-005
4.854860e-004,4.612685e-005
8.146409e-004,2.181705e-005
1.095338e-003,1.002961e-007
1.298407e-003,-1.529591e-005
1.403263e-003,-1.837515e-005
1.407315e-003,-8.813297e-006
1.341678e-003,5.610517e-006
1.255135e-003,1.484824e-005
1.192091e-003,1.144487e-005
1.181395e-003,-6.220251e-006
1.237146e-003,-3.166451e-005
1.350105e-003,-5.451571e-005
1.478786e-003,-7.007398e-005
1.556739e-003,-8.060822e-005
1.495154e-003,-8.822530e-005
1.242008e-003,-8.790116e-005
8.204752e-004,-7.428768e-005
3.311998e-004,-4.803310e-005
-3.150244e-005,-1.237873e-005
-3.409548e-005,2.181705e-005
4.483731e-004,4.596478e-005
1.297110e-003,5.212327e-005
2.185717e-003,4.499239e-005
2.753921e-003,3.494434e-005
2.773044e-003,2.829966e-005
2.260915e-003,2.327564e-005
1.464038e-003,1.776542e-005
6.846644e-004,1.241726e-005
1.412592e-004,9.986280e-006
-8.887356e-005,1.047248e-005
-1.626830e-005,1.484824e-005
2.845250e-004,2.100672e-005
6.660269e-004,2.992031e-005
9.433209e-004,4.013043e-005
9.543414e-004,4.515445e-005
6.216210e-004,4.499239e-005
-5.479652e-007,4.175108e-005
-7.462103e-004,3.818564e-005
-1.423481e-003,3.721326e-005
-1.906760e-003,4.110282e-005
-2.166065e-003,4.953022e-005
-2.223436e-003,5.747142e-005
-2.092325e-003,6.346784e-005
-1.780025e-003,6.978838e-005
-1.289939e-003,7.254349e-005
-6.483229e-004,6.995045e-005
3.316162e-005,5.795762e-005
5.621430e-004,4.272347e-005
7.644006e-004,3.040651e-005
5.971491e-004,2.376183e-005
1.673517e-004,2.538249e-005
-3.491504e-004,3.202716e-005
-8.019608e-004,3.802358e-005
-1.103078e-003,3.850977e-005
-1.210041e-003,3.672705e-005
-1.107292e-003,3.591673e-005
-8.175191e-004,3.769945e-005
-4.070077e-004,4.013043e-005
2.943412e-005,4.158902e-005
4.063981e-004,3.932010e-005
6.686199e-004,3.380988e-005
7.943827e-004,2.748933e-005
7.901690e-004,2.359977e-005
6.791542e-004,2.149292e-005
4.932652e-004,1.873781e-005
2.713976e-004,1.257933e-005
6.541262e-005,3.017472e-006
-5.532604e-005,-8.489165e-006
-4.738484e-005,-1.740276e-005
5.536457e-005,-2.194059e-005
1.655690e-004,-1.886135e-005
2.151610e-004,-5.409925e-006
2.031682e-004,2.019640e-005
1.663793e-004,5.358185e-005
1.417454e-004,8.907416e-005
1.376937e-004,1.159770e-004
1.355869e-004,1.291043e-004
9.863601e-005,1.282940e-004
1.889987e-005,1.211631e-004
-6.310517e-005,1.137081e-004
-7.931171e-005,1.109530e-004
2.992031e-005,1.128978e-004
2.773941e-004,1.127357e-004
6.303724e-004,1.078737e-004
1.028891e-003,1.017153e-004
1.413311e-003,9.863601e-005
1.744897e-003,1.005808e-004
2.015709e-003,1.039842e-004
2.241954e-003,1.052807e-004
2.455719e-003,1.010670e-004
2.698818e-003,9.296372e-005
3.008689e-003,8.178122e-005
3.380145e-003,6.687120e-005
3.738151e-003,4.904402e-005
3.931497e-003,3.478227e-005
3.748361e-003,3.008238e-005
2.978869e-003,3.332369e-005
1.557063e-003,4.061663e-005
-3.426678e-004,4.304760e-005
-2.267356e-003,3.543053e-005
-3.827725e-003,1.889987e-005
-4.827027e-003,-3.465141e-006
-4.967702e-003,-2.631635e-005
-4.967702e-003,-4.252288e-005
-4.704504e-003,-4.819516e-005
-4.044570e-003,-4.236081e-005
-3.288370e-003,-3.101624e-005
-2.551133e-003,-1.983374e-005
-1.951328e-003,-1.221667e-005
-1.563506e-003,-1.059601e-005
-1.362869e-003,-1.707863e-005
-1.238241e-003,-2.923352e-005
-1.070017e-003,-4.252288e-005
-7.823509e-004,-5.354332e-005
-3.702189e-004,-5.727082e-005
9.847395e-005,-4.981582e-005
5.284333e-004,-3.522994e-005
8.522401e-004,-1.902341e-005
1.050446e-003,-4.275467e-006
1.139906e-003,8.527692e-006
1.154492e-003,1.727922e-005
1.124186e-003,1.808955e-005
1.064546e-003,1.079661e-005
9.801098e-004,-8.720958e-007
8.789808e-004,-8.975361e-006
7.820657e-004,-1.043395e-005
7.144844e-004,-2.330684e-006
7.013571e-004,1.079661e-005
7.522457e-004,2.343770e-005
8.467298e-004,2.992031e-005
9.462381e-004,3.380988e-005
1.007661e-003,3.932010e-005
1.002961e-003,4.920609e-005
9.329487e-004,6.184718e-005
8.227442e-004,7.319175e-005
6.981159e-004,8.421220e-005
5.626291e-004,9.020861e-005
4.013741e-004,8.534666e-005
2.091646e-004,6.784360e-005
-8.720958e-007,4.369587e-005
-1.989159e-004,2.489629e-005
-3.462333e-004,1.630683e-005
-4.024699e-004,1.825161e-005
-3.549847e-004,2.441009e-005
-2.277635e-004,3.202716e-005
-5.419158e-005,3.753739e-005
1.404489e-004,3.948217e-005
3.477304e-004,3.834771e-005
5.673291e-004,3.948217e-005
7.883863e-004,4.466826e-005
9.810821e-004,5.115087e-005
1.118028e-003,5.747142e-005
1.154816e-003,6.200925e-005
1.042829e-003,6.444023e-005
7.645627e-004,6.476436e-005
3.563199e-004,6.152305e-005
-1.021629e-004,5.325772e-005
-5.373082e-004,4.369587e-005
-9.296683e-004,3.656499e-005
-1.302094e-003,3.235129e-005
-1.676303e-003,3.526847e-005
-2.036575e-003,4.191315e-005
-2.329427e-003,4.709924e-005
-2.495382e-003,4.888196e-005
-2.505592e-003,4.855782e-005
-2.367026e-003,4.871989e-005
-2.091191e-003,5.050261e-005
-1.660907e-003,5.147500e-005
-1.028042e-003,4.969228e-005
-2.173913e-004,4.564065e-005
5.861287e-004,3.624086e-005
1.131317e-003,2.052053e-005
1.263400e-003,5.124321e-006
1.000044e-003,-3.627206e-006
5.232472e-004,-2.816880e-006
6.508849e-005,9.824214e-006
-2.135018e-004,2.943412e-005
-2.695764e-004,5.001641e-005
-1.588858e-004,6.379197e-005
2.278944e-005,6.751947e-005
1.963614e-004,6.573675e-005
3.124002e-004,6.444023e-005
3.519442e-004,6.573675e-005
3.284447e-004,6.265751e-005
2.798251e-004,5.131293e-005
2.378501e-004,3.445814e-005
2.255332e-004,1.954813e-005
2.689667e-004,1.468617e-005
4.042912e-004,2.003433e-005
6.590580e-004,3.008238e-005
1.000368e-003,4.013043e-005
1.310075e-003,4.807163e-005
1.424332e-003,5.585077e-005
1.192254e-003,6.508849e-005
5.687876e-004,6.978838e-005
-3.261371e-004,6.849186e-005
-1.238403e-003,6.055066e-005
-1.926694e-003,4.936815e-005
-2.261684e-003,3.867184e-005
-2.247584e-003,3.056858e-005
-1.982769e-003,2.700314e-005
-1.590084e-003,2.651694e-005
-1.156398e-003,2.392390e-005
-7.202799e-004,1.322759e-005
-2.692523e-004,5.864920e-007
2.389846e-004,-8.489165e-006
8.472161e-004,-1.351319e-005
1.555767e-003,-1.399939e-005
2.284091e-003,-6.058186e-006
2.883249e-003,8.851824e-006
3.185665e-003,2.262737e-005
3.066709e-003,2.943412e-005
2.510659e-003,3.186510e-005
1.633072e-003,3.299956e-005
6.214589e-004,3.445814e-005
-3.228959e-004,3.543053e-005
-1.040683e-003,3.769945e-005
-1.460108e-003,4.645098e-005
-1.593650e-003,5.552663e-005
-1.527527e-003,5.585077e-005
-1.387827e-003,4.628891e-005
-1.294315e-003,2.748933e-005
-1.320570e-003,1.072688e-006
-1.452977e-003,-2.988179e-005
-1.598026e-003,-5.889147e-005
-1.637083e-003,-8.012203e-005
-1.494304e-003,-8.919769e-005
-1.161746e-003,-8.903562e-005
-7.016424e-004,-8.433573e-005
-2.107467e-004,-7.331529e-005
2.112714e-004,-5.127441e-005
5.175750e-004,-1.772689e-005
7.344185e-004,2.230324e-005
9.190111e-004,6.087479e-005
1.111869e-003,9.118101e-005
1.319637e-003,1.099806e-004
1.526595e-003,1.166253e-004
1.709567e-003,1.127357e-004
1.847485e-003,1.022014e-004
1.935163e-003,9.037068e-005
1.975355e-003,8.178122e-005
1.968062e-003,7.416414e-005
1.902587e-003,6.589881e-005
1.773421e-003,6.200925e-005
1.591259e-003,6.751947e-005
1.380250e-003,8.097089e-005
1.148172e-003,9.733949e-005
8.674742e-004,1.056048e-004
4.871067e-004,1.009049e-004
-1.545797e-005,8.615698e-005
-5.883588e-004,6.379197e-005
-1.126902e-003,4.045456e-005
-1.523151e-003,2.165498e-005
-1.691861e-003,8.041497e-006
-1.596891e-003,-1.520357e-006
-1.266440e-003,-8.651231e-006
-7.967748e-004,-1.254080e-005
-3.193304e-004,-1.156841e-005
4.239934e-005,-5.896120e-006
2.290986e-004,2.693341e-006
2.585945e-004,9.338019e-006
1.976579e-004,8.365628e-006
1.182459e-004,3.017472e-006
7.011251e-005,-5.896120e-006
7.772959e-005,-1.772689e-005
1.406109e-004,-2.890940e-005
2.396328e-004,-3.522994e-005
3.449753e-004,-3.522994e-005
4.203357e-004,-3.020592e-005
4.464283e-004,-2.339917e-005
4.232529e-004,-2.048200e-005
3.645853e-004,-2.339917e-005
3.004074e-004,-2.842320e-005
2.628082e-004,-3.182657e-005
2.655633e-004,-3.377135e-005
3.046211e-004,-3.360929e-005
3.640990e-004,-3.053005e-005
4.273045e-004,-2.420950e-005
4.888894e-004,-1.805102e-005
5.525811e-004,-1.383732e-005
6.193520e-004,-9.947754e-006
6.832058e-004,-5.571990e-006
7.282600e-004,-1.682422e-006
7.426838e-004,4.313994e-006
7.170775e-004,1.501031e-005
6.248623e-004,3.299956e-005
4.461041e-004,5.504044e-005
2.064095e-004,7.724339e-005
-4.868136e-005,9.474644e-005
-2.859450e-004,1.065772e-004
-4.890127e-004,1.119254e-004
-6.502677e-004,1.086841e-004
-7.624169e-004,1.002567e-004
-8.338877e-004,9.474644e-005
-9.090859e-004,9.766362e-005
-1.048624e-003,1.062531e-004
-1.284753e-003,1.148425e-004
-1.589922e-003,1.184080e-004
-1.906112e-003,1.135460e-004
-2.181137e-003,9.960840e-005
-2.387284e-003,7.756751e-005
-2.459404e-003,5.455424e-005
-2.278376e-003,3.883391e-005
-1.795421e-003,3.510640e-005
-1.127712e-003,4.142695e-005
-5.165638e-004,5.212327e-005
-1.736337e-004,6.006446e-005
-1.778474e-004,6.184718e-005
-4.520619e-004,6.249544e-005
-8.024470e-004,6.784360e-005
-1.009404e-003,7.870197e-005
-9.455506e-004,9.247753e-005
-6.467023e-004,1.025256e-004
-2.686040e-004,1.026876e-004
1.873781e-005,9.118101e-005
1.297525e-004,7.529860e-005
7.400208e-005,6.055066e-005
-6.586029e-005,5.196120e-005
-1.754164e-004,5.017848e-005
-1.618029e-004,4.904402e-005
1.883015e-006,4.369587e-005
2.675081e-004,3.494434e-005
5.460985e-004,2.554455e-005
7.553250e-004,2.246531e-005
8.489988e-004,2.846173e-005
8.233925e-004,4.045456e-005
7.112431e-004,5.309565e-005
5.598741e-004,5.957827e-005
4.201737e-004,5.617490e-005
3.336308e-004,4.742337e-005
3.226103e-004,3.656499e-005
3.730126e-004,2.797553e-005
4.443214e-004,2.149292e-005
4.984512e-004,1.760335e-005
5.200059e-004,1.695509e-005
5.183853e-004,2.100672e-005
5.133613e-004,3.105477e-005
5.109303e-004,4.223728e-005
5.062303e-004,5.196120e-005
4.994237e-004,6.168512e-005
5.029890e-004,7.351588e-005
5.219507e-004,8.405013e-005
5.433434e-004,8.291567e-005
5.559844e-004,6.103685e-005
5.739737e-004,2.295151e-005
6.467411e-004,-2.015787e-005
8.151271e-004,-5.856734e-005
1.068111e-003,-8.547019e-005
1.333899e-003,-9.746302e-005
1.522219e-003,-1.007043e-004
1.572784e-003,-1.047560e-004
1.485754e-003,-1.154523e-004
1.308455e-003,-1.332795e-004
1.090801e-003,-1.481895e-004
8.642329e-004,-1.502963e-004
6.504686e-004,-1.365208e-004
4.768966e-004,-1.076731e-004
3.668542e-004,-7.266703e-005
3.273102e-004,-3.766092e-005
3.393030e-004,-5.085794e-006
3.788470e-004,2.230324e-005
4.527488e-004,4.110282e-005
5.830494e-004,5.358185e-005
7.582422e-004,6.168512e-005
9.123664e-004,6.735740e-005
9.308418e-004,6.622294e-005
7.054087e-004,5.795762e-005
2.151610e-004,4.709924e-005
-4.403932e-004,3.883391e-005
-1.107292e-003,3.607880e-005
-1.660259e-003,3.672705e-005
-2.032037e-003,3.834771e-005
-2.192806e-003,3.996836e-005
-2.106263e-003,4.223728e-005
-1.738698e-003,4.499239e-005
-1.129171e-003,5.034054e-005
-4.143007e-004,6.006446e-005
1.950649e-004,7.270556e-005
4.867825e-004,9.150514e-005
3.647473e-004,1.137081e-004
-4.965375e-005,1.334801e-004
-4.705373e-004,1.479039e-004
-6.379507e-004,1.513072e-004
-4.575721e-004,1.454729e-004
-3.539201e-005,1.399627e-004
4.107739e-004,1.378558e-004
6.812610e-004,1.385041e-004
7.016812e-004,1.359110e-004
5.533914e-004,1.261871e-004
3.914881e-004,1.125736e-004
3.593991e-004,1.036600e-004
5.368608e-004,1.023635e-004
9.269522e-004,1.091703e-004
1.429031e-003,1.193804e-004
1.875360e-003,1.240803e-004
2.052661e-003,1.192183e-004
1.738739e-003,1.044704e-004
8.070238e-004,8.437427e-005
-6.958080e-004,6.816773e-005
-2.509320e-003,5.763348e-005
-4.296745e-003,4.871989e-005
-4.967863e-003,3.996836e-005
-4.967863e-003,3.121684e-005
-4.968025e-003,2.376183e-005
-4.967863e-003,2.068259e-005
-4.495763e-003,2.570661e-005
-2.938631e-003,3.705119e-005
-1.355414e-003,5.017848e-005
5.309565e-005,5.585077e-005
1.141041e-003,4.969228e-005
1.859154e-003,4.045456e-005
2.256864e-003,3.121684e-005
2.418281e-003,1.646889e-005
2.429302e-003,-7.840905e-006
2.365286e-003,-3.749886e-005
2.282956e-003,-6.845333e-005
2.209378e-003,-9.908367e-005
2.139204e-003,-1.269589e-004
2.043099e-003,-1.455964e-004
1.891729e-003,-1.491618e-004
1.680557e-003,-1.358725e-004
1.425304e-003,-1.105903e-004
1.135044e-003,-7.898758e-005
8.115617e-004,-5.062615e-005
4.645796e-004,-2.939559e-005
1.318594e-004,-1.643037e-005
-1.347380e-004,-1.059601e-005
-2.942103e-004,-1.318906e-005
-3.478539e-004,-1.967167e-005
-3.342404e-004,-2.550602e-005
-3.037722e-004,-2.858526e-005
-2.959930e-004,-2.599222e-005
-3.319715e-004,-1.967167e-005
-4.084663e-004,-1.221667e-005
-5.016539e-004,-3.951337e-006
-6.013240e-004,5.772582e-006
-7.272487e-004,1.954813e-005
-9.222133e-004,3.737532e-005
-1.197076e-003,5.649903e-005
-1.480690e-003,7.659513e-005
-1.641459e-003,9.928427e-005
-1.560102e-003,1.188942e-004
-1.195617e-003,1.289422e-004
-6.172064e-004,1.231079e-004
2.700314e-005,1.007429e-004
5.968249e-004,7.254349e-005
1.019005e-003,4.709924e-005
1.293545e-003,2.959618e-005
1.466793e-003,1.889987e-005
1.601631e-003,9.175954e-006
1.745870e-003,1.720949e-006
1.905829e-003,-4.923729e-006
2.046664e-003,-8.165034e-006
2.113435e-003,-6.220251e-006
2.063195e-003,9.106226e-007
1.886219e-003,1.355172e-005
1.610707e-003,2.797553e-005
1.296462e-003,4.450619e-005
9.990714e-004,6.087479e-005
7.504629e-004,7.205730e-005
5.611706e-004,7.529860e-005
4.255218e-004,7.529860e-005
3.323342e-004,7.740545e-005
2.723700e-004,8.388807e-005
2.433604e-004,8.939829e-005
2.365536e-004,8.907416e-005
2.318537e-004,8.372600e-005
2.192126e-004,7.772959e-005
2.064095e-004,7.691926e-005
2.316917e-004,7.870197e-005
3.517821e-004,8.113296e-005
5.781874e-004,8.226741e-005
8.538608e-004,8.129502e-005
1.081887e-003,7.951231e-005
1.181233e-003,7.918817e-005
1.123376e-003,8.064676e-005
9.501277e-004,7.967437e-005
7.558112e-004,7.270556e-005
6.405826e-004,6.006446e-005
6.718612e-004,4.758544e-005
8.630984e-004,4.094075e-005
1.178478e-003,3.818564e-005
1.523192e-003,3.769945e-005
1.721722e-003,3.786152e-005
1.574080e-003,3.656499e-005
9.627687e-004,3.202716e-005
-5.629843e-005,2.489629e-005
-1.287670e-003,1.663096e-005
-2.514182e-003,9.175954e-006
-3.568095e-003,3.017472e-006
-4.343096e-003,-3.789271e-006
-4.773059e-003,-8.002969e-006
-4.810496e-003,-5.085794e-006
-4.457191e-003,3.341602e-006
-3.792557e-003,1.322759e-005
-2.973152e-003,2.068259e-005
-2.169792e-003,2.262737e-005
-1.500624e-003,1.663096e-005
-9.951426e-004,5.124321e-006
-6.170443e-004,-1.108221e-005
-3.199787e-004,-2.777494e-005
-8.725291e-005,-3.944364e-005
7.108490e-005,-4.090223e-005
1.388282e-004,-3.425755e-005
1.083599e-004,-2.194059e-005
-3.303075e-006,-1.059601e-005
-1.467309e-004,-6.058186e-006
-2.580697e-004,-9.623623e-006
-2.786520e-004,-1.950961e-005
-1.690959e-004,-2.923352e-005
8.648111e-005,-3.296103e-005
4.590693e-004,-2.955766e-005
8.788188e-004,-1.902341e-005
1.237956e-003,-5.247859e-006
1.414283e-003,6.744974e-006
1.328713e-003,1.630683e-005
1.003123e-003,2.230324e-005
5.480432e-004,2.522042e-005
1.010670e-004,2.651694e-005
-2.423494e-004,2.570661e-005
-4.394208e-004,3.105477e-005
-4.932265e-004,4.337174e-005
-4.220798e-004,5.487837e-005
-2.376495e-004,5.455424e-005
4.953022e-005,4.175108e-005
4.002396e-004,2.473422e-005
7.524077e-004,1.501031e-005
1.025002e-003,1.954813e-005
1.162920e-003,3.624086e-005
1.157734e-003,5.325772e-005
1.038291e-003,6.298164e-005
8.629364e-004,6.638501e-005
7.011950e-004,6.330577e-005
5.943940e-004,5.552663e-005
5.289195e-004,4.628891e-005
4.556660e-004,3.980630e-005
3.300653e-004,4.142695e-005
1.675138e-004,5.212327e-005
3.737532e-005,6.914012e-005
7.069104e-006,8.615698e-005
9.766362e-005,9.814982e-005
2.624841e-004,1.030118e-004
4.243874e-004,1.034980e-004
5.141716e-004,1.018773e-004
5.067165e-004,9.814982e-005
4.217943e-004,9.312579e-005
3.243930e-004,8.956035e-005
2.994350e-004,8.486046e-005
4.031568e-004,7.870197e-005
6.216210e-004,6.832980e-005
8.656915e-004,5.293359e-005
1.016088e-003,3.672705e-005
1.012523e-003,2.619281e-005
8.656915e-004,2.635488e-005
5.961767e-004,3.607880e-005
1.927960e-004,4.774750e-005
-3.624398e-004,5.536457e-005
-1.046517e-003,5.795762e-005
-1.760253e-003,5.504044e-005
-2.369457e-003,4.661304e-005
-2.767977e-003,3.867184e-005
-2.916753e-003,3.462021e-005
-2.854357e-003,3.380988e-005
-2.663768e-003,3.235129e-005
-2.412891e-003,2.894792e-005
-2.103670e-003,2.797553e-005
-1.694617e-003,3.089270e-005
-1.164501e-003,3.705119e-005
-5.374703e-004,4.223728e-005
1.177597e-004,4.320967e-005
7.021675e-004,3.721326e-005
1.124348e-003,2.327564e-005
1.321096e-003,1.403791e-005
1.267290e-003,1.792748e-005
1.004420e-003,2.943412e-005
6.522513e-004,3.786152e-005
3.637749e-004,3.186510e-005
2.495188e-004,1.128280e-005
3.328204e-004,-1.254080e-005
5.681394e-004,-2.404744e-005
8.645570e-004,-1.902341e-005
1.110897e-003,7.485573e-007
1.193226e-003,2.554455e-005
1.045908e-003,4.580272e-005
7.196706e-004,5.115087e-005
3.658818e-004,4.320967e-005
1.448246e-004,3.186510e-005
1.415833e-004,2.295151e-005
3.297412e-004,1.517237e-005
5.871010e-004,7.393235e-006
7.754210e-004,2.693341e-006
8.195028e-004,1.396819e-006
7.287462e-004,5.864920e-007
5.789977e-004,-5.479652e-007
4.683071e-004,-1.196226e-006
4.634451e-004,2.623614e-007
5.730013e-004,2.855406e-006
7.420356e-004,1.558884e-006
8.752534e-004,-4.437533e-006
8.684467e-004,-1.383732e-005
6.507927e-004,-1.902341e-005
2.375260e-004,-1.853721e-005
-2.464010e-004,-1.156841e-005
-6.423265e-004,2.693341e-006
-8.671110e-004,2.343770e-005
-9.426334e-004,4.337174e-005
-9.406887e-004,5.325772e-005
-9.340440e-004,5.066468e-005
-9.625675e-004,3.899597e-005
-1.017021e-003,2.278944e-005
-1.047328e-003,6.420843e-006
-9.982219e-004,-8.002969e-006
-8.371290e-004,-1.691656e-005
-5.546492e-004,-1.999580e-005
-1.481895e-004,-1.886135e-005
3.378445e-004,-1.545797e-005
7.982723e-004,-7.192643e-006
1.115434e-003,6.582909e-006
1.206353e-003,2.424803e-005
1.066491e-003,4.239934e-005
7.888725e-004,5.714729e-005
5.428572e-004,6.946425e-005
4.960202e-004,7.886404e-005
7.285841e-004,8.502253e-005
1.163568e-003,8.259154e-005
1.574080e-003,7.011251e-005
1.733553e-003,5.552663e-005
1.524326e-003,4.709924e-005
9.888613e-004,4.726130e-005
3.141829e-004,5.601283e-005
-2.807589e-004,6.946425e-005
-6.708500e-004,8.486046e-005
-8.640318e-004,9.652916e-005
-9.356646e-004,1.041462e-004
-9.358267e-004,1.091703e-004
-8.747281e-004,1.138701e-004
-7.434553e-004,1.211631e-004
-5.381185e-004,1.289422e-004
-2.666592e-004,1.318594e-004
4.596478e-005,1.237561e-004
3.608577e-004,1.025256e-004
6.321552e-004,7.610893e-005
8.276061e-004,5.471631e-005
9.373245e-004,4.596478e-005
9.621205e-004,5.212327e-005
9.044252e-004,6.768153e-005
7.958413e-004,8.372600e-005
7.011950e-004,9.458438e-005
6.791542e-004,9.701536e-005
7.585663e-004,8.891209e-005
9.554758e-004,7.562274e-005
1.275717e-003,6.249544e-005
1.702436e-003,5.633696e-005
2.187013e-003,5.957827e-005
2.679208e-003,6.589881e-005
3.151145e-003,6.865393e-005
3.533461e-003,6.427816e-005
3.674297e-003,5.714729e-005
3.366694e-003,5.115087e-005
2.477759e-003,4.742337e-005
1.079618e-003,4.029249e-005
-5.637249e-004,2.813760e-005
-2.097349e-003,1.274139e-005
-3.328238e-003,-3.789271e-006
-4.253960e-003,-2.599222e-005
-4.964460e-003,-5.127441e-005
-4.967702e-003,-6.974985e-005
-4.967863e-003,-7.363942e-005
-4.967863e-003,-6.586029e-005
-4.968025e-003,-5.224680e-005
-4.967863e-003,-4.349527e-005
-4.299500e-003,-4.965375e-005
-3.426612e-003,-7.412562e-005
-2.662472e-003,-1.107524e-004
-2.161041e-003,-1.442999e-004
-1.991358e-003,-1.673132e-004
-2.090542e-003,-1.763888e-004
-2.286642e-003,-1.710407e-004
-2.367512e-003,-1.522411e-004
-2.177734e-003,-1.242038e-004
-1.682786e-003,-9.098041e-005
-9.492782e-004,-5.370539e-005
-1.054042e-004,-1.497178e-005
7.099466e-004,1.971020e-005
1.417687e-003,4.515445e-005
1.995289e-003,5.536457e-005
2.420550e-003,4.693717e-005
2.658139e-003,2.586868e-005
2.696549e-003,1.720949e-006
2.553445e-003,-1.578211e-005
2.266587e-003,-1.821308e-005
1.897563e-003,-2.978945e-006
1.517033e-003,2.716520e-005
1.195009e-003,6.460230e-005
1.001178e-003,9.652916e-005
9.686031e-004,1.174356e-004
1.073297e-003,1.248906e-004
1.254649e-003,1.213252e-004
1.457069e-003,1.090082e-004
1.652358e-003,9.069480e-005
1.827065e-003,7.562274e-005
1.970007e-003,6.816773e-005
2.051364e-003,6.298164e-005
2.026406e-003,5.925414e-005
1.871309e-003,6.217131e-005
1.599687e-003,6.832980e-005
1.251408e-003,6.995045e-005
8.746051e-004,6.703327e-005
5.217887e-004,6.055066e-005
2.266676e-004,5.244739e-005
-1.156841e-005,4.547859e-005
-2.169051e-004,4.402000e-005
-3.964735e-004,4.742337e-005
-5.232086e-004,5.212327e-005
-5.564319e-004,5.617490e-005
-4.715097e-004,6.152305e-005
-2.760590e-004,7.221937e-005
-1.140634e-005,8.534666e-005
2.401191e-004,9.750155e-005
3.919743e-004,1.004187e-004
3.747953e-004,9.231547e-005
1.461212e-004,7.691926e-005
-2.559629e-004,6.119892e-005
-7.001838e-004,5.325772e-005
-1.045383e-003,5.309565e-005
-1.222034e-003,5.763348e-005
-1.229651e-003,5.844381e-005
-1.072124e-003,5.260946e-005
-7.823509e-004,4.142695e-005
-4.305072e-004,2.975825e-005
-6.099833e-005,2.133085e-005
3.192069e-004,1.419998e-005
6.914712e-004,9.338019e-006
1.013657e-003,8.365628e-006
1.258376e-003,8.203561e-006
1.481541e-003,5.610517e-006
1.794814e-003,2.045080e-006
2.243412e-003,5.864920e-007
2.690877e-003,5.286386e-006
2.858453e-003,1.776542e-005
2.504663e-003,3.267542e-005
1.626752e-003,4.142695e-005
4.824068e-004,3.996836e-005
-5.411978e-004,3.186510e-005
-1.120743e-003,2.392390e-005
-1.117502e-003,2.149292e-005
-5.745832e-004,2.197911e-005
2.751252e-004,2.262737e-005
1.055956e-003,2.327564e-005
1.426114e-003,2.262737e-005
1.219318e-003,1.711715e-005
4.862963e-004,6.907039e-006
-5.549733e-004,-5.571990e-006
-1.616825e-003,-1.432352e-005
-2.461672e-003,-1.756482e-005
-2.955973e-003,-1.383732e-005
-3.073957e-003,-1.358292e-006
-2.875102e-003,1.306552e-005
-2.463779e-003,2.538249e-005
-1.963483e-003,3.462021e-005
-1.484256e-003,4.402000e-005
-1.103726e-003,5.293359e-005
-8.557665e-004,6.055066e-005
-7.283832e-004,6.508849e-005
-6.739292e-004,6.233338e-005
-6.423265e-004,5.034054e-005
-5.886829e-004,3.494434e-005
-4.739407e-004,3.186510e-005
-2.553146e-004,4.126489e-005
1.253768e-004,5.568870e-005
6.913091e-004,6.816773e-005
1.322554e-003,7.351588e-005
1.764832e-003,6.995045e-005
1.771962e-003,6.427816e-005
1.278148e-003,6.233338e-005
4.441593e-004,6.589881e-005
-4.387725e-004,7.286762e-005
-1.100161e-003,7.724339e-005
-1.409706e-003,7.513654e-005
-1.367731e-003,6.849186e-005
-1.058510e-003,5.990240e-005
-6.129927e-004,5.617490e-005
-1.721751e-004,6.265751e-005
1.435281e-004,7.546067e-005
2.812837e-004,8.858796e-005
2.735045e-004,9.393611e-005
1.919856e-004,9.085687e-005
1.075496e-004,8.226741e-005
8.129502e-005,7.043664e-005
1.587622e-004,5.682316e-005
3.566440e-004,4.304760e-005
6.295621e-004,3.024445e-005
8.553193e-004,1.857574e-005
8.911358e-004,1.241726e-005
6.402585e-004,1.225519e-005
9.993253e-005,1.193106e-005
-6.214201e-004,1.063454e-005
-1.332238e-003,1.128280e-005
-1.835775e-003,1.419998e-005
-2.001082e-003,1.630683e-005
-1.798663e-003,1.403791e-005
-1.298853e-003,5.934647e-006
-6.311440e-004,-4.275467e-006
7.076077e-005,-1.043395e-005
7.156189e-004,-7.030578e-006
1.270369e-003,6.096713e-006
1.739873e-003,2.133085e-005
2.121539e-003,2.846173e-005
2.388461e-003,2.278944e-005
2.499314e-003,7.879431e-006
2.428167e-003,-9.137427e-006
2.152817e-003,-2.388537e-005
1.676182e-003,-3.231276e-005
1.032943e-003,-3.036798e-005
2.997591e-004,-1.480971e-005
-4.039285e-004,1.663096e-005
-9.384198e-004,5.957827e-005
-1.200479e-003,1.039842e-004
-1.160935e-003,1.388282e-004
-8.816969e-004,1.548727e-004
-4.943609e-004,1.543865e-004
-1.300381e-004,1.435281e-004
1.292664e-004,1.310491e-004
2.543808e-004,1.180839e-004
2.462775e-004,1.005808e-004
1.180839e-004,7.691926e-005
-1.060525e-004,4.936815e-005
-3.872357e-004,2.651694e-005
-6.666363e-004,1.128280e-005
-8.789418e-004,2.531276e-006
-9.743983e-004,-2.330684e-006
-9.413369e-004,-6.220251e-006
-8.043918e-004,-6.868512e-006
-6.068342e-004,-3.789271e-006
-3.912874e-004,2.531276e-006
-1.893540e-004,1.144487e-005
-1.707863e-005,1.776542e-005
1.235941e-004,2.003433e-005
2.323399e-004,1.744128e-005
3.080244e-004,1.095867e-005
3.545372e-004,-6.176923e-008
3.830607e-004,-1.335112e-005
4.068843e-004,-2.469570e-005
4.323286e-004,-3.085418e-005
4.615003e-004,-2.890940e-005
4.828930e-004,-1.869928e-005
4.838654e-004,-7.192643e-006
4.580969e-004,-3.951337e-006
4.201737e-004,-9.785687e-006
4.065602e-004,-1.626830e-005
4.488592e-004,-1.853721e-005
5.498260e-004,-1.772689e-005
6.833678e-004,-1.254080e-005
8.133444e-004,-1.358292e-006
9.157698e-004,1.419998e-005
9.763822e-004,2.910999e-005
9.932371e-004,4.272347e-005
9.655238e-004,5.455424e-005
8.862738e-004,6.541262e-005
7.368495e-004,7.254349e-005
5.143337e-004,7.270556e-005
2.427121e-004,6.751947e-005
-3.020592e-005,5.682316e-005
-2.523974e-004,4.531652e-005
-3.867496e-004,3.591673e-005
-4.292107e-004,2.910999e-005
-4.011734e-004,2.797553e-005
-3.329439e-004,3.218923e-005
-2.475355e-004,3.996836e-005
-1.536997e-004,4.888196e-005
-6.391550e-005,5.504044e-005
-1.844488e-006,5.876794e-005
2.855406e-006,5.925414e-005
-6.974985e-005,5.536457e-005
-2.112329e-004,5.017848e-005
-3.880461e-004,4.239934e-005
-5.616180e-004,3.348575e-005
-6.904599e-004,2.684107e-005
-7.431311e-004,2.084466e-005
-7.214144e-004,1.403791e-005
-6.585330e-004,7.231170e-006
-6.016482e-004,1.002961e-007
-5.834968e-004,-9.623623e-006
-6.081308e-004,-1.805102e-005
-6.723086e-004,-2.096819e-005
-7.765166e-004,-1.869928e-005
-9.116790e-004,-1.383732e-005
-1.050893e-003,-4.275467e-006
-1.153480e-003,9.175954e-006
-1.182004e-003,2.392390e-005
-1.110857e-003,3.656499e-005
-9.413369e-004,4.256141e-005
-6.987252e-004,3.478227e-005
-4.185144e-004,9.338019e-006
-1.370070e-004,-2.809907e-005
1.164632e-004,-6.699474e-005
3.174242e-004,-9.114247e-005
4.498316e-004,-9.243900e-005
5.167646e-004,-6.991192e-005
5.300540e-004,-3.182657e-005
4.995857e-004,9.500084e-006
4.331389e-004,4.142695e-005
3.553475e-004,5.682316e-005
2.981384e-004,5.406805e-005
2.918179e-004,3.624086e-005
3.527545e-004,1.031041e-005
4.684691e-004,-1.367526e-005
5.947181e-004,-2.858526e-005
6.969814e-004,-3.215070e-005
7.780141e-004,-2.339917e-005
8.556435e-004,-6.706447e-006
9.407278e-004,1.436204e-005
1.028243e-003,3.494434e-005
1.096635e-003,5.147500e-005
1.114138e-003,6.184718e-005
1.074432e-003,6.298164e-005
1.017061e-003,5.520250e-005
9.875648e-004,4.628891e-005
9.864303e-004,3.948217e-005
9.750857e-004,3.462021e-005
8.869221e-004,3.170303e-005
6.590580e-004,3.154097e-005
2.673460e-004,3.202716e-005
-2.504527e-004,3.040651e-005
-8.043918e-004,2.862379e-005
-1.299339e-003,3.073064e-005
-1.661555e-003,3.575467e-005
-1.839341e-003,4.288554e-005
-1.808711e-003,5.098881e-005
-1.589436e-003,5.325772e-005
-1.254609e-003,5.050261e-005
-9.181616e-004,4.418206e-005
-6.974287e-004,3.932010e-005
-6.564262e-004,3.883391e-005
-7.556102e-004,3.980630e-005
-8.760247e-004,4.499239e-005
-9.132997e-004,5.779555e-005
-8.308084e-004,7.367795e-005
-6.530228e-004,8.810177e-005
-4.070077e-004,9.798775e-005
-9.632856e-005,1.049566e-004
2.712356e-004,1.119254e-004
6.572753e-004,1.203528e-004
9.909682e-004,1.258630e-004
1.222884e-003,1.231079e-004
1.353347e-003,1.127357e-004
1.423035e-003,1.005808e-004
1.483485e-003,8.712937e-005
1.567760e-003,7.335382e-005
1.671968e-003,6.217131e-005
1.782659e-003,5.795762e-005
1.903074e-003,6.055066e-005
2.066436e-003,6.978838e-005
2.323797e-003,8.161915e-005
2.657977e-003,9.020861e-005
2.952938e-003,9.053274e-005
3.044667e-003,8.437427e-005
2.798489e-003,7.448828e-005
2.170644e-003,6.038860e-005
1.239577e-003,4.175108e-005
1.754550e-004,2.214118e-005
-8.295119e-004,1.241726e-005
-1.628332e-003,1.614476e-005
-2.138676e-003,3.235129e-005
-2.322296e-003,5.082674e-005
-2.194751e-003,6.411610e-005
-1.805307e-003,6.978838e-005
-1.239375e-003,6.930219e-005
-6.168823e-004,6.395403e-005
-7.250496e-005,5.325772e-005
2.876042e-004,3.964423e-005
4.161220e-004,2.943412e-005
3.459477e-004,2.748933e-005
1.684862e-004,3.251336e-005
-3.652646e-005,3.883391e-005
-2.496423e-004,4.304760e-005
-4.943609e-004,4.612685e-005
-7.915886e-004,4.337174e-005
-1.097730e-003,3.575467e-005
-1.294477e-003,2.765140e-005
-1.238727e-003,2.181705e-005
-8.251361e-004,1.549650e-005
-6.213279e-005,8.527692e-006
8.728224e-004,1.558884e-006
1.659327e-003,-4.923729e-006
1.989617e-003,-7.678839e-006
1.746032e-003,-5.409925e-006
1.061953e-003,-3.303075e-006
2.000889e-004,-3.627206e-006
-6.408680e-004,-6.706447e-006
-1.420402e-003,-9.299492e-006
-2.197182e-003,-6.382316e-006
-2.988548e-003,1.558884e-006
-3.691428e-003,9.500084e-006
-4.097890e-003,1.290346e-005
-3.997409e-003,1.209313e-005
-3.333424e-003,8.041497e-006
-2.253904e-003,3.989864e-006
-1.019452e-003,6.096713e-006
1.033359e-004,1.225519e-005
9.091251e-004,1.922400e-005
1.309427e-003,2.813760e-005
1.322068e-003,4.013043e-005
1.038615e-003,4.709924e-005
6.016869e-004,4.596478e-005
1.466074e-004,4.191315e-005
-2.556388e-004,4.450619e-005
-5.943552e-004,5.649903e-005
-8.953104e-004,7.481241e-005
-1.196266e-003,9.442231e-005
-1.512779e-003,1.106288e-004
-1.820055e-003,1.174356e-004
-2.057319e-003,1.075496e-004
-2.119876e-003,8.064676e-005
-1.913567e-003,4.450619e-005
-1.422023e-003,1.128280e-005
-7.291935e-004,-1.059601e-005
-1.805102e-005,-1.545797e-005
5.109303e-004,-8.813297e-006
7.647247e-004,-1.520357e-006
7.934103e-004,5.864920e-007
7.347426e-004,-4.761663e-006
7.255049e-004,-1.318906e-005
8.287406e-004,-2.242678e-005
1.024029e-003,-2.907146e-005
1.250759e-003,-3.053005e-005
1.452207e-003,-2.194059e-005
1.595311e-003,-4.113402e-006
1.677640e-003,1.549650e-005
1.707298e-003,3.235129e-005
1.695468e-003,4.499239e-005
1.652034e-003,5.455424e-005
1.585101e-003,6.103685e-005
1.500502e-003,6.881599e-005
1.400832e-003,8.064676e-005
1.286090e-003,9.426025e-005
1.164378e-003,1.046324e-004
1.040398e-003,1.086841e-004
8.934047e-004,1.038221e-004
6.861230e-004,9.215340e-005
4.025085e-004,7.578480e-005
6.541262e-005,5.990240e-005
-2.711970e-004,4.807163e-005
-5.405495e-004,4.029249e-005
-6.833291e-004,3.251336e-005
-6.783050e-004,2.359977e-005
-5.578905e-004,1.436204e-005
-3.805911e-004,8.365628e-006
-1.997262e-004,6.744974e-006
-4.835723e-005,3.179537e-006
6.606088e-005,-4.113402e-006
1.504969e-004,-1.529591e-005
2.119197e-004,-2.971972e-005
2.560015e-004,-4.398147e-005
2.900352e-004,-6.440169e-005
3.230965e-004,-9.308726e-005
3.663680e-004,-1.267968e-004
4.277907e-004,-1.532135e-004
5.070407e-004,-1.643960e-004
5.921251e-004,-1.592099e-004
6.679717e-004,-1.421931e-004
7.365253e-004,-1.201522e-004
8.277682e-004,-9.697682e-005
9.781650e-004,-7.169464e-005
1.212512e-003,-4.446767e-005
1.537615e-003,-1.724069e-005
1.939052e-003,1.112074e-005
2.372093e-003,3.624086e-005
2.769965e-003,5.066468e-005
3.060226e-003,5.277152e-005
3.183559e-003,4.709924e-005
3.112735e-003,3.753739e-005
2.850350e-003,2.716520e-005
2.432381e-003,1.614476e-005
1.907936e-003,8.527692e-006
1.308455e-003,8.851824e-006
6.339379e-004,1.760335e-005
-1.232314e-004,2.878586e-005
-9.562470e-004,3.834771e-005
-1.848255e-003,4.385793e-005
-2.797634e-003,4.693717e-005
-3.827725e-003,5.131293e-005
-4.945012e-003,5.811968e-005
-4.968025e-003,6.622294e-005
-4.967863e-003,7.221937e-005
-4.967863e-003,7.562274e-005
-4.967702e-003,7.821578e-005
-4.967702e-003,8.226741e-005
-4.801096e-003,8.550872e-005
-3.294366e-003,8.534666e-005
-1.909191e-003,8.145709e-005
-7.747338e-004,7.643306e-005
8.712937e-005,6.995045e-005
7.120535e-004,6.298164e-005
1.144444e-003,6.168512e-005
1.417039e-003,6.995045e-005
1.551877e-003,8.631904e-005
1.553498e-003,1.038221e-004
1.418011e-003,1.140322e-004
1.165675e-003,1.138701e-004
8.639088e-004,1.088461e-004
6.101142e-004,1.070634e-004
4.830550e-004,1.085220e-004
5.156302e-004,1.088461e-004
7.002227e-004,1.085220e-004
1.007823e-003,1.043083e-004
1.393215e-003,9.263960e-005
1.779255e-003,7.270556e-005
2.071136e-003,4.790957e-005
2.180044e-003,3.105477e-005
2.058657e-003,3.073064e-005
1.725936e-003,3.980630e-005
1.277014e-003,4.515445e-005
8.893531e-004,4.223728e-005
7.609972e-004,3.526847e-005
1.014306e-003,2.716520e-005
1.620269e-003,2.359977e-005
2.385058e-003,2.959618e-005
3.035754e-003,4.515445e-005
3.340601e-003,6.816773e-005
3.169621e-003,9.523264e-005
2.521842e-003,1.205148e-004
1.520112e-003,1.355869e-004
3.666921e-004,1.409351e-004
-7.026148e-004,1.415833e-004
-1.492683e-003,1.410971e-004
-1.891526e-003,1.388282e-004
-1.877102e-003,1.329939e-004
-1.507755e-003,1.234320e-004
-8.886657e-004,1.086841e-004
-1.472171e-004,8.793970e-005
5.644119e-004,6.379197e-005
1.083670e-003,4.110282e-005
1.269559e-003,2.019640e-005
1.048988e-003,5.286386e-006
4.728449e-004,-1.196226e-006
-2.852967e-004,1.002961e-007
-9.982219e-004,1.072688e-006
-1.482473e-003,-3.789271e-006
-1.647618e-003,-8.165034e-006
-1.499976e-003,-7.516774e-006
-1.112478e-003,-1.034161e-006
-5.932207e-004,8.527692e-006
-6.342930e-005,1.857574e-005
3.321721e-004,2.230324e-005
4.474007e-004,2.100672e-005
2.206712e-004,1.922400e-005
-2.605007e-004,2.035846e-005
-7.972610e-004,2.230324e-005
-1.198048e-003,2.133085e-005
-1.358493e-003,1.274139e-005
-1.277298e-003,1.002961e-007
-1.040683e-003,-1.367526e-005
-7.684133e-004,-2.064406e-005
-5.622663e-004,-2.113026e-005
-4.927402e-004,-1.675450e-005
-5.705316e-004,-1.092015e-005
-7.308142e-004,-7.840905e-006
-8.654904e-004,-9.785687e-006
-8.975793e-004,-9.623623e-006
-8.197880e-004,-7.354708e-006
-6.697155e-004,-8.165034e-006
-4.841508e-004,-1.254080e-005
-2.825416e-004,-1.950961e-005
-5.727082e-005,-2.501983e-005
2.232642e-004,-3.069211e-005
5.841838e-004,-3.847125e-005
1.004420e-003,-4.479180e-005
1.412987e-003,-4.398147e-005
1.700005e-003,-3.377135e-005
1.753001e-003,-1.529591e-005
1.504554e-003,5.124321e-006
9.951819e-004,2.214118e-005
3.563199e-004,3.186510e-005
-2.468872e-004,3.705119e-005
-6.804119e-004,3.867184e-005
-8.815349e-004,3.948217e-005
-8.564147e-004,3.786152e-005
-6.659880e-004,3.380988e-005
-4.108973e-004,3.137890e-005
-2.037778e-004,3.251336e-005
-1.248521e-004,3.575467e-005
-2.042640e-004,4.045456e-005
-4.146248e-004,4.774750e-005
-6.760361e-004,5.698522e-005
-8.893140e-004,6.444023e-005
-9.765051e-004,6.395403e-005
-9.094101e-004,5.568870e-005
-6.998597e-004,4.709924e-005
-3.849668e-004,4.645098e-005
-1.562004e-005,5.649903e-005
3.501614e-004,7.529860e-005
6.533858e-004,9.344992e-005
8.426782e-004,1.010670e-004
8.865979e-004,9.588090e-005
7.934103e-004,8.356393e-005
5.986076e-004,7.043664e-005
3.469201e-004,5.957827e-005
7.367795e-005,5.244739e-005
-1.963229e-004,4.774750e-005
-4.535204e-004,4.693717e-005
-6.826808e-004,5.050261e-005
-8.393979e-004,5.536457e-005
-8.607905e-004,6.055066e-005
-7.209282e-004,6.330577e-005
-4.656753e-004,6.184718e-005
-1.914609e-004,5.633696e-005
1.776542e-005,4.564065e-005
1.308870e-004,3.121684e-005
1.696206e-004,1.419998e-005
1.832341e-004,1.720949e-006
2.219677e-004,-3.951337e-006
3.086727e-004,-3.627206e-006
4.274666e-004,-2.168618e-006
5.318367e-004,-6.058186e-006
5.828873e-004,-1.691656e-005
5.739737e-004,-2.923352e-005
5.323229e-004,-3.944364e-005
4.979650e-004,-5.159854e-005
4.995857e-004,-6.521203e-005
5.384814e-004,-7.493595e-005
5.804563e-004,-7.542214e-005
5.718669e-004,-6.553616e-005
4.793275e-004,-5.240886e-005
3.089968e-004,-4.138842e-005
1.116012e-004,-3.506787e-005
-3.749886e-005,-2.712668e-005
-7.266703e-005,-1.853721e-005
2.862379e-005,-4.275467e-006
2.503292e-004,1.727922e-005
5.477191e-004,3.786152e-005
8.592089e-004,4.904402e-005
1.128238e-003,4.985435e-005
1.321906e-003,4.272347e-005
1.435838e-003,2.878586e-005
1.473437e-003,1.306552e-005
1.435838e-003,3.665733e-006
1.319799e-003,5.610517e-006
1.129696e-003,1.549650e-005
8.833566e-004,2.473422e-005
6.136798e-004,2.684107e-005
3.540510e-004,2.376183e-005
1.164632e-004,1.971020e-005
-1.172350e-004,2.052053e-005
-3.747567e-004,2.586868e-005
-6.778188e-004,3.154097e-005
-1.030473e-003,3.380988e-005
-1.408895e-003,3.364782e-005
-1.738212e-003,3.510640e-005
-1.917294e-003,3.656499e-005
-1.872078e-003,3.672705e-005
-1.590733e-003,3.721326e-005
-1.127874e-003,4.110282e-005
-5.988930e-004,4.742337e-005
-1.451102e-004,5.617490e-005
1.185700e-004,6.622294e-005
1.488763e-004,7.367795e-005
-1.318906e-005,7.432621e-005
-2.590421e-004,7.189524e-005
-4.471999e-004,6.508849e-005
-4.604893e-004,5.585077e-005
-2.502906e-004,4.839576e-005
1.556830e-004,4.337174e-005
6.329655e-004,4.272347e-005
1.001826e-003,4.888196e-005
1.133586e-003,5.860587e-005
9.903199e-004,6.800567e-005
6.018489e-004,7.546067e-005
6.200925e-005,7.902610e-005
-4.852852e-004,7.983643e-005
-8.949863e-004,7.546067e-005
-1.065965e-003,6.832980e-005
-9.765051e-004,6.233338e-005
-6.917564e-004,6.006446e-005
-3.298646e-004,5.957827e-005
1.072688e-006,5.876794e-005
2.454672e-004,5.682316e-005
3.900295e-004,5.487837e-005
4.535591e-004,5.244739e-005
4.734932e-004,4.985435e-005
4.918065e-004,4.936815e-005
5.289195e-004,5.098881e-005
5.668428e-004,4.904402e-005
5.402641e-004,4.126489e-005
3.598853e-004,3.235129e-005
-4.106429e-005,2.570661e-005
-6.347094e-004,2.570661e-005
-1.299177e-003,3.235129e-005
-1.890392e-003,4.353380e-005
-2.293124e-003,5.082674e-005
-2.429097e-003,5.050261e-005
-2.246936e-003,4.564065e-005
-1.750205e-003,4.337174e-005
-1.017670e-003,4.628891e-005
-1.947022e-004,5.001641e-005
5.655463e-004,4.564065e-005
1.184636e-003,2.684107e-005
1.672292e-003,1.558884e-006
2.073729e-003,-1.691656e-005
2.402885e-003,-2.048200e-005
2.623457e-003,-7.354708e-006
2.697197e-003,1.727922e-005
2.616488e-003,3.948217e-005
2.406127e-003,4.969228e-005
2.109384e-003,4.612685e-005
1.776500e-003,3.543053e-005
1.431300e-003,2.522042e-005
1.064384e-003,1.792748e-005
6.624614e-004,7.717366e-006
2.344468e-004,-1.043395e-005
-1.937298e-004,-3.328516e-005
-6.035930e-004,-4.949169e-005
-1.003408e-003,-5.046408e-005
-1.389123e-003,-3.571614e-005
-1.712444e-003,-9.947754e-006
-1.902222e-003,2.035846e-005
-1.925722e-003,5.277152e-005
-1.804011e-003,7.999850e-005
-1.577929e-003,9.507057e-005
-1.276002e-003,9.523264e-005
-9.043860e-004,8.437427e-005
-4.762096e-004,6.751947e-005
-3.134038e-005,4.855782e-005
3.668542e-004,3.445814e-005
6.389620e-004,2.489629e-005
7.029778e-004,2.052053e-005
5.172509e-004,1.695509e-005
1.316973e-004,1.031041e-005
-3.159270e-004,4.151929e-006
-6.625847e-004,5.864920e-007
-8.061745e-004,-1.358292e-006
-7.407001e-004,7.485573e-007
-5.324463e-004,1.047248e-005
-2.733039e-004,2.570661e-005
-3.263690e-005,3.964423e-005
1.665414e-004,4.742337e-005
3.362238e-004,4.855782e-005
4.909962e-004,3.964423e-005
6.242140e-004,2.554455e-005
7.180499e-004,1.225519e-005
7.569456e-004,6.744974e-006
7.272876e-004,1.014835e-005
6.292380e-004,1.533444e-005
4.851619e-004,1.711715e-005
3.478925e-004,1.290346e-005
2.867939e-004,3.503668e-006
3.670162e-004,-8.327101e-006
6.423653e-004,-1.821308e-005
1.116731e-003,-2.323711e-005
1.698709e-003,-1.659243e-005
2.218778e-003,2.045080e-006
2.492670e-003,2.732727e-005
2.380196e-003,5.098881e-005
1.841651e-003,6.946425e-005
9.796235e-004,8.080882e-005
4.244267e-007,8.923622e-005
-8.731075e-004,9.571883e-005
-1.480690e-003,9.896014e-005
-1.732864e-003,9.750155e-005
-1.601753e-003,9.231547e-005
-1.119447e-003,8.583285e-005
-3.807532e-004,8.113296e-005
4.532350e-004,7.967437e-005
1.189174e-003,8.080882e-005
1.681854e-003,8.356393e-005
1.860937e-003,8.680524e-005
1.699195e-003,8.875003e-005
1.179612e-003,8.842590e-005
2.942489e-004,8.356393e-005
-8.688938e-004,7.756751e-005
-2.096053e-003,7.416414e-005
-3.164551e-003,7.351588e-005
-3.923506e-003,7.189524e-005
-4.306955e-003,6.622294e-005
-4.307442e-003,5.893001e-005
-3.949923e-003,4.807163e-005
-3.285452e-003,4.029249e-005
-2.405598e-003,3.413401e-005
-1.452977e-003,2.651694e-005
-5.925724e-004,1.436204e-005
3.996836e-005,-1.196226e-006
3.846813e-004,-1.270286e-005
4.780310e-004,-1.545797e-005
4.271425e-004,-7.840905e-006
3.464339e-004,8.527692e-006
3.127243e-004,2.992031e-005
3.503235e-004,4.726130e-005
4.477248e-004,5.714729e-005
5.684635e-004,5.893001e-005
6.708889e-004,5.487837e-005
7.349047e-004,4.709924e-005
7.618075e-004,4.272347e-005
7.755831e-004,4.434413e-005
8.373301e-004,5.260946e-005
1.017061e-003,6.249544e-005
1.358209e-003,6.978838e-005
1.856399e-003,7.059870e-005
2.444050e-003,6.265751e-005
2.991510e-003,4.985435e-005
3.344005e-003,3.397195e-005
3.351298e-003,2.052053e-005
2.913394e-003,1.095867e-005
2.026244e-003,4.962256e-006
7.950310e-004,2.693341e-006
-5.833348e-004,3.989864e-006
-1.805793e-003,4.476060e-006
-2.629248e-003,2.855406e-006
-2.955648e-003,-2.978945e-006
-2.858733e-003,-1.805102e-005
-2.529254e-003,-4.398147e-005
-2.154558e-003,-7.752898e-005
-1.830103e-003,-1.075111e-004
-1.557833e-003,-1.216107e-004
-1.306632e-003,-1.152902e-004
-1.062076e-003,-9.762508e-005
-8.434496e-004,-7.688072e-005
-6.831670e-004,-5.467778e-005
-6.084549e-004,-3.474375e-005
-6.334129e-004,-1.902341e-005
-7.640375e-004,-7.516774e-006
-9.756948e-004,5.286386e-006
-1.181518e-003,2.408596e-005
-1.255906e-003,4.547859e-005
-1.103240e-003,6.589881e-005
-7.031010e-004,8.372600e-005
-1.261486e-004,9.896014e-005
5.096338e-004,1.090082e-004
1.100686e-003,1.111150e-004
1.580077e-003,1.081979e-004
1.907936e-003,1.013911e-004
2.069029e-003,9.199134e-005
2.074864e-003,7.837785e-005
1.959311e-003,6.330577e-005
1.759159e-003,4.888196e-005
1.507795e-003,3.850977e-005
1.235039e-003,2.943412e-005
9.741134e-004,2.489629e-005
7.661833e-004,2.489629e-005
6.759128e-004,2.975825e-005
7.637523e-004,3.656499e-005
1.043315e-003,4.013043e-005
1.448155e-003,3.948217e-005
1.814748e-003,3.818564e-005
1.942132e-003,3.850977e-005
1.709405e-003,4.207521e-005
1.147686e-003,4.904402e-005
4.311941e-004,6.087479e-005
-2.019951e-004,7.481241e-005
-5.752315e-004,9.037068e-005
-6.591813e-004,1.041462e-004
-5.467080e-004,1.122495e-004
-3.899909e-004,1.101426e-004
-3.078238e-004,9.134307e-005
-3.421816e-004,6.006446e-005
-4.648650e-004,2.424803e-005
-6.215821e-004,-4.113402e-006
-7.640375e-004,-1.772689e-005
-8.491218e-004,-2.113026e-005
-8.398841e-004,-1.740276e-005
-7.107180e-004,-1.075808e-005
-4.454172e-004,-2.654814e-006
-4.868136e-005,4.962256e-006
4.381629e-004,1.014835e-005
9.527207e-004,1.209313e-005
1.423845e-003,1.193106e-005
1.788493e-003,1.241726e-005
2.013278e-003,1.371378e-005
2.106466e-003,1.419998e-005
2.099011e-003,1.582063e-005
2.013765e-003,2.052053e-005
1.848782e-003,3.267542e-005
1.586883e-003,4.742337e-005
1.218670e-003,5.666109e-005
7.490044e-004,5.390598e-005
1.752929e-004,3.802358e-005
-5.238568e-004,1.695509e-005
-1.371620e-003,-4.275467e-006
-2.340447e-003,-1.918548e-005
-3.298742e-003,-2.129233e-005
-4.045542e-003,-7.840905e-006
-4.393013e-003,1.663096e-005
-4.244073e-003,4.077869e-005
-3.612502e-003,5.309565e-005
-2.613042e-003,4.742337e-005
-1.412137e-003,2.959618e-005
-1.934057e-004,7.717366e-006
8.347370e-004,-1.010982e-005
1.495316e-003,-1.772689e-005
1.733877e-003,-1.254080e-005
1.620755e-003,1.396819e-006
1.304889e-003,2.003433e-005
9.592033e-004,3.753739e-005
7.259911e-004,5.082674e-005
6.909849e-004,5.779555e-005
8.720121e-004,6.006446e-005
1.207326e-003,6.071273e-005
1.570191e-003,6.476436e-005
1.816693e-003,7.238143e-005
1.823824e-003,7.821578e-005
1.538264e-003,7.367795e-005
1.010902e-003,5.455424e-005
3.801435e-004,2.684107e-005
-2.036158e-004,-1.196226e-006
-6.749016e-004,-1.886135e-005
-1.072448e-003,-2.226472e-005
-1.443739e-003,-1.059601e-005
-1.758308e-003,9.013888e-006
-1.919563e-003,2.959618e-005
-1.837720e-003,4.969228e-005
-1.486201e-003,6.865393e-005
-9.453886e-004,8.226741e-005
-4.219177e-004,8.680524e-005
-1.574272e-004,8.372600e-005
-2.742762e-004,7.659513e-005
-7.003458e-004,6.995045e-005
-1.224789e-003,6.184718e-005
-1.598350e-003,5.536457e-005
-1.634976e-003,4.726130e-005
-1.253637e-003,3.624086e-005
-5.008435e-004,1.825161e-005
4.323286e-004,-5.409925e-006
1.279607e-003,-2.858526e-005
1.826741e-003,-4.171255e-005
1.969035e-003,-4.009190e-005
1.711836e-003,-2.826113e-005
1.162595e-003,-1.464765e-005
4.849998e-004,-3.303075e-006
-1.652063e-004,3.503668e-006
-6.864083e-004,5.772582e-006
-1.046193e-003,-7.100305e-007
-1.257364e-003,-1.529591e-005
-1.338883e-003,-2.907146e-005
-1.295288e-003,-3.685059e-005
-1.128198e-003,-3.830918e-005
-8.724592e-004,-3.458168e-005
-5.969482e-004,-2.437157e-005
-3.598467e-004,-7.516774e-006
-1.643960e-004,1.371378e-005
3.494434e-005,3.494434e-005
2.884145e-004,5.633696e-005
6.024972e-004,7.643306e-005
9.298695e-004,9.620503e-005
1.202140e-003,1.153287e-004
1.370039e-003,1.289422e-004
1.419145e-003,1.354248e-004
1.373443e-003,1.386661e-004
1.286900e-003,1.401247e-004
1.226125e-003,1.417454e-004
1.234066e-003,1.406109e-004
1.306024e-003,1.320215e-004
1.401966e-003,1.153287e-004
1.471817e-003,9.426025e-005
1.479110e-003,7.205730e-005
1.399211e-003,5.244739e-005
1.223370e-003,4.207521e-005
9.428347e-004,3.980630e-005
5.496639e-004,3.769945e-005
4.920609e-005,3.040651e-005
-5.313118e-004,1.938607e-005
-1.130305e-003,7.879431e-006
-1.679382e-003,-2.330684e-006
-2.143052e-003,-8.651231e-006
-2.519530e-003,-1.075808e-005
-2.825185e-003,-1.027188e-005
-3.059047e-003,-1.254080e-005
-3.163417e-003,-1.707863e-005
-3.047378e-003,-1.950961e-005
-2.640755e-003,-1.448558e-005
-1.940308e-003,-2.978945e-006
-1.023180e-003,1.014835e-005
-3.053005e-005,1.971020e-005
8.840049e-004,2.262737e-005
1.609411e-003,2.214118e-005
2.100956e-003,2.246531e-005
2.359776e-003,2.424803e-005
2.421199e-003,2.667901e-005
2.335952e-003,3.235129e-005
2.155897e-003,4.304760e-005
1.920415e-003,5.487837e-005
1.671806e-003,6.249544e-005
1.442483e-003,6.298164e-005
1.216401e-003,6.087479e-005
9.274384e-004,5.763348e-005
5.287575e-004,5.439218e-005
4.726130e-005,5.115087e-005
-4.394208e-004,4.304760e-005
-8.547941e-004,3.073064e-005
-1.133384e-003,1.792748e-005
-1.228679e-003,9.013888e-006
-1.105833e-003,7.879431e-006
-7.656582e-004,1.582063e-005
-2.707108e-004,3.429608e-005
2.793389e-004,5.925414e-005
7.754210e-004,8.145709e-005
1.146065e-003,8.858796e-005
1.374739e-003,7.870197e-005
1.475058e-003,5.504044e-005
1.461282e-003,2.603075e-005
1.327740e-003,-3.858999e-007
1.063574e-003,-1.950961e-005
6.801265e-004,-2.988179e-005
2.268297e-004,-3.053005e-005
-2.246843e-004,-2.258885e-005
-6.191512e-004,-8.002969e-006
-9.298303e-004,1.063454e-005
-1.151536e-003,2.878586e-005
-1.291398e-003,4.013043e-005
-1.352497e-003,4.029249e-005
-1.339693e-003,2.684107e-005
-1.262388e-003,7.231170e-006
-1.139219e-003,-1.010982e-005
-9.982219e-004,-2.015787e-005
-8.669490e-004,-2.323711e-005
-7.658203e-004,-2.064406e-005
-7.011562e-004,-1.772689e-005
-6.608019e-004,-1.967167e-005
-6.066721e-004,-2.356124e-005
-4.890127e-004,-2.583015e-005
-2.724935e-004,-2.339917e-005
3.932010e-005,-1.383732e-005
4.007258e-004,3.989864e-006
7.485182e-004,2.295151e-005
1.021274e-003,3.721326e-005
1.177506e-003,5.050261e-005
1.206677e-003,6.460230e-005
1.124834e-003,7.983643e-005
9.733030e-004,9.150514e-005
8.060514e-004,9.539470e-005
6.772094e-004,9.312579e-005
6.086557e-004,8.648111e-005
5.845079e-004,7.643306e-005
5.614947e-004,6.897806e-005
4.984512e-004,6.800567e-005
3.825745e-004,6.865393e-005
2.359053e-004,6.832980e-005
7.497447e-005,6.865393e-005
-1.041077e-004,7.092283e-005
-3.262992e-004,7.724339e-005
-6.196374e-004,8.793970e-005
-9.906049e-004,9.814982e-005
-1.390582e-003,1.030118e-004
-1.711309e-003,9.604297e-005
-1.830265e-003,7.691926e-005
-1.690889e-003,5.730935e-005
-1.342773e-003,4.677511e-005
-9.217270e-004,4.515445e-005
-5.603214e-004,4.920609e-005
-3.141443e-004,5.455424e-005
-1.384655e-004,5.860587e-005
9.182927e-005,6.314371e-005
5.151440e-004,6.881599e-005
1.159840e-003,7.254349e-005
1.862881e-003,7.546067e-005
2.355238e-003,7.416414e-005
2.426709e-003,6.573675e-005
2.033537e-003,5.034054e-005
1.314775e-003,3.283749e-005
5.216266e-004,1.630683e-005
-1.110765e-004,2.531276e-006
-4.515757e-004,-4.113402e-006
-4.967919e-004,-6.058186e-006
-3.347266e-004,-3.789271e-006
-9.551824e-005,1.234753e-006
1.088461e-004,8.527692e-006
2.064095e-004,1.776542e-005
1.827479e-004,2.684107e-005
8.631904e-005,3.348575e-005
1.727922e-005,3.526847e-005
6.395403e-005,2.829966e-005
2.383363e-004,1.744128e-005
4.683071e-004,1.274139e-005
6.452825e-004,1.646889e-005
6.843403e-004,2.473422e-005
5.610085e-004,3.040651e-005
3.098072e-004,3.202716e-005
-9.137427e-006,3.170303e-005
-3.331059e-004,3.251336e-005
-6.091031e-004,3.478227e-005
-7.975851e-004,3.705119e-005
-8.727834e-004,3.915804e-005
-8.359945e-004,4.191315e-005
-7.334072e-004,4.612685e-005
-6.330888e-004,5.001641e-005
-5.820383e-004,4.985435e-005
-5.935449e-004,4.191315e-005
-6.595054e-004,2.748933e-005
-7.633893e-004,1.338965e-005
-9.022792e-004,6.744974e-006
-1.068234e-003,8.851824e-006
-1.218469e-003,1.306552e-005
-1.282971e-003,1.371378e-005
-1.201290e-003,9.500084e-006
-9.557608e-004,2.045080e-006
-5.677765e-004,-6.382316e-006
-7.509801e-005,-1.010982e-005
4.773827e-004,-6.868512e-006
1.038453e-003,2.045080e-006
1.548150e-003,9.986280e-006
1.934028e-003,1.176900e-005
2.142607e-003,1.031041e-005
2.146983e-003,9.338019e-006
1.951207e-003,9.662150e-006
1.582832e-003,7.717366e-006
1.070704e-003,4.244267e-007
4.415663e-004,-1.140634e-005
-2.515871e-004,-2.048200e-005
-9.189720e-004,-1.821308e-005
-1.446819e-003,-6.544382e-006
-1.727516e-003,4.638125e-006
-1.681813e-003,7.717366e-006
-1.268223e-003,-2.654814e-006
-5.131605e-004,-2.453363e-005
4.297355e-004,-4.884343e-005
1.285927e-003,-6.634648e-005
1.787521e-003,-7.396355e-005
1.814262e-003,-7.023605e-005
1.385922e-003,-5.483985e-005
6.086557e-004,-2.680255e-005
-3.470436e-004,7.231170e-006
-1.271140e-003,3.543053e-005
-1.972559e-003,4.839576e-005
-2.319379e-003,4.385793e-005
-2.273352e-003,3.283749e-005
-1.885206e-003,2.311357e-005
-1.271788e-003,1.954813e-005
-5.611319e-004,2.116879e-005
1.457970e-004,2.327564e-005
7.830382e-004,2.116879e-005
1.309427e-003,1.646889e-005
1.696764e-003,1.646889e-005
1.929815e-003,2.619281e-005
2.004851e-003,4.547859e-005
1.936621e-003,6.670914e-005
1.750894e-003,8.210535e-005
1.464362e-003,8.858796e-005
1.084480e-003,8.907416e-005
6.148142e-004,8.826383e-005
6.492643e-005,8.648111e-005
-5.232086e-004,8.388807e-005
-1.094327e-003,7.789165e-005
-1.611153e-003,6.638501e-005
-2.071905e-003,5.017848e-005
-2.487279e-003,3.915804e-005
-2.818865e-003,3.624086e-005
-2.972665e-003,4.191315e-005
-2.855654e-003,5.568870e-005
-2.426990e-003,7.432621e-005
-1.729461e-003,9.377405e-005
-8.742419e-004,1.130598e-004
-1.562004e-005,1.302387e-004
7.139983e-004,1.448246e-004
1.260159e-003,1.527658e-004
1.653492e-003,1.470936e-004
1.966766e-003,1.257009e-004
2.269343e-003,9.426025e-005
2.562520e-003,6.379197e-005
2.763320e-003,4.272347e-005
2.753921e-003,3.089270e-005
2.456043e-003,2.214118e-005
1.874874e-003,1.144487e-005
1.085452e-003,4.962256e-006
2.047888e-004,6.907039e-006
-6.185029e-004,1.695509e-005
-1.241968e-003,3.380988e-005
-1.573392e-003,5.520250e-005
-1.606129e-003,7.578480e-005
-1.411975e-003,8.858796e-005
-1.099837e-003,8.923622e-005
-7.711684e-004,7.853991e-005
-4.886886e-004,6.103685e-005
-2.736280e-004,4.742337e-005
-1.096179e-004,4.531652e-005
2.894792e-005,5.017848e-005
1.634621e-004,5.504044e-005
2.963557e-004,5.082674e-005
4.206599e-004,3.672705e-005
5.289195e-004,1.322759e-005
6.379896e-004,-1.335112e-005
7.765555e-004,-3.749886e-005
9.763822e-004,-5.111234e-005
1.257890e-003,-5.143647e-005
1.596121e-003,-3.830918e-005
1.901129e-003,-2.064406e-005
2.061574e-003,-7.516774e-006
2.007930e-003,-8.002969e-006
1.743439e-003,-2.145439e-005
1.312020e-003,-3.895744e-005
7.760693e-004,-5.257093e-005
2.060853e-004,-5.791909e-005
-3.313232e-004,-5.565017e-005
-7.765166e-004,-4.738484e-005
-1.080389e-003,-3.636440e-005
-1.208583e-003,-2.550602e-005
-1.151374e-003,-1.659243e-005
-9.306406e-004,-1.189254e-005
-6.029447e-004,-8.813297e-006
-2.475355e-004,-5.571990e-006
6.768153e-005,-1.196226e-006
2.987867e-004,3.503668e-006
4.334631e-004,6.744974e-006
4.835412e-004,1.031041e-005
4.692795e-004,1.663096e-005
4.179047e-004,2.716520e-005
3.577785e-004,3.850977e-005
3.017039e-004,4.531652e-005
2.444948e-004,4.596478e-005
1.803169e-004,4.191315e-005
1.187321e-004,4.094075e-005
7.400208e-005,4.726130e-005
4.531652e-005,6.055066e-005
1.808955e-005,7.367795e-005
-3.587821e-005,8.518459e-005
-1.622891e-004,9.280166e-005
-4.032802e-004,9.782569e-005
-7.400519e-004,9.928427e-005
-1.077310e-003,9.652916e-005
-1.300798e-003,8.777764e-005
-1.344069e-003,7.416414e-005
-1.221872e-003,5.941620e-005
-1.013132e-003,4.871989e-005
-8.074710e-004,4.661304e-005
-6.586951e-004,5.617490e-005
-5.781486e-004,7.351588e-005
-5.483286e-004,8.761556e-005
-5.415219e-004,9.393611e-005
-5.324463e-004,9.377405e-005
-5.021400e-004,9.166720e-005
-4.468758e-004,8.939829e-005
-3.783222e-004,8.469840e-005
-3.190063e-004,7.627100e-005
-2.890242e-004,6.751947e-005
-2.943724e-004,6.217131e-005
-3.250027e-004,5.909207e-005
-3.549847e-004,5.666109e-005
-3.395886e-004,5.487837e-005
-2.352185e-004,5.423011e-005
-3.701266e-005,5.374392e-005
2.132162e-004,5.017848e-005
4.441593e-004,3.753739e-005
5.968249e-004,1.338965e-005
6.553305e-004,-1.205460e-005
6.430136e-004,-2.793700e-005
5.918010e-004,-2.907146e-005
5.190336e-004,-1.529591e-005
4.157979e-004,6.907039e-006
2.735045e-004,2.635488e-005
7.740545e-005,3.802358e-005
-1.783336e-004,4.094075e-005
-4.810716e-004,3.737532e-005
-7.940196e-004,3.105477e-005
-1.062724e-003,2.359977e-005
-1.227058e-003,1.565857e-005
-1.235323e-003,1.176900e-005
-1.064345e-003,1.630683e-005
-7.240074e-004,2.862379e-005
-2.595283e-004,4.790957e-005
2.538946e-004,7.173317e-005
7.370115e-004,9.490851e-005
1.117055e-003,1.150046e-004
1.356264e-003,1.273216e-004
1.465010e-003,1.318594e-004
1.485917e-003,1.307249e-004
1.454476e-003,1.273216e-004
1.378629e-003,1.234320e-004
1.265345e-003,1.161391e-004
1.136179e-003,1.064151e-004
1.028405e-003,9.539470e-005
9.755719e-004,8.534666e-005
9.961543e-004,7.578480e-005
1.081887e-003,6.476436e-005
1.183502e-003,5.212327e-005
1.218994e-003,3.948217e-005
1.125645e-003,2.846173e-005
8.937289e-004,1.922400e-005
5.598741e-004,1.160693e-005
1.987924e-004,4.476060e-006
-1.060525e-004,-1.043395e-005
-3.039342e-004,-3.928157e-005
-3.864254e-004,-8.044616e-005
-3.591985e-004,-1.240417e-004
-2.170672e-004,-1.575892e-004
6.379197e-005,-1.742820e-004
5.391297e-004,-1.794681e-004
1.237308e-003,-1.820611e-004
2.047150e-003,-1.861127e-004
2.705138e-003,-1.865989e-004
2.882763e-003,-1.744440e-004
2.357020e-003,-1.460826e-004
1.197116e-003,-1.060525e-004
-2.357047e-004,-6.310517e-005
-1.476963e-003,-2.826113e-005
-2.248556e-003,-5.247859e-006
-2.524392e-003,7.069104e-006
-2.478851e-003,8.689757e-006
-2.350820e-003,5.772582e-006
-2.320513e-003,5.124321e-006
-2.462320e-003,9.175954e-006
-2.772028e-003,2.052053e-005
-3.209281e-003,3.802358e-005
-3.701152e-003,5.455424e-005
-4.106641e-003,6.281957e-005
-4.236943e-003,5.957827e-005
-3.971478e-003,4.677511e-005
-3.362758e-003,3.040651e-005
-2.602994e-003,2.084466e-005
-1.874833e-003,2.019640e-005
-1.244237e-003,2.586868e-005
-6.987252e-004,3.672705e-005
-2.162569e-004,5.390598e-005
1.855030e-004,7.562274e-005
4.602038e-004,9.750155e-005
5.812666e-004,1.130598e-004
5.754323e-004,1.169494e-004
5.177370e-004,1.101426e-004
4.738173e-004,9.798775e-005
4.841895e-004,8.664317e-005
5.671670e-004,7.675719e-005
7.141603e-004,6.962632e-005
8.929185e-004,6.622294e-005
1.060170e-003,6.411610e-005
1.192902e-003,6.233338e-005
1.287062e-003,6.281957e-005
1.361774e-003,7.140904e-005
1.446859e-003,8.988448e-005
1.570677e-003,1.130598e-004
1.723019e-003,1.315353e-004
1.851699e-003,1.415833e-004
1.882167e-003,1.440143e-004
1.743439e-003,1.401247e-004
1.399373e-003,1.297525e-004
8.865979e-004,1.116012e-004
3.122381e-004,8.696730e-005
-1.976194e-004,5.909207e-005
-5.475183e-004,3.526847e-005
-6.920805e-004,1.857574e-005
-6.291992e-004,8.203561e-006
-3.943666e-004,5.286386e-006
-6.018800e-005,1.031041e-005
2.945730e-004,2.068259e-005
6.248623e-004,3.089270e-005
9.460760e-004,3.834771e-005
1.302296e-003,4.337174e-005
1.691254e-003,4.531652e-005
2.003068e-003,4.223728e-005
2.064653e-003,3.834771e-005
1.750246e-003,3.672705e-005
1.071029e-003,4.013043e-005
1.900409e-004,4.418206e-005
-6.530228e-004,4.790957e-005
-1.259147e-003,5.115087e-005
-1.528986e-003,5.244739e-005
-1.431422e-003,5.098881e-005
-9.776396e-004,4.823369e-005
-2.357047e-004,4.418206e-005
6.368551e-004,3.688912e-005
1.401642e-003,2.975825e-005
1.846189e-003,2.522042e-005
1.887191e-003,1.825161e-005
1.600011e-003,8.041497e-006
1.162271e-003,-1.844488e-006
7.835244e-004,-1.043395e-005
6.183797e-004,-1.691656e-005
7.271255e-004,-1.918548e-005
1.063249e-003,-1.594417e-005
1.496289e-003,-1.173047e-005
1.860450e-003,-1.075808e-005
2.016682e-003,-1.189254e-005
1.886219e-003,-1.351319e-005
1.447183e-003,-1.237873e-005
7.507871e-004,-9.137427e-006
-6.602235e-005,-3.789271e-006
-8.324290e-004,2.207145e-006
-1.410192e-003,7.555300e-006
-1.714551e-003,1.436204e-005
-1.713578e-003,2.522042e-005
-1.416188e-003,3.575467e-005
-8.718109e-004,4.223728e-005
-1.963229e-004,3.915804e-005
4.337872e-004,2.619281e-005
8.190167e-004,1.047248e-005
8.073479e-004,7.485573e-007
3.645853e-004,7.485573e-007
-3.771877e-004,8.041497e-006
-1.165635e-003,1.971020e-005
-1.760415e-003,3.040651e-005
-2.024096e-003,3.575467e-005
-1.953759e-003,3.364782e-005
-1.646645e-003,2.846173e-005
-1.248451e-003,2.667901e-005
-8.909347e-004,3.332369e-005
-6.543194e-004,4.515445e-005
-5.431426e-004,5.714729e-005
-4.951712e-004,6.606088e-005
-4.311554e-004,6.751947e-005
-3.027998e-004,6.233338e-005
-9.924574e-005,5.212327e-005
1.675138e-004,4.094075e-005
4.718725e-004,3.380988e-005
7.708832e-004,3.235129e-005
1.016736e-003,3.397195e-005
1.178316e-003,3.510640e-005
1.256918e-003,3.753739e-005
1.272152e-003,4.677511e-005
1.248815e-003,6.460230e-005
1.196629e-003,8.469840e-005
1.102469e-003,9.701536e-005
9.344073e-004,9.571883e-005
6.648924e-004,8.421220e-005
2.965178e-004,6.881599e-005
-1.269589e-004,5.504044e-005
-5.377944e-004,4.936815e-005
-8.667869e-004,5.325772e-005
-1.065803e-003,6.541262e-005
-1.118636e-003,8.080882e-005
-1.041655e-003,9.458438e-005
-8.732696e-004,1.004187e-004
-6.664742e-004,9.766362e-005
-4.760475e-004,8.923622e-005
-3.374817e-004,8.323980e-005
-2.554767e-004,7.983643e-005
-2.280877e-004,7.594687e-005
-2.778417e-004,7.011251e-005
-4.525481e-004,6.379197e-005
-7.909404e-004,5.763348e-005
-1.291884e-003,5.536457e-005
-1.877102e-003,5.828174e-005
-2.392308e-003,6.022653e-005
-2.659230e-003,5.504044e-005
-2.562477e-003,4.320967e-005
-2.095404e-003,2.700314e-005
-1.341962e-003,8.365628e-006
-4.554653e-004,-8.327101e-006
3.653956e-004,-2.096819e-005
9.415381e-004,-2.518189e-005
1.192091e-003,-1.967167e-005
1.144606e-003,-1.010982e-005
8.985908e-004,-5.896120e-006
5.856425e-004,-9.785687e-006
3.255275e-004,-1.707863e-005
1.848548e-004,-2.145439e-005
1.482280e-004,-2.096819e-005
1.532520e-004,-1.594417e-005
1.521176e-004,-7.516774e-006
1.394765e-004,2.369210e-006
1.419075e-004,1.241726e-005
1.884202e-004,2.052053e-005
2.890628e-004,2.246531e-005
4.499937e-004,1.727922e-005
6.729957e-004,8.041497e-006
9.131767e-004,5.864920e-007
1.065680e-003,-5.409925e-006
1.038615e-003,-1.432352e-005
8.248510e-004,-2.696461e-005
4.717104e-004,-3.814712e-005
2.748933e-005,-4.381940e-005
-4.540066e-004,-3.944364e-005
-9.134617e-004,-3.101624e-005
-1.283781e-003,-2.210265e-005
-1.481176e-003,-1.788895e-005
-1.433205e-003,-2.015787e-005
-1.121229e-003,-2.583015e-005
-5.987309e-004,-2.939559e-005
2.295151e-005,-2.842320e-005
6.041179e-004,-2.356124e-005
1.040236e-003,-1.675450e-005
1.298244e-003,-9.461557e-006
1.403911e-003,-2.492749e-006
1.403425e-003,7.069104e-006
1.346702e-003,1.776542e-005
1.266156e-003,2.684107e-005
1.165188e-003,3.202716e-005
1.038939e-003,3.251336e-005
8.942151e-004,2.992031e-005
7.532181e-004,2.635488e-005
6.464170e-004,2.473422e-005
6.007145e-004,2.732727e-005
6.308586e-004,3.235129e-005
7.297186e-004,3.656499e-005
8.468920e-004,3.769945e-005
9.031286e-004,3.769945e-005
8.350611e-004,3.753739e-005
6.349103e-004,3.786152e-005
3.438409e-004,4.337174e-005
2.457216e-005,5.617490e-005
-2.750866e-004,7.027457e-005
-5.387668e-004,7.432621e-005
-7.666306e-004,6.751947e-005
-9.531677e-004,5.552663e-005
-1.084603e-003,4.466826e-005
-1.151536e-003,3.932010e-005
-1.144567e-003,3.932010e-005
-1.058996e-003,3.948217e-005
-8.998482e-004,3.721326e-005
-6.930529e-004,3.121684e-005
-4.932265e-004,2.570661e-005
-3.716775e-004,2.522042e-005
-3.865875e-004,3.121684e-005
-5.541630e-004,4.045456e-005
-8.191397e-004,5.228533e-005
-1.050731e-003,6.168512e-005
-1.116043e-003,6.703327e-005
-9.538160e-004,7.027457e-005
-6.021343e-004,7.481241e-005
-1.684476e-004,8.064676e-005
2.407673e-004,8.340186e-005
5.567948e-004,8.032263e-005
7.697488e-004,7.205730e-005
9.099354e-004,6.314371e-005
1.009444e-003,5.747142e-005
1.079618e-003,5.666109e-005
1.107655e-003,5.795762e-005
1.075566e-003,6.168512e-005
9.794615e-004,6.735740e-005
8.348991e-004,7.076077e-005
6.681337e-004,6.962632e-005
4.950479e-004,6.200925e-005
3.094830e-004,4.790957e-005
9.928427e-005,3.202716e-005
-1.370070e-004,1.792748e-005
-3.807532e-004,7.879431e-006
-5.932207e-004,3.665733e-006
-7.291935e-004,4.476060e-006
-7.573929e-004,3.989864e-006
-6.680949e-004,3.017472e-006
-4.833405e-004,3.665733e-006
-2.439700e-004,7.069104e-006
3.503668e-006,1.306552e-005
2.221298e-004,2.035846e-005
3.885709e-004,2.846173e-005
4.945617e-004,3.559260e-005
5.323229e-004,3.948217e-005
5.093096e-004,4.029249e-005
4.475627e-004,3.413401e-005
3.759298e-004,2.441009e-005
3.230965e-004,1.922400e-005
2.989488e-004,2.084466e-005
2.994350e-004,2.732727e-005
3.030004e-004,3.380988e-005
2.947351e-004,3.883391e-005
2.814457e-004,4.304760e-005
2.756114e-004,4.709924e-005
2.778803e-004,5.034054e-005
2.738286e-004,5.147500e-005
2.522740e-004,5.520250e-005
2.213195e-004,6.638501e-005
2.090025e-004,8.194328e-005
2.394708e-004,9.685329e-005
3.119140e-004,1.051186e-004
4.028327e-004,1.013911e-004
4.736553e-004,8.875003e-005
4.932652e-004,7.643306e-005
4.524247e-004,7.221937e-005
3.581026e-004,7.481241e-005
2.135403e-004,7.691926e-005
1.565857e-005,7.157111e-005
-2.434839e-004,6.136099e-005
-5.646973e-004,4.969228e-005
-9.038998e-004,3.996836e-005
-1.166284e-003,3.818564e-005
-1.261578e-003,4.531652e-005
-1.147160e-003,5.974033e-005
-8.509045e-004,7.027457e-005
-4.681063e-004,7.059870e-005
-1.032974e-004,5.957827e-005
1.741585e-004,4.353380e-005
3.503235e-004,2.311357e-005
4.498316e-004,1.072688e-006
5.102821e-004,-1.934754e-005
5.712186e-004,-3.263690e-005
6.528996e-004,-3.782299e-005
7.425218e-004,-3.539201e-005
7.987585e-004,-2.534396e-005
7.515974e-004,-1.221667e-005
5.290816e-004,-2.654814e-006
9.766362e-005,-2.330684e-006
-4.822060e-004,-1.092015e-005
-1.071961e-003,-2.356124e-005
-1.522017e-003,-3.604027e-005
-1.742588e-003,-4.544005e-005
-1.734647e-003,-4.803310e-005
-1.552485e-003,-4.138842e-005
-1.258661e-003,-2.485776e-005
-9.019551e-004,-3.141010e-006
-5.160776e-004,2.019640e-005
-1.407345e-004,3.867184e-005
1.866375e-004,4.790957e-005
4.352457e-004,4.807163e-005
5.948801e-004,4.110282e-005
6.733198e-004,3.267542e-005
6.846644e-004,2.862379e-005
6.355586e-004,2.765140e-005
5.201680e-004,2.700314e-005
3.261757e-004,2.586868e-005
5.017848e-005,2.441009e-005
-2.817312e-004,2.376183e-005
-6.060239e-004,2.424803e-005
-8.499321e-004,2.635488e-005
-9.615951e-004,3.056858e-005
-9.361508e-004,3.867184e-005
-8.128192e-004,4.645098e-005
-6.355197e-004,5.244739e-005
-3.809152e-004,5.779555e-005
8.203561e-006,6.071273e-005
5.211404e-004,6.038860e-005
1.050608e-003,5.666109e-005
1.456583e-003,4.936815e-005
1.641338e-003,3.672705e-005
1.610059e-003,2.003433e-005
1.463551e-003,3.341602e-006
1.321906e-003,-1.173047e-005
1.243304e-003,-2.275091e-005
1.202788e-003,-2.907146e-005
1.147848e-003,-3.117831e-005
1.049312e-003,-2.971972e-005
9.152836e-004,-2.664048e-005
7.697488e-004,-1.918548e-005
6.201623e-004,-7.354708e-006
4.384870e-004,4.313994e-006
1.851789e-004,1.355172e-005
-1.300381e-004,1.517237e-005
-4.428242e-004,6.907039e-006
-6.804119e-004,-4.437533e-006
-8.314567e-004,-1.237873e-005
-9.429576e-004,-1.205460e-005
-1.058348e-003,-1.844488e-006
-1.181842e-003,1.711715e-005
-1.271302e-003,3.802358e-005
-1.260281e-003,5.860587e-005
-1.082172e-003,8.064676e-005
-6.974287e-004,1.036600e-004
-1.405724e-004,1.229458e-004
4.718725e-004,1.346145e-004
9.736271e-004,1.385041e-004
1.220615e-003,1.389903e-004
1.163082e-003,1.373696e-004
8.540228e-004,1.389903e-004
4.183909e-004,1.407730e-004
-7.840905e-006,1.385041e-004
-3.267854e-004,1.281319e-004
-4.922540e-004,1.106288e-004
-5.222362e-004,9.474644e-005
-4.692408e-004,8.583285e-005
-3.707051e-004,8.842590e-005
-2.326255e-004,1.012291e-004
-5.386745e-005,1.185700e-004
1.579519e-004,1.305629e-004
3.696093e-004,1.299146e-004
5.307022e-004,1.141943e-004
6.109247e-004,8.891209e-005
6.266450e-004,5.828174e-005
6.109247e-004,2.862379e-005
5.728393e-004,5.448451e-006
4.884032e-004,-9.299492e-006
3.331445e-004,-2.177852e-005
1.069013e-004,-3.717472e-005
-1.731475e-004,-5.305713e-005
-4.797750e-004,-6.715681e-005
-7.562584e-004,-7.607040e-005
-9.194582e-004,-7.882551e-005
-9.123273e-004,-7.509801e-005
-7.677650e-004,-6.456376e-005
-5.977585e-004,-4.252288e-005
-5.225603e-004,-8.165034e-006
-6.009999e-004,3.413401e-005
-8.016367e-004,7.302969e-005
-1.022370e-003,9.896014e-005
-1.147160e-003,1.052807e-004
-1.105995e-003,9.507057e-005
-9.175134e-004,7.740545e-005
-6.768464e-004,5.795762e-005
-5.027883e-004,3.996836e-005
-4.781544e-004,2.732727e-005
-6.202856e-004,2.230324e-005
-8.847762e-004,2.943412e-005
-1.168390e-003,4.304760e-005
-1.344069e-003,5.568870e-005
-1.315870e-003,5.666109e-005
-1.068720e-003,4.450619e-005
-6.708500e-004,1.922400e-005
-2.185258e-004,-1.237873e-005
2.133783e-004,-4.349527e-005
6.023351e-004,-7.185670e-005
9.564482e-004,-9.827335e-005
1.255297e-003,-1.253383e-004
1.443941e-003,-1.483515e-004
1.479110e-003,-1.627753e-004
1.370688e-003,-1.674752e-004
1.159840e-003,-1.728234e-004
9.091251e-004,-1.867610e-004
6.814231e-004,-2.002124e-004
5.298919e-004,-1.961608e-004
5.016925e-004,-1.658546e-004
6.162728e-004,-1.146419e-004
8.807636e-004,-5.483985e-005
1.324985e-003,3.989864e-006
1.959473e-003,5.698522e-005
2.751489e-003,9.977046e-005
3.626973e-003,1.295905e-004
4.454488e-003,1.414213e-004
4.958843e-003,1.386661e-004
4.958843e-003,1.269974e-004
4.958843e-003,1.112771e-004
4.209604e-003,9.701536e-005
2.922145e-003,8.842590e-005
1.377657e-003,8.405013e-005
-2.258187e-004,8.745350e-005
-1.715685e-003,9.944633e-005
-2.997624e-003,1.179218e-004
-4.021070e-003,1.378558e-004
-4.745832e-003,1.553589e-004
-4.967863e-003,1.626518e-004
-4.967863e-003,1.577899e-004
-4.967702e-003,1.457970e-004
-4.359141e-003,1.329939e-004
-3.404733e-003,1.239182e-004
-2.242236e-003,1.188942e-004
-1.058186e-003,1.145184e-004
-5.597430e-005,1.085220e-004
6.274553e-004,9.717742e-005
9.716824e-004,8.421220e-005
1.023705e-003,7.416414e-005
8.543470e-004,6.573675e-005
5.558224e-004,5.649903e-005
2.308813e-004,4.677511e-005
-3.020592e-005,3.834771e-005
-1.553203e-004,3.705119e-005
-1.195039e-004,4.142695e-005
2.846173e-005,4.839576e-005
1.689724e-004,5.601283e-005
1.467694e-004,6.460230e-005
-1.442999e-004,7.043664e-005
-6.996976e-004,7.286762e-005
-1.402575e-003,7.270556e-005
-2.039978e-003,6.978838e-005
-2.380315e-003,6.217131e-005
-2.277242e-003,5.179913e-005
-1.754419e-003,3.769945e-005
-9.800706e-004,1.938607e-005
-1.791439e-004,2.207145e-006
4.678209e-004,-6.706447e-006
9.006977e-004,-4.761663e-006
1.157247e-003,4.800190e-006
1.306510e-003,1.371378e-005
1.403749e-003,1.889987e-005
1.463389e-003,2.197911e-005
1.443455e-003,2.781346e-005
1.271504e-003,3.526847e-005
9.088010e-004,4.223728e-005
3.778746e-004,4.969228e-005
-2.536940e-004,5.341978e-005
-9.171892e-004,4.758544e-005
-1.577768e-003,3.267542e-005
-2.204637e-003,1.646889e-005
-2.707688e-003,4.800190e-006
-2.947059e-003,4.244267e-007
-2.788721e-003,4.800190e-006
-2.162662e-003,1.517237e-005
-1.106157e-003,2.197911e-005
2.185644e-004,2.019640e-005
1.531295e-003,6.582909e-006
2.570624e-003,-1.318906e-005
3.205924e-003,-3.344722e-005
3.414666e-003,-5.013995e-005
3.267347e-003,-6.067420e-005
2.894432e-003,-6.521203e-005
2.434812e-003,-6.197072e-005
1.995775e-003,-5.613637e-005
1.637934e-003,-5.451571e-005
1.384950e-003,-5.808115e-005
1.227260e-003,-5.808115e-005
1.120783e-003,-4.544005e-005
1.015440e-003,-2.339917e-005
8.833566e-004,2.531276e-006
7.298806e-004,2.489629e-005
5.856425e-004,4.029249e-005
4.846757e-004,4.726130e-005
4.472386e-004,5.325772e-005
4.775448e-004,5.909207e-005
5.775391e-004,6.411610e-005
7.694246e-004,6.800567e-005
1.065842e-003,7.302969e-005
1.430004e-003,7.935023e-005
1.759483e-003,8.793970e-005
1.934677e-003,9.604297e-005
1.856075e-003,9.814982e-005
1.490778e-003,9.620503e-005
8.974564e-004,9.620503e-005
2.258573e-004,1.026876e-004
-3.096065e-004,1.161391e-004
-5.397392e-004,1.349386e-004
-4.183523e-004,1.564933e-004
-4.381940e-005,1.738343e-004
3.814400e-004,1.799928e-004
6.319931e-004,1.759412e-004
5.623050e-004,1.633001e-004
1.808031e-004,1.425557e-004
-3.673017e-004,1.132219e-004
-8.923932e-004,7.951231e-005
-1.268871e-003,4.807163e-005
-1.464646e-003,2.230324e-005
-1.498355e-003,3.827798e-006
-1.404844e-003,-7.192643e-006
-1.202748e-003,-1.302699e-005
-8.735937e-004,-1.367526e-005
-4.345588e-004,-6.544382e-006
-3.685059e-005,6.907039e-006
7.562274e-005,1.679302e-005
-2.536940e-004,1.598270e-005
-9.505747e-004,3.341602e-006
-1.771760e-003,-1.464765e-005
-2.458269e-003,-3.215070e-005
-2.857599e-003,-4.252288e-005
-2.939928e-003,-3.911951e-005
-2.745935e-003,-2.469570e-005
-2.348875e-003,-7.192643e-006
-1.819893e-003,6.258778e-006
-1.220738e-003,9.500084e-006
-6.175305e-004,7.393235e-006
-8.044616e-005,4.638125e-006
3.252033e-004,4.962256e-006
5.545259e-004,7.069104e-006
5.940698e-004,4.962256e-006
4.618245e-004,-1.034161e-006
1.913374e-004,-7.030578e-006
-1.818990e-004,-1.027188e-005
-6.287130e-004,-1.205460e-005
-1.116530e-003,-1.318906e-005
-1.583926e-003,-1.399939e-005
-1.925560e-003,-1.383732e-005
-2.018747e-003,-1.448558e-005
-1.761226e-003,-1.626830e-005
-1.141001e-003,-1.626830e-005
-2.937241e-004,-9.785687e-006
5.577672e-004,-8.720958e-007
1.229367e-003,4.638125e-006
1.681692e-003,9.106226e-007
1.953152e-003,-1.140634e-005
2.039047e-003,-2.647842e-005
1.883464e-003,-3.215070e-005
1.472141e-003,-2.469570e-005
8.836808e-004,-8.165034e-006
2.723700e-004,8.851824e-006
-1.992400e-004,1.760335e-005
-4.348829e-004,1.582063e-005
-4.254832e-004,1.160693e-005
-2.355427e-004,1.176900e-005
2.700314e-005,1.906194e-005
2.595669e-004,2.781346e-005
4.023465e-004,3.348575e-005
4.433490e-004,3.332369e-005
4.028327e-004,3.089270e-005
3.148312e-004,3.235129e-005
2.184023e-004,4.207521e-005
1.467694e-004,5.504044e-005
1.156529e-004,6.411610e-005
1.304008e-004,6.346784e-005
1.893926e-004,5.034054e-005
2.843629e-004,3.316162e-005
4.005638e-004,2.181705e-005
5.123889e-004,2.295151e-005
5.883976e-004,3.494434e-005
6.005524e-004,5.196120e-005
5.399400e-004,6.800567e-005
4.133669e-004,7.740545e-005
2.425500e-004,7.935023e-005
5.666109e-005,7.805372e-005
-1.131834e-004,7.740545e-005
-2.431597e-004,7.837785e-005
-3.206269e-004,8.161915e-005
-3.403989e-004,8.534666e-005
-3.104168e-004,8.907416e-005
-2.410529e-004,9.296372e-005
-1.292278e-004,9.377405e-005
3.559260e-005,9.004655e-005
2.407673e-004,8.275361e-005
4.392974e-004,7.708132e-005
5.814287e-004,7.578480e-005
6.434998e-004,7.400208e-005
6.311828e-004,6.914012e-005
5.681394e-004,6.055066e-005
4.754380e-004,4.677511e-005
3.671783e-004,3.024445e-005
2.607013e-004,1.646889e-005
1.748067e-004,7.717366e-006
1.171115e-004,7.393235e-006
8.729143e-005,1.387585e-005
8.421220e-005,2.181705e-005
1.081979e-004,2.748933e-005
1.581140e-004,2.878586e-005
2.171058e-004,3.186510e-005
2.576221e-004,3.737532e-005
2.670219e-004,4.466826e-005
2.688046e-004,4.936815e-005
2.995970e-004,5.017848e-005
3.704196e-004,4.596478e-005
4.572866e-004,3.413401e-005
5.310263e-004,1.841368e-005
5.825632e-004,-3.858999e-007
6.206486e-004,-1.821308e-005
6.644062e-004,-3.441962e-005
7.256669e-004,-4.462973e-005
8.018378e-004,-4.803310e-005
8.750913e-004,-4.203669e-005
9.160939e-004,-3.020592e-005
8.948633e-004,-1.821308e-005
7.870898e-004,-8.975361e-006
5.824011e-004,5.864920e-007
2.748010e-004,9.338019e-006
-1.344139e-004,1.371378e-005
-6.233649e-004,1.095867e-005
-1.127874e-003,4.962256e-006
-1.547623e-003,2.045080e-006
-1.790721e-003,4.962256e-006
-1.814383e-003,1.338965e-005
-1.625739e-003,2.084466e-005
-1.275840e-003,2.522042e-005
-8.517149e-004,2.700314e-005
-4.394208e-004,2.975825e-005
-7.833932e-005,2.927205e-005
2.464396e-004,2.246531e-005
5.671670e-004,1.290346e-005
8.818980e-004,7.069104e-006
1.137151e-003,1.160693e-005
1.255783e-003,2.538249e-005
1.197278e-003,4.693717e-005
9.914543e-004,7.157111e-005
6.947124e-004,9.377405e-005
3.308756e-004,1.088461e-004
-1.044318e-004,1.140322e-004
-5.883588e-004,1.132219e-004
-1.034038e-003,1.112771e-004
-1.331428e-003,1.075496e-004
-1.408571e-003,1.002567e-004
-1.266116e-003,8.745350e-005
-9.734259e-004,7.286762e-005
-6.390853e-004,5.974033e-005
-3.493125e-004,5.179913e-005
-1.519170e-004,4.758544e-005
-6.132245e-005,3.980630e-005
-7.218083e-005,2.943412e-005
-1.752544e-004,2.019640e-005
-3.729740e-004,1.225519e-005
-6.501056e-004,5.448451e-006
-9.369612e-004,-8.720958e-007
-1.118799e-003,-6.220251e-006
-1.094813e-003,-7.192643e-006
-8.265947e-004,-2.978945e-006
-3.663293e-004,3.503668e-006
1.639483e-004,1.193106e-005
6.475514e-004,2.052053e-005
1.036671e-003,2.927205e-005
1.352536e-003,3.818564e-005
1.625779e-003,4.418206e-005
1.844082e-003,4.564065e-005
1.952342e-003,4.239934e-005
1.887353e-003,3.834771e-005
1.608438e-003,3.429608e-005
1.133748e-003,3.348575e-005
5.376711e-004,3.543053e-005
-9.454584e-005,3.883391e-005
-7.058561e-004,4.191315e-005
-1.265954e-003,4.483032e-005
-1.731568e-003,4.936815e-005
-2.046785e-003,5.504044e-005
-2.173358e-003,5.957827e-005
-2.112259e-003,6.427816e-005
-1.886502e-003,6.703327e-005
-1.534658e-003,6.217131e-005
-1.108588e-003,5.034054e-005
-6.651777e-004,3.624086e-005
-2.600145e-004,2.619281e-005
5.860587e-005,2.489629e-005
2.676701e-004,2.829966e-005
3.764160e-004,3.202716e-005
4.196875e-004,2.975825e-005
4.313562e-004,2.392390e-005
4.381629e-004,2.084466e-005
4.576108e-004,2.408596e-005
4.901859e-004,3.283749e-005
5.196818e-004,4.272347e-005
5.347539e-004,5.034054e-005
5.326470e-004,5.017848e-005
5.188715e-004,4.207521e-005
5.057441e-004,3.008238e-005
5.101199e-004,2.230324e-005
5.422089e-004,2.311357e-005
5.969870e-004,2.797553e-005
6.580856e-004,2.716520e-005
6.986020e-004,1.971020e-005
6.948745e-004,1.176900e-005
6.332896e-004,6.907039e-006
5.274609e-004,8.365628e-006
4.091532e-004,1.338965e-005
3.175863e-004,2.003433e-005
2.801492e-004,2.716520e-005
3.052693e-004,3.348575e-005
3.676645e-004,3.737532e-005
4.368664e-004,3.948217e-005
4.952099e-004,4.126489e-005
5.446399e-004,4.256141e-005
5.922871e-004,3.964423e-005
6.396102e-004,3.591673e-005
6.773715e-004,3.591673e-005
6.930918e-004,4.029249e-005
6.645683e-004,4.418206e-005
5.712186e-004,4.628891e-005
3.927846e-004,4.612685e-005
1.033359e-004,4.483032e-005
-2.802727e-004,4.094075e-005
-6.732810e-004,3.364782e-005
-9.414990e-004,2.667901e-005
-9.833118e-004,2.262737e-005
-7.985575e-004,2.100672e-005
-4.886886e-004,1.922400e-005
-1.864369e-004,1.841368e-005
1.095867e-005,1.646889e-005
7.254349e-005,1.095867e-005
2.538249e-005,7.231170e-006
-8.352540e-005,8.365628e-006
-2.138259e-004,1.225519e-005
-3.331059e-004,1.274139e-005
-4.021458e-004,8.527692e-006
-3.792946e-004,1.558884e-006
-2.301945e-004,-7.100305e-007
7.319175e-005,3.665733e-006
5.616568e-004,1.452411e-005
1.266804e-003,2.538249e-005
2.153141e-003,3.202716e-005
3.054716e-003,3.526847e-005
3.687424e-003,3.883391e-005
3.740744e-003,4.580272e-005
3.019061e-003,5.115087e-005
1.579104e-003,5.017848e-005
-2.634179e-004,4.126489e-005
-1.989414e-003,2.748933e-005
-3.219330e-003,1.744128e-005
-3.798229e-003,1.290346e-005
-3.761278e-003,1.776542e-005
-3.272811e-003,2.846173e-005
-2.541247e-003,3.899597e-005
-1.738698e-003,4.466826e-005
-9.844463e-004,4.807163e-005
-3.603329e-004,5.115087e-005
8.372600e-005,5.147500e-005
3.341170e-004,4.369587e-005
4.224426e-004,3.073064e-005
4.145014e-004,2.311357e-005
3.846813e-004,2.570661e-005
4.055878e-004,3.494434e-005
5.363746e-004,4.580272e-005
8.086445e-004,5.277152e-005
1.203274e-003,5.374392e-005
1.611355e-003,4.904402e-005
1.816368e-003,3.818564e-005
1.589476e-003,2.003433e-005
8.373301e-004,1.072688e-006
-3.026377e-004,-1.189254e-005
-1.529634e-003,-1.416145e-005
-2.567177e-003,-8.002969e-006
-3.258063e-003,7.069104e-006
-3.574416e-003,2.538249e-005
-3.569878e-003,4.077869e-005
-3.328886e-003,4.628891e-005
-2.935715e-003,4.110282e-005
-2.445466e-003,2.910999e-005
-1.877264e-003,1.582063e-005
-1.245047e-003,6.420843e-006
-5.946793e-004,2.369210e-006
2.693341e-006,4.962256e-006
4.885652e-004,1.436204e-005
8.460816e-004,2.829966e-005
1.091935e-003,3.948217e-005
1.256594e-003,4.483032e-005
1.370202e-003,4.077869e-005
1.448965e-003,2.878586e-005
1.501151e-003,1.436204e-005
1.547015e-003,2.369210e-006
1.615731e-003,-5.571990e-006
1.724315e-003,-1.156841e-005
1.866123e-003,-1.626830e-005
1.991724e-003,-1.707863e-005
2.014899e-003,-1.254080e-005
1.867095e-003,-2.978945e-006
1.525136e-003,6.907039e-006
1.023381e-003,1.419998e-005
4.890515e-004,1.808955e-005
7.546067e-005,1.744128e-005
-1.238797e-004,1.452411e-005
-1.029732e-004,1.419998e-005
7.789165e-005,2.376183e-005
3.376824e-004,4.466826e-005
6.193520e-004,6.930219e-005
8.961599e-004,8.875003e-005
1.149306e-003,1.015532e-004
1.352698e-003,1.059289e-004
1.469386e-003,9.847395e-005
1.467117e-003,8.275361e-005
1.325796e-003,6.541262e-005
1.048988e-003,5.471631e-005
6.660269e-004,5.358185e-005
2.158092e-004,5.552663e-005
-2.867553e-004,5.568870e-005
-8.497701e-004,5.260946e-005
-1.467725e-003,4.888196e-005
-2.087625e-003,4.499239e-005
-2.606073e-003,4.142695e-005
-2.878019e-003,3.915804e-005
-2.759549e-003,4.013043e-005
-2.197830e-003,4.239934e-005
-1.305822e-003,4.483032e-005
-3.181959e-004,4.645098e-005
5.198439e-004,4.709924e-005
1.059522e-003,4.628891e-005
1.300189e-003,4.158902e-005
1.322392e-003,3.348575e-005
1.208298e-003,2.797553e-005
1.007499e-003,3.397195e-005
7.342565e-004,4.920609e-005
3.932708e-004,6.622294e-005
2.700314e-005,7.594687e-005
-3.058790e-004,7.594687e-005
-5.596732e-004,7.092283e-005
-7.118525e-004,6.427816e-005
-7.489654e-004,5.585077e-005
-6.637191e-004,5.034054e-005
-4.760475e-004,5.017848e-005
-2.287359e-004,5.585077e-005
3.040651e-005,6.200925e-005
2.741528e-004,6.606088e-005
4.956961e-004,6.816773e-005
6.973055e-004,7.043664e-005
8.817360e-004,7.286762e-005
1.036833e-003,7.659513e-005
1.109924e-003,7.675719e-005
1.031160e-003,7.157111e-005
7.652109e-004,6.071273e-005
3.420582e-004,4.888196e-005
