-2.337368e-003,4.985435e-005
-1.969479e-003,3.850977e-005
-1.426561e-003,3.299956e-005
-9.006585e-004,3.299956e-005
-5.515699e-004,3.170303e-005
-4.408794e-004,2.797553e-005
-4.961436e-004,2.230324e-005
-5.656697e-004,1.776542e-005
-5.232086e-004,1.355172e-005
-3.502849e-004,8.041497e-006
-1.208004e-004,5.286386e-006
5.358185e-005,7.717366e-006
8.956035e-005,1.419998e-005
-2.939559e-005,2.197911e-005
-2.455907e-004,2.894792e-005
-4.755614e-004,3.348575e-005
-6.565882e-004,3.640293e-005
-7.604721e-004,3.850977e-005
-8.000160e-004,4.191315e-005
-8.116847e-004,4.693717e-005
-8.222189e-004,5.439218e-005
-8.050401e-004,6.800567e-005
-6.933770e-004,8.469840e-005
-4.290486e-004,1.033359e-004
-4.349527e-005,1.193804e-004
3.349273e-004,1.276457e-004
5.961767e-004,1.320215e-004
7.245325e-004,1.355869e-004
7.773659e-004,1.378558e-004
8.451092e-004,1.295905e-004
1.003609e-003,1.090082e-004
1.273935e-003,7.967437e-005
1.629020e-003,4.969228e-005
2.006634e-003,2.635488e-005
2.333197e-003,7.393235e-006
2.547772e-003,-8.165034e-006
2.614544e-003,-2.048200e-005
2.519249e-003,-2.712668e-005
2.252164e-003,-2.485776e-005
1.808751e-003,-1.237873e-005
1.198898e-003,2.531276e-006
4.828930e-004,1.419998e-005
-2.444563e-004,1.971020e-005
-9.147582e-004,1.679302e-005
-1.516345e-003,6.096713e-006
-2.055536e-003,-1.237873e-005
-2.500244e-003,-4.041603e-005
-2.767490e-003,-7.769105e-005
-2.767328e-003,-1.211245e-004
-2.458755e-003,-1.588858e-004
-1.899305e-003,-1.797922e-004
-1.235810e-003,-1.771991e-004
-6.355197e-004,-1.553203e-004
-2.089639e-004,-1.243659e-004
2.441009e-005,-9.341139e-005
1.088461e-004,-6.342930e-005
1.072255e-004,-2.890940e-005
7.724339e-005,6.907039e-006
7.205730e-005,3.980630e-005
1.370455e-004,6.735740e-005
3.188828e-004,8.826383e-005
6.543581e-004,1.015532e-004
1.130669e-003,1.101426e-004
1.629183e-003,1.180839e-004
1.971466e-003,1.211631e-004
2.036292e-003,1.188942e-004
1.840354e-003,1.164632e-004
1.511523e-003,1.153287e-004
1.192416e-003,1.179218e-004
1.000044e-003,1.242423e-004
9.878889e-004,1.326697e-004
1.142986e-003,1.376937e-004
1.425790e-003,1.336421e-004
1.786386e-003,1.182459e-004
2.157355e-003,9.604297e-005
2.466901e-003,7.416414e-005
2.677587e-003,5.990240e-005
2.789089e-003,5.730935e-005
2.795247e-003,6.379197e-005
2.663812e-003,7.465034e-005
2.350214e-003,8.599491e-005
1.827875e-003,9.118101e-005
1.113166e-003,8.648111e-005
2.952213e-004,7.416414e-005
-4.457413e-004,5.909207e-005
-9.178375e-004,4.790957e-005
-1.030635e-003,4.434413e-005
-8.337256e-004,4.790957e-005
-5.074882e-004,5.439218e-005
-2.966413e-004,5.601283e-005
-4.139765e-004,4.418206e-005
-9.306406e-004,1.744128e-005
-1.747774e-003,-2.485776e-005
-2.684837e-003,-7.509801e-005
-3.557885e-003,-1.267968e-004
-4.213119e-003,-1.671511e-004
-4.559455e-003,-1.810887e-004
-4.576472e-003,-1.653684e-004
-4.286859e-003,-1.336036e-004
-3.741830e-003,-1.052422e-004
-3.002323e-003,-9.195280e-005
-2.123928e-003,-9.357345e-005
-1.159315e-003,-1.058904e-004
-1.877334e-004,-1.190177e-004
6.674855e-004,-1.204763e-004
1.264049e-003,-1.086455e-004
1.500665e-003,-8.968388e-005
1.362747e-003,-7.169464e-005
9.626067e-004,-5.500191e-005
4.854860e-004,-4.025397e-005
1.096565e-004,-2.809907e-005
-4.057810e-005,-1.902341e-005
1.030118e-004,-1.318906e-005
5.597120e-004,-9.461557e-006
1.263724e-003,-7.030578e-006
2.019923e-003,-3.789271e-006
2.574189e-003,3.179537e-006
2.716483e-003,1.711715e-005
2.376955e-003,3.932010e-005
1.702598e-003,6.670914e-005
9.656859e-004,9.296372e-005
4.086670e-004,1.127357e-004
1.169494e-004,1.222975e-004
1.517237e-005,1.255388e-004
-5.419158e-005,1.235941e-004
-2.233878e-004,1.166253e-004
-5.449253e-004,1.070634e-004
-9.872015e-004,9.766362e-005
-1.460270e-003,8.891209e-005
-1.858627e-003,8.032263e-005
-2.113231e-003,6.946425e-005
-2.191671e-003,5.876794e-005
-2.100266e-003,5.406805e-005
-1.870782e-003,6.071273e-005
-1.544058e-003,7.513654e-005
-1.152508e-003,8.923622e-005
-7.249798e-004,9.474644e-005
-3.040963e-004,9.247753e-005
5.828174e-005,8.631904e-005
3.188828e-004,8.291567e-005
4.595555e-004,8.777764e-005
4.875929e-004,9.669123e-005
4.294114e-004,1.056048e-004
3.422202e-004,1.133840e-004
2.965178e-004,1.153287e-004
3.566440e-004,1.124116e-004
5.460985e-004,1.056048e-004
8.480264e-004,9.977046e-005
1.208298e-003,1.017153e-004
1.559981e-003,1.104668e-004
1.850078e-003,1.232699e-004
2.061898e-003,1.399627e-004
2.177451e-003,1.526038e-004
2.104360e-003,1.526038e-004
1.724477e-003,1.394765e-004
1.044288e-003,1.208390e-004
2.790147e-004,1.043083e-004
-2.840002e-004,9.636710e-005
-4.815578e-004,9.555677e-005
-3.340783e-004,9.733949e-005
1.744128e-005,9.604297e-005
4.049395e-004,8.745350e-005
7.028157e-004,7.400208e-005
8.596951e-004,6.346784e-005
8.908117e-004,6.298164e-005
8.483505e-004,7.562274e-005
8.002171e-004,9.993253e-005
7.947068e-004,1.232699e-004
8.321439e-004,1.383420e-004
8.807636e-004,1.417454e-004
8.814118e-004,1.359110e-004
7.767176e-004,1.247285e-004
5.392918e-004,1.116012e-004
1.759412e-004,1.036600e-004
-2.895104e-004,1.030118e-004
-8.222189e-004,1.034980e-004
-1.352983e-003,9.636710e-005
-1.761063e-003,7.627100e-005
-1.916808e-003,4.126489e-005
-1.746802e-003,-2.330684e-006
-1.272922e-003,-4.187462e-005
-6.173684e-004,-6.812920e-005
4.483032e-005,-7.947377e-005
5.623050e-004,-7.833932e-005
8.776843e-004,-7.185670e-005
1.013819e-003,-6.845333e-005
1.023868e-003,-7.282909e-005
9.606619e-004,-8.563225e-005
8.575883e-004,-1.003802e-004
7.264772e-004,-1.154523e-004
5.734875e-004,-1.306864e-004
4.081808e-004,-1.475412e-004
2.417397e-004,-1.673132e-004
8.583285e-005,-1.887058e-004
-4.430560e-005,-2.047502e-004
-1.428413e-004,-2.096122e-004
-2.225774e-004,-1.989159e-004
-3.271095e-004,-1.697441e-004
-5.089468e-004,-1.232314e-004
-7.911024e-004,-7.120844e-005
-1.153480e-003,-2.793700e-005
-1.546165e-003,9.106226e-007
-1.902222e-003,1.452411e-005
-2.147589e-003,1.484824e-005
-2.216629e-003,5.286386e-006
-2.064126e-003,-1.221667e-005
-1.711309e-003,-3.441962e-005
-1.277460e-003,-5.257093e-005
-9.196202e-004,-5.516398e-005
-7.374588e-004,-4.009190e-005
-7.366485e-004,-8.651231e-006
-8.517149e-004,3.543053e-005
-9.800706e-004,8.259154e-005
-1.027556e-003,1.171115e-004
-9.423093e-004,1.349386e-004
-7.316245e-004,1.414213e-004
-4.429862e-004,1.415833e-004
-1.339277e-004,1.407730e-004
1.530900e-004,1.440143e-004
3.994293e-004,1.548727e-004
6.062247e-004,1.702689e-004
7.793106e-004,1.816135e-004
9.216041e-004,1.853410e-004
1.027595e-003,1.808031e-004
1.079618e-003,1.704310e-004
1.069084e-003,1.568175e-004
9.882130e-004,1.419075e-004
8.498091e-004,1.269974e-004
6.725095e-004,1.128978e-004
4.770586e-004,1.030118e-004
2.790147e-004,9.652916e-005
8.502253e-005,9.150514e-005
-9.470791e-005,8.696730e-005
-2.519113e-004,7.967437e-005
-3.856151e-004,6.946425e-005
-4.912817e-004,5.876794e-005
-5.634007e-004,5.325772e-005
-6.076446e-004,5.455424e-005
-6.201236e-004,6.217131e-005
-5.830106e-004,7.027457e-005
-4.770199e-004,7.108490e-005
-2.989102e-004,6.022653e-005
-6.164659e-005,4.385793e-005
1.949028e-004,2.716520e-005
4.159599e-004,1.484824e-005
5.720289e-004,1.014835e-005
6.622994e-004,1.014835e-005
6.932539e-004,1.322759e-005
6.768852e-004,1.841368e-005
6.422033e-004,2.489629e-005
6.400964e-004,3.478227e-005
7.342565e-004,4.823369e-005
9.679548e-004,6.330577e-005
1.320772e-003,7.319175e-005
1.699357e-003,7.286762e-005
1.975517e-003,6.314371e-005
2.034023e-003,4.774750e-005
1.835006e-003,3.251336e-005
1.434380e-003,1.744128e-005
9.496414e-004,1.396819e-006
4.913204e-004,-1.221667e-005
1.049566e-004,-2.080613e-005
-2.261429e-004,-2.550602e-005
-5.316359e-004,-2.647842e-005
-7.993678e-004,-2.453363e-005
-9.713190e-004,-2.761287e-005
-1.000977e-003,-4.268495e-005
-9.087618e-004,-6.829127e-005
-7.807303e-004,-9.778715e-005
-7.204420e-004,-1.261486e-004
-7.829992e-004,-1.527273e-004
-9.426334e-004,-1.799543e-004
-1.119123e-003,-2.076674e-004
-1.219117e-003,-2.316531e-004
-1.173252e-003,-2.421873e-004
-9.633778e-004,-2.290600e-004
-6.142893e-004,-1.904885e-004
-1.618029e-004,-1.337657e-004
3.535648e-004,-7.153257e-005
8.909737e-004,-1.562004e-005
1.434542e-003,2.554455e-005
1.974221e-003,5.034054e-005
2.459771e-003,6.071273e-005
2.792654e-003,5.714729e-005
2.871418e-003,4.256141e-005
2.652143e-003,2.619281e-005
2.177775e-003,1.209313e-005
1.537291e-003,3.503668e-006
8.387886e-004,-3.858999e-007
2.026820e-004,-1.034161e-006
-2.750866e-004,-1.358292e-006
-5.397392e-004,-5.409925e-006
-5.922483e-004,-9.785687e-006
-4.789647e-004,-8.975361e-006
-2.789761e-004,3.827798e-006
-8.222889e-005,2.700314e-005
4.758544e-005,5.374392e-005
9.960840e-005,7.578480e-005
1.083599e-004,9.004655e-005
1.287802e-004,1.022014e-004
2.093266e-004,1.164632e-004
3.741471e-004,1.318594e-004
6.242140e-004,1.487142e-004
9.141491e-004,1.633001e-004
1.131479e-003,1.701068e-004
1.134558e-003,1.681620e-004
8.608295e-004,1.611932e-004
3.999155e-004,1.537382e-004
-8.401160e-005,1.501728e-004
-4.661616e-004,1.470936e-004
-7.126628e-004,1.402868e-004
-9.107066e-004,1.253768e-004
-1.218469e-003,1.010670e-004
-1.740967e-003,7.027457e-005
-2.440118e-003,4.272347e-005
-3.141214e-003,2.716520e-005
-3.601319e-003,3.040651e-005
-3.636487e-003,5.325772e-005
-3.206364e-003,8.810177e-005
-2.427963e-003,1.244044e-004
-1.504352e-003,1.521176e-004
-6.322784e-004,1.645966e-004
6.330577e-005,1.618415e-004
5.553362e-004,1.514693e-004
8.807636e-004,1.386661e-004
1.083021e-003,1.260251e-004
1.190471e-003,1.140322e-004
1.206191e-003,1.034980e-004
1.126293e-003,9.733949e-005
9.536931e-004,9.361198e-005
6.948745e-004,9.280166e-005
3.597233e-004,8.956035e-005
-4.252288e-005,8.080882e-005
-5.055434e-004,6.654707e-005
-1.002598e-003,5.050261e-005
-1.458325e-003,3.607880e-005
-1.779539e-003,2.586868e-005
-1.910812e-003,1.565857e-005
-1.875320e-003,2.623614e-007
-1.762846e-003,-1.967167e-005
-1.698020e-003,-3.992984e-005
-1.756850e-003,-5.824321e-005
-1.918105e-003,-7.558420e-005
-2.104804e-003,-9.000801e-005
-2.250339e-003,-9.859748e-005
-2.307062e-003,-1.007043e-004
-2.226029e-003,-9.665269e-005
-1.973369e-003,-8.838737e-005
-1.565937e-003,-7.963584e-005
-1.075041e-003,-7.137050e-005
-5.899794e-004,-6.197072e-005
-1.776853e-004,-4.981582e-005
1.357490e-004,-3.636440e-005
3.639370e-004,-2.258885e-005
5.431813e-004,-1.043395e-005
7.240463e-004,-1.682422e-006
9.376486e-004,2.207145e-006
1.188526e-003,-1.844488e-006
1.464524e-003,-7.516774e-006
1.747004e-003,-1.059601e-005
2.028513e-003,-7.192643e-006
2.320069e-003,2.207145e-006
2.611788e-003,1.614476e-005
2.838519e-003,3.672705e-005
2.913231e-003,6.346784e-005
2.807888e-003,9.393611e-005
2.571758e-003,1.242423e-004
2.294787e-003,1.470936e-004
2.042288e-003,1.581140e-004
1.830954e-003,1.571416e-004
1.650089e-003,1.466074e-004
1.483485e-003,1.273216e-004
1.318827e-003,1.018773e-004
1.158058e-003,7.448828e-005
1.008147e-003,5.034054e-005
8.669881e-004,3.348575e-005
7.336082e-004,2.165498e-005
6.230795e-004,1.160693e-005
5.585775e-004,2.623614e-007
5.422089e-004,-7.678839e-006
5.418848e-004,-8.813297e-006
5.318367e-004,-5.247859e-006
5.347539e-004,-2.238345e-007
5.914768e-004,2.693341e-006
6.997365e-004,4.244267e-007
8.028101e-004,-2.816880e-006
8.431644e-004,-2.238345e-007
7.763934e-004,1.112074e-005
5.746220e-004,2.910999e-005
2.470879e-004,4.888196e-005
-1.460826e-004,6.427816e-005
-5.097571e-004,7.092283e-005
-7.569067e-004,6.978838e-005
-8.405324e-004,6.136099e-005
-7.697098e-004,5.244739e-005
-6.089411e-004,4.709924e-005
-4.523860e-004,4.483032e-005
-3.664914e-004,4.369587e-005
-3.614674e-004,4.239934e-005
-4.006872e-004,3.932010e-005
-4.366657e-004,3.575467e-005
-4.559515e-004,3.526847e-005
-4.794509e-004,4.434413e-005
-5.261257e-004,6.006446e-005
-5.765280e-004,7.335382e-005
-5.676145e-004,7.691926e-005
-4.222419e-004,6.849186e-005
-7.736692e-005,5.439218e-005
5.021787e-004,4.094075e-005
1.304889e-003,3.462021e-005
2.250543e-003,3.478227e-005
3.193120e-003,3.364782e-005
3.941221e-003,2.570661e-005
4.319972e-003,1.079661e-005
4.175246e-003,-4.113402e-006
3.419041e-003,-1.675450e-005
2.122673e-003,-2.194059e-005
5.357263e-004,-1.318906e-005
-9.290200e-004,8.203561e-006
-1.914863e-003,3.656499e-005
-2.326996e-003,6.492643e-005
-2.305765e-003,8.761556e-005
-2.112097e-003,9.863601e-005
-1.969317e-003,9.523264e-005
-1.948249e-003,8.016056e-005
-1.973207e-003,5.941620e-005
-1.912919e-003,3.283749e-005
-1.715361e-003,-6.176923e-008
-1.459946e-003,-3.458168e-005
-1.283295e-003,-6.083626e-005
-1.280864e-003,-7.039811e-005
-1.465618e-003,-6.521203e-005
-1.745181e-003,-5.030201e-005
-1.961052e-003,-3.652646e-005
-1.977097e-003,-2.550602e-005
-1.748909e-003,-1.432352e-005
-1.338721e-003,5.864920e-007
-8.697041e-004,1.663096e-005
-4.582204e-004,2.748933e-005
-1.768750e-004,3.105477e-005
-4.171255e-005,3.040651e-005
-1.788895e-005,2.975825e-005
-4.462973e-005,3.316162e-005
-5.872941e-005,4.191315e-005
-2.566809e-005,5.034054e-005
3.932010e-005,5.212327e-005
9.798775e-005,5.001641e-005
1.175977e-004,4.969228e-005
9.571883e-005,5.617490e-005
6.784360e-005,7.416414e-005
8.291567e-005,9.831188e-005
1.756170e-004,1.200286e-004
3.585888e-004,1.357490e-004
6.170831e-004,1.435281e-004
9.160939e-004,1.415833e-004
1.206191e-003,1.305629e-004
1.404397e-003,1.132219e-004
1.376036e-003,9.636710e-005
9.909682e-004,8.615698e-005
2.188885e-004,8.777764e-005
-8.152502e-004,1.017153e-004
-1.897198e-003,1.180839e-004
-2.833937e-003,1.281319e-004
-3.493707e-003,1.313732e-004
-3.822701e-003,1.252147e-004
-3.838908e-003,1.044704e-004
-3.606505e-003,6.914012e-005
-3.189672e-003,1.727922e-005
-2.604290e-003,-4.884343e-005
-1.828159e-003,-1.255003e-004
-8.828314e-004,-2.045882e-004
1.080358e-004,-2.723315e-004
9.462381e-004,-3.117133e-004
1.461282e-003,-3.167374e-004
1.595959e-003,-2.921034e-004
1.417039e-003,-2.507768e-004
1.084156e-003,-2.107467e-004
7.797969e-004,-1.759026e-004
6.332896e-004,-1.376552e-004
6.849886e-004,-8.871149e-005
9.008597e-004,-3.198863e-005
1.201977e-003,2.522042e-005
1.492723e-003,7.189524e-005
1.673426e-003,9.912220e-005
1.674723e-003,1.075496e-004
1.469386e-003,1.051186e-004
1.078159e-003,1.023635e-004
5.718669e-004,9.993253e-005
6.541262e-005,9.766362e-005
-3.284061e-004,9.247753e-005
-5.454115e-004,8.583285e-005
-5.820383e-004,7.756751e-005
-4.835025e-004,6.816773e-005
-3.217614e-004,5.698522e-005
-1.747682e-004,4.645098e-005
-1.003802e-004,3.834771e-005
-1.054042e-004,3.413401e-005
-1.394379e-004,3.883391e-005
-1.287416e-004,5.277152e-005
-1.918548e-005,6.995045e-005
2.052750e-004,8.340186e-005
5.379952e-004,8.858796e-005
9.744375e-004,9.069480e-005
1.514440e-003,9.685329e-005
2.117163e-003,1.104668e-004
2.675480e-003,1.281319e-004
3.057471e-003,1.446626e-004
3.150173e-003,1.564933e-004
2.905777e-003,1.577899e-004
2.373389e-003,1.472556e-004
1.677964e-003,1.258630e-004
9.792994e-004,9.944633e-005
4.183909e-004,7.610893e-005
6.606088e-005,6.395403e-005
-9.438377e-005,5.925414e-005
-1.477033e-004,5.536457e-005
-1.916230e-004,5.212327e-005
-2.780037e-004,4.628891e-005
-3.977700e-004,3.964423e-005
-5.104053e-004,3.575467e-005
-5.872243e-004,3.656499e-005
-6.319543e-004,3.737532e-005
-6.606399e-004,2.554455e-005
-6.598295e-004,-4.275467e-006
-5.992171e-004,-4.706071e-005
-4.647030e-004,-9.000801e-005
-2.767072e-004,-1.224211e-004
-7.688072e-005,-1.376552e-004
9.814982e-005,-1.339277e-004
2.248849e-004,-1.167488e-004
3.054314e-004,-9.324932e-005
3.731747e-004,-6.780506e-005
4.699277e-004,-4.365734e-005
6.148142e-004,-2.064406e-005
7.982723e-004,6.420843e-006
9.588792e-004,3.753739e-005
9.734651e-004,7.092283e-005
7.196706e-004,9.993253e-005
1.893926e-004,1.163011e-004
-4.425000e-004,1.164632e-004
-9.377715e-004,1.012291e-004
-1.162394e-003,8.048469e-005
-1.142136e-003,6.557468e-005
-9.896324e-004,6.071273e-005
-8.050401e-004,6.071273e-005
-6.262820e-004,6.184718e-005
-4.360174e-004,6.476436e-005
-2.044261e-004,6.751947e-005
6.865393e-005,6.865393e-005
3.318480e-004,7.011251e-005
5.190336e-004,7.108490e-005
5.856425e-004,7.124698e-005
5.190336e-004,6.735740e-005
3.196932e-004,5.374392e-005
-1.205460e-005,3.283749e-005
-4.494688e-004,1.857574e-005
-9.113549e-004,1.582063e-005
-1.270978e-003,2.295151e-005
-1.419754e-003,3.316162e-005
-1.309711e-003,4.223728e-005
-9.649985e-004,5.520250e-005
-4.617858e-004,7.140904e-005
9.409818e-005,9.150514e-005
5.900182e-004,1.119254e-004
9.329487e-004,1.269974e-004
1.062439e-003,1.354248e-004
9.629308e-004,1.394765e-004
6.614891e-004,1.412592e-004
2.193747e-004,1.414213e-004
-2.820554e-004,1.381799e-004
-7.475069e-004,1.289422e-004
-1.072610e-003,1.114392e-004
-1.168877e-003,8.469840e-005
-9.940082e-004,5.358185e-005
-5.951655e-004,2.748933e-005
-1.076731e-004,1.598270e-005
2.885766e-004,1.825161e-005
4.726828e-004,2.829966e-005
4.441593e-004,3.964423e-005
3.038107e-004,4.774750e-005
1.692965e-004,4.758544e-005
1.099806e-004,3.948217e-005
1.274836e-004,2.781346e-005
1.783722e-004,2.084466e-005
2.203471e-004,2.473422e-005
2.384984e-004,3.672705e-005
2.417397e-004,4.547859e-005
2.483844e-004,4.596478e-005
2.843629e-004,4.320967e-005
3.982948e-004,3.948217e-005
6.235657e-004,3.348575e-005
9.172283e-004,2.667901e-005
1.163730e-003,2.197911e-005
1.234553e-003,2.149292e-005
1.034726e-003,2.246531e-005
5.384814e-004,2.457216e-005
-1.729855e-004,2.765140e-005
-9.108687e-004,2.651694e-005
-1.461729e-003,1.760335e-005
-1.702882e-003,-6.176923e-008
-1.649076e-003,-1.869928e-005
-1.428667e-003,-2.907146e-005
-1.201128e-003,-2.728874e-005
-1.067100e-003,-1.513384e-005
-1.029987e-003,7.485573e-007
-1.035335e-003,1.160693e-005
-1.021559e-003,1.290346e-005
-9.611089e-004,7.555300e-006
-8.570630e-004,-3.858999e-007
-7.243315e-004,-8.489165e-006
-5.791211e-004,-1.707863e-005
-4.360174e-004,-2.647842e-005
-2.958309e-004,-3.344722e-005
-1.528894e-004,-3.571614e-005
-1.464765e-005,-3.393342e-005
9.507057e-005,-3.020592e-005
1.475797e-004,-2.583015e-005
1.250527e-004,-2.096819e-005
4.499239e-005,-1.205460e-005
-4.560212e-005,-3.951337e-006
-9.389758e-005,1.002961e-007
-5.159854e-005,-5.479652e-007
9.928427e-005,-8.720958e-007
3.269861e-004,4.476060e-006
5.567948e-004,1.436204e-005
7.238842e-004,2.343770e-005
8.113996e-004,2.748933e-005
8.397610e-004,2.603075e-005
8.358714e-004,2.295151e-005
8.191787e-004,2.619281e-005
7.995688e-004,3.753739e-005
7.843347e-004,4.904402e-005
7.942206e-004,5.115087e-005
8.630984e-004,4.418206e-005
1.008795e-003,3.559260e-005
1.228232e-003,3.283749e-005
1.483485e-003,3.688912e-005
1.673589e-003,4.142695e-005
1.688985e-003,3.996836e-005
1.480244e-003,2.992031e-005
1.062277e-003,1.306552e-005
5.115786e-004,-5.896120e-006
-4.495386e-005,-1.821308e-005
-4.804233e-004,-1.886135e-005
-7.095836e-004,-1.189254e-005
-6.979149e-004,-2.006553e-006
-4.600031e-004,1.063454e-005
-5.451571e-005,2.311357e-005
4.209840e-004,3.154097e-005
8.287406e-004,3.332369e-005
1.014306e-003,2.878586e-005
9.096113e-004,2.052053e-005
6.148142e-004,9.662150e-006
3.286067e-004,-1.196226e-006
2.292607e-004,-7.840905e-006
3.867882e-004,-1.189254e-005
7.622938e-004,-1.562004e-005
1.250111e-003,-1.756482e-005
1.717508e-003,-1.740276e-005
2.042937e-003,-1.124428e-005
2.165458e-003,4.638125e-006
2.104684e-003,2.716520e-005
1.933380e-003,5.179913e-005
1.727394e-003,7.092283e-005
1.502285e-003,8.097089e-005
1.178640e-003,8.161915e-005
6.214589e-004,7.594687e-005
-2.420253e-004,6.897806e-005
-1.314087e-003,7.011251e-005
-2.370592e-003,7.675719e-005
-3.201826e-003,8.307774e-005
-3.686080e-003,7.918817e-005
-3.806657e-003,6.152305e-005
-3.618336e-003,3.915804e-005
-3.215764e-003,2.311357e-005
-2.697154e-003,1.987226e-005
-2.149372e-003,2.603075e-005
-1.640487e-003,3.316162e-005
-1.216686e-003,2.684107e-005
-9.126514e-004,-2.168618e-006
-7.562584e-004,-4.787104e-005
-7.528550e-004,-9.470791e-005
-8.638697e-004,-1.233935e-004
-1.004218e-003,-1.175591e-004
-1.083630e-003,-8.044616e-005
-1.054134e-003,-2.453363e-005
-9.324233e-004,3.235129e-005
-7.614445e-004,7.400208e-005
-5.766901e-004,9.571883e-005
-3.971218e-004,1.007429e-004
-2.327876e-004,9.458438e-005
-7.088431e-005,8.291567e-005
1.039842e-004,6.978838e-005
2.973281e-004,6.038860e-005
5.104441e-004,5.504044e-005
7.370115e-004,5.358185e-005
9.475346e-004,5.617490e-005
1.110086e-003,6.022653e-005
1.201977e-003,6.508849e-005
1.233904e-003,7.173317e-005
1.248166e-003,7.610893e-005
1.277176e-003,7.724339e-005
1.319961e-003,7.756751e-005
1.357074e-003,7.853991e-005
1.372632e-003,7.821578e-005
1.342974e-003,7.335382e-005
1.250759e-003,6.784360e-005
1.110248e-003,6.476436e-005
9.583930e-004,6.703327e-005
8.459195e-004,7.465034e-005
7.851450e-004,8.388807e-005
7.107570e-004,9.296372e-005
5.130371e-004,9.863601e-005
1.085220e-004,1.004187e-004
-5.131605e-004,1.023635e-004
-1.286698e-003,1.065772e-004
-2.098483e-003,1.107909e-004
-2.824213e-003,1.153287e-004
-3.352224e-003,1.203528e-004
-3.604398e-003,1.218114e-004
-3.561775e-003,1.111150e-004
-3.261467e-003,8.502253e-005
-2.760684e-003,4.693717e-005
-2.089084e-003,6.582909e-006
-1.265954e-003,-2.469570e-005
-3.543365e-004,-4.041603e-005
5.153061e-004,-3.863331e-005
1.180261e-003,-2.194059e-005
1.527405e-003,1.396819e-006
1.531133e-003,2.311357e-005
1.270207e-003,3.786152e-005
8.851393e-004,4.304760e-005
4.982892e-004,3.932010e-005
1.856651e-004,3.073064e-005
-2.161646e-005,1.760335e-005
-1.128592e-004,6.582909e-006
-6.407756e-005,7.485573e-007
1.775618e-004,7.485573e-007
6.551685e-004,5.124321e-006
1.331630e-003,1.079661e-005
2.076160e-003,1.387585e-005
2.719724e-003,1.063454e-005
3.118570e-003,3.503668e-006
3.195227e-003,-4.113402e-006
2.942566e-003,-7.840905e-006
2.404020e-003,-5.571990e-006
1.678937e-003,3.179537e-006
8.940530e-004,1.484824e-005
1.786963e-004,2.619281e-005
-3.562813e-004,3.607880e-005
-6.416783e-004,4.742337e-005
-6.776568e-004,6.119892e-005
-5.523803e-004,7.140904e-005
-4.190006e-004,7.286762e-005
-4.230522e-004,6.233338e-005
-6.454058e-004,4.985435e-005
-1.085413e-003,4.807163e-005
-1.676627e-003,5.828174e-005
-2.300255e-003,7.157111e-005
-2.796014e-003,7.999850e-005
-3.006213e-003,8.161915e-005
-2.828103e-003,7.546067e-005
-2.242722e-003,6.314371e-005
-1.321218e-003,5.066468e-005
-2.109087e-004,4.304760e-005
8.639088e-004,4.434413e-005
1.679909e-003,4.904402e-005
2.110518e-003,5.179913e-005
2.140662e-003,4.499239e-005
1.872119e-003,2.603075e-005
1.496289e-003,-8.720958e-007
1.184150e-003,-2.826113e-005
1.005878e-003,-4.608832e-005
9.371624e-004,-5.240886e-005
9.245212e-004,-4.544005e-005
9.152836e-004,-3.085418e-005
8.807636e-004,-1.610623e-005
8.175580e-004,-3.141010e-006
7.446286e-004,6.258778e-006
6.955228e-004,1.047248e-005
7.148086e-004,9.986280e-006
8.370059e-004,5.610517e-006
1.063411e-003,-3.627206e-006
1.356264e-003,-1.691656e-005
1.667592e-003,-3.036798e-005
1.964659e-003,-3.636440e-005
2.232554e-003,-3.393342e-005
2.472898e-003,-2.161646e-005
2.660408e-003,-1.520357e-006
2.734797e-003,2.019640e-005
2.644040e-003,3.850977e-005
2.358155e-003,5.163707e-005
1.877954e-003,5.698522e-005
1.269397e-003,5.876794e-005
6.420412e-004,5.925414e-005
8.534666e-005,6.200925e-005
-3.658432e-004,6.800567e-005
-7.191455e-004,7.432621e-005
-9.902806e-004,8.097089e-005
-1.180221e-003,8.275361e-005
-1.266926e-003,7.302969e-005
-1.227220e-003,5.082674e-005
-1.089951e-003,2.165498e-005
-9.560849e-004,-8.327101e-006
-9.358267e-004,-3.117831e-005
-1.069855e-003,-3.928157e-005
-1.304039e-003,-3.555407e-005
-1.537575e-003,-3.150244e-005
-1.696237e-003,-3.830918e-005
-1.769653e-003,-5.824321e-005
-1.799797e-003,-8.628051e-005
-1.841934e-003,-1.099420e-004
-1.918429e-003,-1.230693e-004
-1.994924e-003,-1.220969e-004
-2.005782e-003,-1.057284e-004
-1.891688e-003,-7.671866e-005
-1.620229e-003,-4.219875e-005
-1.202586e-003,-1.156841e-005
-6.937012e-004,1.257933e-005
-1.705545e-004,3.154097e-005
2.955454e-004,4.320967e-005
6.371792e-004,4.661304e-005
7.955172e-004,4.580272e-005
7.379840e-004,4.580272e-005
4.715484e-004,4.742337e-005
6.897806e-005,5.163707e-005
-3.512573e-004,5.990240e-005
-6.680949e-004,6.735740e-005
-8.154122e-004,6.719534e-005
-7.915886e-004,6.022653e-005
-6.358439e-004,5.536457e-005
-4.063595e-004,5.730935e-005
-1.611547e-004,6.346784e-005
6.444023e-005,6.849186e-005
2.658874e-004,6.687120e-005
4.621486e-004,6.103685e-005
6.691061e-004,5.698522e-005
8.699052e-004,5.811968e-005
9.943715e-004,6.541262e-005
9.504518e-004,7.497447e-005
6.716992e-004,8.275361e-005
1.526038e-004,8.842590e-005
-5.222362e-004,9.247753e-005
-1.202100e-003,9.020861e-005
-1.743884e-003,8.275361e-005
-2.068826e-003,7.432621e-005
-2.180813e-003,6.978838e-005
-2.138838e-003,7.432621e-005
-2.000272e-003,8.664317e-005
-1.778891e-003,1.004187e-004
-1.456219e-003,1.109530e-004
-1.022856e-003,1.156529e-004
-4.922540e-004,1.117633e-004
1.034980e-004,1.007429e-004
7.091363e-004,8.680524e-005
1.255621e-003,7.351588e-005
1.689309e-003,6.573675e-005
1.995127e-003,6.265751e-005
2.193496e-003,6.087479e-005
2.329145e-003,5.860587e-005
2.448102e-003,5.682316e-005
2.574189e-003,5.649903e-005
2.706435e-003,6.087479e-005
2.830740e-003,6.832980e-005
2.897997e-003,7.562274e-005
2.792492e-003,8.178122e-005
2.344541e-003,8.307774e-005
1.443779e-003,7.886404e-005
1.561692e-004,7.027457e-005
-1.274381e-003,5.909207e-005
-2.557939e-003,5.034054e-005
-3.485604e-003,4.531652e-005
-3.939551e-003,4.175108e-005
-3.878452e-003,3.915804e-005
-3.348820e-003,3.397195e-005
-2.513858e-003,2.651694e-005
-1.619742e-003,2.133085e-005
-9.189720e-004,2.311357e-005
-5.844692e-004,2.959618e-005
-6.373025e-004,3.948217e-005
-9.382577e-004,5.147500e-005
-1.274057e-003,6.476436e-005
-1.481339e-003,7.805372e-005
-1.515210e-003,9.069480e-005
-1.426074e-003,9.912220e-005
-1.284591e-003,9.701536e-005
-1.131926e-003,8.064676e-005
-9.765051e-004,5.649903e-005
-8.089296e-004,3.769945e-005
-6.047274e-004,2.829966e-005
-3.275957e-004,2.376183e-005
4.531652e-005,1.695509e-005
4.997478e-004,2.207145e-006
9.697375e-004,-2.291298e-005
1.365178e-003,-5.467778e-005
1.616866e-003,-8.498399e-005
1.709243e-003,-1.084835e-004
1.678450e-003,-1.204763e-004
1.582184e-003,-1.222590e-004
1.473924e-003,-1.151281e-004
1.382519e-003,-1.015147e-004
1.323527e-003,-8.320127e-005
1.296948e-003,-5.986387e-005
1.281876e-003,-3.344722e-005
1.248976e-003,-1.124428e-005
1.184636e-003,9.106226e-007
1.095825e-003,5.610517e-006
1.010254e-003,7.555300e-006
9.553137e-004,1.047248e-005
9.447794e-004,1.582063e-005
9.797856e-004,2.765140e-005
1.052877e-003,4.515445e-005
1.157409e-003,6.525056e-005
1.285441e-003,8.518459e-005
1.406666e-003,1.000946e-004
1.473599e-003,1.057669e-004
1.431949e-003,1.030118e-004
1.244439e-003,9.588090e-005
9.188490e-004,9.037068e-005
5.052580e-004,9.377405e-005
6.006446e-005,1.060910e-004
-3.951770e-004,1.266733e-004
-8.476632e-004,1.530900e-004
-1.278433e-003,1.819376e-004
-1.680841e-003,2.059233e-004
-2.044678e-003,2.234263e-004
-2.313220e-003,2.300710e-004
-2.362974e-003,2.260194e-004
-2.054888e-003,2.109473e-004
-1.341638e-003,1.840444e-004
-3.219235e-004,1.467694e-004
7.942206e-004,1.030118e-004
1.741170e-003,5.730935e-005
2.297056e-003,9.338019e-006
2.357993e-003,-3.733679e-005
2.004041e-003,-7.801519e-005
1.491913e-003,-1.104282e-004
1.105548e-003,-1.381414e-004
9.924268e-004,-1.643960e-004
1.109600e-003,-1.888679e-004
1.303755e-003,-2.110708e-004
1.408935e-003,-2.276015e-004
1.321744e-003,-2.353806e-004
1.036833e-003,-2.276015e-004
6.256726e-004,-1.997262e-004
1.879340e-004,-1.574272e-004
-1.747682e-004,-1.089697e-004
-3.912874e-004,-6.035006e-005
-4.486585e-004,-1.513384e-005
-3.974459e-004,2.441009e-005
-3.058790e-004,5.828174e-005
-2.212809e-004,8.421220e-005
-1.585616e-004,9.977046e-005
-1.105903e-004,1.030118e-004
-6.553616e-005,9.490851e-005
-1.983374e-005,8.064676e-005
2.246531e-005,6.379197e-005
6.525056e-005,4.580272e-005
1.299146e-004,2.748933e-005
2.329882e-004,1.160693e-005
3.459477e-004,3.503668e-006
3.948915e-004,4.151929e-006
3.081865e-004,1.419998e-005
6.606088e-005,3.202716e-005
-2.903207e-004,5.179913e-005
-6.591813e-004,6.622294e-005
-9.184857e-004,7.610893e-005
-9.891462e-004,8.437427e-005
-8.531734e-004,9.426025e-005
-5.387668e-004,1.025256e-004
-1.347380e-004,1.064151e-004
2.127300e-004,1.025256e-004
3.454615e-004,9.442231e-005
1.464453e-004,8.518459e-005
-3.977700e-004,7.513654e-005
-1.179249e-003,6.735740e-005
-2.018261e-003,6.379197e-005
-2.741560e-003,6.136099e-005
-3.210092e-003,5.844381e-005
-3.342662e-003,5.423011e-005
-3.119983e-003,4.774750e-005
-2.586625e-003,4.369587e-005
-1.866892e-003,4.304760e-005
-1.129657e-003,3.948217e-005
-5.196431e-004,3.121684e-005
-1.152902e-004,2.116879e-005
8.793970e-005,1.355172e-005
1.485521e-004,1.241726e-005
1.381799e-004,1.582063e-005
1.171115e-004,1.938607e-005
1.148425e-004,1.971020e-005
1.362352e-004,1.565857e-005
1.804790e-004,8.041497e-006
2.462775e-004,1.396819e-006
3.273102e-004,-2.978945e-006
4.203357e-004,-2.330684e-006
5.208162e-004,4.151929e-006
6.167590e-004,1.031041e-005
6.930918e-004,9.986280e-006
7.503009e-004,5.124321e-006
8.050791e-004,-3.141010e-006
8.554814e-004,-1.189254e-005
8.687708e-004,-1.707863e-005
7.960033e-004,-1.675450e-005
5.956905e-004,-1.156841e-005
2.694529e-004,-5.896120e-006
-1.136696e-004,5.864920e-007
-4.368277e-004,8.203561e-006
-5.917621e-004,1.338965e-005
-5.279084e-004,1.079661e-005
-2.632558e-004,-1.196226e-006
1.449867e-004,-1.626830e-005
6.140039e-004,-2.453363e-005
1.039102e-003,-2.064406e-005
1.335195e-003,-6.706447e-006
1.459662e-003,1.095867e-005
1.410556e-003,2.424803e-005
1.236497e-003,3.429608e-005
1.014306e-003,4.256141e-005
7.963275e-004,5.163707e-005
5.990939e-004,6.395403e-005
4.200116e-004,7.448828e-005
2.475740e-004,7.675719e-005
9.588090e-005,7.335382e-005
1.371378e-005,6.768153e-005
4.677511e-005,6.362990e-005
1.892305e-004,6.265751e-005
3.576164e-004,6.330577e-005
4.222805e-004,6.330577e-005
2.905214e-004,6.071273e-005
-7.100305e-007,5.730935e-005
-2.903207e-004,5.633696e-005
-4.057112e-004,5.925414e-005
-2.577456e-004,6.168512e-005
1.198666e-004,5.957827e-005
5.853183e-004,5.341978e-005
9.473725e-004,5.179913e-005
1.045746e-003,5.649903e-005
8.438127e-004,6.476436e-005
4.407560e-004,6.962632e-005
1.558884e-006,6.768153e-005
-3.345645e-004,5.763348e-005
-5.131605e-004,4.483032e-005
-5.587008e-004,3.559260e-005
-5.305015e-004,3.559260e-005
-4.938747e-004,3.996836e-005
-5.095950e-004,4.596478e-005
-6.180167e-004,5.131293e-005
-8.233534e-004,5.585077e-005
-1.076662e-003,6.298164e-005
-1.296584e-003,7.221937e-005
-1.409057e-003,8.064676e-005
-1.371296e-003,8.486046e-005
-1.174387e-003,8.178122e-005
-8.413427e-004,7.562274e-005
-4.224039e-004,6.508849e-005
2.992031e-005,5.325772e-005
4.653899e-004,4.628891e-005
8.303613e-004,4.823369e-005
1.084318e-003,5.568870e-005
1.220129e-003,6.087479e-005
1.272152e-003,6.249544e-005
1.308617e-003,6.217131e-005
1.394673e-003,6.557468e-005
1.564518e-003,7.465034e-005
1.795462e-003,8.388807e-005
1.974221e-003,8.939829e-005
1.905018e-003,8.729143e-005
1.407477e-003,7.465034e-005
4.483731e-004,5.212327e-005
-7.864025e-004,2.700314e-005
-1.978393e-003,8.203561e-006
-2.847551e-003,-2.238345e-007
-3.220302e-003,-1.358292e-006
-3.038626e-003,1.072688e-006
-2.336396e-003,5.772582e-006
-1.235648e-003,8.527692e-006
5.423011e-005,8.041497e-006
1.246059e-003,5.286386e-006
2.077457e-003,9.106226e-007
2.402723e-003,-5.896120e-006
2.220075e-003,-1.707863e-005
1.668402e-003,-3.182657e-005
9.825408e-004,-4.608832e-005
3.939191e-004,-5.483985e-005
4.515445e-005,-5.662256e-005
-5.646050e-005,-4.884343e-005
-1.691656e-005,-3.036798e-005
4.094075e-005,-7.192643e-006
5.649903e-005,1.436204e-005
2.035846e-005,2.489629e-005
-8.498399e-005,2.116879e-005
-2.887001e-004,6.096713e-006
-5.953276e-004,-1.805102e-005
-9.774775e-004,-4.625038e-005
-1.406788e-003,-7.201877e-005
-1.851658e-003,-9.162867e-005
-2.240615e-003,-1.032974e-004
-2.452597e-003,-1.023250e-004
-2.372212e-003,-8.822530e-005
-1.954569e-003,-6.650855e-005
-1.280702e-003,-3.879538e-005
-5.465459e-004,-5.085794e-006
1.072688e-006,3.137890e-005
1.916615e-004,5.730935e-005
2.748933e-005,6.832980e-005
-3.290543e-004,6.995045e-005
-6.504298e-004,6.978838e-005
-7.685754e-004,7.335382e-005
-6.279027e-004,7.935023e-005
-2.796244e-004,8.502253e-005
1.616794e-004,8.615698e-005
5.636016e-004,8.502253e-005
8.254993e-004,8.875003e-005
9.089630e-004,9.685329e-005
8.370059e-004,1.013911e-004
6.798024e-004,9.879807e-005
5.182232e-004,9.118101e-005
4.114221e-004,8.599491e-005
3.853296e-004,8.842590e-005
4.290873e-004,9.847395e-005
5.162784e-004,1.104668e-004
6.177314e-004,1.156529e-004
7.165913e-004,1.067393e-004
8.057273e-004,8.745350e-005
8.760637e-004,6.395403e-005
9.233868e-004,4.434413e-005
9.441312e-004,3.769945e-005
9.266281e-004,4.547859e-005
8.465678e-004,6.087479e-005
6.825575e-004,7.465034e-005
4.425387e-004,7.935023e-005
1.615174e-004,7.400208e-005
-1.028112e-004,6.314371e-005
-2.997205e-004,5.244739e-005
-3.920977e-004,4.061663e-005
-3.546606e-004,2.846173e-005
-1.880575e-004,1.792748e-005
8.891209e-005,6.907039e-006
4.433490e-004,-6.220251e-006
8.216097e-004,-1.902341e-005
1.152872e-003,-2.858526e-005
1.393701e-003,-3.344722e-005
1.550094e-003,-3.490581e-005
1.655437e-003,-3.652646e-005
1.734363e-003,-3.863331e-005
1.775042e-003,-3.944364e-005
1.735660e-003,-3.620233e-005
1.571649e-003,-3.036798e-005
1.259673e-003,-2.485776e-005
8.138305e-004,-1.999580e-005
2.767458e-004,-1.432352e-005
-3.027998e-004,-8.327101e-006
-8.878554e-004,-1.358292e-006
-1.447467e-003,7.393235e-006
-1.948735e-003,1.582063e-005
-2.360381e-003,2.246531e-005
-2.639134e-003,2.829966e-005
-2.711578e-003,3.559260e-005
-2.489386e-003,4.223728e-005
-1.928315e-003,4.709924e-005
-1.107292e-003,4.888196e-005
-2.376495e-004,4.742337e-005
4.166082e-004,4.564065e-005
6.704027e-004,4.126489e-005
5.439916e-004,3.737532e-005
2.547049e-004,3.462021e-005
7.772959e-005,2.943412e-005
1.884202e-004,2.149292e-005
5.841838e-004,1.549650e-005
1.092907e-003,1.711715e-005
1.461445e-003,3.024445e-005
1.477651e-003,5.179913e-005
1.043964e-003,7.319175e-005
1.872858e-004,8.745350e-005
-9.408508e-004,9.085687e-005
-2.069312e-003,8.615698e-005
-2.889039e-003,7.691926e-005
-3.170062e-003,6.622294e-005
-2.864243e-003,5.714729e-005
-2.124090e-003,5.147500e-005
-1.212310e-003,5.212327e-005
-3.849668e-004,5.730935e-005
1.911753e-004,6.525056e-005
4.777069e-004,7.124698e-005
5.407503e-004,7.319175e-005
4.840274e-004,7.221937e-005
4.007258e-004,7.076077e-005
3.673404e-004,7.076077e-005
4.354078e-004,7.302969e-005
6.070351e-004,7.546067e-005
8.243648e-004,7.448828e-005
9.886991e-004,6.832980e-005
1.013171e-003,5.568870e-005
8.703914e-004,4.223728e-005
6.183797e-004,3.364782e-005
3.997534e-004,3.251336e-005
3.914881e-004,3.575467e-005
7.208050e-004,3.948217e-005
1.372146e-003,4.515445e-005
2.156545e-003,5.406805e-005
2.792330e-003,6.606088e-005
3.001882e-003,7.513654e-005
2.621999e-003,7.497447e-005
1.708919e-003,6.557468e-005
5.033132e-004,4.920609e-005
-6.774946e-004,3.121684e-005
-1.580198e-003,2.019640e-005
-2.092001e-003,2.295151e-005
-2.203016e-003,3.850977e-005
-1.984227e-003,5.990240e-005
-1.569016e-003,7.886404e-005
-1.102268e-003,8.956035e-005
-6.954839e-004,8.664317e-005
-4.050630e-004,6.800567e-005
-2.483458e-004,4.256141e-005
-2.235498e-004,2.586868e-005
-3.204648e-004,2.457216e-005
-4.998712e-004,3.656499e-005
-6.674466e-004,5.244739e-005
-7.001838e-004,6.395403e-005
-5.011677e-004,6.703327e-005
-4.787104e-005,6.152305e-005
5.843459e-004,5.196120e-005
1.253676e-003,3.948217e-005
1.813451e-003,2.765140e-005
2.182637e-003,1.792748e-005
2.356048e-003,9.013888e-006
2.360424e-003,-5.479652e-007
2.230609e-003,-1.416145e-005
1.994641e-003,-3.036798e-005
1.674885e-003,-4.787104e-005
1.284145e-003,-6.504996e-005
8.358714e-004,-7.979790e-005
3.522683e-004,-9.146661e-005
-1.243659e-004,-1.015147e-004
-5.395771e-004,-1.117248e-004
-8.428013e-004,-1.255003e-004
-1.002436e-003,-1.407345e-004
-1.021559e-003,-1.593720e-004
-9.384198e-004,-1.786577e-004
-7.945058e-004,-1.880575e-004
-6.170443e-004,-1.750923e-004
-4.157593e-004,-1.365208e-004
-2.006986e-004,-7.898758e-005
8.203561e-006,-1.724069e-005
1.890685e-004,3.526847e-005
3.250413e-004,6.687120e-005
4.063981e-004,7.416414e-005
4.310320e-004,6.314371e-005
4.112601e-004,4.628891e-005
3.801435e-004,3.364782e-005
3.804677e-004,2.894792e-005
4.655520e-004,3.445814e-005
6.700785e-004,4.774750e-005
9.974508e-004,6.687120e-005
1.398725e-003,8.648111e-005
1.746356e-003,1.025256e-004
1.841975e-003,1.117633e-004
1.499044e-003,1.148425e-004
6.533858e-004,1.130598e-004
-5.621042e-004,1.080358e-004
-1.878723e-003,1.033359e-004
-3.028254e-003,1.038221e-004
-3.803091e-003,1.047945e-004
-4.088976e-003,1.041462e-004
-3.894497e-003,9.636710e-005
-3.335855e-003,8.259154e-005
-2.587273e-003,6.784360e-005
-1.814545e-003,5.309565e-005
-1.140839e-003,3.737532e-005
-6.343853e-004,1.954813e-005
-3.136581e-004,1.072688e-006
-1.554824e-004,-1.432352e-005
-1.070249e-004,-2.177852e-005
-1.078352e-004,-2.031993e-005
-1.123730e-004,-1.043395e-005
-1.018388e-004,4.800190e-006
-7.153257e-005,2.035846e-005
-1.448558e-005,3.802358e-005
8.242948e-005,6.233338e-005
2.250470e-004,8.842590e-005
4.013741e-004,1.111150e-004
5.918010e-004,1.253768e-004
7.780141e-004,1.284560e-004
9.561240e-004,1.216493e-004
1.132289e-003,1.075496e-004
1.306834e-003,9.069480e-005
1.464524e-003,7.367795e-005
1.557874e-003,6.362990e-005
1.512657e-003,6.541262e-005
1.255783e-003,7.254349e-005
7.736383e-004,7.935023e-005
1.281319e-004,8.356393e-005
-5.630766e-004,8.259154e-005
-1.179249e-003,7.610893e-005
-1.647780e-003,6.168512e-005
-1.950032e-003,4.320967e-005
-2.115500e-003,2.781346e-005
-2.192481e-003,1.630683e-005
-2.194426e-003,9.824214e-006
-2.095080e-003,6.907039e-006
-1.865920e-003,6.582909e-006
-1.500138e-003,8.203561e-006
-1.019452e-003,1.176900e-005
-4.815578e-004,1.906194e-005
2.376183e-005,2.619281e-005
4.110980e-004,3.073064e-005
6.451205e-004,2.975825e-005
7.454389e-004,2.343770e-005
7.566215e-004,1.241726e-005
7.233981e-004,1.002961e-007
6.893643e-004,-9.623623e-006
6.859609e-004,-1.351319e-005
7.161051e-004,-1.092015e-005
7.665075e-004,-7.100305e-007
8.169098e-004,1.549650e-005
8.520780e-004,3.413401e-005
8.668260e-004,4.969228e-005
8.605054e-004,6.265751e-005
8.327922e-004,7.529860e-005
7.833623e-004,8.437427e-005
7.292324e-004,8.405013e-005
6.997365e-004,7.497447e-005
7.034640e-004,5.909207e-005
7.157809e-004,4.239934e-005
7.091363e-004,2.262737e-005
6.903367e-004,-5.479652e-007
6.880678e-004,-2.242678e-005
7.221015e-004,-3.798505e-005
8.041066e-004,-4.349527e-005
9.386210e-004,-3.847125e-005
1.137313e-003,-2.388537e-005
1.391108e-003,-3.789271e-006
1.634369e-003,1.533444e-005
1.752839e-003,2.829966e-005
1.616379e-003,2.975825e-005
1.150279e-003,2.214118e-005
4.099635e-004,1.241726e-005
-4.279141e-004,1.031041e-005
-1.154615e-003,1.987226e-005
-1.630601e-003,3.705119e-005
-1.827024e-003,5.098881e-005
-1.803524e-003,5.682316e-005
-1.650211e-003,5.649903e-005
-1.426723e-003,5.568870e-005
-1.144567e-003,5.714729e-005
-7.922369e-004,6.314371e-005
-3.698948e-004,7.076077e-005
9.020861e-005,7.789165e-005
5.365366e-004,8.323980e-005
9.206317e-004,7.967437e-005
1.199871e-003,6.330577e-005
1.349943e-003,3.705119e-005
1.364691e-003,1.290346e-005
1.246059e-003,-7.100305e-007
1.033105e-003,-2.238345e-007
8.019998e-004,1.322759e-005
6.156245e-004,3.559260e-005
4.837033e-004,6.200925e-005
3.647473e-004,8.810177e-005
2.111093e-004,1.062531e-004
2.716520e-005,1.137081e-004
-1.188556e-004,1.112771e-004
-1.527273e-004,1.038221e-004
-5.889147e-005,9.669123e-005
1.070634e-004,9.588090e-005
2.482223e-004,1.022014e-004
2.890628e-004,1.077117e-004
2.093266e-004,1.047945e-004
4.110282e-005,9.037068e-005
-1.671511e-004,6.703327e-005
-3.955011e-004,4.434413e-005
-6.937012e-004,2.894792e-005
-1.145539e-003,1.841368e-005
-1.757174e-003,7.069104e-006
-2.403167e-003,-9.299492e-006
-2.876398e-003,-3.344722e-005
-2.982065e-003,-6.391550e-005
-2.610124e-003,-9.616650e-005
-1.804821e-003,-1.240417e-004
-7.594997e-004,-1.428413e-004
2.637806e-004,-1.477033e-004
1.035860e-003,-1.370070e-004
1.465820e-003,-1.125351e-004
1.605683e-003,-8.255302e-005
1.580239e-003,-5.192267e-005
1.510064e-003,-2.242678e-005
1.461282e-003,7.231170e-006
1.436162e-003,3.543053e-005
1.388191e-003,5.325772e-005
1.263238e-003,5.795762e-005
1.035212e-003,5.098881e-005
7.216153e-004,3.883391e-005
3.631267e-004,2.619281e-005
-2.816880e-006,1.452411e-005
-3.485022e-004,2.855406e-006
-6.381128e-004,-8.975361e-006
-8.094158e-004,-1.902341e-005
-7.860784e-004,-2.226472e-005
-5.309877e-004,-1.318906e-005
-9.956987e-005,6.744974e-006
3.707437e-004,3.056858e-005
7.242084e-004,5.115087e-005
8.423541e-004,6.233338e-005
6.885540e-004,6.573675e-005
3.577785e-004,6.606088e-005
2.214118e-005,6.703327e-005
-1.780095e-004,6.703327e-005
-1.959987e-004,6.573675e-005
-6.440169e-005,6.152305e-005
1.414213e-004,5.957827e-005
3.404375e-004,6.865393e-005
4.728449e-004,8.421220e-005
5.055821e-004,1.009049e-004
4.441593e-004,1.127357e-004
3.271481e-004,1.158149e-004
2.062474e-004,1.083599e-004
1.211631e-004,9.296372e-005
7.610893e-005,6.946425e-005
4.547859e-005,4.239934e-005
4.962256e-006,1.436204e-005
-4.365734e-005,-1.156841e-005
-6.440169e-005,-3.328516e-005
-1.545797e-005,-5.483985e-005
1.177597e-004,-8.044616e-005
3.002453e-004,-1.044318e-004
4.819206e-004,-1.186936e-004
6.365310e-004,-1.178833e-004
7.465734e-004,-1.023250e-004
8.010274e-004,-7.266703e-005
7.943827e-004,-3.182657e-005
7.313393e-004,1.338965e-005
6.214589e-004,5.260946e-005
4.777069e-004,8.242948e-005
3.020280e-004,1.059289e-004
1.140322e-004,1.231079e-004
-5.824321e-005,1.315353e-004
-2.209568e-004,1.310491e-004
-3.980942e-004,1.276457e-004
-6.144513e-004,1.231079e-004
-8.948242e-004,1.180839e-004
-1.265792e-003,1.124116e-004
-1.741129e-003,1.091703e-004
-2.298148e-003,1.064151e-004
-2.857599e-003,9.588090e-005
-3.267787e-003,7.691926e-005
-3.355951e-003,5.779555e-005
-3.019016e-003,4.774750e-005
-2.287452e-003,5.082674e-005
-1.300150e-003,5.957827e-005
-2.494803e-004,6.444023e-005
6.879057e-004,6.687120e-005
1.409421e-003,7.221937e-005
1.903722e-003,8.372600e-005
2.200465e-003,9.847395e-005
2.339517e-003,1.103047e-004
2.358803e-003,1.103047e-004
2.290411e-003,9.685329e-005
2.159624e-003,7.708132e-005
2.015385e-003,5.779555e-005
1.926573e-003,4.272347e-005
1.952018e-003,3.121684e-005
2.090908e-003,2.100672e-005
2.246978e-003,1.176900e-005
2.244709e-003,4.962256e-006
1.916525e-003,5.286386e-006
1.219156e-003,1.274139e-005
2.801492e-004,2.084466e-005
-6.698776e-004,2.084466e-005
-1.430936e-003,8.041497e-006
-1.909353e-003,-1.562004e-005
-2.108369e-003,-3.944364e-005
-2.102859e-003,-6.051213e-005
-2.006268e-003,-8.060822e-005
-1.925560e-003,-9.811128e-005
-1.925236e-003,-1.099420e-004
-2.002703e-003,-1.164247e-004
-2.099294e-003,-1.173971e-004
-2.128142e-003,-1.112386e-004
-2.021178e-003,-9.600443e-005
-1.741940e-003,-7.363942e-005
-1.293829e-003,-4.900549e-005
-7.249798e-004,-2.761287e-005
-1.352242e-004,-1.302699e-005
3.435167e-004,-4.599598e-006
5.835355e-004,-1.196226e-006
5.070407e-004,4.244267e-007
1.133840e-004,4.638125e-006
-4.901472e-004,1.679302e-005
-1.105185e-003,3.883391e-005
-1.519262e-003,6.573675e-005
-1.584250e-003,9.344992e-005
-1.269033e-003,1.154908e-004
-6.473506e-004,1.269974e-004
1.349386e-004,1.261871e-004
8.922702e-004,1.195424e-004
1.444428e-003,1.090082e-004
1.659813e-003,1.005808e-004
1.485430e-003,9.896014e-005
9.836751e-004,1.028497e-004
3.263378e-004,1.083599e-004
-2.731418e-004,1.104668e-004
-6.633950e-004,1.090082e-004
-8.126571e-004,1.098185e-004
-7.912645e-004,1.140322e-004
-7.040733e-004,1.205148e-004
-6.113721e-004,1.242423e-004
-4.912817e-004,1.278078e-004
-2.825416e-004,1.359110e-004
5.455424e-005,1.438522e-004
4.864584e-004,1.435281e-004
9.039390e-004,1.347766e-004
1.193064e-003,1.247285e-004
1.279121e-003,1.188942e-004
1.135044e-003,1.159770e-004
8.224201e-004,1.128978e-004
4.736553e-004,1.044704e-004
2.070577e-004,9.377405e-005
6.881599e-005,7.999850e-005
2.359977e-005,6.541262e-005
9.986280e-006,5.293359e-005
2.473422e-005,4.223728e-005
1.357490e-004,2.829966e-005
3.958639e-004,5.772582e-006
7.812554e-004,-1.934754e-005
1.205381e-003,-3.312309e-005
1.547826e-003,-3.198863e-005
1.692550e-003,-2.096819e-005
1.592232e-003,-7.030578e-006
1.306510e-003,3.179537e-006
9.783270e-004,4.800190e-006
7.391184e-004,-1.196226e-006
6.357207e-004,-1.335112e-005
6.444722e-004,-2.745081e-005
7.115673e-004,-4.576419e-005
7.786624e-004,-6.780506e-005
8.045929e-004,-8.952182e-005
7.815795e-004,-1.008664e-004
7.183740e-004,-9.875954e-005
6.229175e-004,-8.806324e-005
4.992615e-004,-7.526008e-005
3.383307e-004,-6.586029e-005
1.156529e-004,-6.116039e-005
-2.028055e-004,-5.808115e-005
-6.698776e-004,-5.257093e-005
-1.333859e-003,-4.625038e-005
-2.182272e-003,-3.847125e-005
-3.108639e-003,-2.501983e-005
-3.894821e-003,-1.108221e-005
-4.282483e-003,-3.951337e-006
-4.097079e-003,-3.951337e-006
-3.330507e-003,-2.978945e-006
-2.156179e-003,2.207145e-006
-8.536596e-004,1.014835e-005
2.905214e-004,1.825161e-005
1.087073e-003,2.295151e-005
1.517357e-003,2.327564e-005
1.702923e-003,2.295151e-005
1.805510e-003,2.392390e-005
1.934514e-003,2.667901e-005
2.097391e-003,2.959618e-005
2.243088e-003,3.267542e-005
2.319097e-003,3.672705e-005
2.292032e-003,4.126489e-005
2.152331e-003,4.304760e-005
1.900805e-003,3.850977e-005
1.557225e-003,3.121684e-005
1.160651e-003,2.424803e-005
7.720176e-004,2.181705e-005
4.499937e-004,2.667901e-005
2.281262e-004,4.013043e-005
1.080358e-004,5.811968e-005
6.265751e-005,7.400208e-005
5.714729e-005,8.291567e-005
6.427816e-005,8.648111e-005
7.416414e-005,8.923622e-005
7.902610e-005,9.312579e-005
7.173317e-005,9.960840e-005
4.742337e-005,1.060910e-004
1.533444e-005,1.103047e-004
-2.356124e-005,1.064151e-004
-8.336334e-005,9.571883e-005
-1.695821e-004,8.421220e-005
-2.622834e-004,7.465034e-005
-3.227338e-004,7.108490e-005
-3.151167e-004,7.270556e-005
-2.133397e-004,7.481241e-005
-2.420950e-005,7.286762e-005
1.989545e-004,6.832980e-005
3.799814e-004,6.055066e-005
4.637692e-004,4.693717e-005
4.362181e-004,2.554455e-005
3.140208e-004,3.665733e-006
1.231079e-004,-1.383732e-005
-1.146419e-004,-2.923352e-005
-3.946908e-004,-4.900549e-005
-7.141214e-004,-7.688072e-005
-1.030959e-003,-1.052422e-004
-1.267412e-003,-1.272830e-004
-1.348445e-003,-1.379793e-004
-1.242292e-003,-1.342519e-004
-9.747224e-004,-1.167488e-004
-6.191512e-004,-8.628051e-005
-2.671454e-004,-4.706071e-005
5.934647e-006,-6.382316e-006
1.551968e-004,2.959618e-005
1.628139e-004,5.941620e-005
4.596478e-005,8.064676e-005
-1.421931e-004,9.296372e-005
-3.327818e-004,1.005808e-004
-4.669719e-004,1.060910e-004
-5.183466e-004,1.125736e-004
-4.912817e-004,1.184080e-004
-4.074939e-004,1.206769e-004
-2.904828e-004,1.180839e-004
-1.590478e-004,1.120874e-004
-2.339917e-005,1.065772e-004
9.555677e-005,1.044704e-004
1.825858e-004,1.070634e-004
2.453051e-004,1.117633e-004
3.078624e-004,1.099806e-004
3.918122e-004,1.009049e-004
5.047718e-004,8.939829e-005
6.376654e-004,7.772959e-005
7.815795e-004,6.638501e-005
9.280867e-004,5.957827e-005
1.063249e-003,5.698522e-005
1.171833e-003,5.196120e-005
1.238928e-003,4.369587e-005
1.253028e-003,3.818564e-005
1.214619e-003,3.705119e-005
1.148334e-003,3.769945e-005
1.102307e-003,3.656499e-005
1.123538e-003,2.992031e-005
1.232284e-003,2.197911e-005
1.419145e-003,1.825161e-005
1.650899e-003,1.906194e-005
1.863530e-003,2.214118e-005
1.925277e-003,2.214118e-005
1.643120e-003,2.084466e-005
8.676364e-004,1.711715e-005
-3.729740e-004,1.112074e-005
-1.828321e-003,9.106226e-007
-3.168603e-003,-1.318906e-005
-4.106317e-003,-2.712668e-005
-4.474370e-003,-3.766092e-005
-4.288318e-003,-4.300908e-005
-3.722545e-003,-4.349527e-005
-3.022257e-003,-4.333321e-005
-2.397170e-003,-4.219875e-005
-1.963807e-003,-3.749886e-005
-1.750691e-003,-2.907146e-005
-1.709689e-003,-1.837515e-005
-1.749395e-003,-5.571990e-006
-1.768194e-003,1.193106e-005
-1.671927e-003,3.332369e-005
-1.404682e-003,5.390598e-005
-9.684018e-004,6.930219e-005
-4.240246e-004,7.870197e-005
1.432040e-004,8.615698e-005
6.503065e-004,9.377405e-005
1.045098e-003,1.026876e-004
1.301972e-003,1.130598e-004
1.405370e-003,1.237561e-004
1.334547e-003,1.310491e-004
1.077349e-003,1.321835e-004
6.767232e-004,1.278078e-004
2.571359e-004,1.151667e-004
-3.539201e-005,9.490851e-005
-1.289037e-004,6.962632e-005
-4.657451e-005,3.915804e-005
1.808031e-004,6.096713e-006
5.486915e-004,-2.210265e-005
1.035536e-003,-4.074016e-005
1.555281e-003,-4.462973e-005
1.973734e-003,-3.279896e-005
2.159462e-003,-8.813297e-006
2.025920e-003,2.359977e-005
1.604873e-003,5.974033e-005
1.061791e-003,9.409818e-005
6.366930e-004,1.208390e-004
5.323229e-004,1.355869e-004
8.024860e-004,1.336421e-004
1.295489e-003,1.177597e-004
1.758673e-003,9.442231e-005
1.948614e-003,7.302969e-005
1.717346e-003,6.233338e-005
1.086587e-003,6.427816e-005
2.410914e-004,7.319175e-005
-5.604835e-004,8.032263e-005
-1.120257e-003,7.675719e-005
-1.367082e-003,5.520250e-005
-1.344231e-003,1.371378e-005
-1.156884e-003,-3.571614e-005
-9.162169e-004,-7.671866e-005
-7.035872e-004,-9.778715e-005
-5.488148e-004,-9.405964e-005
-4.400690e-004,-6.974985e-005
-3.536882e-004,-3.393342e-005
-2.744383e-004,2.531276e-006
-2.029675e-004,3.543053e-005
-1.397621e-004,5.779555e-005
-7.914964e-005,6.427816e-005
-1.335112e-005,5.682316e-005
6.233338e-005,4.207521e-005
1.433660e-004,2.424803e-005
2.115955e-004,5.610517e-006
2.525981e-004,-1.578211e-005
2.509774e-004,-3.944364e-005
2.034923e-004,-6.002593e-005
1.297525e-004,-7.153257e-005
6.930219e-005,-6.812920e-005
6.168512e-005,-5.338126e-005
1.331559e-004,-3.895744e-005
2.861456e-004,-3.296103e-005
4.916445e-004,-3.344722e-005
7.000606e-004,-3.490581e-005
8.692570e-004,-3.360929e-005
9.741134e-004,-2.518189e-005
1.003933e-003,-1.124428e-005
9.656859e-004,2.207145e-006
8.715259e-004,1.322759e-005
7.386322e-004,2.457216e-005
5.845079e-004,3.867184e-005
4.217943e-004,5.196120e-005
2.456293e-004,5.957827e-005
4.029249e-005,6.525056e-005
-2.053985e-004,6.768153e-005
-5.040848e-004,6.654707e-005
-8.771591e-004,5.974033e-005
-1.330618e-003,4.888196e-005
-1.813572e-003,3.462021e-005
-2.199612e-003,1.954813e-005
-2.349847e-003,7.069104e-006
-2.177572e-003,3.665733e-006
-1.688944e-003,1.128280e-005
-9.836360e-004,2.667901e-005
-2.032917e-004,4.483032e-005
4.997478e-004,6.168512e-005
1.003609e-003,7.076077e-005
1.253352e-003,7.140904e-005
1.276852e-003,6.525056e-005
1.171347e-003,5.666109e-005
1.040398e-003,4.839576e-005
9.182007e-004,4.142695e-005
7.571077e-004,3.899597e-005
4.636072e-004,4.191315e-005
-3.134038e-005,4.936815e-005
-7.159041e-004,5.536457e-005
-1.467725e-003,5.455424e-005
-2.082115e-003,5.082674e-005
-2.373509e-003,5.017848e-005
-2.285183e-003,5.520250e-005
-1.905626e-003,6.525056e-005
-1.398037e-003,7.562274e-005
-9.131376e-004,8.226741e-005
-5.308256e-004,8.323980e-005
-2.395943e-004,7.870197e-005
1.582063e-005,7.432621e-005
2.642668e-004,7.108490e-005
4.901859e-004,6.703327e-005
6.704027e-004,6.071273e-005
8.084824e-004,5.487837e-005
9.222524e-004,5.455424e-005
1.022085e-003,6.136099e-005
1.109924e-003,7.546067e-005
1.183988e-003,9.134307e-005
1.241846e-003,1.013911e-004
1.287224e-003,1.026876e-004
1.317206e-003,9.361198e-005
1.317530e-003,7.513654e-005
1.269397e-003,5.455424e-005
1.160975e-003,3.656499e-005
1.009281e-003,2.262737e-005
8.600192e-004,1.501031e-005
7.593766e-004,1.225519e-005
7.331220e-004,1.403791e-005
7.755831e-004,1.954813e-005
8.532125e-004,2.846173e-005
9.240351e-004,3.640293e-005
9.613102e-004,4.256141e-005
9.348935e-004,4.466826e-005
7.853070e-004,3.948217e-005
4.555039e-004,2.943412e-005
-4.527799e-005,1.663096e-005
-6.026205e-004,-2.238345e-007
-1.043600e-003,-1.643037e-005
-1.246506e-003,-2.826113e-005
-1.197562e-003,-3.296103e-005
-9.696984e-004,-2.890940e-005
-6.690673e-004,-1.934754e-005
-3.979321e-004,-1.173047e-005
-2.076674e-004,-1.027188e-005
-7.396355e-005,-1.043395e-005
5.990240e-005,-1.010982e-005
2.156472e-004,-9.137427e-006
3.668542e-004,-5.571990e-006
4.660382e-004,-1.196226e-006
4.543695e-004,3.341602e-006
2.754493e-004,8.365628e-006
-5.338126e-005,1.079661e-005
-4.214316e-004,8.041497e-006
-6.954839e-004,-7.100305e-007
-7.898059e-004,-1.351319e-005
-6.972667e-004,-2.745081e-005
-4.906334e-004,-4.284701e-005
-2.796244e-004,-5.743289e-005
-1.559686e-004,-6.667061e-005
-1.684476e-004,-6.423963e-005
-3.332680e-004,-5.111234e-005
-6.465402e-004,-3.134038e-005
-1.062886e-003,-9.623623e-006
-1.460756e-003,8.041497e-006
-1.678410e-003,2.068259e-005
-1.590084e-003,3.283749e-005
-1.149753e-003,5.034054e-005
-4.339106e-004,6.930219e-005
3.472442e-004,8.388807e-005
9.229006e-004,8.826383e-005
1.093880e-003,8.323980e-005
8.107513e-004,7.173317e-005
2.234263e-004,5.649903e-005
-3.901529e-004,3.688912e-005
-7.641996e-004,1.598270e-005
-7.479931e-004,1.002961e-007
-3.643846e-004,-9.137427e-006
1.864754e-004,-1.237873e-005
6.251864e-004,-9.623623e-006
7.799589e-004,-3.303075e-006
6.849886e-004,5.772582e-006
5.321608e-004,1.565857e-005
5.483674e-004,2.910999e-005
8.336026e-004,4.790957e-005
1.316396e-003,6.930219e-005
1.824472e-003,8.858796e-005
2.163514e-003,9.912220e-005
2.176641e-003,9.863601e-005
1.782659e-003,9.053274e-005
1.003285e-003,8.210535e-005
-2.339917e-005,7.351588e-005
-1.059320e-003,6.638501e-005
-1.852954e-003,6.314371e-005
-2.233808e-003,6.265751e-005
-2.154396e-003,6.508849e-005
-1.692023e-003,6.816773e-005
-1.004867e-003,7.059870e-005
-2.642282e-004,7.302969e-005
3.892192e-004,8.016056e-005
8.613158e-004,9.442231e-005
1.111059e-003,1.107909e-004
1.151089e-003,1.222975e-004
1.043639e-003,1.266733e-004
8.856255e-004,1.234320e-004
7.567835e-004,1.080358e-004
7.010330e-004,8.064676e-005
7.199947e-004,4.709924e-005
7.747728e-004,1.776542e-005
8.078341e-004,-2.654814e-006
7.700729e-004,-1.562004e-005
6.504686e-004,-2.404744e-005
4.687933e-004,-2.826113e-005
2.551911e-004,-2.826113e-005
3.137890e-005,-2.339917e-005
-1.898402e-004,-1.983374e-005
-4.100870e-004,-2.745081e-005
-6.319543e-004,-4.819516e-005
-8.274050e-004,-7.574627e-005
-9.520333e-004,-9.794922e-005
-9.818532e-004,-1.076731e-004
-9.222133e-004,-1.011905e-004
-7.883473e-004,-8.239095e-005
-5.980827e-004,-5.662256e-005
-3.596847e-004,-3.215070e-005
-9.713889e-005,-1.189254e-005
1.282940e-004,9.500084e-006
2.548670e-004,3.753739e-005
2.577842e-004,6.832980e-005
1.642725e-004,9.215340e-005
5.860587e-005,1.075496e-004
5.876794e-005,1.164632e-004
2.723700e-004,1.206769e-004
7.436562e-004,1.221355e-004
1.393215e-003,1.205148e-004
2.021058e-003,1.159770e-004
2.412771e-003,1.073875e-004
2.422333e-003,9.020861e-005
2.031754e-003,6.946425e-005
1.367609e-003,5.260946e-005
6.357207e-004,4.547859e-005
1.322759e-005,4.304760e-005
-4.183523e-004,3.948217e-005
-6.912702e-004,3.510640e-005
-9.071411e-004,3.299956e-005
-1.170659e-003,4.061663e-005
-1.537737e-003,5.601283e-005
-1.985686e-003,7.270556e-005
-2.406408e-003,8.486046e-005
-2.664903e-003,9.458438e-005
-2.673654e-003,1.018773e-004
-2.419698e-003,1.059289e-004
-1.967211e-003,1.046324e-004
-1.436771e-003,9.960840e-005
-9.552746e-004,9.539470e-005
-6.035930e-004,9.490851e-005
-3.990665e-004,9.896014e-005
-3.104168e-004,1.022014e-004
-2.734659e-004,9.652916e-005
-2.261429e-004,8.097089e-005
-1.582375e-004,5.682316e-005
-1.255003e-004,2.894792e-005
-1.864369e-004,5.610517e-006
-3.415334e-004,-5.247859e-006
-5.204534e-004,-1.034161e-006
-6.277406e-004,1.144487e-005
-6.055377e-004,2.570661e-005
-4.528722e-004,3.753739e-005
-2.110708e-004,4.369587e-005
7.173317e-005,4.564065e-005
3.652335e-004,4.337174e-005
6.626235e-004,4.191315e-005
9.489931e-004,4.418206e-005
1.187716e-003,5.066468e-005
1.331792e-003,5.957827e-005
1.363233e-003,6.849186e-005
1.302782e-003,7.691926e-005
1.208460e-003,8.405013e-005
1.139906e-003,9.263960e-005
1.121917e-003,1.030118e-004
1.135855e-003,1.090082e-004
1.142661e-003,1.067393e-004
1.108466e-003,9.604297e-005
1.024029e-003,7.967437e-005
8.938909e-004,6.071273e-005
7.261531e-004,4.288554e-005
5.234093e-004,2.797553e-005
2.898731e-004,1.549650e-005
4.191315e-005,1.883015e-006
-1.812508e-004,-1.594417e-005
-3.329439e-004,-3.782299e-005
-3.862634e-004,-6.148453e-005
-3.473677e-004,-8.384953e-005
-2.520733e-004,-1.050801e-004
-1.452723e-004,-1.250141e-004
-6.423963e-005,-1.400862e-004
-2.842320e-005,-1.475412e-004
-3.733679e-005,-1.439758e-004
-7.363942e-005,-1.329553e-004
-1.165867e-004,-1.227452e-004
-1.420310e-004,-1.193418e-004
-1.327932e-004,-1.240417e-004
-8.417366e-005,-1.339277e-004
-6.220251e-006,-1.420310e-004
7.886404e-005,-1.457585e-004
1.454729e-004,-1.449481e-004
1.607070e-004,-1.405724e-004
8.323980e-005,-1.269589e-004
-1.076731e-004,-1.010285e-004
-3.831841e-004,-6.715681e-005
-6.556159e-004,-3.150244e-005
-8.137916e-004,-5.247859e-006
-8.064986e-004,1.290346e-005
-6.551297e-004,2.846173e-005
-4.141386e-004,4.531652e-005
-1.498101e-004,6.103685e-005
6.962632e-005,6.849186e-005
1.832341e-004,7.011251e-005
1.522796e-004,6.735740e-005
-3.377135e-005,6.087479e-005
-3.209511e-004,5.260946e-005
-5.796073e-004,4.936815e-005
-6.517263e-004,5.520250e-005
-4.421759e-004,6.622294e-005
1.079661e-005,7.708132e-005
5.376711e-004,8.826383e-005
9.175524e-004,9.993253e-005
9.750857e-004,1.125736e-004
6.404205e-004,1.244044e-004
-2.242678e-005,1.265113e-004
-8.549562e-004,1.141943e-004
-1.694455e-003,9.685329e-005
-2.409973e-003,8.421220e-005
-2.905084e-003,8.064676e-005
-3.101508e-003,8.291567e-005
-2.926477e-003,8.826383e-005
-2.326834e-003,9.409818e-005
-1.314087e-003,9.912220e-005
9.013888e-006,1.017153e-004
1.406342e-003,1.025256e-004
2.587803e-003,9.993253e-005
3.355673e-003,9.490851e-005
3.635563e-003,9.361198e-005
3.487109e-003,1.022014e-004
3.065574e-003,1.146805e-004
2.557334e-003,1.184080e-004
2.116677e-003,1.099806e-004
1.838409e-003,9.523264e-005
1.769369e-003,8.194328e-005
1.913284e-003,7.270556e-005
2.245195e-003,6.444023e-005
2.708866e-003,5.747142e-005
3.177238e-003,5.520250e-005
3.426659e-003,5.568870e-005
3.209489e-003,5.633696e-005
2.386192e-003,5.082674e-005
1.014306e-003,3.883391e-005
-6.812222e-004,2.376183e-005
-2.356492e-003,1.403791e-005
-3.768085e-003,1.371378e-005
-4.762200e-003,2.181705e-005
-4.968187e-003,3.543053e-005
-4.968025e-003,4.823369e-005
-4.884399e-003,5.682316e-005
-4.146348e-003,6.152305e-005
-3.201178e-003,6.557468e-005
-2.188916e-003,7.367795e-005
-1.240510e-003,8.761556e-005
-4.528722e-004,1.064151e-004
1.279698e-004,1.219734e-004
4.989374e-004,1.260251e-004
6.739681e-004,1.161391e-004
6.579236e-004,9.863601e-005
4.689553e-004,8.275361e-005
1.744826e-004,7.254349e-005
-1.336036e-004,6.573675e-005
-3.776739e-004,6.217131e-005
-5.249913e-004,6.055066e-005
-5.873864e-004,5.763348e-005
-6.089411e-004,5.406805e-005
-6.486471e-004,4.985435e-005
-7.539894e-004,4.450619e-005
-9.063308e-004,3.705119e-005
-1.010053e-003,2.489629e-005
-9.614330e-004,5.610517e-006
-6.716603e-004,-1.886135e-005
-5.743289e-005,-4.430560e-005
9.253316e-004,-6.197072e-005
2.215699e-003,-6.958779e-005
3.637993e-003,-7.120844e-005
4.901471e-003,-6.910160e-005
4.958681e-003,-6.553616e-005
4.958681e-003,-6.553616e-005
4.931454e-003,-6.586029e-005
3.432979e-003,-6.164659e-005
1.568084e-003,-5.208473e-005
-2.149604e-004,-3.960571e-005
-1.497707e-003,-2.599222e-005
-2.131707e-003,-1.643037e-005
-2.203826e-003,-1.318906e-005
-1.921184e-003,-1.529591e-005
-1.502245e-003,-1.983374e-005
-1.097730e-003,-2.113026e-005
-7.641996e-004,-1.707863e-005
-4.940368e-004,-1.173047e-005
-2.548284e-004,-1.043395e-005
-3.377135e-005,-1.156841e-005
1.623277e-004,-1.173047e-005
3.198552e-004,-1.124428e-005
4.321665e-004,-1.043395e-005
4.960202e-004,-8.165034e-006
5.110924e-004,-4.599598e-006
4.815964e-004,-4.113402e-006
4.193634e-004,-8.813297e-006
3.407616e-004,-1.788895e-005
2.542187e-004,-2.696461e-005
1.696206e-004,-3.020592e-005
1.047945e-004,-2.388537e-005
7.691926e-005,-9.299492e-006
8.826383e-005,1.128280e-005
1.180839e-004,3.478227e-005
1.407730e-004,5.390598e-005
1.380179e-004,6.476436e-005
1.026876e-004,7.124698e-005
3.818564e-005,7.659513e-005
-5.030201e-005,8.226741e-005
-1.491618e-004,8.793970e-005
-2.428356e-004,8.793970e-005
-3.152788e-004,8.194328e-005
-3.587123e-004,7.546067e-005
-3.807532e-004,7.302969e-005
-3.990665e-004,7.513654e-005
-4.246728e-004,8.453633e-005
-4.488206e-004,9.685329e-005
-4.316416e-004,1.052807e-004
-3.181959e-004,1.070634e-004
-8.773910e-005,1.062531e-004
2.265056e-004,1.036600e-004
5.627912e-004,9.814982e-005
8.720121e-004,8.793970e-005
1.136665e-003,7.140904e-005
1.353185e-003,5.228533e-005
1.520436e-003,3.478227e-005
1.639231e-003,2.522042e-005
1.702112e-003,2.635488e-005
1.702598e-003,3.397195e-005
1.642472e-003,4.450619e-005
1.528378e-003,5.358185e-005
1.370039e-003,5.601283e-005
1.170213e-003,4.612685e-005
9.300315e-004,2.149292e-005
6.535478e-004,-1.027188e-005
3.478925e-004,-3.814712e-005
2.100672e-005,-5.176060e-005
-3.431540e-004,-4.851930e-005
-7.914265e-004,-2.907146e-005
-1.384586e-003,-4.275467e-006
-2.131383e-003,1.663096e-005
-2.920642e-003,3.267542e-005
-3.557885e-003,4.175108e-005
-3.867756e-003,4.320967e-005
-3.785588e-003,3.867184e-005
-3.371834e-003,2.992031e-005
-2.791638e-003,1.971020e-005
-2.237698e-003,1.193106e-005
-1.855548e-003,9.175954e-006
-1.692996e-003,1.079661e-005
-1.689430e-003,1.549650e-005
-1.717792e-003,2.181705e-005
-1.660097e-003,2.813760e-005
-1.451194e-003,3.348575e-005
-1.081523e-003,3.721326e-005
-5.873864e-004,4.158902e-005
-3.717472e-005,4.515445e-005
4.723587e-004,4.726130e-005
8.264717e-004,4.466826e-005
9.553137e-004,3.397195e-005
8.757396e-004,1.776542e-005
6.772094e-004,-7.100305e-007
4.726828e-004,-1.351319e-005
3.564820e-004,-1.675450e-005
3.689610e-004,-9.947754e-006
4.911583e-004,3.017472e-006
6.674855e-004,1.663096e-005
8.504573e-004,2.619281e-005
1.037319e-003,3.154097e-005
1.235039e-003,3.445814e-005
1.431138e-003,3.299956e-005
1.612328e-003,2.992031e-005
1.752191e-003,2.586868e-005
1.785576e-003,2.133085e-005
1.628859e-003,1.744128e-005
1.223856e-003,1.906194e-005
5.757564e-004,3.154097e-005
-2.290600e-004,5.228533e-005
-1.040359e-003,7.124698e-005
-1.703692e-003,8.113296e-005
-2.108694e-003,8.145709e-005
-2.191833e-003,7.384001e-005
-1.945008e-003,6.362990e-005
-1.437095e-003,5.617490e-005
-8.081193e-004,5.568870e-005
-2.331117e-004,6.346784e-005
1.417454e-004,7.513654e-005
2.516257e-004,8.307774e-005
1.347766e-004,8.323980e-005
-8.303921e-005,7.708132e-005
-2.439700e-004,6.816773e-005
-2.374874e-004,5.990240e-005
-4.041603e-005,5.504044e-005
2.963557e-004,5.374392e-005
6.846644e-004,5.325772e-005
1.039588e-003,5.131293e-005
1.301324e-003,4.337174e-005
1.444590e-003,3.186510e-005
1.477813e-003,2.359977e-005
1.435352e-003,2.862379e-005
1.358857e-003,4.564065e-005
1.289331e-003,7.221937e-005
1.255135e-003,9.652916e-005
1.268586e-003,1.060910e-004
1.312182e-003,9.685329e-005
1.345081e-003,7.497447e-005
1.318178e-003,4.888196e-005
1.202788e-003,2.603075e-005
1.007499e-003,1.484824e-005
7.631041e-004,1.582063e-005
5.037994e-004,2.149292e-005
2.537325e-004,2.084466e-005
2.181705e-005,7.879431e-006
-2.037778e-004,-1.075808e-005
-4.224039e-004,-2.534396e-005
-5.755556e-004,-3.101624e-005
-5.689110e-004,-2.615428e-005
-3.470436e-004,-1.529591e-005
8.486046e-005,-5.571990e-006
6.666752e-004,-1.520357e-006
1.299865e-003,-4.923729e-006
1.846675e-003,-1.286493e-005
2.146983e-003,-1.756482e-005
2.058819e-003,-1.610623e-005
1.531457e-003,-1.124428e-005
6.503065e-004,-6.058186e-006
-3.572537e-004,-1.196226e-006
-1.181356e-003,4.313994e-006
-1.606291e-003,1.144487e-005
-1.630115e-003,1.906194e-005
-1.454274e-003,2.570661e-005
-1.350714e-003,2.619281e-005
-1.485714e-003,2.214118e-005
-1.817138e-003,1.744128e-005
-2.168334e-003,1.047248e-005
-2.366216e-003,2.207145e-006
-2.330561e-003,-2.654814e-006
-2.074660e-003,-7.100305e-007
-1.660097e-003,6.907039e-006
-1.158018e-003,1.549650e-005
-6.596675e-004,2.035846e-005
-2.556388e-004,2.149292e-005
1.825161e-005,2.473422e-005
2.067336e-004,3.154097e-005
3.991052e-004,3.543053e-005
6.639201e-004,3.802358e-005
1.004582e-003,4.126489e-005
1.352374e-003,4.580272e-005
1.591259e-003,5.163707e-005
1.618972e-003,6.038860e-005
1.394349e-003,7.270556e-005
9.532069e-004,8.826383e-005
3.955397e-004,1.023635e-004
-1.506204e-004,1.106288e-004
-5.783107e-004,1.083599e-004
-8.415048e-004,9.507057e-005
-9.291820e-004,7.254349e-005
-8.081193e-004,4.645098e-005
-4.220798e-004,2.181705e-005
2.560015e-004,2.369210e-006
1.141527e-003,-7.354708e-006
2.000475e-003,-4.275467e-006
2.561548e-003,5.610517e-006
2.629291e-003,1.468617e-005
2.155410e-003,2.100672e-005
1.279121e-003,2.797553e-005
2.803112e-004,3.996836e-005
-5.355255e-004,5.536457e-005
-9.625675e-004,6.978838e-005
-9.672674e-004,7.935023e-005
-6.713362e-004,8.032263e-005
-2.998826e-004,7.059870e-005
-7.736692e-005,5.358185e-005
-1.071869e-004,3.640293e-005
-3.220855e-004,2.392390e-005
-5.556216e-004,2.214118e-005
-6.810601e-004,3.154097e-005
-6.726327e-004,4.726130e-005
-5.721523e-004,6.265751e-005
-4.369898e-004,6.995045e-005
-3.219235e-004,7.027457e-005
-2.783279e-004,6.541262e-005
-3.582261e-004,5.730935e-005
-6.001896e-004,4.823369e-005
-9.899565e-004,4.110282e-005
-1.435636e-003,3.980630e-005
-1.788452e-003,4.450619e-005
-1.904815e-003,5.552663e-005
-1.702882e-003,7.027457e-005
-1.216200e-003,8.129502e-005
-5.911139e-004,8.729143e-005
-3.215070e-005,8.875003e-005
2.798251e-004,8.388807e-005
2.757734e-004,7.481241e-005
3.089270e-005,6.557468e-005
-2.835140e-004,5.779555e-005
-5.005194e-004,5.277152e-005
-5.337428e-004,4.920609e-005
-4.023078e-004,4.353380e-005
-1.862748e-004,3.170303e-005
3.640293e-005,1.144487e-005
2.252090e-004,-1.383732e-005
3.809539e-004,-3.409548e-005
5.255162e-004,-3.976777e-005
6.720233e-004,-2.858526e-005
8.207993e-004,-6.868512e-006
9.632549e-004,1.257933e-005
1.085452e-003,1.630683e-005
1.171347e-003,4.151929e-006
1.208946e-003,-1.464765e-005
1.190309e-003,-3.328516e-005
1.132451e-003,-4.544005e-005
1.091935e-003,-4.916756e-005
1.115759e-003,-4.252288e-005
1.213970e-003,-2.469570e-005
1.355291e-003,-3.951337e-006
1.486403e-003,1.209313e-005
1.561277e-003,1.987226e-005
1.552525e-003,1.695509e-005
1.466306e-003,4.313994e-006
1.331468e-003,-1.075808e-005
1.180261e-003,-1.967167e-005
1.025974e-003,-1.869928e-005
8.564538e-004,-9.947754e-006
6.528996e-004,-4.113402e-006
4.166082e-004,-1.318906e-005
1.624898e-004,-3.182657e-005
-9.373551e-005,-4.916756e-005
-3.538503e-004,-6.116039e-005
-6.327647e-004,-6.504996e-005
-9.170272e-004,-5.321919e-005
-1.151536e-003,-2.696461e-005
-1.259309e-003,4.800190e-006
-1.188973e-003,2.943412e-005
-9.350164e-004,3.883391e-005
-5.361738e-004,3.299956e-005
-5.646050e-005,2.441009e-005
4.297355e-004,2.359977e-005
8.412196e-004,3.380988e-005
1.107493e-003,5.293359e-005
1.198898e-003,7.675719e-005
1.136503e-003,9.604297e-005
9.724927e-004,1.062531e-004
7.652109e-004,1.049566e-004
5.499880e-004,9.571883e-005
3.192069e-004,8.226741e-005
4.499239e-005,6.703327e-005
-3.000446e-004,5.633696e-005
-7.173627e-004,5.309565e-005
-1.156236e-003,5.568870e-005
-1.519586e-003,6.055066e-005
-1.717306e-003,6.427816e-005
-1.706609e-003,6.670914e-005
-1.499976e-003,6.589881e-005
-1.148780e-003,6.233338e-005
-7.290315e-004,5.957827e-005
-3.021515e-004,5.487837e-005
1.000946e-004,4.628891e-005
4.470765e-004,3.656499e-005
6.979537e-004,3.348575e-005
8.188545e-004,4.061663e-005
7.898449e-004,5.811968e-005
6.084936e-004,7.691926e-005
2.812837e-004,8.421220e-005
-1.765509e-004,7.108490e-005
-7.441035e-004,4.466826e-005
-1.406302e-003,1.630683e-005
-2.127817e-003,-5.085794e-006
-2.812058e-003,-1.675450e-005
-3.318352e-003,-2.242678e-005
-3.525310e-003,-2.437157e-005
-3.386419e-003,-2.404744e-005
-2.940252e-003,-2.031993e-005
-2.287776e-003,-1.205460e-005
-1.553944e-003,3.503668e-006
-8.447461e-004,2.554455e-005
-2.222533e-004,4.969228e-005
2.948972e-004,7.124698e-005
7.026537e-004,8.550872e-005
1.008147e-003,8.875003e-005
1.220777e-003,7.805372e-005
1.352861e-003,5.909207e-005
1.415256e-003,4.045456e-005
1.424332e-003,2.716520e-005
1.400346e-003,1.857574e-005
1.372632e-003,1.290346e-005
1.380574e-003,8.689757e-006
1.461120e-003,4.151929e-006
1.635503e-003,-7.100305e-007
1.898374e-003,-4.599598e-006
2.182961e-003,-7.100305e-007
2.330442e-003,1.501031e-005
2.152007e-003,3.753739e-005
1.555605e-003,5.585077e-005
6.383137e-004,6.492643e-005
-3.807532e-004,7.043664e-005
-1.266278e-003,8.032263e-005
-1.864623e-003,9.782569e-005
-2.121173e-003,1.156529e-004
-2.062019e-003,1.237561e-004
-1.771760e-003,1.221355e-004
-1.360438e-003,1.137081e-004
-9.269132e-004,9.798775e-005
-5.353634e-004,7.821578e-005
-2.139880e-004,5.747142e-005
2.975825e-005,3.948217e-005
2.008992e-004,3.154097e-005
3.166139e-004,3.445814e-005
3.973224e-004,4.402000e-005
4.592314e-004,5.163707e-005
5.195197e-004,5.293359e-005
5.927733e-004,5.228533e-005
6.882299e-004,5.050261e-005
8.000550e-004,4.807163e-005
9.186869e-004,4.596478e-005
1.028891e-003,4.612685e-005
1.109600e-003,4.823369e-005
1.143310e-003,5.163707e-005
1.116893e-003,5.682316e-005
1.027109e-003,5.974033e-005
8.815739e-004,6.006446e-005
6.958469e-004,5.747142e-005
4.845136e-004,5.876794e-005
2.607013e-004,6.525056e-005
3.316162e-005,7.173317e-005
-1.874093e-004,7.221937e-005
-3.964735e-004,6.687120e-005
-6.060239e-004,6.136099e-005
-8.202742e-004,5.941620e-005
-1.011025e-003,6.249544e-005
-1.128684e-003,6.881599e-005
-1.141001e-003,7.173317e-005
-1.052838e-003,6.444023e-005
-8.888278e-004,4.369587e-005
-6.766843e-004,9.662150e-006
-4.390966e-004,-2.939559e-005
-2.053985e-004,-6.650855e-005
-1.189254e-005,-9.730095e-005
1.143563e-004,-1.233935e-004
1.704310e-004,-1.400862e-004
1.715654e-004,-1.423551e-004
1.407730e-004,-1.282554e-004
1.069013e-004,-1.003802e-004
9.555677e-005,-7.185670e-005
1.222975e-004,-5.240886e-005
1.871237e-004,-4.398147e-005
2.701011e-004,-4.155049e-005
3.412478e-004,-4.122636e-005
3.730126e-004,-3.944364e-005
3.525924e-004,-3.604027e-005
2.864697e-004,-3.312309e-005
1.911753e-004,-3.571614e-005
9.134307e-005,-4.916756e-005
1.387585e-005,-6.829127e-005
-1.934754e-005,-8.563225e-005
-2.006553e-006,-9.341139e-005
5.066468e-005,-8.806324e-005
1.138701e-004,-7.380149e-005
1.633001e-004,-5.743289e-005
1.804790e-004,-4.106429e-005
1.707551e-004,-2.226472e-005
1.513072e-004,-3.141010e-006
1.375317e-004,1.468617e-005
1.404489e-004,3.332369e-005
1.663793e-004,5.244739e-005
2.154851e-004,7.157111e-005
2.820940e-004,8.648111e-005
3.551854e-004,9.377405e-005
4.221185e-004,8.939829e-005
4.802999e-004,7.708132e-005
5.271368e-004,5.957827e-005
5.472329e-004,4.580272e-005
5.201680e-004,4.402000e-005
4.428628e-004,5.860587e-005
3.555096e-004,8.032263e-005
3.081865e-004,9.831188e-005
3.239068e-004,1.065772e-004
3.874364e-004,1.062531e-004
4.662002e-004,1.028497e-004
5.352401e-004,9.863601e-005
5.765667e-004,9.539470e-005
5.888838e-004,9.344992e-005
5.871010e-004,9.507057e-005
5.952043e-004,1.009049e-004
6.365310e-004,1.101426e-004
7.251807e-004,1.239182e-004
8.648811e-004,1.393144e-004
1.048825e-003,1.530900e-004
1.248166e-003,1.589243e-004
1.411366e-003,1.582760e-004
1.504878e-003,1.513072e-004
1.522543e-003,1.389903e-004
1.480082e-003,1.211631e-004
1.416066e-003,9.652916e-005
1.344109e-003,6.930219e-005
1.190147e-003,4.645098e-005
8.138305e-004,3.137890e-005
1.153287e-004,1.971020e-005
-8.625732e-004,8.851824e-006
-1.949221e-003,-1.520357e-006
-2.927935e-003,-8.975361e-006
-3.603588e-003,-1.205460e-005
-3.869538e-003,-1.059601e-005
-3.733079e-003,-6.058186e-006
-3.307169e-003,4.962256e-006
-2.763763e-003,2.181705e-005
-2.242398e-003,4.077869e-005
-1.799311e-003,5.941620e-005
-1.411975e-003,7.594687e-005
-1.033066e-003,8.648111e-005
-6.648535e-004,9.199134e-005
-3.731361e-004,9.426025e-005
-2.230636e-004,9.588090e-005
-2.156086e-004,9.523264e-005
-2.818933e-004,8.729143e-005
-3.368334e-004,7.205730e-005
-3.425058e-004,5.714729e-005
-3.232200e-004,4.645098e-005
-3.344025e-004,4.013043e-005
-4.032802e-004,3.688912e-005
-4.950092e-004,3.186510e-005
-5.236947e-004,2.359977e-005
-4.071698e-004,1.744128e-005
-1.105903e-004,1.501031e-005
3.133726e-004,1.565857e-005
7.519216e-004,1.987226e-005
1.080752e-003,2.748933e-005
1.220291e-003,3.786152e-005
1.174913e-003,4.628891e-005
1.027919e-003,4.936815e-005
8.770361e-004,4.564065e-005
7.644006e-004,3.867184e-005
6.538720e-004,2.975825e-005
4.644175e-004,2.165498e-005
1.449867e-004,1.338965e-005
-2.713591e-004,3.017472e-006
-6.791154e-004,-5.734055e-006
-9.680777e-004,-1.367526e-005
-1.075689e-003,-2.048200e-005
-1.007784e-003,-2.842320e-005
-8.259465e-004,-3.425755e-005
-6.136409e-004,-3.328516e-005
-4.233763e-004,-2.599222e-005
-2.502906e-004,-1.756482e-005
-5.095028e-005,-1.399939e-005
2.148369e-004,-1.805102e-005
5.464226e-004,-2.874733e-005
8.950254e-004,-3.944364e-005
1.199222e-003,-4.398147e-005
1.431787e-003,-3.960571e-005
1.623672e-003,-2.939559e-005
1.821554e-003,-1.837515e-005
2.028999e-003,-8.813297e-006
2.199330e-003,1.002961e-007
2.265129e-003,1.484824e-005
2.155410e-003,3.429608e-005
1.828848e-003,5.163707e-005
1.296300e-003,5.763348e-005
6.324793e-004,4.920609e-005
-1.659243e-005,3.283749e-005
-4.823681e-004,1.614476e-005
-6.603157e-004,4.151929e-006
-5.771763e-004,5.864920e-007
-3.718396e-004,4.962256e-006
-2.063709e-004,1.598270e-005
-1.734716e-004,3.299956e-005
-2.614731e-004,5.244739e-005
-3.857772e-004,6.703327e-005
-4.528722e-004,7.529860e-005
-4.128421e-004,7.562274e-005
-2.767072e-004,7.205730e-005
-9.017008e-005,6.832980e-005
8.745350e-005,6.638501e-005
2.127300e-004,6.525056e-005
2.710735e-004,5.974033e-005
2.696149e-004,4.839576e-005
2.198609e-004,3.348575e-005
1.391524e-004,1.954813e-005
4.742337e-005,1.484824e-005
-2.923352e-005,2.262737e-005
-7.104637e-005,3.591673e-005
-7.720485e-005,4.677511e-005
-6.035006e-005,5.131293e-005
-2.923352e-005,4.774750e-005
1.711715e-005,3.996836e-005
7.918817e-005,3.445814e-005
1.500107e-004,3.429608e-005
2.164575e-004,4.029249e-005
2.623220e-004,5.260946e-005
2.736665e-004,6.622294e-005
2.440086e-004,7.432621e-005
1.793446e-004,7.578480e-005
8.923622e-005,7.173317e-005
-1.724069e-005,6.525056e-005
-1.305243e-004,6.298164e-005
-2.389460e-004,6.249544e-005
-3.348887e-004,5.763348e-005
-4.061974e-004,4.709924e-005
-4.360174e-004,3.348575e-005
-4.198109e-004,2.408596e-005
-3.888564e-004,1.906194e-005
-3.859392e-004,1.436204e-005
-4.251590e-004,1.160693e-005
-4.925782e-004,9.662150e-006
-5.364979e-004,1.160693e-005
-4.616237e-004,1.954813e-005
-1.898402e-004,3.478227e-005
2.709115e-004,4.758544e-005
8.178822e-004,5.050261e-005
1.314451e-003,4.077869e-005
1.647172e-003,2.262737e-005
1.773097e-003,-1.358292e-006
1.725450e-003,-2.615428e-005
1.594825e-003,-4.171255e-005
1.492885e-003,-4.381940e-005
1.502123e-003,-3.749886e-005
1.616379e-003,-2.469570e-005
1.706164e-003,-8.489165e-006
1.546043e-003,8.365628e-006
9.382968e-004,2.230324e-005
-1.272830e-004,2.700314e-005
-1.427371e-003,2.068259e-005
-2.669441e-003,9.986280e-006
-3.643618e-003,2.623614e-007
-4.257201e-003,-6.706447e-006
-4.516669e-003,-1.140634e-005
-4.468698e-003,-1.578211e-005
-4.150399e-003,-1.950961e-005
-3.600184e-003,-1.983374e-005
-2.867161e-003,-1.788895e-005
-2.013561e-003,-1.399939e-005
-1.117016e-003,-9.137427e-006
-2.609869e-004,-1.520357e-006
4.756000e-004,1.095867e-005
1.035374e-003,2.700314e-005
1.392405e-003,4.094075e-005
1.553012e-003,5.325772e-005
1.549608e-003,6.346784e-005
1.434704e-003,6.719534e-005
1.260807e-003,6.071273e-005
1.075080e-003,4.580272e-005
9.092871e-004,2.992031e-005
7.807692e-004,2.311357e-005
6.914712e-004,2.927205e-005
6.349103e-004,4.029249e-005
6.042799e-004,4.888196e-005
6.091419e-004,5.196120e-005
6.655407e-004,4.580272e-005
7.765555e-004,3.267542e-005
9.276005e-004,1.419998e-005
1.092745e-003,-5.734055e-006
1.245573e-003,-2.210265e-005
1.373767e-003,-3.247483e-005
1.477003e-003,-3.215070e-005
1.553174e-003,-1.853721e-005
1.573432e-003,2.693341e-006
1.494182e-003,2.359977e-005
1.268749e-003,3.932010e-005
8.559676e-004,4.871989e-005
2.339606e-004,5.585077e-005
-5.538389e-004,6.379197e-005
-1.408733e-003,7.027457e-005
-2.231701e-003,7.092283e-005
-2.953704e-003,6.184718e-005
-3.515100e-003,4.596478e-005
-3.838584e-003,2.813760e-005
-3.836153e-003,1.355172e-005
-3.457404e-003,6.420843e-006
-2.739291e-003,1.306552e-005
-1.817300e-003,3.397195e-005
-8.868830e-004,6.411610e-005
-1.167488e-004,9.069480e-005
4.083429e-004,1.056048e-004
6.939021e-004,1.106288e-004
7.961654e-004,1.122495e-004
7.817416e-004,1.174356e-004
7.026537e-004,1.258630e-004
6.083316e-004,1.305629e-004
5.370228e-004,1.258630e-004
5.047718e-004,1.175977e-004
5.021787e-004,1.117633e-004
5.091476e-004,1.116012e-004
5.234093e-004,1.169494e-004
5.545259e-004,1.229458e-004
6.102764e-004,1.253768e-004
6.951987e-004,1.193804e-004
8.254993e-004,1.086841e-004
1.043477e-003,9.636710e-005
1.396456e-003,8.421220e-005
1.904046e-003,7.448828e-005
2.503204e-003,6.687120e-005
3.000748e-003,6.200925e-005
3.111277e-003,6.136099e-005
2.609195e-003,6.330577e-005
1.467765e-003,6.444023e-005
-8.060822e-005,6.362990e-005
-1.571933e-003,5.747142e-005
-2.604290e-003,4.612685e-005
-2.988710e-003,3.073064e-005
-2.735887e-003,1.338965e-005
-2.015668e-003,2.623614e-007
-1.054621e-003,-8.720958e-007
-4.900549e-005,1.241726e-005
8.630984e-004,3.218923e-005
1.606331e-003,5.001641e-005
2.151035e-003,6.298164e-005
2.495263e-003,7.011251e-005
2.652305e-003,6.914012e-005
2.642257e-003,5.974033e-005
2.484729e-003,4.515445e-005
2.192037e-003,3.154097e-005
1.769693e-003,1.954813e-005
1.237308e-003,7.717366e-006
6.347482e-004,-4.437533e-006
1.792748e-005,-1.318906e-005
-5.326083e-004,-1.837515e-005
-9.285338e-004,-1.902341e-005
-1.110533e-003,-1.902341e-005
-1.099189e-003,-1.869928e-005
-9.907669e-004,-1.837515e-005
-9.225374e-004,-1.562004e-005
-9.941702e-004,-1.286493e-005
-1.208096e-003,-1.302699e-005
-1.463511e-003,-1.675450e-005
-1.621039e-003,-2.372330e-005
-1.589436e-003,-3.458168e-005
-1.368703e-003,-5.192267e-005
-1.033552e-003,-7.752898e-005
-6.843014e-004,-1.076731e-004
-3.997148e-004,-1.344139e-004
-2.100984e-004,-1.525652e-004
-1.047560e-004,-1.592099e-004
-5.710876e-005,-1.546721e-004
-5.338126e-005,-1.417068e-004
-8.547019e-005,-1.256624e-004
-1.297140e-004,-1.063766e-004
-1.514308e-004,-8.320127e-005
-1.196660e-004,-5.500191e-005
-1.691656e-005,-2.339917e-005
1.496866e-004,8.851824e-006
3.642611e-004,3.915804e-005
6.313449e-004,6.525056e-005
9.919406e-004,8.453633e-005
1.489968e-003,9.685329e-005
2.106790e-003,1.017153e-004
2.727504e-003,9.879807e-005
3.166542e-003,9.166720e-005
3.230396e-003,8.259154e-005
2.800272e-003,7.302969e-005
1.900643e-003,6.233338e-005
6.997365e-004,5.147500e-005
-5.356875e-004,4.029249e-005
-1.547299e-003,3.024445e-005
-2.197505e-003,2.035846e-005
-2.462807e-003,1.144487e-005
-2.417104e-003,5.448451e-006
-2.178220e-003,1.234753e-006
-1.856844e-003,-2.238345e-007
-1.530931e-003,3.179537e-006
-1.236296e-003,1.257933e-005
-9.768292e-004,2.619281e-005
-7.387553e-004,3.883391e-005
-5.079744e-004,4.888196e-005
-2.822175e-004,5.423011e-005
-6.586029e-005,5.763348e-005
1.279698e-004,6.200925e-005
2.824181e-004,6.654707e-005
3.893812e-004,6.768153e-005
4.496696e-004,6.444023e-005
4.616624e-004,5.536457e-005
4.221185e-004,4.483032e-005
3.350894e-004,3.753739e-005
2.111093e-004,3.462021e-005
5.876794e-005,3.640293e-005
-1.156143e-004,4.223728e-005
-2.979378e-004,4.839576e-005
-4.703752e-004,5.212327e-005
-6.212580e-004,5.082674e-005
-7.413484e-004,4.272347e-005
-8.217327e-004,3.186510e-005
-8.466908e-004,2.359977e-005
-7.826751e-004,2.035846e-005
-5.770142e-004,2.376183e-005
-2.083157e-004,3.218923e-005
2.665357e-004,4.256141e-005
7.122156e-004,5.471631e-005
9.940474e-004,6.703327e-005
1.037643e-003,7.610893e-005
8.705535e-004,7.999850e-005
5.930975e-004,8.097089e-005
3.227724e-004,7.967437e-005
1.479039e-004,7.870197e-005
1.046324e-004,7.740545e-005
1.712413e-004,7.448828e-005
2.927903e-004,6.914012e-005
4.195254e-004,6.249544e-005
5.185474e-004,5.844381e-005
5.704083e-004,5.844381e-005
5.582533e-004,6.362990e-005
4.702519e-004,7.059870e-005
3.052693e-004,7.513654e-005
7.675719e-005,7.610893e-005
-1.904885e-004,7.027457e-005
-4.736166e-004,6.573675e-005
-7.630652e-004,6.784360e-005
-1.071637e-003,7.562274e-005
-1.395120e-003,8.421220e-005
-1.676627e-003,9.588090e-005
-1.830914e-003,1.085220e-004
-1.795421e-003,1.182459e-004
-1.577119e-003,1.201907e-004
-1.244723e-003,1.107909e-004
-8.808866e-004,9.134307e-005
-5.533526e-004,6.768153e-005
-2.917793e-004,4.855782e-005
-9.324932e-005,3.429608e-005
7.384001e-005,2.133085e-005
2.491947e-004,9.175954e-006
4.566384e-004,4.244267e-007
6.917953e-004,-5.571990e-006
9.183628e-004,-8.489165e-006
1.094852e-003,-5.734055e-006
1.193388e-003,4.800190e-006
1.207650e-003,2.100672e-005
1.153196e-003,3.283749e-005
1.060494e-003,3.672705e-005
9.614722e-004,3.688912e-005
8.799533e-004,3.445814e-005
8.280923e-004,2.392390e-005
7.908173e-004,6.582909e-006
7.449528e-004,-1.302699e-005
6.882299e-004,-3.134038e-005
6.319931e-004,-4.155049e-005
5.851563e-004,-3.766092e-005
5.337815e-004,-2.145439e-005
4.428628e-004,7.485573e-007
2.890628e-004,2.116879e-005
7.351588e-005,3.786152e-005
-1.674752e-004,5.066468e-005
-3.538503e-004,6.249544e-005
-4.155972e-004,7.805372e-005
-3.361852e-004,9.636710e-005
-1.344139e-004,1.069013e-004
1.642725e-004,1.033359e-004
5.379952e-004,8.340186e-005
9.557999e-004,5.601283e-005
1.390622e-003,3.056858e-005
1.799676e-003,1.387585e-005
2.120728e-003,7.555300e-006
2.316504e-003,4.638125e-006
2.364638e-003,1.072688e-006
2.199654e-003,-8.720958e-007
1.728367e-003,-3.789271e-006
9.229006e-004,-9.623623e-006
-1.211245e-004,-1.756482e-005
-1.236134e-003,-2.453363e-005
-2.293286e-003,-2.777494e-005
-3.215278e-003,-2.534396e-005
-3.915728e-003,-1.659243e-005
-4.296259e-003,-3.789271e-006
-4.297717e-003,1.095867e-005
-3.955758e-003,2.408596e-005
-3.395657e-003,3.218923e-005
-2.773000e-003,3.462021e-005
-2.185837e-003,3.056858e-005
-1.665931e-003,2.246531e-005
-1.232730e-003,1.257933e-005
-9.337199e-004,2.623614e-007
-8.056883e-004,-1.610623e-005
-8.431254e-004,-3.117831e-005
-9.813671e-004,-3.847125e-005
-1.108588e-003,-3.685059e-005
-1.109885e-003,-2.696461e-005
-9.236718e-004,-1.302699e-005
-5.611319e-004,-3.627206e-006
-8.611845e-005,-2.238345e-007
4.117463e-004,1.883015e-006
8.402472e-004,4.638125e-006
1.150279e-003,6.582909e-006
1.338761e-003,6.744974e-006
1.438107e-003,6.744974e-006
1.489158e-003,4.638125e-006
1.525298e-003,7.485573e-007
1.586883e-003,-1.520357e-006
1.727070e-003,7.231170e-006
1.997072e-003,2.894792e-005
2.401751e-003,5.860587e-005
2.856346e-003,9.101894e-005
3.192148e-003,1.188942e-004
3.253734e-003,1.381799e-004
2.983731e-003,1.472556e-004
2.441781e-003,1.440143e-004
1.776014e-003,1.295905e-004
1.154006e-003,1.085220e-004
7.052467e-004,8.664317e-005
5.008822e-004,6.719534e-005
5.777012e-004,5.147500e-005
9.173904e-004,3.688912e-005
1.404884e-003,2.149292e-005
1.832737e-003,1.160693e-005
1.973572e-003,1.047248e-005
1.691254e-003,1.938607e-005
1.011713e-003,3.607880e-005
1.085220e-004,5.017848e-005
-7.763545e-004,5.568870e-005
-1.460432e-003,5.487837e-005
-1.869485e-003,4.953022e-005
-2.023447e-003,3.980630e-005
-1.988603e-003,2.149292e-005
-1.842582e-003,-5.247859e-006
-1.646807e-003,-3.053005e-005
-1.437905e-003,-4.284701e-005
-1.228517e-003,-3.636440e-005
-1.003084e-003,-1.108221e-005
-7.374588e-004,2.797553e-005
-4.392587e-004,7.043664e-005
-1.707165e-004,1.038221e-004
-1.772689e-005,1.195424e-004
-3.069211e-005,1.140322e-004
-1.885437e-004,9.199134e-005
-4.076560e-004,6.654707e-005
-5.945172e-004,4.645098e-005
-6.927288e-004,3.915804e-005
-6.966184e-004,4.239934e-005
-6.298475e-004,5.341978e-005
-5.258016e-004,6.541262e-005
-4.097628e-004,7.400208e-005
-2.997205e-004,7.870197e-005
-2.066950e-004,7.967437e-005
-1.308485e-004,7.967437e-005
-6.910160e-005,7.772959e-005
-1.902341e-005,6.946425e-005
1.971020e-005,4.985435e-005
4.953022e-005,2.003433e-005
7.886404e-005,-1.075808e-005
1.117633e-004,-3.182657e-005
1.558451e-004,-3.685059e-005
2.174299e-004,-2.696461e-005
2.950592e-004,-3.141010e-006
3.697713e-004,2.716520e-005
4.279528e-004,5.163707e-005
4.647416e-004,6.200925e-005
4.861343e-004,5.390598e-005
5.039615e-004,2.748933e-005
5.289195e-004,-1.221667e-005
5.538776e-004,-5.759496e-005
5.652222e-004,-1.031353e-004
5.504742e-004,-1.473791e-004
5.060683e-004,-1.825473e-004
4.431869e-004,-1.930815e-004
3.837089e-004,-1.713648e-004
3.504856e-004,-1.224211e-004
3.555096e-004,-6.018800e-005
4.034809e-004,-2.330684e-006
4.845136e-004,3.721326e-005
5.623050e-004,5.552663e-005
5.843459e-004,5.601283e-005
5.138475e-004,5.017848e-005
3.516200e-004,4.466826e-005
1.282940e-004,4.272347e-005
-1.000561e-004,4.839576e-005
-2.648765e-004,6.103685e-005
-3.203028e-004,7.837785e-005
-2.713591e-004,9.539470e-005
-1.593720e-004,1.091703e-004
-5.289506e-005,1.208390e-004
-2.664048e-005,1.292664e-004
-1.279313e-004,1.299146e-004
-3.548227e-004,1.214872e-004
-6.407059e-004,1.060910e-004
-8.946622e-004,8.842590e-005
-1.050083e-003,6.914012e-005
-1.090599e-003,5.163707e-005
-1.031445e-003,3.834771e-005
-9.056826e-004,3.202716e-005
-7.442656e-004,3.267542e-005
-5.648593e-004,3.624086e-005
-3.613053e-004,4.126489e-005
-1.232314e-004,4.969228e-005
1.568175e-004,6.200925e-005
4.486972e-004,7.254349e-005
6.721854e-004,7.675719e-005
7.311772e-004,7.481241e-005
5.802942e-004,7.011251e-005
2.701011e-004,6.541262e-005
-7.850138e-005,6.071273e-005
-3.463953e-004,5.601283e-005
-4.728062e-004,5.471631e-005
-4.504412e-004,5.876794e-005
-3.141443e-004,6.735740e-005
-1.316588e-004,7.724339e-005
3.543053e-005,8.340186e-005
1.680000e-004,7.983643e-005
2.877662e-004,6.217131e-005
4.242253e-004,3.753739e-005
5.921251e-004,2.019640e-005
7.794727e-004,1.873781e-005
9.465622e-004,3.526847e-005
1.057577e-003,6.249544e-005
1.085452e-003,8.842590e-005
1.024029e-003,1.078737e-004
8.864359e-004,1.179218e-004
6.809368e-004,1.185700e-004
4.076946e-004,1.093323e-004
1.046324e-004,9.263960e-005
-1.626133e-004,7.675719e-005
-3.480160e-004,6.914012e-005
-4.462275e-004,6.962632e-005
-4.690787e-004,7.189524e-005
-4.215936e-004,6.589881e-005
-3.149546e-004,5.082674e-005
-1.833576e-004,3.267542e-005
-8.579432e-005,1.517237e-005
-8.757703e-005,2.045080e-006
-2.332737e-004,-5.734055e-006
-5.154294e-004,-8.489165e-006
-8.731075e-004,-6.382316e-006
-1.229003e-003,-2.492749e-006
-1.518452e-003,-4.599598e-006
-1.700289e-003,-1.529591e-005
-1.748422e-003,-3.441962e-005
-1.644052e-003,-5.662256e-005
-1.359627e-003,-7.607040e-005
-8.557665e-004,-8.465986e-005
-1.472171e-004,-8.255302e-005
6.488480e-004,-7.234290e-005
1.346702e-003,-6.391550e-005
1.779742e-003,-6.618442e-005
1.852023e-003,-7.850138e-005
1.562898e-003,-9.049421e-005
1.001665e-003,-9.243900e-005
3.154794e-004,-7.898758e-005
-3.329439e-004,-5.402952e-005
-8.086055e-004,-2.566809e-005
-1.041493e-003,-2.330684e-006
-1.046193e-003,1.063454e-005
-9.077894e-004,1.501031e-005
-7.372968e-004,1.598270e-005
-6.188271e-004,1.614476e-005
-5.804176e-004,1.630683e-005
-6.008378e-004,1.971020e-005
-6.369783e-004,3.008238e-005
-6.570744e-004,4.353380e-005
-6.497815e-004,5.390598e-005
-6.094273e-004,5.601283e-005
-5.138087e-004,5.179913e-005
-3.159270e-004,4.369587e-005
2.651694e-005,3.624086e-005
4.929410e-004,3.040651e-005
9.851338e-004,2.732727e-005
1.409584e-003,2.846173e-005
1.731446e-003,3.591673e-005
1.961580e-003,5.131293e-005
2.114732e-003,7.205730e-005
2.204516e-003,9.539470e-005
2.243736e-003,1.140322e-004
2.229150e-003,1.167873e-004
2.147955e-003,1.023635e-004
1.983945e-003,8.259154e-005
1.722046e-003,7.124698e-005
1.352374e-003,7.562274e-005
8.626123e-004,9.231547e-005
2.488706e-004,1.088461e-004
-4.634064e-004,1.198666e-004
-1.216848e-003,1.244044e-004
-1.902870e-003,1.224596e-004
-2.376102e-003,1.125736e-004
-2.512237e-003,9.620503e-005
-2.252608e-003,7.724339e-005
-1.622822e-003,5.909207e-005
-7.431311e-004,4.223728e-005
1.624898e-004,2.181705e-005
8.162615e-004,-3.858999e-007
1.040398e-003,-1.934754e-005
8.266338e-004,-2.988179e-005
3.107795e-004,-3.344722e-005
-3.465574e-004,-3.992984e-005
-1.051541e-003,-5.759496e-005
-1.748260e-003,-8.287714e-005
-2.362650e-003,-1.079973e-004
-2.791962e-003,-1.259865e-004
-2.914484e-003,-1.313347e-004
-2.638972e-003,-1.272830e-004
-1.974341e-003,-1.159385e-004
-1.043924e-003,-1.010285e-004
-4.641245e-005,-8.320127e-005
8.029722e-004,-6.521203e-005
1.368419e-003,-4.576419e-005
1.634045e-003,-2.712668e-005
1.668727e-003,-8.489165e-006
1.565977e-003,8.203561e-006
1.410556e-003,2.003433e-005
1.275717e-003,2.570661e-005
1.231960e-003,2.586868e-005
1.332764e-003,2.295151e-005
1.560791e-003,2.035846e-005
1.810210e-003,2.035846e-005
1.927546e-003,2.197911e-005
1.774556e-003,2.635488e-005
1.323203e-003,3.364782e-005
6.977917e-004,4.547859e-005
1.067393e-004,5.795762e-005
-2.715212e-004,6.897806e-005
-3.859392e-004,7.740545e-005
-3.228959e-004,8.372600e-005
-2.253325e-004,8.907416e-005
-1.994021e-004,9.328785e-005
-2.825416e-004,9.555677e-005
-4.426621e-004,9.409818e-005
-6.110479e-004,8.712937e-005
-7.188214e-004,7.594687e-005
-7.296797e-004,6.849186e-005
-6.591813e-004,7.124698e-005
-5.480045e-004,8.291567e-005
-4.342347e-004,9.555677e-005
-3.407230e-004,9.896014e-005
-2.841623e-004,9.280166e-005
-2.799485e-004,7.983643e-005
-3.154408e-004,6.460230e-005
-3.548227e-004,5.439218e-005
-3.635742e-004,5.390598e-005
-3.186821e-004,5.925414e-005
-2.180396e-004,6.314371e-005
-8.125648e-005,5.957827e-005
6.411610e-005,4.985435e-005
1.966855e-004,4.175108e-005
3.088348e-004,4.272347e-005
4.002396e-004,5.212327e-005
4.689553e-004,6.832980e-005
5.195197e-004,8.242948e-005
5.569568e-004,9.182927e-005
5.775391e-004,9.847395e-005
5.775391e-004,1.036600e-004
5.571189e-004,1.031738e-004
5.203301e-004,9.523264e-005
4.702519e-004,8.469840e-005
4.036430e-004,7.902610e-005
3.289309e-004,7.983643e-005
2.624841e-004,8.259154e-005
2.167816e-004,8.534666e-005
1.931201e-004,8.323980e-005
1.966855e-004,7.384001e-005
2.297469e-004,6.314371e-005
2.782044e-004,5.536457e-005
3.124002e-004,4.936815e-005
3.036486e-004,4.239934e-005
2.446569e-004,3.510640e-005
1.589243e-004,3.251336e-005
8.226741e-005,4.013043e-005
4.207521e-005,5.714729e-005
5.017848e-005,7.610893e-005
9.523264e-005,8.956035e-005
1.594105e-004,9.409818e-005
2.326641e-004,8.696730e-005
3.146691e-004,7.254349e-005
3.950535e-004,6.055066e-005
4.603659e-004,5.828174e-005
5.125509e-004,6.525056e-005
5.629533e-004,7.594687e-005
6.229175e-004,8.388807e-005
7.007089e-004,8.437427e-005
7.832002e-004,7.691926e-005
8.293889e-004,6.638501e-005
7.849829e-004,5.779555e-005
6.042799e-004,5.358185e-005
2.843629e-004,5.601283e-005
-1.180453e-004,6.152305e-005
-5.253154e-004,6.638501e-005
-8.863969e-004,6.784360e-005
-1.192052e-003,6.087479e-005
-1.460432e-003,4.515445e-005
-1.696885e-003,2.522042e-005
-1.876616e-003,7.231170e-006
-1.967697e-003,-5.896120e-006
-1.955542e-003,-1.529591e-005
-1.841448e-003,-1.967167e-005
-1.640487e-003,-2.177852e-005
-1.370162e-003,-2.291298e-005
-1.047490e-003,-2.485776e-005
-6.940254e-004,-2.890940e-005
-3.322956e-004,-3.668853e-005
2.165498e-005,-4.689864e-005
3.525924e-004,-5.791909e-005
6.358827e-004,-6.748093e-005
8.470540e-004,-7.396355e-005
9.627687e-004,-7.850138e-005
9.750857e-004,-8.141856e-005
8.995632e-004,-8.222889e-005
7.760693e-004,-7.898758e-005
6.522513e-004,-7.153257e-005
5.517707e-004,-6.148453e-005
4.801379e-004,-4.706071e-005
4.284390e-004,-3.069211e-005
3.741471e-004,-1.416145e-005
2.984626e-004,-3.858999e-007
1.940925e-004,1.209313e-005
7.562274e-005,2.278944e-005
-3.377135e-005,2.586868e-005
-1.138316e-004,1.825161e-005
-1.543479e-004,4.313994e-006
-1.716889e-004,-7.840905e-006
-1.885437e-004,-1.254080e-005
-2.075054e-004,-1.302699e-005
-2.091260e-004,-9.947754e-006
-1.702303e-004,-4.437533e-006
-8.336334e-005,2.045080e-006
3.980630e-005,7.555300e-006
1.796687e-004,8.527692e-006
3.286067e-004,7.393235e-006
4.862963e-004,8.041497e-006
6.561409e-004,1.419998e-005
8.363576e-004,2.457216e-005
1.012847e-003,3.721326e-005
1.147361e-003,4.531652e-005
1.209595e-003,4.645098e-005
1.178316e-003,4.531652e-005
1.035050e-003,4.175108e-005
7.605110e-004,3.948217e-005
3.380065e-004,3.850977e-005
-2.245222e-004,3.656499e-005
-8.682455e-004,3.186510e-005
-1.474532e-003,2.181705e-005
-1.903843e-003,8.527692e-006
-2.054564e-003,-3.951337e-006
-1.901250e-003,-8.813297e-006
-1.499976e-003,-2.978945e-006
-9.677536e-004,9.175954e-006
-4.348829e-004,2.554455e-005
-9.137427e-006,4.029249e-005
2.466016e-004,4.920609e-005
3.192069e-004,5.179913e-005
2.347709e-004,5.293359e-005
5.115087e-005,5.487837e-005
-1.577513e-004,5.698522e-005
-3.326198e-004,6.119892e-005
-4.290486e-004,6.735740e-005
-4.105731e-004,7.481241e-005
-2.551526e-004,7.837785e-005
1.549650e-005,7.465034e-005
3.371962e-004,6.476436e-005
6.574374e-004,5.520250e-005
9.569344e-004,4.612685e-005
1.258700e-003,3.624086e-005
1.610059e-003,2.959618e-005
2.033861e-003,3.202716e-005
2.478246e-003,3.850977e-005
2.824095e-003,4.434413e-005
2.935435e-003,4.645098e-005
2.702870e-003,4.434413e-005
2.077943e-003,3.834771e-005
1.097607e-003,3.073064e-005
-1.097800e-004,2.619281e-005
-1.320732e-003,2.667901e-005
-2.338665e-003,3.056858e-005
-3.058236e-003,3.883391e-005
-3.452056e-003,5.147500e-005
-3.537951e-003,6.427816e-005
-3.332289e-003,7.173317e-005
-2.844471e-003,6.735740e-005
-2.100428e-003,5.293359e-005
-1.198211e-003,3.543053e-005
-3.225717e-004,2.327564e-005
2.945730e-004,1.711715e-005
4.827309e-004,1.484824e-005
2.169437e-004,1.403791e-005
-3.643846e-004,1.468617e-005
-1.024314e-003,1.744128e-005
-1.546165e-003,2.278944e-005
-1.817948e-003,2.927205e-005
-1.838368e-003,3.202716e-005
-1.672576e-003,2.570661e-005
-1.413919e-003,1.776542e-005
-1.145539e-003,1.825161e-005
-8.760247e-004,2.813760e-005
-5.262878e-004,4.142695e-005
1.128280e-005,4.888196e-005
7.869277e-004,4.483032e-005
1.708757e-003,3.202716e-005
2.597527e-003,2.035846e-005
3.262485e-003,1.646889e-005
3.532812e-003,1.825161e-005
3.308026e-003,1.695509e-005
2.621674e-003,1.387585e-005
1.620593e-003,1.355172e-005
4.976409e-004,2.035846e-005
-5.253154e-004,3.154097e-005
-1.255258e-003,4.239934e-005
-1.596891e-003,5.115087e-005
-1.523962e-003,5.633696e-005
-1.046355e-003,6.103685e-005
-2.005366e-004,6.832980e-005
9.491552e-004,7.821578e-005
2.253460e-003,8.486046e-005
3.459396e-003,8.502253e-005
4.227269e-003,7.772959e-005
4.245745e-003,6.719534e-005
3.390518e-003,5.260946e-005
1.835492e-003,3.543053e-005
-2.664048e-005,2.343770e-005
-1.686351e-003,2.311357e-005
-2.800876e-003,3.251336e-005
-3.254822e-003,4.369587e-005
-3.084167e-003,4.839576e-005
-2.451948e-003,4.612685e-005
-1.598350e-003,4.239934e-005
-7.603100e-004,4.337174e-005
-1.094559e-004,4.612685e-005
2.816078e-004,5.147500e-005
4.318423e-004,6.055066e-005
4.234150e-004,7.400208e-005
3.456236e-004,8.810177e-005
2.513016e-004,9.539470e-005
1.631380e-004,8.777764e-005
9.037068e-005,6.525056e-005
3.526847e-005,3.656499e-005
4.244267e-007,1.128280e-005
-1.659243e-005,1.002961e-007
-2.469570e-005,7.231170e-006
-3.733679e-005,2.992031e-005
-6.764300e-005,5.909207e-005
-1.224211e-004,8.550872e-005
-1.835197e-004,1.017153e-004
-2.156086e-004,1.013911e-004
-1.815749e-004,8.680524e-005
-6.667061e-005,6.444023e-005
9.879807e-005,4.531652e-005
2.491947e-004,3.445814e-005
3.164518e-004,2.943412e-005
2.616738e-004,2.441009e-005
1.022014e-004,1.663096e-005
-9.130454e-005,5.610517e-006
-2.344082e-004,-6.058186e-006
-2.872415e-004,-1.805102e-005
-2.535319e-004,-2.696461e-005
-1.598582e-004,-3.117831e-005
-2.777494e-005,-3.069211e-005
1.297525e-004,-2.745081e-005
2.991108e-004,-2.356124e-005
4.631210e-004,-1.772689e-005
5.921251e-004,-8.489165e-006
6.574374e-004,-2.330684e-006
6.467411e-004,-2.006553e-006
5.755944e-004,-3.951337e-006
4.770586e-004,-2.006553e-006
3.837089e-004,7.555300e-006
3.209897e-004,2.003433e-005
2.971661e-004,2.489629e-005
3.075383e-004,1.954813e-005
3.376824e-004,9.986280e-006
3.694472e-004,9.106226e-007
3.872744e-004,-6.706447e-006
3.827366e-004,-9.299492e-006
3.613439e-004,-7.192643e-006
3.344411e-004,-2.330684e-006
3.007315e-004,4.313994e-006
2.466016e-004,1.322759e-005
1.506590e-004,2.522042e-005
-7.192643e-006,3.478227e-005
-2.407287e-004,4.045456e-005
-5.290429e-004,4.320967e-005
-7.943438e-004,4.272347e-005
-9.270752e-004,3.834771e-005
-8.533355e-004,3.008238e-005
-5.849554e-004,1.857574e-005
-2.023193e-004,8.527692e-006
1.911753e-004,4.151929e-006
5.072028e-004,1.371378e-005
7.123776e-004,3.721326e-005
8.173960e-004,6.638501e-005
8.509436e-004,8.810177e-005
8.470540e-004,9.798775e-005
8.404093e-004,9.409818e-005
8.564538e-004,8.113296e-005
9.058837e-004,6.751947e-005
9.817304e-004,5.974033e-005
1.054660e-003,5.925414e-005
1.101659e-003,6.184718e-005
1.111545e-003,6.233338e-005
1.083508e-003,6.022653e-005
1.046070e-003,5.617490e-005
1.047367e-003,5.179913e-005
1.117379e-003,4.774750e-005
1.213808e-003,4.661304e-005
1.209108e-003,4.726130e-005
9.592033e-004,4.693717e-005
3.963500e-004,4.256141e-005
-4.099249e-004,3.543053e-005
-1.299825e-003,2.846173e-005
-2.105290e-003,2.781346e-005
-2.724219e-003,3.299956e-005
-3.138783e-003,4.337174e-005
-3.388202e-003,5.601283e-005
-3.553185e-003,6.557468e-005
-3.729189e-003,6.687120e-005
-3.964185e-003,6.022653e-005
-4.191888e-003,4.888196e-005
-4.246991e-003,3.478227e-005
-3.946196e-003,2.068259e-005
-3.199071e-003,9.338019e-006
-2.081467e-003,2.855406e-006
-8.155743e-004,3.017472e-006
3.229344e-004,1.144487e-005
1.115921e-003,2.667901e-005
1.493696e-003,4.223728e-005
1.519950e-003,5.455424e-005
1.339247e-003,6.022653e-005
1.113166e-003,5.730935e-005
9.447794e-004,4.531652e-005
8.579124e-004,2.813760e-005
8.154512e-004,8.851824e-006
7.577559e-004,-6.706447e-006
6.449584e-004,-1.205460e-005
4.639313e-004,-6.058186e-006
2.279641e-004,6.258778e-006
-4.090223e-005,1.695509e-005
-3.107410e-004,2.522042e-005
-5.141328e-004,3.332369e-005
-5.557836e-004,4.126489e-005
-3.658432e-004,4.402000e-005
5.471631e-005,3.996836e-005
6.177314e-004,2.927205e-005
1.174426e-003,1.744128e-005
1.590611e-003,6.582909e-006
1.803403e-003,-3.141010e-006
1.834520e-003,-1.173047e-005
1.748301e-003,-1.918548e-005
1.615731e-003,-2.501983e-005
1.483810e-003,-2.793700e-005
1.367771e-003,-2.728874e-005
1.263076e-003,-2.372330e-005
1.167620e-003,-1.853721e-005
1.080752e-003,-1.124428e-005
1.002313e-003,-3.141010e-006
9.306798e-004,8.203561e-006
8.681225e-004,2.068259e-005
8.207993e-004,3.397195e-005
7.916276e-004,4.531652e-005
7.749348e-004,5.747142e-005
7.559732e-004,7.384001e-005
7.154568e-004,9.231547e-005
6.336138e-004,1.077117e-004
5.000719e-004,1.164632e-004
3.261757e-004,1.140322e-004
1.539003e-004,1.057669e-004
2.975825e-005,9.636710e-005
-2.599222e-005,8.907416e-005
-1.983374e-005,8.453633e-005
2.100672e-005,8.356393e-005
6.233338e-005,8.161915e-005
7.772959e-005,7.594687e-005
5.909207e-005,6.735740e-005
1.306552e-005,6.087479e-005
-5.856734e-005,6.119892e-005
-1.590478e-004,6.525056e-005
-2.827036e-004,6.816773e-005
-4.190006e-004,6.687120e-005
-5.548113e-004,6.071273e-005
-6.714982e-004,5.115087e-005
-7.541516e-004,4.126489e-005
-7.996919e-004,3.656499e-005
-8.097399e-004,3.526847e-005
-7.771648e-004,3.267542e-005
-6.954839e-004,3.024445e-005
-5.716661e-004,3.186510e-005
-4.288865e-004,4.029249e-005
-2.901587e-004,5.066468e-005
-1.551583e-004,5.455424e-005
-1.034161e-006,5.115087e-005
2.099749e-004,4.580272e-005
5.028270e-004,4.158902e-005
8.822222e-004,3.802358e-005
1.329523e-003,3.170303e-005
1.807455e-003,2.230324e-005
2.227692e-003,1.274139e-005
2.459608e-003,3.179537e-006
2.399320e-003,-6.220251e-006
2.019761e-003,-1.513384e-005
1.361936e-003,-2.258885e-005
5.308643e-004,-2.647842e-005
-3.104168e-004,-2.955766e-005
-9.936841e-004,-3.166451e-005
-1.423157e-003,-2.696461e-005
-1.590409e-003,-1.545797e-005
-1.554430e-003,-5.479652e-007
-1.398847e-003,1.079661e-005
-1.188324e-003,1.160693e-005
-9.546263e-004,4.151929e-006
-7.092595e-004,-6.058186e-006
-4.770199e-004,-1.497178e-005
-3.084720e-004,-2.064406e-005
-2.541802e-004,-2.501983e-005
-3.347266e-004,-3.215070e-005
-5.363358e-004,-4.268495e-005
-8.189777e-004,-5.419158e-005
-1.134519e-003,-6.245691e-005
-1.434664e-003,-5.808115e-005
-1.674196e-003,-3.895744e-005
-1.826862e-003,-9.461557e-006
-1.868513e-003,1.954813e-005
-1.779377e-003,4.013043e-005
-1.577119e-003,5.293359e-005
-1.333859e-003,5.779555e-005
-1.123822e-003,5.504044e-005
-9.384198e-004,4.547859e-005
-6.877048e-004,3.251336e-005
-2.974516e-004,2.116879e-005
2.331502e-004,1.436204e-005
8.070238e-004,8.689757e-006
1.266966e-003,3.827798e-006
1.467927e-003,-6.176923e-008
1.306024e-003,-6.382316e-006
7.874139e-004,-1.270286e-005
6.103685e-005,-9.785687e-006
-6.282268e-004,2.369210e-006
-1.051703e-003,1.711715e-005
-1.105185e-003,2.927205e-005
-8.301602e-004,3.380988e-005
-3.651949e-004,2.846173e-005
1.260251e-004,1.711715e-005
5.175750e-004,2.855406e-006
7.481941e-004,-1.075808e-005
8.271199e-004,-2.761287e-005
8.073479e-004,-4.965375e-005
7.514353e-004,-7.428768e-005
7.067053e-004,-9.179074e-005
6.804507e-004,-9.811128e-005
6.417171e-004,-9.243900e-005
5.337815e-004,-7.590833e-005
3.067279e-004,-5.419158e-005
-4.155049e-005,-3.117831e-005
-4.420138e-004,-8.489165e-006
-7.804061e-004,1.549650e-005
-9.533298e-004,4.304760e-005
-9.201064e-004,7.286762e-005
-7.131490e-004,9.798775e-005
-4.068456e-004,1.125736e-004
-8.757703e-005,1.138701e-004
1.756170e-004,1.018773e-004
3.508097e-004,8.259154e-005
4.381629e-004,6.638501e-005
4.653899e-004,5.909207e-005
4.658761e-004,6.622294e-005
4.696036e-004,8.793970e-005
4.926169e-004,1.177597e-004
5.428572e-004,1.443384e-004
6.232416e-004,1.589243e-004
7.316634e-004,1.620035e-004
8.493229e-004,1.587622e-004
9.491552e-004,1.504969e-004
1.017061e-003,1.409351e-004
1.048339e-003,1.302387e-004
1.045098e-003,1.198666e-004
1.010740e-003,1.054428e-004
9.418623e-004,8.729143e-005
8.152892e-004,7.189524e-005
6.071971e-004,6.687120e-005
3.237448e-004,6.897806e-005
2.230324e-005,6.849186e-005
-2.133397e-004,5.893001e-005
-3.199787e-004,4.466826e-005
-2.914552e-004,2.975825e-005
-1.736337e-004,1.889987e-005
-2.745081e-005,1.533444e-005
1.025256e-004,2.100672e-005
1.960373e-004,3.397195e-005
2.525981e-004,4.985435e-005
2.733424e-004,6.379197e-005
2.419018e-004,7.189524e-005
1.347766e-004,7.302969e-005
-6.796713e-005,7.189524e-005
-3.663293e-004,7.627100e-005
-7.368106e-004,9.053274e-005
-1.150239e-003,1.112771e-004
-1.587329e-003,1.318594e-004
-1.996544e-003,1.435281e-004
-2.296041e-003,1.425557e-004
-2.408353e-003,1.313732e-004
-2.277566e-003,1.120874e-004
-1.880019e-003,8.437427e-005
-1.234351e-003,5.115087e-005
-4.031182e-004,2.133085e-005
5.123889e-004,2.531276e-006
1.373767e-003,-2.816880e-006
2.055902e-003,1.720949e-006
2.484729e-003,1.209313e-005
2.644364e-003,2.635488e-005
2.578889e-003,4.061663e-005
2.364800e-003,4.855782e-005
2.093177e-003,4.758544e-005
1.835168e-003,3.996836e-005
1.620917e-003,3.299956e-005
1.437621e-003,2.829966e-005
1.258214e-003,2.035846e-005
1.068111e-003,9.986280e-006
8.741189e-004,1.558884e-006
7.018433e-004,-2.238345e-007
5.862907e-004,3.179537e-006
5.504742e-004,7.231170e-006
5.785116e-004,5.124321e-006
6.013628e-004,-6.706447e-006
4.817585e-004,-2.388537e-005
4.126489e-005,-3.701266e-005
-8.154122e-004,-3.976777e-005
-1.971262e-003,-2.955766e-005
-3.121928e-003,-1.075808e-005
-3.931934e-003,1.144487e-005
-4.185730e-003,3.364782e-005
-3.868566e-003,5.406805e-005
-3.159527e-003,6.946425e-005
-2.320351e-003,7.724339e-005
-1.573392e-003,7.465034e-005
-1.027069e-003,6.330577e-005
-6.732810e-004,4.904402e-005
-4.371519e-004,3.510640e-005
-2.478596e-004,2.457216e-005
-6.650855e-005,1.889987e-005
1.114392e-004,1.841368e-005
2.773941e-004,2.538249e-005
4.273045e-004,3.899597e-005
5.556603e-004,5.309565e-005
6.532237e-004,5.617490e-005
7.118914e-004,4.418206e-005
7.339323e-004,2.457216e-005
7.250187e-004,1.558884e-006
6.942262e-004,-1.869928e-005
6.498203e-004,-3.296103e-005
5.982835e-004,-3.652646e-005
5.517707e-004,-2.566809e-005
5.294057e-004,-5.734055e-006
5.431813e-004,1.225519e-005
5.892079e-004,2.149292e-005
6.543581e-004,2.181705e-005
7.255049e-004,1.549650e-005
7.930862e-004,6.096713e-006
8.488367e-004,1.558884e-006
8.906496e-004,6.096713e-006
9.241971e-004,1.760335e-005
9.498034e-004,2.975825e-005
9.611481e-004,4.094075e-005
9.442933e-004,4.661304e-005
8.901634e-004,5.163707e-005
8.019998e-004,5.795762e-005
6.895264e-004,5.974033e-005
5.726772e-004,5.633696e-005
4.631210e-004,5.390598e-005
3.718782e-004,5.406805e-005
3.094830e-004,5.309565e-005
2.817698e-004,4.936815e-005
2.879283e-004,4.596478e-005
3.227724e-004,4.628891e-005
3.694472e-004,5.001641e-005
4.151496e-004,5.196120e-005
4.590693e-004,5.050261e-005
4.992615e-004,4.288554e-005
5.256782e-004,2.975825e-005
5.266506e-004,1.452411e-005
4.973168e-004,3.179537e-006
4.350837e-004,-7.192643e-006
3.493511e-004,-1.480971e-005
2.509774e-004,-2.031993e-005
1.485521e-004,-2.307504e-005
4.596478e-005,-2.712668e-005
-4.997788e-005,-3.296103e-005
-1.277692e-004,-3.895744e-005
-1.754164e-004,-4.381940e-005
-1.950263e-004,-4.706071e-005
-2.024813e-004,-4.544005e-005
-2.146362e-004,-3.782299e-005
-2.436459e-004,-2.453363e-005
-2.916172e-004,-1.108221e-005
-3.579019e-004,-3.858999e-007
-4.331002e-004,9.824214e-006
-5.037607e-004,1.841368e-005
-5.535147e-004,2.424803e-005
-5.718281e-004,2.829966e-005
-5.452494e-004,3.753739e-005
-4.608134e-004,4.985435e-005
-3.220855e-004,5.893001e-005
-1.724992e-004,6.055066e-005
-8.077029e-005,5.293359e-005
-9.681476e-005,3.753739e-005
-2.185258e-004,1.776542e-005
-3.810773e-004,3.179537e-006
-4.873921e-004,-1.034161e-006
-4.629203e-004,4.962256e-006
-3.081479e-004,1.906194e-005
-8.433573e-005,3.656499e-005
1.334801e-004,5.358185e-005
3.005694e-004,6.638501e-005
4.088291e-004,6.946425e-005
4.751138e-004,6.119892e-005
5.195197e-004,4.580272e-005
5.545259e-004,3.089270e-005
5.723531e-004,2.068259e-005
5.454502e-004,1.517237e-005
4.368664e-004,1.533444e-005
2.269918e-004,2.181705e-005
-7.428768e-005,3.154097e-005
-4.324520e-004,3.802358e-005
-8.074710e-004,4.061663e-005
-1.156722e-003,4.126489e-005
-1.449250e-003,4.239934e-005
-1.679707e-003,4.142695e-005
-1.857492e-003,3.721326e-005
-1.986334e-003,3.478227e-005
-2.035926e-003,3.640293e-005
-1.950356e-003,4.126489e-005
-1.676303e-003,4.596478e-005
-1.199669e-003,5.050261e-005
-5.721523e-004,5.552663e-005
9.523264e-005,6.281957e-005
6.705647e-004,7.027457e-005
1.056280e-003,7.238143e-005
1.212674e-003,6.670914e-005
1.152223e-003,5.552663e-005
9.193352e-004,4.142695e-005
5.738116e-004,3.073064e-005
1.953890e-004,2.716520e-005
-1.287416e-004,2.975825e-005
-3.480160e-004,3.445814e-005
-4.486585e-004,4.110282e-005
-4.285624e-004,5.244739e-005
-2.836761e-004,6.379197e-005
2.369210e-006,6.995045e-005
4.313562e-004,6.622294e-005
9.639032e-004,5.325772e-005
1.503419e-003,3.413401e-005
1.898374e-003,1.517237e-005
1.966928e-003,3.989864e-006
1.603738e-003,5.124321e-006
8.668260e-004,1.727922e-005
-3.360929e-005,3.202716e-005
-8.142778e-004,3.883391e-005
-1.259309e-003,3.753739e-005
-1.308415e-003,3.494434e-005
-1.051379e-003,3.283749e-005
-6.463781e-004,3.462021e-005
-2.384598e-004,4.029249e-005
7.724339e-005,4.758544e-005
2.610255e-004,5.277152e-005
3.185587e-004,5.293359e-005
2.804733e-004,4.564065e-005
1.746447e-004,3.332369e-005
3.251336e-005,1.727922e-005
-9.033214e-005,2.531276e-006
-1.229073e-004,-8.813297e-006
-3.490581e-005,-1.124428e-005
1.216493e-004,-3.627206e-006
2.396328e-004,9.500084e-006
2.182402e-004,2.052053e-005
1.922400e-005,2.505835e-005
-3.308370e-004,2.311357e-005
-7.648478e-004,1.711715e-005
-1.187028e-003,1.322759e-005
-1.487011e-003,1.468617e-005
-1.557833e-003,2.100672e-005
-1.322028e-003,3.073064e-005
-7.876991e-004,4.142695e-005
-5.743289e-005,4.807163e-005
6.997365e-004,4.839576e-005
1.298407e-003,4.256141e-005
1.612976e-003,3.299956e-005
1.601956e-003,2.343770e-005
1.306996e-003,1.501031e-005
8.477023e-004,6.420843e-006
3.781987e-004,-1.844488e-006
3.932010e-005,-6.706447e-006
-9.292519e-005,-6.220251e-006
-3.036798e-005,-6.176923e-008
1.457970e-004,1.047248e-005
3.368721e-004,2.149292e-005
4.884032e-004,2.943412e-005
6.175693e-004,3.299956e-005
7.994067e-004,3.834771e-005
1.110897e-003,4.580272e-005
1.569218e-003,5.196120e-005
2.078915e-003,5.439218e-005
2.477111e-003,5.439218e-005
2.581644e-003,5.293359e-005
2.236443e-003,5.325772e-005
1.384301e-003,5.406805e-005
1.203528e-004,5.309565e-005
-1.288805e-003,4.953022e-005
-2.533143e-003,4.483032e-005
-3.427746e-003,4.191315e-005
-3.921723e-003,4.207521e-005
-4.072445e-003,4.645098e-005
-3.977960e-003,5.811968e-005
-3.723031e-003,7.465034e-005
-3.356437e-003,8.502253e-005
-2.887581e-003,7.821578e-005
-2.307386e-003,5.649903e-005
-1.621687e-003,3.332369e-005
-8.606284e-004,2.100672e-005
-7.347736e-005,2.489629e-005
6.762370e-004,4.256141e-005
1.322230e-003,6.217131e-005
1.824634e-003,7.238143e-005
2.170644e-003,7.173317e-005
2.364800e-003,6.444023e-005
2.426223e-003,5.601283e-005
2.378575e-003,4.969228e-005
2.252326e-003,4.564065e-005
2.074377e-003,4.207521e-005
1.857533e-003,3.753739e-005
1.606007e-003,3.348575e-005
1.323365e-003,2.862379e-005
1.015764e-003,2.505835e-005
6.819093e-004,2.165498e-005
3.145071e-004,1.630683e-005
-9.195280e-005,6.744974e-006
-5.253154e-004,-4.437533e-006
-9.269132e-004,-1.205460e-005
-1.183138e-003,-1.010982e-005
-1.193997e-003,-3.465141e-006
-9.269132e-004,4.244267e-007
-4.405552e-004,1.072688e-006
1.363972e-004,3.827798e-006
6.561409e-004,1.338965e-005
1.013981e-003,2.489629e-005
1.181233e-003,3.251336e-005
1.190795e-003,3.332369e-005
1.103766e-003,2.554455e-005
9.828649e-004,1.095867e-005
8.734707e-004,-5.247859e-006
8.008654e-004,-1.643037e-005
7.647247e-004,-1.950961e-005
7.399287e-004,-1.140634e-005
6.866092e-004,7.393235e-006
5.563085e-004,2.829966e-005
3.166139e-004,4.499239e-005
-1.221667e-005,5.568870e-005
-3.598467e-004,6.055066e-005
-6.374645e-004,6.184718e-005
-7.773269e-004,6.136099e-005
-7.650100e-004,5.795762e-005
-6.389231e-004,4.936815e-005
-4.630823e-004,3.364782e-005
-2.977757e-004,1.614476e-005
-1.710407e-004,2.369210e-006
-8.741497e-005,-5.247859e-006
-3.441962e-005,-1.059601e-005
7.069104e-006,-1.254080e-005
4.596478e-005,-1.173047e-005
8.016056e-005,-8.002969e-006
9.977046e-005,-4.275467e-006
9.442231e-005,3.503668e-006
5.763348e-005,1.582063e-005
-3.627206e-006,2.797553e-005
-7.120844e-005,3.769945e-005
-1.196660e-004,4.320967e-005
-1.370070e-004,4.709924e-005
-1.159385e-004,4.969228e-005
-6.310517e-005,5.115087e-005
9.986280e-006,5.098881e-005
8.631904e-005,5.034054e-005
1.577899e-004,4.564065e-005
2.235884e-004,3.672705e-005
2.850111e-004,2.489629e-005
3.384927e-004,1.760335e-005
3.681507e-004,1.922400e-005
3.692851e-004,3.267542e-005
3.399513e-004,5.341978e-005
2.798251e-004,7.610893e-005
2.000889e-004,9.458438e-005
1.169494e-004,1.059289e-004
3.559260e-005,1.081979e-004
-4.625038e-005,1.030118e-004
-1.255003e-004,9.474644e-005
-1.921091e-004,8.567078e-005
-2.327876e-004,7.627100e-005
-2.360288e-004,7.254349e-005
-2.013469e-004,8.356393e-005
-1.352242e-004,1.114392e-004
-3.928157e-005,1.480659e-004
9.669123e-005,1.808031e-004
2.799871e-004,1.976579e-004
4.893756e-004,1.986303e-004
6.707268e-004,1.885823e-004
7.645627e-004,1.741585e-004
7.331220e-004,1.605450e-004
5.819149e-004,1.522796e-004
3.587509e-004,1.461212e-004
1.305629e-004,1.349386e-004
-4.884343e-005,1.153287e-004
-1.514308e-004,9.312579e-005
-1.797922e-004,7.708132e-005
-1.588858e-004,6.784360e-005
-1.198280e-004,5.957827e-005
-7.817725e-005,5.115087e-005
-3.685059e-005,4.126489e-005
-2.330684e-006,2.862379e-005
1.031041e-005,1.419998e-005
-4.923729e-006,2.623614e-007
-4.722277e-005,-1.254080e-005
-9.697682e-005,-2.307504e-005
-1.306864e-004,-3.555407e-005
-1.408965e-004,-5.257093e-005
-1.394379e-004,-7.250496e-005
-1.455964e-004,-8.968388e-005
-1.754164e-004,-1.026491e-004
-2.355427e-004,-1.102662e-004
-3.214373e-004,-1.122110e-004
-4.183523e-004,-1.055663e-004
-5.073261e-004,-9.600443e-005
-5.757177e-004,-8.806324e-005
-6.147754e-004,-8.158062e-005
-6.256338e-004,-7.850138e-005
-6.089411e-004,-7.882551e-005
-5.637249e-004,-8.028410e-005
-4.974402e-004,-7.931171e-005
-4.269418e-004,-7.250496e-005
-3.707051e-004,-6.099833e-005
-3.459091e-004,-4.851930e-005
-3.614674e-004,-4.009190e-005
-3.977700e-004,-3.522994e-005
-4.091146e-004,-3.441962e-005
-3.566054e-004,-3.474375e-005
-2.374874e-004,-3.393342e-005
-8.660465e-005,-2.955766e-005
5.050261e-005,-2.275091e-005
1.479039e-004,-1.335112e-005
2.057612e-004,-1.196226e-006
2.441707e-004,8.527692e-006
2.825802e-004,1.257933e-005
3.365479e-004,1.306552e-005
4.201737e-004,1.306552e-005
5.209784e-004,1.598270e-005
5.997421e-004,2.181705e-005
6.138418e-004,2.943412e-005
5.417227e-004,3.672705e-005
3.885709e-004,4.045456e-005
1.817755e-004,3.834771e-005
-3.814712e-005,3.462021e-005
-2.303566e-004,2.943412e-005
-3.656811e-004,2.230324e-005
-4.399070e-004,1.841368e-005
-4.617858e-004,2.133085e-005
-4.468758e-004,3.316162e-005
-4.217557e-004,4.904402e-005
-4.036044e-004,6.071273e-005
-3.886943e-004,6.249544e-005
-3.598467e-004,5.520250e-005
-3.217614e-004,4.175108e-005
-3.266234e-004,2.554455e-005
-4.318037e-004,1.501031e-005
-6.483229e-004,1.338965e-005
-8.980655e-004,2.068259e-005
-1.040197e-003,2.910999e-005
-9.988701e-004,3.624086e-005
-8.073090e-004,4.272347e-005
-5.716661e-004,5.309565e-005
-4.143007e-004,6.816773e-005
-3.967976e-004,8.437427e-005
-4.988987e-004,9.344992e-005
-6.460540e-004,9.118101e-005
-7.317865e-004,8.161915e-005
-6.711741e-004,7.627100e-005
-4.460654e-004,7.853991e-005
-9.859748e-005,8.810177e-005
3.054314e-004,1.062531e-004
6.979537e-004,1.291043e-004
1.032781e-003,1.513072e-004
1.292086e-003,1.691344e-004
1.473924e-003,1.791825e-004
1.578132e-003,1.772377e-004
1.597418e-003,1.650828e-004
1.515088e-003,1.479039e-004
1.320123e-003,1.266733e-004
1.022247e-003,1.028497e-004
6.460928e-004,8.048469e-005
2.166196e-004,6.411610e-005
-2.554767e-004,5.568870e-005
-7.609583e-004,5.050261e-005
-1.270167e-003,4.450619e-005
-1.741778e-003,3.137890e-005
-2.137703e-003,1.160693e-005
-2.409325e-003,-1.140634e-005
-2.486306e-003,-3.198863e-005
-2.300579e-003,-4.787104e-005
-1.830265e-003,-6.731887e-005
-1.119285e-003,-1.003802e-004
-2.822175e-004,-1.524032e-004
5.307022e-004,-2.099363e-004
1.188688e-003,-2.533698e-004
1.625293e-003,-2.708729e-004
1.823499e-003,-2.632558e-004
1.808589e-003,-2.350565e-004
1.649927e-003,-1.961608e-004
1.426601e-003,-1.519170e-004
1.201167e-003,-1.034594e-004
1.022571e-003,-5.321919e-005
9.400796e-004,-7.516774e-006
9.959922e-004,2.846173e-005
1.197440e-003,5.423011e-005
1.484944e-003,7.481241e-005
1.741494e-003,9.150514e-005
1.828037e-003,1.034980e-004
1.631289e-003,1.090082e-004
1.125969e-003,1.104668e-004
4.059119e-004,1.078737e-004
-3.371576e-004,9.944633e-005
-8.957966e-004,8.599491e-005
-1.149429e-003,7.108490e-005
-1.100161e-003,6.022653e-005
-8.330774e-004,5.471631e-005
-4.711856e-004,5.909207e-005
-1.389517e-004,7.675719e-005
7.740545e-005,1.026876e-004
1.477418e-004,1.247285e-004
9.652916e-005,1.339663e-004
7.555300e-006,1.279698e-004
-1.886135e-005,1.146805e-004
7.189524e-005,1.020394e-004
2.767458e-004,9.733949e-005
5.567948e-004,1.054428e-004
8.663398e-004,1.244044e-004
1.174102e-003,1.466074e-004
1.457393e-003,1.621656e-004
1.688985e-003,1.636242e-004
1.847971e-003,1.516314e-004
1.937594e-003,1.331559e-004
1.982810e-003,1.172735e-004
1.993993e-003,1.081979e-004
1.934514e-003,1.047945e-004
1.744087e-003,1.043083e-004
1.384625e-003,1.030118e-004
8.810877e-004,9.750155e-005
3.284447e-004,8.696730e-005
-1.357104e-004,7.821578e-005
-4.047388e-004,7.286762e-005
-4.724821e-004,7.059870e-005
-4.332623e-004,7.205730e-005
-4.222419e-004,7.238143e-005
-5.604835e-004,6.865393e-005
-9.108687e-004,6.022653e-005
-1.463349e-003,5.163707e-005
-2.154558e-003,4.807163e-005
-2.884664e-003,4.839576e-005
-3.539572e-003,4.985435e-005
-4.013777e-003,4.807163e-005
-4.213767e-003,4.175108e-005
-4.067907e-003,2.992031e-005
-3.551078e-003,1.436204e-005
-2.703636e-003,-4.599598e-006
-1.634328e-003,-2.145439e-005
-5.063537e-004,-3.296103e-005
5.128751e-004,-3.992984e-005
1.302620e-003,-4.317114e-005
1.807455e-003,-4.284701e-005
2.010523e-003,-4.187462e-005
1.925439e-003,-4.333321e-005
1.594987e-003,-4.965375e-005
1.097931e-003,-5.646050e-005
5.439916e-004,-6.067420e-005
4.256141e-005,-6.116039e-005
-3.399127e-004,-5.289506e-005
-5.916001e-004,-3.814712e-005
-7.355140e-004,-2.226472e-005
-7.956403e-004,-1.270286e-005
-7.820268e-004,-8.975361e-006
-7.022907e-004,-8.975361e-006
-5.679386e-004,-7.030578e-006
-3.838324e-004,5.610517e-006
-1.412206e-004,2.700314e-005
1.840444e-004,5.196120e-005
6.269691e-004,7.756751e-005
1.189336e-003,1.025256e-004
1.797893e-003,1.227837e-004
2.329307e-003,1.334801e-004
2.654898e-003,1.338042e-004
2.678398e-003,1.273216e-004
2.376468e-003,1.133840e-004
1.811669e-003,9.604297e-005
