1.383420e-004,3.688912e-005
-1.605064e-004,4.580272e-005
-3.955011e-004,5.423011e-005
-5.042469e-004,5.730935e-005
-4.625961e-004,5.714729e-005
-2.882139e-004,5.730935e-005
-3.117831e-005,6.022653e-005
2.274780e-004,6.395403e-005
4.012120e-004,6.670914e-005
4.277907e-004,6.751947e-005
2.885766e-004,6.606088e-005
2.116879e-005,6.395403e-005
-2.993964e-004,6.298164e-005
-5.813900e-004,6.119892e-005
-7.413484e-004,5.633696e-005
-7.300038e-004,4.645098e-005
-5.572422e-004,3.380988e-005
-2.768693e-004,2.408596e-005
4.175108e-005,2.035846e-005
3.417340e-004,2.489629e-005
5.919630e-004,3.267542e-005
7.846588e-004,3.688912e-005
9.285729e-004,3.380988e-005
1.038129e-003,2.781346e-005
1.118190e-003,2.570661e-005
1.161461e-003,2.781346e-005
1.154816e-003,3.056858e-005
1.090476e-003,3.235129e-005
9.681169e-004,3.299956e-005
7.875760e-004,3.202716e-005
5.589016e-004,2.829966e-005
3.015418e-004,2.100672e-005
3.316162e-005,1.468617e-005
-2.426735e-004,1.112074e-005
-5.374703e-004,8.527692e-006
-8.721351e-004,7.231170e-006
-1.245533e-003,1.014835e-005
-1.608722e-003,1.403791e-005
-1.879209e-003,1.614476e-005
-1.970938e-003,1.403791e-005
-1.805793e-003,7.069104e-006
-1.340180e-003,-3.789271e-006
-5.958137e-004,-1.756482e-005
3.200173e-004,-2.988179e-005
1.226773e-003,-3.911951e-005
1.940187e-003,-4.462973e-005
2.325094e-003,-4.511592e-005
2.339517e-003,-3.830918e-005
2.062222e-003,-2.291298e-005
1.659489e-003,-4.923729e-006
1.306996e-003,8.527692e-006
1.109762e-003,1.614476e-005
1.076215e-003,2.019640e-005
1.144768e-003,2.149292e-005
1.226287e-003,2.311357e-005
1.249787e-003,2.684107e-005
1.188364e-003,3.299956e-005
1.050122e-003,3.656499e-005
8.421920e-004,3.640293e-005
5.491777e-004,3.624086e-005
1.526038e-004,3.786152e-005
-3.178718e-004,4.450619e-005
-7.946679e-004,5.212327e-005
-1.212472e-003,5.811968e-005
-1.548596e-003,6.136099e-005
-1.844851e-003,6.200925e-005
-2.169792e-003,5.763348e-005
-2.580953e-003,4.888196e-005
-3.088542e-003,4.288554e-005
-3.606505e-003,4.239934e-005
-3.962402e-003,4.450619e-005
-3.985254e-003,4.758544e-005
-3.592405e-003,4.871989e-005
-2.830372e-003,4.531652e-005
-1.862030e-003,3.932010e-005
-9.076273e-004,3.462021e-005
-1.553203e-004,3.299956e-005
3.109416e-004,3.867184e-005
5.219507e-004,5.277152e-005
5.715428e-004,7.108490e-005
5.684635e-004,8.777764e-005
5.906665e-004,9.620503e-005
6.687820e-004,9.507057e-005
7.861174e-004,8.680524e-005
9.159318e-004,7.870197e-005
1.048339e-003,7.578480e-005
1.190309e-003,7.935023e-005
1.350429e-003,8.599491e-005
1.523516e-003,9.231547e-005
1.689957e-003,9.361198e-005
1.821230e-003,9.199134e-005
1.891243e-003,9.231547e-005
1.881195e-003,9.490851e-005
1.786710e-003,9.669123e-005
1.618972e-003,9.231547e-005
1.403101e-003,7.853991e-005
1.179126e-003,5.957827e-005
9.805959e-004,4.239934e-005
8.165857e-004,2.813760e-005
6.759128e-004,1.371378e-005
5.423710e-004,7.485573e-007
4.059119e-004,-8.651231e-006
2.684805e-004,-1.221667e-005
1.441764e-004,-1.092015e-005
5.568870e-005,-5.734055e-006
2.003433e-005,1.396819e-006
4.888196e-005,5.772582e-006
1.521176e-004,6.258778e-006
3.302274e-004,5.124321e-006
5.543638e-004,5.934647e-006
7.658592e-004,8.527692e-006
9.013459e-004,7.879431e-006
9.269522e-004,4.313994e-006
8.527263e-004,2.531276e-006
7.156189e-004,5.448451e-006
5.486915e-004,1.031041e-005
3.783608e-004,1.257933e-005
2.198609e-004,1.646889e-005
7.967437e-005,2.489629e-005
-4.835723e-005,3.429608e-005
-1.749302e-004,3.559260e-005
-3.086341e-004,3.073064e-005
-4.428242e-004,2.214118e-005
-5.608077e-004,1.241726e-005
-6.441093e-004,3.827798e-006
-6.862462e-004,-1.358292e-006
-6.949977e-004,-5.479652e-007
-6.855979e-004,5.124321e-006
-6.723086e-004,1.193106e-005
-6.656639e-004,1.565857e-005
-6.716603e-004,1.436204e-005
-6.823567e-004,1.063454e-005
-6.781429e-004,7.879431e-006
-6.254717e-004,7.717366e-006
-4.833405e-004,7.555300e-006
-1.992400e-004,9.338019e-006
2.856594e-004,1.047248e-005
9.906440e-004,1.095867e-005
1.829982e-003,7.717366e-006
2.627509e-003,1.234753e-006
3.195227e-003,-5.896120e-006
3.392300e-003,-1.027188e-005
3.147094e-003,-8.813297e-006
2.462525e-003,-4.761663e-006
1.424980e-003,-3.858999e-007
2.049509e-004,6.096713e-006
-9.667812e-004,1.614476e-005
-1.883909e-003,3.105477e-005
-2.446114e-003,4.580272e-005
-2.663930e-003,5.633696e-005
-2.639782e-003,6.168512e-005
-2.514668e-003,5.876794e-005
-2.403005e-003,4.920609e-005
-2.353088e-003,3.834771e-005
-2.341420e-003,3.137890e-005
-2.300579e-003,2.829966e-005
-2.168010e-003,2.651694e-005
-1.920374e-003,2.311357e-005
-1.571123e-003,2.197911e-005
-1.153480e-003,2.684107e-005
-7.005080e-004,3.867184e-005
-2.373254e-004,5.633696e-005
2.227780e-004,7.529860e-005
6.715371e-004,8.761556e-005
1.074918e-003,9.085687e-005
1.348323e-003,8.534666e-005
1.398887e-003,7.432621e-005
1.183340e-003,6.557468e-005
7.255049e-004,6.541262e-005
1.067393e-004,7.238143e-005
-5.243430e-004,7.983643e-005
-1.005191e-003,7.902610e-005
-1.244561e-003,7.140904e-005
-1.242292e-003,6.346784e-005
-1.064506e-003,6.087479e-005
-8.030953e-004,6.168512e-005
-5.363358e-004,6.103685e-005
-3.096065e-004,5.844381e-005
-1.342519e-004,5.714729e-005
-4.923729e-006,5.730935e-005
8.956035e-005,6.006446e-005
1.658931e-004,6.881599e-005
2.349330e-004,7.708132e-005
3.080244e-004,7.594687e-005
3.820883e-004,6.298164e-005
4.439973e-004,4.645098e-005
4.807861e-004,3.705119e-005
4.874308e-004,3.672705e-005
4.616624e-004,4.061663e-005
4.123945e-004,4.353380e-005
3.543751e-004,4.320967e-005
2.926282e-004,3.688912e-005
2.184023e-004,2.619281e-005
1.265113e-004,1.792748e-005
2.262737e-005,1.565857e-005
-8.239095e-005,1.841368e-005
-1.765509e-004,2.278944e-005
-2.494803e-004,2.667901e-005
-2.883759e-004,3.040651e-005
-2.867553e-004,3.121684e-005
-2.699005e-004,2.765140e-005
-2.793003e-004,2.068259e-005
-3.499608e-004,1.209313e-005
-4.865818e-004,4.800190e-006
-6.536711e-004,-2.168618e-006
-7.904542e-004,-9.461557e-006
-8.387496e-004,-1.999580e-005
-7.630652e-004,-2.971972e-005
-5.728005e-004,-3.182657e-005
-3.126857e-004,-2.356124e-005
-3.863331e-005,-1.075808e-005
2.156472e-004,-2.492749e-006
4.542074e-004,-1.520357e-006
7.088121e-004,-5.896120e-006
1.003285e-003,-1.221667e-005
1.321744e-003,-1.756482e-005
1.602118e-003,-1.724069e-005
1.767911e-003,-1.237873e-005
1.776987e-003,-9.137427e-006
1.625617e-003,-6.220251e-006
1.330820e-003,-4.275467e-006
9.263040e-004,-5.409925e-006
4.723587e-004,-7.516774e-006
6.087479e-005,-4.761663e-006
-2.113949e-004,5.610517e-006
-2.922655e-004,1.987226e-005
-1.953505e-004,3.267542e-005
1.808955e-005,4.126489e-005
2.772320e-004,4.450619e-005
5.203301e-004,4.402000e-005
7.070294e-004,4.077869e-005
8.277682e-004,3.170303e-005
9.024804e-004,1.792748e-005
9.491552e-004,7.231170e-006
9.695755e-004,5.934647e-006
9.523966e-004,1.112074e-005
8.890289e-004,1.582063e-005
7.733142e-004,1.403791e-005
6.161107e-004,1.031041e-005
4.357320e-004,9.013888e-006
2.491947e-004,1.646889e-005
5.228533e-005,3.073064e-005
-1.797922e-004,4.661304e-005
-4.629203e-004,5.455424e-005
-7.862404e-004,4.985435e-005
-1.097568e-003,3.640293e-005
-1.317166e-003,2.295151e-005
-1.380534e-003,1.825161e-005
-1.281188e-003,2.441009e-005
-1.074717e-003,3.543053e-005
-8.635456e-004,4.045456e-005
-7.510723e-004,4.013043e-005
-7.747338e-004,3.996836e-005
-8.523631e-004,4.158902e-005
-8.348601e-004,4.175108e-005
-6.197994e-004,3.543053e-005
-2.259808e-004,2.149292e-005
2.363915e-004,3.503668e-006
6.214589e-004,-1.189254e-005
8.102651e-004,-1.675450e-005
7.588904e-004,-7.516774e-006
5.258403e-004,1.144487e-005
2.357433e-004,3.235129e-005
4.638125e-006,5.098881e-005
-1.049180e-004,6.541262e-005
-9.292519e-005,7.497447e-005
-1.318906e-005,8.113296e-005
5.893001e-005,8.291567e-005
6.476436e-005,8.226741e-005
-1.675450e-005,8.097089e-005
-1.622891e-004,7.691926e-005
-3.147926e-004,6.557468e-005
-4.089525e-004,4.807163e-005
-3.998769e-004,2.748933e-005
-2.916172e-004,9.662150e-006
-1.172350e-004,1.396819e-006
7.367795e-005,5.772582e-006
2.388225e-004,1.808955e-005
3.545372e-004,3.008238e-005
4.159599e-004,3.915804e-005
4.358940e-004,4.499239e-005
4.326527e-004,5.017848e-005
4.179047e-004,5.147500e-005
3.937570e-004,5.017848e-005
3.602095e-004,4.564065e-005
3.237448e-004,3.948217e-005
2.936006e-004,3.591673e-005
2.701011e-004,3.478227e-005
2.579462e-004,3.494434e-005
2.683184e-004,3.964423e-005
3.117519e-004,4.645098e-005
3.858158e-004,5.163707e-005
4.778689e-004,5.309565e-005
5.799701e-004,5.228533e-005
6.822334e-004,4.855782e-005
7.726659e-004,4.029249e-005
8.480264e-004,3.056858e-005
9.050734e-004,2.052053e-005
9.282487e-004,9.824214e-006
8.976184e-004,-2.006553e-006
8.050791e-004,-1.092015e-005
6.616511e-004,-9.137427e-006
4.987753e-004,3.503668e-006
3.448132e-004,2.084466e-005
2.180782e-004,3.850977e-005
1.278078e-004,5.568870e-005
6.622294e-005,6.638501e-005
5.610517e-006,6.557468e-005
-9.405964e-005,5.601283e-005
-2.702246e-004,4.320967e-005
-5.426563e-004,3.235129e-005
-8.964448e-004,2.554455e-005
-1.269519e-003,2.522042e-005
-1.565450e-003,3.462021e-005
-1.696724e-003,5.115087e-005
-1.625253e-003,6.622294e-005
-1.371134e-003,7.157111e-005
-9.954667e-004,6.622294e-005
-5.713420e-004,5.811968e-005
-1.647201e-004,5.568870e-005
1.654069e-004,6.087479e-005
3.734988e-004,6.816773e-005
4.495075e-004,7.594687e-005
4.222805e-004,8.664317e-005
3.436788e-004,9.701536e-005
2.796630e-004,1.025256e-004
2.861456e-004,1.036600e-004
3.809539e-004,9.847395e-005
5.363746e-004,8.648111e-005
6.964952e-004,6.962632e-005
8.031343e-004,5.260946e-005
8.146409e-004,4.061663e-005
7.201567e-004,3.462021e-005
5.355643e-004,3.364782e-005
2.923041e-004,3.283749e-005
2.262737e-005,3.202716e-005
-2.459148e-004,3.267542e-005
-4.818819e-004,3.251336e-005
-6.515642e-004,3.008238e-005
-7.308142e-004,2.684107e-005
-7.146076e-004,2.538249e-005
-6.108859e-004,2.829966e-005
-4.335864e-004,3.526847e-005
-1.997262e-004,4.272347e-005
6.508849e-005,4.515445e-005
3.245551e-004,3.624086e-005
5.457744e-004,1.808955e-005
7.128638e-004,-1.358292e-006
8.126961e-004,-1.351319e-005
8.399231e-004,-1.869928e-005
7.974620e-004,-1.821308e-005
6.929297e-004,-1.626830e-005
5.469088e-004,-1.578211e-005
3.773884e-004,-1.886135e-005
1.921477e-004,-2.518189e-005
-1.156841e-005,-2.988179e-005
-2.426735e-004,-2.955766e-005
-5.104053e-004,-2.583015e-005
-8.186535e-004,-2.194059e-005
-1.158505e-003,-2.404744e-005
-1.519586e-003,-3.182657e-005
-1.888285e-003,-4.074016e-005
-2.216467e-003,-4.446767e-005
-2.416132e-003,-3.944364e-005
-2.404139e-003,-2.988179e-005
-2.148724e-003,-1.837515e-005
-1.681813e-003,-1.189254e-005
-1.099999e-003,-1.578211e-005
-5.335807e-004,-2.696461e-005
-9.811128e-005,-3.895744e-005
1.566554e-004,-4.203669e-005
2.538946e-004,-3.409548e-005
2.576221e-004,-1.545797e-005
2.391467e-004,7.393235e-006
2.451431e-004,2.878586e-005
2.918179e-004,4.353380e-005
3.655576e-004,5.325772e-005
4.414042e-004,5.844381e-005
4.989374e-004,5.860587e-005
5.294057e-004,5.520250e-005
5.360504e-004,4.693717e-005
5.256782e-004,3.478227e-005
5.041235e-004,2.473422e-005
4.733311e-004,2.262737e-005
4.394594e-004,2.797553e-005
4.089912e-004,3.364782e-005
3.835469e-004,3.705119e-005
3.587509e-004,3.996836e-005
3.282826e-004,4.742337e-005
2.974902e-004,5.828174e-005
2.798251e-004,6.962632e-005
2.934386e-004,8.307774e-005
3.499994e-004,9.636710e-005
4.503178e-004,1.057669e-004
5.822390e-004,1.078737e-004
7.229118e-004,1.051186e-004
8.355473e-004,1.023635e-004
8.846531e-004,1.036600e-004
8.554814e-004,1.070634e-004
7.603490e-004,1.101426e-004
6.285898e-004,1.090082e-004
4.927790e-004,1.038221e-004
3.798194e-004,9.912220e-005
3.070520e-004,9.636710e-005
2.756114e-004,9.344992e-005
2.767458e-004,9.004655e-005
2.918179e-004,8.712937e-005
3.117519e-004,8.518459e-005
3.299032e-004,8.469840e-005
3.384927e-004,8.275361e-005
3.303894e-004,7.918817e-005
2.965178e-004,7.205730e-005
2.312054e-004,6.006446e-005
1.522796e-004,4.045456e-005
9.442231e-005,1.760335e-005
8.405013e-005,-7.100305e-007
1.308870e-004,-1.610623e-005
2.239125e-004,-3.749886e-005
3.368721e-004,-7.185670e-005
4.405939e-004,-1.102662e-004
4.986133e-004,-1.378173e-004
4.767345e-004,-1.452723e-004
3.495132e-004,-1.340898e-004
1.101426e-004,-1.135075e-004
-2.125294e-004,-9.389758e-005
-5.562698e-004,-7.590833e-005
-8.434496e-004,-5.662256e-005
-1.006163e-003,-3.393342e-005
-1.016211e-003,-7.840905e-006
-8.982276e-004,1.484824e-005
-7.129869e-004,3.186510e-005
-5.305015e-004,4.142695e-005
-4.102490e-004,4.434413e-005
-3.904771e-004,4.839576e-005
-4.689167e-004,5.633696e-005
-6.133168e-004,6.622294e-005
-7.781372e-004,7.384001e-005
-9.047101e-004,7.562274e-005
-9.377715e-004,7.027457e-005
-8.338877e-004,5.925414e-005
-5.719902e-004,4.709924e-005
-1.697441e-004,3.802358e-005
3.182345e-004,3.397195e-005
8.157754e-004,3.316162e-005
1.245735e-003,3.478227e-005
1.529512e-003,4.191315e-005
1.612814e-003,5.309565e-005
1.501799e-003,6.865393e-005
1.244925e-003,8.275361e-005
8.940530e-004,9.182927e-005
5.114165e-004,9.296372e-005
1.626518e-004,8.875003e-005
-1.112386e-004,7.886404e-005
-2.887001e-004,6.460230e-005
-3.522297e-004,4.207521e-005
-3.235441e-004,1.663096e-005
-2.629317e-004,-1.844488e-006
-2.280877e-004,-8.489165e-006
-2.501285e-004,-5.571990e-006
-3.222476e-004,2.207145e-006
-4.073319e-004,8.689757e-006
-4.624341e-004,1.290346e-005
-4.554653e-004,1.873781e-005
-3.783222e-004,2.667901e-005
-2.345703e-004,3.526847e-005
-3.198863e-005,4.369587e-005
1.905270e-004,4.985435e-005
3.600474e-004,5.082674e-005
3.905157e-004,4.823369e-005
2.300710e-004,4.547859e-005
-9.778715e-005,3.996836e-005
-4.964678e-004,3.283749e-005
-8.372911e-004,2.570661e-005
-1.007460e-003,2.522042e-005
-9.585159e-004,3.040651e-005
-7.155800e-004,3.737532e-005
-3.462333e-004,4.418206e-005
8.016056e-005,5.293359e-005
4.893756e-004,6.395403e-005
7.875760e-004,7.238143e-005
8.810877e-004,7.465034e-005
7.224256e-004,7.124698e-005
3.404375e-004,6.379197e-005
-1.608306e-004,5.455424e-005
-6.326025e-004,4.709924e-005
-9.494402e-004,4.483032e-005
-1.062400e-003,5.082674e-005
-1.005839e-003,6.233338e-005
-8.539837e-004,7.756751e-005
-6.766843e-004,8.858796e-005
-5.162397e-004,9.134307e-005
-3.835083e-004,8.696730e-005
-2.726556e-004,7.967437e-005
-1.648822e-004,7.124698e-005
-4.803310e-005,6.184718e-005
7.448828e-005,5.406805e-005
1.950649e-004,4.871989e-005
3.008935e-004,4.596478e-005
3.793332e-004,4.320967e-005
4.300596e-004,4.564065e-005
4.627969e-004,5.390598e-005
4.887274e-004,6.006446e-005
5.102821e-004,5.747142e-005
5.308643e-004,4.402000e-005
5.577672e-004,2.116879e-005
5.982835e-004,1.883015e-006
6.483617e-004,-4.437533e-006
7.115673e-004,2.369210e-006
7.972998e-004,1.047248e-005
8.959977e-004,1.533444e-005
9.755719e-004,1.387585e-005
1.010902e-003,6.907039e-006
1.019005e-003,1.002961e-007
1.055794e-003,-2.006553e-006
1.152709e-003,2.207145e-006
1.274421e-003,1.128280e-005
1.337464e-003,2.278944e-005
1.269559e-003,2.846173e-005
1.052067e-003,2.343770e-005
7.284220e-004,1.322759e-005
3.926225e-004,3.503668e-006
1.480659e-004,2.623614e-007
7.400208e-005,2.693341e-006
1.830720e-004,8.203561e-006
4.086670e-004,7.069104e-006
6.381517e-004,-1.682422e-006
7.575939e-004,-1.237873e-005
6.932539e-004,-1.967167e-005
4.358940e-004,-2.015787e-005
4.953022e-005,-1.075808e-005
-3.700568e-004,4.962256e-006
-7.645237e-004,2.262737e-005
-1.115395e-003,3.786152e-005
-1.406302e-003,5.066468e-005
-1.616825e-003,5.941620e-005
-1.724923e-003,5.974033e-005
-1.708716e-003,5.034054e-005
-1.555078e-003,3.705119e-005
-1.283943e-003,2.441009e-005
-9.523574e-004,1.663096e-005
-6.356818e-004,1.387585e-005
-3.995527e-004,1.727922e-005
-2.760590e-004,2.716520e-005
-2.483458e-004,4.564065e-005
-2.752486e-004,6.784360e-005
-3.329439e-004,8.518459e-005
-4.188385e-004,9.588090e-005
-5.360117e-004,1.020394e-004
-6.567503e-004,1.062531e-004
-7.086112e-004,1.049566e-004
-6.209339e-004,9.393611e-005
-3.791325e-004,7.481241e-005
-6.164659e-005,5.244739e-005
1.845306e-004,2.878586e-005
2.080301e-004,7.069104e-006
-4.398147e-005,-5.896120e-006
-4.723200e-004,-6.382316e-006
-8.935277e-004,1.002961e-007
-1.149753e-003,3.017472e-006
-1.175521e-003,-1.682422e-006
-9.876876e-004,-1.173047e-005
-6.669604e-004,-2.194059e-005
-3.138202e-004,-2.745081e-005
-1.335112e-005,-2.842320e-005
2.052750e-004,-3.328516e-005
3.628025e-004,-4.754691e-005
4.939134e-004,-6.861539e-005
6.120591e-004,-9.000801e-005
7.005468e-004,-1.028112e-004
7.396046e-004,-9.973194e-005
7.188602e-004,-7.882551e-005
6.454446e-004,-4.236081e-005
5.350781e-004,-1.520357e-006
4.169323e-004,3.397195e-005
3.166139e-004,5.990240e-005
2.563256e-004,7.594687e-005
2.462775e-004,8.469840e-005
2.741528e-004,8.875003e-005
3.125622e-004,9.101894e-005
3.371962e-004,9.669123e-005
3.404375e-004,1.025256e-004
3.276343e-004,9.588090e-005
2.968419e-004,6.978838e-005
2.440086e-004,2.700314e-005
1.848548e-004,-2.420950e-005
1.524417e-004,-6.974985e-005
1.738343e-004,-9.924574e-005
2.568118e-004,-1.039456e-004
3.978086e-004,-8.417366e-005
5.916388e-004,-4.511592e-005
8.370059e-004,4.800190e-006
1.129534e-003,5.601283e-005
1.457879e-003,1.044704e-004
1.776338e-003,1.446626e-004
2.011820e-003,1.733481e-004
2.093177e-003,1.949028e-004
1.968873e-003,2.099749e-004
1.626752e-003,2.149989e-004
1.138610e-003,2.055991e-004
6.318311e-004,1.793446e-004
2.453051e-004,1.334801e-004
6.525056e-005,7.643306e-005
8.210535e-005,2.197911e-005
1.866375e-004,-1.788895e-005
2.346088e-004,-3.166451e-005
1.187321e-004,-1.562004e-005
-1.815749e-004,2.473422e-005
-5.843071e-004,7.351588e-005
-9.489540e-004,1.114392e-004
-1.155587e-003,1.281319e-004
-1.177142e-003,1.198666e-004
-1.085575e-003,9.263960e-005
-1.006001e-003,6.314371e-005
-1.044248e-003,4.353380e-005
-1.241158e-003,3.656499e-005
-1.564802e-003,3.624086e-005
-1.923939e-003,3.137890e-005
-2.178544e-003,1.274139e-005
-2.194589e-003,-2.907146e-005
-1.916646e-003,-9.098041e-005
-1.393985e-003,-1.504584e-004
-7.544757e-004,-1.825473e-004
-1.598582e-004,-1.741199e-004
2.530843e-004,-1.293899e-004
4.221185e-004,-6.699474e-005
3.869503e-004,-4.923729e-006
2.524360e-004,4.564065e-005
1.261871e-004,8.129502e-005
6.492643e-005,1.025256e-004
6.379197e-005,1.103047e-004
8.567078e-005,1.069013e-004
1.022014e-004,9.652916e-005
1.020394e-004,8.356393e-005
9.280166e-005,6.525056e-005
8.712937e-005,4.061663e-005
1.054428e-004,1.679302e-005
1.611932e-004,7.485573e-007
2.712356e-004,-6.706447e-006
4.790034e-004,-7.516774e-006
8.420299e-004,-6.058186e-006
1.409746e-003,-6.058186e-006
2.172265e-003,-1.075808e-005
3.027651e-003,-1.837515e-005
3.816592e-003,-2.534396e-005
4.382045e-003,-3.036798e-005
4.601970e-003,-3.279896e-005
4.399061e-003,-3.652646e-005
3.746903e-003,-4.738484e-005
2.690391e-003,-6.926366e-005
1.334871e-003,-9.892161e-005
-1.404103e-004,-1.287416e-004
-1.485228e-003,-1.462447e-004
-2.540112e-003,-1.442999e-004
-3.273784e-003,-1.199901e-004
-3.731458e-003,-7.785312e-005
-3.974071e-003,-2.518189e-005
-4.048784e-003,2.992031e-005
-4.013777e-003,8.307774e-005
-3.915403e-003,1.333180e-004
-3.753013e-003,1.748067e-004
-3.482200e-003,2.026820e-004
-3.080277e-003,2.137024e-004
-2.578522e-003,2.054371e-004
-2.038681e-003,1.827479e-004
-1.507431e-003,1.587622e-004
-1.007298e-003,1.402868e-004
-5.382806e-004,1.279698e-004
-1.099420e-004,1.163011e-004
2.367157e-004,9.750155e-005
4.530729e-004,6.816773e-005
5.235714e-004,3.413401e-005
4.741414e-004,1.209313e-005
3.592371e-004,1.209313e-005
2.316917e-004,3.105477e-005
1.269974e-004,6.281957e-005
4.871989e-005,9.215340e-005
-3.627206e-006,1.044704e-004
-2.372330e-005,9.717742e-005
-8.813297e-006,7.659513e-005
4.029249e-005,5.082674e-005
1.284560e-004,2.489629e-005
2.652392e-004,4.244267e-007
4.837033e-004,-2.339917e-005
8.088066e-004,-5.030201e-005
1.203760e-003,-8.822530e-005
1.564518e-003,-1.434896e-004
1.771476e-003,-2.146362e-004
1.752028e-003,-2.898345e-004
1.514764e-003,-3.467194e-004
1.144768e-003,-3.627639e-004
7.535422e-004,-3.279199e-004
4.329768e-004,-2.488320e-004
2.313675e-004,-1.446240e-004
1.467694e-004,-4.284701e-005
1.474177e-004,3.818564e-005
2.065715e-004,9.474644e-005
3.185587e-004,1.334801e-004
4.838654e-004,1.642725e-004
6.963331e-004,1.929580e-004
9.303557e-004,2.161334e-004
1.151413e-003,2.316917e-004
1.321420e-003,2.419018e-004
1.413473e-003,2.511395e-004
1.421900e-003,2.589186e-004
1.362422e-003,2.597290e-004
1.263562e-003,2.504912e-004
1.144606e-003,2.278021e-004
1.012847e-003,1.974959e-004
8.655294e-004,1.663793e-004
7.011950e-004,1.436902e-004
5.284333e-004,1.279698e-004
3.538889e-004,1.166253e-004
1.890685e-004,1.086841e-004
4.904402e-005,1.073875e-004
-6.018800e-005,1.158149e-004
-1.502963e-004,1.321835e-004
-2.407287e-004,1.521176e-004
-3.452609e-004,1.688103e-004
-4.622720e-004,1.757791e-004
-5.693972e-004,1.718895e-004
-6.240131e-004,1.637863e-004
-5.799314e-004,1.542244e-004
-4.160834e-004,1.412592e-004
-1.690959e-004,1.234320e-004
8.356393e-005,9.458438e-005
2.670219e-004,5.698522e-005
3.440029e-004,1.889987e-005
3.266619e-004,-1.237873e-005
2.535705e-004,-2.842320e-005
1.684862e-004,-2.858526e-005
1.018773e-004,-1.967167e-005
6.816773e-005,-1.059601e-005
6.233338e-005,-2.654814e-006
6.962632e-005,4.962256e-006
7.724339e-005,1.209313e-005
8.810177e-005,1.695509e-005
1.158149e-004,1.971020e-005
1.761032e-004,2.570661e-005
2.579462e-004,3.786152e-005
3.261757e-004,5.730935e-005
3.555096e-004,7.999850e-005
3.561578e-004,9.847395e-005
3.621542e-004,1.067393e-004
3.942432e-004,1.041462e-004
4.396215e-004,9.069480e-005
4.650658e-004,7.286762e-005
4.358940e-004,5.730935e-005
3.247172e-004,4.855782e-005
1.213252e-004,4.807163e-005
-1.773612e-004,4.904402e-005
-5.716661e-004,4.823369e-005
-1.037604e-003,4.434413e-005
-1.518289e-003,3.364782e-005
-1.938849e-003,1.598270e-005
-2.241750e-003,-2.816880e-006
-2.411756e-003,-1.464765e-005
-2.471558e-003,-1.707863e-005
-2.429583e-003,-7.354708e-006
-2.251636e-003,1.241726e-005
-1.884395e-003,3.283749e-005
-1.303229e-003,4.564065e-005
-5.439529e-004,5.196120e-005
3.067279e-004,5.260946e-005
1.136503e-003,4.677511e-005
1.861909e-003,3.299956e-005
2.445995e-003,1.630683e-005
2.864936e-003,-1.196226e-006
3.078701e-003,-2.064406e-005
3.013227e-003,-4.576419e-005
2.524759e-003,-7.461181e-005
1.465496e-003,-1.037836e-004
-1.475412e-004,-1.269589e-004
-1.964780e-003,-1.417068e-004
-3.549458e-003,-1.491618e-004
-4.563345e-003,-1.509446e-004
-4.805148e-003,-1.446240e-004
-4.244722e-003,-1.289037e-004
-3.036357e-003,-1.054042e-004
-1.507755e-003,-7.801519e-005
-9.892161e-005,-5.289506e-005
7.616455e-004,-3.198863e-005
8.781705e-004,-1.837515e-005
3.608577e-004,-1.513384e-005
-4.679442e-004,-2.113026e-005
-1.271140e-003,-3.231276e-005
-1.857654e-003,-4.349527e-005
-2.165092e-003,-4.738484e-005
-2.191995e-003,-3.814712e-005
-1.945170e-003,-1.772689e-005
-1.432719e-003,1.306552e-005
-6.864083e-004,4.580272e-005
2.054371e-004,7.221937e-005
1.098904e-003,8.680524e-005
1.851699e-003,8.793970e-005
2.368041e-003,7.756751e-005
2.581158e-003,5.714729e-005
2.476463e-003,3.251336e-005
2.120242e-003,1.241726e-005
1.645713e-003,4.151929e-006
1.189012e-003,7.393235e-006
8.373301e-004,1.630683e-005
5.989318e-004,2.181705e-005
4.130428e-004,2.295151e-005
2.008992e-004,2.376183e-005
-6.294311e-005,2.343770e-005
-3.227338e-004,2.197911e-005
-4.839887e-004,2.262737e-005
-4.703752e-004,2.813760e-005
-2.545043e-004,3.721326e-005
1.480659e-004,4.450619e-005
6.845024e-004,4.969228e-005
1.273935e-003,5.228533e-005
1.820582e-003,5.374392e-005
2.223154e-003,5.876794e-005
2.404506e-003,6.346784e-005
2.360424e-003,6.184718e-005
2.178586e-003,4.969228e-005
2.010523e-003,3.089270e-005
1.995289e-003,1.095867e-005
2.147793e-003,-5.247859e-006
2.330442e-003,-1.302699e-005
2.307752e-003,-1.075808e-005
1.861747e-003,-1.196226e-006
9.382968e-004,8.689757e-006
-3.032860e-004,7.879431e-006
-1.554592e-003,-2.006553e-006
-2.550322e-003,-1.659243e-005
-3.136514e-003,-3.215070e-005
-3.262115e-003,-4.673658e-005
-2.963266e-003,-6.035006e-005
-2.356492e-003,-7.201877e-005
-1.607263e-003,-8.174268e-005
-8.829935e-004,-9.227693e-005
-3.138202e-004,-1.034594e-004
3.948217e-005,-1.125351e-004
1.882581e-004,-1.193418e-004
1.910132e-004,-1.255003e-004
1.188942e-004,-1.279313e-004
2.424803e-005,-1.190177e-004
-6.586029e-005,-9.243900e-005
-1.407345e-004,-4.641245e-005
-1.898402e-004,1.565857e-005
-1.878955e-004,8.129502e-005
-9.616650e-005,1.383420e-004
1.104668e-004,1.744826e-004
4.089912e-004,1.861513e-004
7.227497e-004,1.741585e-004
9.608240e-004,1.433660e-004
1.079780e-003,1.054428e-004
1.101821e-003,7.740545e-005
1.077025e-003,6.751947e-005
1.040560e-003,7.205730e-005
9.966404e-004,8.242948e-005
9.292212e-004,9.312579e-005
8.289026e-004,1.022014e-004
7.136741e-004,1.059289e-004
6.174073e-004,1.013911e-004
5.636016e-004,9.101894e-005
5.462606e-004,7.578480e-005
5.412365e-004,5.876794e-005
5.204921e-004,4.596478e-005
4.725208e-004,4.110282e-005
4.060740e-004,4.661304e-005
3.530786e-004,5.844381e-005
3.457856e-004,7.254349e-005
3.914881e-004,8.810177e-005
4.817585e-004,1.067393e-004
5.995801e-004,1.274836e-004
7.214532e-004,1.449867e-004
8.258234e-004,1.558451e-004
8.901634e-004,1.556830e-004
8.966460e-004,1.404489e-004
8.455954e-004,1.182459e-004
7.538663e-004,9.977046e-005
6.292380e-004,9.182927e-005
4.514523e-004,9.750155e-005
1.780480e-004,1.137081e-004
-1.981056e-004,1.359110e-004
-6.206097e-004,1.563313e-004
-1.000977e-003,1.680000e-004
-1.279081e-003,1.694586e-004
-1.446819e-003,1.626518e-004
-1.512131e-003,1.509831e-004
-1.446170e-003,1.372075e-004
-1.175521e-003,1.255388e-004
-6.329267e-004,1.201907e-004
1.748067e-004,1.232699e-004
1.077673e-003,1.308870e-004
1.737118e-003,1.373696e-004
1.808751e-003,1.386661e-004
1.105062e-003,1.380179e-004
-2.840002e-004,1.370455e-004
-1.959269e-003,1.299146e-004
-3.418022e-003,1.141943e-004
-4.278432e-003,9.361198e-005
-4.375834e-003,6.946425e-005
-3.789964e-003,3.980630e-005
-2.805413e-003,3.989864e-006
-1.825241e-003,-3.506787e-005
-1.215875e-003,-6.877746e-005
-1.129819e-003,-8.822530e-005
-1.428829e-003,-8.919769e-005
-1.794287e-003,-7.331529e-005
-1.927667e-003,-4.884343e-005
-1.666417e-003,-2.923352e-005
-1.043276e-003,-2.210265e-005
-2.520733e-004,-2.696461e-005
4.778689e-004,-3.992984e-005
9.728168e-004,-6.099833e-005
1.195981e-003,-8.660465e-005
1.226287e-003,-1.141557e-004
1.173778e-003,-1.436516e-004
1.096149e-003,-1.710407e-004
9.841614e-004,-1.927574e-004
8.216097e-004,-2.039399e-004
6.315069e-004,-2.024813e-004
4.611762e-004,-1.875713e-004
3.606957e-004,-1.600202e-004
3.535648e-004,-1.233935e-004
4.273045e-004,-8.271508e-005
5.426951e-004,-4.252288e-005
6.512789e-004,-7.030578e-006
7.161051e-004,1.906194e-005
7.271255e-004,3.267542e-005
6.994124e-004,3.510640e-005
6.538720e-004,2.846173e-005
6.041179e-004,1.679302e-005
5.576051e-004,5.934647e-006
5.138475e-004,1.234753e-006
4.691174e-004,-2.238345e-007
4.203357e-004,-2.168618e-006
3.775505e-004,-5.896120e-006
3.527545e-004,-5.734055e-006
3.420582e-004,6.744974e-006
3.276343e-004,3.624086e-005
3.089968e-004,7.772959e-005
3.096451e-004,1.208390e-004
3.430306e-004,1.561692e-004
4.057499e-004,1.756170e-004
4.862963e-004,1.765894e-004
5.858045e-004,1.598967e-004
7.141603e-004,1.329939e-004
8.741189e-004,1.056048e-004
1.064384e-003,8.453633e-005
1.280417e-003,7.562274e-005
1.495154e-003,7.740545e-005
1.673426e-003,8.453633e-005
1.808913e-003,9.442231e-005
1.952504e-003,1.004187e-004
2.174372e-003,9.977046e-005
2.496235e-003,9.231547e-005
2.830740e-003,8.745350e-005
2.962662e-003,8.923622e-005
2.625078e-003,9.928427e-005
1.669213e-003,1.158149e-004
1.979821e-004,1.357490e-004
-1.425750e-003,1.569795e-004
-2.785804e-003,1.761032e-004
-3.598564e-003,1.916615e-004
-3.724327e-003,2.017096e-004
-3.156448e-003,2.015475e-004
-2.009672e-003,1.859892e-004
-4.831784e-004,1.561692e-004
1.120134e-003,1.180839e-004
2.396889e-003,7.594687e-005
2.977896e-003,3.672705e-005
2.591206e-003,6.907039e-006
1.221912e-003,-9.947754e-006
-8.290257e-004,-1.610623e-005
-2.968127e-003,-1.464765e-005
-4.710826e-003,-6.382316e-006
-4.967863e-003,8.689757e-006
-4.968025e-003,3.040651e-005
-4.967863e-003,5.520250e-005
-4.709853e-003,7.610893e-005
-3.633732e-003,8.307774e-005
-2.516937e-003,7.173317e-005
-1.489928e-003,4.450619e-005
-6.384369e-004,1.095867e-005
-1.075808e-005,-1.886135e-005
3.733367e-004,-3.879538e-005
5.430192e-004,-4.608832e-005
5.710566e-004,-4.203669e-005
5.449640e-004,-3.182657e-005
5.323229e-004,-2.307504e-005
5.653843e-004,-2.291298e-005
6.389620e-004,-3.263690e-005
7.240463e-004,-5.062615e-005
7.825519e-004,-7.688072e-005
7.611593e-004,-1.096179e-004
5.971491e-004,-1.415448e-004
2.637806e-004,-1.647201e-004
-1.927574e-004,-1.780095e-004
-6.552917e-004,-1.831956e-004
-9.850946e-004,-1.814128e-004
-1.084927e-003,-1.697441e-004
-9.358267e-004,-1.436516e-004
-5.985689e-004,-1.075111e-004
-1.891920e-004,-7.072224e-005
1.688103e-004,-4.009190e-005
3.913260e-004,-1.821308e-005
4.592314e-004,1.002961e-007
4.049395e-004,2.068259e-005
2.900352e-004,4.709924e-005
1.867996e-004,7.254349e-005
1.513072e-004,9.247753e-005
1.981441e-004,1.034980e-004
3.101313e-004,1.044704e-004
4.574487e-004,9.750155e-005
6.229175e-004,8.388807e-005
8.057273e-004,6.768153e-005
1.000206e-003,5.001641e-005
1.192254e-003,3.137890e-005
1.364043e-003,1.663096e-005
1.506175e-003,7.879431e-006
1.627562e-003,3.017472e-006
1.724639e-003,2.369210e-006
1.751704e-003,7.069104e-006
1.646524e-003,1.614476e-005
1.392405e-003,2.197911e-005
1.044936e-003,2.084466e-005
6.986020e-004,1.857574e-005
4.524247e-004,2.473422e-005
3.995913e-004,4.045456e-005
6.305345e-004,6.233338e-005
1.194198e-003,8.275361e-005
2.027378e-003,9.555677e-005
2.926521e-003,9.539470e-005
3.613197e-003,8.210535e-005
3.823560e-003,6.298164e-005
3.406724e-003,4.337174e-005
2.396078e-003,2.505835e-005
1.003123e-003,5.124321e-006
-4.262935e-004,-1.270286e-005
-1.509376e-003,-2.842320e-005
-2.053105e-003,-4.673658e-005
-2.049054e-003,-7.607040e-005
-1.642107e-003,-1.185315e-004
-1.070017e-003,-1.710407e-004
-5.661558e-004,-2.190120e-004
-2.786520e-004,-2.444563e-004
-2.266291e-004,-2.332737e-004
-3.186821e-004,-1.820611e-004
-4.298589e-004,-9.859748e-005
-4.593548e-004,-1.358292e-006
-3.676258e-004,9.296372e-005
-1.809267e-004,1.748067e-004
2.230324e-005,2.420638e-004
1.668655e-004,2.945730e-004
2.357433e-004,3.329825e-004
2.715597e-004,3.527545e-004
3.308756e-004,3.501614e-004
4.423766e-004,3.208276e-004
5.987698e-004,2.662116e-004
7.626179e-004,1.949028e-004
9.049113e-004,1.252147e-004
1.006364e-003,7.108490e-005
1.035050e-003,4.256141e-005
9.506139e-004,4.191315e-005
7.148086e-004,6.411610e-005
3.153174e-004,9.782569e-005
-2.066950e-004,1.347766e-004
-7.423208e-004,1.629759e-004
-1.150077e-003,1.748067e-004
-1.321380e-003,1.701068e-004
-1.216848e-003,1.560071e-004
-8.901243e-004,1.433660e-004
-4.506033e-004,1.372075e-004
-1.173047e-005,1.391524e-004
3.556717e-004,1.517934e-004
6.546823e-004,1.684862e-004
9.269522e-004,1.748067e-004
1.168916e-003,1.621656e-004
1.338113e-003,1.316973e-004
1.379115e-003,9.361198e-005
1.257566e-003,5.893001e-005
9.792994e-004,3.478227e-005
5.574430e-004,2.278944e-005
-2.728874e-005,1.614476e-005
-7.990436e-004,1.031041e-005
-1.732054e-003,5.286386e-006
-2.731350e-003,1.558884e-006
-3.655449e-003,-4.923729e-006
-4.330455e-003,-1.643037e-005
-4.617961e-003,-3.506787e-005
-4.498356e-003,-5.840528e-005
-4.021881e-003,-8.206682e-005
-3.227757e-003,-9.794922e-005
-2.150182e-003,-1.029732e-004
-9.021171e-004,-9.892161e-005
2.986246e-004,-9.098041e-005
1.192902e-003,-7.720485e-005
1.632262e-003,-5.970180e-005
1.634045e-003,-4.317114e-005
1.342326e-003,-2.858526e-005
9.454277e-004,-1.950961e-005
5.836976e-004,-1.480971e-005
3.075383e-004,-8.002969e-006
7.724339e-005,7.717366e-006
-1.927574e-004,2.927205e-005
-5.630766e-004,4.839576e-005
-1.034524e-003,5.957827e-005
-1.554754e-003,5.990240e-005
-2.057805e-003,4.709924e-005
-2.526499e-003,1.711715e-005
-2.930042e-003,-2.550602e-005
-3.154179e-003,-6.731887e-005
-3.059695e-003,-9.389758e-005
-2.537843e-003,-1.024870e-004
-1.563182e-003,-9.762508e-005
-2.540181e-004,-8.660465e-005
1.191281e-003,-7.995997e-005
2.614219e-003,-9.341139e-005
3.952890e-003,-1.344139e-004
4.958843e-003,-1.924333e-004
4.958843e-003,-2.491561e-004
4.958843e-003,-2.883759e-004
4.958681e-003,-3.040963e-004
4.196477e-003,-3.003688e-004
2.282632e-003,-2.768693e-004
2.456293e-004,-2.363530e-004
-1.425912e-003,-1.853024e-004
-2.439308e-003,-1.271210e-004
-2.764735e-003,-6.586029e-005
-2.527957e-003,-5.896120e-006
-1.943711e-003,4.612685e-005
-1.240347e-003,8.648111e-005
-6.006758e-004,1.122495e-004
-1.263107e-004,1.245665e-004
1.650828e-004,1.281319e-004
3.149932e-004,1.281319e-004
3.830607e-004,1.289422e-004
4.180668e-004,1.297525e-004
4.425387e-004,1.286181e-004
4.589073e-004,1.229458e-004
4.686312e-004,1.159770e-004
4.807861e-004,1.167873e-004
5.050959e-004,1.242423e-004
5.409124e-004,1.365593e-004
5.710566e-004,1.514693e-004
5.768909e-004,1.660552e-004
5.532294e-004,1.783722e-004
5.107682e-004,1.853410e-004
4.496696e-004,1.874478e-004
3.555096e-004,1.812893e-004
2.141886e-004,1.637863e-004
3.980630e-005,1.362352e-004
-1.255003e-004,1.065772e-004
-2.272773e-004,8.518459e-005
-2.277635e-004,7.902610e-005
-1.379793e-004,8.502253e-005
-9.623623e-006,9.701536e-005
1.039842e-004,1.101426e-004
1.803169e-004,1.252147e-004
2.378501e-004,1.367214e-004
3.221241e-004,1.443384e-004
4.773827e-004,1.513072e-004
7.052467e-004,1.582760e-004
9.405658e-004,1.671896e-004
1.082211e-003,1.761032e-004
1.071515e-003,1.773998e-004
9.384589e-004,1.645966e-004
7.822278e-004,1.415833e-004
7.065432e-004,1.167873e-004
7.509491e-004,9.539470e-005
8.567779e-004,7.853991e-005
9.013459e-004,6.217131e-005
7.956792e-004,4.466826e-005
5.404262e-004,2.943412e-005
2.041405e-004,1.857574e-005
-1.365208e-004,1.160693e-005
-4.407173e-004,6.907039e-006
-7.175248e-004,6.907039e-006
-1.006001e-003,8.689757e-006
-1.327052e-003,8.041497e-006
-1.641459e-003,5.610517e-006
-1.858141e-003,3.341602e-006
-1.886826e-003,3.827798e-006
-1.699965e-003,1.160693e-005
-1.366434e-003,2.700314e-005
-1.016535e-003,4.483032e-005
-7.930472e-004,5.520250e-005
-7.821888e-004,5.552663e-005
-9.497644e-004,4.774750e-005
-1.166121e-003,3.899597e-005
-1.286860e-003,3.137890e-005
-1.216524e-003,2.538249e-005
-9.350164e-004,1.987226e-005
-4.946851e-004,1.679302e-005
-3.858999e-007,1.727922e-005
4.316803e-004,2.197911e-005
7.311772e-004,2.424803e-005
8.903255e-004,2.052053e-005
9.251695e-004,1.371378e-005
8.613158e-004,3.017472e-006
7.412253e-004,-5.085794e-006
5.976353e-004,-5.247859e-006
4.726828e-004,5.934647e-006
4.347596e-004,2.408596e-005
5.178991e-004,3.656499e-005
6.820713e-004,3.688912e-005
8.259855e-004,2.797553e-005
8.499712e-004,1.322759e-005
7.407391e-004,1.002961e-007
5.627912e-004,-4.437533e-006
4.162841e-004,-1.844488e-006
3.858158e-004,3.989864e-006
5.050959e-004,6.907039e-006
7.459251e-004,1.072688e-006
1.038453e-003,-1.302699e-005
1.275717e-003,-3.134038e-005
1.332278e-003,-4.608832e-005
1.122241e-003,-5.370539e-005
6.520892e-004,-5.467778e-005
5.763348e-005,-4.673658e-005
-4.745890e-004,-2.761287e-005
-8.400462e-004,-7.840905e-006
-1.049759e-003,3.179537e-006
-1.169849e-003,4.476060e-006
-1.249585e-003,2.623614e-007
-1.275840e-003,-3.789271e-006
-1.222358e-003,-1.358292e-006
-1.098378e-003,6.258778e-006
-9.504127e-004,1.095867e-005
-8.149261e-004,9.013888e-006
-6.987252e-004,6.258778e-006
-5.872243e-004,9.500084e-006
-4.549791e-004,2.035846e-005
-2.872415e-004,3.397195e-005
-8.174268e-005,4.304760e-005
1.613553e-004,3.834771e-005
4.380009e-004,1.565857e-005
7.475458e-004,-1.707863e-005
1.076053e-003,-4.511592e-005
1.372632e-003,-5.759496e-005
1.563870e-003,-5.176060e-005
1.594176e-003,-3.053005e-005
1.465496e-003,3.503668e-006
1.247194e-003,4.483032e-005
1.032781e-003,8.891209e-005
8.760637e-004,1.308870e-004
7.896828e-004,1.655690e-004
7.666695e-004,1.905270e-004
7.767176e-004,2.030061e-004
7.486802e-004,2.034923e-004
5.880735e-004,1.923098e-004
2.261814e-004,1.722137e-004
-3.130099e-004,1.469315e-004
-9.024413e-004,1.153287e-004
-1.364652e-003,7.546067e-005
-1.540006e-003,2.975825e-005
-1.370648e-003,-1.173047e-005
-9.437679e-004,-4.300908e-005
-4.402311e-004,-6.213279e-005
-1.178833e-004,-7.266703e-005
-2.097743e-004,-7.882551e-005
-7.266005e-004,-8.611845e-005
-1.394310e-003,-9.875954e-005
-1.858951e-003,-1.175591e-004
-1.910164e-003,-1.370070e-004
-1.540817e-003,-1.524032e-004
-9.444162e-004,-1.648822e-004
-3.664914e-004,-1.771991e-004
2.003433e-005,-1.885437e-004
1.741585e-004,-1.940539e-004
1.543865e-004,-1.872472e-004
4.807163e-005,-1.609926e-004
-6.650855e-005,-1.154523e-004
-1.344139e-004,-5.872941e-005
-1.387897e-004,1.072688e-006
-9.162867e-005,5.763348e-005
-8.165034e-006,1.043083e-004
9.020861e-005,1.351007e-004
1.636242e-004,1.461212e-004
1.284560e-004,1.398006e-004
-1.243659e-004,1.240803e-004
-6.502677e-004,1.106288e-004
-1.376320e-003,1.036600e-004
-2.073039e-003,1.031738e-004
-2.437524e-003,1.075496e-004
-2.249043e-003,1.163011e-004
-1.444226e-003,1.239182e-004
-1.451102e-004,1.260251e-004
1.345892e-003,1.224596e-004
2.653115e-003,1.182459e-004
3.542050e-003,1.201907e-004
3.938952e-003,1.295905e-004
3.915614e-003,1.453108e-004
3.584836e-003,1.573037e-004
2.988268e-003,1.564933e-004
2.068057e-003,1.368834e-004
7.567835e-004,9.977046e-005
-8.586837e-004,5.487837e-005
-2.473341e-003,1.565857e-005
-3.752202e-003,-7.192643e-006
-4.437257e-003,-8.327101e-006
-4.439040e-003,7.069104e-006
-3.864839e-003,2.230324e-005
-2.980283e-003,2.684107e-005
-2.076281e-003,1.954813e-005
-1.361410e-003,6.582909e-006
-9.157307e-004,-3.627206e-006
-6.799257e-004,-8.489165e-006
-5.178603e-004,-7.840905e-006
-3.042583e-004,2.693341e-006
4.126489e-005,2.343770e-005
5.538776e-004,4.547859e-005
1.195009e-003,6.346784e-005
1.856399e-003,7.092283e-005
2.414230e-003,6.670914e-005
2.782444e-003,5.601283e-005
2.930411e-003,4.596478e-005
2.890056e-003,4.402000e-005
2.727342e-003,5.147500e-005
2.504339e-003,6.622294e-005
2.269019e-003,8.583285e-005
2.059954e-003,1.070634e-004
1.893674e-003,1.242423e-004
1.769856e-003,1.333180e-004
1.685257e-003,1.328318e-004
1.623186e-003,1.248906e-004
1.547339e-003,1.172735e-004
1.400832e-003,1.164632e-004
1.127589e-003,1.190562e-004
7.156189e-004,1.197045e-004
2.441707e-004,1.132219e-004
-1.695821e-004,9.896014e-005
-4.564376e-004,8.437427e-005
-6.014861e-004,7.529860e-005
-6.274165e-004,7.157111e-005
-5.703695e-004,7.043664e-005
-4.710235e-004,7.124698e-005
-3.851289e-004,7.108490e-005
-3.757291e-004,6.897806e-005
-4.966299e-004,6.768153e-005
-7.522067e-004,6.930219e-005
-1.057700e-003,6.995045e-005
-1.274705e-003,6.281957e-005
-1.284753e-003,4.175108e-005
-1.069693e-003,6.582909e-006
-7.316245e-004,-3.344722e-005
-4.358554e-004,-6.715681e-005
-3.190063e-004,-9.211487e-005
-4.149489e-004,-1.091317e-004
-6.883531e-004,-1.209625e-004
-1.085089e-003,-1.300381e-004
-1.525744e-003,-1.363587e-004
-1.913891e-003,-1.402483e-004
-2.151155e-003,-1.446240e-004
-2.111125e-003,-1.533756e-004
-1.673386e-003,-1.611547e-004
-8.019608e-004,-1.613168e-004
4.159599e-004,-1.512687e-004
1.761752e-003,-1.326312e-004
2.971576e-003,-1.094559e-004
3.834581e-003,-8.222889e-005
4.188049e-003,-5.953974e-005
3.924852e-003,-4.430560e-005
3.080484e-003,-3.263690e-005
1.885733e-003,-1.740276e-005
6.731577e-004,6.907039e-006
-2.810830e-004,4.142695e-005
-8.855865e-004,8.097089e-005
-1.229489e-003,1.130598e-004
-1.452167e-003,1.323456e-004
-1.632708e-003,1.373696e-004
-1.759119e-003,1.291043e-004
-1.772732e-003,1.145184e-004
-1.623794e-003,9.928427e-005
-1.310360e-003,8.567078e-005
-8.846141e-004,7.432621e-005
-4.352071e-004,6.800567e-005
-5.500191e-005,6.476436e-005
1.913374e-004,6.703327e-005
2.842008e-004,7.870197e-005
2.480603e-004,9.928427e-005
1.378558e-004,1.302387e-004
1.646889e-005,1.678379e-004
-5.953974e-005,2.047888e-004
-6.359137e-005,2.289365e-004
-1.092015e-005,2.316917e-004
5.990240e-005,2.216436e-004
1.214872e-004,2.093266e-004
1.581140e-004,2.002510e-004
1.709171e-004,1.981441e-004
2.115955e-004,1.961993e-004
3.739850e-004,1.895547e-004
7.222636e-004,1.707551e-004
1.232608e-003,1.419075e-004
1.787521e-003,1.150046e-004
2.208730e-003,1.060910e-004
2.338221e-003,1.146805e-004
2.121863e-003,1.282940e-004
1.595959e-003,1.315353e-004
8.606674e-004,1.222975e-004
5.034054e-005,1.010670e-004
-6.919185e-004,6.865393e-005
-1.237754e-003,3.056858e-005
-1.513752e-003,-5.409925e-006
-1.555565e-003,-3.717472e-005
-1.506783e-003,-6.310517e-005
-1.557185e-003,-8.303921e-005
-1.826700e-003,-9.292519e-005
-2.271894e-003,-9.146661e-005
-2.686944e-003,-7.898758e-005
-2.815948e-003,-6.310517e-005
-2.493924e-003,-5.662256e-005
-1.727840e-003,-6.764300e-005
-6.854359e-004,-9.811128e-005
3.848434e-004,-1.475412e-004
1.240549e-003,-2.115570e-004
1.757539e-003,-2.762210e-004
1.937918e-003,-3.180339e-004
1.869364e-003,-3.172235e-004
1.661596e-003,-2.689281e-004
1.397104e-003,-1.924333e-004
1.113652e-003,-1.204763e-004
8.207993e-004,-8.255302e-005
5.251920e-004,-9.211487e-005
2.516257e-004,-1.373311e-004
4.515445e-005,-1.861127e-004
-6.829127e-005,-2.026434e-004
-9.811128e-005,-1.702303e-004
-8.028410e-005,-9.973194e-005
-4.884343e-005,-2.064406e-005
-1.950961e-005,3.786152e-005
3.827798e-006,6.249544e-005
1.290346e-005,5.893001e-005
-7.192643e-006,4.126489e-005
-6.650855e-005,2.424803e-005
-1.528894e-004,1.371378e-005
-2.217671e-004,1.193106e-005
-2.284118e-004,2.035846e-005
-1.595340e-004,3.688912e-005
-4.057810e-005,5.860587e-005
8.194328e-005,7.870197e-005
1.655690e-004,8.858796e-005
1.872858e-004,8.550872e-005
1.514693e-004,7.384001e-005
8.729143e-005,6.784360e-005
3.218923e-005,7.497447e-005
1.014835e-005,9.571883e-005
2.359977e-005,1.247285e-004
5.990240e-005,1.504969e-004
1.067393e-004,1.678379e-004
1.654069e-004,1.783722e-004
2.328261e-004,1.848548e-004
2.412535e-004,1.897167e-004
7.659513e-005,1.945787e-004
-2.864312e-004,2.033302e-004
-6.783050e-004,2.146748e-004
-8.102261e-004,2.258573e-004
-4.830163e-004,2.346088e-004
2.404432e-004,2.388225e-004
1.057253e-003,2.347709e-004
1.640203e-003,2.195368e-004
1.805510e-003,1.958752e-004
1.508606e-003,1.678379e-004
8.301992e-004,1.406109e-004
-5.208473e-005,1.192183e-004
-8.953104e-004,1.103047e-004
-1.481987e-003,1.132219e-004
-1.717468e-003,1.203528e-004
-1.637408e-003,1.203528e-004
-1.355252e-003,1.099806e-004
-9.995184e-004,8.842590e-005
-6.723086e-004,5.876794e-005
-4.045767e-004,2.619281e-005
-1.699062e-004,-4.437533e-006
4.839576e-005,-2.404744e-005
2.329882e-004,-2.761287e-005
3.132105e-004,-1.918548e-005
1.953890e-004,-9.299492e-006
-1.794681e-004,-9.947754e-006
-8.022850e-004,-2.469570e-005
-1.593974e-003,-4.706071e-005
-2.397494e-003,-6.650855e-005
-3.016585e-003,-7.914964e-005
-3.284966e-003,-8.563225e-005
-3.114635e-003,-8.806324e-005
-2.538167e-003,-9.081834e-005
-1.705961e-003,-9.746302e-005
-8.124951e-004,-1.070249e-004
-3.085418e-005,-1.172350e-004
5.392918e-004,-1.280934e-004
8.935668e-004,-1.420310e-004
1.089990e-003,-1.549962e-004
1.202788e-003,-1.611547e-004
1.305537e-003,-1.577513e-004
1.452693e-003,-1.457585e-004
1.671320e-003,-1.227452e-004
1.961742e-003,-8.676671e-005
2.302728e-003,-4.835723e-005
2.643229e-003,-1.918548e-005
2.890218e-003,-6.868512e-006
2.936569e-003,-1.027188e-005
2.707570e-003,-2.275091e-005
2.188796e-003,-3.490581e-005
1.437297e-003,-4.009190e-005
5.802942e-004,-3.847125e-005
-2.282497e-004,-3.053005e-005
-8.586837e-004,-1.886135e-005
-1.245047e-003,-5.247859e-006
-1.379075e-003,1.031041e-005
-1.295936e-003,3.073064e-005
-1.056079e-003,5.682316e-005
-7.293556e-004,9.393611e-005
-3.812393e-004,1.391524e-004
-5.224680e-005,1.817755e-004
2.438465e-004,2.128921e-004
5.021787e-004,2.323399e-004
7.037881e-004,2.412535e-004
8.118858e-004,2.433604e-004
7.974620e-004,2.401191e-004
6.674855e-004,2.300710e-004
4.645796e-004,2.120818e-004
2.548670e-004,1.876099e-004
9.928427e-005,1.623277e-004
2.603075e-005,1.433660e-004
3.299956e-005,1.344524e-004
1.304008e-004,1.372075e-004
3.537268e-004,1.482280e-004
7.493285e-004,1.589243e-004
1.318178e-003,1.602208e-004
1.987186e-003,1.449867e-004
2.610330e-003,1.166253e-004
3.020358e-003,8.356393e-005
3.091667e-003,5.406805e-005
2.768344e-003,3.121684e-005
2.088153e-003,1.047248e-005
1.185123e-003,-1.335112e-005
1.835582e-004,-3.766092e-005
-8.611146e-004,-5.824321e-005
-1.940632e-003,-7.104637e-005
-3.033440e-003,-7.104637e-005
-4.042139e-003,-5.354332e-005
-4.808876e-003,-2.356124e-005
-4.968025e-003,9.986280e-006
-4.967702e-003,3.332369e-005
-4.591058e-003,4.077869e-005
-3.774730e-003,3.575467e-005
-2.776890e-003,2.116879e-005
-1.705313e-003,-1.358292e-006
-6.763602e-004,-3.085418e-005
1.603829e-004,-6.326724e-005
6.929297e-004,-9.454584e-005
9.139871e-004,-1.198280e-004
8.762258e-004,-1.297140e-004
6.524133e-004,-1.186936e-004
3.383307e-004,-9.098041e-005
2.408596e-005,-5.046408e-005
-2.122052e-004,-5.409925e-006
-3.118754e-004,3.154097e-005
-2.489941e-004,5.423011e-005
-3.814712e-005,6.087479e-005
2.602152e-004,5.309565e-005
5.848320e-004,3.834771e-005
8.971322e-004,2.473422e-005
1.186905e-003,1.436204e-005
1.446859e-003,4.962256e-006
1.665647e-003,-5.409925e-006
1.833223e-003,-1.562004e-005
1.937270e-003,-2.437157e-005
1.970655e-003,-3.182657e-005
1.940835e-003,-3.198863e-005
1.883788e-003,-2.161646e-005
1.849916e-003,-6.176923e-008
1.839058e-003,2.862379e-005
1.766938e-003,5.196120e-005
1.477327e-003,6.346784e-005
8.650432e-004,5.990240e-005
2.327564e-005,4.758544e-005
-7.432931e-004,4.142695e-005
-1.091896e-003,5.050261e-005
-8.607905e-004,7.286762e-005
-1.833576e-004,1.004187e-004
5.730013e-004,1.201907e-004
1.008795e-003,1.219734e-004
9.100975e-004,1.056048e-004
3.154794e-004,7.999850e-005
-5.562698e-004,5.536457e-005
-1.440822e-003,4.304760e-005
-2.115663e-003,4.661304e-005
-2.414025e-003,6.281957e-005
-2.275621e-003,7.918817e-005
-1.775973e-003,8.340186e-005
-1.097406e-003,7.092283e-005
-4.478482e-004,4.693717e-005
3.883391e-005,1.744128e-005
3.584267e-004,-1.756482e-005
5.869390e-004,-5.840528e-005
8.055652e-004,-9.859748e-005
1.054174e-003,-1.272830e-004
1.331954e-003,-1.334415e-004
1.628696e-003,-1.143178e-004
1.946994e-003,-8.012203e-005
2.307428e-003,-4.203669e-005
2.712594e-003,-8.002969e-006
3.073029e-003,1.744128e-005
3.171404e-003,3.624086e-005
2.775962e-003,5.179913e-005
1.832575e-003,6.606088e-005
5.290816e-004,7.853991e-005
-8.037435e-004,8.777764e-005
-1.866244e-003,9.101894e-005
-2.557615e-003,8.323980e-005
-2.916753e-003,7.108490e-005
-3.014316e-003,6.606088e-005
-2.908001e-003,7.627100e-005
-2.658582e-003,9.409818e-005
-2.360868e-003,1.038221e-004
-2.119552e-003,9.377405e-005
-1.992331e-003,6.800567e-005
-1.976286e-003,3.818564e-005
-2.026689e-003,1.436204e-005
-2.094432e-003,8.203561e-006
-2.136245e-003,2.197911e-005
-2.091028e-003,5.131293e-005
-1.843069e-003,8.826383e-005
-1.255582e-003,1.214872e-004
-2.789761e-004,1.385041e-004
9.799477e-004,1.436902e-004
2.288791e-003,1.446626e-004
3.414341e-003,1.415833e-004
4.149963e-003,1.325077e-004
4.341851e-003,1.193804e-004
3.938790e-003,1.069013e-004
3.029757e-003,9.750155e-005
1.816368e-003,9.231547e-005
5.554982e-004,9.004655e-005
-4.912817e-004,8.745350e-005
-1.109074e-003,8.372600e-005
-1.182328e-003,7.886404e-005
-7.217385e-004,7.076077e-005
1.253768e-004,5.763348e-005
1.091449e-003,3.753739e-005
1.890433e-003,8.851824e-006
2.280363e-003,-2.404744e-005
2.095932e-003,-5.321919e-005
1.316234e-003,-7.542214e-005
8.275361e-005,-9.114247e-005
-1.283619e-003,-1.020008e-004
-2.387770e-003,-1.152902e-004
-2.907353e-003,-1.340898e-004
-2.642375e-003,-1.524032e-004
-1.610667e-003,-1.650442e-004
-1.028112e-004,-1.731475e-004
1.364853e-003,-1.770371e-004
2.265939e-003,-1.692580e-004
2.287332e-003,-1.434896e-004
1.374577e-003,-1.029732e-004
-1.898402e-004,-5.467778e-005
-1.834641e-003,-2.654814e-006
-2.995193e-003,4.742337e-005
-3.336989e-003,8.615698e-005
-2.825672e-003,1.034980e-004
-1.708716e-003,9.750155e-005
-3.720016e-004,7.173317e-005
8.054032e-004,3.850977e-005
1.562411e-003,9.662150e-006
1.842785e-003,-9.623623e-006
1.735174e-003,-1.724069e-005
1.392567e-003,-1.173047e-005
9.613102e-004,7.879431e-006
5.524190e-004,4.013043e-005
2.414156e-004,7.789165e-005
7.205730e-005,1.124116e-004
5.277152e-005,1.427178e-004
1.530900e-004,1.684862e-004
3.213138e-004,1.866375e-004
4.934272e-004,1.952270e-004
6.125453e-004,1.966855e-004
6.553305e-004,1.945787e-004
6.415550e-004,1.910132e-004
6.080074e-004,1.855030e-004
5.892079e-004,1.748067e-004
6.187038e-004,1.586002e-004
7.321496e-004,1.438522e-004
9.660100e-004,1.372075e-004
1.300675e-003,1.396385e-004
1.598066e-003,1.441764e-004
1.642310e-003,1.388282e-004
1.254973e-003,1.167873e-004
4.072085e-004,7.821578e-005
-7.133111e-004,3.380988e-005
-1.771435e-003,-7.516774e-006
-2.472206e-003,-3.766092e-005
-2.657610e-003,-5.646050e-005
-2.315327e-003,-6.780506e-005
-1.559616e-003,-7.688072e-005
-5.703695e-004,-8.579432e-005
4.608521e-004,-9.519411e-005
1.323851e-003,-1.037836e-004
1.824310e-003,-1.073490e-004
1.857047e-003,-9.940780e-005
1.486889e-003,-7.380149e-005
9.280867e-004,-3.231276e-005
4.167703e-004,2.068259e-005
8.307774e-005,7.789165e-005
-9.503204e-005,1.321835e-004
-2.211188e-004,1.736723e-004
-3.963114e-004,1.936063e-004
-6.810601e-004,1.900409e-004
-1.085089e-003,1.654069e-004
-1.565126e-003,1.276457e-004
-2.032037e-003,8.648111e-005
-2.381288e-003,5.455424e-005
-2.567339e-003,3.202716e-005
-2.636055e-003,1.355172e-005
-2.667658e-003,-3.141010e-006
-2.726163e-003,-1.902341e-005
-2.830696e-003,-3.247483e-005
-2.923884e-003,-4.284701e-005
-2.888553e-003,-4.900549e-005
-2.625521e-003,-4.932962e-005
-2.099132e-003,-4.236081e-005
-1.342124e-003,-2.923352e-005
-4.452551e-004,-1.480971e-005
4.488592e-004,-1.034161e-006
1.192254e-003,1.063454e-005
1.686392e-003,1.760335e-005
1.904208e-003,2.165498e-005
1.880222e-003,3.056858e-005
1.687526e-003,4.418206e-005
1.409908e-003,5.730935e-005
1.101497e-003,6.379197e-005
7.546767e-004,6.087479e-005
3.033245e-004,5.358185e-005
-3.040963e-004,5.131293e-005
-1.012160e-003,6.087479e-005
-1.630763e-003,8.016056e-005
-1.920860e-003,1.007429e-004
-1.729785e-003,1.245665e-004
-1.077796e-003,1.532520e-004
-1.391138e-004,1.827479e-004
8.381404e-004,2.070577e-004
1.620269e-003,2.211574e-004
2.085722e-003,2.201850e-004
2.219426e-003,2.008992e-004
2.094798e-003,1.639483e-004
1.835654e-003,1.156529e-004
1.574566e-003,6.865393e-005
1.389001e-003,3.218923e-005
1.279283e-003,7.879431e-006
1.192578e-003,-6.058186e-006
1.072973e-003,-1.691656e-005
8.958357e-004,-3.247483e-005
6.642442e-004,-6.423963e-005
3.955397e-004,-1.229073e-004
1.133840e-004,-2.060468e-004
-1.423551e-004,-2.935620e-004
-3.049066e-004,-3.559572e-004
-2.820554e-004,-3.742705e-004
-1.756482e-005,-3.473677e-004
4.671726e-004,-2.882139e-004
1.088856e-003,-2.139880e-004
1.717832e-003,-1.397621e-004
2.214889e-003,-7.558420e-005
2.493318e-003,-2.566809e-005
2.559603e-003,1.209313e-005
2.469657e-003,3.932010e-005
2.269829e-003,5.617490e-005
1.982000e-003,6.217131e-005
1.595149e-003,5.876794e-005
1.085776e-003,5.536457e-005
4.768966e-004,5.941620e-005
-1.593720e-004,7.497447e-005
-7.408622e-004,9.604297e-005
-1.223493e-003,1.145184e-004
-1.615529e-003,1.315353e-004
-1.928153e-003,1.440143e-004
-2.127169e-003,1.496866e-004
-2.137055e-003,1.503348e-004
-1.889743e-003,1.477418e-004
-1.385882e-003,1.399627e-004
-7.194696e-004,1.203528e-004
-4.300908e-005,8.664317e-005
4.965065e-004,3.348575e-005
8.306854e-004,-4.025397e-005
9.825408e-004,-1.224211e-004
1.034726e-003,-1.893540e-004
1.055794e-003,-2.214430e-004
1.084642e-003,-2.165810e-004
1.154006e-003,-1.825473e-004
1.291600e-003,-1.337657e-004
1.503419e-003,-8.287714e-005
1.741008e-003,-4.025397e-005
1.924791e-003,-3.303075e-006
1.987186e-003,3.494434e-005
1.870498e-003,7.076077e-005
1.569218e-003,9.733949e-005
1.153358e-003,1.130598e-004
6.462549e-004,1.148425e-004
-4.252288e-005,1.064151e-004
-1.045221e-003,9.539470e-005
-2.407056e-003,8.810177e-005
-3.962078e-003,8.761556e-005
-4.967863e-003,9.312579e-005
-4.967863e-003,1.002567e-004
-4.968025e-003,1.067393e-004
-4.967863e-003,1.096565e-004
-4.132410e-003,1.086841e-004
-2.779969e-003,1.026876e-004
-1.599970e-003,9.118101e-005
-7.703581e-004,7.983643e-005
-3.248406e-004,7.659513e-005
-1.896782e-004,8.226741e-005
-2.467252e-004,9.539470e-005
-3.796187e-004,1.065772e-004
-5.176983e-004,1.083599e-004
-6.321164e-004,9.960840e-005
-7.043975e-004,8.696730e-005
-6.781429e-004,7.902610e-005
-4.635685e-004,8.550872e-005
-1.254080e-005,1.091703e-004
6.209727e-004,1.436902e-004
1.304727e-003,1.767515e-004
1.869526e-003,1.965235e-004
2.191065e-003,1.978200e-004
2.231419e-003,1.825858e-004
2.023651e-003,1.534141e-004
1.654789e-003,1.188942e-004
1.220615e-003,8.421220e-005
7.934103e-004,5.439218e-005
4.042912e-004,2.619281e-005
3.607880e-005,1.720949e-006
-3.243544e-004,-1.432352e-005
-6.486471e-004,-2.485776e-005
-8.765109e-004,-3.215070e-005
-9.481437e-004,-4.155049e-005
-8.235155e-004,-5.467778e-005
-4.737786e-004,-6.731887e-005
9.555677e-005,-7.785312e-005
8.005412e-004,-8.141856e-005
1.484458e-003,-7.655659e-005
1.989455e-003,-6.213279e-005
2.219588e-003,-4.430560e-005
2.172265e-003,-2.583015e-005
1.929815e-003,-7.678839e-006
1.612004e-003,9.338019e-006
1.321582e-003,2.343770e-005
1.134720e-003,3.575467e-005
1.079618e-003,4.936815e-005
1.134882e-003,6.670914e-005
1.257404e-003,8.340186e-005
1.422063e-003,9.442231e-005
1.634531e-003,9.993253e-005
1.878926e-003,1.018773e-004
2.075836e-003,9.977046e-005
2.066598e-003,9.166720e-005
1.680233e-003,7.756751e-005
8.533745e-004,6.460230e-005
-3.057169e-004,5.649903e-005
-1.572257e-003,5.131293e-005
-2.741722e-003,4.337174e-005
-3.687538e-003,2.959618e-005
-4.317652e-003,1.095867e-005
-4.544707e-003,-1.043395e-005
-4.305983e-003,-3.036798e-005
-3.606343e-003,-3.766092e-005
-2.567987e-003,-2.809907e-005
-1.397227e-003,-6.706447e-006
-3.212752e-004,2.246531e-005
4.846757e-004,5.034054e-005
9.402416e-004,6.962632e-005
1.059198e-003,7.853991e-005
9.264661e-004,7.481241e-005
6.747784e-004,6.379197e-005
4.514523e-004,5.147500e-005
3.527545e-004,3.980630e-005
3.885709e-004,2.813760e-005
5.107682e-004,1.792748e-005
6.616511e-004,9.338019e-006
7.992446e-004,1.720949e-006
8.956736e-004,-4.599598e-006
9.455898e-004,-7.030578e-006
9.762202e-004,-3.627206e-006
1.028891e-003,4.151929e-006
1.127589e-003,1.128280e-005
1.261780e-003,7.555300e-006
1.388029e-003,-8.489165e-006
1.462093e-003,-3.231276e-005
1.467603e-003,-5.338126e-005
1.417525e-003,-6.780506e-005
1.330171e-003,-7.331529e-005
1.208298e-003,-7.153257e-005
1.020302e-003,-6.602235e-005
7.259911e-004,-5.970180e-005
3.057555e-004,-5.305713e-005
-2.110708e-004,-4.641245e-005
-7.382691e-004,-4.074016e-005
-1.169201e-003,-3.539201e-005
-1.430450e-003,-3.182657e-005
-1.513590e-003,-2.745081e-005
-1.466915e-003,-1.772689e-005
-1.371134e-003,2.045080e-006
-1.298367e-003,2.684107e-005
-1.270005e-003,4.580272e-005
-1.243751e-003,5.325772e-005
-1.131602e-003,5.082674e-005
-8.680834e-004,4.239934e-005
-4.664857e-004,3.316162e-005
-2.955766e-005,2.619281e-005
3.205035e-004,2.327564e-005
5.225990e-004,2.230324e-005
6.073592e-004,1.987226e-005
6.415550e-004,1.436204e-005
6.742922e-004,9.500084e-006
7.221015e-004,6.096713e-006
7.658592e-004,2.369210e-006
7.801210e-004,-7.100305e-007
7.559732e-004,-2.006553e-006
7.060570e-004,-2.330684e-006
6.498203e-004,-2.654814e-006
6.021731e-004,-2.978945e-006
5.691118e-004,1.072688e-006
5.529052e-004,1.517237e-005
5.428572e-004,4.320967e-005
5.203301e-004,8.210535e-005
4.707380e-004,1.226217e-004
3.929467e-004,1.545486e-004
3.132105e-004,1.715654e-004
2.713976e-004,1.756170e-004
2.819319e-004,1.720516e-004
3.055935e-004,1.668655e-004
2.503292e-004,1.621656e-004
4.434413e-005,1.561692e-004
-2.848105e-004,1.485521e-004
-6.223925e-004,1.417454e-004
-8.162226e-004,1.383420e-004
-7.159041e-004,1.436902e-004
-2.438080e-004,1.603829e-004
5.352401e-004,1.848548e-004
1.433083e-003,2.065715e-004
2.219913e-003,2.166196e-004
2.675642e-003,2.143507e-004
2.652467e-003,2.012234e-004
2.149414e-003,1.741585e-004
1.320447e-003,1.363972e-004
4.237391e-004,9.296372e-005
-2.929138e-004,4.515445e-005
-7.246557e-004,-4.761663e-006
-9.505747e-004,-5.143647e-005
-1.133384e-003,-8.709084e-005
-1.367407e-003,-1.112386e-004
-1.587653e-003,-1.287416e-004
-1.641783e-003,-1.418689e-004
-1.451032e-003,-1.515928e-004
-1.077796e-003,-1.554824e-004
-6.729568e-004,-1.545100e-004
-4.042526e-004,-1.545100e-004
-4.045767e-004,-1.611547e-004
-7.188214e-004,-1.708786e-004
-1.272112e-003,-1.749302e-004
-1.872402e-003,-1.663408e-004
-2.293610e-003,-1.434896e-004
-2.419373e-003,-1.125351e-004
-2.292962e-003,-8.190475e-005
-2.053429e-003,-5.062615e-005
-1.880344e-003,-1.756482e-005
-1.875806e-003,1.744128e-005
-1.980338e-003,5.147500e-005
-2.027337e-003,8.032263e-005
-1.868513e-003,9.993253e-005
-1.464160e-003,1.085220e-004
-9.145962e-004,1.056048e-004
-4.117076e-004,9.182927e-005
-1.250141e-004,7.076077e-005
-1.238797e-004,5.050261e-005
-3.582261e-004,3.915804e-005
-6.919185e-004,4.239934e-005
-9.718052e-004,5.909207e-005
-1.094651e-003,8.226741e-005
-1.034200e-003,1.009049e-004
-8.205983e-004,1.130598e-004
-5.061917e-004,1.222975e-004
-1.361966e-004,1.302387e-004
2.571359e-004,1.331559e-004
6.394482e-004,1.278078e-004
9.956680e-004,1.138701e-004
1.342813e-003,9.847395e-005
1.701950e-003,8.534666e-005
2.093339e-003,7.691926e-005
2.540317e-003,7.448828e-005
3.080646e-003,7.497447e-005
3.724700e-003,7.351588e-005
4.402789e-003,6.784360e-005
4.959005e-003,5.844381e-005
4.959005e-003,4.774750e-005
4.958843e-003,3.753739e-005
4.600187e-003,2.667901e-005
3.637507e-003,1.484824e-005
2.449722e-003,5.934647e-006
1.240225e-003,2.045080e-006
1.692965e-004,4.476060e-006
-7.024527e-004,1.306552e-005
-1.440336e-003,2.667901e-005
-2.145645e-003,4.175108e-005
-2.813355e-003,5.471631e-005
-3.330345e-003,5.811968e-005
-3.594350e-003,4.839576e-005
-3.588678e-003,2.716520e-005
-3.379289e-003,4.244267e-007
-3.049647e-003,-2.420950e-005
-2.645779e-003,-3.685059e-005
-2.176275e-003,-3.247483e-005
-1.643566e-003,-1.189254e-005
-1.062724e-003,1.906194e-005
-4.486585e-004,5.358185e-005
1.856651e-004,8.259154e-005
8.036204e-004,9.977046e-005
1.341678e-003,1.017153e-004
1.729339e-003,9.312579e-005
1.929166e-003,8.097089e-005
1.975841e-003,7.092283e-005
1.944238e-003,6.444023e-005
1.870336e-003,6.087479e-005
1.689471e-003,6.103685e-005
1.291276e-003,6.832980e-005
6.540340e-004,7.999850e-005
-1.211245e-004,9.507057e-005
-8.496080e-004,1.101426e-004
-1.354765e-003,1.219734e-004
-1.567071e-003,1.222975e-004
-1.558320e-003,1.077117e-004
-1.471777e-003,8.405013e-005
-1.420564e-003,5.828174e-005
-1.435312e-003,3.721326e-005
-1.453625e-003,2.116879e-005
-1.374051e-003,8.041497e-006
-1.131115e-003,-2.978945e-006
-7.392415e-004,-1.351319e-005
-2.770314e-004,-2.793700e-005
1.454729e-004,-4.479180e-005
4.658761e-004,-5.856734e-005
7.152948e-004,-6.197072e-005
1.000530e-003,-5.176060e-005
1.469872e-003,-3.215070e-005
2.202410e-003,-1.173047e-005
3.120028e-003,3.827798e-006
4.054992e-003,1.047248e-005
4.818493e-003,8.527692e-006
4.959005e-003,-2.238345e-007
4.959005e-003,-1.173047e-005
4.084975e-003,-1.869928e-005
2.404992e-003,-2.210265e-005
1.647587e-004,-2.372330e-005
-2.166065e-003,-2.501983e-005
-4.099510e-003,-2.469570e-005
-4.968025e-003,-2.096819e-005
-4.967863e-003,-1.448558e-005
-4.968025e-003,-3.951337e-006
-4.800610e-003,6.258778e-006
-3.765168e-003,1.646889e-005
-2.798283e-003,2.116879e-005
-2.069636e-003,1.419998e-005
-1.595270e-003,5.864920e-007
-1.279405e-003,-1.010982e-005
-1.001787e-003,-1.513384e-005
-6.828429e-004,-1.578211e-005
-3.037722e-004,-1.837515e-005
1.279698e-004,-2.501983e-005
5.793219e-004,-2.988179e-005
9.716824e-004,-2.939559e-005
1.207164e-003,-2.372330e-005
1.221587e-003,-1.610623e-005
1.013171e-003,-8.327101e-006
6.324793e-004,-2.238345e-007
1.867996e-004,9.662150e-006
-1.627753e-004,2.343770e-005
-2.814071e-004,4.094075e-005
-1.282554e-004,5.925414e-005
2.419018e-004,7.951231e-005
7.182119e-004,9.831188e-005
1.183016e-003,1.078737e-004
1.559656e-003,1.028497e-004
1.819772e-003,8.502253e-005
1.974707e-003,6.395403e-005
2.044557e-003,4.904402e-005
2.051202e-003,4.612685e-005
2.013441e-003,5.455424e-005
1.950235e-003,6.541262e-005
1.868878e-003,7.189524e-005
1.784442e-003,7.400208e-005
1.695792e-003,7.270556e-005
1.565491e-003,7.335382e-005
1.338923e-003,7.675719e-005
9.655238e-004,8.372600e-005
4.104497e-004,9.344992e-005
-3.418575e-004,1.002567e-004
-1.235485e-003,9.993253e-005
-2.093946e-003,9.409818e-005
-2.675275e-003,8.680524e-005
-2.793745e-003,8.388807e-005
-2.397008e-003,8.842590e-005
-1.580523e-003,9.620503e-005
-5.536768e-004,9.798775e-005
4.258459e-004,8.939829e-005
1.153682e-003,7.043664e-005
1.570515e-003,4.807163e-005
1.743115e-003,3.089270e-005
1.806482e-003,2.230324e-005
1.902425e-003,1.776542e-005
2.099984e-003,9.500084e-006
2.355400e-003,-4.113402e-006
2.547124e-003,-1.918548e-005
2.555714e-003,-3.247483e-005
2.316342e-003,-4.479180e-005
1.819286e-003,-5.791909e-005
1.098256e-003,-7.526008e-005
2.310434e-004,-9.616650e-005
-6.693914e-004,-1.204763e-004
-1.479394e-003,-1.459205e-004
-2.104318e-003,-1.626133e-004
-2.495868e-003,-1.652063e-004
-2.649831e-003,-1.561307e-004
-2.594728e-003,-1.387897e-004
-2.370916e-003,-1.146419e-004
-2.019558e-003,-7.866345e-005
-1.557671e-003,-3.198863e-005
-9.949806e-004,1.987226e-005
-3.455850e-004,6.865393e-005
3.796573e-004,1.088461e-004
1.140068e-003,1.375317e-004
1.859316e-003,1.539003e-004
2.434164e-003,1.595726e-004
2.722966e-003,1.548727e-004
2.598499e-003,1.427178e-004
2.033213e-003,1.302387e-004
1.146551e-003,1.216493e-004
1.989545e-004,1.222975e-004
-4.737786e-004,1.321835e-004
-6.416783e-004,1.498487e-004
-2.883759e-004,1.707551e-004
4.034809e-004,1.853410e-004
1.142661e-003,1.876099e-004
1.637772e-003,1.759412e-004
1.647658e-003,1.534141e-004
9.966404e-004,1.208390e-004
-3.642225e-004,8.210535e-005
-2.261846e-003,4.272347e-005
-4.312952e-003,3.503668e-006
-4.967863e-003,-3.117831e-005
-4.967863e-003,-5.953974e-005
-4.967863e-003,-7.671866e-005
-4.968025e-003,-7.947377e-005
-4.968025e-003,-6.650855e-005
-3.592243e-003,-3.928157e-005
-2.180165e-003,-2.654814e-006
-1.126578e-003,3.462021e-005
-5.164018e-004,6.071273e-005
-2.794623e-004,6.735740e-005
-2.376495e-004,5.666109e-005
-2.032917e-004,3.607880e-005
-5.759496e-005,7.555300e-006
2.159713e-004,-2.712668e-005
5.626291e-004,-6.067420e-005
9.018321e-004,-8.125648e-005
1.167620e-003,-8.676671e-005
1.324823e-003,-7.947377e-005
1.371336e-003,-6.342930e-005
1.325471e-003,-4.138842e-005
1.225801e-003,-2.145439e-005
1.119162e-003,-6.382316e-006
1.057901e-003,3.341602e-006
1.077835e-003,8.203561e-006
1.187067e-003,7.717366e-006
1.373119e-003,3.341602e-006
1.602766e-003,2.623614e-007
1.811669e-003,-1.844488e-006
1.926411e-003,-3.627206e-006
1.893026e-003,-9.947754e-006
1.691578e-003,-1.853721e-005
1.330334e-003,-1.950961e-005
8.603433e-004,-6.220251e-006
3.759298e-004,2.230324e-005
-3.668853e-005,6.022653e-005
-3.230579e-004,9.344992e-005
-4.672960e-004,1.119254e-004
-4.792888e-004,1.138701e-004
-3.773498e-004,1.046324e-004
-1.783336e-004,9.118101e-005
9.669123e-005,8.486046e-005
4.063981e-004,9.134307e-005
6.969814e-004,1.114392e-004
9.224144e-004,1.393144e-004
1.062439e-003,1.634621e-004
1.126617e-003,1.702689e-004
1.159516e-003,1.560071e-004
1.211539e-003,1.304008e-004
1.303431e-003,1.064151e-004
1.417363e-003,9.344992e-005
1.523354e-003,9.474644e-005
1.622700e-003,1.044704e-004
1.738577e-003,1.167873e-004
1.860126e-003,1.268354e-004
1.910853e-003,1.268354e-004
1.766776e-003,1.137081e-004
1.309589e-003,9.523264e-005
5.020167e-004,7.951231e-005
-5.716661e-004,7.205730e-005
-1.698344e-003,6.978838e-005
-2.637514e-003,6.638501e-005
-3.190158e-003,5.552663e-005
-3.245260e-003,3.624086e-005
-2.828427e-003,1.501031e-005
-2.116149e-003,-3.627206e-006
-1.352497e-003,-1.740276e-005
-7.207661e-004,-2.761287e-005
-2.833519e-004,-3.960571e-005
-5.734055e-006,-5.419158e-005
1.824238e-004,-6.326724e-005
3.495132e-004,-6.035006e-005
5.396159e-004,-4.689864e-005
7.660213e-004,-3.004385e-005
9.794615e-004,-1.156841e-005
1.094690e-003,9.338019e-006
1.059036e-003,3.299956e-005
8.514298e-004,5.633696e-005
4.948858e-004,7.221937e-005
9.733949e-005,7.853991e-005
-2.091260e-004,8.291567e-005
-3.523917e-004,9.101894e-005
-3.331059e-004,1.005808e-004
-1.921091e-004,1.059289e-004
2.052053e-005,1.010670e-004
2.736665e-004,8.680524e-005
5.315125e-004,6.606088e-005
7.193464e-004,4.288554e-005
7.692626e-004,1.857574e-005
6.971434e-004,-6.382316e-006
5.885596e-004,-3.134038e-005
4.997478e-004,-5.127441e-005
4.122324e-004,-6.099833e-005
2.707494e-004,-6.116039e-005
7.999850e-005,-5.289506e-005
-8.028410e-005,-3.830918e-005
-1.517549e-004,-2.469570e-005
-1.546721e-004,-1.205460e-005
-1.363587e-004,2.531276e-006
-1.041077e-004,2.003433e-005
-9.623623e-006,3.818564e-005
2.030061e-004,4.855782e-005
5.235714e-004,4.790957e-005
8.558055e-004,3.850977e-005
1.074108e-003,2.554455e-005
1.093556e-003,1.646889e-005
9.164180e-004,1.306552e-005
6.234036e-004,1.371378e-005
3.271481e-004,1.727922e-005
1.098185e-004,2.376183e-005
-1.682422e-006,2.781346e-005
-4.722277e-005,2.619281e-005
-1.169109e-004,1.776542e-005
-2.841623e-004,-1.844488e-006
-5.582146e-004,-2.955766e-005
-8.648421e-004,-6.586029e-005
-1.091734e-003,-1.026491e-004
-1.157208e-003,-1.347380e-004
-1.054134e-003,-1.572651e-004
-8.462046e-004,-1.741199e-004
-6.272544e-004,-1.883817e-004
-4.937127e-004,-1.990780e-004
-5.154294e-004,-1.998883e-004
-7.196317e-004,-1.827094e-004
-1.062886e-003,-1.467309e-004
-1.457029e-003,-9.568031e-005
-1.815679e-003,-3.847125e-005
-2.051971e-003,1.387585e-005
-2.078712e-003,5.309565e-005
-1.853278e-003,7.594687e-005
-1.397713e-003,8.421220e-005
-7.922369e-004,8.129502e-005
-1.514308e-004,7.918817e-005
4.013741e-004,8.469840e-005
7.645627e-004,9.523264e-005
8.849773e-004,1.062531e-004
7.635903e-004,1.120874e-004
4.537212e-004,1.099806e-004
4.742337e-005,1.005808e-004
-3.570916e-004,8.858796e-005
-6.810601e-004,8.064676e-005
-8.614387e-004,7.578480e-005
-8.616008e-004,6.962632e-005
-6.862462e-004,5.811968e-005
-3.656811e-004,4.402000e-005
3.737532e-005,2.829966e-005
4.060740e-004,1.695509e-005
5.981215e-004,1.614476e-005
5.248679e-004,2.846173e-005
2.190506e-004,5.455424e-005
-1.673132e-004,8.421220e-005
-4.583824e-004,1.038221e-004
-5.288809e-004,1.103047e-004
-3.206269e-004,1.062531e-004
1.271595e-004,9.717742e-005
6.806127e-004,8.648111e-005
1.157409e-003,8.210535e-005
1.403263e-003,8.956035e-005
1.328551e-003,1.034980e-004
9.494793e-004,1.127357e-004
3.746333e-004,1.106288e-004
-2.384598e-004,9.993253e-005
-7.248177e-004,8.923622e-005
-9.356646e-004,8.534666e-005
-7.841336e-004,8.810177e-005
-2.809209e-004,8.956035e-005
4.449697e-004,8.923622e-005
1.159030e-003,8.664317e-005
1.614110e-003,8.178122e-005
1.689471e-003,7.610893e-005
1.452207e-003,7.108490e-005
1.099066e-003,6.460230e-005
8.243648e-004,5.633696e-005
6.904988e-004,4.953022e-005
6.375034e-004,4.742337e-005
5.757564e-004,5.098881e-005
4.600418e-004,5.925414e-005
3.117519e-004,7.173317e-005
1.838824e-004,8.161915e-005
1.325077e-004,8.858796e-005
1.855030e-004,9.523264e-005
3.099692e-004,1.005808e-004
4.200116e-004,1.038221e-004
4.180668e-004,1.056048e-004
2.474120e-004,1.096565e-004
-8.514606e-005,1.197045e-004
-5.272602e-004,1.331559e-004
-1.015887e-003,1.469315e-004
-1.464970e-003,1.516314e-004
-1.775811e-003,1.415833e-004
-1.872564e-003,1.201907e-004
-1.737564e-003,9.393611e-005
-1.429802e-003,7.011251e-005
-1.055107e-003,4.677511e-005
-7.034251e-004,2.214118e-005
-4.044147e-004,-3.465141e-006
-1.481895e-004,-3.344722e-005
7.367795e-005,-7.282909e-005
2.396328e-004,-1.193418e-004
3.271481e-004,-1.639098e-004
3.514579e-004,-1.917850e-004
3.760919e-004,-1.968091e-004
4.961823e-004,-1.853024e-004
7.835244e-004,-1.665028e-004
1.231635e-003,-1.455964e-004
1.762077e-003,-1.188556e-004
2.252812e-003,-8.044616e-005
2.539993e-003,-2.809907e-005
2.467225e-003,3.040651e-005
1.990103e-003,8.469840e-005
1.250597e-003,1.229458e-004
5.031511e-004,1.378558e-004
-2.761287e-005,1.302387e-004
-2.624455e-004,1.120874e-004
-2.699005e-004,9.361198e-005
-2.019951e-004,8.178122e-005
-2.421873e-004,7.610893e-005
-4.953333e-004,6.865393e-005
-9.254545e-004,5.131293e-005
-1.376644e-003,2.003433e-005
-1.668524e-003,-2.664048e-005
-1.689755e-003,-8.935975e-005
-1.443415e-003,-1.622891e-004
-1.017994e-003,-2.276015e-004
-5.288809e-004,-2.637420e-004
-9.114247e-005,-2.570973e-004
2.059233e-004,-2.102605e-004
3.162897e-004,-1.383035e-004
2.393087e-004,-6.359137e-005
2.489629e-005,-3.789271e-006
-2.306807e-004,3.624086e-005
-4.298589e-004,5.682316e-005
-5.246671e-004,6.492643e-005
-5.081365e-004,7.173317e-005
-3.848048e-004,8.486046e-005
-1.789819e-004,1.007429e-004
6.071273e-005,1.141943e-004
2.872800e-004,1.219734e-004
4.812723e-004,1.190562e-004
6.501445e-004,1.034980e-004
8.196649e-004,8.242948e-005
1.015602e-003,6.735740e-005
1.248166e-003,6.573675e-005
1.495640e-003,7.286762e-005
1.720425e-003,8.161915e-005
1.897239e-003,8.210535e-005
2.025757e-003,6.654707e-005
2.090098e-003,3.591673e-005
2.002744e-003,2.623614e-007
1.615569e-003,-2.955766e-005
8.729845e-004,-4.706071e-005
-3.766092e-005,-4.560212e-005
-7.638755e-004,-2.874733e-005
-1.079417e-003,-4.599598e-006
-9.949806e-004,1.938607e-005
-6.804119e-004,4.110282e-005
-3.588744e-004,6.606088e-005
-2.104225e-004,9.782569e-005
-3.050687e-004,1.359110e-004
-5.646973e-004,1.751308e-004
-8.193018e-004,2.153230e-004
-9.343681e-004,2.500050e-004
-8.876934e-004,2.717218e-004
-7.586894e-004,2.795009e-004
-6.385990e-004,2.777182e-004
-5.608077e-004,2.722080e-004
-5.027883e-004,2.600531e-004
-4.094387e-004,2.308813e-004
-2.316531e-004,1.735102e-004
5.893001e-005,9.134307e-005
4.696036e-004,-5.479652e-007
9.379727e-004,-7.444974e-005
1.316396e-003,-1.109144e-004
1.437135e-003,-1.096179e-004
1.191281e-003,-8.206682e-005
5.997421e-004,-4.981582e-005
-1.462447e-004,-2.664048e-005
-7.533412e-004,-1.480971e-005
-1.010053e-003,-1.124428e-005
-9.132997e-004,-9.299492e-006
-6.129927e-004,-5.896120e-006
-3.024756e-004,-1.196226e-006
-1.324691e-004,2.531276e-006
-1.697441e-004,3.989864e-006
-3.788084e-004,2.623614e-007
-6.859221e-004,-3.789271e-006
-1.042952e-003,-2.816880e-006
-1.410192e-003,7.393235e-006
-1.747450e-003,2.084466e-005
-2.024096e-003,3.056858e-005
-2.219060e-003,3.008238e-005
-2.307062e-003,1.808955e-005
-2.255039e-003,9.106226e-007
-2.040302e-003,-9.623623e-006
-1.681003e-003,-8.975361e-006
-1.216524e-003,-2.168618e-006
-6.818704e-004,3.503668e-006
-1.045939e-004,5.772582e-006
4.832171e-004,7.393235e-006
1.010740e-003,8.689757e-006
1.362747e-003,5.448451e-006
1.423521e-003,-3.627206e-006
1.120945e-003,-1.675450e-005
4.856481e-004,-2.615428e-005
-3.151167e-004,-2.664048e-005
-1.040683e-003,-1.626830e-005
-1.493007e-003,2.531276e-006
-1.586519e-003,2.522042e-005
-1.348121e-003,4.466826e-005
-8.873692e-004,5.309565e-005
-3.389403e-004,5.228533e-005
1.869616e-004,4.709924e-005
6.227554e-004,4.450619e-005
9.361900e-004,4.483032e-005
1.127751e-003,4.709924e-005
1.214294e-003,4.985435e-005
1.214619e-003,5.082674e-005
1.141527e-003,4.661304e-005
1.014468e-003,3.316162e-005
8.532125e-004,9.338019e-006
6.736440e-004,-1.756482e-005
4.919686e-004,-3.847125e-005
3.516200e-004,-4.625038e-005
3.216379e-004,-4.155049e-005
4.472386e-004,-2.728874e-005
7.225877e-004,-1.124428e-005
1.102955e-003,2.531276e-006
1.528702e-003,1.468617e-005
1.944401e-003,2.295151e-005
2.318935e-003,2.586868e-005
2.615678e-003,2.084466e-005
2.775475e-003,1.338965e-005
2.725721e-003,8.041497e-006
2.422009e-003,3.017472e-006
1.869202e-003,-1.358292e-006
1.130993e-003,-1.520357e-006
3.253654e-004,5.124321e-006
-3.959873e-004,1.630683e-005
-8.899622e-004,2.716520e-005
-1.062238e-003,3.429608e-005
-9.004965e-004,3.445814e-005
-5.070020e-004,2.343770e-005
-7.315322e-005,6.096713e-006
2.177540e-004,-8.489165e-006
2.914938e-004,-1.027188e-005
1.871237e-004,4.476060e-006
-2.339917e-005,3.202716e-005
-2.916172e-004,6.411610e-005
-5.862519e-004,9.134307e-005
-8.499321e-004,1.086841e-004
-9.836360e-004,1.171115e-004
-9.077894e-004,1.184080e-004
-6.301716e-004,1.141943e-004
-2.606628e-004,1.104668e-004
2.684107e-005,1.064151e-004
9.004655e-005,1.004187e-004
-8.660465e-005,9.231547e-005
-4.034423e-004,8.372600e-005
-7.210902e-004,7.691926e-005
-9.327475e-004,7.610893e-005
-9.964391e-004,8.550872e-005
-9.215650e-004,1.049566e-004
-7.442656e-004,1.226217e-004
-5.082985e-004,1.269974e-004
-2.533698e-004,1.154908e-004
-1.869928e-005,9.344992e-005
1.597346e-004,6.670914e-005
2.676701e-004,3.883391e-005
3.329825e-004,1.112074e-005
4.063981e-004,-1.578211e-005
5.394538e-004,-4.300908e-005
7.600248e-004,-6.877746e-005
1.068273e-003,-8.871149e-005
1.451072e-003,-1.005423e-004
1.859964e-003,-1.045939e-004
2.175831e-003,-1.003802e-004
2.224288e-003,-8.903562e-005
1.886057e-003,-7.137050e-005
1.195981e-003,-5.143647e-005
3.175863e-004,-3.328516e-005
-5.303394e-004,-1.578211e-005
-1.168228e-003,-3.858999e-007
-1.532389e-003,1.014835e-005
-1.654424e-003,1.841368e-005
-1.626549e-003,2.910999e-005
-1.542437e-003,4.142695e-005
-1.455732e-003,4.661304e-005
-1.370000e-003,4.239934e-005
-1.269195e-003,3.170303e-005
-1.143432e-003,2.327564e-005
-9.915772e-004,2.262737e-005
-8.298360e-004,3.235129e-005
-6.849497e-004,5.163707e-005
-5.770142e-004,7.870197e-005
-5.100812e-004,1.128978e-004
-4.710235e-004,1.487142e-004
-4.447689e-004,1.746447e-004
-4.232143e-004,1.825858e-004
-3.924218e-004,1.683241e-004
-3.425058e-004,1.355869e-004
-2.708729e-004,9.296372e-005
-1.908126e-004,5.212327e-005
-1.285796e-004,2.035846e-005
-1.157764e-004,-1.358292e-006
-1.724992e-004,-1.448558e-005
-2.916172e-004,-2.437157e-005
-4.407173e-004,-3.847125e-005
-5.734488e-004,-5.921561e-005
-6.387611e-004,-8.320127e-005
-6.014861e-004,-1.052422e-004
-4.625961e-004,-1.211245e-004
-2.564491e-004,-1.285796e-004
-2.971972e-005,-1.237176e-004
1.908512e-004,-1.031353e-004
4.026706e-004,-6.375343e-005
6.123832e-004,-9.623623e-006
8.201511e-004,5.001641e-005
1.013981e-003,1.041462e-004
1.170375e-003,1.446626e-004
1.266642e-003,1.673517e-004
1.293382e-003,1.757791e-004
1.254973e-003,1.739964e-004
1.164702e-003,1.639483e-004
1.050932e-003,1.474177e-004
9.601757e-004,1.248906e-004
9.366762e-004,9.993253e-005
1.007985e-003,7.643306e-005
1.171671e-003,5.633696e-005
1.383491e-003,3.818564e-005
1.534212e-003,2.489629e-005
1.499368e-003,1.452411e-005
1.198574e-003,6.420843e-006
6.240519e-004,2.623614e-007
-1.579134e-004,-2.168618e-006
-1.021235e-003,2.623614e-007
-1.821027e-003,8.203561e-006
-2.428287e-003,2.100672e-005
-2.731512e-003,3.510640e-005
-2.645779e-003,4.402000e-005
-2.173034e-003,4.742337e-005
-1.421212e-003,4.807163e-005
-5.672903e-004,4.466826e-005
2.073818e-004,4.029249e-005
7.723418e-004,3.494434e-005
1.072163e-003,2.781346e-005
1.102955e-003,2.003433e-005
8.817360e-004,9.175954e-006
4.568004e-004,-5.571990e-006
-8.012203e-005,-2.096819e-005
-6.078066e-004,-2.890940e-005
-1.031121e-003,-2.534396e-005
-1.314249e-003,-1.092015e-005
-1.459784e-003,1.079661e-005
-1.479070e-003,3.526847e-005
-1.393661e-003,5.487837e-005
-1.233216e-003,6.800567e-005
-1.018642e-003,7.805372e-005
-7.445897e-004,8.858796e-005
-3.872357e-004,1.005808e-004
6.022653e-005,1.124116e-004
5.520949e-004,1.187321e-004
9.882130e-004,1.146805e-004
1.286414e-003,1.013911e-004
1.438269e-003,8.161915e-005
1.524488e-003,6.265751e-005
1.660623e-003,5.082674e-005
1.937270e-003,4.953022e-005
2.375658e-003,5.536457e-005
2.917445e-003,5.828174e-005
3.443513e-003,5.147500e-005
3.791795e-003,3.478227e-005
3.791471e-003,1.257933e-005
3.340601e-003,-1.043395e-005
2.424440e-003,-3.134038e-005
1.116893e-003,-4.916756e-005
-4.134903e-004,-6.180866e-005
-1.900116e-003,-6.715681e-005
-3.080439e-003,-6.893953e-005
-3.745234e-003,-6.893953e-005
-3.818974e-003,-6.748093e-005
-3.392740e-003,-5.953974e-005
-2.667171e-003,-4.754691e-005
-1.865109e-003,-3.474375e-005
-1.155587e-003,-2.015787e-005
-6.185029e-004,-3.858999e-007
-2.476975e-004,2.376183e-005
8.689757e-006,4.191315e-005
2.065715e-004,5.050261e-005
3.824124e-004,4.888196e-005
5.467467e-004,4.029249e-005
6.866092e-004,3.235129e-005
7.691005e-004,2.862379e-005
7.681281e-004,2.797553e-005
6.833678e-004,3.040651e-005
5.089855e-004,3.267542e-005
2.299089e-004,3.850977e-005
-1.126972e-004,5.520250e-005
-4.021458e-004,8.032263e-005
-4.906334e-004,1.051186e-004
-2.613110e-004,1.193804e-004
3.221241e-004,1.175977e-004
1.201653e-003,1.010670e-004
2.233364e-003,7.951231e-005
3.235258e-003,6.444023e-005
4.026792e-003,5.666109e-005
4.447033e-003,5.682316e-005
4.373130e-003,6.654707e-005
3.771861e-003,8.405013e-005
2.740631e-003,1.044704e-004
1.452207e-003,1.211631e-004
6.573675e-005,1.300767e-004
-1.323487e-003,1.342904e-004
-2.710443e-003,1.370455e-004
-4.142782e-003,1.394765e-004
-4.968025e-003,1.372075e-004
-4.967863e-003,1.260251e-004
-4.968025e-003,1.085220e-004
-4.967863e-003,8.988448e-005
-4.968025e-003,7.189524e-005
-4.968025e-003,5.487837e-005
-3.829508e-003,4.142695e-005
-1.927991e-003,3.348575e-005
-3.094444e-004,2.781346e-005
7.801210e-004,2.262737e-005
1.296462e-003,1.954813e-005
1.370364e-003,2.068259e-005
1.200357e-003,2.003433e-005
9.642273e-004,1.079661e-005
7.708832e-004,-1.010982e-005
6.460928e-004,-4.041603e-005
5.678153e-004,-7.720485e-005
5.258403e-004,-1.177212e-004
5.495019e-004,-1.577513e-004
6.825575e-004,-1.934057e-004
9.478587e-004,-2.225774e-004
1.347026e-003,-2.434839e-004
1.824148e-003,-2.528836e-004
2.245519e-003,-2.462390e-004
2.422333e-003,-2.222533e-004
2.224450e-003,-1.818990e-004
1.671482e-003,-1.300381e-004
8.906496e-004,-7.396355e-005
4.077869e-005,-2.242678e-005
-7.222247e-004,2.392390e-005
-1.287508e-003,5.730935e-005
-1.639352e-003,7.286762e-005
-1.853927e-003,7.351588e-005
-2.009834e-003,6.654707e-005
-2.081953e-003,6.038860e-005
-1.934311e-003,5.779555e-005
-1.427695e-003,5.876794e-005
-5.509217e-004,6.006446e-005
5.593878e-004,6.281957e-005
1.669051e-003,6.832980e-005
2.554903e-003,8.032263e-005
3.089398e-003,9.717742e-005
3.271723e-003,1.128978e-004
3.205438e-003,1.206769e-004
3.043371e-003,1.190562e-004
2.919228e-003,1.103047e-004
2.868825e-003,9.814982e-005
2.807240e-003,8.631904e-005
2.595582e-003,8.210535e-005
2.144066e-003,8.567078e-005
1.475058e-003,9.134307e-005
7.371736e-004,9.588090e-005
1.172735e-004,9.960840e-005
-2.911311e-004,1.023635e-004
-5.220741e-004,1.015532e-004
-6.744154e-004,9.750155e-005
-8.120089e-004,9.312579e-005
-9.238339e-004,8.631904e-005
-9.520333e-004,7.546067e-005
-8.531734e-004,6.006446e-005
-6.330888e-004,4.450619e-005
-3.507711e-004,3.073064e-005
-9.081834e-005,2.359977e-005
8.583285e-005,2.489629e-005
1.663793e-004,3.089270e-005
1.876099e-004,3.721326e-005
1.981441e-004,4.077869e-005
2.373639e-004,4.272347e-005
3.229344e-004,4.385793e-005
4.430249e-004,4.402000e-005
5.650601e-004,4.807163e-005
6.507927e-004,6.006446e-005
6.657027e-004,7.578480e-005
5.976353e-004,8.664317e-005
4.734932e-004,8.437427e-005
3.425443e-004,6.703327e-005
2.470879e-004,4.645098e-005
1.950649e-004,3.251336e-005
1.663793e-004,2.781346e-005
1.299146e-004,3.008238e-005
5.828174e-005,3.591673e-005
-6.197072e-005,4.094075e-005
-2.344082e-004,4.207521e-005
-4.734545e-004,4.191315e-005
-7.676030e-004,3.996836e-005
-1.036956e-003,3.883391e-005
-1.184921e-003,3.850977e-005
-1.182976e-003,4.029249e-005
-1.096920e-003,4.337174e-005
-1.041331e-003,4.418206e-005
-1.118636e-003,4.142695e-005
-1.343907e-003,3.510640e-005
-1.605319e-003,2.716520e-005
-1.733512e-003,1.954813e-005
-1.610991e-003,1.095867e-005
-1.235323e-003,5.934647e-006
-7.112043e-004,7.231170e-006
-1.665028e-004,1.663096e-005
3.200173e-004,3.218923e-005
7.329599e-004,4.855782e-005
1.083021e-003,6.022653e-005
1.364529e-003,6.427816e-005
1.538750e-003,5.585077e-005
1.541991e-003,3.559260e-005
1.334223e-003,1.419998e-005
9.326246e-004,-7.100305e-007
4.266563e-004,-9.299492e-006
-3.976777e-005,-1.367526e-005
-3.220855e-004,-1.367526e-005
-3.608191e-004,-1.513384e-005
-2.308428e-004,-2.469570e-005
-7.363942e-005,-4.252288e-005
-1.529591e-005,-6.164659e-005
-1.259865e-004,-7.201877e-005
-3.867496e-004,-6.812920e-005
-6.928909e-004,-5.062615e-005
-9.280476e-004,-2.275091e-005
-1.021721e-003,7.555300e-006
-9.661330e-004,3.235129e-005
-7.922369e-004,4.547859e-005
-5.481666e-004,5.082674e-005
-2.958309e-004,5.082674e-005
-8.903562e-005,4.807163e-005
4.677511e-005,4.256141e-005
1.112771e-004,3.510640e-005
1.271595e-004,2.878586e-005
1.260251e-004,2.359977e-005
1.312111e-004,1.614476e-005
1.532520e-004,7.231170e-006
1.893926e-004,-2.330684e-006
2.206712e-004,-8.165034e-006
2.271538e-004,-9.137427e-006
1.981441e-004,-6.868512e-006
1.380179e-004,-1.196226e-006
5.633696e-005,8.365628e-006
-3.393342e-005,2.262737e-005
-1.227452e-004,4.239934e-005
-1.951884e-004,6.427816e-005
-2.382978e-004,8.469840e-005
-2.391081e-004,1.007429e-004
-1.914609e-004,1.119254e-004
-9.292519e-005,1.206769e-004
7.675719e-005,1.294284e-004
3.324963e-004,1.404489e-004
6.545202e-004,1.474177e-004
9.891854e-004,1.435281e-004
1.274583e-003,1.261871e-004
1.474248e-003,1.013911e-004
1.590935e-003,7.772959e-005
1.669213e-003,6.022653e-005
1.754459e-003,5.115087e-005
1.854130e-003,5.034054e-005
1.936621e-003,5.471631e-005
1.950073e-003,5.925414e-005
1.842947e-003,6.200925e-005
1.569218e-003,6.087479e-005
1.100362e-003,5.763348e-005
4.352457e-004,5.131293e-005
-4.029561e-004,4.304760e-005
-1.364976e-003,3.462021e-005
-2.356654e-003,2.829966e-005
-3.231809e-003,2.408596e-005
-3.828211e-003,1.889987e-005
-4.019450e-003,1.501031e-005
-3.744747e-003,1.598270e-005
-3.014478e-003,2.359977e-005
-1.905302e-003,3.316162e-005
-5.831727e-004,3.850977e-005
6.556546e-004,3.510640e-005
1.457231e-003,2.262737e-005
1.593852e-003,4.638125e-006
1.035212e-003,-1.059601e-005
4.244267e-007,-1.886135e-005
-1.107130e-003,-1.999580e-005
-1.910974e-003,-1.756482e-005
-2.214522e-003,-1.740276e-005
-2.015182e-003,-1.983374e-005
-1.455570e-003,-2.664048e-005
-7.301659e-004,-3.652646e-005
1.776542e-005,-4.171255e-005
7.159431e-004,-3.717472e-005
1.304889e-003,-2.566809e-005
1.708109e-003,-1.416145e-005
1.848133e-003,-9.299492e-006
1.681692e-003,-1.529591e-005
1.222074e-003,-3.134038e-005
5.517707e-004,-5.419158e-005
-1.767129e-004,-7.574627e-005
-7.782993e-004,-8.725291e-005
-1.108750e-003,-7.866345e-005
-1.104537e-003,-4.981582e-005
-8.068228e-004,-1.156841e-005
-3.371576e-004,2.197911e-005
1.492004e-004,4.304760e-005
5.250300e-004,5.277152e-005
7.400908e-004,5.552663e-005
8.164236e-004,5.585077e-005
8.018378e-004,5.163707e-005
7.447907e-004,4.612685e-005
6.914712e-004,4.483032e-005
6.877437e-004,4.888196e-005
7.853070e-004,5.714729e-005
1.008957e-003,6.508849e-005
1.344757e-003,6.670914e-005
1.751704e-003,6.038860e-005
2.134504e-003,4.758544e-005
2.322176e-003,3.089270e-005
2.146173e-003,9.500084e-006
1.566787e-003,-1.124428e-005
7.246946e-004,-2.453363e-005
-1.331174e-004,-2.842320e-005
-7.616066e-004,-2.615428e-005
-1.052838e-003,-2.291298e-005
-1.062724e-003,-2.064406e-005
-9.646743e-004,-2.129233e-005
-9.622434e-004,-2.550602e-005
-1.190593e-003,-3.085418e-005
-1.656369e-003,-3.668853e-005
-2.242398e-003,-4.219875e-005
-2.770894e-003,-4.544005e-005
-3.061477e-003,-4.300908e-005
-2.968290e-003,-3.263690e-005
-2.428611e-003,-1.254080e-005
-1.493007e-003,1.257933e-005
-3.191683e-004,3.607880e-005
8.438127e-004,5.633696e-005
1.736794e-003,7.189524e-005
2.211809e-003,8.080882e-005
2.248760e-003,8.097089e-005
1.938080e-003,7.432621e-005
1.430328e-003,6.168512e-005
8.820601e-004,4.790957e-005
4.153117e-004,3.932010e-005
9.458438e-005,3.769945e-005
-7.331529e-005,3.932010e-005
-1.232314e-004,3.980630e-005
-1.039456e-004,4.304760e-005
-5.856734e-005,4.969228e-005
-2.194059e-005,6.136099e-005
-1.643037e-005,7.627100e-005
-5.046408e-005,9.685329e-005
-1.222590e-004,1.234320e-004
-2.109087e-004,1.461212e-004
-2.744383e-004,1.564933e-004
-2.697384e-004,1.504969e-004
-1.914609e-004,1.349386e-004
-6.796713e-005,1.208390e-004
5.779555e-005,1.117633e-004
1.420695e-004,1.057669e-004
1.607070e-004,9.912220e-005
1.258630e-004,9.166720e-005
7.497447e-005,8.242948e-005
3.964423e-005,7.076077e-005
2.797553e-005,5.568870e-005
2.003433e-005,3.818564e-005
-1.367526e-005,2.230324e-005
-7.931171e-005,1.079661e-005
-1.441378e-004,3.017472e-006
-1.477033e-004,1.396819e-006
-1.043395e-005,6.420843e-006
3.399513e-004,1.322759e-005
9.480208e-004,1.776542e-005
1.794003e-003,1.646889e-005
2.730907e-003,1.128280e-005
3.522278e-003,9.338019e-006
3.954511e-003,1.436204e-005
3.864887e-003,2.829966e-005
3.206410e-003,5.147500e-005
2.110842e-003,8.226741e-005
8.157754e-004,1.124116e-004
-4.073319e-004,1.360731e-004
-1.357034e-003,1.511452e-004
-2.021827e-003,1.586002e-004
-2.503810e-003,1.647587e-004
-2.889202e-003,1.714033e-004
-3.184323e-003,1.825858e-004
-3.337152e-003,1.929580e-004
-3.293556e-003,1.944166e-004
-3.039923e-003,1.806411e-004
-2.627303e-003,1.556830e-004
-2.139486e-003,1.297525e-004
-1.654586e-003,1.085220e-004
-1.213282e-003,9.555677e-005
-8.196259e-004,8.777764e-005
-4.666477e-004,7.513654e-005
-1.716889e-004,5.001641e-005
3.008238e-005,8.689757e-006
1.339663e-004,-5.030201e-005
1.762653e-004,-1.266348e-004
2.005751e-004,-2.110708e-004
2.381743e-004,-2.870794e-004
3.067279e-004,-3.412092e-004
4.110980e-004,-3.673017e-004
5.404262e-004,-3.668155e-004
6.691061e-004,-3.408851e-004
7.720176e-004,-2.921034e-004
8.318198e-004,-2.253325e-004
8.418679e-004,-1.475412e-004
8.190167e-004,-6.748093e-005
7.987585e-004,4.962256e-006
8.191787e-004,6.265751e-005
8.995632e-004,1.041462e-004
1.028081e-003,1.294284e-004
1.172644e-003,1.388282e-004
1.300189e-003,1.386661e-004
1.388677e-003,1.359110e-004
1.427897e-003,1.318594e-004
1.423035e-003,1.240803e-004
1.388029e-003,1.114392e-004
1.342164e-003,9.798775e-005
1.298569e-003,9.166720e-005
1.262590e-003,9.782569e-005
1.223370e-003,1.116012e-004
1.160813e-003,1.232699e-004
1.053850e-003,1.302387e-004
8.945392e-004,1.320215e-004
6.838541e-004,1.266733e-004
4.242253e-004,1.154908e-004
1.099806e-004,1.025256e-004
-2.677937e-004,8.956035e-005
-6.966184e-004,7.675719e-005
-1.131926e-003,6.541262e-005
-1.496897e-003,6.006446e-005
-1.688782e-003,6.476436e-005
-1.632870e-003,7.789165e-005
-1.330942e-003,9.798775e-005
-8.747281e-004,1.171115e-004
-4.044147e-004,1.276457e-004
-4.333321e-005,1.237561e-004
1.577899e-004,1.054428e-004
2.289365e-004,7.448828e-005
2.410914e-004,3.883391e-005
2.472499e-004,8.527692e-006
2.607013e-004,-8.651231e-006
2.649151e-004,-1.075808e-005
2.422259e-004,-1.844488e-006
1.898788e-004,1.338965e-005
1.232699e-004,2.797553e-005
5.034054e-005,3.364782e-005
-3.474375e-005,2.781346e-005
-1.400862e-004,1.290346e-005
-2.468872e-004,-4.599598e-006
-3.186821e-004,-1.999580e-005
-3.319715e-004,-2.761287e-005
-2.940482e-004,-2.469570e-005
-2.326255e-004,-1.221667e-005
-1.776853e-004,1.558884e-006
-1.485136e-004,7.231170e-006
-1.507825e-004,5.286386e-006
-1.831956e-004,1.720949e-006
-2.467252e-004,2.693341e-006
-3.386162e-004,2.369210e-006
-4.493068e-004,-6.176923e-008
-5.650214e-004,-6.176923e-008
-6.645294e-004,1.072688e-006
-7.110421e-004,1.234753e-006
-6.849497e-004,-1.682422e-006
-6.068342e-004,-7.192643e-006
-5.262878e-004,-1.367526e-005
-4.544929e-004,-2.031993e-005
-3.361852e-004,-2.793700e-005
-1.327932e-004,-3.425755e-005
9.993253e-005,-3.717472e-005
2.198609e-004,-3.636440e-005
1.229458e-004,-3.036798e-005
-1.793060e-004,-2.404744e-005
-5.687489e-004,-2.129233e-005
-8.740799e-004,-2.469570e-005
-9.586780e-004,-3.117831e-005
-7.833233e-004,-3.766092e-005
-4.186764e-004,-4.106429e-005
2.045080e-006,-3.668853e-005
3.452995e-004,-2.210265e-005
5.313505e-004,-3.141010e-006
5.535535e-004,1.565857e-005
4.610142e-004,3.056858e-005
3.273102e-004,3.688912e-005
2.209953e-004,3.543053e-005
1.850168e-004,2.878586e-005
2.281262e-004,1.711715e-005
3.287688e-004,4.638125e-006
4.548556e-004,-3.465141e-006
5.770529e-004,-3.303075e-006
6.738060e-004,6.258778e-006
7.303669e-004,2.311357e-005
7.363633e-004,4.418206e-005
6.930918e-004,6.444023e-005
6.099522e-004,7.789165e-005
5.044476e-004,8.550872e-005
3.919743e-004,9.053274e-005
2.803112e-004,9.750155e-005
1.715654e-004,1.072255e-004
6.670914e-005,1.188942e-004
-2.858526e-005,1.318594e-004
-1.050801e-004,1.422316e-004
-1.601823e-004,1.469315e-004
-2.010227e-004,1.485521e-004
-2.472113e-004,1.480659e-004
-3.212752e-004,1.445005e-004
-4.355312e-004,1.370455e-004
-5.791211e-004,1.257009e-004
-7.157421e-004,1.096565e-004
-7.797579e-004,8.988448e-005
-6.914323e-004,7.432621e-005
-3.967976e-004,6.200925e-005
6.314371e-005,4.985435e-005
5.425331e-004,3.834771e-005
8.883807e-004,2.748933e-005
1.024678e-003,1.727922e-005
9.668203e-004,7.717366e-006
8.021619e-004,5.124321e-006
6.397723e-004,6.258778e-006
5.692738e-004,7.717366e-006
6.494962e-004,7.069104e-006
8.896772e-004,7.485573e-007
1.254973e-003,-1.383732e-005
1.666782e-003,-3.539201e-005
1.984755e-003,-6.099833e-005
2.021544e-003,-8.190475e-005
1.633072e-003,-9.146661e-005
8.243648e-004,-8.611845e-005
-2.313289e-004,-6.699474e-005
-1.268385e-003,-4.009190e-005
-2.050188e-003,-1.480971e-005
-2.448221e-003,1.072688e-006
-2.454866e-003,9.338019e-006
-2.154396e-003,1.112074e-005
-1.688296e-003,6.582909e-006
-1.204369e-003,-7.100305e-007
-8.142778e-004,-5.571990e-006
-5.642110e-004,-7.840905e-006
-4.215936e-004,-9.137427e-006
-3.209511e-004,-6.868512e-006
-2.099363e-004,1.720949e-006
-6.407756e-005,1.776542e-005
1.041462e-004,3.186510e-005
2.560015e-004,4.013043e-005
3.397892e-004,4.320967e-005
3.111037e-004,4.158902e-005
1.448246e-004,3.915804e-005
-1.442999e-004,3.883391e-005
-4.820439e-004,3.980630e-005
-7.661444e-004,3.980630e-005
-9.251304e-004,3.948217e-005
-9.439299e-004,3.721326e-005
-8.382634e-004,3.721326e-005
-6.552917e-004,4.077869e-005
-4.609755e-004,4.515445e-005
-3.275957e-004,4.936815e-005
-2.838381e-004,5.131293e-005
-2.869173e-004,5.115087e-005
-2.535319e-004,5.098881e-005
-9.908367e-005,5.066468e-005
2.213195e-004,4.855782e-005
6.695923e-004,4.515445e-005
1.138772e-003,4.726130e-005
1.517033e-003,5.568870e-005
1.732418e-003,6.411610e-005
1.765642e-003,6.751947e-005
1.637772e-003,6.670914e-005
1.426438e-003,6.444023e-005
1.260483e-003,6.087479e-005
1.238442e-003,5.795762e-005
1.350592e-003,5.876794e-005
1.454152e-003,6.200925e-005
1.342650e-003,6.768153e-005
8.538608e-004,7.400208e-005
-4.641245e-005,7.772959e-005
-1.185894e-003,7.789165e-005
-2.233484e-003,7.627100e-005
-2.891795e-003,7.497447e-005
-3.010913e-003,7.578480e-005
-2.602669e-003,7.805372e-005
-1.804497e-003,8.016056e-005
-8.081193e-004,8.016056e-005
1.902029e-004,7.659513e-005
1.011713e-003,7.043664e-005
1.572784e-003,6.152305e-005
1.890108e-003,4.758544e-005
2.022841e-003,2.878586e-005
2.022841e-003,5.286386e-006
1.914256e-003,-2.534396e-005
1.678937e-003,-6.132245e-005
1.249301e-003,-9.065627e-005
5.540397e-004,-9.940780e-005
-4.143007e-004,-8.271508e-005
-1.518289e-003,-4.544005e-005
-2.540922e-003,3.827798e-006
-3.300687e-003,5.228533e-005
-3.729189e-003,8.939829e-005
-3.875535e-003,1.101426e-004
-3.818650e-003,1.133840e-004
-3.577009e-003,1.043083e-004
-3.133273e-003,9.150514e-005
-2.493437e-003,8.032263e-005
-1.708878e-003,6.995045e-005
-8.818590e-004,5.860587e-005
-1.075111e-004,4.531652e-005
5.742979e-004,3.040651e-005
1.162595e-003,1.646889e-005
1.645551e-003,8.527692e-006
1.989131e-003,6.582909e-006
2.142445e-003,7.069104e-006
2.062547e-003,9.013888e-006
1.757214e-003,1.306552e-005
1.299703e-003,1.598270e-005
8.023239e-004,1.744128e-005
3.725264e-004,1.371378e-005
9.134307e-005,8.851824e-006
-1.383732e-005,6.744974e-006
3.299956e-005,9.013888e-006
1.796687e-004,1.355172e-005
3.715541e-004,1.825161e-005
5.611706e-004,2.084466e-005
7.175637e-004,2.003433e-005
8.279303e-004,1.808955e-005
8.961599e-004,1.954813e-005
9.301936e-004,2.635488e-005
9.429968e-004,3.980630e-005
9.572585e-004,5.260946e-005
1.006040e-003,5.957827e-005
1.119000e-003,6.119892e-005
1.300513e-003,5.909207e-005
1.542477e-003,4.953022e-005
1.824796e-003,2.603075e-005
2.098039e-003,-8.813297e-006
2.278905e-003,-4.495386e-005
2.287818e-003,-7.380149e-005
2.084263e-003,-9.454584e-005
1.690281e-003,-1.052422e-004
1.174913e-003,-1.058904e-004
6.491721e-004,-9.973194e-005
2.303951e-004,-8.806324e-005
5.934647e-006,-6.942573e-005
5.448451e-006,-4.495386e-005
1.987924e-004,-1.480971e-005
5.028270e-004,1.792748e-005
8.149650e-004,4.855782e-005
1.048177e-003,7.384001e-005
1.149954e-003,9.490851e-005
1.094690e-003,1.120874e-004
8.663398e-004,1.252147e-004
4.608521e-004,1.315353e-004
-8.806324e-005,1.263492e-004
-7.066664e-004,1.101426e-004
-1.309549e-003,8.810177e-005
-1.804821e-003,6.995045e-005
-2.097997e-003,6.233338e-005
-2.124252e-003,6.914012e-005
-1.888609e-003,8.988448e-005
-1.465618e-003,1.195424e-004
-9.635399e-004,1.508210e-004
-4.833405e-004,1.767515e-004
-9.438377e-005,1.911753e-004
1.798307e-004,1.910132e-004
3.488649e-004,1.775618e-004
4.269804e-004,1.547106e-004
4.298976e-004,1.203528e-004
3.929467e-004,7.627100e-005
3.866261e-004,2.910999e-005
5.128751e-004,-1.497178e-005
8.305233e-004,-4.965375e-005
1.245411e-003,-6.375343e-005
1.515250e-003,-5.451571e-005
1.407639e-003,-3.101624e-005
8.972943e-004,-1.043395e-005
1.691344e-004,-6.058186e-006
-5.629145e-004,-2.226472e-005
-1.185731e-003,-4.965375e-005
-1.703530e-003,-7.331529e-005
-2.175627e-003,-8.401160e-005
-2.637514e-003,-8.109442e-005
-3.035385e-003,-6.731887e-005
-3.261142e-003,-4.398147e-005
-3.222247e-003,-1.626830e-005
-2.898115e-003,1.112074e-005
-2.358923e-003,3.591673e-005
-1.728975e-003,5.698522e-005
-1.132088e-003,6.962632e-005
-6.421645e-004,7.238143e-005
-2.765452e-004,6.362990e-005
-1.821308e-005,4.823369e-005
1.579519e-004,3.170303e-005
2.752873e-004,1.727922e-005
3.498373e-004,1.095867e-005
3.957018e-004,1.338965e-005
4.286011e-004,2.165498e-005
4.558280e-004,2.975825e-005
4.728449e-004,3.040651e-005
4.751138e-004,2.052053e-005
4.694415e-004,5.934647e-006
4.674967e-004,-5.409925e-006
4.820826e-004,-1.108221e-005
5.209784e-004,-1.189254e-005
5.872631e-004,-1.027188e-005
6.877437e-004,-1.027188e-005
8.258234e-004,-1.270286e-005
9.919406e-004,-1.545797e-005
1.157409e-003,-1.497178e-005
1.261618e-003,-1.092015e-005
1.222398e-003,-5.734055e-006
9.901578e-004,-2.492749e-006
6.063868e-004,-8.720958e-007
1.869616e-004,4.313994e-006
-1.376552e-004,1.419998e-005
-2.861070e-004,2.878586e-005
-2.506147e-004,4.628891e-005
-7.461181e-005,6.395403e-005
1.864754e-004,8.064676e-005
5.021787e-004,9.377405e-005
8.467298e-004,1.000946e-004
1.149792e-003,9.685329e-005
1.291276e-003,8.680524e-005
1.169564e-003,7.173317e-005
7.624558e-004,5.536457e-005
1.362352e-004,4.256141e-005
-5.650214e-004,3.867184e-005
-1.169525e-003,4.418206e-005
-1.573068e-003,5.520250e-005
-1.765601e-003,6.330577e-005
-1.793152e-003,6.622294e-005
-1.698506e-003,6.427816e-005
-1.499652e-003,5.763348e-005
-1.194159e-003,4.564065e-005
-7.883473e-004,2.716520e-005
-3.144684e-004,1.072688e-006
1.767515e-004,-2.890940e-005
6.387999e-004,-4.965375e-005
1.034726e-003,-5.013995e-005
1.331954e-003,-3.150244e-005
1.496775e-003,-2.492749e-006
1.519302e-003,3.056858e-005
1.417849e-003,6.362990e-005
1.232770e-003,9.409818e-005
9.987473e-004,1.175977e-004
7.441424e-004,1.329939e-004
5.039615e-004,1.370455e-004
3.028383e-004,1.312111e-004
1.297525e-004,1.208390e-004
-5.386745e-005,1.117633e-004
-2.603386e-004,1.065772e-004
-4.392587e-004,1.022014e-004
-5.066778e-004,9.458438e-005
-4.136524e-004,8.405013e-005
-1.985918e-004,7.497447e-005
3.818564e-005,7.011251e-005
1.914994e-004,6.832980e-005
2.174299e-004,6.719534e-005
1.526038e-004,6.622294e-005
7.659513e-005,6.654707e-005
4.628891e-005,6.687120e-005
6.476436e-005,6.638501e-005
1.190562e-004,6.233338e-005
2.149989e-004,5.455424e-005
3.593991e-004,4.742337e-005
5.511225e-004,4.191315e-005
7.982723e-004,3.737532e-005
1.109438e-003,3.429608e-005
1.444266e-003,3.413401e-005
1.694657e-003,3.429608e-005
1.727719e-003,2.716520e-005
1.439890e-003,1.144487e-005
8.032963e-004,-8.651231e-006
-1.099420e-004,-2.939559e-005
-1.128360e-003,-4.819516e-005
-2.047433e-003,-6.456376e-005
-2.682892e-003,-7.817725e-005
-2.920480e-003,-9.276313e-005
-2.752418e-003,-1.073490e-004
-2.278538e-003,-1.185315e-004
-1.651669e-003,-1.225831e-004
-1.012970e-003,-1.216107e-004
-4.407173e-004,-1.182074e-004
5.179913e-005,-1.139937e-004
4.916445e-004,-1.063766e-004
9.214421e-004,-9.211487e-005
1.329361e-003,-7.477388e-005
1.595149e-003,-5.824321e-005
1.533564e-003,-4.414354e-005
1.007499e-003,-3.263690e-005
5.228533e-005,-2.048200e-005
-1.108588e-003,-8.813297e-006
-2.207878e-003,-1.682422e-006
-3.079305e-003,-1.520357e-006
-3.657556e-003,-6.868512e-006
-3.908596e-003,-1.367526e-005
-3.799202e-003,-1.594417e-005
-3.319810e-003,-1.318906e-005
-2.503323e-003,-4.923729e-006
-1.444063e-003,5.772582e-006
-3.173856e-004,1.468617e-005
6.739681e-004,2.019640e-005
1.378467e-003,2.262737e-005
1.743601e-003,2.197911e-005
1.793841e-003,2.035846e-005
1.601793e-003,2.311357e-005
1.260645e-003,3.235129e-005
8.514298e-004,5.017848e-005
4.125566e-004,7.740545e-005
-5.678463e-005,1.091703e-004
-5.517320e-004,1.402868e-004
-1.013780e-003,1.639483e-004
-1.332563e-003,1.715654e-004
-1.398847e-003,1.639483e-004
-1.158180e-003,1.498487e-004
-6.429748e-004,1.406109e-004
4.158902e-005,1.407730e-004
7.564594e-004,1.493625e-004
1.373119e-003,1.595726e-004
1.798055e-003,1.673517e-004
1.986213e-003,1.709171e-004
1.958176e-003,1.697827e-004
1.786224e-003,1.678379e-004
1.560467e-003,1.663793e-004
1.356426e-003,1.670276e-004
1.214619e-003,1.725378e-004
1.139906e-003,1.819376e-004
1.111383e-003,1.940925e-004
1.106035e-003,2.041405e-004
1.106359e-003,2.026820e-004
1.102469e-003,1.913374e-004
1.088207e-003,1.756170e-004
1.062601e-003,1.589243e-004
1.026461e-003,1.469315e-004
9.864303e-004,1.436902e-004
9.545034e-004,1.487142e-004
9.488311e-004,1.571416e-004
9.773546e-004,1.615174e-004
1.037319e-003,1.560071e-004
1.112355e-003,1.388282e-004
1.173130e-003,1.107909e-004
1.190147e-003,7.562274e-005
1.144282e-003,3.364782e-005
1.042019e-003,-1.513384e-005
9.068561e-004,-6.893953e-005
7.580800e-004,-1.233935e-004
6.059006e-004,-1.757406e-004
4.448076e-004,-2.229016e-004
2.634565e-004,-2.587180e-004
6.525056e-005,-2.768693e-004
-1.334415e-004,-2.721694e-004
-3.151167e-004,-2.483458e-004
-4.744269e-004,-2.131776e-004
-6.121824e-004,-1.778474e-004
-7.165524e-004,-1.533756e-004
-7.591756e-004,-1.455964e-004
-6.901358e-004,-1.514308e-004
-4.828543e-004,-1.608306e-004
-1.716889e-004,-1.677994e-004
1.511452e-004,-1.713648e-004
3.657197e-004,-1.700683e-004
3.785229e-004,-1.629374e-004
1.770756e-004,-1.498101e-004
-1.598582e-004,-1.263107e-004
-5.178603e-004,-9.308726e-005
-7.951541e-004,-5.710876e-005
-9.325854e-004,-2.664048e-005
-9.134617e-004,-8.813297e-006
-7.528550e-004,-1.844488e-006
-5.021400e-004,-3.858999e-007
-2.486699e-004,3.989864e-006
-7.607040e-005,1.695509e-005
-2.874733e-005,4.077869e-005
-8.417366e-005,6.768153e-005
-1.724992e-004,8.518459e-005
-2.271153e-004,9.053274e-005
-2.233878e-004,8.745350e-005
-1.919471e-004,8.226741e-005
-1.958366e-004,8.064676e-005
-2.835140e-004,8.323980e-005
-4.403932e-004,8.761556e-005
-6.040791e-004,8.988448e-005
-7.052078e-004,9.020861e-005
-7.113663e-004,9.053274e-005
-6.319543e-004,9.944633e-005
-5.047331e-004,1.175977e-004
-3.773498e-004,1.378558e-004
-2.828657e-004,1.514693e-004
-2.282497e-004,1.547106e-004
-1.959987e-004,1.496866e-004
-1.609926e-004,1.399627e-004
-9.908367e-005,1.310491e-004
7.717366e-006,1.263492e-004
1.691344e-004,1.250527e-004
3.974845e-004,1.266733e-004
7.133500e-004,1.261871e-004
1.126941e-003,1.218114e-004
1.625293e-003,1.127357e-004
2.150548e-003,1.013911e-004
2.585534e-003,9.166720e-005
2.817289e-003,8.453633e-005
2.766400e-003,8.048469e-005
2.377765e-003,7.821578e-005
1.636800e-003,7.594687e-005
6.012007e-004,7.189524e-005
-5.938690e-004,6.427816e-005
-1.754095e-003,5.682316e-005
-2.686133e-003,5.163707e-005
-3.230836e-003,4.790957e-005
-3.310249e-003,4.385793e-005
-2.940901e-003,3.932010e-005
-2.215171e-003,3.559260e-005
-1.264819e-003,3.413401e-005
-2.387839e-004,3.802358e-005
6.605167e-004,5.082674e-005
1.201815e-003,6.865393e-005
1.236822e-003,8.664317e-005
7.819037e-004,9.814982e-005
2.295151e-005,1.020394e-004
-7.708443e-004,1.004187e-004
-1.362221e-003,9.652916e-005
-1.645673e-003,9.231547e-005
-1.645673e-003,9.328785e-005
-1.461567e-003,9.847395e-005
-1.206638e-003,1.039842e-004
-9.816912e-004,9.912220e-005
-8.612767e-004,8.161915e-005
-8.750523e-004,5.941620e-005
-9.893083e-004,4.320967e-005
-1.129171e-003,3.688912e-005
-1.201128e-003,3.996836e-005
-1.130953e-003,4.547859e-005
-9.021171e-004,4.953022e-005
-5.736108e-004,5.017848e-005
-2.603386e-004,4.369587e-005
-7.526008e-005,2.992031e-005
-7.752898e-005,1.322759e-005
-2.517492e-004,-1.034161e-006
-4.914437e-004,-1.108221e-005
-6.398956e-004,-1.902341e-005
-6.048895e-004,-2.647842e-005
-4.193247e-004,-3.620233e-005
-1.901644e-004,-4.689864e-005
-1.075808e-005,-5.759496e-005
7.627100e-005,-6.553616e-005
8.064676e-005,-7.056018e-005
4.839576e-005,-7.363942e-005
2.376183e-005,-7.623246e-005
2.376183e-005,-7.769105e-005
5.147500e-005,-7.169464e-005
1.146805e-004,-5.354332e-005
2.265056e-004,-2.566809e-005
3.846813e-004,4.476060e-006
5.783495e-004,2.716520e-005
7.943827e-004,3.850977e-005
1.017871e-003,4.272347e-005
1.227422e-003,4.774750e-005
1.398077e-003,5.244739e-005
1.505688e-003,5.034054e-005
1.528216e-003,3.915804e-005
1.449290e-003,2.165498e-005
1.248328e-003,6.582909e-006
9.143112e-004,-6.176923e-008
4.605280e-004,1.558884e-006
-6.051213e-005,9.013888e-006
-5.507596e-004,2.052053e-005
-9.026033e-004,3.267542e-005
-1.041331e-003,4.288554e-005
-9.520333e-004,4.645098e-005
-6.792774e-004,4.320967e-005
-3.160891e-004,3.818564e-005
3.688912e-005,3.510640e-005
3.172621e-004,3.478227e-005
5.164405e-004,3.462021e-005
6.686199e-004,3.607880e-005
8.113996e-004,4.158902e-005
9.595274e-004,4.807163e-005
1.094528e-003,4.823369e-005
1.189985e-003,3.721326e-005
1.235525e-003,1.517237e-005
1.244114e-003,-1.464765e-005
1.233742e-003,-4.787104e-005
1.208784e-003,-7.882551e-005
1.170375e-003,-1.003802e-004
1.121107e-003,-1.097800e-004
1.058549e-003,-1.071869e-004
9.749237e-004,-9.762508e-005
8.632605e-004,-8.352540e-005
7.315013e-004,-6.845333e-005
5.989318e-004,-5.467778e-005
4.932652e-004,-4.138842e-005
4.401077e-004,-2.501983e-005
4.516144e-004,-4.275467e-006
5.274609e-004,2.100672e-005
6.537099e-004,4.904402e-005
7.990826e-004,7.497447e-005
9.235489e-004,9.182927e-005
9.898336e-004,9.474644e-005
9.703858e-004,8.453633e-005
8.716880e-004,6.606088e-005
7.368495e-004,4.823369e-005
6.057385e-004,3.672705e-005
4.837033e-004,3.008238e-005
3.503235e-004,2.765140e-005
2.010613e-004,2.846173e-005
5.552663e-005,3.105477e-005
-6.521203e-005,3.218923e-005
-1.410586e-004,3.105477e-005
-1.475412e-004,3.024445e-005
-5.500191e-005,3.170303e-005
1.676758e-004,3.607880e-005
5.044476e-004,4.207521e-005
8.652053e-004,4.953022e-005
1.102631e-003,6.119892e-005
1.066167e-003,8.275361e-005
6.939021e-004,1.094944e-004
6.914012e-005,1.339663e-004
-6.092652e-004,1.558451e-004
-1.123660e-003,1.744826e-004
-1.336290e-003,1.897167e-004
-1.225761e-003,1.991165e-004
-8.658145e-004,2.015475e-004
-3.859392e-004,1.960373e-004
8.097089e-005,1.832341e-004
4.454558e-004,1.600588e-004
6.451205e-004,1.244044e-004
5.845079e-004,8.194328e-005
1.381799e-004,4.158902e-005
-7.447518e-004,9.013888e-006
-1.956190e-003,-1.756482e-005
-3.286749e-003,-4.090223e-005
-4.512942e-003,-6.521203e-005
-4.967863e-003,-9.470791e-005
-4.967863e-003,-1.305243e-004
-4.968025e-003,-1.692580e-004
-4.968025e-003,-2.102605e-004
-4.279404e-003,-2.562870e-004
-2.789045e-003,-2.968033e-004
-9.729397e-004,-3.130099e-004
1.001989e-003,-2.909690e-004
2.855698e-003,-2.337599e-004
4.396793e-003,-1.627753e-004
4.958681e-003,-9.940780e-005
4.958681e-003,-5.710876e-005
4.958519e-003,-4.106429e-005
4.958519e-003,-4.787104e-005
4.246232e-003,-6.553616e-005
2.664784e-003,-7.963584e-005
9.938853e-004,-7.833932e-005
-3.987424e-004,-5.370539e-005
-1.261254e-003,-1.010982e-005
-1.612774e-003,3.964423e-005
-1.663176e-003,8.242948e-005
-1.702882e-003,1.132219e-004
-1.955380e-003,1.291043e-004
-2.461834e-003,1.291043e-004
-3.059370e-003,1.234320e-004
-3.472801e-003,1.242423e-004
-3.460160e-003,1.360731e-004
-2.925180e-003,1.568175e-004
-1.954732e-003,1.801549e-004
-7.465344e-004,2.017096e-004
4.530729e-004,2.167816e-004
1.387056e-003,2.261814e-004
1.857209e-003,2.347709e-004
1.778607e-003,2.448189e-004
1.237308e-003,2.490327e-004
4.649037e-004,2.396328e-004
-2.797865e-004,2.161334e-004
-8.290257e-004,1.861513e-004
-1.174063e-003,1.545486e-004
-1.402251e-003,1.253768e-004
-1.611963e-003,1.028497e-004
-1.858627e-003,9.231547e-005
-2.124414e-003,9.442231e-005
-2.330075e-003,1.047945e-004
-2.380964e-003,1.171115e-004
-2.222626e-003,1.234320e-004
-1.866730e-003,1.231079e-004
-1.360600e-003,1.226217e-004
-7.499378e-004,1.242423e-004
-6.926366e-005,1.255388e-004
6.373413e-004,1.250527e-004
1.321096e-003,1.239182e-004
1.907288e-003,1.205148e-004
2.304025e-003,1.117633e-004
2.466415e-003,9.620503e-005
2.395106e-003,7.756751e-005
2.124456e-003,6.006446e-005
1.736632e-003,4.661304e-005
1.345730e-003,3.996836e-005
1.058873e-003,3.769945e-005
9.441312e-004,3.996836e-005
1.005068e-003,4.418206e-005
1.180585e-003,4.564065e-005
1.392567e-003,4.450619e-005
1.583804e-003,3.656499e-005
1.697736e-003,2.230324e-005
1.672454e-003,3.665733e-006
1.468413e-003,-1.367526e-005
1.098742e-003,-2.339917e-005
6.384758e-004,-2.323711e-005
2.112714e-004,-1.448558e-005
-4.398147e-005,1.234753e-006
-2.971972e-005,1.727922e-005
2.647530e-004,2.894792e-005
7.624558e-004,3.429608e-005
1.338113e-003,3.478227e-005
1.876333e-003,3.850977e-005
2.299487e-003,4.985435e-005
2.571110e-003,6.573675e-005
2.671753e-003,7.708132e-005
2.582292e-003,8.016056e-005
2.305321e-003,7.384001e-005
1.891243e-003,6.427816e-005
1.423845e-003,5.763348e-005
9.812443e-004,5.390598e-005
6.039558e-004,4.758544e-005
2.759355e-004,3.705119e-005
-6.650855e-005,2.619281e-005
-4.810716e-004,1.889987e-005
-9.606227e-004,1.193106e-005
-1.406626e-003,-1.682422e-006
-1.716171e-003,-2.437157e-005
-1.875157e-003,-5.240886e-005
-1.972883e-003,-8.222889e-005
-2.149372e-003,-1.073490e-004
-2.501216e-003,-1.227452e-004
-2.969424e-003,-1.267968e-004
-3.314786e-003,-1.209625e-004
-3.256929e-003,-1.078352e-004
-2.667658e-003,-9.033214e-005
-1.627197e-003,-7.266703e-005
-3.544986e-004,-6.294311e-005
8.483505e-004,-6.650855e-005
1.683313e-003,-7.785312e-005
1.976003e-003,-8.741497e-005
1.683799e-003,-8.968388e-005
9.133388e-004,-9.000801e-005
-8.530812e-005,-9.649063e-005
-9.975736e-004,-1.125351e-004
-1.580685e-003,-1.311726e-004
-1.718278e-003,-1.421931e-004
-1.428343e-003,-1.397621e-004
-8.530114e-004,-1.229073e-004
-2.199844e-004,-9.681476e-005
2.466016e-004,-7.137050e-005
4.072085e-004,-5.192267e-005
2.522740e-004,-3.992984e-005
-1.075111e-004,-3.312309e-005
-4.987367e-004,-2.404744e-005
-7.739235e-004,-6.382316e-006
-8.620870e-004,1.630683e-005
-7.713305e-004,3.380988e-005
-5.674524e-004,4.466826e-005
-3.277578e-004,5.374392e-005
-1.068628e-004,6.362990e-005
7.205730e-005,7.205730e-005
2.101370e-004,7.789165e-005
3.161277e-004,8.113296e-005
4.031568e-004,8.016056e-005
4.780310e-004,7.481241e-005
5.396159e-004,6.768153e-005
5.754323e-004,6.525056e-005
5.770529e-004,7.351588e-005
5.444778e-004,8.923622e-005
4.832171e-004,1.051186e-004
4.123945e-004,1.137081e-004
3.615060e-004,1.133840e-004
3.480546e-004,1.094944e-004
3.694472e-004,1.080358e-004
4.078567e-004,1.090082e-004
4.443214e-004,1.106288e-004
4.683071e-004,1.145184e-004
4.749518e-004,1.226217e-004
4.653899e-004,1.310491e-004
4.465903e-004,1.355869e-004
4.235770e-004,1.375317e-004
4.046154e-004,1.399627e-004
3.963500e-004,1.402868e-004
3.997534e-004,1.328318e-004
4.062360e-004,1.180839e-004
4.054257e-004,1.034980e-004
3.854917e-004,9.717742e-005
3.443271e-004,9.393611e-005
2.932765e-004,8.875003e-005
2.522740e-004,7.935023e-005
2.462775e-004,6.849186e-005
2.867939e-004,5.649903e-005
3.615060e-004,4.402000e-005
4.488592e-004,3.348575e-005
5.221128e-004,2.635488e-005
5.636016e-004,2.035846e-005
5.689497e-004,1.209313e-005
5.490156e-004,3.341602e-006
5.324850e-004,-3.627206e-006
5.350781e-004,-7.678839e-006
5.266506e-004,-1.237873e-005
4.438352e-004,-1.480971e-005
2.525981e-004,-1.043395e-005
-1.140634e-005,9.106226e-007
-2.511009e-004,1.257933e-005
-3.439643e-004,2.181705e-005
-2.084778e-004,2.716520e-005
1.470936e-004,3.299956e-005
6.078454e-004,4.304760e-005
9.624446e-004,5.649903e-005
9.752478e-004,6.379197e-005
5.141716e-004,5.828174e-005
-3.438023e-004,4.272347e-005
-1.358007e-003,2.732727e-005
-2.260225e-003,1.906194e-005
-2.850630e-003,1.906194e-005
-3.030199e-003,2.635488e-005
-2.794717e-003,3.672705e-005
-2.233322e-003,4.758544e-005
-1.517803e-003,5.876794e-005
-8.515528e-004,7.092283e-005
-3.859392e-004,8.372600e-005
-1.639098e-004,9.717742e-005
-1.208004e-004,1.083599e-004
-1.342519e-004,1.130598e-004
-9.146661e-005,1.054428e-004
5.633696e-005,8.437427e-005
2.843629e-004,5.633696e-005
5.242196e-004,3.170303e-005
7.070294e-004,1.938607e-005
7.994067e-004,1.889987e-005
8.160995e-004,2.376183e-005
8.013516e-004,2.927205e-005
7.893587e-004,3.073064e-005
7.853070e-004,2.457216e-005
7.588904e-004,1.419998e-005
6.626235e-004,5.124321e-006
4.689553e-004,1.558884e-006
1.918236e-004,2.207145e-006
-1.225831e-004,1.883015e-006
-4.280762e-004,-3.303075e-006
-6.928909e-004,-1.497178e-005
-9.004965e-004,-3.555407e-005
-1.049921e-003,-6.229485e-005
-1.143108e-003,-8.595638e-005
-1.147322e-003,-9.746302e-005
-9.917392e-004,-9.649063e-005
-6.358439e-004,-8.773910e-005
-1.292278e-004,-7.590833e-005
3.968363e-004,-6.261898e-005
7.877380e-004,-5.030201e-005
9.402416e-004,-3.944364e-005
8.345749e-004,-2.745081e-005
5.284333e-004,-1.545797e-005
1.302387e-004,-5.247859e-006
-2.327876e-004,-2.492749e-006
-4.504412e-004,-1.156841e-005
-4.668098e-004,-2.826113e-005
-2.885380e-004,-4.300908e-005
3.202716e-005,-4.770897e-005
4.128807e-004,-3.895744e-005
7.660213e-004,-2.664048e-005
1.028567e-003,-2.129233e-005
1.175885e-003,-2.534396e-005
1.217212e-003,-3.409548e-005
1.170050e-003,-3.685059e-005
1.048177e-003,-3.150244e-005
8.635846e-004,-2.096819e-005
6.235657e-004,-6.058186e-006
3.529165e-004,1.549650e-005
1.065772e-004,4.466826e-005
-7.185670e-005,8.032263e-005
-1.844921e-004,1.208390e-004
-2.755728e-004,1.579519e-004
-3.946908e-004,1.858272e-004
-5.593491e-004,1.971717e-004
-7.454000e-004,1.934442e-004
-8.873692e-004,1.799928e-004
-8.987138e-004,1.621656e-004
-7.256281e-004,1.423936e-004
-3.919356e-004,1.240803e-004
1.306552e-005,1.106288e-004
3.838710e-004,1.036600e-004
6.433377e-004,9.831188e-005
7.697488e-004,9.231547e-005
7.796347e-004,8.486046e-005
7.008709e-004,7.497447e-005
5.574430e-004,6.719534e-005
3.717161e-004,6.638501e-005
1.628139e-004,7.238143e-005
-5.970180e-005,8.210535e-005
-3.034480e-004,8.761556e-005
-5.825244e-004,8.307774e-005
-8.863969e-004,6.897806e-005
-1.145215e-003,4.612685e-005
-1.254771e-003,1.290346e-005
-1.135329e-003,-2.907146e-005
-7.706822e-004,-7.363942e-005
-2.301945e-004,-1.089697e-004
3.444891e-004,-1.240417e-004
7.956792e-004,-1.191798e-004
1.026136e-003,-1.031353e-004
1.021274e-003,-8.206682e-005
8.357094e-004,-5.662256e-005
5.634395e-004,-2.647842e-005
3.044590e-004,6.096713e-006
1.354248e-004,3.818564e-005
8.583285e-005,6.768153e-005
1.252147e-004,9.053274e-005
1.968476e-004,1.030118e-004
2.462775e-004,1.046324e-004
2.454672e-004,9.912220e-005
1.809652e-004,8.842590e-005
4.807163e-005,7.756751e-005
-1.386276e-004,7.205730e-005
-3.230579e-004,7.529860e-005
-3.956631e-004,8.712937e-005
-2.418632e-004,1.012291e-004
1.686482e-004,1.077117e-004
7.423597e-004,9.636710e-005
1.291600e-003,6.881599e-005
1.628696e-003,3.543053e-005
1.673589e-003,9.986280e-006
1.482513e-003,1.396819e-006
1.187391e-003,1.047248e-005
8.806015e-004,3.089270e-005
5.452881e-004,5.017848e-005
8.405013e-005,5.941620e-005
-5.747453e-004,5.860587e-005
-1.358331e-003,4.871989e-005
-2.075957e-003,2.878586e-005
-2.554374e-003,3.827798e-006
-2.747394e-003,-1.788895e-005
-2.722112e-003,-3.182657e-005
-2.573984e-003,-3.490581e-005
-2.366054e-003,-2.890940e-005
-2.128466e-003,-1.756482e-005
-1.867216e-003,-5.734055e-006
-1.574040e-003,5.934647e-006
-1.238078e-003,1.906194e-005
-8.487977e-004,3.510640e-005
-3.831841e-004,5.115087e-005
1.699447e-004,6.217131e-005
7.725038e-004,6.703327e-005
1.326768e-003,6.444023e-005
1.716536e-003,5.439218e-005
1.864664e-003,3.980630e-005
1.769045e-003,2.667901e-005
1.501799e-003,1.468617e-005
1.169564e-003,2.207145e-006
8.585606e-004,-9.461557e-006
5.909906e-004,-2.194059e-005
3.324963e-004,-3.717472e-005
5.293359e-005,-5.419158e-005
-2.311669e-004,-6.634648e-005
-4.549791e-004,-6.748093e-005
-5.400633e-004,-5.905355e-005
-4.287245e-004,-4.527799e-005
-1.130213e-004,-2.858526e-005
3.628025e-004,-9.461557e-006
8.994011e-004,1.225519e-005
1.377332e-003,3.429608e-005
1.709891e-003,5.358185e-005
1.861423e-003,6.784360e-005
1.850240e-003,7.513654e-005
1.738739e-003,7.821578e-005
1.597256e-003,7.935023e-005
1.473924e-003,8.275361e-005
1.383815e-003,9.280166e-005
1.314127e-003,1.117633e-004
1.238928e-003,1.373696e-004
1.134882e-003,1.618415e-004
9.859441e-004,1.743205e-004
7.725038e-004,1.688103e-004
4.798137e-004,1.496866e-004
1.023635e-004,1.250527e-004
-3.472056e-004,1.085220e-004
-8.251361e-004,1.046324e-004
-1.240834e-003,1.104668e-004
-1.491063e-003,1.172735e-004
-1.512293e-003,1.187321e-004
-1.305012e-003,1.101426e-004
-9.429576e-004,9.426025e-005
-5.381185e-004,7.967437e-005
-1.744440e-004,7.059870e-005
1.081979e-004,6.249544e-005
3.057555e-004,5.001641e-005
4.211461e-004,2.992031e-005
4.480489e-004,4.962256e-006
3.649094e-004,-1.950961e-005
1.647587e-004,-4.365734e-005
-1.141557e-004,-6.780506e-005
-3.935563e-004,-9.357345e-005
-6.061860e-004,-1.220969e-004
-6.984011e-004,-1.442999e-004
-6.269303e-004,-1.477033e-004
-3.718396e-004,-1.279313e-004
5.828174e-005,-9.195280e-005
6.125453e-004,-4.625038e-005
1.183016e-003,9.106226e-007
1.628210e-003,4.223728e-005
1.802431e-003,7.108490e-005
1.593528e-003,8.567078e-005
1.003609e-003,8.939829e-005
1.898788e-004,8.421220e-005
-6.173684e-004,7.189524e-005
-1.222682e-003,5.601283e-005
-1.515858e-003,4.320967e-005
-1.484256e-003,3.494434e-005
-1.204045e-003,3.056858e-005
-8.094158e-004,2.813760e-005
-4.369898e-004,2.667901e-005
-1.666649e-004,2.651694e-005
-2.712668e-005,2.748933e-005
-5.419158e-005,2.846173e-005
-2.922655e-004,2.522042e-005
-7.390795e-004,1.582063e-005
-1.305336e-003,-2.330684e-006
-1.860734e-003,-2.728874e-005
-2.265249e-003,-4.835723e-005
-2.413215e-003,-5.451571e-005
-2.261359e-003,-4.090223e-005
-1.832858e-003,-9.785687e-006
-1.205017e-003,2.603075e-005
-4.946851e-004,5.147500e-005
1.608691e-004,6.281957e-005
6.472273e-004,6.525056e-005
9.049113e-004,6.573675e-005
9.323005e-004,7.059870e-005
7.726659e-004,7.691926e-005
5.062303e-004,7.951231e-005
2.289365e-004,7.286762e-005
1.144487e-005,5.714729e-005
-1.099420e-004,3.624086e-005
-1.208004e-004,1.792748e-005
-2.006553e-006,7.717366e-006
2.820940e-004,8.365628e-006
7.629420e-004,1.582063e-005
1.420604e-003,2.538249e-005
2.158327e-003,3.008238e-005
2.825068e-003,2.700314e-005
3.264754e-003,1.987226e-005
3.367828e-003,1.176900e-005
3.085346e-003,4.151929e-006
2.454584e-003,-3.141010e-006
1.581049e-003,-7.840905e-006
5.965008e-004,-5.085794e-006
-3.634122e-004,4.313994e-006
-1.184273e-003,1.403791e-005
-1.830752e-003,1.808955e-005
-2.324889e-003,2.084466e-005
-2.715953e-003,2.570661e-005
-3.052077e-003,3.251336e-005
-3.336179e-003,4.158902e-005
-3.502783e-003,5.309565e-005
-3.456594e-003,6.654707e-005
-3.137648e-003,7.902610e-005
-2.543516e-003,8.648111e-005
-1.735133e-003,8.777764e-005
-8.317808e-004,8.161915e-005
-3.789271e-006,7.092283e-005
5.867769e-004,6.071273e-005
8.838428e-004,5.617490e-005
9.711962e-004,5.844381e-005
9.898336e-004,6.379197e-005
1.040074e-003,6.638501e-005
1.142661e-003,6.152305e-005
1.248004e-003,4.823369e-005
1.291762e-003,3.267542e-005
1.232446e-003,2.619281e-005
1.052067e-003,3.348575e-005
7.611593e-004,5.050261e-005
4.031568e-004,6.930219e-005
5.957827e-005,7.837785e-005
-1.705545e-004,7.286762e-005
-2.224154e-004,5.536457e-005
-1.261486e-004,3.510640e-005
8.527692e-006,2.116879e-005
5.260946e-005,1.484824e-005
-6.018800e-005,1.371378e-005
-2.961551e-004,1.436204e-005
-5.522182e-004,1.128280e-005
-7.372968e-004,7.485573e-007
-8.176811e-004,-1.189254e-005
-8.066607e-004,-2.258885e-005
-7.264384e-004,-3.263690e-005
-5.997033e-004,-4.641245e-005
-4.473620e-004,-6.650855e-005
-2.880518e-004,-8.838737e-005
-1.302002e-004,-1.026491e-004
2.181705e-005,-1.023250e-004
1.637863e-004,-8.498399e-005
2.905214e-004,-4.997788e-005
