6.050903e-004,-6.549676e-004
6.645683e-004,-6.530228e-004
6.979537e-004,-6.314681e-004
6.694302e-004,-6.089411e-004
5.357263e-004,-5.966241e-004
2.670219e-004,-5.974344e-004
-1.159385e-004,-6.089411e-004
-5.117019e-004,-6.275786e-004
-7.885094e-004,-6.470264e-004
-8.651663e-004,-6.616123e-004
-7.452379e-004,-6.689052e-004
-4.927402e-004,-6.598295e-004
-1.820611e-004,-6.275786e-004
1.357490e-004,-5.773383e-004
4.263321e-004,-5.246671e-004
6.485238e-004,-4.789647e-004
7.533801e-004,-4.267797e-004
7.183740e-004,-3.481780e-004
5.631153e-004,-2.316531e-004
3.427064e-004,-8.514606e-005
1.227837e-004,6.362990e-005
-2.777494e-005,1.827479e-004
-3.020592e-005,2.506533e-004
1.419075e-004,2.670219e-004
4.042912e-004,2.482223e-004
6.258346e-004,2.132162e-004
7.152948e-004,1.694586e-004
6.420412e-004,1.116012e-004
4.475627e-004,2.878586e-005
2.125679e-004,-8.287714e-005
-6.706447e-006,-2.177155e-004
-2.177155e-004,-3.546606e-004
-4.663236e-004,-4.744269e-004
-7.899679e-004,-5.671282e-004
-1.167904e-003,-6.264441e-004
-1.524772e-003,-6.481609e-004
-1.758794e-003,-6.413541e-004
-1.790235e-003,-6.228787e-004
-1.600619e-003,-6.108859e-004
-1.246830e-003,-6.138030e-004
-8.319428e-004,-6.322784e-004
-4.525481e-004,-6.591813e-004
-1.622891e-004,-6.852738e-004
2.732727e-005,-7.029389e-004
1.389903e-004,-7.035872e-004
2.073818e-004,-6.862462e-004
2.618358e-004,-6.535090e-004
3.243930e-004,-6.094273e-004
4.080188e-004,-5.621042e-004
5.059062e-004,-5.258016e-004
5.990939e-004,-5.121881e-004
6.631097e-004,-5.317980e-004
6.723474e-004,-5.873864e-004
6.151383e-004,-6.740913e-004
5.041235e-004,-7.800820e-004
3.752816e-004,-8.787797e-004
2.701011e-004,-9.340440e-004
2.187264e-004,-9.134617e-004
2.266676e-004,-7.953162e-004
2.705873e-004,-5.789590e-004
3.132105e-004,-2.746004e-004
3.245551e-004,8.988448e-005
2.991108e-004,4.639313e-004
2.634565e-004,7.927620e-004
2.396328e-004,1.036184e-003
2.222919e-004,1.173778e-003
1.754550e-004,1.212350e-003
6.978838e-005,1.178802e-003
-8.984595e-005,1.114786e-003
-2.671454e-004,1.059684e-003
-4.019837e-004,1.042991e-003
-4.316416e-004,1.066815e-003
-3.280819e-004,1.111545e-003
-1.109144e-004,1.144282e-003
1.644345e-004,1.132451e-003
4.292493e-004,1.059036e-003
6.297242e-004,9.230627e-004
7.368495e-004,7.494906e-004
7.470596e-004,5.708945e-004
6.785059e-004,4.159599e-004
5.660325e-004,2.995970e-004
4.414042e-004,2.205091e-004
3.159656e-004,1.644345e-004
1.850168e-004,1.261871e-004
4.369587e-005,1.104668e-004
-1.005423e-004,1.208390e-004
-2.198223e-004,1.508210e-004
-2.771934e-004,1.808031e-004
-2.554767e-004,1.936063e-004
-1.677994e-004,1.856651e-004
-4.592625e-005,1.673517e-004
7.173317e-005,1.493625e-004
1.550348e-004,1.399627e-004
1.984682e-004,1.362352e-004
2.226160e-004,1.282940e-004
2.783665e-004,1.085220e-004
4.125566e-004,8.242948e-005
6.404205e-004,5.909207e-005
9.446174e-004,4.742337e-005
1.275069e-003,4.612685e-005
1.553012e-003,4.985435e-005
1.694981e-003,5.406805e-005
1.647010e-003,5.520250e-005
1.413959e-003,5.115087e-005
1.060494e-003,4.288554e-005
6.736440e-004,3.283749e-005
3.214759e-004,2.181705e-005
2.100672e-005,1.160693e-005
-2.689281e-004,5.448451e-006
-6.335750e-004,5.864920e-007
-1.151050e-003,-1.934754e-005
-1.819245e-003,-7.266703e-005
-2.518557e-003,-1.603444e-004
-3.078008e-003,-2.642282e-004
-3.367944e-003,-3.564433e-004
-3.366485e-003,-4.128421e-004
-3.141538e-003,-4.290486e-004
-2.788073e-003,-4.170558e-004
-2.370592e-003,-3.924218e-004
-1.908705e-003,-3.685983e-004
-1.402089e-003,-3.574157e-004
-8.431254e-004,-3.645466e-004
-2.156086e-004,-3.859392e-004
4.734932e-004,-4.168937e-004
1.154492e-003,-4.509274e-004
1.719939e-003,-4.817198e-004
2.069515e-003,-5.094330e-004
2.145200e-003,-5.298532e-004
1.941159e-003,-5.373082e-004
1.494992e-003,-5.233706e-004
8.836808e-004,-4.864197e-004
2.394708e-004,-4.269418e-004
-3.092824e-004,-3.478539e-004
-6.852738e-004,-2.506147e-004
-8.688938e-004,-1.300381e-004
-8.768350e-004,2.392390e-005
-7.334072e-004,2.164575e-004
-4.792888e-004,4.415663e-004
-1.797922e-004,6.773715e-004
8.518459e-005,8.887048e-004
2.569738e-004,1.028405e-003
3.148312e-004,1.050770e-003
2.833905e-004,9.433209e-004
2.300710e-004,7.358771e-004
2.474120e-004,4.875929e-004
3.955397e-004,2.563256e-004
6.695923e-004,8.194328e-005
1.002151e-003,-2.485776e-005
1.302782e-003,-7.169464e-005
1.494830e-003,-7.056018e-005
1.547177e-003,-3.636440e-005
1.471979e-003,1.419998e-005
1.318503e-003,6.638501e-005
1.151413e-003,1.010670e-004
1.025002e-003,1.013911e-004
9.750857e-004,6.395403e-005
1.005068e-003,4.244267e-007
1.088370e-003,-7.234290e-005
1.181881e-003,-1.353863e-004
1.226773e-003,-1.784957e-004
1.148496e-003,-1.995642e-004
9.003735e-004,-2.032917e-004
4.866205e-004,-2.019951e-004
-3.441962e-005,-2.066950e-004
-5.253154e-004,-2.193361e-004
-8.238396e-004,-2.348944e-004
-8.364808e-004,-2.455907e-004
-5.732867e-004,-2.446183e-004
-1.554824e-004,-2.298704e-004
2.417397e-004,-2.070192e-004
4.590693e-004,-1.815749e-004
4.245494e-004,-1.575892e-004
1.738343e-004,-1.391138e-004
-1.791439e-004,-1.337657e-004
-5.068399e-004,-1.420310e-004
-7.105560e-004,-1.600202e-004
-7.473448e-004,-1.859507e-004
-6.351956e-004,-2.229016e-004
-4.245108e-004,-2.793003e-004
-1.494860e-004,-3.666535e-004
1.918236e-004,-4.835025e-004
5.974732e-004,-6.180167e-004
9.810821e-004,-7.539894e-004
1.171995e-003,-8.659766e-004
1.013981e-003,-9.275614e-004
4.668485e-004,-9.199444e-004
-3.400748e-004,-8.321049e-004
-1.176818e-003,-6.642053e-004
-1.826700e-003,-4.181902e-004
-2.149372e-003,-8.709084e-005
-2.100753e-003,3.389789e-004
-1.728326e-003,8.371680e-004
-1.170821e-003,1.334547e-003
-6.167202e-004,1.729339e-003
-2.169051e-004,1.925277e-003
-2.955766e-005,1.858343e-003
-2.453363e-005,1.534050e-003
-1.125351e-004,1.025164e-003
-1.900023e-004,4.477248e-004
-1.776853e-004,-8.709084e-005
-2.809907e-005,-5.001953e-004
2.616738e-004,-7.588515e-004
6.538720e-004,-8.510666e-004
1.082049e-003,-7.630652e-004
1.490454e-003,-4.734545e-004
1.832737e-003,3.397195e-005
2.049905e-003,7.379840e-004
2.043747e-003,1.541505e-003
1.712646e-003,2.274205e-003
1.000044e-003,2.752300e-003
-7.704279e-005,2.870932e-003
-1.393175e-003,2.646147e-003
-2.734915e-003,2.203058e-003
-3.870349e-003,1.700329e-003
-4.610020e-003,1.252542e-003
-4.884399e-003,9.041010e-004
-4.735946e-003,6.302104e-004
-4.273084e-003,3.623164e-004
-3.615905e-003,4.061663e-005
-2.832965e-003,-3.515814e-004
-1.931556e-003,-7.907783e-004
-9.223753e-004,-1.228030e-003
1.266733e-004,-1.614394e-003
1.072001e-003,-1.920698e-003
1.764670e-003,-2.144834e-003
2.135962e-003,-2.289883e-003
2.227854e-003,-2.352602e-003
2.165782e-003,-2.315975e-003
2.108573e-003,-2.154558e-003
2.131911e-003,-1.842258e-003
2.152817e-003,-1.366596e-003
2.003230e-003,-7.311383e-004
1.535022e-003,1.760335e-005
7.071915e-004,7.666695e-004
-3.603329e-004,1.370850e-003
-1.422671e-003,1.726422e-003
-2.246125e-003,1.804538e-003
-2.671061e-003,1.665971e-003
-2.633948e-003,1.422063e-003
-2.179516e-003,1.175075e-003
-1.437095e-003,9.724927e-004
-5.661558e-004,8.063756e-004
2.558394e-004,6.434998e-004
8.499712e-004,4.662002e-004
1.111545e-003,2.968419e-004
1.057901e-003,1.689724e-004
8.175580e-004,9.328785e-005
5.569568e-004,4.936815e-005
4.016982e-004,8.365628e-006
4.036430e-004,-5.354332e-005
5.388056e-004,-1.396000e-004
7.434941e-004,-2.428356e-004
9.451036e-004,-3.475298e-004
1.095825e-003,-4.392587e-004
1.182692e-003,-4.976022e-004
1.223532e-003,-5.081365e-004
1.247680e-003,-4.802612e-004
1.266642e-003,-4.392587e-004
1.263724e-003,-3.987424e-004
1.214132e-003,-3.514193e-004
1.109114e-003,-2.786520e-004
9.664962e-004,-1.710407e-004
8.172339e-004,-3.863331e-005
6.879057e-004,9.344992e-005
5.906665e-004,2.106232e-004
5.206542e-004,3.059176e-004
4.650658e-004,3.749574e-004
4.104497e-004,4.208219e-004
3.470822e-004,4.362181e-004
2.654012e-004,4.068843e-004
1.598967e-004,3.252033e-004
4.839576e-005,2.020337e-004
-1.918548e-005,5.974033e-005
-2.330684e-006,-8.465986e-005
1.036600e-004,-2.259808e-004
2.629703e-004,-3.661673e-004
4.268184e-004,-5.018159e-004
5.695979e-004,-6.272544e-004
6.875816e-004,-7.338934e-004
7.901690e-004,-8.154122e-004
8.733086e-004,-8.688938e-004
9.253316e-004,-8.969310e-004
9.465622e-004,-9.047101e-004
9.515862e-004,-8.992000e-004
9.339211e-004,-8.855865e-004
8.750913e-004,-8.594940e-004
7.794727e-004,-8.102261e-004
6.872574e-004,-7.293556e-004
6.353965e-004,-6.209339e-004
6.162728e-004,-4.993849e-004
5.707324e-004,-3.776739e-004
4.354078e-004,-2.663351e-004
1.730240e-004,-1.682856e-004
-2.018331e-004,-8.222889e-005
-6.061860e-004,-5.896120e-006
-9.586780e-004,5.585077e-005
-1.248289e-003,9.361198e-005
-1.511969e-003,9.993253e-005
-1.788452e-003,7.124698e-005
-2.086491e-003,1.436204e-005
-2.357788e-003,-5.565017e-005
-2.517099e-003,-1.154523e-004
-2.483389e-003,-1.425172e-004
-2.207878e-003,-1.384655e-004
-1.688458e-003,-1.258244e-004
-9.755327e-004,-1.308485e-004
-1.692580e-004,-1.642339e-004
5.976353e-004,-2.191741e-004
1.211539e-003,-2.791382e-004
1.625293e-003,-3.277578e-004
1.840678e-003,-3.588744e-004
1.891567e-003,-3.731361e-004
1.826741e-003,-3.658432e-004
1.689147e-003,-3.331059e-004
1.508120e-003,-2.728177e-004
1.306996e-003,-1.925954e-004
1.104414e-003,-1.015147e-004
9.196593e-004,-6.706447e-006
7.631041e-004,8.275361e-005
6.234036e-004,1.618415e-004
4.709001e-004,2.252090e-004
2.854973e-004,2.746390e-004
7.821578e-005,3.130485e-004
-1.167488e-004,3.397892e-004
-2.674695e-004,3.615060e-004
-3.645466e-004,3.796573e-004
-4.146248e-004,3.843572e-004
-4.390966e-004,3.637749e-004
-4.541687e-004,3.190449e-004
-4.664857e-004,2.790147e-004
-4.711856e-004,2.838767e-004
-4.612996e-004,3.475684e-004
-4.308313e-004,4.457800e-004
-3.886943e-004,5.350781e-004
-3.548227e-004,5.721910e-004
-3.395886e-004,5.379952e-004
-3.332680e-004,4.444834e-004
-3.271095e-004,3.295791e-004
-3.220855e-004,2.320158e-004
-3.206269e-004,1.757791e-004
-3.211131e-004,1.671896e-004
-3.214373e-004,2.093266e-004
-3.173856e-004,2.966798e-004
-2.921034e-004,4.021844e-004
-2.233878e-004,4.911583e-004
-1.010285e-004,5.302160e-004
7.853991e-005,5.042856e-004
3.226103e-004,4.216323e-004
6.545202e-004,3.046211e-004
1.089180e-003,1.752929e-004
1.560467e-003,4.920609e-005
1.915877e-003,-6.780506e-005
1.977948e-003,-1.780095e-004
1.642958e-003,-2.961551e-004
9.413761e-004,-4.446069e-004
1.095867e-005,-6.332508e-004
-9.551125e-004,-8.484736e-004
-1.786183e-003,-1.054945e-003
-2.360706e-003,-1.208420e-003
-2.623738e-003,-1.273247e-003
-2.601211e-003,-1.234675e-003
-2.385988e-003,-1.111506e-003
-2.089246e-003,-9.398783e-004
-1.777270e-003,-7.549619e-004
-1.459784e-003,-5.734488e-004
-1.126091e-003,-3.841565e-004
-7.740856e-004,-1.549962e-004
-4.233763e-004,1.477418e-004
-1.099420e-004,5.394538e-004
1.310491e-004,9.966404e-004
2.854973e-004,1.473275e-003
3.675024e-004,1.926087e-003
3.892192e-004,2.322824e-003
3.428685e-004,2.650036e-003
2.180782e-004,2.908208e-003
1.825161e-005,3.076108e-003
-2.259808e-004,3.102849e-003
-4.611375e-004,2.931059e-003
-6.353577e-004,2.555551e-003
-7.282211e-004,2.048447e-003
-7.483172e-004,1.518167e-003
-7.066664e-004,1.050770e-003
-6.225546e-004,6.804507e-004
-5.219121e-004,3.971604e-004
-4.373140e-004,1.759412e-004
-4.061974e-004,-4.923729e-006
-4.619479e-004,-1.488377e-004
-6.178546e-004,-2.515871e-004
-8.510666e-004,-3.050687e-004
-1.086385e-003,-3.057169e-004
-1.222358e-003,-2.697384e-004
-1.182976e-003,-2.342461e-004
-9.658088e-004,-2.412149e-004
-6.436231e-004,-3.214373e-004
-3.238682e-004,-4.736166e-004
-8.093235e-005,-6.596675e-004
7.578480e-005,-8.184914e-004
1.733481e-004,-8.901243e-004
2.493568e-004,-8.426392e-004
3.368721e-004,-6.993735e-004
4.650658e-004,-5.266119e-004
6.601926e-004,-3.992286e-004
9.473725e-004,-3.647087e-004
1.304403e-003,-4.371519e-004
1.629183e-003,-5.854416e-004
1.769856e-003,-7.504240e-004
1.601631e-003,-8.794280e-004
1.106035e-003,-9.405266e-004
4.052637e-004,-9.058446e-004
-2.556388e-004,-7.632272e-004
-6.018102e-004,-5.292050e-004
-4.734545e-004,-2.611490e-004
9.409818e-005,-3.798505e-005
8.846531e-004,7.886404e-005
1.622538e-003,6.849186e-005
2.115380e-003,-4.122636e-005
2.296894e-003,-1.935677e-004
2.219102e-003,-3.369955e-004
2.015548e-003,-4.452551e-004
1.815720e-003,-5.164018e-004
1.673102e-003,-5.548113e-004
1.559332e-003,-5.627525e-004
1.416066e-003,-5.410357e-004
1.190309e-003,-4.875541e-004
8.459195e-004,-3.945287e-004
3.624784e-004,-2.501285e-004
-2.771934e-004,-3.895744e-005
-1.067262e-003,2.446569e-004
-1.917294e-003,5.952043e-004
-2.647724e-003,9.783270e-004
-3.043326e-003,1.322230e-003
-2.940252e-003,1.536967e-003
-2.302686e-003,1.564194e-003
-1.249261e-003,1.400022e-003
-1.513384e-005,1.092745e-003
1.109114e-003,7.261531e-004
1.893350e-003,3.799814e-004
2.243088e-003,1.080358e-004
2.188796e-003,-7.995997e-005
1.855102e-003,-1.987538e-004
1.387218e-003,-2.713591e-004
8.870841e-004,-3.160891e-004
4.013741e-004,-3.481780e-004
-4.252288e-005,-3.784843e-004
-4.108973e-004,-4.204591e-004
-6.828429e-004,-4.893369e-004
-8.648421e-004,-5.954896e-004
-9.867153e-004,-7.347037e-004
-1.082172e-003,-8.870451e-004
-1.154291e-003,-1.032255e-003
-1.180059e-003,-1.151050e-003
-1.140839e-003,-1.226896e-003
-1.026907e-003,-1.249261e-003
-8.233534e-004,-1.223817e-003
-5.232086e-004,-1.169363e-003
-1.371690e-004,-1.106968e-003
3.164518e-004,-1.045059e-003
8.293889e-004,-9.727776e-004
1.413959e-003,-8.701903e-004
2.027540e-003,-7.253040e-004
2.549231e-003,-5.446011e-004
2.832847e-003,-3.483401e-004
2.769641e-003,-1.569410e-004
2.337573e-003,1.744128e-005
1.622376e-003,1.631380e-004
7.780141e-004,2.819319e-004
-2.826113e-005,3.825745e-004
-6.509160e-004,4.683071e-004
-1.005029e-003,5.289195e-004
-1.074717e-003,5.397779e-004
-9.082756e-004,4.861343e-004
-5.812279e-004,3.835469e-004
-1.583996e-004,2.723700e-004
2.939247e-004,1.929580e-004
7.018433e-004,1.652449e-004
9.979369e-004,1.853410e-004
1.140068e-003,2.380122e-004
1.110735e-003,3.012177e-004
9.028045e-004,3.582647e-004
5.371849e-004,3.986190e-004
8.340186e-005,4.166082e-004
-3.788084e-004,4.217943e-004
-7.757063e-004,4.274666e-004
-1.042790e-003,4.378388e-004
-1.131277e-003,4.499937e-004
-1.030149e-003,4.598797e-004
-7.646858e-004,4.608521e-004
-3.673017e-004,4.399456e-004
9.020861e-005,3.845193e-004
4.728449e-004,2.790147e-004
6.488480e-004,1.171115e-004
5.572810e-004,-8.514606e-005
2.370398e-004,-2.966413e-004
-1.865989e-004,-4.940368e-004
-5.501113e-004,-6.716603e-004
-7.259522e-004,-8.217327e-004
-7.137973e-004,-9.145962e-004
-6.518884e-004,-9.090859e-004
-7.118525e-004,-7.880232e-004
-9.706708e-004,-5.841451e-004
-1.364976e-003,-3.705430e-004
-1.769653e-003,-2.212809e-004
-2.080494e-003,-1.692580e-004
-2.231864e-003,-1.942160e-004
-2.200909e-003,-2.494803e-004
-1.987955e-003,-2.930758e-004
-1.615205e-003,-3.052307e-004
-1.154453e-003,-2.883759e-004
-7.261143e-004,-2.498044e-004
-4.471999e-004,-1.898402e-004
-3.768636e-004,-8.838737e-005
-4.723200e-004,9.458438e-005
-6.186650e-004,3.966742e-004
-7.026148e-004,8.345749e-004
-6.671225e-004,1.371822e-003
-5.253154e-004,1.899670e-003
-3.476918e-004,2.266426e-003
-2.031296e-004,2.359613e-003
-1.178833e-004,2.160434e-003
-5.548810e-005,1.753973e-003
4.790957e-005,1.268100e-003
2.368777e-004,8.225821e-004
4.895377e-004,4.911583e-004
7.292324e-004,2.919800e-004
8.571020e-004,1.934442e-004
8.021619e-004,1.423936e-004
5.554982e-004,9.393611e-005
1.979821e-004,3.089270e-005
-1.280934e-004,-4.025397e-005
-2.880518e-004,-1.054042e-004
-2.269532e-004,-1.541859e-004
2.133085e-005,-1.823852e-004
3.743092e-004,-1.938919e-004
7.459251e-004,-1.974573e-004
1.069246e-003,-1.998883e-004
1.311372e-003,-2.063709e-004
1.467279e-003,-2.240360e-004
1.544422e-003,-2.553146e-004
1.548960e-003,-3.037722e-004
1.489482e-003,-3.682741e-004
1.383653e-003,-4.368277e-004
1.250759e-003,-4.919299e-004
1.117055e-003,-5.185086e-004
1.008471e-003,-5.151053e-004
9.415381e-004,-4.872300e-004
9.165801e-004,-4.454172e-004
9.191731e-004,-4.002010e-004
9.214421e-004,-3.598467e-004
8.951874e-004,-3.284061e-004
8.251751e-004,-3.019894e-004
7.229118e-004,-2.752486e-004
6.141660e-004,-2.454286e-004
5.097958e-004,-2.143121e-004
4.016982e-004,-1.835197e-004
2.769079e-004,-1.582375e-004
1.255388e-004,-1.387897e-004
-5.095028e-005,-1.293899e-004
-2.491561e-004,-1.345760e-004
-4.593548e-004,-1.522411e-004
-6.408680e-004,-1.697441e-004
-7.416725e-004,-1.729855e-004
-7.167145e-004,-1.449481e-004
-5.697213e-004,-7.120844e-005
-3.562813e-004,5.277152e-005
-1.562927e-004,2.171058e-004
-1.448558e-005,4.012120e-004
8.858796e-005,5.755944e-004
2.057612e-004,7.050846e-004
3.747953e-004,7.631041e-004
6.047661e-004,7.383081e-004
8.924323e-004,6.433377e-004
1.236822e-003,5.133613e-004
1.614110e-003,3.825745e-004
1.944725e-003,2.689667e-004
2.102739e-003,1.801549e-004
1.953476e-003,1.260251e-004
1.427087e-003,1.141943e-004
5.773771e-004,1.410971e-004
-4.019837e-004,1.825858e-004
-1.264171e-003,2.008992e-004
-1.871268e-003,1.707551e-004
-2.234943e-003,9.409818e-005
-2.484686e-003,-8.327101e-006
-2.769759e-003,-1.076731e-004
-3.131490e-003,-1.823852e-004
-3.485118e-003,-2.241981e-004
-3.700342e-003,-2.335979e-004
-3.678787e-003,-2.232257e-004
-3.372320e-003,-2.130156e-004
-2.794069e-003,-2.203085e-004
-2.021340e-003,-2.470493e-004
-1.169849e-003,-2.848105e-004
-3.711913e-004,-3.297026e-004
2.592428e-004,-3.804290e-004
6.584098e-004,-4.353692e-004
8.284165e-004,-4.946851e-004
8.212855e-004,-5.565939e-004
7.010330e-004,-6.042412e-004
5.308643e-004,-6.056998e-004
3.595612e-004,-5.403875e-004
2.252090e-004,-4.279141e-004
1.556830e-004,-3.178718e-004
1.678379e-004,-2.660109e-004
2.527601e-004,-3.060411e-004
3.743092e-004,-4.308313e-004
4.871067e-004,-5.935449e-004
5.747841e-004,-7.321107e-004
6.634339e-004,-7.980713e-004
7.830382e-004,-7.750580e-004
9.368383e-004,-6.742533e-004
1.104414e-003,-5.188328e-004
1.249787e-003,-3.222476e-004
1.326282e-003,-9.114247e-005
1.284469e-003,1.569795e-004
1.079456e-003,3.924605e-004
7.183740e-004,5.840217e-004
2.936006e-004,7.070294e-004
-6.132245e-005,7.585663e-004
-2.486699e-004,7.584042e-004
-2.442942e-004,7.553250e-004
-8.644258e-005,8.131823e-004
1.522796e-004,9.684410e-004
3.840331e-004,1.203760e-003
5.264885e-004,1.468251e-003
5.190336e-004,1.700978e-003
3.592371e-004,1.837761e-003
1.323456e-004,1.833547e-003
-2.550602e-005,1.681530e-003
-1.254080e-005,1.426925e-003
2.043026e-004,1.137151e-003
5.710566e-004,8.627743e-004
9.519104e-004,6.162728e-004
1.191605e-003,3.884088e-004
1.173616e-003,1.694586e-004
8.796291e-004,-4.009190e-005
4.441593e-004,-2.279256e-004
6.184718e-005,-3.875599e-004
-1.340898e-004,-5.256395e-004
-1.044318e-004,-6.504298e-004
1.060910e-004,-7.591756e-004
4.008879e-004,-8.319428e-004
6.851506e-004,-8.432874e-004
9.019942e-004,-7.849439e-004
1.022409e-003,-6.744154e-004
1.019816e-003,-5.538389e-004
8.551573e-004,-4.739407e-004
4.906721e-004,-4.724821e-004
-6.488790e-005,-5.486528e-004
-6.972667e-004,-6.596675e-004
-1.236134e-003,-7.520447e-004
-1.578254e-003,-7.857542e-004
-1.749070e-003,-7.434553e-004
-1.839341e-003,-6.241752e-004
-1.915350e-003,-4.246728e-004
-1.993951e-003,-1.230693e-004
-2.050026e-003,2.694529e-004
-2.023285e-003,6.776956e-004
-1.852630e-003,9.937233e-004
-1.504190e-003,1.137151e-003
-9.917392e-004,1.098904e-003
-3.807532e-004,9.306798e-004
2.255332e-004,7.148086e-004
7.081639e-004,5.250300e-004
9.570965e-004,3.994293e-004
9.049113e-004,3.444891e-004
5.684635e-004,3.425443e-004
5.196120e-005,3.637749e-004
-4.771820e-004,3.827366e-004
-8.530114e-004,3.814400e-004
-9.742362e-004,3.598853e-004
-8.538217e-004,3.192069e-004
-6.267682e-004,2.477361e-004
-4.648650e-004,1.326697e-004
-4.750752e-004,-2.955766e-005
-6.471885e-004,-2.282497e-004
-8.795901e-004,-4.426621e-004
-1.049921e-003,-6.452437e-004
-1.070665e-003,-8.136295e-004
-8.961207e-004,-9.402025e-004
-5.138087e-004,-1.027394e-003
5.633696e-005,-1.086223e-003
7.511112e-004,-1.120581e-003
1.471817e-003,-1.117502e-003
2.123970e-003,-1.059969e-003
2.624754e-003,-9.325854e-004
2.908856e-003,-7.146076e-004
2.945159e-003,-3.917736e-004
2.758458e-003,1.112074e-005
2.417147e-003,4.174185e-004
2.003230e-003,7.345806e-004
1.582508e-003,8.994011e-004
1.197764e-003,8.909737e-004
8.789808e-004,7.387943e-004
6.329655e-004,5.075269e-004
4.461041e-004,2.726942e-004
2.926282e-004,8.583285e-005
1.383420e-004,-3.182657e-005
-2.501983e-005,-8.303921e-005
-1.637477e-004,-7.833932e-005
-2.211188e-004,-3.101624e-005
-1.373311e-004,4.466826e-005
1.344524e-004,1.292664e-004
6.055764e-004,2.015475e-004
1.238928e-003,2.535705e-004
1.907288e-003,2.858215e-004
2.401589e-003,3.004074e-004
2.494290e-003,3.059176e-004
2.040344e-003,3.109416e-004
1.082535e-003,3.055935e-004
-1.585616e-004,2.712356e-004
-1.376968e-003,2.021958e-004
-2.370267e-003,1.111150e-004
-3.090487e-003,1.776542e-005
-3.590137e-003,-5.111234e-005
-3.952516e-003,-6.829127e-005
-4.211823e-003,-2.550602e-005
-4.333696e-003,5.423011e-005
-4.252501e-003,1.302387e-004
-3.917186e-003,1.628139e-004
-3.314624e-003,1.352628e-004
-2.478689e-003,6.200925e-005
-1.490738e-003,-2.534396e-005
-4.612996e-004,-1.044318e-004
4.825688e-004,-1.757406e-004
1.230663e-003,-2.476975e-004
1.745060e-003,-3.355369e-004
2.056874e-003,-4.577342e-004
2.222344e-003,-6.319543e-004
2.275825e-003,-8.562527e-004
2.226557e-003,-1.106481e-003
2.079888e-003,-1.348283e-003
1.861747e-003,-1.549568e-003
1.612004e-003,-1.694617e-003
1.371012e-003,-1.790397e-003
1.163406e-003,-1.844041e-003
9.943715e-004,-1.850685e-003
8.473782e-004,-1.796070e-003
7.050846e-004,-1.676789e-003
5.569568e-004,-1.494790e-003
3.929467e-004,-1.244723e-003
2.017096e-004,-9.069791e-004
-1.237873e-005,-4.687546e-004
-2.314910e-004,3.737532e-005
-4.345588e-004,5.375090e-004
-5.715040e-004,9.564482e-004
-5.669662e-004,1.242656e-003
-3.389403e-004,1.383167e-003
1.756170e-004,1.403749e-003
9.647135e-004,1.349619e-003
1.886867e-003,1.266156e-003
2.681153e-003,1.183340e-003
3.040940e-003,1.104090e-003
2.735445e-003,1.019492e-003
1.743601e-003,9.358659e-004
2.911697e-004,8.669881e-004
-1.224303e-003,8.136685e-004
-2.424397e-003,7.595387e-004
-3.111070e-003,6.804507e-004
-3.225650e-003,5.512845e-004
-2.849982e-003,3.650714e-004
-2.152613e-003,1.432040e-004
-1.289453e-003,-4.689864e-005
-3.318094e-004,-1.016767e-004
6.930918e-004,8.891209e-005
1.679909e-003,6.052523e-004
2.439998e-003,1.435514e-003
2.756676e-003,2.413906e-003
2.461067e-003,3.277071e-003
1.552363e-003,3.786447e-003
2.895490e-004,3.818536e-003
-8.881795e-004,3.396514e-003
-1.631735e-003,2.671429e-003
-1.859437e-003,1.857533e-003
-1.700775e-003,1.136827e-003
-1.398199e-003,6.114109e-004
-1.186542e-003,2.944109e-004
-1.198372e-003,1.360731e-004
-1.433853e-003,6.832980e-005
-1.780511e-003,2.603075e-005
-2.063477e-003,-3.685059e-005
-2.119228e-003,-1.425172e-004
-1.848903e-003,-2.929138e-004
-1.273085e-003,-4.802612e-004
-5.475183e-004,-6.878669e-004
1.137081e-004,-8.977414e-004
5.490156e-004,-1.089789e-003
7.193464e-004,-1.246020e-003
6.945504e-004,-1.348607e-003
5.848320e-004,-1.374213e-003
4.814344e-004,-1.317166e-003
4.363802e-004,-1.205017e-003
4.736553e-004,-1.093354e-003
5.982835e-004,-1.039224e-003
8.005412e-004,-1.068396e-003
1.064708e-003,-1.168228e-003
1.383977e-003,-1.297394e-003
1.754621e-003,-1.405006e-003
2.115380e-003,-1.457839e-003
2.302566e-003,-1.444550e-003
2.118784e-003,-1.367245e-003
1.479272e-003,-1.239861e-003
5.131992e-004,-1.075365e-003
-4.891748e-004,-8.909347e-004
-1.249099e-003,-7.048837e-004
-1.635787e-003,-5.334187e-004
-1.649886e-003,-3.750809e-004
-1.372917e-003,-2.219292e-004
-9.087618e-004,-6.197072e-005
-3.522297e-004,1.086841e-004
2.106232e-004,2.806354e-004
6.961710e-004,4.415663e-004
1.030836e-003,5.644119e-004
1.160327e-003,6.107626e-004
1.059036e-003,5.592257e-004
7.315013e-004,4.161220e-004
2.235884e-004,2.135403e-004
-3.812393e-004,-4.437533e-006
-1.001787e-003,-1.974573e-004
-1.589922e-003,-3.468815e-004
-2.103832e-003,-4.494688e-004
-2.483713e-003,-5.055434e-004
-2.651127e-003,-5.185086e-004
-2.539140e-003,-4.933885e-004
-2.102535e-003,-4.397449e-004
-1.370162e-003,-3.684362e-004
-4.765338e-004,-2.801106e-004
3.913260e-004,-1.639098e-004
1.077025e-003,-6.544382e-006
1.518330e-003,1.937684e-004
1.730798e-003,4.264942e-004
1.772125e-003,6.556546e-004
1.714105e-003,8.201511e-004
1.616055e-003,8.723362e-004
1.510064e-003,8.028101e-004
1.402615e-003,6.399344e-004
1.285441e-003,4.320044e-004
1.145417e-003,2.260194e-004
9.681169e-004,5.228533e-005
7.373357e-004,-8.563225e-005
4.360561e-004,-2.055606e-004
4.110282e-005,-3.316474e-004
-4.374760e-004,-4.728062e-004
-9.653226e-004,-6.275786e-004
-1.490414e-003,-7.917507e-004
-1.937066e-003,-9.564090e-004
-2.204961e-003,-1.109074e-003
-2.194102e-003,-1.228517e-003
-1.857330e-003,-1.294153e-003
-1.239699e-003,-1.295774e-003
-4.572480e-004,-1.231110e-003
3.454615e-004,-1.079579e-003
1.028567e-003,-8.071469e-004
1.486241e-003,-4.102490e-004
1.657382e-003,5.147500e-005
1.558036e-003,4.921307e-004
1.268100e-003,8.394369e-004
8.844911e-004,1.047529e-003
4.799758e-004,1.111383e-003
8.631904e-005,1.076053e-003
-2.640661e-004,1.019330e-003
-5.074882e-004,1.001016e-003
-5.693972e-004,1.043964e-003
-3.924218e-004,1.128238e-003
2.748933e-005,1.207002e-003
6.209727e-004,1.235039e-003
1.272476e-003,1.187716e-003
1.892377e-003,1.060980e-003
2.463336e-003,8.673122e-004
3.003341e-003,6.300483e-004
3.461665e-003,3.780367e-004
3.687748e-003,1.420695e-004
3.498454e-003,-5.419158e-005
2.771586e-003,-1.922712e-004
1.540371e-003,-2.705488e-004
4.476060e-006,-2.969654e-004
-1.502893e-003,-2.861070e-004
-2.697316e-003,-2.517492e-004
-3.442332e-003,-2.120432e-004
-3.702772e-003,-1.767129e-004
-3.535196e-003,-1.439758e-004
-3.057912e-003,-1.023250e-004
-2.415808e-003,-4.317114e-005
-1.740319e-003,4.207521e-005
-1.133222e-003,1.761032e-004
-6.585330e-004,4.010499e-004
-3.366714e-004,7.318255e-004
-1.546721e-004,1.111869e-003
-7.866345e-005,1.438755e-003
-6.748093e-005,1.624483e-003
-9.276313e-005,1.624645e-003
-1.352242e-004,1.455934e-003
-1.901644e-004,1.184312e-003
-2.478596e-004,8.849773e-004
-2.872415e-004,6.167590e-004
-2.843243e-004,4.094774e-004
-2.266291e-004,2.595669e-004
-1.225831e-004,1.456350e-004
-6.868512e-006,4.807163e-005
8.712937e-005,-4.608832e-005
1.441764e-004,-1.387897e-004
1.670276e-004,-2.256567e-004
1.639483e-004,-3.003688e-004
1.598967e-004,-3.553089e-004
2.039785e-004,-3.846427e-004
3.209897e-004,-3.882081e-004
4.976409e-004,-3.765395e-004
7.075156e-004,-3.616295e-004
9.332728e-004,-3.491504e-004
1.166971e-003,-3.421816e-004
1.399860e-003,-3.394265e-004
1.601145e-003,-3.449367e-004
1.712322e-003,-3.621157e-004
1.665161e-003,-3.903150e-004
1.404722e-003,-4.207833e-004
9.209558e-004,-4.497929e-004
2.660495e-004,-4.775061e-004
-4.554653e-004,-5.006815e-004
-1.140515e-003,-5.139708e-004
-1.723464e-003,-5.151053e-004
-2.170441e-003,-5.037607e-004
-2.446114e-003,-4.784785e-004
-2.487279e-003,-4.425000e-004
-2.227812e-003,-4.053871e-004
-1.629466e-003,-3.739464e-004
-7.248177e-004,-3.457470e-004
3.313618e-004,-3.175477e-004
1.260645e-003,-2.890242e-004
1.788169e-003,-2.674695e-004
1.741980e-003,-2.616351e-004
1.108141e-003,-2.741142e-004
5.536457e-005,-2.989102e-004
-1.107292e-003,-3.280819e-004
-2.064288e-003,-3.465574e-004
-2.610611e-003,-3.438023e-004
-2.671547e-003,-3.173856e-004
-2.300417e-003,-2.737901e-004
-1.663986e-003,-2.321393e-004
-9.789361e-004,-2.089639e-004
-4.319658e-004,-2.115570e-004
-1.002181e-004,-2.318151e-004
8.259154e-005,-2.468872e-004
2.756114e-004,-2.319772e-004
6.310208e-004,-1.731475e-004
1.201167e-003,-7.720485e-005
1.889946e-003,2.959618e-005
2.484567e-003,1.145184e-004
2.796220e-003,1.650828e-004
2.762996e-003,1.902029e-004
2.462525e-003,2.077060e-004
2.083291e-003,2.326641e-004
1.850888e-003,2.735045e-004
1.914743e-003,3.313618e-004
2.296084e-003,3.994293e-004
2.876767e-003,4.644175e-004
3.401700e-003,5.102821e-004
3.567495e-003,5.208162e-004
3.132994e-003,4.783551e-004
2.073891e-003,3.718782e-004
6.060626e-004,2.090025e-004
-9.158927e-004,1.679302e-005
-2.162824e-003,-1.608306e-004
-2.984982e-003,-2.825416e-004
-3.335369e-003,-3.246786e-004
-3.227433e-003,-2.890242e-004
-2.727784e-003,-1.929195e-004
-1.962349e-003,-6.245691e-005
-1.105509e-003,7.643306e-005
-3.429920e-004,2.094887e-004
1.735102e-004,3.397892e-004
3.796573e-004,4.846757e-004
3.005694e-004,6.332896e-004
2.505835e-005,7.400908e-004
-3.331059e-004,7.616455e-004
-6.771705e-004,6.862851e-004
-9.427955e-004,5.381573e-004
-1.111667e-003,3.623164e-004
-1.182328e-003,2.052750e-004
-1.145053e-003,9.636710e-005
-9.995184e-004,4.645098e-005
-7.818647e-004,5.779555e-005
-5.601594e-004,1.224596e-004
-3.929080e-004,2.135403e-004
-3.104168e-004,3.038107e-004
-3.254889e-004,3.733367e-004
-4.392587e-004,4.248735e-004
-6.306578e-004,4.665244e-004
-8.421530e-004,5.128751e-004
-1.000653e-003,5.788357e-004
-1.049272e-003,6.700785e-004
-9.651606e-004,7.734763e-004
-7.692236e-004,8.583986e-004
-5.112157e-004,8.851393e-004
-2.485079e-004,8.251751e-004
-2.826113e-005,6.786680e-004
1.266733e-004,4.759242e-004
2.182402e-004,2.650771e-004
2.764217e-004,8.242948e-005
3.482167e-004,-6.132245e-005
4.678209e-004,-1.707165e-004
6.391240e-004,-2.545043e-004
8.217717e-004,-3.162512e-004
9.648756e-004,-3.536882e-004
1.060170e-003,-3.642225e-004
1.147848e-003,-3.489884e-004
1.274421e-003,-3.157650e-004
1.448965e-003,-2.791382e-004
1.641338e-003,-2.577456e-004
1.797407e-003,-2.608248e-004
1.862233e-003,-2.888622e-004
1.789303e-003,-3.340783e-004
1.545719e-003,-3.919356e-004
1.108628e-003,-4.622720e-004
4.694415e-004,-5.572422e-004
-3.452609e-004,-6.834911e-004
-1.235323e-003,-8.424771e-004
-2.052457e-003,-1.034524e-003
-2.671223e-003,-1.256230e-003
-3.045271e-003,-1.497383e-003
-3.197613e-003,-1.743398e-003
-3.173141e-003,-1.976286e-003
-2.990817e-003,-2.175141e-003
-2.629735e-003,-2.313220e-003
-2.068501e-003,-2.359733e-003
-1.324135e-003,-2.290369e-003
-4.611375e-004,-2.093946e-003
4.274666e-004,-1.774029e-003
1.224667e-003,-1.350390e-003
1.823824e-003,-8.557665e-004
2.152979e-003,-3.371576e-004
2.202085e-003,1.607070e-004
2.034347e-003,5.948801e-004
1.763859e-003,9.348935e-004
1.494344e-003,1.181719e-003
1.289979e-003,1.363071e-003
1.184150e-003,1.523029e-003
1.201815e-003,1.703409e-003
1.355778e-003,1.937918e-003
1.601307e-003,2.227044e-003
1.826417e-003,2.518601e-003
1.888488e-003,2.723128e-003
1.679585e-003,2.754244e-003
1.189823e-003,2.560738e-003
5.261644e-004,2.154276e-003
-1.321450e-004,1.612652e-003
-6.141271e-004,1.043964e-003
-8.415048e-004,5.459364e-004
-8.426392e-004,1.811273e-004
-7.201179e-004,-2.372330e-005
-5.932207e-004,-6.667061e-005
-5.280705e-004,2.959618e-005
-4.919299e-004,2.081922e-004
-3.664914e-004,3.934329e-004
-7.769105e-005,5.203301e-004
2.819319e-004,5.550120e-004
5.355643e-004,5.075269e-004
5.571189e-004,4.075326e-004
3.190449e-004,2.825802e-004
-1.045939e-004,1.493625e-004
-5.893311e-004,4.313994e-006
-1.000329e-003,-1.681235e-004
-1.207286e-003,-3.861013e-004
-1.117502e-003,-6.539952e-004
-7.282211e-004,-9.534919e-004
-1.660166e-004,-1.248127e-003
3.519442e-004,-1.501110e-003
6.525755e-004,-1.688134e-003
6.937401e-004,-1.799473e-003
5.321608e-004,-1.838531e-003
2.584324e-004,-1.816814e-003
-4.479180e-005,-1.742588e-003
-3.144684e-004,-1.614718e-003
-5.095950e-004,-1.424616e-003
-6.001896e-004,-1.159801e-003
-5.758798e-004,-8.175191e-004
-4.596789e-004,-4.155972e-004
-2.982619e-004,7.879431e-006
-1.415448e-004,4.099635e-004
-2.809907e-005,7.506250e-004
3.380988e-005,1.004582e-003
5.536457e-005,1.177181e-003
5.374392e-005,1.276852e-003
3.559260e-005,1.298731e-003
9.106226e-007,1.234877e-003
-4.641245e-005,1.094204e-003
-9.373551e-005,9.130146e-004
-1.232314e-004,7.353909e-004
-1.318209e-004,5.869390e-004
-1.256624e-004,4.642555e-004
-1.225831e-004,3.420582e-004
-1.399241e-004,1.882581e-004
-1.815749e-004,-1.707863e-005
-2.292221e-004,-2.669833e-004
-2.548284e-004,-5.361738e-004
-2.366771e-004,-7.909404e-004
-1.541859e-004,-1.001625e-003
1.720949e-006,-1.143757e-003
2.127300e-004,-1.190593e-003
4.542074e-004,-1.120581e-003
7.225877e-004,-9.196202e-004
1.034888e-003,-5.962999e-004
1.397591e-003,-1.878955e-004
1.757377e-003,2.501671e-004
1.993506e-003,6.553305e-004
1.963038e-003,9.674686e-004
1.564032e-003,1.141203e-003
8.065376e-004,1.177992e-003
-1.549962e-004,1.150603e-003
-1.065803e-003,1.158058e-003
-1.708554e-003,1.250921e-003
-1.974341e-003,1.408611e-003
-1.848579e-003,1.560791e-003
-1.380048e-003,1.630317e-003
-6.710120e-004,1.576511e-003
1.203528e-004,1.405694e-003
8.204752e-004,1.149306e-003
1.334871e-003,8.468920e-004
1.630965e-003,5.409124e-004
1.670995e-003,2.660495e-004
1.404073e-003,4.077869e-005
8.049170e-004,-1.323070e-004
-5.111234e-005,-2.585559e-004
-9.662950e-004,-3.472056e-004
-1.732540e-003,-4.053871e-004
-2.198316e-003,-4.361795e-004
-2.296203e-003,-4.436345e-004
-2.055698e-003,-4.360174e-004
-1.599970e-003,-4.215936e-004
-1.113612e-003,-4.060353e-004
-7.489654e-004,-3.935563e-004
-5.467080e-004,-3.917736e-004
-4.486585e-004,-3.969597e-004
-3.690844e-004,-3.943666e-004
-2.527216e-004,-3.734602e-004
-8.887356e-005,-3.381300e-004
9.393611e-005,-3.065272e-004
2.585945e-004,-2.976136e-004
3.739850e-004,-3.173856e-004
4.277907e-004,-3.647087e-004
4.256839e-004,-4.390966e-004
3.874364e-004,-5.452494e-004
3.344411e-004,-6.773326e-004
2.837146e-004,-8.233534e-004
2.466016e-004,-9.648364e-004
2.376881e-004,-1.078930e-003
2.773941e-004,-1.141650e-003
3.843572e-004,-1.144729e-003
5.781874e-004,-1.086548e-003
8.465678e-004,-9.713190e-004
1.118190e-003,-8.081193e-004
1.284955e-003,-6.066721e-004
1.269721e-003,-3.776739e-004
1.062277e-003,-1.326312e-004
7.078398e-004,1.198666e-004
2.628082e-004,3.751195e-004
-2.204706e-004,6.243761e-004
-6.880289e-004,8.394369e-004
-1.084279e-003,9.898336e-004
-1.356548e-003,1.053687e-003
-1.455570e-003,1.024840e-003
-1.328511e-003,9.272764e-004
-9.714811e-004,7.958413e-004
-4.506033e-004,6.535478e-004
1.297525e-004,5.084993e-004
6.640821e-004,3.569682e-004
1.076863e-003,1.947408e-004
1.327416e-003,2.684107e-005
1.407153e-003,-1.316588e-004
1.326606e-003,-2.648765e-004
1.113328e-003,-3.650328e-004
8.264717e-004,-4.305072e-004
5.580913e-004,-4.661616e-004
3.939191e-004,-4.744269e-004
3.738230e-004,-4.608134e-004
4.571246e-004,-4.251590e-004
5.136854e-004,-3.651949e-004
3.804677e-004,-2.757348e-004
-3.685059e-005,-1.483515e-004
-6.893254e-004,1.987226e-005
-1.419592e-003,2.201850e-004
-2.072553e-003,4.331389e-004
-2.535736e-003,6.379896e-004
-2.729891e-003,8.089686e-004
-2.616121e-003,9.143112e-004
-2.212091e-003,9.272764e-004
-1.588626e-003,8.434885e-004
-8.641938e-004,6.872574e-004
-1.759026e-004,4.969927e-004
3.798194e-004,3.093210e-004
7.773659e-004,1.490383e-004
1.045584e-003,2.829966e-005
1.229042e-003,-5.662256e-005
1.347999e-003,-1.188556e-004
1.386894e-003,-1.731475e-004
1.310561e-003,-2.261429e-004
1.106521e-003,-2.734659e-004
7.932482e-004,-3.081479e-004
4.120704e-004,-3.297026e-004
2.100672e-005,-3.342404e-004
-3.186821e-004,-3.203028e-004
-5.690730e-004,-2.878897e-004
-7.236833e-004,-2.442942e-004
-7.885094e-004,-2.047502e-004
-7.677650e-004,-1.820611e-004
-6.418403e-004,-1.823852e-004
-3.788084e-004,-2.031296e-004
1.419998e-005,-2.405667e-004
4.764104e-004,-2.911311e-004
9.235489e-004,-3.562813e-004
1.286576e-003,-4.378001e-004
1.533726e-003,-5.361738e-004
1.666134e-003,-6.454058e-004
1.683961e-003,-7.577170e-004
1.575701e-003,-8.760247e-004
1.355778e-003,-1.014104e-003
1.071191e-003,-1.174225e-003
7.682901e-004,-1.345852e-003
4.767345e-004,-1.503055e-003
1.968476e-004,-1.612774e-003
-8.676671e-005,-1.641459e-003
-3.726499e-004,-1.561885e-003
-6.358439e-004,-1.345042e-003
-8.405324e-004,-9.844463e-004
-9.337199e-004,-5.021400e-004
-8.711627e-004,5.893001e-005
-6.421645e-004,6.613270e-004
-2.449424e-004,1.280093e-003
3.136967e-004,1.885571e-003
9.499656e-004,2.418768e-003
1.477813e-003,2.812264e-003
1.699519e-003,3.000909e-003
1.529836e-003,2.950669e-003
1.073946e-003,2.692011e-003
5.715428e-004,2.320069e-003
2.500050e-004,1.954935e-003
2.059233e-004,1.671806e-003
3.602095e-004,1.470682e-003
5.401021e-004,1.307806e-003
5.968249e-004,1.134720e-003
4.650658e-004,9.282487e-004
1.503348e-004,6.892022e-004
-3.188442e-004,4.402698e-004
-9.257787e-004,2.159713e-004
-1.661717e-003,3.996836e-005
-2.486793e-003,-8.109442e-005
-3.294204e-003,-1.546721e-004
-3.900979e-003,-1.869231e-004
-4.085573e-003,-1.887058e-004
-3.688348e-003,-1.804405e-004
-2.706716e-003,-1.857886e-004
-1.302418e-003,-2.165810e-004
2.383363e-004,-2.705488e-004
1.592232e-003,-3.337542e-004
2.577754e-003,-3.880461e-004
3.145149e-003,-4.146248e-004
3.276747e-003,-4.021458e-004
2.947266e-003,-3.551468e-004
2.175020e-003,-2.864312e-004
1.117865e-003,-2.159328e-004
7.594687e-005,-1.627753e-004
-6.455678e-004,-1.368449e-004
-9.581918e-004,-1.396000e-004
-1.015239e-003,-1.598582e-004
-1.065803e-003,-1.848162e-004
-1.266926e-003,-2.055606e-004
-1.587005e-003,-2.219292e-004
-1.840313e-003,-2.313289e-004
-1.814221e-003,-2.357047e-004
-1.443091e-003,-2.371633e-004
-8.406944e-004,-2.374874e-004
-2.105846e-004,-2.378116e-004
2.644288e-004,-2.426735e-004
4.992615e-004,-2.579077e-004
5.052580e-004,-2.948585e-004
3.467580e-004,-3.660052e-004
1.096565e-004,-4.783164e-004
-1.154523e-004,-6.193132e-004
-2.384598e-004,-7.562584e-004
-1.916230e-004,-8.413427e-004
3.235129e-005,-8.356704e-004
3.765781e-004,-7.337313e-004
7.397666e-004,-5.582146e-004
1.004420e-003,-3.412092e-004
1.072649e-003,-1.114006e-004
8.987529e-004,1.201907e-004
5.088234e-004,3.511338e-004
-8.720958e-007,5.663566e-004
-5.082985e-004,7.311772e-004
-9.183237e-004,8.109134e-004
-1.172928e-003,7.835244e-004
-1.254933e-003,6.548443e-004
-1.200965e-003,4.546936e-004
-1.080713e-003,2.232642e-004
-9.658088e-004,-9.299492e-006
-9.103825e-004,-2.191741e-004
-9.222133e-004,-3.984183e-004
-9.371233e-004,-5.544871e-004
-8.565768e-004,-7.016424e-004
-6.180167e-004,-8.466908e-004
-2.272773e-004,-9.792602e-004
2.571359e-004,-1.074717e-003
7.389563e-004,-1.111667e-003
1.127265e-003,-1.084279e-003
1.363071e-003,-9.978977e-004
1.430004e-003,-8.672731e-004
1.367609e-003,-7.201179e-004
1.272314e-003,-5.859278e-004
1.238118e-003,-4.804233e-004
1.281066e-003,-4.058733e-004
1.339895e-003,-3.378058e-004
1.311696e-003,-2.386219e-004
1.107007e-003,-6.764300e-005
6.788300e-004,1.908512e-004
6.897806e-005,5.013684e-004
-5.734488e-004,7.960033e-004
-1.043600e-003,1.017709e-003
-1.196266e-003,1.132775e-003
-1.000977e-003,1.135206e-003
-5.413598e-004,1.043153e-003
3.462021e-005,8.934047e-004
5.689497e-004,7.277738e-004
9.472104e-004,5.741358e-004
1.132127e-003,4.376767e-004
1.172968e-003,3.124002e-004
1.167620e-003,1.923098e-004
1.206515e-003,8.048469e-005
1.338923e-003,-1.772689e-005
1.564356e-003,-9.875954e-005
1.840030e-003,-1.587237e-004
2.080536e-003,-1.979435e-004
2.192361e-003,-2.123673e-004
2.122835e-003,-1.990780e-004
1.876819e-003,-1.694200e-004
1.498558e-003,-1.592099e-004
1.037157e-003,-2.047502e-004
5.379952e-004,-3.160891e-004
5.034054e-005,-4.603272e-004
-3.496366e-004,-5.787969e-004
-5.870622e-004,-6.204477e-004
-6.458919e-004,-5.515699e-004
-5.849554e-004,-3.637363e-004
-5.019780e-004,-7.218083e-005
-4.736166e-004,2.741528e-004
-5.262878e-004,6.068730e-004
-6.293613e-004,8.679605e-004
-7.095836e-004,1.017547e-003
-6.844635e-004,1.051419e-003
-5.160776e-004,1.015764e-003
-2.370012e-004,9.885371e-004
6.525056e-005,1.038453e-003
2.934386e-004,1.181071e-003
3.608577e-004,1.361612e-003
2.158092e-004,1.481541e-003
-1.185315e-004,1.456258e-003
-5.505976e-004,1.260159e-003
-9.649985e-004,9.337590e-004
-1.289939e-003,5.584154e-004
-1.518776e-003,2.124059e-004
-1.675331e-003,-5.370539e-005
-1.755229e-003,-2.065330e-004
-1.722816e-003,-2.241981e-004
-1.559940e-003,-1.097800e-004
-1.302094e-003,9.863601e-005
-1.022694e-003,3.350894e-004
-7.915886e-004,5.195197e-004
-6.428128e-004,5.788357e-004
-5.700454e-004,4.767345e-004
-5.368220e-004,2.193747e-004
-4.967919e-004,-1.449481e-004
-4.139765e-004,-5.463838e-004
-2.716832e-004,-9.158927e-004
-7.623246e-005,-1.208259e-003
1.451487e-004,-1.395930e-003
3.546993e-004,-1.468373e-003
5.230852e-004,-1.429316e-003
6.274553e-004,-1.290263e-003
6.553305e-004,-1.060455e-003
6.219451e-004,-7.447518e-004
5.670049e-004,-3.604950e-004
5.190336e-004,4.677511e-005
4.828930e-004,4.068843e-004
4.538833e-004,6.595443e-004
4.260080e-004,7.710453e-004
3.952156e-004,7.459251e-004
3.653956e-004,6.268070e-004
3.467580e-004,4.819206e-004
3.534027e-004,3.743092e-004
3.901916e-004,3.350894e-004
4.370285e-004,3.566440e-004
4.558280e-004,4.060740e-004
4.222805e-004,4.469145e-004
3.443271e-004,4.535591e-004
2.503292e-004,4.096394e-004
1.739964e-004,3.094830e-004
1.375317e-004,1.605450e-004
1.354248e-004,-1.805102e-005
1.336421e-004,-1.935677e-004
7.837785e-005,-3.391023e-004
-5.678463e-005,-4.410414e-004
-2.455907e-004,-5.008435e-004
-4.254832e-004,-5.238568e-004
-5.527044e-004,-5.202913e-004
-6.162340e-004,-4.993849e-004
-6.230407e-004,-4.676201e-004
-5.862519e-004,-4.313175e-004
-5.334187e-004,-3.963114e-004
-5.052193e-004,-3.734602e-004
-5.486528e-004,-3.721637e-004
-6.857600e-004,-3.950149e-004
-8.760247e-004,-4.311554e-004
-1.025125e-003,-4.676201e-004
-1.026259e-003,-4.961436e-004
-8.064986e-004,-5.164018e-004
-3.564433e-004,-5.249913e-004
2.600531e-004,-5.220741e-004
9.182007e-004,-5.138087e-004
1.480406e-003,-5.040848e-004
1.838572e-003,-4.927402e-004
1.935325e-003,-4.706994e-004
1.766776e-003,-4.311554e-004
1.386084e-003,-3.661673e-004
8.849773e-004,-2.715212e-004
3.566440e-004,-1.486757e-004
-1.345760e-004,-1.205460e-005
-5.541630e-004,1.153287e-004
-9.021171e-004,2.099749e-004
-1.173090e-003,2.482223e-004
-1.339531e-003,2.261814e-004
-1.369676e-003,1.564933e-004
-1.239051e-003,5.941620e-005
-9.685639e-004,-4.949169e-005
-6.450816e-004,-1.559686e-004
-3.805911e-004,-2.439700e-004
-2.311669e-004,-3.058790e-004
-1.327932e-004,-3.489884e-004
1.857574e-005,-3.993907e-004
2.496809e-004,-4.885265e-004
4.898618e-004,-6.303337e-004
6.170831e-004,-8.043918e-004
5.519328e-004,-9.680777e-004
2.957075e-004,-1.066775e-003
-1.276072e-004,-1.049272e-003
-6.894875e-004,-8.851003e-004
-1.335480e-003,-5.760418e-004
-1.969317e-003,-1.621271e-004
-2.441901e-003,2.890628e-004
-2.598294e-003,7.037881e-004
-2.352764e-003,1.031484e-003
-1.711958e-003,1.266804e-003
-7.590135e-004,1.430328e-003
3.722023e-004,1.540046e-003
1.499206e-003,1.609897e-003
2.448102e-003,1.642310e-003
3.083726e-003,1.627238e-003
3.342384e-003,1.550581e-003
3.260702e-003,1.391918e-003
2.947428e-003,1.139096e-003
2.528810e-003,8.010274e-004
2.093177e-003,4.200116e-004
1.654465e-003,6.589881e-005
1.167133e-003,-1.950263e-004
5.668428e-004,-3.253268e-004
-1.420310e-004,-3.240303e-004
-8.303222e-004,-2.130156e-004
-1.322839e-003,-2.696461e-005
-1.523638e-003,1.971717e-004
-1.446170e-003,4.157979e-004
-1.187838e-003,6.008766e-004
-8.609525e-004,7.428459e-004
-5.502734e-004,8.423541e-004
-2.906448e-004,8.992390e-004
-7.639453e-005,9.122043e-004
1.130598e-004,8.793050e-004
3.020280e-004,8.126961e-004
4.906721e-004,7.311772e-004
6.428515e-004,6.430136e-004
7.026537e-004,5.485294e-004
6.295621e-004,4.511281e-004
4.483731e-004,3.600474e-004
2.349330e-004,2.767458e-004
1.954813e-005,1.936063e-004
-2.156086e-004,1.004187e-004
-4.713476e-004,-7.354708e-006
-7.180110e-004,-1.245279e-004
-9.186478e-004,-2.439700e-004
-1.044248e-003,-3.643846e-004
-1.094651e-003,-4.786406e-004
-1.101944e-003,-5.687489e-004
-1.099351e-003,-6.180167e-004
-1.070017e-003,-6.155858e-004
-9.682398e-004,-5.702075e-004
-7.752200e-004,-4.979264e-004
-5.217499e-004,-4.175420e-004
-2.668213e-004,-3.463953e-004
-5.678463e-005,-2.982619e-004
9.555677e-005,-2.770314e-004
2.044647e-004,-2.799485e-004
2.900352e-004,-2.940482e-004
3.880847e-004,-3.078238e-004
5.525811e-004,-3.191683e-004
8.209614e-004,-3.332680e-004
1.189012e-003,-3.590364e-004
1.597580e-003,-4.047388e-004
1.935811e-003,-4.726441e-004
2.099822e-003,-5.588629e-004
2.048933e-003,-6.515642e-004
1.822689e-003,-7.366485e-004
1.499692e-003,-7.992057e-004
1.137962e-003,-8.252982e-004
7.415494e-004,-8.136295e-004
2.926282e-004,-7.679271e-004
-1.909747e-004,-6.901358e-004
-6.450816e-004,-5.860899e-004
-9.742362e-004,-4.622720e-004
-1.089627e-003,-3.235441e-004
-9.653226e-004,-1.663408e-004
-6.484850e-004,1.987226e-005
-2.295462e-004,2.273159e-004
1.863134e-004,4.214702e-004
5.122268e-004,5.580913e-004
7.075156e-004,6.055764e-004
7.794727e-004,5.639257e-004
7.647247e-004,4.697657e-004
6.964952e-004,3.790091e-004
5.992559e-004,3.394651e-004
4.987753e-004,3.671783e-004
4.183909e-004,4.451317e-004
3.671783e-004,5.378331e-004
3.358997e-004,6.141660e-004
2.752873e-004,6.558168e-004
1.237561e-004,6.538720e-004
-1.130213e-004,6.110867e-004
-3.319715e-004,5.370228e-004
-3.734602e-004,4.375147e-004
-1.368449e-004,3.140208e-004
3.000832e-004,1.670276e-004
6.953607e-004,-2.978945e-006
7.911414e-004,-1.890299e-004
4.859722e-004,-3.788084e-004
-1.248521e-004,-5.533526e-004
-8.312946e-004,-7.006700e-004
-1.427371e-003,-8.146019e-004
-1.790073e-003,-8.910967e-004
-1.893147e-003,-9.282097e-004
-1.789749e-003,-9.282097e-004
-1.610019e-003,-8.933656e-004
-1.506621e-003,-8.309705e-004
-1.563344e-003,-7.465344e-004
-1.759443e-003,-6.445954e-004
-1.993627e-003,-5.337428e-004
-2.119552e-003,-4.160834e-004
-1.990548e-003,-2.843243e-004
-1.542923e-003,-1.211245e-004
-8.340498e-004,7.659513e-005
9.338019e-006,2.897111e-004
8.451092e-004,5.007202e-004
1.552201e-003,6.963331e-004
2.055740e-003,8.707155e-004
2.318449e-003,1.016088e-003
2.336438e-003,1.119162e-003
2.152169e-003,1.170375e-003
1.851051e-003,1.169240e-003
1.512657e-003,1.128400e-003
1.146875e-003,1.062439e-003
7.000606e-004,9.770305e-004
1.299146e-004,8.692570e-004
-5.653455e-004,7.352288e-004
-1.306470e-003,5.789977e-004
-1.956352e-003,4.203357e-004
-2.380964e-003,2.885766e-004
-2.511265e-003,2.036543e-004
-2.384205e-003,1.730240e-004
-2.120363e-003,1.845306e-004
-1.826700e-003,2.132162e-004
-1.539034e-003,2.355812e-004
-1.224465e-003,2.367157e-004
-8.222189e-004,2.070577e-004
-2.932379e-004,1.482280e-004
3.412478e-004,6.978838e-005
9.895095e-004,-1.270286e-005
1.513144e-003,-9.017008e-005
1.781200e-003,-1.652063e-004
1.742629e-003,-2.425115e-004
1.465982e-003,-3.115513e-004
1.095825e-003,-3.600088e-004
7.600248e-004,-3.880461e-004
5.170887e-004,-4.134903e-004
3.723644e-004,-4.591928e-004
3.130485e-004,-5.368220e-004
3.263378e-004,-6.374645e-004
4.122324e-004,-7.334072e-004
5.924492e-004,-7.932092e-004
8.643949e-004,-7.992057e-004
1.167620e-003,-7.455621e-004
1.389812e-003,-6.347094e-004
1.428545e-003,-4.791268e-004
1.249625e-003,-3.042583e-004
9.144733e-004,-1.389517e-004
5.324850e-004,-6.382316e-006
2.028440e-004,8.016056e-005
-1.367526e-005,1.200286e-004
-1.075111e-004,1.208390e-004
-1.135075e-004,9.588090e-005
-8.222889e-005,6.703327e-005
-4.203669e-005,5.147500e-005
-2.492749e-006,5.698522e-005
3.575467e-005,8.016056e-005
7.740545e-005,9.652916e-005
1.287802e-004,8.405013e-005
1.867996e-004,3.624086e-005
2.436845e-004,-2.728874e-005
2.889007e-004,-7.201877e-005
3.115899e-004,-6.602235e-005
2.989488e-004,2.207145e-006
2.373639e-004,1.132219e-004
1.222975e-004,2.394708e-004
-3.231276e-005,3.425443e-004
-2.041020e-004,3.799814e-004
-3.695707e-004,3.245551e-004
-5.006815e-004,1.911753e-004
-5.797693e-004,3.218923e-005
-5.966241e-004,-9.195280e-005
-5.520561e-004,-1.340898e-004
-4.653512e-004,-7.137050e-005
-3.679500e-004,8.583285e-005
-2.828657e-004,2.937627e-004
-2.173913e-004,4.950479e-004
-1.716889e-004,6.402585e-004
-1.407345e-004,7.070294e-004
-1.216107e-004,7.015192e-004
-1.057284e-004,6.413930e-004
-7.607040e-005,5.546879e-004
-1.237873e-005,4.566384e-004
9.782569e-005,3.524303e-004
2.386605e-004,2.384984e-004
3.709058e-004,1.049566e-004
4.556660e-004,-5.370539e-005
4.877549e-004,-2.327876e-004
4.901859e-004,-4.110594e-004
4.843515e-004,-5.509217e-004
4.777069e-004,-6.053756e-004
4.674967e-004,-5.399013e-004
4.435111e-004,-3.651949e-004
4.008879e-004,-1.378173e-004
3.441650e-004,6.638501e-005
2.799871e-004,1.788584e-004
2.055991e-004,1.741585e-004
1.026876e-004,7.967437e-005
-5.305713e-005,-4.803310e-005
-2.639041e-004,-1.645580e-004
-4.963057e-004,-2.512630e-004
-7.063423e-004,-3.128478e-004
-8.666248e-004,-3.580640e-004
-9.758568e-004,-3.872357e-004
-1.045869e-003,-3.998769e-004
-1.083144e-003,-3.935563e-004
-1.075041e-003,-3.728119e-004
-1.003570e-003,-3.442885e-004
-8.677593e-004,-3.125237e-004
-6.880289e-004,-2.771934e-004
-5.027883e-004,-2.400805e-004
-3.507711e-004,-2.104225e-004
-2.674695e-004,-1.971332e-004
-2.677937e-004,-1.937298e-004
-3.282440e-004,-1.887058e-004
-3.852910e-004,-1.710407e-004
-3.530400e-004,-1.324691e-004
-1.768750e-004,-7.347736e-005
1.255388e-004,7.485573e-007
4.700898e-004,8.680524e-005
7.515974e-004,1.804790e-004
8.998873e-004,2.885766e-004
9.041010e-004,4.410801e-004
8.083204e-004,6.702406e-004
6.812610e-004,9.707100e-004
5.833735e-004,1.276366e-003
5.439916e-004,1.488834e-003
5.593878e-004,1.531781e-003
6.060626e-004,1.388191e-003
6.720233e-004,1.108790e-003
7.778521e-004,7.793106e-004
9.493173e-004,4.786793e-004
1.175075e-003,2.514636e-004
1.416552e-003,1.022014e-004
1.598714e-003,8.851824e-006
1.629831e-003,-5.791909e-005
1.469548e-003,-1.235555e-004
1.174751e-003,-2.002124e-004
8.528883e-004,-2.823795e-004
5.713807e-004,-3.585502e-004
3.192069e-004,-4.219177e-004
4.596478e-005,-4.711856e-004
-2.763831e-004,-5.031124e-004
-6.084549e-004,-5.164018e-004
-8.496080e-004,-5.138087e-004
-8.808866e-004,-4.940368e-004
-6.186650e-004,-4.562756e-004
-9.746302e-005,-4.034423e-004
4.877549e-004,-3.426678e-004
8.747672e-004,-2.799485e-004
8.791430e-004,-2.160948e-004
4.652278e-004,-1.468929e-004
-2.681178e-004,-7.299116e-005
-1.142460e-003,1.558884e-006
-1.974017e-003,6.476436e-005
-2.627952e-003,1.018773e-004
-3.028902e-003,1.075496e-004
-3.153855e-003,8.421220e-005
-3.022257e-003,3.850977e-005
-2.697964e-003,-2.437157e-005
-2.268652e-003,-9.632856e-005
-1.826376e-003,-1.720131e-004
-1.430774e-003,-2.407287e-004
-1.071313e-003,-2.888622e-004
-6.899737e-004,-3.086341e-004
-2.394322e-004,-3.037722e-004
2.793389e-004,-2.872415e-004
8.128582e-004,-2.728177e-004
1.293545e-003,-2.673074e-004
1.669699e-003,-2.707108e-004
1.914580e-003,-2.778417e-004
1.999989e-003,-2.835140e-004
1.898050e-003,-2.804347e-004
1.605035e-003,-2.648765e-004
1.173616e-003,-2.386219e-004
7.245325e-004,-2.066950e-004
3.982948e-004,-1.716889e-004
3.007315e-004,-1.327932e-004
4.525867e-004,-8.628051e-005
7.904932e-004,-2.923352e-005
1.203760e-003,3.737532e-005
1.541829e-003,1.094944e-004
1.624645e-003,1.798307e-004
1.307320e-003,2.427121e-004
5.801322e-004,2.979764e-004
-3.904771e-004,3.423823e-004
-1.346500e-003,3.634508e-004
-2.082277e-003,3.459477e-004
-2.524878e-003,2.905214e-004
-2.723895e-003,2.162954e-004
-2.782238e-003,1.472556e-004
-2.771866e-003,1.043083e-004
-2.715629e-003,9.896014e-005
-2.614338e-003,1.255388e-004
-2.467993e-003,1.670276e-004
-2.270435e-003,2.033302e-004
-2.001893e-003,2.098128e-004
-1.633356e-003,1.667035e-004
-1.159963e-003,7.918817e-005
-6.248234e-004,-1.999580e-005
-1.029732e-004,-9.600443e-005
3.370341e-004,-1.238797e-004
6.595443e-004,-9.341139e-005
8.699052e-004,-1.464765e-005
1.003123e-003,9.328785e-005
1.083021e-003,2.112714e-004
1.111059e-003,3.276343e-004
1.089990e-003,4.256839e-004
1.030188e-003,4.862963e-004
9.511000e-004,4.999098e-004
8.676364e-004,4.696036e-004
7.914655e-004,4.093153e-004
7.504629e-004,3.316860e-004
7.738004e-004,2.524360e-004
8.637467e-004,1.872858e-004
9.841614e-004,1.435281e-004
1.089990e-003,1.171115e-004
1.152872e-003,1.023635e-004
1.185609e-003,9.409818e-005
1.241359e-003,8.615698e-005
1.375226e-003,7.335382e-005
1.598066e-003,5.293359e-005
1.884598e-003,2.262737e-005
2.194144e-003,-1.643037e-005
2.491859e-003,-6.278104e-005
2.766886e-003,-1.188556e-004
2.966065e-003,-1.890299e-004
2.953424e-003,-2.747625e-004
2.559441e-003,-3.690844e-004
1.685095e-003,-4.574100e-004
4.010499e-004,-5.225603e-004
-9.910910e-004,-5.554595e-004
-2.107721e-003,-5.496251e-004
-2.695695e-003,-4.979264e-004
-2.680947e-003,-4.005251e-004
-2.164120e-003,-2.652006e-004
-1.360114e-003,-1.054042e-004
-5.023021e-004,7.011251e-005
2.271538e-004,2.446569e-004
7.405770e-004,3.982948e-004
1.048825e-003,5.127130e-004
1.196629e-003,5.772150e-004
1.215429e-003,5.885596e-004
1.103928e-003,5.563085e-004
8.540228e-004,4.916445e-004
4.943996e-004,4.063981e-004
1.091703e-004,3.060797e-004
-2.049123e-004,1.851789e-004
-3.854531e-004,3.883391e-005
-4.251590e-004,-1.311726e-004
-3.642225e-004,-3.212752e-004
-2.682798e-004,-5.283947e-004
-1.891920e-004,-7.442656e-004
-1.345760e-004,-9.460368e-004
-7.039811e-005,-1.106644e-003
3.056858e-005,-1.196590e-003
1.566554e-004,-1.194321e-003
2.547049e-004,-1.096920e-003
2.741528e-004,-9.116790e-004
2.086784e-004,-6.405438e-004
1.039842e-004,-2.895104e-004
2.862379e-005,1.153287e-004
2.586868e-005,5.114165e-004
9.490851e-005,8.306854e-004
1.934442e-004,1.029702e-003
2.652392e-004,1.102955e-003
2.760976e-004,1.083183e-003
2.188885e-004,1.018033e-003
1.130598e-004,9.574206e-004
-4.923729e-006,9.352176e-004
-1.032974e-004,9.574206e-004
-1.650442e-004,1.002637e-003
-1.859507e-004,1.042181e-003
-1.724992e-004,1.057577e-003
-1.489998e-004,1.050284e-003
-1.323070e-004,1.029054e-003
-1.246900e-004,9.945336e-004
-1.344139e-004,9.314901e-004
-1.760647e-004,8.172339e-004
-2.630937e-004,6.371792e-004
-4.005251e-004,3.994293e-004
-5.924104e-004,1.265113e-004
-8.301602e-004,-1.527273e-004
-1.071475e-003,-4.076560e-004
-1.230299e-003,-6.197994e-004
-1.212310e-003,-7.771648e-004
-9.988701e-004,-8.726213e-004
-6.878669e-004,-8.957966e-004
-4.418518e-004,-8.319428e-004
-3.943666e-004,-6.736051e-004
-6.042412e-004,-4.447689e-004
-1.061913e-003,-2.036158e-004
-1.691861e-003,-2.680255e-005
-2.348064e-003,2.862379e-005
-2.856302e-003,-5.046408e-005
-3.087084e-003,-2.323013e-004
-3.001027e-003,-4.569239e-004
-2.623414e-003,-6.718223e-004
-2.002703e-003,-8.468529e-004
-1.209717e-003,-9.716431e-004
-3.374817e-004,-1.045221e-003
5.028270e-004,-1.064182e-003
1.208136e-003,-1.013294e-003
1.715726e-003,-8.531734e-004
2.007120e-003,-5.384427e-004
2.105008e-003,-5.775702e-005
2.064167e-003,5.392918e-004
1.941645e-003,1.146227e-003
1.779580e-003,1.650089e-003
1.597093e-003,1.966442e-003
1.392729e-003,2.065626e-003
1.171185e-003,1.984917e-003
9.700616e-004,1.796434e-003
8.412196e-004,1.555929e-003
8.151271e-004,1.297758e-003
8.859496e-004,1.037481e-003
1.021599e-003,7.804451e-004
1.187554e-003,5.261644e-004
1.348647e-003,2.801492e-004
1.473762e-003,5.504044e-005
1.561601e-003,-1.386276e-004
1.649603e-003,-3.018273e-004
1.789303e-003,-4.426621e-004
1.983783e-003,-5.724764e-004
2.126887e-003,-7.013183e-004
2.025109e-003,-8.330774e-004
1.505202e-003,-9.659709e-004
5.365366e-004,-1.092220e-003
-7.372968e-004,-1.196752e-003
-2.054564e-003,-1.264171e-003
-3.155638e-003,-1.282971e-003
-3.840205e-003,-1.248127e-003
-4.002757e-003,-1.162718e-003
-3.648966e-003,-1.032094e-003
-2.895036e-003,-8.687317e-004
-1.940956e-003,-6.872186e-004
-1.010053e-003,-5.019780e-004
-2.924276e-004,-3.266234e-004
9.361198e-005,-1.726613e-004
1.188942e-004,-4.365734e-005
-1.624512e-004,6.735740e-005
-6.168823e-004,1.639483e-004
-1.057214e-003,2.488706e-004
-1.323811e-003,3.239068e-004
-1.346986e-003,3.840331e-004
-1.149591e-003,4.149876e-004
-8.359945e-004,3.921364e-004
-5.387668e-004,3.002453e-004
-3.457470e-004,1.474177e-004
-2.642282e-004,-3.344722e-005
-2.441321e-004,-2.045882e-004
-2.175534e-004,-3.361852e-004
-1.326312e-004,-4.183523e-004
3.073064e-005,-4.574100e-004
2.631323e-004,-4.653512e-004
5.529052e-004,-4.619479e-004
8.778464e-004,-4.603272e-004
1.191443e-003,-4.619479e-004
1.461282e-003,-4.668098e-004
1.708757e-003,-4.658374e-004
1.956069e-003,-4.452551e-004
2.128021e-003,-3.992286e-004
2.092367e-003,-3.391023e-004
1.758997e-003,-2.809209e-004
1.130020e-003,-2.350565e-004
3.109416e-004,-1.987538e-004
-5.170500e-004,-1.671511e-004
-1.172442e-003,-1.444620e-004
-1.546813e-003,-1.326312e-004
-1.614232e-003,-1.287416e-004
-1.415054e-003,-1.220969e-004
-1.028690e-003,-9.584237e-005
-5.381185e-004,-3.782299e-005
-5.571990e-006,4.823369e-005
5.357263e-004,1.501728e-004
1.072325e-003,2.610255e-004
1.590125e-003,3.853296e-004
2.065140e-003,5.298919e-004
2.436919e-003,6.950366e-004
2.605468e-003,8.721742e-004
2.497208e-003,1.040722e-003
2.126563e-003,1.168430e-003
1.583966e-003,1.211539e-003
1.012037e-003,1.143958e-003
5.483674e-004,9.807580e-004
2.284503e-004,7.810934e-004
-3.976777e-005,6.229175e-004
-4.065215e-004,5.670049e-004
-9.729397e-004,6.193520e-004
-1.701261e-003,7.316634e-004
-2.412242e-003,8.284165e-004
-2.896332e-003,8.436506e-004
-3.007672e-003,7.481941e-004
-2.713847e-003,5.533914e-004
-2.096539e-003,2.984626e-004
-1.315384e-003,4.013043e-005
-5.332566e-004,-1.739578e-004
1.260251e-004,-3.146305e-004
6.131936e-004,-3.734602e-004
9.525587e-004,-3.638984e-004
1.191443e-003,-3.165753e-004
1.367933e-003,-2.626076e-004
1.495316e-003,-2.246843e-004
1.548960e-003,-2.136638e-004
1.461445e-003,-2.267911e-004
1.171995e-003,-2.352185e-004
6.575995e-004,-1.984297e-004
-4.511592e-005,-9.730095e-005
-8.150881e-004,4.499239e-005
-1.491873e-003,1.756170e-004
-1.957000e-003,2.414156e-004
-2.165417e-003,2.179161e-004
-2.126845e-003,1.169494e-004
-1.884719e-003,-2.356124e-005
-1.490252e-003,-1.621271e-004
-9.878497e-004,-2.673074e-004
-4.110594e-004,-3.222476e-004
1.921477e-004,-3.220855e-004
7.425218e-004,-2.694143e-004
1.146551e-003,-1.737958e-004
1.329361e-003,-5.565017e-005
1.271342e-003,4.953022e-005
1.006202e-003,1.101426e-004
5.960146e-004,1.159770e-004
9.847395e-005,7.886404e-005
-4.376381e-004,1.565857e-005
-9.466851e-004,-5.532604e-005
-1.330942e-003,-1.131834e-004
-1.481663e-003,-1.430034e-004
-1.330294e-003,-1.433275e-004
-8.766729e-004,-1.287416e-004
-1.992400e-004,-1.167488e-004
5.546879e-004,-1.157764e-004
1.223208e-003,-1.157764e-004
1.699843e-003,-9.778715e-005
1.948452e-003,-5.678463e-005
1.982000e-003,1.002961e-007
1.845216e-003,5.617490e-005
1.600659e-003,9.474644e-005
1.316396e-003,1.096565e-004
1.050770e-003,1.056048e-004
8.337646e-004,9.280166e-005
6.734819e-004,7.918817e-005
5.692738e-004,6.589881e-005
5.255162e-004,4.904402e-005
5.404262e-004,3.299956e-005
6.059006e-004,2.538249e-005
6.971434e-004,2.505835e-005
7.755831e-004,2.197911e-005
8.019998e-004,4.638125e-006
7.598628e-004,-3.069211e-005
6.648924e-004,-8.514606e-005
5.582533e-004,-1.629374e-004
4.811102e-004,-2.692523e-004
4.542074e-004,-4.002010e-004
4.751138e-004,-5.457356e-004
5.238955e-004,-6.919185e-004
5.627912e-004,-8.227052e-004
5.593878e-004,-9.205926e-004
4.995857e-004,-9.661330e-004
4.036430e-004,-9.484679e-004
3.007315e-004,-8.581975e-004
2.218057e-004,-6.953219e-004
1.910132e-004,-4.647030e-004
2.088404e-004,-1.828714e-004
2.449810e-004,1.180839e-004
2.506533e-004,3.999155e-004
1.775618e-004,6.306966e-004
-6.544382e-006,7.895207e-004
-3.112271e-004,8.742810e-004
-7.116904e-004,9.058837e-004
-1.144729e-003,9.037769e-004
-1.514076e-003,8.840049e-004
-1.734809e-003,8.582365e-004
-1.774029e-003,8.447851e-004
-1.660907e-003,8.562917e-004
-1.476801e-003,8.778464e-004
-1.333211e-003,8.595330e-004
-1.312791e-003,7.533801e-004
-1.412299e-003,5.392918e-004
-1.551513e-003,2.362295e-004
-1.638380e-003,-1.047560e-004
-1.616987e-003,-4.204591e-004
-1.474046e-003,-6.562641e-004
-1.233379e-003,-7.781372e-004
-9.466851e-004,-7.833233e-004
-6.614502e-004,-6.962942e-004
-4.024699e-004,-5.527044e-004
-1.632615e-004,-3.810773e-004
9.993253e-005,-1.938919e-004
4.323286e-004,4.244267e-007
8.290648e-004,1.914994e-004
1.262428e-003,3.733367e-004
1.752352e-003,5.422089e-004
2.363827e-003,6.911471e-004
3.120028e-003,8.141547e-004
3.907025e-003,9.099354e-004
4.477178e-003,9.817304e-004
4.566153e-003,1.030674e-003
4.034247e-003,1.050122e-003
2.951317e-003,1.025812e-003
1.531133e-003,9.376486e-004
3.915804e-005,7.767176e-004
-1.267899e-003,5.566327e-004
-2.268328e-003,3.062417e-004
-2.962941e-003,5.844381e-005
-3.415267e-003,-1.572651e-004
-3.708607e-003,-3.207890e-004
-3.896765e-003,-4.248349e-004
-3.980554e-003,-4.726441e-004
-3.930962e-003,-4.791268e-004
-3.698396e-003,-4.634064e-004
-3.252229e-003,-4.365036e-004
-2.619849e-003,-3.992286e-004
-1.886178e-003,-3.536882e-004
-1.150725e-003,-3.057169e-004
-4.911196e-004,-2.593662e-004
5.066468e-005,-2.173913e-004
4.608521e-004,-1.831956e-004
7.420356e-004,-1.569410e-004
8.976184e-004,-1.384655e-004
9.318143e-004,-1.295519e-004
8.653674e-004,-1.386276e-004
7.459251e-004,-1.681235e-004
6.248623e-004,-2.165810e-004
5.397779e-004,-2.760590e-004
5.016925e-004,-3.379679e-004
5.046097e-004,-3.925839e-004
5.371849e-004,-4.331002e-004
5.956905e-004,-4.600031e-004
6.752646e-004,-4.766958e-004
7.595387e-004,-4.835025e-004
8.318198e-004,-4.836646e-004
8.862738e-004,-4.802612e-004
9.201455e-004,-4.810716e-004
9.337590e-004,-4.938747e-004
9.335970e-004,-5.194810e-004
9.190111e-004,-5.481666e-004
8.841670e-004,-5.507596e-004
8.254993e-004,-4.967919e-004
7.407391e-004,-3.684362e-004
6.394482e-004,-1.707165e-004
5.292437e-004,7.951231e-005
4.073705e-004,3.480546e-004
2.618358e-004,5.997421e-004
8.437427e-005,8.028101e-004
-1.274451e-004,9.308418e-004
-3.663293e-004,9.663342e-004
-6.087790e-004,9.068561e-004
-8.152502e-004,7.739624e-004
-9.565711e-004,6.049282e-004
-1.019777e-003,4.311941e-004
-1.003732e-003,2.618358e-004
-9.061688e-004,9.539470e-005
-7.301659e-004,-6.132245e-005
-4.864197e-004,-1.989159e-004
-1.937298e-004,-3.092824e-004
1.245665e-004,-3.891806e-004
4.524247e-004,-4.219177e-004
7.830382e-004,-3.841565e-004
1.119000e-003,-2.536940e-004
1.448803e-003,-2.664048e-005
1.721884e-003,2.689667e-004
1.880871e-003,5.566327e-004
1.872281e-003,7.370115e-004
1.661434e-003,7.287462e-004
1.261294e-003,5.175750e-004
7.386322e-004,1.689724e-004
1.987924e-004,-1.911368e-004
-2.183637e-004,-4.433104e-004
-3.982562e-004,-5.249913e-004
-3.321336e-004,-4.480102e-004
-1.311726e-004,-2.765452e-004
1.533444e-005,-8.838737e-005
-6.488790e-005,5.552663e-005
-4.162455e-004,1.365593e-004
-9.288579e-004,1.715654e-004
-1.416674e-003,1.947408e-004
-1.712606e-003,2.436845e-004
-1.736429e-003,3.441650e-004
-1.522179e-003,5.002340e-004
-1.184111e-003,6.666752e-004
-8.163846e-004,7.669936e-004
-4.679442e-004,7.396046e-004
-1.734716e-004,5.780254e-004
2.197911e-005,3.284447e-004
9.652916e-005,6.492643e-005
8.210535e-005,-1.478653e-004
6.914012e-005,-2.797865e-004
1.600588e-004,-3.314853e-004
4.038051e-004,-3.203028e-004
7.562974e-004,-2.710350e-004
1.114300e-003,-1.857886e-004
1.413473e-003,-5.030201e-005
1.677964e-003,1.401247e-004
1.960445e-003,3.480546e-004
2.214240e-003,5.089855e-004
2.273557e-003,5.605223e-004
1.946507e-003,4.851619e-004
1.118190e-003,3.143450e-004
-1.486757e-004,1.086841e-004
-1.561561e-003,-7.590833e-005
-2.770731e-003,-2.037778e-004
-3.521258e-003,-2.679557e-004
-3.696452e-003,-2.841623e-004
-3.321107e-003,-2.758969e-004
-2.547081e-003,-2.593662e-004
-1.608398e-003,-2.475355e-004
-7.710063e-004,-2.431597e-004
-2.408908e-004,-2.451045e-004
-8.060822e-005,-2.522354e-004
-2.266291e-004,-2.543422e-004
-5.389288e-004,-2.439700e-004
-8.403703e-004,-2.245222e-004
-9.807188e-004,-2.049123e-004
-8.935277e-004,-1.948643e-004
-6.112100e-004,-1.992400e-004
-2.428356e-004,-2.198223e-004
8.956035e-005,-2.548284e-004
2.995970e-004,-3.015032e-004
3.639370e-004,-3.506090e-004
3.015418e-004,-3.933942e-004
1.365593e-004,-4.275900e-004
-1.209625e-004,-4.538446e-004
-4.744269e-004,-4.708614e-004
-9.385818e-004,-4.770199e-004
-1.492845e-003,-4.752372e-004
-2.013237e-003,-4.611375e-004
-2.290369e-003,-4.293727e-004
-2.140621e-003,-3.757291e-004
-1.511807e-003,-2.987481e-004
-5.076503e-004,-2.010227e-004
6.687820e-004,-9.746302e-005
1.785252e-003,-5.409925e-006
2.694604e-003,5.666109e-005
3.322287e-003,8.226741e-005
3.649176e-003,8.161915e-005
3.704279e-003,7.254349e-005
3.565063e-003,6.087479e-005
3.318074e-003,3.964423e-005
3.032513e-003,-7.192643e-006
2.738524e-003,-9.373551e-005
2.435298e-003,-2.182017e-004
2.109870e-003,-3.627639e-004
1.749597e-003,-4.956574e-004
1.369067e-003,-5.854416e-004
1.011064e-003,-6.133168e-004
7.190223e-004,-5.745832e-004
5.187094e-004,-4.747510e-004
4.102877e-004,-3.282440e-004
3.752816e-004,-1.629374e-004
3.940811e-004,-9.461557e-006
4.431869e-004,1.135460e-004
4.931031e-004,2.137024e-004
5.112544e-004,3.200173e-004
4.820826e-004,4.746277e-004
4.122324e-004,7.107570e-004
3.166139e-004,1.034402e-003
2.090025e-004,1.396780e-003
1.070634e-004,1.704381e-003
2.959618e-005,1.868716e-003
-5.085794e-006,1.854778e-003
9.013888e-006,1.679909e-003
7.432621e-005,1.396618e-003
1.999268e-004,1.072973e-003
4.042912e-004,7.624558e-004
6.981159e-004,4.979650e-004
1.074756e-003,2.898731e-004
1.463713e-003,1.268354e-004
1.705353e-003,-4.599598e-006
1.633072e-003,-1.128592e-004
1.175075e-003,-2.055606e-004
4.112601e-004,-2.872415e-004
-4.796130e-004,-3.557951e-004
-1.301122e-003,-4.100870e-004
-1.915026e-003,-4.536825e-004
-2.254229e-003,-4.903093e-004
-2.310789e-003,-5.228844e-004
-2.121173e-003,-5.421702e-004
-1.759767e-003,-5.094330e-004
-1.322839e-003,-3.703810e-004
-9.098963e-004,-1.131834e-004
-6.008378e-004,1.914994e-004
-4.426621e-004,4.273045e-004
-4.467137e-004,5.047718e-004
-5.979206e-004,4.055878e-004
-8.726213e-004,1.858272e-004
-1.245533e-003,-6.521203e-005
-1.677114e-003,-2.635799e-004
-2.099456e-003,-3.739464e-004
-2.408515e-003,-4.050630e-004
-2.500082e-003,-3.890185e-004
-2.313220e-003,-3.569296e-004
-1.856520e-003,-3.254889e-004
-1.230948e-003,-2.974516e-004
-6.094273e-004,-2.677937e-004
-1.553203e-004,-2.303566e-004
4.288554e-005,-1.823852e-004
-6.382316e-006,-1.245279e-004
-2.073433e-004,-5.759496e-005
-4.183523e-004,2.278944e-005
-5.202913e-004,1.140322e-004
-4.753993e-004,2.072198e-004
-3.329439e-004,2.877662e-004
-1.818990e-004,3.470822e-004
-9.924574e-005,3.850055e-004
-1.159385e-004,4.088291e-004
-2.141500e-004,4.376767e-004
-3.489884e-004,4.858101e-004
-4.559515e-004,5.527431e-004
-4.674581e-004,6.342620e-004
-3.548227e-004,7.174016e-004
-1.601823e-004,7.801210e-004
1.533444e-005,7.887104e-004
6.265751e-005,7.227497e-004
-5.905355e-005,5.824011e-004
-2.898345e-004,3.874364e-004
-5.131605e-004,1.707551e-004
-6.269303e-004,-3.766092e-005
-5.810658e-004,-2.214430e-004
-3.755671e-004,-3.752429e-004
-5.613637e-005,-4.917678e-004
3.089968e-004,-5.575664e-004
6.490100e-004,-5.583767e-004
9.232247e-004,-4.859335e-004
1.113328e-003,-3.507711e-004
1.221749e-003,-1.770371e-004
1.278148e-003,9.338019e-006
1.316720e-003,1.872858e-004
1.354643e-003,3.397892e-004
1.390136e-003,4.525867e-004
1.408125e-003,5.091476e-004
1.393377e-003,5.021787e-004
1.344271e-003,4.467524e-004
1.283334e-003,3.743092e-004
1.244114e-003,3.064038e-004
1.241197e-003,2.453051e-004
1.266966e-003,1.876099e-004
1.273935e-003,1.222975e-004
1.181881e-003,3.429608e-005
9.250075e-004,-8.984595e-005
4.822447e-004,-2.561249e-004
-9.665269e-005,-4.499550e-004
-6.940254e-004,-6.441093e-004
-1.179087e-003,-8.113606e-004
-1.450384e-003,-9.312889e-004
-1.461567e-003,-1.001139e-003
-1.239213e-003,-1.030311e-003
-8.888278e-004,-1.025125e-003
-5.389288e-004,-9.884980e-004
-2.825416e-004,-9.226995e-004
-1.314967e-004,-8.350221e-004
-3.766092e-005,-7.277349e-004
4.953022e-005,-6.008378e-004
1.472556e-004,-4.548170e-004
2.399570e-004,-3.003688e-004
3.077003e-004,-1.524032e-004
3.482167e-004,-1.950961e-005
3.702575e-004,8.956035e-005
3.845193e-004,1.644345e-004
3.958639e-004,2.044647e-004
4.096394e-004,2.211574e-004
4.307079e-004,2.368777e-004
4.553419e-004,2.741528e-004
4.684691e-004,3.384927e-004
4.589073e-004,4.114221e-004
4.224426e-004,4.655520e-004
3.624784e-004,4.768966e-004
2.871180e-004,4.394594e-004
2.172678e-004,3.662059e-004
1.686482e-004,2.842008e-004
1.564933e-004,2.167816e-004
1.958752e-004,1.739964e-004
2.934386e-004,1.487142e-004
4.277907e-004,1.300767e-004
5.507984e-004,1.077117e-004
6.104385e-004,8.113296e-005
5.785116e-004,4.839576e-005
4.564763e-004,9.175954e-006
2.681563e-004,-3.766092e-005
4.418206e-005,-8.984595e-005
-1.854645e-004,-1.460826e-004
-4.014975e-004,-2.044261e-004
-5.870622e-004,-2.642282e-004
-6.988873e-004,-3.125237e-004
-7.014803e-004,-3.259751e-004
-5.958137e-004,-2.823795e-004
-4.227281e-004,-1.671511e-004
-2.363530e-004,5.864920e-007
-6.359137e-005,1.762653e-004
1.179218e-004,3.120761e-004
3.219621e-004,3.749574e-004
5.076890e-004,3.600474e-004
5.820770e-004,2.924662e-004
4.370285e-004,2.119197e-004
3.348575e-005,1.550348e-004
-5.510838e-004,1.385041e-004
-1.148618e-003,1.561692e-004
-1.593488e-003,1.902029e-004
-1.790235e-003,2.205091e-004
-1.731729e-003,2.383363e-004
-1.484742e-003,2.511395e-004
-1.149429e-003,2.681563e-004
-8.180052e-004,2.854973e-004
-5.496251e-004,2.923041e-004
-3.750809e-004,2.748010e-004
-2.883759e-004,2.286124e-004
-2.394322e-004,1.618415e-004
-1.611547e-004,9.085687e-005
1.396819e-006,3.170303e-005
2.592428e-004,-1.351319e-005
5.728393e-004,-5.143647e-005
8.710397e-004,-8.757703e-005
1.091287e-003,-1.237176e-004
1.193874e-003,-1.611547e-004
1.181719e-003,-2.026434e-004
1.099390e-003,-2.502906e-004
9.956680e-004,-2.995584e-004
8.914599e-004,-3.434781e-004
7.700729e-004,-3.745946e-004
5.916388e-004,-3.865875e-004
3.119140e-004,-3.737843e-004
-9.908367e-005,-3.348887e-004
-6.261200e-004,-2.754107e-004
-1.191566e-003,-2.002124e-004
-1.685703e-003,-1.154523e-004
-2.023609e-003,-2.550602e-005
-2.181299e-003,6.768153e-005
-2.181947e-003,1.569795e-004
-2.070770e-003,2.310434e-004
-1.874185e-003,2.817698e-004
-1.581819e-003,3.073762e-004
-1.168066e-003,3.141829e-004
-6.394094e-004,3.169380e-004
-4.657451e-005,3.323342e-004
5.391297e-004,3.602095e-004
1.060008e-003,3.978086e-004
1.481217e-003,4.352457e-004
1.785252e-003,4.582590e-004
1.964659e-003,4.532350e-004
2.012630e-003,4.086670e-004
1.925277e-003,3.281205e-004
1.702112e-003,2.260194e-004
1.357074e-003,1.244044e-004
9.191731e-004,4.045456e-005
4.389732e-004,-1.675450e-005
1.002961e-007,-4.641245e-005
-2.992343e-004,-5.321919e-005
-3.804290e-004,-5.192267e-005
-2.096122e-004,-5.305713e-005
1.754550e-004,-6.051213e-005
6.563029e-004,-7.218083e-005
1.079618e-003,-8.093235e-005
1.332764e-003,-8.093235e-005
1.386408e-003,-7.412562e-005
1.281390e-003,-6.407756e-005
1.090476e-003,-5.046408e-005
8.804395e-004,-2.923352e-005
6.989262e-004,1.558884e-006
5.901803e-004,4.175108e-005
6.112488e-004,8.664317e-005
8.350611e-004,1.297525e-004
1.335195e-003,1.660552e-004
2.060602e-003,1.887443e-004
2.733662e-003,1.940925e-004
2.971251e-003,1.796687e-004
2.494290e-003,1.453108e-004
1.284631e-003,9.814982e-005
-4.254832e-004,4.985435e-005
-2.239157e-003,6.096713e-006
-3.830156e-003,-3.409548e-005
-4.960408e-003,-8.012203e-005
-4.968349e-003,-1.387897e-004
-4.968349e-003,-2.190120e-004
-4.357520e-003,-3.225717e-004
-3.028578e-003,-4.387725e-004
-1.501597e-003,-5.525423e-004
-3.847125e-005,-6.483229e-004
1.136179e-003,-7.115284e-004
1.937918e-003,-7.317865e-004
2.377927e-003,-7.021286e-004
2.461715e-003,-6.251476e-004
2.199817e-003,-5.073261e-004
1.656248e-003,-3.608191e-004
9.298695e-004,-1.994021e-004
1.159770e-004,-3.198863e-005
-7.220627e-004,1.287802e-004
-1.557185e-003,2.715597e-004
-2.374643e-003,3.948915e-004
-3.123062e-003,4.984512e-004
-3.688186e-003,5.773771e-004
-3.904707e-003,6.253485e-004
-3.644105e-003,6.446342e-004
-2.913835e-003,6.420412e-004
-1.865920e-003,6.143280e-004
-7.449138e-004,5.524190e-004
2.000889e-004,4.448076e-004
8.089686e-004,2.854973e-004
1.075080e-003,8.842590e-005
1.103604e-003,-1.130213e-004
1.043802e-003,-2.810830e-004
1.027433e-003,-3.908012e-004
1.110735e-003,-4.366657e-004
1.280417e-003,-4.272659e-004
1.476192e-003,-3.713534e-004
1.636151e-003,-2.708729e-004
1.734525e-003,-1.295519e-004
1.790114e-003,3.494434e-005
1.846999e-003,1.968476e-004
1.953152e-003,3.328204e-004
2.144714e-003,4.316803e-004
2.433840e-003,4.932652e-004
2.801892e-003,5.250300e-004
3.188745e-003,5.315125e-004
3.498454e-003,5.114165e-004
3.631835e-003,4.621486e-004
3.529085e-003,3.919743e-004
3.149038e-003,3.156415e-004
2.470305e-003,2.487085e-004
1.503095e-003,1.952270e-004
3.023521e-004,1.479039e-004
-9.996805e-004,1.004187e-004
-2.205285e-003,4.645098e-005
-3.143807e-003,-1.075808e-005
-3.710876e-003,-6.180866e-005
-3.900817e-003,-9.616650e-005
-3.788019e-003,-9.924574e-005
-3.472314e-003,-6.812920e-005
-3.061315e-003,-1.335112e-005
-2.648048e-003,4.223728e-005
-2.286318e-003,8.307774e-005
-1.973531e-003,1.004187e-004
-1.677114e-003,9.426025e-005
-1.365138e-003,7.562274e-005
-1.001301e-003,5.293359e-005
-5.493010e-004,2.473422e-005
2.052053e-005,-1.497178e-005
7.000606e-004,-6.116039e-005
1.407639e-003,-1.029732e-004
1.987834e-003,-1.337657e-004
2.267236e-003,-1.583996e-004
2.126563e-003,-1.809267e-004
1.586397e-003,-2.015089e-004
8.308474e-004,-2.173913e-004
1.401247e-004,-2.295462e-004
-2.467252e-004,-2.334358e-004
-2.517492e-004,-2.264670e-004
3.591673e-005,-2.146362e-004
4.247115e-004,-2.126914e-004
7.242084e-004,-2.306807e-004
8.190167e-004,-2.737901e-004
7.034640e-004,-3.399127e-004
4.514523e-004,-4.199730e-004
1.704310e-004,-4.982505e-004
-4.657451e-005,-5.531906e-004
-1.561307e-004,-5.634007e-004
-1.566169e-004,-5.149432e-004
-7.931171e-005,-4.019837e-004
2.959618e-005,-2.224154e-004
1.292664e-004,2.100672e-005
1.910132e-004,3.107795e-004
1.991165e-004,6.068730e-004
1.448246e-004,8.580744e-004
4.029249e-005,1.013171e-003
-8.271508e-005,1.048664e-003
-1.922712e-004,9.737892e-004
-2.666592e-004,8.334405e-004
-2.956689e-004,6.832058e-004
-2.833519e-004,5.618188e-004
-2.481837e-004,4.859722e-004
-2.147983e-004,4.478869e-004
-2.073433e-004,4.269804e-004
-2.382978e-004,4.002396e-004
-2.995584e-004,3.467580e-004
-3.703810e-004,2.550291e-004
-4.105731e-004,1.302387e-004
-3.820497e-004,-8.002969e-006
-2.810830e-004,-1.318209e-004
-1.425172e-004,-2.216050e-004
-1.772689e-005,-2.726556e-004
4.596478e-005,-2.888622e-004
2.019640e-005,-2.789761e-004
-6.456376e-005,-2.407287e-004
-1.352242e-004,-1.728234e-004
-1.126972e-004,-8.692878e-005
5.811968e-005,-4.599598e-006
3.709058e-004,5.147500e-005
7.567835e-004,7.124698e-005
1.115597e-003,5.763348e-005
1.369391e-003,2.813760e-005
1.484296e-003,1.072688e-006
1.460634e-003,-1.367526e-005
1.316396e-003,-2.129233e-005
1.074432e-003,-3.555407e-005
7.669936e-004,-6.796713e-005
4.282769e-004,-1.172350e-004
8.648111e-005,-1.737958e-004
-2.533698e-004,-2.306807e-004
-6.113721e-004,-2.846484e-004
-9.983840e-004,-3.337542e-004
-1.370648e-003,-3.757291e-004
-1.649238e-003,-4.146248e-004
-1.761712e-003,-4.596789e-004
-1.674034e-003,-5.157535e-004
-1.387503e-003,-5.838209e-004
-9.460368e-004,-6.561021e-004
-4.254832e-004,-7.163903e-004
8.907416e-005,-7.536653e-004
5.232472e-004,-7.753821e-004
8.374921e-004,-7.898059e-004
1.026622e-003,-7.854301e-004
1.104252e-003,-7.418346e-004
1.082049e-003,-6.475126e-004
9.729789e-004,-5.264499e-004
7.968137e-004,-4.147868e-004
5.830494e-004,-3.436402e-004
3.559958e-004,-3.248406e-004
1.441764e-004,-3.475298e-004
-2.647842e-005,-3.872357e-004
-1.421931e-004,-4.219177e-004
-2.024813e-004,-4.311554e-004
-2.185258e-004,-4.107352e-004
-1.992400e-004,-3.744326e-004
-1.220969e-004,-3.478539e-004
7.691926e-005,-3.481780e-004
4.697657e-004,-3.682741e-004
1.071839e-003,-3.762153e-004
1.764670e-003,-3.280819e-004
2.314721e-003,-1.749302e-004
2.492994e-003,1.255388e-004
2.180044e-003,5.824011e-004
1.405208e-003,1.145254e-003
2.814457e-004,1.716374e-003
-1.019290e-003,2.190092e-003
-2.274811e-003,2.488456e-003
-3.279942e-003,2.587965e-003
-3.875697e-003,2.514711e-003
-3.991898e-003,2.319908e-003
-3.654639e-003,2.045692e-003
-2.983524e-003,1.714591e-003
-2.153748e-003,1.345081e-003
-1.333373e-003,9.726548e-004
-6.470264e-004,6.452825e-004
-1.553203e-004,4.028327e-004
1.535762e-004,2.624841e-004
3.310377e-004,2.284503e-004
4.185530e-004,3.005694e-004
4.117463e-004,4.574487e-004
2.751252e-004,6.478755e-004
-1.189254e-005,8.005412e-004
-4.019837e-004,8.590468e-004
-7.795958e-004,8.052411e-004
-1.033876e-003,6.584098e-004
-1.118312e-003,4.553419e-004
-1.059807e-003,2.312054e-004
-9.076273e-004,9.986280e-006
-6.755498e-004,-2.005366e-004
-3.381300e-004,-4.002010e-004
1.128978e-004,-5.941931e-004
6.294001e-004,-7.883473e-004
1.123214e-003,-9.870394e-004
1.506985e-003,-1.183624e-003
1.727881e-003,-1.363841e-003
1.794003e-003,-1.501273e-003
1.748301e-003,-1.574688e-003
1.628048e-003,-1.573392e-003
1.458041e-003,-1.504190e-003
1.262914e-003,-1.381182e-003
1.063898e-003,-1.215389e-003
8.733086e-004,-1.020911e-003
7.071915e-004,-8.186535e-004
5.704083e-004,-6.382748e-004
4.477248e-004,-5.073261e-004
3.033245e-004,-4.369898e-004
9.507057e-005,-4.120317e-004
-1.950263e-004,-3.893426e-004
-5.509217e-004,-3.194925e-004
-9.087618e-004,-1.734716e-004
-1.183462e-003,3.283749e-005
-1.312304e-003,2.516257e-004
-1.270492e-003,4.273045e-004
-1.046841e-003,5.167646e-004
-6.353577e-004,4.982892e-004
-8.384953e-005,3.845193e-004
4.955340e-004,2.187264e-004
9.742754e-004,6.330577e-005
1.251569e-003,-2.826113e-005
1.275069e-003,-3.344722e-005
1.065356e-003,3.024445e-005
7.250187e-004,1.081979e-004
3.973224e-004,1.498487e-004
2.184023e-004,1.370455e-004
2.626462e-004,9.069480e-005
4.837033e-004,5.163707e-005
7.430080e-004,5.244739e-005
9.000494e-004,9.685329e-005
8.630984e-004,1.680000e-004
6.342620e-004,2.384984e-004
3.234207e-004,2.786906e-004
6.460230e-005,2.692908e-004
-5.321919e-005,2.112714e-004
-8.489165e-006,1.200286e-004
1.548727e-004,1.484824e-005
3.605336e-004,-9.276313e-005
5.435054e-004,-1.981056e-004
6.759128e-004,-3.031239e-004
7.550008e-004,-4.099249e-004
7.854691e-004,-5.113778e-004
7.708832e-004,-5.935449e-004
7.165913e-004,-6.442713e-004
6.332896e-004,-6.556159e-004
5.323229e-004,-6.249855e-004
4.480489e-004,-5.612939e-004
4.240632e-004,-4.839887e-004
4.754380e-004,-4.128421e-004
5.718669e-004,-3.577399e-004
6.415550e-004,-3.157650e-004
6.209727e-004,-2.708729e-004
5.140096e-004,-1.929195e-004
3.600474e-004,-4.333321e-005
1.689724e-004,1.983062e-004
-7.120844e-005,5.008822e-004
-3.580640e-004,8.003791e-004
-6.633950e-004,1.028081e-003
-9.167030e-004,1.135044e-003
-1.042142e-003,1.107169e-003
-1.028042e-003,9.734651e-004
-9.530057e-004,7.926000e-004
-9.452265e-004,6.255105e-004
-1.096271e-003,5.081752e-004
-1.383127e-003,4.542074e-004
-1.684893e-003,4.522626e-004
-1.894281e-003,4.741414e-004
-1.988927e-003,4.916445e-004
-2.030092e-003,4.884032e-004
-2.086004e-003,4.679830e-004
-2.120686e-003,4.435111e-004
-2.019720e-003,4.282769e-004
-1.693968e-003,4.292493e-004
-1.142298e-003,4.423766e-004
-4.473620e-004,4.493454e-004
2.649151e-004,4.297355e-004
8.567779e-004,3.704196e-004
1.227584e-003,2.743148e-004
1.341192e-003,1.712413e-004
1.234391e-003,9.328785e-005
1.004582e-003,5.536457e-005
7.710453e-004,5.779555e-005
6.188658e-004,8.469840e-005
5.689497e-004,1.041462e-004
5.901803e-004,8.907416e-005
6.221071e-004,3.316162e-005
6.054144e-004,-5.321919e-005
5.117406e-004,-1.533756e-004
3.459477e-004,-2.494803e-004
1.325077e-004,-3.256510e-004
-9.211487e-005,-3.752429e-004
-2.875656e-004,-3.985803e-004
-4.266176e-004,-4.031182e-004
-5.053813e-004,-3.972838e-004
-5.392530e-004,-3.844807e-004
-5.335807e-004,-3.630880e-004
-4.788027e-004,-3.292164e-004
-3.541744e-004,-2.883759e-004
-1.379793e-004,-2.428356e-004
1.762653e-004,-1.982676e-004
5.671670e-004,-1.593720e-004
9.744375e-004,-1.305243e-004
1.318989e-003,-1.149661e-004
1.534050e-003,-1.091317e-004
1.591907e-003,-1.026491e-004
1.510388e-003,-8.984595e-005
1.343299e-003,-7.331529e-005
1.142661e-003,-5.840528e-005
9.319763e-004,-4.673658e-005
6.966572e-004,-4.268495e-005
4.123945e-004,-5.046408e-005
6.638501e-005,-7.282909e-005
-3.164132e-004,-1.122110e-004
-6.736051e-004,-1.689338e-004
-9.144341e-004,-2.355427e-004
-9.654847e-004,-3.034480e-004
-8.037435e-004,-3.580640e-004
-4.596789e-004,-3.865875e-004
-1.983374e-005,-3.862634e-004
3.924605e-004,-3.603329e-004
6.375034e-004,-3.217614e-004
6.101142e-004,-2.841623e-004
2.963557e-004,-2.561249e-004
-1.932436e-004,-2.327876e-004
-6.753878e-004,-2.024813e-004
-9.941702e-004,-1.575892e-004
-1.082172e-003,-1.036215e-004
-9.627296e-004,-5.483985e-005
-7.150938e-004,-2.015787e-005
-4.326140e-004,1.883015e-006
-1.955125e-004,1.792748e-005
-4.608832e-005,3.769945e-005
2.149292e-005,7.335382e-005
3.235129e-005,1.365593e-004
1.225519e-005,2.329882e-004
-2.469570e-005,3.551854e-004
-7.542214e-005,4.887274e-004
-1.357104e-004,6.195141e-004
-1.979435e-004,7.452769e-004
-2.535319e-004,8.656915e-004
-2.857829e-004,9.651997e-004
-2.841623e-004,1.023219e-003
-2.697384e-004,1.024678e-003
-2.883759e-004,9.611481e-004
-3.643846e-004,8.342508e-004
-4.690787e-004,6.605167e-004
-5.517320e-004,4.681450e-004
-5.677765e-004,2.884145e-004
-4.831784e-004,1.398006e-004
-2.841623e-004,3.040651e-005
1.128280e-005,-4.138842e-005
3.747953e-004,-8.368747e-005
7.875760e-004,-1.044318e-004
1.257080e-003,-1.118868e-004
1.776662e-003,-1.118868e-004
2.238064e-003,-1.101041e-004
2.440647e-003,-1.101041e-004
2.218778e-003,-1.107524e-004
1.579590e-003,-1.135075e-004
6.937401e-004,-1.212866e-004
-2.057227e-004,-1.324691e-004
-9.183237e-004,-1.462447e-004
-1.355252e-003,-1.583996e-004
-1.524124e-003,-1.679614e-004
-1.469832e-003,-1.793060e-004
-1.240671e-003,-1.948643e-004
-8.813728e-004,-2.094501e-004
-4.397449e-004,-2.170672e-004
3.056858e-005,-2.159328e-004
4.644175e-004,-2.083157e-004
7.909793e-004,-1.992400e-004
9.485069e-004,-1.901644e-004
9.011839e-004,-1.786577e-004
6.629477e-004,-1.681235e-004
3.031625e-004,-1.669890e-004
-9.470791e-005,-1.849783e-004
-4.828543e-004,-2.276015e-004
-8.502562e-004,-2.852967e-004
-1.187838e-003,-3.408851e-004
-1.450222e-003,-3.768636e-004
-1.572581e-003,-3.888564e-004
-1.517479e-003,-3.810773e-004
-1.318463e-003,-3.600088e-004
-1.076662e-003,-3.277578e-004
-9.071411e-004,-2.872415e-004
-8.599802e-004,-2.459148e-004
-8.923932e-004,-2.110708e-004
-9.006585e-004,-1.862748e-004
-7.773269e-004,-1.671511e-004
-4.708614e-004,-1.509446e-004
-1.043395e-005,-1.353863e-004
5.050959e-004,-1.196660e-004
9.530449e-004,-1.036215e-004
1.248976e-003,-8.303921e-005
1.365664e-003,-5.078821e-005
1.323203e-003,-5.571990e-006
1.151413e-003,5.649903e-005
8.901634e-004,1.354248e-004
5.922871e-004,2.315296e-004
3.156415e-004,3.444891e-004
9.977046e-005,4.655520e-004
-4.932962e-005,5.806184e-004
-1.609926e-004,6.786680e-004
-2.499665e-004,7.506250e-004
-3.037722e-004,7.846588e-004
-3.053928e-004,7.639144e-004
-2.415391e-004,6.678096e-004
-1.075111e-004,4.927790e-004
7.173317e-005,2.590807e-004
2.514636e-004,1.128280e-005
3.910019e-004,-2.023193e-004
4.733311e-004,-3.556330e-004
4.995857e-004,-4.412035e-004
4.754380e-004,-4.672960e-004
4.341113e-004,-4.459034e-004
4.318423e-004,-3.828600e-004
5.078511e-004,-2.801106e-004
6.543581e-004,-1.442999e-004
8.284165e-004,1.014835e-005
9.946957e-004,1.673517e-004
1.134720e-003,3.098072e-004
1.234553e-003,4.313562e-004
1.282524e-003,5.371849e-004
1.270531e-003,6.353965e-004
1.187716e-003,7.237222e-004
1.029216e-003,7.904932e-004
8.267958e-004,8.289026e-004
6.366930e-004,8.428402e-004
5.000719e-004,8.387886e-004
4.080188e-004,8.183684e-004
3.354135e-004,7.700729e-004
2.726942e-004,6.801265e-004
2.209953e-004,5.460985e-004
1.769136e-004,3.767402e-004
1.407730e-004,1.897167e-004
1.214872e-004,8.365628e-006
1.394765e-004,-1.501342e-004
2.193747e-004,-2.788141e-004
3.618301e-004,-3.781601e-004
5.274609e-004,-4.549791e-004
6.496583e-004,-5.157535e-004
6.597064e-004,-5.661558e-004
5.407503e-004,-6.021343e-004
3.389789e-004,-6.172064e-004
1.569795e-004,-6.084549e-004
1.235941e-004,-5.755556e-004
2.910076e-004,-5.233706e-004
5.629533e-004,-4.653512e-004
7.637523e-004,-4.168937e-004
7.334461e-004,-3.833462e-004
3.572923e-004,-3.533641e-004
-3.992286e-004,-3.175477e-004
-1.435636e-003,-2.746004e-004
-2.519530e-003,-2.292221e-004
-3.379775e-003,-1.857886e-004
-3.800822e-003,-1.400862e-004
-3.696128e-003,-8.352540e-005
-3.127114e-003,-1.173047e-005
-2.271894e-003,7.513654e-005
-1.344717e-003,1.618415e-004
-5.267740e-004,2.232642e-004
8.891209e-005,2.372019e-004
5.000719e-004,2.038164e-004
7.520836e-004,1.423936e-004
8.822222e-004,7.740545e-005
9.165801e-004,3.316162e-005
8.729845e-004,2.084466e-005
7.554870e-004,4.288554e-005
5.754323e-004,8.502253e-005
3.542131e-004,1.210010e-004
9.863601e-005,1.271595e-004
-1.916230e-004,9.458438e-005
-5.058675e-004,2.910999e-005
-7.959644e-004,-5.759496e-005
-9.536539e-004,-1.538618e-004
-8.353463e-004,-2.523974e-004
-3.468815e-004,-3.449367e-004
4.843515e-004,-4.306693e-004
1.456907e-003,-5.168880e-004
2.287656e-003,-6.155858e-004
2.752462e-003,-7.360002e-004
2.733338e-003,-8.781315e-004
2.233202e-003,-1.038900e-003
1.379277e-003,-1.208259e-003
3.882468e-004,-1.371296e-003
-5.173741e-004,-1.509376e-003
-1.226734e-003,-1.598674e-003
-1.757336e-003,-1.612612e-003
-2.176113e-003,-1.531903e-003
-2.516289e-003,-1.339693e-003
-2.746422e-003,-1.028690e-003
-2.814327e-003,-6.011620e-004
-2.706229e-003,-8.611845e-005
-2.455028e-003,4.705760e-004
-2.117283e-003,1.025002e-003
-1.749719e-003,1.545557e-003
-1.399009e-003,1.984431e-003
-1.097892e-003,2.281660e-003
-8.679213e-004,2.397051e-003
-7.102318e-004,2.340328e-003
-5.980827e-004,2.163514e-003
-4.750752e-004,1.929977e-003
-2.838381e-004,1.694981e-003
1.355172e-005,1.489968e-003
4.243874e-004,1.317044e-003
9.258178e-004,1.158220e-003
1.462903e-003,9.982612e-004
1.925601e-003,8.326301e-004
2.150224e-003,6.853127e-004
1.993668e-003,5.874252e-004
1.425142e-003,5.585775e-004
5.650601e-004,5.764047e-004
-3.703810e-004,5.801322e-004
-1.158829e-003,5.073649e-004
-1.672252e-003,3.324963e-004
-1.863975e-003,8.145709e-005
-1.745829e-003,-1.864369e-004
-1.377941e-003,-4.089525e-004
-8.611146e-004,-5.457356e-004
-3.047445e-004,-5.916001e-004
1.867996e-004,-5.656697e-004
5.435054e-004,-4.979264e-004
7.477078e-004,-4.149489e-004
8.361956e-004,-3.340783e-004
8.840049e-004,-2.590421e-004
9.747616e-004,-1.874093e-004
1.155789e-003,-1.136696e-004
1.412014e-003,-3.360929e-005
1.688661e-003,5.147500e-005
1.927059e-003,1.362352e-004
2.087018e-003,2.111093e-004
2.147793e-003,2.663736e-004
2.110356e-003,2.971661e-004
1.988969e-003,2.926282e-004
1.794976e-003,2.436845e-004
1.541991e-003,1.551968e-004
1.257404e-003,4.094075e-005
9.796235e-004,-7.995997e-005
7.310151e-004,-1.854645e-004
5.083373e-004,-2.567732e-004
2.819319e-004,-2.875656e-004
1.257933e-005,-2.823795e-004
-3.185201e-004,-2.579077e-004
-6.702017e-004,-2.297083e-004
-9.317751e-004,-2.092881e-004
-9.891462e-004,-2.047502e-004
-7.906162e-004,-2.165810e-004
-3.773498e-004,-2.332737e-004
1.205148e-004,-2.395943e-004
5.350781e-004,-2.329496e-004
7.477078e-004,-2.235498e-004
7.366874e-004,-2.243601e-004
5.566327e-004,-2.378116e-004
2.926282e-004,-2.658489e-004
7.069104e-006,-3.107410e-004
-2.891863e-004,-3.682741e-004
-6.131548e-004,-4.326140e-004
-9.593262e-004,-5.016539e-004
-1.270816e-003,-5.758798e-004
-1.460270e-003,-6.462161e-004
-1.460108e-003,-6.928909e-004
-1.256554e-003,-6.847876e-004
-8.962828e-004,-5.907897e-004
-4.502792e-004,-4.047388e-004
2.343770e-005,-1.630995e-004
4.778689e-004,7.157111e-005
8.767120e-004,2.350950e-004
1.201491e-003,2.918179e-004
1.442159e-003,2.462775e-004
1.595149e-003,1.294284e-004
1.661434e-003,-1.383732e-005
1.646199e-003,-1.438137e-004
1.566625e-003,-2.438080e-004
1.450262e-003,-3.191683e-004
1.326120e-003,-3.920977e-004
1.217536e-003,-4.867438e-004
1.131317e-003,-6.149375e-004
1.054336e-003,-7.684133e-004
9.186869e-004,-9.228615e-004
6.131936e-004,-1.053486e-003
4.531652e-005,-1.140191e-003
-7.828371e-004,-1.172928e-003
-1.708716e-003,-1.149429e-003
-2.474314e-003,-1.073582e-003
-2.880126e-003,-9.564090e-004
-2.873805e-003,-8.141157e-004
-2.520826e-003,-6.548056e-004
-1.938687e-003,-4.702132e-004
-1.225437e-003,-2.455907e-004
-4.233763e-004,2.473422e-005
4.705760e-004,3.122381e-004
1.415904e-003,5.645739e-004
2.292356e-003,7.376598e-004
2.930087e-003,8.162615e-004
3.174969e-003,8.148029e-004
2.958772e-003,7.726659e-004
2.329794e-003,7.443045e-004
1.439728e-003,7.906552e-004
4.854860e-004,9.522345e-004
-3.528779e-004,1.227908e-003
-9.756948e-004,1.575215e-003
-1.393337e-003,1.925601e-003
-1.688782e-003,2.197061e-003
-1.945980e-003,2.321528e-003
-2.211767e-003,2.259133e-003
-2.489872e-003,2.018302e-003
-2.755983e-003,1.653330e-003
-2.948032e-003,1.238766e-003
-2.978014e-003,8.408955e-004
-2.773000e-003,5.047718e-004
-2.324565e-003,2.516257e-004
-1.713740e-003,7.772959e-005
-1.079903e-003,-3.539201e-005
-5.723143e-004,-1.083214e-004
-2.831898e-004,-1.601823e-004
-2.052364e-004,-2.037778e-004
-2.483458e-004,-2.421873e-004
-3.068514e-004,-2.708729e-004
-3.104168e-004,-2.822175e-004
-2.348944e-004,-2.747625e-004
-9.535618e-005,-2.512630e-004
7.740545e-005,-2.206326e-004
2.569738e-004,-1.945401e-004
4.230909e-004,-1.791439e-004
5.619809e-004,-1.796301e-004
6.733198e-004,-2.050744e-004
7.823899e-004,-2.546663e-004
9.334349e-004,-3.203028e-004
1.170699e-003,-3.896667e-004
1.537615e-003,-4.551411e-004
2.078591e-003,-5.228844e-004
2.757648e-003,-6.026205e-004
3.401862e-003,-6.993735e-004
3.780288e-003,-8.055263e-004
3.717731e-003,-9.042240e-004
3.146121e-003,-9.800706e-004
2.155734e-003,-1.022694e-003
9.721686e-004,-1.029176e-003
-1.185315e-004,-1.004218e-003
-8.786177e-004,-9.507368e-004
-1.213282e-003,-8.651663e-004
-1.134357e-003,-7.484793e-004
-7.249798e-004,-6.105618e-004
-1.149661e-004,-4.647030e-004
5.201680e-004,-3.157650e-004
9.554758e-004,-1.598582e-004
9.917784e-004,1.193106e-005
5.358884e-004,2.036543e-004
-3.309991e-004,4.132048e-004
-1.381668e-003,6.430136e-004
-2.373185e-003,9.063699e-004
-3.147210e-003,1.218184e-003
-3.653504e-003,1.568570e-003
-3.913783e-003,1.921387e-003
-3.956244e-003,2.237578e-003
-3.763223e-003,2.473384e-003
-3.302469e-003,2.575324e-003
-2.589704e-003,2.491535e-003
-1.708878e-003,2.205165e-003
-7.839716e-004,1.751218e-003
6.589881e-005,1.206029e-003
7.624558e-004,6.569512e-004
1.276366e-003,1.783722e-004
1.616866e-003,-1.896782e-004
1.819124e-003,-4.514136e-004
1.925601e-003,-6.322784e-004
1.952180e-003,-7.588515e-004
1.887029e-003,-8.572250e-004
1.719939e-003,-9.439299e-004
1.481054e-003,-1.024152e-003
1.245735e-003,-1.092058e-003
1.100524e-003,-1.132574e-003
1.103766e-003,-1.126254e-003
1.245735e-003,-1.057700e-003
1.438917e-003,-9.152445e-004
1.553822e-003,-6.907840e-004
1.484296e-003,-3.992286e-004
1.198898e-003,-8.952182e-005
7.562974e-004,1.709171e-004
2.615117e-004,3.281205e-004
-1.927574e-004,3.679886e-004
-5.612939e-004,3.089968e-004
-8.393979e-004,1.879340e-004
-1.049921e-003,5.131293e-005
-1.201776e-003,-6.294311e-005
-1.277460e-003,-1.400862e-004
-1.246506e-003,-1.865989e-004
-1.095461e-003,-2.186879e-004
-8.465288e-004,-2.523974e-004
-5.465459e-004,-2.955068e-004
-2.436459e-004,-3.407230e-004
3.867184e-005,-3.794566e-004
3.070520e-004,-4.138144e-004
5.812666e-004,-4.441207e-004
8.690949e-004,-4.695649e-004
1.153844e-003,-4.890127e-004
1.394025e-003,-5.034365e-004
1.540208e-003,-5.131605e-004
1.562411e-003,-5.154294e-004
1.468575e-003,-5.076503e-004
1.291600e-003,-4.904713e-004
1.070866e-003,-4.715097e-004
8.324681e-004,-4.525481e-004
5.952043e-004,-4.275900e-004
3.634508e-004,-3.896667e-004
1.316973e-004,-3.356990e-004
-1.154523e-004,-2.700626e-004
-4.016596e-004,-1.964849e-004
-7.538274e-004,-1.229073e-004
-1.170335e-003,-5.386745e-005
-1.594136e-003,4.962256e-006
-1.921184e-003,4.758544e-005
-2.036737e-003,7.092283e-005
-1.868513e-003,7.675719e-005
-1.424129e-003,7.173317e-005
-8.102261e-004,5.990240e-005
-1.922712e-004,4.239934e-005
2.867939e-004,1.517237e-005
5.809425e-004,-2.631635e-005
7.384701e-004,-8.206682e-005
8.452713e-004,-1.451102e-004
9.750857e-004,-2.065330e-004
1.123052e-003,-2.658489e-004
1.196143e-003,-3.228959e-004
1.093880e-003,-3.789704e-004
7.869277e-004,-4.374760e-004
3.358997e-004,-4.979264e-004
-1.541859e-004,-5.458976e-004
-5.700454e-004,-5.621042e-004
-8.413427e-004,-5.376323e-004
-9.761809e-004,-4.750752e-004
-1.046355e-003,-3.775118e-004
-1.129657e-003,-2.404046e-004
-1.262550e-003,-5.240886e-005
-1.420078e-003,1.926339e-004
-1.527689e-003,4.773827e-004
-1.497059e-003,7.644006e-004
-1.272761e-003,1.005392e-003
-8.612767e-004,1.153520e-003
-3.147926e-004,1.179288e-003
3.177483e-004,1.093069e-003
9.938853e-004,9.434829e-004
1.656248e-003,7.914655e-004
2.234336e-003,6.969814e-004
2.628481e-003,7.041122e-004
2.721345e-003,8.138305e-004
2.426709e-003,9.710341e-004
1.702112e-003,1.088694e-003
5.663566e-004,1.095662e-003
-8.311325e-004,9.721686e-004
-2.198316e-003,7.503009e-004
-3.250284e-003,4.909962e-004
-3.794340e-003,2.561635e-004
-3.776350e-003,8.097089e-005
-3.288694e-003,-2.388537e-005
-2.504620e-003,-6.650855e-005
-1.602725e-003,-7.299116e-005
-7.389174e-004,-6.504996e-005
-3.782299e-005,-5.565017e-005
4.276287e-004,-4.803310e-005
6.409067e-004,-4.592625e-005
6.400964e-004,-4.560212e-005
5.012063e-004,-3.814712e-005
2.884145e-004,-1.918548e-005
3.073064e-005,9.986280e-006
-2.598524e-004,4.434413e-005
-5.671282e-004,7.400208e-005
-8.536596e-004,9.101894e-005
-1.049921e-003,9.361198e-005
-1.064182e-003,8.615698e-005
-8.235155e-004,6.849186e-005
-3.186821e-004,3.656499e-005
3.856537e-004,-1.092015e-005
1.152061e-003,-7.137050e-005
1.807617e-003,-1.389517e-004
2.206785e-003,-2.096122e-004
2.263671e-003,-2.791382e-004
1.999017e-003,-3.468815e-004
1.556415e-003,-4.207833e-004
1.139906e-003,-5.076503e-004
9.044252e-004,-6.034308e-004
8.861118e-004,-6.933770e-004
1.016736e-003,-7.607962e-004
1.183340e-003,-7.870508e-004
1.284469e-003,-7.583653e-004
1.279931e-003,-6.724706e-004
1.183340e-003,-5.431426e-004
1.044936e-003,-3.838324e-004
9.253316e-004,-2.081536e-004
8.609916e-004,-2.858526e-005
8.477023e-004,1.391524e-004
8.439747e-004,2.838767e-004
7.972998e-004,4.010499e-004
6.671614e-004,4.948858e-004
4.584211e-004,5.720289e-004
2.318537e-004,6.410688e-004
6.622294e-005,7.075156e-004
2.369210e-006,7.718556e-004
2.716520e-005,8.274441e-004
9.750155e-005,8.493229e-004
1.692965e-004,8.099410e-004
2.187264e-004,6.986020e-004
2.321778e-004,5.329712e-004
2.046267e-004,3.482167e-004
1.409351e-004,1.798307e-004
5.309565e-005,4.871989e-005
-3.425755e-005,-3.911951e-005
-8.595638e-005,-9.098041e-005
-7.104637e-005,-1.175591e-004
7.231170e-006,-1.276072e-004
1.116012e-004,-1.264727e-004
1.880961e-004,-1.182074e-004
1.931201e-004,-1.149661e-004
1.166253e-004,-1.298761e-004
-9.299492e-006,-1.643960e-004
-1.321450e-004,-2.110708e-004
-2.089639e-004,-2.548284e-004
-2.157707e-004,-2.796244e-004
-1.347380e-004,-2.648765e-004
5.196120e-005,-1.934057e-004
3.540510e-004,-6.472583e-005
7.609972e-004,9.750155e-005
1.237146e-003,2.487085e-004
1.689309e-003,3.462718e-004
1.956880e-003,3.676645e-004
1.861261e-003,3.171001e-004
1.298407e-003,2.166196e-004
2.978143e-004,9.571883e-005
-9.718052e-004,-2.275091e-005
-2.258118e-003,-1.280934e-004
-3.342338e-003,-2.209568e-004
-4.057211e-003,-3.011791e-004
-4.305659e-003,-3.645466e-004
-4.088166e-003,-4.002010e-004
-3.495976e-003,-3.955011e-004
-2.669441e-003,-3.491504e-004
-1.717468e-003,-2.690902e-004
-6.898117e-004,-1.600202e-004
3.465960e-004,-1.967167e-005
1.221587e-003,1.410971e-004
1.748301e-003,2.905214e-004
1.813289e-003,3.874364e-004
1.427087e-003,3.994293e-004
7.379840e-004,3.308756e-004
-4.171255e-005,2.266676e-004
-7.257902e-004,1.404489e-004
-1.210365e-003,1.015532e-004
-1.466915e-003,1.070634e-004
-1.516507e-003,1.308870e-004
-1.407437e-003,1.415833e-004
-1.201452e-003,1.263492e-004
-9.656468e-004,8.777764e-005
-7.507481e-004,3.267542e-005
-5.781486e-004,-3.134038e-005
-4.439586e-004,-9.276313e-005
-3.259751e-004,-1.423551e-004
-1.958366e-004,-1.713648e-004
-3.717472e-005,-1.734716e-004
1.498487e-004,-1.436516e-004
3.603715e-004,-8.044616e-005
5.811046e-004,7.879431e-006
7.908173e-004,9.312579e-005
9.637411e-004,1.380179e-004
1.073460e-003,1.140322e-004
1.102631e-003,2.311357e-005
1.054660e-003,-1.039456e-004
9.724927e-004,-2.279256e-004
9.232247e-004,-3.228959e-004
9.635790e-004,-3.852910e-004
1.112517e-003,-4.199730e-004
1.338275e-003,-4.324520e-004
1.575215e-003,-4.363416e-004
1.753811e-003,-4.489826e-004
1.822041e-003,-4.841508e-004
1.763211e-003,-5.454115e-004
1.608600e-003,-6.219063e-004
1.416228e-003,-6.883531e-004
1.233742e-003,-7.206041e-004
1.076215e-003,-6.958080e-004
9.206317e-004,-6.016482e-004
7.251807e-004,-4.457413e-004
4.608521e-004,-2.468872e-004
1.242423e-004,-2.793700e-005
-2.739521e-004,2.039785e-004
-7.125008e-004,4.715484e-004
-1.135005e-003,8.133444e-004
-1.456705e-003,1.228232e-003
-1.617960e-003,1.641824e-003
-1.592191e-003,1.935649e-003
-1.377293e-003,2.009389e-003
-1.033390e-003,1.832089e-003
-6.697155e-004,1.459824e-003
-3.606571e-004,1.007499e-003
-1.128592e-004,5.916388e-004
9.977046e-005,2.867939e-004
2.678322e-004,1.004187e-004
3.211517e-004,-1.918548e-005
1.819376e-004,-1.371690e-004
-1.592099e-004,-2.878897e-004
-6.254717e-004,-4.702132e-004
-1.077958e-003,-6.509160e-004
-1.379886e-003,-7.872129e-004
-1.470804e-003,-8.538217e-004
-1.392041e-003,-8.410186e-004
-1.258823e-003,-7.577170e-004
-1.189297e-003,-6.186650e-004
-1.222358e-003,-4.418518e-004
-1.298853e-003,-2.473734e-004
-1.309873e-003,-6.618442e-005
-1.162232e-003,6.670914e-005
-8.102261e-004,1.269974e-004
-2.729797e-004,1.124116e-004
3.606957e-004,4.645098e-005
9.608240e-004,-3.182657e-005
1.376684e-003,-8.595638e-005
1.477165e-003,-9.681476e-005
1.218508e-003,-6.472583e-005
6.702406e-004,-2.330684e-006
-2.238345e-007,6.687120e-005
-5.439529e-004,1.171115e-004
-7.504240e-004,1.253768e-004
-5.424943e-004,8.372600e-005
6.258778e-006,6.582909e-006
6.984400e-004,-7.898758e-005
1.303268e-003,-1.502963e-004
1.656572e-003,-1.940539e-004
1.698871e-003,-2.105846e-004
1.469386e-003,-2.104225e-004
1.098256e-003,-2.089639e-004
7.582422e-004,-2.096122e-004
5.765667e-004,-2.118811e-004
5.765667e-004,-2.131776e-004
6.888781e-004,-2.083157e-004
8.029722e-004,-1.893540e-004
8.280923e-004,-1.514308e-004
7.363633e-004,-9.438377e-005
5.465847e-004,-1.837515e-005
2.782044e-004,6.832980e-005
-6.261898e-005,1.524417e-004
-4.622720e-004,2.229401e-004
-8.591698e-004,2.770700e-004
-1.126740e-003,3.098072e-004
-1.149591e-003,3.226103e-004
-9.128135e-004,3.200173e-004
-5.139708e-004,3.051073e-004
-1.331174e-004,2.775562e-004
6.849186e-005,2.373639e-004
3.397195e-005,1.858272e-004
-1.942160e-004,1.260251e-004
-5.295291e-004,6.265751e-005
-8.823452e-004,5.864920e-007
-1.166121e-003,-5.402952e-005
-1.312953e-003,-9.162867e-005
-1.304363e-003,-1.062145e-004
-1.163853e-003,-1.007043e-004
-9.332337e-004,-8.336334e-005
-6.523746e-004,-6.099833e-005
-3.438023e-004,-3.701266e-005
-2.469570e-005,-8.975361e-006
2.848491e-004,2.765140e-005
5.631153e-004,7.351588e-005
7.854691e-004,1.245665e-004
9.366762e-004,1.670276e-004
1.025164e-003,1.832341e-004
1.063411e-003,1.642725e-004
1.055308e-003,1.119254e-004
1.005554e-003,4.175108e-005
9.439691e-004,-2.388537e-005
9.138250e-004,-6.213279e-005
9.588792e-004,-5.905355e-005
1.100686e-003,-1.610623e-005
1.329685e-003,4.774750e-005
1.603414e-003,1.065772e-004
1.816368e-003,1.401247e-004
1.808103e-003,1.386661e-004
1.456421e-003,1.109530e-004
7.815795e-004,7.465034e-005
-5.192267e-005,4.175108e-005
-8.475012e-004,1.582063e-005
-1.467077e-003,-1.196226e-006
-1.844203e-003,-8.165034e-006
-1.956352e-003,-8.651231e-006
-1.789749e-003,-5.734055e-006
-1.342611e-003,-8.975361e-006
-6.561021e-004,-2.307504e-005
1.466074e-004,-3.928157e-005
8.825463e-004,-4.981582e-005
1.389974e-003,-6.035006e-005
1.595311e-003,-8.141856e-005
1.520436e-003,-1.193418e-004
1.248004e-003,-1.737958e-004
8.765499e-004,-2.387839e-004
4.896997e-004,-3.068514e-004
1.427178e-004,-3.666535e-004
-1.340898e-004,-4.057112e-004
-3.339163e-004,-4.123559e-004
-4.692408e-004,-3.896667e-004
-5.656697e-004,-3.465574e-004
-6.543194e-004,-2.917793e-004
-7.351899e-004,-2.272773e-004
-7.551239e-004,-1.475412e-004
-6.611261e-004,-5.370539e-005
-4.484964e-004,4.126489e-005
-1.587237e-004,1.174356e-004
1.462832e-004,1.663793e-004
4.102877e-004,1.906891e-004
6.125453e-004,2.007372e-004
7.587283e-004,2.127300e-004
8.621261e-004,2.386605e-004
9.149594e-004,2.837146e-004
8.823843e-004,3.448132e-004
7.297186e-004,4.089912e-004
4.512902e-004,4.533971e-004
7.546067e-005,4.555039e-004
-3.507711e-004,4.106118e-004
-7.883473e-004,3.302274e-004
-1.211338e-003,2.363915e-004
-1.589436e-003,1.540623e-004
-1.850524e-003,9.685329e-005
-1.903843e-003,6.654707e-005
-1.703854e-003,5.536457e-005
-1.282484e-003,5.196120e-005
-7.243315e-004,4.450619e-005
-1.337657e-004,2.732727e-005
3.893812e-004,2.855406e-006
7.548388e-004,-2.356124e-005
9.036148e-004,-5.127441e-005
8.165857e-004,-8.190475e-005
5.405883e-004,-1.157764e-004
1.765894e-004,-1.478653e-004
-1.616409e-004,-1.676373e-004
-3.778360e-004,-1.718510e-004
-4.191626e-004,-1.695821e-004
-2.809209e-004,-1.694200e-004
-6.220251e-006,-1.775233e-004
3.334687e-004,-1.940539e-004
6.525755e-004,-2.096122e-004
8.726603e-004,-2.075054e-004
9.407278e-004,-1.721751e-004
8.400852e-004,-9.130454e-005
6.125453e-004,5.115087e-005
3.640990e-004,2.621599e-004
1.905270e-004,5.298919e-004
9.847395e-005,8.224201e-004
-3.951337e-006,1.075728e-003
-2.358668e-004,1.206677e-003
-6.462161e-004,1.148982e-003
-1.183949e-003,8.885428e-004
-1.721033e-003,4.770586e-004
-2.107559e-003,1.225519e-005
-2.206419e-003,-3.989045e-004
-1.973855e-003,-6.872186e-004
-1.529634e-003,-8.358325e-004
-1.091085e-003,-8.693800e-004
-8.262706e-004,-8.215707e-004
-7.815406e-004,-7.167145e-004
-8.862347e-004,-5.784728e-004
-1.013132e-003,-4.340726e-004
-1.041655e-003,-3.104168e-004
-9.013068e-004,-2.248463e-004
-5.852795e-004,-1.721751e-004
-1.357104e-004,-1.342519e-004
3.582647e-004,-8.790116e-005
7.658592e-004,-1.724069e-005
9.674686e-004,8.518459e-005
9.113940e-004,2.133783e-004
6.271311e-004,3.454615e-004
2.062474e-004,4.627969e-004
-2.180396e-004,5.671670e-004
-5.121881e-004,6.785059e-004
-5.925724e-004,8.151271e-004
-4.522239e-004,9.872406e-004
-1.553203e-004,1.192902e-003
2.127300e-004,1.413473e-003
5.856425e-004,1.608924e-003
9.429968e-004,1.738901e-003
1.300027e-003,1.785414e-003
1.673264e-003,1.748139e-003
2.055902e-003,1.627400e-003
2.408882e-003,1.415904e-003
2.650684e-003,1.116731e-003
2.687798e-003,7.551629e-004
2.463498e-003,3.749574e-004
1.988644e-003,2.635488e-005
1.349781e-003,-2.476975e-004
6.895264e-004,-4.230522e-004
1.446626e-004,-5.035987e-004
-2.123673e-004,-5.167259e-004
-3.770256e-004,-4.948471e-004
-3.895047e-004,-4.705373e-004
-3.121995e-004,-4.723200e-004
-2.088019e-004,-5.149432e-004
-1.292278e-004,-5.988930e-004
-1.055663e-004,-7.150938e-004
-1.439758e-004,-8.489597e-004
-2.212809e-004,-9.833118e-004
-3.070135e-004,-1.102106e-003
-3.838324e-004,-1.195131e-003
-4.478482e-004,-1.254447e-003
-5.091088e-004,-1.276164e-003
-5.705316e-004,-1.258985e-003
-6.091031e-004,-1.207448e-003
-5.885208e-004,-1.134195e-003
-4.859335e-004,-1.047976e-003
-2.995584e-004,-9.484679e-004
-5.289506e-005,-8.272430e-004
2.077060e-004,-6.870566e-004
4.349216e-004,-5.345531e-004
5.990939e-004,-3.784843e-004
7.055708e-004,-2.314910e-004
7.927620e-004,-1.031353e-004
8.853014e-004,4.244267e-007
9.731409e-004,7.870197e-005
1.035698e-003,1.396385e-004
1.081401e-003,1.978200e-004
1.130669e-003,2.658874e-004
1.199709e-003,3.512959e-004
1.287062e-003,4.577728e-004
1.380412e-003,5.833735e-004
1.463389e-003,7.169154e-004
1.500665e-003,8.363576e-004
1.424169e-003,9.118802e-004
1.177992e-003,9.131767e-004
7.734763e-004,8.279303e-004
2.955454e-004,6.686199e-004
-1.101041e-004,4.629589e-004
-3.167374e-004,2.496809e-004
-3.160891e-004,6.638501e-005
-2.222533e-004,-6.278104e-005
-2.068571e-004,-1.415448e-004
-4.444448e-004,-1.940539e-004
-1.046679e-003,-2.421873e-004
-2.005782e-003,-2.972895e-004
-3.157583e-003,-3.640604e-004
-4.240184e-003,-4.319658e-004
-4.968349e-003,-4.904713e-004
-4.968511e-003,-5.347152e-004
-4.968349e-003,-5.672903e-004
-4.594462e-003,-5.890070e-004
-3.745234e-003,-5.998655e-004
-2.706067e-003,-5.940310e-004
-1.563182e-003,-5.664800e-004
-4.151110e-004,-5.146191e-004
6.120591e-004,-4.450931e-004
1.405046e-003,-3.728119e-004
1.914904e-003,-3.110651e-004
2.152979e-003,-2.587180e-004
2.174858e-003,-2.107467e-004
2.053309e-003,-1.618029e-004
1.851051e-003,-1.071869e-004
1.609735e-003,-4.770897e-005
1.361288e-003,6.744974e-006
1.120458e-003,4.191315e-005
8.838428e-004,5.179913e-005
6.504686e-004,4.207521e-005
4.354078e-004,1.792748e-005
2.504912e-004,-2.080613e-005
1.010670e-004,-8.028410e-005
-7.354708e-006,-1.627753e-004
-6.829127e-005,-2.664971e-004
-9.276313e-005,-3.762153e-004
-9.146661e-005,-4.742648e-004
-7.428768e-005,-5.400633e-004
-3.976777e-005,-5.455735e-004
2.133085e-005,-4.614617e-004
1.052807e-004,-2.721694e-004
1.927960e-004,3.179537e-006
2.632944e-004,3.049452e-004
3.044590e-004,5.619809e-004
3.083486e-004,7.250187e-004
2.746390e-004,7.869277e-004
2.143507e-004,7.718556e-004
1.490383e-004,7.222636e-004
1.041462e-004,6.893643e-004
9.814982e-005,7.099466e-004
1.331559e-004,7.807692e-004
2.072198e-004,8.587227e-004
3.140208e-004,8.857876e-004
4.303838e-004,8.297130e-004
5.169267e-004,6.955228e-004
5.383193e-004,5.117406e-004
4.882411e-004,3.153174e-004
3.820883e-004,1.365593e-004
2.491947e-004,-8.489165e-006
1.234320e-004,-1.126972e-004
3.494434e-005,-1.762267e-004
-7.100305e-007,-2.083157e-004
1.468617e-005,-2.229016e-004
6.768153e-005,-2.288980e-004
1.435281e-004,-2.378116e-004
2.274780e-004,-2.493182e-004
3.012177e-004,-2.554767e-004
3.514579e-004,-2.522354e-004
3.692851e-004,-2.433218e-004
3.556717e-004,-2.308428e-004
3.226103e-004,-2.112329e-004
2.858215e-004,-1.778474e-004
2.585945e-004,-1.243659e-004
2.417397e-004,-4.025397e-005
2.344468e-004,8.453633e-005
2.316917e-004,2.498430e-004
2.252090e-004,4.401077e-004
2.086784e-004,6.263208e-004
1.808031e-004,7.763934e-004
1.399627e-004,8.663398e-004
8.761556e-005,8.851393e-004
3.056858e-005,8.402472e-004
-1.837515e-005,7.577559e-004
-4.268495e-005,6.739681e-004
-4.203669e-005,6.127074e-004
-3.798505e-005,5.807804e-004
-6.391550e-005,5.747841e-004
-1.436516e-004,5.721910e-004
-2.553146e-004,5.384814e-004
-3.371576e-004,4.511281e-004
-3.384541e-004,3.135346e-004
-2.366771e-004,1.530900e-004
-4.349527e-005,-2.168618e-006
1.914994e-004,-1.366828e-004
4.089912e-004,-2.468872e-004
5.754323e-004,-3.314853e-004
6.998985e-004,-3.904771e-004
8.044308e-004,-4.258073e-004
8.887048e-004,-4.426621e-004
9.256557e-004,-4.523860e-004
8.900014e-004,-4.687546e-004
7.767176e-004,-5.021400e-004
5.979594e-004,-5.502734e-004
3.501614e-004,-6.006758e-004
8.365628e-006,-6.287130e-004
-4.476861e-004,-6.116962e-004
-9.886600e-004,-5.266119e-004
-1.516021e-003,-3.630880e-004
-1.906436e-003,-1.512687e-004
-2.068826e-003,5.763348e-005
-1.977259e-003,2.166196e-004
-1.684731e-003,2.974902e-004
-1.305822e-003,2.948972e-004
-9.560849e-004,2.292607e-004
-6.894875e-004,1.355869e-004
-4.763717e-004,5.260946e-005
-2.525595e-004,1.582063e-005
2.359977e-005,5.374392e-005
3.378445e-004,1.683241e-004
6.146522e-004,3.295791e-004
7.708832e-004,5.049338e-004
7.844967e-004,6.739681e-004
7.209671e-004,8.259855e-004
6.770473e-004,9.562862e-004
7.112431e-004,1.059684e-003
8.037825e-004,1.122241e-003
8.681225e-004,1.131965e-003
7.961654e-004,1.084480e-003
5.230852e-004,9.882130e-004
5.649903e-005,8.608295e-004
-5.267740e-004,7.238842e-004
-1.102592e-003,5.892079e-004
-1.552161e-003,4.532350e-004
-1.801093e-003,3.080244e-004
-1.833182e-003,1.477418e-004
-1.684893e-003,-3.701266e-005
-1.429640e-003,-2.449424e-004
-1.145215e-003,-4.559515e-004
-8.666248e-004,-6.465402e-004
-5.823624e-004,-7.925610e-004
-2.475355e-004,-8.815349e-004
1.955511e-004,-9.215650e-004
7.822278e-004,-9.348543e-004
1.490130e-003,-9.452265e-004
2.213754e-003,-9.690501e-004
2.809833e-003,-1.009566e-003
3.136235e-003,-1.058834e-003
3.087453e-003,-1.107130e-003
2.646470e-003,-1.146187e-003
1.920415e-003,-1.175521e-003
1.077835e-003,-1.197238e-003
3.112657e-004,-1.206638e-003
-1.702303e-004,-1.186056e-003
-2.543422e-004,-1.115395e-003
-7.678839e-006,-9.834738e-004
3.791711e-004,-7.933713e-004
7.065432e-004,-5.625904e-004
8.389507e-004,-3.141443e-004
7.577559e-004,-6.067420e-005
5.261644e-004,1.952270e-004
1.705930e-004,4.521005e-004
-3.431540e-004,6.998985e-004
-1.007784e-003,9.259799e-004
-1.701099e-003,1.117703e-003
-2.257632e-003,1.249787e-003
-2.552753e-003,1.296624e-003
-2.532495e-003,1.244601e-003
-2.227164e-003,1.110086e-003
-1.735619e-003,9.172283e-004
-1.175521e-003,6.866092e-004
-6.499436e-004,4.342734e-004
-2.279256e-004,1.770756e-004
6.832980e-005,-6.780506e-005
2.582704e-004,-2.780037e-004
3.448132e-004,-4.274279e-004
2.749631e-004,-4.906334e-004
-2.816880e-006,-4.425000e-004
-4.368277e-004,-2.708729e-004
-8.637077e-004,1.614476e-005
-1.084116e-003,3.866261e-004
-9.705087e-004,7.653730e-004
-5.277464e-004,1.049474e-003
1.260251e-004,1.156275e-003
8.016757e-004,1.056767e-003
1.323040e-003,7.801210e-004
1.593852e-003,4.076946e-004
1.603414e-003,3.510640e-005
1.409421e-003,-2.629317e-004
1.108466e-003,-4.574100e-004
7.911414e-004,-5.598352e-004
5.178991e-004,-6.000275e-004
3.088348e-004,-6.116962e-004
1.341283e-004,-6.215821e-004
-6.407756e-005,-6.426506e-004
-3.185201e-004,-6.867324e-004
-5.883588e-004,-7.638755e-004
-7.831612e-004,-8.664628e-004
-8.449081e-004,-9.674295e-004
-7.419966e-004,-1.030797e-003
-4.708614e-004,-1.020587e-003
-7.493595e-005,-9.129756e-004
3.457856e-004,-7.170386e-004
6.619752e-004,-4.700511e-004
7.681281e-004,-2.313289e-004
6.183797e-004,-6.391550e-005
2.500050e-004,-3.858999e-007
-2.243601e-004,-2.226472e-005
-6.632329e-004,-5.483985e-005
-9.742362e-004,1.306552e-005
-1.141974e-003,2.585945e-004
-1.192214e-003,6.775335e-004
-1.152346e-003,1.166971e-003
-1.041655e-003,1.572135e-003
-8.820211e-004,1.763373e-003
-6.969425e-004,1.699033e-003
-4.953333e-004,1.431624e-003
-2.715212e-004,1.067301e-003
-1.853721e-005,7.127018e-004
2.629703e-004,4.345975e-004
5.606844e-004,2.453051e-004
8.498091e-004,1.232699e-004
1.083994e-003,3.543053e-005
1.222074e-003,-4.414354e-005
1.280579e-003,-1.209625e-004
1.326606e-003,-1.891920e-004
1.424169e-003,-2.389460e-004
1.600821e-003,-2.677937e-004
1.834682e-003,-2.797865e-004
2.057523e-003,-2.793003e-004
2.177937e-003,-2.721694e-004
2.113597e-003,-2.668213e-004
1.818151e-003,-2.720073e-004
1.286576e-003,-2.901587e-004
5.441537e-004,-3.167374e-004
-3.721637e-004,-3.439643e-004
-1.390744e-003,-3.585502e-004
-2.401708e-003,-3.515814e-004
-3.261791e-003,-3.269475e-004
-3.828211e-003,-2.945344e-004
-4.022043e-003,-2.653627e-004
-3.846363e-003,-2.433218e-004
-3.375237e-003,-2.190120e-004
-2.723570e-003,-1.815749e-004
-1.995734e-003,-1.274451e-004
-1.242454e-003,-6.245691e-005
-4.577342e-004,-1.844488e-006
3.543751e-004,4.434413e-005
1.125483e-003,7.189524e-005
1.753649e-003,8.016056e-005
2.147469e-003,6.735740e-005
2.278256e-003,3.575467e-005
2.202085e-003,-3.858999e-007
2.012468e-003,-2.339917e-005
1.784604e-003,-2.583015e-005
1.561439e-003,-8.489165e-006
1.365016e-003,2.797553e-005
1.204084e-003,7.853991e-005
1.070704e-003,1.284560e-004
9.498034e-004,1.647587e-004
8.308474e-004,1.780480e-004
7.110811e-004,1.684862e-004
5.903423e-004,1.449867e-004
4.704139e-004,1.169494e-004
3.558337e-004,8.907416e-005
2.587565e-004,6.314371e-005
2.015475e-004,3.786152e-005
2.232642e-004,1.679302e-005
3.475684e-004,2.623614e-007
5.642498e-004,-1.189254e-005
8.441368e-004,-2.339917e-005
1.155465e-003,-3.782299e-005
1.479596e-003,-5.467778e-005
1.810048e-003,-7.120844e-005
2.130290e-003,-8.093235e-005
2.380358e-003,-7.736692e-005
2.428492e-003,-5.856734e-005
2.088153e-003,-2.939559e-005
1.245411e-003,4.476060e-006
-8.651231e-006,3.526847e-005
-1.375348e-003,6.200925e-005
-2.542543e-003,8.113296e-005
-3.333424e-003,8.923622e-005
-3.718979e-003,8.340186e-005
-3.753337e-003,6.816773e-005
-3.502134e-003,5.082674e-005
-3.024364e-003,3.656499e-005
-2.365567e-003,2.748933e-005
-1.573392e-003,2.359977e-005
-7.512344e-004,2.441009e-005
-7.185670e-005,3.202716e-005
2.786906e-004,4.239934e-005
1.764274e-004,4.774750e-005
-3.476918e-004,4.191315e-005
-1.075203e-003,2.603075e-005
-1.695751e-003,8.365628e-006
-1.957163e-003,-3.789271e-006
-1.769815e-003,-8.720958e-007
-1.228355e-003,1.744128e-005
-5.275843e-004,4.855782e-005
1.229458e-004,9.101894e-005
5.686256e-004,1.451487e-004
7.611593e-004,2.043026e-004
7.426838e-004,2.535705e-004
5.948801e-004,2.795009e-004
4.328148e-004,2.765838e-004
3.559958e-004,2.532463e-004
4.062360e-004,2.205091e-004
5.720289e-004,1.905270e-004
8.060514e-004,1.684862e-004
1.063574e-003,1.563313e-004
1.342488e-003,1.477418e-004
1.678937e-003,1.365593e-004
2.108898e-003,1.122495e-004
2.610654e-003,6.687120e-005
3.070436e-003,-4.275467e-006
3.346111e-003,-1.016767e-004
3.360373e-003,-2.141500e-004
3.123270e-003,-3.258130e-004
2.685366e-003,-4.253211e-004
2.077132e-003,-5.045710e-004
1.318665e-003,-5.700454e-004
4.731690e-004,-6.288751e-004
-3.256510e-004,-6.810601e-004
-9.380956e-004,-7.120146e-004
-1.298853e-003,-6.949977e-004
-1.430774e-003,-6.105618e-004
-1.422671e-003,-4.541687e-004
-1.383937e-003,-2.381357e-004
-1.405492e-003,1.290346e-005
-1.534334e-003,2.739907e-004
-1.758632e-003,5.310263e-004
-2.009672e-003,7.700729e-004
-2.168010e-003,9.703858e-004
-2.104480e-003,1.107817e-003
-1.760091e-003,1.173778e-003
-1.185245e-003,1.183826e-003
-5.099192e-004,1.156761e-003
1.000946e-004,1.103766e-003
5.091476e-004,1.024192e-003
6.644062e-004,9.169042e-004
6.028214e-004,7.866035e-004
3.994293e-004,6.439860e-004
1.090082e-004,4.971547e-004
-2.374874e-004,3.568061e-004
-6.011620e-004,2.365536e-004
-9.102204e-004,1.448246e-004
-1.080713e-003,8.712937e-005
-1.060617e-003,6.622294e-005
-8.583595e-004,7.935023e-005
-5.431426e-004,1.292664e-004
-2.071812e-004,2.169437e-004
6.881599e-005,3.308756e-004
2.297469e-004,4.397836e-004
2.495188e-004,5.070407e-004
1.263492e-004,5.052580e-004
-7.850138e-005,4.206599e-004
-2.511009e-004,2.600531e-004
-2.961551e-004,4.661304e-005
-1.903264e-004,-1.825473e-004
1.873781e-005,-3.955011e-004
2.602152e-004,-5.700454e-004
4.974788e-004,-6.961322e-004
7.540284e-004,-7.640375e-004
1.059036e-003,-7.680892e-004
1.390460e-003,-7.039113e-004
1.659489e-003,-5.656697e-004
1.748625e-003,-3.656811e-004
1.578294e-003,-1.507825e-004
1.168106e-003,1.387585e-005
6.316690e-004,7.821578e-005
8.615698e-005,4.158902e-005
-4.378001e-004,-5.500191e-005
-9.953047e-004,-1.593720e-004
-1.634814e-003,-2.334358e-004
-2.324565e-003,-2.600145e-004
-2.938145e-003,-2.392702e-004
-3.304414e-003,-1.840059e-004
-3.283670e-003,-1.209625e-004
-2.830534e-003,-7.558420e-005
-2.021665e-003,-6.213279e-005
-1.030473e-003,-8.206682e-005
-7.882551e-005,-1.276072e-004
6.524133e-004,-1.904885e-004
1.096473e-003,-2.630937e-004
1.315585e-003,-3.515814e-004
1.430652e-003,-4.651892e-004
1.507471e-003,-5.950034e-004
1.530485e-003,-7.133111e-004
1.452045e-003,-7.875370e-004
1.245087e-003,-8.039056e-004
9.284109e-004,-7.766786e-004
5.507984e-004,-7.397278e-004
1.718895e-004,-7.219006e-004
-1.517549e-004,-7.290315e-004
-3.732981e-004,-7.442656e-004
-4.603272e-004,-7.441035e-004
-4.065215e-004,-7.095836e-004
-2.387839e-004,-6.254717e-004
-3.627206e-006,-4.916058e-004
2.516257e-004,-3.207890e-004
4.914824e-004,-1.284175e-004
7.033019e-004,7.448828e-005
8.763878e-004,2.769079e-004
9.822166e-004,4.649037e-004
9.835131e-004,6.143280e-004
8.527263e-004,7.068673e-004
6.101142e-004,7.441424e-004
3.273102e-004,7.520836e-004
8.161915e-005,7.691005e-004
-7.769105e-005,8.253373e-004
-1.457585e-004,9.207938e-004
-1.459205e-004,1.023868e-003
-1.198280e-004,1.094366e-003
-1.167488e-004,1.107169e-003
-1.791439e-004,1.054012e-003
-3.282440e-004,9.395934e-004
-5.420081e-004,7.832002e-004
-7.656582e-004,6.054144e-004
-9.411749e-004,4.243874e-004
-1.023342e-003,2.592428e-004
-9.790981e-004,1.257009e-004
-8.034194e-004,3.283749e-005
-5.146191e-004,-2.064406e-005
-1.430034e-004,-4.349527e-005
2.675081e-004,-5.046408e-005
6.645683e-004,-5.516398e-005
9.946957e-004,-6.537409e-005
1.208136e-003,-8.433573e-005
1.273935e-003,-1.131834e-004
1.197926e-003,-1.421931e-004
1.022571e-003,-1.630995e-004
8.052411e-004,-1.747682e-004
5.846700e-004,-1.836818e-004
3.485408e-004,-1.917850e-004
3.494434e-005,-1.998883e-004
-4.112214e-004,-2.034537e-004
-9.917392e-004,-1.992400e-004
-1.610343e-003,-1.940539e-004
-2.097349e-003,-1.995642e-004
-2.290045e-003,-2.220912e-004
-2.110800e-003,-2.574215e-004
-1.598188e-003,-2.982619e-004
-8.797522e-004,-3.363473e-004
-1.097800e-004,-3.621157e-004
5.817529e-004,-3.703810e-004
1.122565e-003,-3.658432e-004
1.503582e-003,-3.604950e-004
1.740035e-003,-3.674638e-004
1.840354e-003,-3.895047e-004
1.807941e-003,-4.217557e-004
1.661434e-003,-4.609755e-004
1.438269e-003,-5.047331e-004
1.186581e-003,-5.484907e-004
9.530449e-004,-5.878726e-004
7.725038e-004,-6.241752e-004
6.622994e-004,-6.476747e-004
6.153004e-004,-6.390853e-004
6.128695e-004,-5.818761e-004
6.311828e-004,-4.681063e-004
6.357207e-004,-3.047445e-004
