-4.044570e-003,-3.053928e-004
-3.340555e-003,-1.238889e-003
-2.463779e-003,-2.022961e-003
-1.518776e-003,-2.571715e-003
-6.186650e-004,-2.844634e-003
1.704310e-004,-2.837341e-003
8.614778e-004,-2.572849e-003
1.556901e-003,-2.125873e-003
2.325255e-003,-1.620066e-003
3.091991e-003,-1.164501e-003
3.688883e-003,-7.930472e-004
4.013665e-003,-4.515757e-004
4.049320e-003,-5.500191e-005
3.848033e-003,4.300596e-004
3.515147e-003,9.345693e-004
3.172052e-003,1.352212e-003
2.897673e-003,1.632262e-003
2.740307e-003,1.795138e-003
2.729611e-003,1.884760e-003
2.852295e-003,1.893188e-003
3.067681e-003,1.770504e-003
3.337684e-003,1.493371e-003
3.631835e-003,1.111059e-003
3.892439e-003,7.149706e-004
4.000538e-003,3.901916e-004
3.843170e-003,1.798307e-004
3.419852e-003,7.951231e-005
2.820367e-003,6.978838e-005
2.115380e-003,1.315353e-004
1.319151e-003,2.307192e-004
4.480489e-004,3.159656e-004
-4.045767e-004,3.394651e-004
-1.077472e-003,2.835526e-004
-1.442767e-003,1.584381e-004
-1.458812e-003,-1.562004e-005
-1.188000e-003,-2.224154e-004
-7.697098e-004,-4.484964e-004
-3.525538e-004,-6.711741e-004
-4.722277e-005,-8.603043e-004
1.013911e-004,-1.000977e-003
1.205148e-004,-1.103564e-003
7.578480e-005,-1.192376e-003
1.598270e-005,-1.280215e-003
-4.900549e-005,-1.352983e-003
-1.258244e-004,-1.395120e-003
-2.128535e-004,-1.416837e-003
-3.026377e-004,-1.467239e-003
-3.888564e-004,-1.605805e-003
-4.549791e-004,-1.867540e-003
-4.553032e-004,-2.238994e-003
-3.566054e-004,-2.662796e-003
-1.571030e-004,-3.047702e-003
1.153287e-004,-3.288694e-003
4.041292e-004,-3.311059e-003
6.447963e-004,-3.089353e-003
7.969757e-004,-2.641079e-003
8.564538e-004,-1.999137e-003
8.426782e-004,-1.211824e-003
7.545147e-004,-3.767015e-004
5.608465e-004,3.428685e-004
2.438465e-004,7.913035e-004
-1.737958e-004,9.169042e-004
-6.353577e-004,7.825519e-004
-1.106968e-003,5.135234e-004
-1.593488e-003,2.138645e-004
-2.107397e-003,-7.023605e-005
-2.603480e-003,-2.998826e-004
-2.966020e-003,-4.188385e-004
-3.075253e-003,-3.749188e-004
-2.876560e-003,-1.506204e-004
-2.398791e-003,2.315296e-004
-1.731405e-003,7.362012e-004
-9.917392e-004,1.337302e-003
-2.959930e-004,1.999827e-003
2.694529e-004,2.657653e-003
6.595443e-004,3.226020e-003
8.780085e-004,3.610118e-003
9.540172e-004,3.708169e-003
9.256557e-004,3.445458e-003
8.410575e-004,2.836574e-003
7.584042e-004,2.018464e-003
7.284220e-004,1.194685e-003
7.619696e-004,5.438296e-004
8.342508e-004,1.686482e-004
9.141491e-004,1.026876e-004
9.757340e-004,3.122381e-004
9.950198e-004,6.828816e-004
9.512621e-004,1.062277e-003
8.308474e-004,1.316234e-003
6.328034e-004,1.361612e-003
3.807918e-004,1.183178e-003
1.030118e-004,8.308474e-004
-2.003745e-004,4.026706e-004
-5.468701e-004,5.448451e-006
-9.137859e-004,-2.844864e-004
-1.243913e-003,-4.509274e-004
-1.490576e-003,-5.258016e-004
-1.603860e-003,-5.507596e-004
-1.503379e-003,-5.303394e-004
-1.120581e-003,-4.655133e-004
-4.598410e-004,-4.014975e-004
3.546993e-004,-4.258073e-004
1.090963e-003,-6.219063e-004
1.530971e-003,-1.021883e-003
1.575053e-003,-1.594622e-003
1.272152e-003,-2.262818e-003
7.702350e-004,-2.937335e-003
2.206712e-004,-3.537465e-003
-2.844864e-004,-4.000326e-003
-6.906220e-004,-4.286373e-003
-9.115170e-004,-4.376644e-003
-8.246499e-004,-4.276811e-003
-3.624398e-004,-3.993195e-003
4.123945e-004,-3.530820e-003
1.315585e-003,-2.884826e-003
2.075026e-003,-2.020206e-003
2.388299e-003,-8.773212e-004
2.014251e-003,5.613326e-004
9.159318e-004,2.112787e-003
-6.366542e-004,3.514337e-003
-2.124738e-003,4.533415e-003
-3.144293e-003,4.958843e-003
-3.519800e-003,4.958681e-003
-3.307493e-003,4.958681e-003
-2.707202e-003,4.701641e-003
-1.938687e-003,4.436174e-003
-1.180383e-003,4.146885e-003
-5.603214e-004,3.790661e-003
-1.394379e-004,3.351784e-003
8.761556e-005,2.859102e-003
1.558451e-004,2.353617e-003
9.669123e-005,1.855426e-003
-5.953974e-005,1.359019e-003
-2.647144e-004,8.593709e-004
-4.572480e-004,3.749574e-004
-5.765280e-004,-5.565017e-005
-5.729626e-004,-4.000389e-004
-4.405552e-004,-6.494574e-004
-2.280877e-004,-8.144398e-004
1.290346e-005,-9.223753e-004
2.623220e-004,-9.948185e-004
5.313505e-004,-1.033714e-003
8.246890e-004,-1.021235e-003
1.120945e-003,-9.463609e-004
1.360964e-003,-8.162226e-004
1.459662e-003,-6.541573e-004
1.353347e-003,-4.880404e-004
1.033916e-003,-3.344025e-004
5.595500e-004,-1.945401e-004
3.769945e-005,-5.095028e-005
-4.219177e-004,1.081979e-004
-7.442656e-004,2.900352e-004
-8.945001e-004,4.918065e-004
-8.868830e-004,7.010330e-004
-7.624169e-004,8.841670e-004
-5.494631e-004,9.760581e-004
-2.716832e-004,9.002115e-004
2.667901e-005,6.125453e-004
2.773941e-004,1.221355e-004
4.511281e-004,-5.157535e-004
5.903423e-004,-1.212472e-003
7.391184e-004,-1.878399e-003
9.049113e-004,-2.461348e-003
1.055632e-003,-2.925991e-003
1.150116e-003,-3.213657e-003
1.176533e-003,-3.258712e-003
1.132613e-003,-3.038464e-003
9.760581e-004,-2.612555e-003
6.423653e-004,-2.107559e-003
1.448246e-004,-1.644538e-003
-3.611433e-004,-1.277784e-003
-6.535090e-004,-1.010053e-003
-5.972724e-004,-8.134674e-004
-2.151224e-004,-6.473506e-004
3.239068e-004,-5.031124e-004
8.045929e-004,-4.374760e-004
1.086425e-003,-5.228844e-004
1.151899e-003,-7.765166e-004
1.078484e-003,-1.126415e-003
9.681169e-004,-1.435312e-003
8.890289e-004,-1.566261e-003
8.618019e-004,-1.451843e-003
8.820601e-004,-1.118799e-003
9.376486e-004,-6.577227e-004
1.005230e-003,-1.747682e-004
1.045908e-003,2.423880e-004
1.018357e-003,5.332953e-004
9.100975e-004,6.645683e-004
7.428459e-004,6.266450e-004
5.566327e-004,4.365423e-004
3.948915e-004,1.449867e-004
2.892249e-004,-1.968091e-004
2.423880e-004,-5.536768e-004
2.488706e-004,-9.173513e-004
2.971661e-004,-1.298691e-003
3.652335e-004,-1.678086e-003
4.208219e-004,-1.956838e-003
4.242253e-004,-1.984876e-003
3.329825e-004,-1.617960e-003
1.281319e-004,-7.885094e-004
-1.515928e-004,4.443214e-004
-4.420138e-004,1.842461e-003
-6.810601e-004,3.104308e-003
-8.235155e-004,3.966017e-003
-8.428013e-004,4.282049e-003
-7.483172e-004,4.078816e-003
-5.898174e-004,3.531840e-003
-4.389346e-004,2.859264e-003
-3.577399e-004,2.195279e-003
-3.937184e-004,1.572460e-003
-5.820383e-004,1.019005e-003
-9.278855e-004,6.266450e-004
-1.384099e-003,4.922927e-004
-1.873861e-003,5.963388e-004
-2.323592e-003,8.002171e-004
-2.664092e-003,9.499656e-004
-2.839934e-003,9.718444e-004
-2.826806e-003,8.942151e-004
-2.607531e-003,8.206373e-004
-2.176761e-003,8.532125e-004
-1.563182e-003,1.022085e-003
-8.348601e-004,1.283821e-003
-7.736692e-005,1.550419e-003
6.232416e-004,1.723667e-003
1.216239e-003,1.731446e-003
1.701464e-003,1.551229e-003
2.102577e-003,1.207326e-003
2.404992e-003,7.644006e-004
2.520707e-003,3.153174e-004
2.343569e-003,-5.581224e-005
1.859316e-003,-3.157650e-004
1.165351e-003,-4.935506e-004
4.073705e-004,-6.460540e-004
-2.838381e-004,-8.123330e-004
-8.332395e-004,-9.948185e-004
-1.234351e-003,-1.155911e-003
-1.521531e-003,-1.228517e-003
-1.732378e-003,-1.169687e-003
-1.884557e-003,-1.023666e-003
-1.958783e-003,-8.962828e-004
-1.890067e-003,-8.481494e-004
-1.616987e-003,-8.387496e-004
-1.158018e-003,-7.500999e-004
-6.246614e-004,-4.698891e-004
-1.660166e-004,5.034054e-005
1.163011e-004,7.363633e-004
2.004130e-004,1.416552e-003
1.401247e-004,1.913122e-003
2.457216e-005,2.140662e-003
-5.710876e-005,2.146335e-003
-5.565017e-005,2.067246e-003
1.679302e-005,2.026568e-003
1.052807e-004,2.068219e-003
1.603829e-004,2.145524e-003
1.689724e-004,2.147955e-003
1.537382e-004,1.974383e-003
1.394765e-004,1.611841e-003
1.414213e-004,1.121917e-003
1.639483e-004,5.820770e-004
2.190506e-004,4.855782e-005
3.224483e-004,-4.507653e-004
4.749518e-004,-8.987138e-004
6.503065e-004,-1.272761e-003
8.131823e-004,-1.545030e-003
9.405658e-004,-1.694455e-003
1.024840e-003,-1.712768e-003
1.066329e-003,-1.604994e-003
1.060980e-003,-1.380696e-003
1.013819e-003,-1.043924e-003
9.352176e-004,-6.199615e-004
8.280923e-004,-1.854645e-004
6.951987e-004,1.409351e-004
5.435054e-004,2.739907e-004
3.833848e-004,1.927960e-004
2.260194e-004,-8.206682e-005
9.037068e-005,-5.091088e-004
-8.813297e-006,-1.040683e-003
-7.185670e-005,-1.609370e-003
-1.097800e-004,-2.128304e-003
-1.233935e-004,-2.517747e-003
-1.028112e-004,-2.725353e-003
-2.631635e-005,-2.736049e-003
1.331559e-004,-2.574146e-003
3.965121e-004,-2.285183e-003
7.447907e-004,-1.911136e-003
1.096473e-003,-1.470966e-003
1.325309e-003,-9.688881e-004
1.316072e-003,-4.172178e-004
1.031484e-003,1.459591e-004
5.473950e-004,6.426895e-004
-3.303075e-006,9.964784e-004
-5.052193e-004,1.191119e-003
-8.745661e-004,1.273286e-003
-1.018804e-003,1.308617e-003
-8.878554e-004,1.327092e-003
-5.232086e-004,1.301486e-003
-3.150244e-005,1.175399e-003
4.723587e-004,9.097733e-004
8.937289e-004,5.127130e-004
1.169078e-003,4.077869e-005
1.297758e-003,-4.290486e-004
1.317692e-003,-8.322670e-004
1.237308e-003,-1.129333e-003
1.031971e-003,-1.301122e-003
7.083260e-004,-1.350390e-003
3.166139e-004,-1.299987e-003
-1.109144e-004,-1.167256e-003
-5.833348e-004,-9.625675e-004
-1.090761e-003,-7.043975e-004
-1.548758e-003,-4.441207e-004
-1.831238e-003,-2.771934e-004
-1.847444e-003,-3.036101e-004
-1.571771e-003,-5.604835e-004
-1.054459e-003,-9.799085e-004
-4.254832e-004,-1.401278e-003
1.501728e-004,-1.641783e-003
5.410744e-004,-1.592515e-003
7.196706e-004,-1.263037e-003
7.635903e-004,-7.551239e-004
7.994067e-004,-1.849783e-004
9.374865e-004,3.702575e-004
1.225477e-003,9.084768e-004
1.621565e-003,1.474086e-003
2.021544e-003,2.085398e-003
2.351348e-003,2.667053e-003
2.599309e-003,3.051474e-003
2.795571e-003,3.083401e-003
2.900915e-003,2.720697e-003
2.719076e-003,2.077295e-003
2.010523e-003,1.353185e-003
6.953607e-004,7.300427e-004
-1.046193e-003,3.054314e-004
-2.777052e-003,1.039842e-004
-4.152506e-003,9.717742e-005
-4.968349e-003,2.276400e-004
-4.968349e-003,4.326527e-004
-4.968674e-003,6.491721e-004
-4.478908e-003,8.083204e-004
-3.694669e-003,8.548331e-004
-2.841230e-003,7.637523e-004
-2.057319e-003,5.470709e-004
-1.409706e-003,2.584324e-004
-8.635456e-004,-3.215070e-005
-3.297026e-004,-2.592042e-004
2.423880e-004,-3.864254e-004
8.139926e-004,-4.060353e-004
1.291600e-003,-3.418575e-004
1.597904e-003,-2.389460e-004
1.698871e-003,-1.404103e-004
1.604386e-003,-8.401160e-005
1.371984e-003,-9.292519e-005
1.097607e-003,-1.640719e-004
8.853014e-004,-2.783279e-004
8.037825e-004,-4.087905e-004
8.671501e-004,-5.334187e-004
1.039264e-003,-6.405438e-004
1.250111e-003,-7.246557e-004
1.436162e-003,-7.860784e-004
1.565977e-003,-8.264327e-004
1.631613e-003,-8.494459e-004
1.627076e-003,-8.573871e-004
1.547988e-003,-8.518769e-004
1.405370e-003,-8.314567e-004
1.227746e-003,-7.914265e-004
1.065356e-003,-7.382691e-004
9.809200e-004,-6.899737e-004
1.005878e-003,-6.591813e-004
1.103117e-003,-6.468644e-004
1.141527e-003,-6.515642e-004
9.449415e-004,-6.637191e-004
4.384870e-004,-6.543194e-004
-3.065272e-004,-5.799314e-004
-1.146025e-003,-4.055491e-004
-1.974666e-003,-1.327932e-004
-2.703798e-003,2.125679e-004
-3.187565e-003,5.929354e-004
-3.259198e-003,9.650376e-004
-2.855816e-003,1.277014e-003
-2.109828e-003,1.481054e-003
-1.287833e-003,1.542639e-003
-6.439472e-004,1.430814e-003
-3.128478e-004,1.140231e-003
-2.741142e-004,7.039502e-004
-3.885323e-004,1.825858e-004
-4.706994e-004,-3.588744e-004
-3.953390e-004,-8.619250e-004
-1.600202e-004,-1.296098e-003
1.676758e-004,-1.652480e-003
4.955340e-004,-1.934473e-003
7.054087e-004,-2.137866e-003
6.937401e-004,-2.239967e-003
4.081808e-004,-2.207068e-003
-1.169109e-004,-2.030902e-003
-7.392415e-004,-1.749070e-003
-1.289615e-003,-1.432719e-003
-1.660907e-003,-1.130953e-003
-1.819407e-003,-8.369669e-004
-1.776622e-003,-4.979264e-004
-1.564478e-003,-4.722277e-005
-1.220738e-003,5.605223e-004
-7.912645e-004,1.299541e-003
-3.225717e-004,2.074864e-003
1.385041e-004,2.752462e-003
5.483674e-004,3.227479e-003
8.728224e-004,3.471713e-003
1.079618e-003,3.486785e-003
1.145903e-003,3.264592e-003
1.075566e-003,2.789899e-003
9.120423e-004,2.072595e-003
7.331220e-004,1.185285e-003
6.269691e-004,2.699391e-004
6.481997e-004,-5.144570e-004
8.034584e-004,-1.077958e-003
1.067625e-003,-1.442443e-003
1.389001e-003,-1.695913e-003
1.705516e-003,-1.931232e-003
1.943266e-003,-2.190213e-003
2.000313e-003,-2.456486e-003
1.776176e-003,-2.675761e-003
1.248976e-003,-2.792124e-003
5.337815e-004,-2.784831e-003
-1.590478e-004,-2.680299e-003
-6.301716e-004,-2.525040e-003
-7.927230e-004,-2.336234e-003
-6.912702e-004,-2.070446e-003
-4.619479e-004,-1.629466e-003
-2.556388e-004,-9.239960e-004
-1.614788e-004,3.105477e-005
-1.927574e-004,1.056929e-003
-3.185201e-004,1.940835e-003
-4.938747e-004,2.580510e-003
-6.672845e-004,3.012416e-003
-7.729511e-004,3.334118e-003
-7.476689e-004,3.612549e-003
-5.864140e-004,3.846412e-003
-3.510952e-004,3.984493e-003
-1.253383e-004,3.998268e-003
3.137890e-005,3.910590e-003
8.599491e-005,3.753223e-003
2.522042e-005,3.533947e-003
-1.285796e-004,3.240768e-003
-3.143064e-004,2.840626e-003
-4.612996e-004,2.298515e-003
-5.180224e-004,1.612328e-003
-4.520619e-004,8.413817e-004
-2.204706e-004,1.159770e-004
2.192126e-004,-4.133283e-004
8.279303e-004,-6.544814e-004
1.464524e-003,-6.176926e-004
1.975193e-003,-4.141386e-004
2.251191e-003,-2.216050e-004
2.199006e-003,-1.955125e-004
1.724639e-003,-3.969597e-004
7.958413e-004,-7.757063e-004
-4.569239e-004,-1.191080e-003
-1.695751e-003,-1.493493e-003
-2.576415e-003,-1.576957e-003
-2.879153e-003,-1.413271e-003
-2.586949e-003,-1.064345e-003
-1.883747e-003,-6.462161e-004
-1.036956e-003,-2.562870e-004
-2.653627e-004,8.307774e-005
3.247172e-004,4.029947e-004
7.336082e-004,7.169154e-004
1.007013e-003,9.828649e-004
1.183664e-003,1.141689e-003
1.284145e-003,1.155141e-003
1.314127e-003,1.022733e-003
1.265993e-003,7.733142e-004
1.128400e-003,4.499937e-004
8.963219e-004,1.005808e-004
5.862907e-004,-2.225774e-004
2.355812e-004,-4.770199e-004
-1.240417e-004,-6.445954e-004
-4.674581e-004,-7.230350e-004
-7.770028e-004,-7.199558e-004
-1.039549e-003,-6.429748e-004
-1.229003e-003,-5.016539e-004
-1.296584e-003,-3.091203e-004
-1.189459e-003,-9.746302e-005
-8.829935e-004,8.307774e-005
-4.044147e-004,1.872858e-004
1.848548e-004,1.919856e-004
8.357094e-004,1.046324e-004
1.535346e-003,-3.830918e-005
2.245519e-003,-1.747682e-004
2.886167e-003,-2.433218e-004
3.362642e-003,-2.186879e-004
3.603474e-003,-1.413827e-004
3.567332e-003,-8.530812e-005
3.243847e-003,-1.029732e-004
2.686501e-003,-2.011848e-004
2.007444e-003,-3.463953e-004
1.325471e-003,-4.744269e-004
7.238842e-004,-5.115398e-004
2.359053e-004,-4.193247e-004
-1.543479e-004,-2.335979e-004
-5.219121e-004,-4.625038e-005
-9.747224e-004,6.978838e-005
-1.568692e-003,9.847395e-005
-2.231701e-003,4.126489e-005
-2.806386e-003,-1.431654e-004
-3.165199e-003,-5.175362e-004
-3.268273e-003,-1.084603e-003
-3.142834e-003,-1.768680e-003
-2.827293e-003,-2.455028e-003
-2.313058e-003,-3.034574e-003
-1.583440e-003,-3.429367e-003
-6.985632e-004,-3.598564e-003
1.573037e-004,-3.535034e-003
7.193464e-004,-3.248340e-003
8.047549e-004,-2.731188e-003
4.250356e-004,-1.955056e-003
-2.049123e-004,-9.158927e-004
-7.492896e-004,3.145071e-004
-9.262649e-004,1.521895e-003
-6.504298e-004,2.476139e-003
-7.039811e-005,3.032026e-003
5.156302e-004,3.174321e-003
8.233925e-004,2.991023e-003
7.358771e-004,2.592989e-003
3.287688e-004,2.073405e-003
-1.992400e-004,1.507309e-003
-6.313060e-004,9.622825e-004
-8.314567e-004,4.987753e-004
-7.737615e-004,1.571416e-004
-5.248292e-004,-4.787104e-005
-1.984297e-004,-1.357104e-004
1.070634e-004,-1.491618e-004
3.305515e-004,-1.394379e-004
4.499937e-004,-1.475412e-004
4.715484e-004,-1.883817e-004
4.294114e-004,-2.475355e-004
3.684748e-004,-2.948585e-004
3.245551e-004,-3.102547e-004
3.098072e-004,-2.987481e-004
3.073762e-004,-2.720073e-004
2.850111e-004,-2.425115e-004
2.287745e-004,-2.229016e-004
1.482280e-004,-2.220912e-004
5.293359e-005,-2.365150e-004
-5.840528e-005,-2.538560e-004
-1.809267e-004,-2.656868e-004
-2.851347e-004,-2.690902e-004
-3.420196e-004,-2.682798e-004
-3.538503e-004,-2.744383e-004
-3.562813e-004,-2.953447e-004
-3.890185e-004,-3.376438e-004
-4.684305e-004,-4.014975e-004
-5.836589e-004,-4.836646e-004
-6.799257e-004,-5.830106e-004
-6.744154e-004,-6.867324e-004
-5.034365e-004,-7.697098e-004
-1.493239e-004,-8.163846e-004
3.590750e-004,-8.295119e-004
9.546655e-004,-8.233534e-004
1.556577e-003,-8.231914e-004
2.018951e-003,-8.484736e-004
2.140500e-003,-9.001723e-004
1.770342e-003,-9.612710e-004
9.220903e-004,-9.962771e-004
-1.974573e-004,-9.431196e-004
-1.274543e-003,-7.419966e-004
-2.064936e-003,-3.875599e-004
-2.441901e-003,4.726130e-005
-2.412405e-003,4.414042e-004
-2.080818e-003,6.981159e-004
-1.592839e-003,7.956792e-004
-1.076013e-003,7.911414e-004
-6.066721e-004,7.815795e-004
-2.232257e-004,8.410575e-004
6.654707e-005,9.823786e-004
2.696149e-004,1.162758e-003
3.971604e-004,1.314289e-003
4.663623e-004,1.367284e-003
5.023408e-004,1.283334e-003
5.279472e-004,1.066329e-003
5.559844e-004,7.550008e-004
5.871010e-004,4.085050e-004
6.141660e-004,6.136099e-005
6.263208e-004,-2.950206e-004
6.281036e-004,-6.543194e-004
6.347482e-004,-9.554367e-004
6.575995e-004,-1.103402e-003
6.911471e-004,-1.022532e-003
7.255049e-004,-7.193075e-004
7.478699e-004,-3.329439e-004
7.571077e-004,-8.158062e-005
7.519216e-004,-1.293899e-004
7.078398e-004,-4.765338e-004
6.076833e-004,-9.580297e-004
4.832171e-004,-1.329808e-003
3.872744e-004,-1.358331e-003
3.671783e-004,-9.231857e-004
4.478869e-004,-6.197072e-005
6.255105e-004,1.057253e-003
8.637467e-004,2.194144e-003
1.113166e-003,3.144338e-003
1.335357e-003,3.784178e-003
1.509740e-003,4.098102e-003
1.622700e-003,4.130191e-003
1.665323e-003,3.934900e-003
1.632586e-003,3.567981e-003
1.521085e-003,3.085832e-003
1.313803e-003,2.546314e-003
9.681169e-004,2.011820e-003
4.470765e-004,1.555443e-003
-2.246843e-004,1.235525e-003
-9.411749e-004,1.051257e-003
-1.577443e-003,9.277626e-004
-2.057157e-003,7.464113e-004
-2.363299e-003,4.149876e-004
-2.496517e-003,-8.725291e-005
-2.463131e-003,-7.001838e-004
-2.289721e-003,-1.319597e-003
-2.021502e-003,-1.853278e-003
-1.710985e-003,-2.254229e-003
-1.403547e-003,-2.517261e-003
-1.132088e-003,-2.657447e-003
-9.154065e-004,-2.676571e-003
-7.228730e-004,-2.567177e-003
-4.679442e-004,-2.315003e-003
-7.833932e-005,-1.911946e-003
4.514523e-004,-1.399333e-003
1.030836e-003,-8.881795e-004
1.503095e-003,-4.953333e-004
1.683475e-003,-2.681178e-004
1.438593e-003,-1.700683e-004
7.723418e-004,-1.118868e-004
-1.746061e-004,-1.562004e-005
-1.162556e-003,1.192183e-004
-1.947439e-003,2.373639e-004
-2.358437e-003,3.099692e-004
-2.361192e-003,3.461098e-004
-2.070122e-003,3.631267e-004
-1.678734e-003,3.710678e-004
-1.322190e-003,3.632887e-004
-1.017021e-003,3.252033e-004
-6.915944e-004,2.671840e-004
-2.535319e-004,2.433604e-004
3.380065e-004,3.300653e-004
1.026785e-003,5.770529e-004
1.677478e-003,9.561240e-004
2.124456e-003,1.366150e-003
2.229961e-003,1.657382e-003
1.951531e-003,1.689957e-003
1.415256e-003,1.412987e-003
8.551573e-004,8.927564e-004
4.757621e-004,2.679943e-004
3.360618e-004,-2.932379e-004
3.629646e-004,-6.664742e-004
4.448076e-004,-8.175191e-004
5.133613e-004,-8.014746e-004
5.611706e-004,-7.199558e-004
6.005524e-004,-6.650157e-004
6.122212e-004,-6.823567e-004
5.514466e-004,-7.625790e-004
4.046154e-004,-8.539837e-004
2.323399e-004,-9.084377e-004
1.359110e-004,-9.069791e-004
1.924718e-004,-8.594940e-004
4.204978e-004,-7.752200e-004
7.815795e-004,-6.663122e-004
1.185447e-003,-5.259637e-004
1.529512e-003,-3.369955e-004
1.750894e-003,-9.875954e-005
1.843109e-003,1.547106e-004
1.830954e-003,3.616681e-004
1.707460e-003,4.671726e-004
1.424332e-003,4.556660e-004
9.254937e-004,3.546993e-004
2.161334e-004,2.098128e-004
-6.042412e-004,5.811968e-005
-1.382155e-003,-7.428768e-005
-2.018099e-003,-1.759026e-004
-2.508185e-003,-2.606628e-004
-2.934418e-003,-3.541744e-004
-3.383664e-003,-4.684305e-004
-3.823836e-003,-5.933827e-004
-4.077469e-003,-7.155800e-004
-3.938092e-003,-8.236775e-004
-3.287883e-003,-8.823452e-004
-2.157637e-003,-8.479874e-004
-7.110421e-004,-6.935392e-004
8.199890e-004,-4.311554e-004
2.166107e-003,-1.136696e-004
3.168972e-003,1.880961e-004
3.750306e-003,4.117463e-004
3.951431e-003,5.240575e-004
3.945110e-003,5.190336e-004
4.003454e-003,4.075326e-004
4.405058e-003,2.091646e-004
4.959167e-003,-4.236081e-005
4.958843e-003,-3.027998e-004
4.959005e-003,-5.348772e-004
4.958843e-003,-7.108801e-004
4.959005e-003,-8.136295e-004
3.778668e-003,-8.389117e-004
7.749348e-004,-7.838095e-004
-2.323755e-003,-6.546435e-004
-4.895743e-003,-4.600031e-004
-4.968349e-003,-2.164190e-004
-4.968349e-003,5.066468e-005
-4.968187e-003,3.133726e-004
-4.968349e-003,5.336195e-004
-4.968349e-003,6.579236e-004
-3.890769e-003,6.412309e-004
-2.470910e-003,4.631210e-004
-1.433529e-003,1.398006e-004
-8.244879e-004,-2.765452e-004
-5.552974e-004,-6.998597e-004
-4.791268e-004,-1.040359e-003
-4.658374e-004,-1.241806e-003
-4.494688e-004,-1.305984e-003
-4.258073e-004,-1.266602e-003
-4.139765e-004,-1.152184e-003
-4.321278e-004,-9.760189e-004
-4.716718e-004,-7.513964e-004
-5.023021e-004,-4.924161e-004
-5.003573e-004,-2.180396e-004
-4.548170e-004,6.314371e-005
-3.694086e-004,3.493511e-004
-2.554767e-004,6.300483e-004
-1.324691e-004,8.773602e-004
-1.902341e-005,1.044126e-003
7.286762e-005,1.087397e-003
1.347766e-004,9.946957e-004
1.681620e-004,7.990826e-004
1.751308e-004,5.668428e-004
1.576278e-004,3.652335e-004
1.192183e-004,2.368777e-004
6.995045e-005,1.923098e-004
3.202716e-005,2.143507e-004
4.450619e-005,2.772320e-004
1.386661e-004,3.725264e-004
3.122381e-004,5.059062e-004
5.339436e-004,6.882299e-004
7.389563e-004,9.207938e-004
8.251751e-004,1.179450e-003
7.036260e-004,1.421414e-003
3.603715e-004,1.609735e-003
-1.089697e-004,1.725288e-003
-5.509217e-004,1.782497e-003
-8.334015e-004,1.819934e-003
-8.940139e-004,1.860126e-003
-7.497758e-004,1.883788e-003
-4.747510e-004,1.840192e-003
-1.579134e-004,1.681206e-003
1.295905e-004,1.395808e-003
3.475684e-004,1.009768e-003
4.793275e-004,5.637636e-004
5.328091e-004,1.015532e-004
5.358884e-004,-3.350507e-004
5.269747e-004,-7.112043e-004
5.384814e-004,-1.007784e-003
5.919630e-004,-1.212634e-003
6.856368e-004,-1.310198e-003
7.964895e-004,-1.281674e-003
8.917841e-004,-1.126578e-003
9.348935e-004,-8.755384e-004
8.948633e-004,-5.653455e-004
7.765555e-004,-2.006986e-004
6.232416e-004,2.391467e-004
4.971547e-004,7.454389e-004
4.367043e-004,1.225315e-003
4.297355e-004,1.549608e-003
4.323286e-004,1.643606e-003
3.992672e-004,1.526271e-003
2.950592e-004,1.263887e-003
1.138701e-004,9.097733e-004
-1.182074e-004,4.961823e-004
-3.384541e-004,7.140904e-005
-4.441207e-004,-3.042583e-004
-3.472056e-004,-5.859278e-004
-5.030201e-005,-7.677650e-004
3.587509e-004,-8.771591e-004
7.645627e-004,-9.544643e-004
1.097283e-003,-1.024152e-003
1.340219e-003,-1.079579e-003
1.500178e-003,-1.073096e-003
1.580077e-003,-9.421473e-004
1.571001e-003,-6.656639e-004
1.451883e-003,-3.109030e-004
1.215105e-003,9.824214e-006
8.759017e-004,2.098128e-004
4.756000e-004,2.654012e-004
5.147500e-005,2.154851e-004
-3.865875e-004,1.307249e-004
-8.337256e-004,6.703327e-005
-1.253475e-003,3.818564e-005
-1.553782e-003,2.684107e-005
-1.611963e-003,9.013888e-006
-1.336128e-003,-3.409548e-005
-7.400519e-004,-1.109144e-004
1.549650e-005,-2.151224e-004
6.765611e-004,-3.326198e-004
1.052229e-003,-4.612996e-004
1.108304e-003,-6.018102e-004
9.421864e-004,-7.505861e-004
7.175637e-004,-8.923932e-004
5.929354e-004,-1.014428e-003
6.509548e-004,-1.103564e-003
8.600192e-004,-1.139219e-003
1.128562e-003,-1.097730e-003
1.398563e-003,-9.555987e-004
1.691740e-003,-7.031010e-004
2.030781e-003,-3.522297e-004
2.321690e-003,5.828174e-005
2.356534e-003,4.640934e-004
1.952828e-003,8.018378e-004
1.087721e-003,1.020140e-003
-5.192267e-005,1.096797e-003
-1.169687e-003,1.045422e-003
-2.042895e-003,9.045872e-004
-2.607207e-003,7.279359e-004
-2.924856e-003,5.736496e-004
-3.117066e-003,4.882411e-004
-3.295176e-003,4.919686e-004
-3.523527e-003,5.631153e-004
-3.805036e-003,6.454446e-004
-4.095297e-003,6.734819e-004
-4.311007e-003,6.020110e-004
-4.347472e-003,4.179047e-004
-4.119931e-003,1.470936e-004
-3.619146e-003,-1.619650e-004
-2.913187e-003,-4.580583e-004
-2.111773e-003,-7.045596e-004
-1.321542e-003,-8.833176e-004
-6.191512e-004,-9.910910e-004
-5.273300e-005,-1.041007e-003
3.587509e-004,-1.053000e-003
6.272933e-004,-1.031445e-003
7.891966e-004,-9.758568e-004
8.893531e-004,-8.959587e-004
9.705479e-004,-8.086055e-004
1.054012e-003,-7.206041e-004
1.118838e-003,-6.369783e-004
1.127913e-003,-5.653455e-004
1.082859e-003,-5.102433e-004
1.024354e-003,-4.723200e-004
1.002961e-003,-4.564376e-004
1.067463e-003,-4.596789e-004
1.238766e-003,-4.663236e-004
1.487861e-003,-4.676201e-004
1.747977e-003,-4.719959e-004
1.952180e-003,-4.854473e-004
2.055416e-003,-4.906334e-004
2.043423e-003,-4.394208e-004
1.920577e-003,-2.626076e-004
1.724315e-003,1.057669e-004
1.511037e-003,6.637580e-004
1.310561e-003,1.297434e-003
1.097931e-003,1.827551e-003
8.235545e-004,2.085236e-003
4.645796e-004,1.960283e-003
7.108490e-005,1.432273e-003
-2.572594e-004,6.029834e-004
-4.146248e-004,-3.303509e-004
-3.152788e-004,-1.145053e-003
6.606088e-005,-1.692023e-003
6.639201e-004,-1.909677e-003
1.355778e-003,-1.808711e-003
2.005823e-003,-1.455732e-003
2.487160e-003,-9.440921e-004
2.710163e-003,-3.828600e-004
2.637395e-003,1.109530e-004
2.304997e-003,4.499937e-004
1.805672e-003,6.224313e-004
1.241684e-003,6.794783e-004
6.830437e-004,6.716992e-004
1.688103e-004,6.112488e-004
-2.835140e-004,4.892135e-004
-6.770085e-004,3.057555e-004
-1.030473e-003,9.458438e-005
-1.371134e-003,-6.974985e-005
-1.706447e-003,-1.086455e-004
-1.984065e-003,-6.868512e-006
-2.116311e-003,1.903650e-004
-2.039006e-003,4.237391e-004
-1.736105e-003,6.874196e-004
-1.244075e-003,1.036995e-003
-6.189891e-004,1.514278e-003
9.069480e-005,2.073567e-003
8.042687e-004,2.581806e-003
1.376360e-003,2.896863e-003
1.646199e-003,2.947590e-003
1.490616e-003,2.771910e-003
9.070182e-004,2.485377e-003
5.147500e-005,2.223478e-003
-8.006643e-004,2.071136e-003
-1.396416e-003,2.033051e-003
-1.613584e-003,2.035806e-003
-1.467401e-003,1.972276e-003
-1.078930e-003,1.769532e-003
-6.107238e-004,1.424007e-003
-1.937298e-004,9.773546e-004
1.009049e-004,4.971547e-004
2.584324e-004,4.434413e-005
2.984626e-004,-3.480160e-004
2.451431e-004,-6.796016e-004
1.195424e-004,-9.743983e-004
-5.937767e-005,-1.260444e-003
-2.660109e-004,-1.546975e-003
-4.664857e-004,-1.813572e-003
-6.340612e-004,-2.032037e-003
-7.645237e-004,-2.175302e-003
-8.826694e-004,-2.226353e-003
-1.024476e-003,-2.181137e-003
-1.208583e-003,-2.055374e-003
-1.408571e-003,-1.877588e-003
-1.552323e-003,-1.674358e-003
-1.553620e-003,-1.465294e-003
-1.357521e-003,-1.269195e-003
-9.724534e-004,-1.100809e-003
-4.747510e-004,-9.692122e-004
3.753739e-005,-8.847762e-004
4.820826e-004,-8.731075e-004
8.015136e-004,-9.682398e-004
9.711962e-004,-1.186218e-003
1.001016e-003,-1.509538e-003
9.272764e-004,-1.880992e-003
7.989205e-004,-2.225219e-003
6.605167e-004,-2.479014e-003
5.436675e-004,-2.597159e-003
4.525867e-004,-2.542543e-003
3.741471e-004,-2.296366e-003
2.814457e-004,-1.875644e-003
1.425557e-004,-1.333049e-003
-5.078821e-005,-7.397278e-004
-2.543422e-004,-1.538618e-004
-3.984183e-004,4.013741e-004
-4.332623e-004,9.300315e-004
-3.405610e-004,1.437945e-003
-1.528894e-004,1.915553e-003
3.494434e-005,2.329794e-003
1.172735e-004,2.618595e-003
3.332369e-005,2.720373e-003
-2.254946e-004,2.610978e-003
-6.133168e-004,2.304025e-003
-1.035821e-003,1.828523e-003
-1.384586e-003,1.221101e-003
-1.583764e-003,5.362125e-004
-1.614880e-003,-1.300381e-004
-1.503217e-003,-6.590192e-004
-1.284915e-003,-9.815291e-004
-9.727776e-004,-1.090275e-003
-5.677765e-004,-1.019615e-003
-9.146661e-005,-8.293498e-004
4.007258e-004,-5.760418e-004
8.298751e-004,-3.002067e-004
1.128724e-003,-3.911951e-005
1.266966e-003,1.611932e-004
1.257890e-003,2.542187e-004
1.149630e-003,2.135403e-004
1.008471e-003,4.726130e-005
8.998873e-004,-1.985918e-004
8.870841e-004,-4.596789e-004
1.031323e-003,-6.787912e-004
1.365988e-003,-8.118468e-004
1.880060e-003,-8.259465e-004
2.476139e-003,-7.001838e-004
2.952128e-003,-4.480102e-004
3.103498e-003,-1.156143e-004
2.830740e-003,2.543808e-004
2.166755e-003,6.485238e-004
1.226773e-003,1.054498e-003
1.568175e-004,1.450262e-003
-8.732696e-004,1.793679e-003
-1.715361e-003,2.023164e-003
-2.283724e-003,2.075350e-003
-2.559722e-003,1.927222e-003
-2.602669e-003,1.618162e-003
-2.522933e-003,1.237632e-003
-2.430394e-003,8.925944e-004
-2.361840e-003,6.657027e-004
-2.256660e-003,5.987698e-004
-2.024258e-003,6.812610e-004
-1.606453e-003,8.587227e-004
-1.011835e-003,1.053201e-003
-3.309991e-004,1.180423e-003
3.052693e-004,1.184150e-003
7.979481e-004,1.055956e-003
1.139582e-003,8.274441e-004
1.383977e-003,5.614947e-004
1.570515e-003,3.239068e-004
1.681368e-003,1.511452e-004
1.663703e-003,3.575467e-005
1.487051e-003,-5.710876e-005
1.165675e-003,-1.656925e-004
7.582422e-004,-3.180339e-004
3.618301e-004,-5.181845e-004
7.367795e-005,-7.419966e-004
-6.326724e-005,-9.523574e-004
-6.213279e-005,-1.115233e-003
2.748933e-005,-1.193997e-003
1.529279e-004,-1.157208e-003
2.726942e-004,-9.964391e-004
3.673404e-004,-7.421587e-004
4.182289e-004,-4.530342e-004
4.080188e-004,-1.922712e-004
3.273102e-004,9.500084e-006
1.795066e-004,1.582760e-004
-3.555407e-005,2.770700e-004
-3.074996e-004,3.888950e-004
-5.922483e-004,4.997478e-004
-8.105503e-004,5.942319e-004
-8.923932e-004,6.387999e-004
-8.259465e-004,6.109247e-004
-6.539952e-004,5.054200e-004
-4.470378e-004,3.352514e-004
-2.645523e-004,1.235941e-004
-1.319829e-004,-1.078352e-004
-4.155049e-005,-3.441264e-004
2.765140e-005,-5.734488e-004
9.166720e-005,-7.878611e-004
1.503348e-004,-9.675915e-004
1.960373e-004,-1.058348e-003
2.184023e-004,-9.876876e-004
2.112714e-004,-7.184972e-004
1.735102e-004,-3.086341e-004
1.200286e-004,9.977046e-005
7.221937e-005,3.639370e-004
5.131293e-005,4.109359e-004
6.914012e-005,2.880904e-004
1.274836e-004,1.428798e-004
2.140265e-004,1.229458e-004
2.983005e-004,2.898731e-004
3.461098e-004,5.858045e-004
3.459477e-004,8.906496e-004
3.083486e-004,1.109438e-003
2.551911e-004,1.216725e-003
2.072198e-004,1.245411e-003
1.744826e-004,1.237794e-003
1.598967e-004,1.199871e-003
1.616794e-004,1.093718e-003
1.714033e-004,8.750913e-004
1.715654e-004,5.219507e-004
1.415833e-004,4.628891e-005
7.254349e-005,-5.019780e-004
-3.668853e-005,-1.049110e-003
-1.712027e-004,-1.502245e-003
-2.992343e-004,-1.771598e-003
-3.880461e-004,-1.808873e-003
-4.160834e-004,-1.631735e-003
-3.836703e-004,-1.311008e-003
-2.989102e-004,-9.547884e-004
-1.676373e-004,-6.658260e-004
1.144487e-005,-4.969540e-004
2.490327e-004,-4.308313e-004
5.349160e-004,-4.206212e-004
8.050791e-004,-4.365036e-004
9.689272e-004,-4.719959e-004
9.679548e-004,-5.379565e-004
8.131823e-004,-6.491333e-004
5.639257e-004,-7.928851e-004
3.008935e-004,-9.184857e-004
9.182927e-005,-9.753706e-004
-3.198863e-005,-9.442541e-004
-7.299116e-005,-8.403703e-004
-5.159854e-005,-6.799257e-004
1.193106e-005,-4.565997e-004
1.099806e-004,-1.791439e-004
2.337985e-004,1.043083e-004
3.762539e-004,3.349273e-004
5.272989e-004,4.788413e-004
6.783438e-004,5.350781e-004
8.183684e-004,5.307022e-004
9.284109e-004,4.986133e-004
9.852959e-004,4.555039e-004
9.739513e-004,3.948915e-004
8.898393e-004,2.923041e-004
7.465734e-004,1.137081e-004
5.665187e-004,-1.801163e-004
3.660438e-004,-6.108859e-004
1.487142e-004,-1.172442e-003
-7.493595e-005,-1.820703e-003
-2.577456e-004,-2.476744e-003
-3.369955e-004,-3.052402e-003
-2.846484e-004,-3.460808e-003
-1.212866e-004,-3.644591e-003
8.097089e-005,-3.579926e-003
2.302331e-004,-3.271515e-003
2.666978e-004,-2.732646e-003
1.997648e-004,-1.956838e-003
7.999850e-005,-9.060067e-004
-5.937767e-005,4.598797e-004
-2.405667e-004,2.024461e-003
-5.178603e-004,3.557284e-003
-9.201064e-004,4.802448e-003
-1.415540e-003,4.958681e-003
-1.894605e-003,4.958843e-003
-2.205933e-003,4.958681e-003
-2.242398e-003,4.959005e-003
-1.994600e-003,4.716390e-003
-1.557995e-003,4.089674e-003
-1.088978e-003,3.410452e-003
-7.066664e-004,2.704328e-003
-4.193247e-004,2.014089e-003
-1.835197e-004,1.396780e-003
1.306552e-005,8.994011e-004
1.346145e-004,5.439916e-004
1.336421e-004,3.243930e-004
3.818564e-005,2.130541e-004
-6.537409e-005,1.723757e-004
-1.264727e-004,1.731861e-004
-1.982676e-004,1.999268e-004
-4.228901e-004,2.493568e-004
-9.064929e-004,3.188828e-004
-1.595757e-003,3.971604e-004
-2.281942e-003,4.689553e-004
-2.723895e-003,5.123889e-004
-2.792286e-003,4.950479e-004
-2.511426e-003,3.887330e-004
-2.030740e-003,1.859892e-004
-1.517641e-003,-9.162867e-005
-1.059969e-003,-3.993907e-004
-6.573986e-004,-6.870566e-004
-2.771934e-004,-9.129756e-004
1.069013e-004,-1.056565e-003
5.083373e-004,-1.123012e-003
9.224144e-004,-1.142622e-003
1.319637e-003,-1.151374e-003
1.652358e-003,-1.168390e-003
1.870985e-003,-1.183462e-003
1.952504e-003,-1.157370e-003
1.896753e-003,-1.053000e-003
1.734525e-003,-8.671110e-004
1.515574e-003,-6.429748e-004
1.288683e-003,-4.543308e-004
1.089666e-003,-3.698948e-004
9.345693e-004,-4.100870e-004
8.256614e-004,-5.364979e-004
7.699108e-004,-6.820326e-004
7.917897e-004,-7.958023e-004
9.154456e-004,-8.593319e-004
1.126293e-003,-8.729454e-004
1.357723e-003,-8.403703e-004
1.519950e-003,-7.622548e-004
1.550094e-003,-6.502677e-004
1.437945e-003,-5.183466e-004
1.213484e-003,-3.854531e-004
9.229006e-004,-2.755728e-004
6.109247e-004,-2.047502e-004
3.158036e-004,-1.600202e-004
5.504044e-005,-1.018388e-004
-1.789819e-004,2.408596e-005
-4.076560e-004,2.516257e-004
-6.578848e-004,5.718669e-004
-9.590021e-004,9.271143e-004
-1.324621e-003,1.245411e-003
-1.728650e-003,1.486403e-003
-2.088273e-003,1.651710e-003
-2.276756e-003,1.753811e-003
-2.192158e-003,1.780066e-003
-1.819245e-003,1.689957e-003
-1.237268e-003,1.458365e-003
-5.875484e-004,1.088045e-003
-8.165034e-006,6.028214e-004
4.219564e-004,4.888196e-005
6.895264e-004,-5.091088e-004
8.195028e-004,-1.011835e-003
8.535366e-004,-1.422347e-003
8.386266e-004,-1.729461e-003
8.233925e-004,-1.947763e-003
8.430023e-004,-2.107559e-003
9.078285e-004,-2.229271e-003
1.012037e-003,-2.310627e-003
1.143148e-003,-2.328292e-003
1.269721e-003,-2.260711e-003
1.347512e-003,-2.097997e-003
1.349943e-003,-1.845499e-003
1.286252e-003,-1.518776e-003
1.193712e-003,-1.134681e-003
1.111545e-003,-7.032630e-004
1.049150e-003,-2.382978e-004
9.815684e-004,2.373639e-004
8.689329e-004,6.793162e-004
6.814231e-004,1.029216e-003
4.162841e-004,1.233418e-003
9.652916e-005,1.270531e-003
-2.305186e-004,1.150279e-003
-5.050572e-004,8.972943e-004
-6.825187e-004,5.444778e-004
-7.603100e-004,1.373696e-004
-7.729511e-004,-2.684419e-004
-7.570687e-004,-6.301716e-004
-7.219006e-004,-9.324233e-004
-6.483229e-004,-1.186380e-003
-5.131605e-004,-1.396740e-003
-2.953447e-004,-1.551675e-003
-1.399939e-005,-1.630601e-003
2.496809e-004,-1.614232e-003
4.115842e-004,-1.493980e-003
4.371905e-004,-1.281512e-003
3.271481e-004,-1.004218e-003
1.009049e-004,-6.932150e-004
-1.959987e-004,-3.742705e-004
-4.839887e-004,-7.574627e-005
-6.855979e-004,1.709171e-004
-7.437794e-004,3.457856e-004
-6.248234e-004,4.454558e-004
-3.279199e-004,4.825688e-004
1.099806e-004,4.799758e-004
6.287518e-004,4.590693e-004
1.171671e-003,4.263321e-004
1.708595e-003,3.854917e-004
2.221371e-003,3.401134e-004
2.622809e-003,2.911697e-004
2.732528e-003,2.383363e-004
2.371282e-003,1.822617e-004
1.491103e-003,1.284560e-004
2.430362e-004,9.523264e-005
-1.073582e-003,1.150046e-004
-2.187620e-003,2.117576e-004
-2.981903e-003,3.950535e-004
-3.422560e-003,6.579236e-004
-3.517369e-003,9.716824e-004
-3.312679e-003,1.267938e-003
-2.894063e-003,1.462093e-003
-2.388257e-003,1.491589e-003
-1.924749e-003,1.360478e-003
-1.576471e-003,1.125483e-003
-1.342124e-003,8.639088e-004
-1.173090e-003,6.415550e-004
-9.940082e-004,4.819206e-004
-7.369726e-004,3.581026e-004
-3.898288e-004,2.153230e-004
-1.594417e-005,1.873781e-005
2.838767e-004,-2.169051e-004
4.363802e-004,-4.230522e-004
4.345975e-004,-5.173741e-004
3.243930e-004,-4.439586e-004
1.819376e-004,-2.016710e-004
9.085687e-005,1.563313e-004
1.004187e-004,5.559844e-004
1.989545e-004,9.408899e-004
3.109416e-004,1.293545e-003
3.412478e-004,1.636475e-003
2.281262e-004,2.009389e-003
-3.328516e-005,2.409043e-003
-3.768636e-004,2.764941e-003
-6.864083e-004,2.971251e-003
-8.643559e-004,2.940621e-003
-8.675972e-004,2.646795e-003
-6.988873e-004,2.142121e-003
-3.852910e-004,1.526919e-003
2.700314e-005,9.250075e-004
4.846757e-004,4.475627e-004
9.392693e-004,1.670276e-004
1.352212e-003,9.814982e-005
1.693685e-003,2.044647e-004
1.949587e-003,4.096394e-004
2.136611e-003,6.054144e-004
2.305483e-003,6.906608e-004
2.515845e-003,6.298863e-004
2.820530e-003,4.728449e-004
3.194903e-003,3.190449e-004
3.488082e-003,2.571359e-004
3.493916e-003,3.039728e-004
3.067681e-003,3.840331e-004
2.192847e-003,3.814400e-004
9.778409e-004,2.209953e-004
-3.627639e-004,-9.017008e-005
-1.539682e-003,-4.687546e-004
-2.331858e-003,-8.136295e-004
-2.613204e-003,-1.050245e-003
-2.370429e-003,-1.162070e-003
-1.700451e-003,-1.181356e-003
-7.611204e-004,-1.156722e-003
2.498430e-004,-1.126578e-003
1.119648e-003,-1.116043e-003
1.708757e-003,-1.131277e-003
1.985889e-003,-1.166770e-003
1.988482e-003,-1.208420e-003
1.769207e-003,-1.245047e-003
1.377495e-003,-1.273247e-003
8.940530e-004,-1.296098e-003
4.065602e-004,-1.311818e-003
-3.296103e-005,-1.319759e-003
-3.982562e-004,-1.315546e-003
-6.854359e-004,-1.289615e-003
-9.212409e-004,-1.220251e-003
-1.159477e-003,-1.057376e-003
-1.465942e-003,-7.293556e-004
-1.846796e-003,-1.958366e-004
-2.193778e-003,4.867825e-004
-2.341420e-003,1.169726e-003
-2.223922e-003,1.693198e-003
-1.940794e-003,1.945211e-003
-1.699803e-003,1.892215e-003
-1.714226e-003,1.585749e-003
-2.073039e-003,1.131641e-003
-2.648696e-003,6.470652e-004
-3.164227e-003,2.209953e-004
-3.365675e-003,-1.057284e-004
-3.140241e-003,-3.340783e-004
-2.540598e-003,-4.912817e-004
-1.705313e-003,-6.149375e-004
-7.795958e-004,-7.355140e-004
1.128978e-004,-8.724592e-004
8.775223e-004,-1.023342e-003
1.450910e-003,-1.171794e-003
1.785738e-003,-1.293181e-003
1.844730e-003,-1.372755e-003
1.627400e-003,-1.406140e-003
1.194360e-003,-1.401116e-003
6.452825e-004,-1.361572e-003
7.708132e-005,-1.283133e-003
-4.259694e-004,-1.155911e-003
-7.962885e-004,-9.594883e-004
-9.627296e-004,-6.617744e-004
-8.522010e-004,-2.593662e-004
-4.280762e-004,2.046267e-004
2.477361e-004,6.391240e-004
1.002637e-003,9.358659e-004
1.611517e-003,1.023868e-003
1.888974e-003,9.028045e-004
1.768235e-003,6.535478e-004
1.326120e-003,3.982948e-004
7.404149e-004,2.443327e-004
2.145127e-004,2.389846e-004
-1.126972e-004,3.537268e-004
-2.081536e-004,5.125509e-004
-1.211245e-004,6.397723e-004
6.654707e-005,6.830437e-004
2.725321e-004,6.036317e-004
4.386491e-004,3.775505e-004
5.349160e-004,4.962256e-006
5.619809e-004,-4.804233e-004
5.381573e-004,-1.002598e-003
4.911583e-004,-1.463673e-003
4.462662e-004,-1.766574e-003
4.247115e-004,-1.851820e-003
4.318423e-004,-1.741453e-003
4.595555e-004,-1.510186e-003
4.927790e-004,-1.220413e-003
5.119027e-004,-9.016310e-004
5.052580e-004,-5.556216e-004
4.744656e-004,-1.674752e-004
4.347596e-004,2.548670e-004
4.089912e-004,6.454446e-004
4.104497e-004,9.206317e-004
4.414042e-004,1.030998e-003
4.893756e-004,9.752478e-004
5.318367e-004,7.977861e-004
5.520949e-004,5.632774e-004
5.444778e-004,3.266619e-004
5.149819e-004,1.171115e-004
4.791655e-004,-5.240886e-005
4.558280e-004,-1.656925e-004
4.563142e-004,-1.891920e-004
4.662002e-004,-1.003802e-004
4.613383e-004,8.502253e-005
4.253598e-004,3.093210e-004
3.593991e-004,5.026649e-004
2.762596e-004,6.122212e-004
1.955511e-004,6.235657e-004
1.396385e-004,5.598741e-004
1.206769e-004,4.697657e-004
1.316973e-004,3.897054e-004
1.517934e-004,3.352514e-004
1.689724e-004,3.026763e-004
1.780480e-004,2.804733e-004
1.809652e-004,2.632944e-004
1.884202e-004,2.550291e-004
2.122438e-004,2.696149e-004
2.438465e-004,3.243930e-004
2.587565e-004,4.240632e-004
2.396328e-004,5.435054e-004
1.916615e-004,6.486858e-004
1.415833e-004,7.170775e-004
1.214872e-004,7.334461e-004
1.383420e-004,7.021675e-004
1.741585e-004,6.405826e-004
1.992786e-004,5.642498e-004
1.940925e-004,4.828930e-004
1.509831e-004,3.869503e-004
6.703327e-005,2.485465e-004
-6.083626e-005,5.115087e-005
-2.193361e-004,-1.874093e-004
-3.786463e-004,-4.258073e-004
-5.091088e-004,-6.188271e-004
-6.110479e-004,-7.272487e-004
-7.084491e-004,-7.345417e-004
-8.186535e-004,-6.496194e-004
-9.376094e-004,-4.922540e-004
-1.034524e-003,-2.780037e-004
-1.068558e-003,3.665733e-006
-1.009729e-003,3.770643e-004
-8.722972e-004,8.211235e-004
-7.157421e-004,1.235039e-003
-6.082928e-004,1.493858e-003
-5.844692e-004,1.524974e-003
-6.230407e-004,1.323689e-003
-6.646915e-004,9.285729e-004
-6.497815e-004,4.093153e-004
-5.577284e-004,-1.532135e-004
-4.198109e-004,-6.890013e-004
-3.070135e-004,-1.143594e-003
-2.937241e-004,-1.466753e-003
-4.055491e-004,-1.629304e-003
-6.068342e-004,-1.638056e-003
-8.170329e-004,-1.516183e-003
-9.560849e-004,-1.291236e-003
-9.771533e-004,-9.799085e-004
-8.862347e-004,-5.990550e-004
-7.262763e-004,-1.681235e-004
-5.392530e-004,2.735045e-004
-3.418575e-004,6.801265e-004
-1.310105e-004,1.012685e-003
9.231547e-005,1.221263e-003
3.125622e-004,1.273124e-003
5.088234e-004,1.183988e-003
6.715371e-004,1.013657e-003
7.987585e-004,8.465678e-004
8.921082e-004,7.785003e-004
9.464001e-004,8.695811e-004
9.514242e-004,1.097121e-003
9.034527e-004,1.367933e-003
8.170719e-004,1.569866e-003
7.198326e-004,1.618486e-003
6.386379e-004,1.464524e-003
5.817529e-004,1.104252e-003
5.465847e-004,5.819149e-004
5.237334e-004,-1.594417e-005
5.122268e-004,-5.812279e-004
5.084993e-004,-1.043114e-003
5.037994e-004,-1.378103e-003
4.838654e-004,-1.584736e-003
4.388112e-004,-1.682948e-003
3.713920e-004,-1.706933e-003
3.033245e-004,-1.683920e-003
2.658874e-004,-1.618932e-003
2.782044e-004,-1.493980e-003
3.219621e-004,-1.287833e-003
3.456236e-004,-1.001949e-003
3.000832e-004,-6.802498e-004
1.752929e-004,-3.938804e-004
4.476060e-006,-2.005366e-004
-1.590478e-004,-1.044318e-004
-2.780037e-004,-6.829127e-005
-3.452609e-004,-4.544005e-005
-3.865875e-004,-6.706447e-006
-4.499550e-004,5.487837e-005
-5.831727e-004,1.297525e-004
-7.883473e-004,2.093266e-004
-1.015401e-003,2.869559e-004
-1.194483e-003,3.550234e-004
-1.264819e-003,4.029947e-004
-1.198048e-003,4.211461e-004
-1.003408e-003,3.981328e-004
-7.293556e-004,3.266619e-004
-4.387725e-004,2.099749e-004
-1.754164e-004,5.536457e-005
5.536457e-005,-1.334415e-004
2.629703e-004,-3.543365e-004
4.564763e-004,-6.058618e-004
6.494962e-004,-8.726213e-004
8.535366e-004,-1.125605e-003
1.069570e-003,-1.333373e-003
1.277338e-003,-1.461405e-003
1.456907e-003,-1.487821e-003
1.597904e-003,-1.413595e-003
1.696440e-003,-1.263361e-003
1.754621e-003,-1.067424e-003
1.773097e-003,-8.565768e-004
1.748787e-003,-6.538332e-004
1.655599e-003,-4.694028e-004
1.429355e-003,-3.039342e-004
1.009281e-003,-1.661787e-004
3.738230e-004,-6.748093e-005
-4.290486e-004,-9.461557e-006
-1.264495e-003,2.327564e-005
-1.941604e-003,5.082674e-005
-2.282428e-003,1.025256e-004
-2.203016e-003,2.206712e-004
-1.745181e-003,4.674967e-004
-1.086223e-003,8.771982e-004
-4.865818e-004,1.387056e-003
-1.771991e-004,1.853644e-003
-2.423494e-004,2.149900e-003
-5.826865e-004,2.244384e-003
-9.753706e-004,2.230933e-003
-1.199345e-003,2.287980e-003
-1.147160e-003,2.548259e-003
-8.478253e-004,2.994103e-003
-4.175420e-004,3.466365e-003
1.792748e-005,3.759220e-003
3.733367e-004,3.716920e-003
6.153004e-004,3.298788e-003
7.407391e-004,2.596068e-003
7.619696e-004,1.769369e-003
7.067053e-004,9.794615e-004
6.057385e-004,3.456236e-004
4.751138e-004,-7.039811e-005
3.182345e-004,-2.713591e-004
1.422316e-004,-3.194925e-004
-3.360929e-005,-3.081479e-004
-1.861127e-004,-3.209511e-004
-2.906448e-004,-4.050630e-004
-3.337542e-004,-5.541630e-004
-3.241924e-004,-7.364865e-004
-2.849726e-004,-9.154065e-004
-2.357047e-004,-1.058834e-003
-1.836818e-004,-1.139705e-003
-1.188556e-004,-1.139057e-003
-3.344722e-005,-1.066127e-003
7.108490e-005,-9.586780e-004
1.997648e-004,-8.612767e-004
3.504856e-004,-8.043918e-004
4.875929e-004,-7.894817e-004
5.499880e-004,-7.998540e-004
4.935893e-004,-8.108744e-004
3.111037e-004,-7.993678e-004
4.061663e-005,-7.583653e-004
-2.715212e-004,-6.927288e-004
-5.732867e-004,-6.136409e-004
-8.136295e-004,-5.402254e-004
-9.465230e-004,-4.893369e-004
-9.249683e-004,-4.771820e-004
-6.847876e-004,-5.128363e-004
-2.005366e-004,-5.943552e-004
4.298976e-004,-7.021286e-004
9.827028e-004,-8.079573e-004
1.216563e-003,-8.852624e-004
1.005068e-003,-9.181616e-004
4.230909e-004,-9.058446e-004
-2.804347e-004,-8.583595e-004
-8.278912e-004,-7.909404e-004
-1.055269e-003,-7.068285e-004
-9.466851e-004,-6.066721e-004
-6.105618e-004,-4.864197e-004
-2.136638e-004,-3.454229e-004
1.012291e-004,-1.919471e-004
2.736665e-004,-4.203669e-005
3.218000e-004,8.291567e-005
2.995970e-004,1.600588e-004
2.545429e-004,1.804790e-004
2.133783e-004,1.496866e-004
1.919856e-004,8.113296e-005
1.965235e-004,1.002961e-007
2.292607e-004,-7.137050e-005
2.863077e-004,-1.164247e-004
3.551854e-004,-1.327932e-004
4.201737e-004,-1.261486e-004
4.639313e-004,-9.875954e-005
4.702519e-004,-5.727082e-005
4.425387e-004,-1.140634e-005
4.026706e-004,4.628891e-005
3.689610e-004,1.414213e-004
3.414099e-004,2.822560e-004
3.065658e-004,4.414042e-004
2.469258e-004,5.631153e-004
1.594105e-004,5.901803e-004
6.314371e-005,5.083373e-004
-1.027188e-005,3.477304e-004
-4.560212e-005,1.529279e-004
-4.981582e-005,-3.847125e-005
-5.257093e-005,-1.953505e-004
-5.953974e-005,-3.089582e-004
-3.441962e-005,-3.870737e-004
6.444023e-005,-4.433104e-004
2.517877e-004,-4.937127e-004
4.974788e-004,-5.415219e-004
7.363633e-004,-5.708557e-004
8.994011e-004,-5.695592e-004
9.397555e-004,-5.369841e-004
8.541849e-004,-4.784785e-004
6.707268e-004,-3.912874e-004
4.247115e-004,-2.760590e-004
1.349386e-004,-1.452723e-004
-1.968091e-004,-2.761287e-005
-5.614560e-004,5.309565e-005
-9.403646e-004,1.070634e-004
-1.321704e-003,1.667035e-004
-1.701261e-003,2.607013e-004
-2.053916e-003,4.049395e-004
-2.305117e-003,5.830494e-004
-2.350171e-003,7.605110e-004
-2.119066e-003,9.066940e-004
-1.608074e-003,1.011713e-003
-8.802384e-004,1.076863e-003
-4.171255e-005,1.100200e-003
7.785003e-004,1.076215e-003
1.471006e-003,9.979369e-004
1.959959e-003,8.663398e-004
2.194792e-003,6.937401e-004
2.162703e-003,4.987753e-004
1.896267e-003,2.989488e-004
1.473275e-003,1.072255e-004
9.794615e-004,-5.402952e-005
4.710622e-004,-1.825473e-004
-1.788895e-005,-2.990722e-004
-4.635685e-004,-4.209453e-004
-8.406944e-004,-5.527044e-004
-1.101782e-003,-6.859221e-004
-1.194483e-003,-8.064986e-004
-1.098702e-003,-8.993620e-004
-8.525252e-004,-9.432817e-004
-5.483286e-004,-9.132997e-004
-2.489941e-004,-7.815406e-004
4.175108e-005,-5.183466e-004
3.373583e-004,-1.047560e-004
6.344241e-004,4.423766e-004
9.120423e-004,1.044774e-003
1.140231e-003,1.594338e-003
1.287062e-003,1.980541e-003
1.331468e-003,2.122349e-003
1.266480e-003,2.001934e-003
1.109924e-003,1.677802e-003
8.771982e-004,1.250273e-003
5.623050e-004,8.128582e-004
1.634621e-004,4.195254e-004
-2.919414e-004,8.745350e-005
-7.577170e-004,-1.985918e-004
-1.187514e-003,-4.766958e-004
-1.546165e-003,-7.846198e-004
-1.807738e-003,-1.131277e-003
-1.928963e-003,-1.489604e-003
-1.843069e-003,-1.808062e-003
-1.514724e-003,-2.037385e-003
-9.881739e-004,-2.143700e-003
-3.953390e-004,-2.112097e-003
9.215340e-005,-1.944846e-003
3.448132e-004,-1.668848e-003
3.380065e-004,-1.330618e-003
1.592484e-004,-9.674295e-004
-5.775702e-005,-5.698833e-004
-1.979435e-004,-8.903562e-005
-2.083157e-004,4.974788e-004
-9.373551e-005,1.163892e-003
1.193804e-004,1.829010e-003
4.229288e-004,2.365124e-003
8.605054e-004,2.665432e-003
1.479920e-003,2.698494e-003
2.218454e-003,2.518114e-003
2.917283e-003,2.219102e-003
3.399431e-003,1.884598e-003
3.510447e-003,1.549932e-003
3.154549e-003,1.218022e-003
2.349403e-003,8.904876e-004
1.237632e-003,5.809425e-004
4.547859e-005,3.136967e-004
-9.815291e-004,1.054428e-004
-1.710823e-003,-4.122636e-005
-2.155855e-003,-1.394379e-004
-2.409001e-003,-2.075054e-004
-2.545947e-003,-2.619593e-004
-2.586463e-003,-3.121995e-004
-2.515802e-003,-3.572537e-004
-2.324889e-003,-3.961493e-004
-2.007727e-003,-4.390966e-004
-1.550216e-003,-4.865818e-004
-9.414990e-004,-5.283947e-004
-2.128535e-004,-5.551354e-004
5.409124e-004,-5.614560e-004
1.200195e-003,-5.496251e-004
1.673426e-003,-5.209396e-004
1.931759e-003,-4.721580e-004
2.027702e-003,-4.037664e-004
2.070974e-003,-3.188442e-004
2.167727e-003,-2.261429e-004
2.377441e-003,-1.292278e-004
2.647443e-003,-3.636440e-005
2.799299e-003,4.223728e-005
2.621674e-003,9.750155e-005
2.004203e-003,1.307249e-004
1.020626e-003,1.456350e-004
-1.011905e-004,1.438522e-004
-1.076662e-003,1.250527e-004
-1.729785e-003,8.696730e-005
-2.032523e-003,2.667901e-005
-2.058129e-003,-6.148453e-005
-1.913567e-003,-1.818990e-004
-1.689268e-003,-3.373197e-004
-1.451356e-003,-5.254775e-004
-1.254609e-003,-7.379450e-004
-1.112802e-003,-9.628916e-004
-9.766672e-004,-1.176818e-003
-7.925610e-004,-1.337749e-003
-5.575664e-004,-1.414892e-003
-3.052307e-004,-1.399658e-003
-7.558420e-005,-1.299339e-003
1.219734e-004,-1.133546e-003
3.521062e-004,-9.225374e-004
6.981159e-004,-6.750637e-004
1.143472e-003,-3.901529e-004
1.534536e-003,-8.093235e-005
1.659003e-003,2.182402e-004
1.385274e-003,4.747897e-004
7.671557e-004,6.699165e-004
2.441009e-005,7.968137e-004
-6.309819e-004,8.614778e-004
-1.124147e-003,8.929185e-004
-1.480204e-003,9.412140e-004
-1.745019e-003,1.042019e-003
-1.948411e-003,1.191281e-003
-2.089732e-003,1.340381e-003
-2.141107e-003,1.408935e-003
-2.068339e-003,1.314127e-003
-1.855872e-003,1.005878e-003
-1.525096e-003,4.796517e-004
-1.120095e-003,-2.081536e-004
-6.890013e-004,-9.476575e-004
-2.822175e-004,-1.625090e-003
5.196120e-005,-2.157476e-003
2.796630e-004,-2.478041e-003
4.052637e-004,-2.515316e-003
4.696036e-004,-2.209336e-003
5.187094e-004,-1.554916e-003
5.699221e-004,-6.296854e-004
6.148142e-004,4.080188e-004
6.373413e-004,1.341354e-003
6.352345e-004,2.012792e-003
6.214589e-004,2.353455e-003
6.143280e-004,2.375496e-003
6.161107e-004,2.154438e-003
6.164348e-004,1.793031e-003
6.021731e-004,1.392080e-003
5.718669e-004,1.022733e-003
5.360504e-004,7.102708e-004
5.089855e-004,4.499937e-004
4.943996e-004,2.299089e-004
4.764104e-004,3.510640e-005
4.251977e-004,-1.314967e-004
3.140208e-004,-2.418632e-004
1.205148e-004,-2.891863e-004
-1.545100e-004,-3.070135e-004
-4.833405e-004,-3.368334e-004
-8.108744e-004,-3.906391e-004
-1.068720e-003,-4.436345e-004
-1.178276e-003,-4.611375e-004
-1.078444e-003,-4.232143e-004
-7.669547e-004,-3.262992e-004
-3.143064e-004,-1.755785e-004
1.527658e-004,1.776542e-005
5.028270e-004,2.292607e-004
6.713750e-004,4.098015e-004
6.733198e-004,5.067165e-004
5.746220e-004,4.845136e-004
4.598797e-004,3.320101e-004
3.926225e-004,6.411610e-005
3.809539e-004,-2.909690e-004
3.979707e-004,-7.068285e-004
4.214702e-004,-1.163366e-003
4.548556e-004,-1.632870e-003
5.232472e-004,-2.067367e-003
6.417171e-004,-2.393929e-003
7.888725e-004,-2.543353e-003
9.180387e-004,-2.473827e-003
9.891854e-004,-2.157476e-003
9.830269e-004,-1.567395e-003
9.220903e-004,-7.238454e-004
8.491608e-004,2.655633e-004
8.005412e-004,1.230015e-003
7.760693e-004,2.066598e-003
7.614834e-004,2.740631e-003
7.525698e-004,3.231530e-003
7.524077e-004,3.490999e-003
7.483561e-004,3.449672e-003
7.180499e-004,3.076271e-003
6.627856e-004,2.401913e-003
5.942319e-004,1.502609e-003
5.164405e-004,4.926169e-004
4.277907e-004,-4.762096e-004
3.078624e-004,-1.246830e-003
8.923622e-005,-1.738698e-003
-3.282440e-004,-1.940308e-003
-1.023828e-003,-1.885530e-003
-1.967373e-003,-1.643728e-003
-2.993410e-003,-1.302743e-003
-3.886393e-003,-9.296683e-004
-4.460108e-003,-5.640490e-004
-4.607751e-003,-2.173913e-004
-4.309224e-003,1.172735e-004
-3.613636e-003,4.457800e-004
-2.636865e-003,7.631041e-004
-1.551999e-003,1.053039e-003
-5.493010e-004,1.285765e-003
2.287745e-004,1.425628e-003
7.496526e-004,1.442321e-003
1.085776e-003,1.318016e-003
1.331468e-003,1.046881e-003
1.531943e-003,6.439860e-004
1.677964e-003,1.561692e-004
1.735498e-003,-3.395886e-004
1.680233e-003,-7.627410e-004
1.523516e-003,-1.064182e-003
1.311696e-003,-1.230786e-003
1.105711e-003,-1.281350e-003
9.506139e-004,-1.260281e-003
8.575883e-004,-1.209555e-003
8.136685e-004,-1.127712e-003
7.934103e-004,-9.737500e-004
7.634282e-004,-7.078008e-004
6.836920e-004,-3.238682e-004
5.307022e-004,1.268354e-004
3.245551e-004,5.368608e-004
1.161391e-004,8.073479e-004
-4.787104e-005,9.143112e-004
-1.465688e-004,9.079906e-004
-1.835197e-004,8.444610e-004
-1.807646e-004,7.468975e-004
-1.712027e-004,6.078454e-004
-1.734716e-004,4.229288e-004
-1.733096e-004,2.062474e-004
-1.345760e-004,-7.840905e-006
-3.441962e-005,-1.818990e-004
1.219734e-004,-2.865932e-004
2.979764e-004,-3.143064e-004
4.441593e-004,-2.823795e-004
5.520949e-004,-2.318151e-004
6.597064e-004,-2.053985e-004
8.041066e-004,-2.233878e-004
9.862683e-004,-2.823795e-004
1.174264e-003,-3.643846e-004
1.314937e-003,-4.471999e-004
1.365502e-003,-4.943609e-004
1.307482e-003,-4.718338e-004
1.157409e-003,-3.582261e-004
9.522345e-004,-1.545100e-004
7.279359e-004,1.096565e-004
5.023408e-004,3.845193e-004
2.767458e-004,6.156245e-004
5.552663e-005,7.493285e-004
-1.412206e-004,7.537042e-004
-2.891863e-004,6.368551e-004
-3.899909e-004,4.422145e-004
-4.799371e-004,2.240746e-004
-6.253097e-004,2.813760e-005
-8.789418e-004,-1.233935e-004
-1.227382e-003,-2.301945e-004
-1.570637e-003,-3.029618e-004
-1.766412e-003,-3.510952e-004
-1.702558e-003,-3.741085e-004
-1.351362e-003,-3.640604e-004
-7.757063e-004,-3.016653e-004
-1.005423e-004,-1.491618e-004
5.354022e-004,1.386661e-004
1.036833e-003,5.809425e-004
1.367122e-003,1.150927e-003
1.532916e-003,1.764670e-003
1.567273e-003,2.287656e-003
1.512009e-003,2.588613e-003
1.410880e-003,2.595906e-003
1.299541e-003,2.339031e-003
1.194360e-003,1.934514e-003
1.090638e-003,1.521733e-003
9.639032e-004,1.185285e-003
7.773659e-004,9.214421e-004
5.091476e-004,6.780197e-004
1.710792e-004,4.091532e-004
-1.982676e-004,9.312579e-005
-5.557836e-004,-2.626076e-004
-8.604664e-004,-6.152616e-004
-1.083792e-003,-8.990379e-004
-1.212148e-003,-1.062562e-003
-1.244885e-003,-1.096433e-003
-1.191242e-003,-1.039549e-003
-1.070827e-003,-9.496023e-004
-9.097342e-004,-8.781315e-004
-7.356761e-004,-8.432874e-004
-5.766901e-004,-8.252982e-004
-4.460654e-004,-7.867267e-004
-3.391023e-004,-6.998597e-004
-2.481837e-004,-5.634007e-004
-1.681235e-004,-3.964735e-004
-9.713889e-005,-2.264670e-004
-3.053005e-005,-7.526008e-005
2.084466e-005,3.850977e-005
3.688912e-005,9.896014e-005
-9.623623e-006,9.409818e-005
-1.237176e-004,2.295151e-005
-2.758969e-004,-1.039456e-004
-4.128421e-004,-2.679557e-004
-4.901472e-004,-4.501171e-004
-4.916058e-004,-6.350335e-004
-4.211074e-004,-8.110364e-004
-2.972895e-004,-9.688881e-004
-1.417068e-004,-1.113288e-003
2.181705e-005,-1.254771e-003
1.611932e-004,-1.399333e-003
2.359053e-004,-1.537089e-003
2.229401e-004,-1.658800e-003
1.328318e-004,-1.758308e-003
1.047248e-005,-1.814707e-003
-7.347736e-005,-1.785049e-003
-5.095028e-005,-1.600619e-003
9.101894e-005,-1.204045e-003
3.067279e-004,-6.248234e-004
5.217887e-004,1.079661e-005
6.768852e-004,5.258403e-004
7.413873e-004,7.802830e-004
7.105949e-004,7.493285e-004
5.945560e-004,5.224369e-004
4.044533e-004,2.420638e-004
1.519555e-004,4.628891e-005
-1.186936e-004,3.721326e-005
-3.193304e-004,2.454672e-004
-3.788084e-004,6.055764e-004
-2.877277e-004,9.896716e-004
-9.162867e-005,1.257242e-003
1.402868e-004,1.308617e-003
3.634508e-004,1.119324e-003
5.841838e-004,7.323117e-004
8.076721e-004,2.252090e-004
9.888613e-004,-3.027998e-004
1.020950e-003,-7.479931e-004
7.866035e-004,-1.034362e-003
2.621599e-004,-1.140029e-003
-4.426621e-004,-1.091409e-003
-1.130467e-003,-9.299924e-004
-1.634328e-003,-6.808981e-004
-1.884233e-003,-3.470436e-004
-1.907895e-003,6.557468e-005
-1.797204e-003,5.300540e-004
-1.654262e-003,9.929129e-004
-1.538872e-003,1.371012e-003
-1.444063e-003,1.561115e-003
-1.319273e-003,1.484782e-003
-1.109074e-003,1.132127e-003
-7.812164e-004,5.720289e-004
-3.585502e-004,-7.688072e-005
6.265751e-005,-6.758740e-004
3.480546e-004,-1.099513e-003
3.944053e-004,-1.252664e-003
2.164575e-004,-1.091085e-003
-4.236081e-005,-6.473506e-004
-2.083157e-004,-3.992984e-005
-1.925954e-004,5.707324e-004
-1.643037e-005,1.038129e-003
2.216436e-004,1.273448e-003
4.182289e-004,1.256269e-003
5.052580e-004,1.028729e-003
4.566384e-004,6.815851e-004
2.843629e-004,3.308756e-004
3.721326e-005,7.967437e-005
-2.214430e-004,-1.383732e-005
-4.314796e-004,4.628891e-005
-5.405495e-004,2.067336e-004
-4.966299e-004,3.921364e-004
-2.807589e-004,5.579292e-004
6.103685e-005,6.877437e-004
4.402698e-004,7.715315e-004
7.752589e-004,8.047549e-004
9.784891e-004,7.901690e-004
9.457518e-004,7.319875e-004
6.165970e-004,6.373413e-004
3.267542e-005,5.153061e-004
-6.420024e-004,3.853296e-004
-1.185083e-003,2.778803e-004
-1.422995e-003,2.227780e-004
-1.305984e-003,2.218057e-004
-9.273993e-004,2.602152e-004
-4.577342e-004,3.117519e-004
-5.030201e-005,3.496752e-004
2.226160e-004,3.618301e-004
3.838710e-004,3.483787e-004
5.000719e-004,3.138588e-004
6.368551e-004,2.712356e-004
8.339267e-004,2.344468e-004
1.071029e-003,1.997648e-004
1.273772e-003,1.655690e-004
1.371984e-003,1.545486e-004
1.348161e-003,2.020337e-004
1.226612e-003,3.156415e-004
1.052391e-003,4.545315e-004
8.851393e-004,5.459364e-004
7.793106e-004,5.391297e-004
7.509491e-004,4.245494e-004
7.725038e-004,2.344468e-004
7.911414e-004,2.359977e-005
7.551629e-004,-1.575892e-004
6.389620e-004,-2.794623e-004
4.616624e-004,-3.371576e-004
2.631323e-004,-3.441264e-004
6.978838e-005,-3.224097e-004
-1.003802e-004,-2.966413e-004
-2.421873e-004,-2.856208e-004
-3.651949e-004,-2.942103e-004
-4.588686e-004,-3.188442e-004
-4.974402e-004,-3.541744e-004
-4.653512e-004,-3.984183e-004
-3.632501e-004,-4.501171e-004
-2.110708e-004,-5.031124e-004
-4.284701e-005,-5.463838e-004
1.009049e-004,-5.706937e-004
1.960373e-004,-5.745832e-004
2.357433e-004,-5.635628e-004
2.128921e-004,-5.460597e-004
1.020394e-004,-5.264499e-004
-1.229073e-004,-5.105674e-004
-4.113835e-004,-4.990608e-004
-6.162340e-004,-4.925782e-004
-5.919242e-004,-4.948471e-004
-2.951827e-004,-5.066778e-004
2.177540e-004,-5.240189e-004
8.392748e-004,-5.449253e-004
1.451721e-003,-5.713420e-004
1.954935e-003,-6.078066e-004
2.279553e-003,-6.523746e-004
2.387165e-003,-6.946736e-004
2.247140e-003,-7.249798e-004
1.835330e-003,-7.342175e-004
1.175885e-003,-7.168766e-004
3.683128e-004,-6.763602e-004
-4.525481e-004,-6.173684e-004
-1.204693e-003,-5.324463e-004
-1.883909e-003,-3.925839e-004
-2.484037e-003,-1.731475e-004
-2.931177e-003,1.172735e-004
-3.101994e-003,4.320044e-004
-2.898439e-003,7.117293e-004
-2.312086e-003,9.086389e-004
-1.453463e-003,9.987473e-004
-5.138087e-004,9.914543e-004
3.114278e-004,9.096113e-004
9.005356e-004,7.802830e-004
1.250273e-003,6.334517e-004
1.425628e-003,4.974788e-004
1.487051e-003,3.879227e-004
1.444752e-003,3.007315e-004
1.272638e-003,2.232642e-004
9.512621e-004,1.453108e-004
4.999098e-004,5.893001e-005
-8.327101e-006,-4.349527e-005
-4.541687e-004,-1.533756e-004
-7.172007e-004,-2.363530e-004
-7.347037e-004,-2.491561e-004
-5.256395e-004,-1.674752e-004
-1.804405e-004,-1.092015e-005
1.965235e-004,1.702689e-004
5.203301e-004,3.219621e-004
7.473837e-004,4.185530e-004
8.658536e-004,4.955340e-004
8.950254e-004,6.227554e-004
8.655294e-004,8.431644e-004
8.075100e-004,1.141851e-003
7.418735e-004,1.457717e-003
6.744543e-004,1.713457e-003
6.018489e-004,1.838247e-003
5.221128e-004,1.793841e-003
4.397836e-004,1.585749e-003
3.665300e-004,1.261456e-003
3.167760e-004,8.940530e-004
2.986246e-004,5.527431e-004
3.036486e-004,2.819319e-004
3.107795e-004,8.064676e-005
3.008935e-004,-7.526008e-005
2.666978e-004,-2.131776e-004
2.169437e-004,-3.523917e-004
1.662173e-004,-4.972781e-004
1.375317e-004,-6.389231e-004
1.550348e-004,-7.627410e-004
2.328261e-004,-8.580354e-004
3.778746e-004,-9.220512e-004
5.841838e-004,-9.583538e-004
8.371680e-004,-9.685639e-004
1.113652e-003,-9.551125e-004
1.334709e-003,-9.175134e-004
1.358857e-003,-8.522010e-004
1.056929e-003,-7.560964e-004
4.109359e-004,-6.321164e-004
-4.394208e-004,-4.880404e-004
-1.278433e-003,-3.366714e-004
-1.943711e-003,-2.002124e-004
-2.359895e-003,-1.002181e-004
-2.519044e-003,-4.965375e-005
-2.452273e-003,-4.787104e-005
-2.207391e-003,-7.801519e-005
-1.847120e-003,-1.211245e-004
-1.443577e-003,-1.640719e-004
-1.066451e-003,-1.964849e-004
-7.763545e-004,-2.097743e-004
-6.016482e-004,-2.005366e-004
-5.358497e-004,-1.684476e-004
-5.512458e-004,-1.143178e-004
-6.228787e-004,-3.830918e-005
-7.455621e-004,4.499239e-005
-9.291820e-004,1.135460e-004
-1.167094e-003,1.425557e-004
-1.408247e-003,1.198666e-004
-1.545678e-003,4.936815e-005
-1.465780e-003,-5.095028e-005
-1.117988e-003,-1.575892e-004
-5.473563e-004,-2.548284e-004
9.717742e-005,-3.324577e-004
6.321552e-004,-3.901529e-004
9.350555e-004,-4.337485e-004
9.877268e-004,-4.679442e-004
8.494850e-004,-4.933885e-004
6.212968e-004,-5.089468e-004
3.934329e-004,-5.117019e-004
2.130541e-004,-5.014918e-004
8.550872e-005,-4.768579e-004
-2.168618e-006,-4.337485e-004
-6.359137e-005,-3.749188e-004
-9.843541e-005,-3.058790e-004
-9.827335e-005,-2.361909e-004
-6.488790e-005,-1.703924e-004
-1.562004e-005,-1.039456e-004
2.765140e-005,-2.599222e-005
4.320967e-005,6.995045e-005
2.068259e-005,1.864754e-004
-3.636440e-005,3.017039e-004
-1.177212e-004,3.736609e-004
-2.005366e-004,3.666921e-004
-2.438080e-004,2.790147e-004
-2.173913e-004,1.409351e-004
-1.316588e-004,-1.691656e-005
-1.805102e-005,-1.780095e-004
9.555677e-005,-3.339163e-004
1.987924e-004,-4.582204e-004
2.931144e-004,-5.230465e-004
3.854917e-004,-5.159156e-004
4.837033e-004,-4.493068e-004
5.822390e-004,-3.637363e-004
6.553305e-004,-3.149546e-004
6.762370e-004,-3.600088e-004
6.383137e-004,-5.366600e-004
5.507984e-004,-8.372911e-004
4.328148e-004,-1.195779e-003
3.135346e-004,-1.509052e-003
2.205091e-004,-1.669659e-003
1.697827e-004,-1.601105e-003
1.694586e-004,-1.260606e-003
2.253711e-004,-6.645294e-004
3.511338e-004,1.112771e-004
5.730013e-004,9.496414e-004
8.916220e-004,1.756728e-003
1.220129e-003,2.466739e-003
1.400508e-003,2.999127e-003
1.268586e-003,3.263295e-003
7.595387e-004,3.213865e-003
-1.983374e-005,2.894432e-003
-8.202742e-004,2.410827e-003
-1.396740e-003,1.883788e-003
-1.613260e-003,1.409097e-003
-1.466104e-003,1.039750e-003
-1.059158e-003,7.917897e-004
-5.394151e-004,6.705647e-004
-4.527799e-005,6.987641e-004
3.230965e-004,8.958357e-004
5.261644e-004,1.218508e-003
5.694359e-004,1.549932e-003
4.939134e-004,1.760294e-003
3.660438e-004,1.766290e-003
2.610255e-004,1.563384e-003
2.266676e-004,1.197764e-003
2.715597e-004,7.344185e-004
3.675024e-004,2.388225e-004
4.717104e-004,-2.227395e-004
5.389676e-004,-5.933827e-004
5.448019e-004,-8.411806e-004
4.916445e-004,-9.615951e-004
4.005638e-004,-9.755327e-004
3.062417e-004,-9.183237e-004
2.422259e-004,-8.251361e-004
2.302331e-004,-7.231971e-004
2.688046e-004,-6.269303e-004
3.405996e-004,-5.395771e-004
4.323286e-004,-4.583824e-004
5.345918e-004,-3.870737e-004
6.400964e-004,-3.319715e-004
7.472216e-004,-3.044204e-004
8.639088e-004,-3.222476e-004
1.010740e-003,-4.086284e-004
1.178316e-003,-5.653455e-004
1.291276e-003,-7.502619e-004
1.255783e-003,-8.825072e-004
1.023705e-003,-8.906105e-004
6.071971e-004,-7.572308e-004
6.314371e-005,-5.254775e-004
-5.188328e-004,-2.733039e-004
-1.051055e-003,-5.727082e-005
-1.478421e-003,1.083599e-004
-1.779701e-003,2.472499e-004
-1.959269e-003,4.018603e-004
-2.028633e-003,6.020110e-004
-2.000272e-003,8.459195e-004
-1.886988e-003,1.103766e-003
-1.703044e-003,1.323203e-003
-1.454112e-003,1.441348e-003
-1.142460e-003,1.409421e-003
-7.703581e-004,1.196629e-003
-3.566054e-004,8.003791e-004
4.239934e-005,2.470879e-004
3.308756e-004,-4.047388e-004
4.177427e-004,-1.075365e-003
2.770700e-004,-1.686837e-003
-1.383732e-005,-2.180002e-003
-3.209511e-004,-2.523095e-003
-5.230465e-004,-2.699909e-003
-5.551354e-004,-2.701692e-003
-4.198109e-004,-2.541571e-003
-1.676373e-004,-2.251473e-003
1.297525e-004,-1.874995e-003
4.154738e-004,-1.462053e-003
6.669993e-004,-1.052190e-003
8.827084e-004,-6.590192e-004
1.065194e-003,-2.754107e-004
1.223532e-003,9.523264e-005
1.361288e-003,4.470765e-004
1.458203e-003,7.694246e-004
1.477813e-003,1.021436e-003
1.385598e-003,1.153358e-003
1.158220e-003,1.140879e-003
7.984343e-004,9.993955e-004
3.509718e-004,7.721797e-004
-1.037836e-004,5.063924e-004
-4.852852e-004,2.370398e-004
-7.603100e-004,-1.821308e-005
-9.500885e-004,-2.543422e-004
-1.090437e-003,-4.645409e-004
-1.183949e-003,-6.279027e-004
-1.195455e-003,-7.042355e-004
-1.091247e-003,-6.468644e-004
-8.677593e-004,-4.502792e-004
-5.533526e-004,-1.554824e-004
-2.055606e-004,1.735102e-004
1.052807e-004,4.812723e-004
3.185587e-004,7.350668e-004
3.958639e-004,9.282487e-004
3.242310e-004,1.073135e-003
1.263492e-004,1.185771e-003
-1.344139e-004,1.260969e-003
-3.690844e-004,1.278310e-003
-4.788027e-004,1.220615e-003
-4.087905e-004,1.095825e-003
-1.966470e-004,9.331108e-004
5.860587e-005,7.577559e-004
2.694529e-004,5.901803e-004
4.188771e-004,4.427008e-004
5.469088e-004,3.158036e-004
7.057329e-004,1.992786e-004
9.207938e-004,8.161915e-005
1.172806e-003,-4.349527e-005
1.401804e-003,-1.729855e-004
1.549446e-003,-2.909690e-004
1.592394e-003,-3.754050e-004
1.529188e-003,-4.100870e-004
1.357884e-003,-3.925839e-004
1.077349e-003,-3.335922e-004
6.969814e-004,-2.605007e-004
2.453051e-004,-2.016710e-004
-2.050744e-004,-1.695821e-004
-5.441150e-004,-1.643960e-004
-6.927288e-004,-1.739578e-004
-6.385990e-004,-1.853024e-004
-4.373140e-004,-1.862748e-004
-1.882196e-004,-1.737958e-004
4.244267e-007,-1.442999e-004
4.774750e-005,-1.007043e-004
-8.644258e-005,-5.532604e-005
-3.838324e-004,-2.031993e-005
-7.760304e-004,1.720949e-006
-1.149591e-003,9.662150e-006
-1.356710e-003,7.231170e-006
-1.247154e-003,-2.492749e-006
-7.314624e-004,-1.724069e-005
1.260251e-004,-3.360929e-005
1.049636e-003,-4.884343e-005
1.701788e-003,-5.856734e-005
1.882005e-003,-6.326724e-005
1.569542e-003,-6.359137e-005
8.817360e-004,-5.905355e-005
-5.085794e-006,-5.402952e-005
-9.043860e-004,-5.824321e-005
-1.644700e-003,-7.850138e-005
-2.088273e-003,-1.099420e-004
-2.154883e-003,-1.407345e-004
-1.870295e-003,-1.627753e-004
-1.369189e-003,-1.734716e-004
-8.280533e-004,-1.728234e-004
-3.833462e-004,-1.567789e-004
-8.660465e-005,-1.251762e-004
8.842590e-005,-9.162867e-005
2.033302e-004,-7.039811e-005
3.094830e-004,-6.375343e-005
4.292493e-004,-6.245691e-005
5.553362e-004,-6.067420e-005
6.647304e-004,-5.451571e-005
7.381460e-004,-3.847125e-005
7.535422e-004,-1.869928e-005
6.901746e-004,-1.043395e-005
5.457744e-004,-3.069211e-005
3.485408e-004,-8.790116e-005
1.370455e-004,-1.784957e-004
-5.727082e-005,-2.841623e-004
-2.147983e-004,-3.732981e-004
-3.318094e-004,-4.240246e-004
-4.136524e-004,-4.407173e-004
-4.729683e-004,-4.361795e-004
-5.185086e-004,-4.198109e-004
-5.397392e-004,-3.958252e-004
-5.011677e-004,-3.472056e-004
-3.705430e-004,-2.434839e-004
-1.470550e-004,-6.715681e-005
1.351007e-004,1.634621e-004
4.029947e-004,4.154738e-004
5.825632e-004,6.601926e-004
6.318311e-004,8.622881e-004
5.640878e-004,9.814063e-004
4.320044e-004,1.000692e-003
3.047831e-004,9.365141e-004
2.415776e-004,8.318198e-004
2.658874e-004,7.396046e-004
3.606957e-004,6.900126e-004
4.851619e-004,6.830437e-004
6.060626e-004,6.947124e-004
6.939021e-004,6.929297e-004
7.130259e-004,6.614891e-004
6.522513e-004,6.041179e-004
5.295678e-004,5.300540e-004
3.657197e-004,4.444834e-004
1.820997e-004,3.470822e-004
1.582063e-005,2.417397e-004
-8.854943e-005,1.328318e-004
-8.125648e-005,1.954813e-005
6.865393e-005,-1.045939e-004
3.239068e-004,-2.454286e-004
5.603603e-004,-3.980942e-004
6.196762e-004,-5.455735e-004
3.867882e-004,-6.729568e-004
-1.258244e-004,-7.779751e-004
-7.617687e-004,-8.747281e-004
-1.313763e-003,-9.711569e-004
-1.631411e-003,-1.049597e-003
-1.670793e-003,-1.081848e-003
-1.486038e-003,-1.049759e-003
-1.193024e-003,-9.555987e-004
-9.095722e-004,-8.097399e-004
-7.206041e-004,-6.094273e-004
-6.590192e-004,-3.258130e-004
-6.977528e-004,4.985435e-005
-7.679271e-004,4.756000e-004
-8.017988e-004,8.729845e-004
-7.601480e-004,1.161785e-003
-6.458919e-004,1.292896e-003
-4.807474e-004,1.265507e-003
-2.887001e-004,1.119162e-003
-9.843541e-005,8.909737e-004
6.703327e-005,6.005524e-004
2.004130e-004,2.603772e-004
3.132105e-004,-1.094559e-004
4.245494e-004,-4.828543e-004
5.328091e-004,-8.377773e-004
6.216210e-004,-1.145539e-003
6.741302e-004,-1.381506e-003
6.901746e-004,-1.527203e-003
6.807748e-004,-1.574526e-003
6.634339e-004,-1.505972e-003
6.517651e-004,-1.288319e-003
6.473893e-004,-8.787797e-004
6.355586e-004,-2.442942e-004
5.992559e-004,5.806184e-004
5.326470e-004,1.459500e-003
4.464283e-004,2.232878e-003
3.519442e-004,2.782120e-003
2.628082e-004,3.057471e-003
1.960373e-004,3.075136e-003
1.555209e-004,2.901239e-003
1.284560e-004,2.613085e-003
9.053274e-005,2.261078e-003
2.376183e-005,1.860937e-003
-7.250496e-005,1.398887e-003
-1.846541e-004,8.619640e-004
-2.943724e-004,2.594048e-004
-3.870737e-004,-3.579019e-004
-4.502792e-004,-9.267511e-004
-4.685925e-004,-1.406140e-003
-4.277521e-004,-1.781646e-003
-3.326198e-004,-2.041436e-003
-2.122052e-004,-2.143376e-003
-1.089697e-004,-2.027985e-003
-5.921561e-005,-1.663500e-003
-6.407756e-005,-1.072286e-003
-8.255302e-005,-3.407230e-004
-5.500191e-005,3.775505e-004
4.904402e-005,9.094492e-004
2.067336e-004,1.151575e-003
3.720402e-004,1.087559e-003
5.072028e-004,7.916276e-004
5.913147e-004,3.924605e-004
6.151383e-004,1.873781e-005
5.811046e-004,-2.528836e-004
5.036373e-004,-4.052250e-004
3.952156e-004,-4.611375e-004
2.634565e-004,-4.632444e-004
1.026876e-004,-4.496309e-004
-9.892161e-005,-4.366657e-004
-3.481780e-004,-4.209453e-004
-6.479988e-004,-3.878840e-004
-9.930359e-004,-3.232200e-004
-1.349904e-003,-2.214430e-004
-1.645349e-003,-7.688072e-005
-1.769167e-003,1.080358e-004
-1.633194e-003,3.140208e-004
-1.233216e-003,5.059062e-004
-6.637191e-004,6.360448e-004
-9.551824e-005,6.665131e-004
3.031625e-004,5.918010e-004
4.555039e-004,4.297355e-004
3.979707e-004,2.182402e-004
2.362295e-004,3.179537e-006
7.594687e-005,-1.775233e-004
-2.745081e-005,-3.013411e-004
-6.359137e-005,-3.473677e-004
-2.453363e-005,-3.079858e-004
9.750155e-005,-2.055606e-004
2.939247e-004,-9.535618e-005
5.305402e-004,-4.300908e-005
7.642385e-004,-8.822530e-005
9.755719e-004,-2.227395e-004
1.186257e-003,-4.010113e-004
1.421900e-003,-5.715040e-004
1.676506e-003,-6.878669e-004
1.923980e-003,-7.317865e-004
2.145038e-003,-7.081250e-004
2.326390e-003,-6.335750e-004
2.471601e-003,-5.298532e-004
2.597689e-003,-4.086284e-004
2.715349e-003,-2.812450e-004
2.823771e-003,-1.613168e-004
2.910315e-003,-6.391550e-005
2.925549e-003,6.096713e-006
2.771910e-003,4.936815e-005
2.353941e-003,7.335382e-005
1.614272e-003,9.134307e-005
5.530672e-004,1.098185e-004
-7.317865e-004,1.295905e-004
-2.017451e-003,1.624898e-004
-3.079791e-003,2.250470e-004
-3.766951e-003,3.153174e-004
-4.045056e-003,4.080188e-004
-3.963050e-003,4.662002e-004
-3.629843e-003,4.490213e-004
-3.172817e-003,3.279585e-004
-2.677382e-003,1.049566e-004
-2.169144e-003,-1.888679e-004
-1.639190e-003,-5.087847e-004
-1.079579e-003,-8.058504e-004
-5.151053e-004,-1.032418e-003
-1.043395e-005,-1.160935e-003
3.501614e-004,-1.187676e-003
5.302160e-004,-1.134843e-003
5.623050e-004,-1.038738e-003
5.175750e-004,-9.312889e-004
4.582590e-004,-8.207604e-004
4.120704e-004,-7.026148e-004
3.828986e-004,-5.719902e-004
3.624784e-004,-4.300210e-004
3.336308e-004,-2.825416e-004
2.811216e-004,-1.339277e-004
2.021958e-004,1.241726e-005
1.116012e-004,1.610312e-004
2.684107e-005,3.229344e-004
-4.284701e-005,5.029890e-004
-1.029732e-004,6.974676e-004
-1.536997e-004,8.862738e-004
-1.820611e-004,1.037157e-003
-1.712027e-004,1.113652e-003
-1.107524e-004,1.096149e-003
-5.085794e-006,9.898336e-004
1.208390e-004,8.143167e-004
2.355812e-004,5.885596e-004
3.158036e-004,3.341170e-004
3.553475e-004,8.550872e-005
3.676645e-004,-1.008664e-004
3.699334e-004,-1.674752e-004
3.488649e-004,-8.125648e-005
2.709115e-004,1.354248e-004
1.454729e-004,4.008879e-004
2.797553e-005,6.235657e-004
-1.950961e-005,7.399287e-004
3.575467e-005,7.274497e-004
1.892305e-004,6.141660e-004
4.051016e-004,4.568004e-004
6.232416e-004,3.018659e-004
7.872518e-004,1.582760e-004
8.703914e-004,-1.682422e-006
8.655294e-004,-2.109087e-004
7.637523e-004,-4.705373e-004
5.580913e-004,-7.489654e-004
2.569738e-004,-1.007784e-003
-1.039456e-004,-1.210689e-003
-4.800992e-004,-1.318625e-003
-8.483115e-004,-1.304039e-003
-1.210689e-003,-1.173090e-003
-1.564802e-003,-9.601365e-004
-1.864947e-003,-7.073147e-004
-2.030578e-003,-4.562756e-004
-1.993627e-003,-2.400805e-004
-1.732540e-003,-7.331529e-005
-1.278433e-003,5.747142e-005
-7.027768e-004,1.701068e-004
-9.956987e-005,2.704253e-004
4.290873e-004,3.512959e-004
7.987585e-004,4.029947e-004
9.765443e-004,4.185530e-004
9.771925e-004,4.034809e-004
8.514298e-004,3.851675e-004
6.681337e-004,3.947294e-004
4.879170e-004,4.491834e-004
3.430306e-004,5.559844e-004
2.388225e-004,7.067053e-004
1.652449e-004,8.742810e-004
1.090082e-004,1.016574e-003
5.196120e-005,1.099390e-003
-2.728874e-005,1.103928e-003
-1.358725e-004,1.022895e-003
-2.577456e-004,8.648811e-004
-3.553089e-004,6.631097e-004
-3.883702e-004,4.756000e-004
-3.215993e-004,3.665300e-004
-1.467309e-004,3.618301e-004
9.361198e-005,4.415663e-004
3.033245e-004,5.522569e-004
3.747953e-004,6.340999e-004
2.448189e-004,6.561409e-004
-6.423963e-005,6.219451e-004
-4.366657e-004,5.503122e-004
-7.249798e-004,4.597176e-004
-8.217327e-004,3.644232e-004
-7.043975e-004,2.739907e-004
-4.345588e-004,1.871237e-004
-1.117248e-004,9.896014e-005
1.900409e-004,1.371378e-005
4.736553e-004,-6.456376e-005
7.875760e-004,-1.311726e-004
1.141689e-003,-1.857886e-004
1.457393e-003,-2.308428e-004
1.588504e-003,-2.611490e-004
1.400832e-003,-2.585559e-004
8.810877e-004,-1.976194e-004
1.752929e-004,-5.937767e-005
-4.822060e-004,1.738343e-004
-8.974173e-004,4.934272e-004
-9.996805e-004,8.399231e-004
-8.335636e-004,1.121431e-003
-5.201293e-004,1.259997e-003
-1.922712e-004,1.219318e-003
5.066468e-005,1.020464e-003
1.684862e-004,7.191843e-004
1.793446e-004,3.759298e-004
1.359110e-004,4.320967e-005
8.988448e-005,-2.439700e-004
6.930219e-005,-4.697270e-004
6.703327e-005,-6.345474e-004
6.281957e-005,-7.471828e-004
3.786152e-005,-8.144398e-004
-5.479652e-007,-8.421530e-004
-1.351319e-005,-8.299981e-004
4.337174e-005,-7.782993e-004
1.918236e-004,-6.899737e-004
4.157979e-004,-5.723143e-004
6.598684e-004,-4.339106e-004
8.395989e-004,-2.893483e-004
8.814118e-004,-1.561307e-004
7.678040e-004,-4.722277e-005
5.460985e-004,2.538249e-005
2.976522e-004,5.406805e-005
8.875003e-005,2.894792e-005
-4.754691e-005,-5.678463e-005
-9.892161e-005,-2.065330e-004
-5.905355e-005,-4.237005e-004
7.270556e-005,-7.040733e-004
2.760976e-004,-1.029987e-003
5.208162e-004,-1.379724e-003
7.773659e-004,-1.728326e-003
1.005068e-003,-2.040626e-003
1.154816e-003,-2.282914e-003
1.183664e-003,-2.429422e-003
1.081725e-003,-2.457297e-003
8.640708e-004,-2.344661e-003
5.642498e-004,-2.065746e-003
2.159713e-004,-1.586681e-003
-1.543479e-004,-8.988758e-004
-5.251534e-004,-7.234290e-005
-8.831555e-004,7.264772e-004
-1.230137e-003,1.318989e-003
-1.569664e-003,1.601307e-003
-1.886016e-003,1.570839e-003
-2.128304e-003,1.337140e-003
-2.216629e-003,1.077835e-003
-2.081467e-003,9.668203e-004
-1.707582e-003,1.078646e-003
-1.139219e-003,1.360802e-003
-4.687546e-004,1.694009e-003
2.057612e-004,1.979893e-003
8.298751e-004,2.161893e-003
1.407477e-003,2.195117e-003
1.910853e-003,2.046016e-003
2.220885e-003,1.731446e-003
2.194630e-003,1.336978e-003
1.756242e-003,9.755719e-004
9.651997e-004,7.125397e-004
-1.010982e-005,5.438296e-004
-9.596503e-004,4.436731e-004
-1.716333e-003,3.921364e-004
-2.171251e-003,3.911640e-004
-2.264601e-003,4.488592e-004
-2.000596e-003,5.464226e-004
-1.457191e-003,6.256726e-004
-7.687375e-004,6.175693e-004
-8.644258e-005,4.866205e-004
4.696036e-004,2.386605e-004
8.323060e-004,-9.713889e-005
9.964784e-004,-4.924161e-004
9.982612e-004,-9.209167e-004
8.906496e-004,-1.345690e-003
7.280979e-004,-1.719413e-003
5.441537e-004,-1.988927e-003
3.443271e-004,-2.116959e-003
1.122495e-004,-2.092325e-003
-1.661787e-004,-1.933015e-003
-4.661616e-004,-1.668200e-003
-7.128249e-004,-1.321056e-003
-8.077951e-004,-9.014689e-004
-6.878669e-004,-4.092766e-004
-3.579019e-004,1.370455e-004
1.229458e-004,6.708889e-004
6.619752e-004,1.095662e-003
1.157085e-003,1.331630e-003
1.538750e-003,1.347350e-003
1.787359e-003,1.178478e-003
1.930463e-003,9.100975e-004
2.011658e-003,6.434998e-004
2.068867e-003,4.472386e-004
2.133369e-003,3.308756e-004
2.193496e-003,2.585945e-004
2.171131e-003,1.877719e-004
1.982162e-003,9.296372e-005
1.586073e-003,-3.328516e-005
9.864303e-004,-1.844921e-004
2.218057e-004,-3.442885e-004
-6.204477e-004,-4.865818e-004
-1.425912e-003,-5.928966e-004
-2.112259e-003,-6.575607e-004
-2.629572e-003,-6.881910e-004
-2.960673e-003,-7.000217e-004
-3.121118e-003,-7.031010e-004
-3.126952e-003,-6.984011e-004
-2.974448e-003,-6.831670e-004
-2.655827e-003,-6.552917e-004
-2.189726e-003,-6.063480e-004
-1.634814e-003,-5.113778e-004
-1.067910e-003,-3.481780e-004
-5.489769e-004,-1.263107e-004
-1.190177e-004,1.056048e-004
1.866375e-004,2.795009e-004
3.550234e-004,3.425443e-004
4.371905e-004,2.848491e-004
5.213025e-004,1.443384e-004
6.635959e-004,-1.788895e-005
8.690949e-004,-1.520790e-004
1.108628e-003,-2.339220e-004
1.342650e-003,-2.532078e-004
1.530971e-003,-2.086398e-004
1.636475e-003,-1.084835e-004
1.632910e-003,2.165498e-005
1.507147e-003,1.504969e-004
1.249625e-003,2.478982e-004
8.755775e-004,3.025142e-004
4.423766e-004,3.166139e-004
2.570661e-005,3.047831e-004
-3.318094e-004,2.764217e-004
-6.608019e-004,2.368777e-004
-1.028690e-003,1.950649e-004
-1.461242e-003,1.662173e-004
-1.898495e-003,1.717275e-004
-2.230567e-003,2.214815e-004
-2.359571e-003,2.983005e-004
-2.234943e-003,3.705817e-004
-1.864947e-003,4.093153e-004
-1.317815e-003,4.070464e-004
-6.975908e-004,3.752816e-004
-1.055663e-004,3.321721e-004
3.785229e-004,2.924662e-004
7.167534e-004,2.547049e-004
9.147974e-004,1.981441e-004
1.003771e-003,9.896014e-005
1.018681e-003,-4.754691e-005
9.836751e-004,-2.147983e-004
9.136629e-004,-3.619536e-004
8.217717e-004,-4.543308e-004
7.316634e-004,-4.791268e-004
6.739681e-004,-4.512515e-004
6.794783e-004,-4.024699e-004
7.695867e-004,-3.627639e-004
9.360280e-004,-3.536882e-004
1.142013e-003,-3.778360e-004
1.340219e-003,-4.241866e-004
1.481865e-003,-4.835025e-004
1.551553e-003,-5.457356e-004
1.577808e-003,-5.987309e-004
1.576673e-003,-6.233649e-004
1.529188e-003,-6.009999e-004
1.405046e-003,-5.241809e-004
1.196629e-003,-3.972838e-004
9.298695e-004,-2.360288e-004
6.358827e-004,-5.840528e-005
3.292550e-004,1.205148e-004
1.371378e-005,2.963557e-004
-3.019894e-004,4.674967e-004
-6.134789e-004,6.417171e-004
-9.009827e-004,8.258234e-004
-1.118799e-003,1.020140e-003
-1.231758e-003,1.218508e-003
-1.248613e-003,1.409259e-003
-1.199507e-003,1.564194e-003
-1.116205e-003,1.647658e-003
-1.034524e-003,1.631776e-003
-9.865531e-004,1.505851e-003
-1.009080e-003,1.274907e-003
-1.119609e-003,9.726548e-004
-1.276488e-003,6.491721e-004
-1.380696e-003,3.420582e-004
-1.332563e-003,7.546067e-005
-1.085089e-003,-1.412206e-004
-6.784671e-004,-3.261371e-004
-2.185258e-004,-5.089468e-004
1.744826e-004,-7.128249e-004
4.221185e-004,-9.457127e-004
5.127130e-004,-1.185083e-003
4.895377e-004,-1.383613e-003
4.138531e-004,-1.491225e-003
3.324963e-004,-1.484256e-003
2.675081e-004,-1.361572e-003
2.347709e-004,-1.135005e-003
2.506533e-004,-8.249740e-004
3.229344e-004,-4.536825e-004
4.367043e-004,-3.117831e-005
5.533914e-004,4.271425e-004
6.271311e-004,8.838428e-004
6.253485e-004,1.277014e-003
5.433434e-004,1.529836e-003
4.070464e-004,1.590125e-003
2.579462e-004,1.458041e-003
1.265113e-004,1.191605e-003
2.359977e-005,8.804395e-004
-5.240886e-005,6.106005e-004
-1.125351e-004,4.255218e-004
-1.669890e-004,3.201793e-004
-2.373254e-004,2.558394e-004
-3.668155e-004,1.816135e-004
-5.916001e-004,6.184718e-005
-8.998482e-004,-1.094559e-004
-1.202748e-003,-2.997205e-004
-1.361734e-003,-4.664857e-004
-1.269195e-003,-5.778245e-004
-9.155686e-004,-6.267682e-004
-3.899909e-004,-6.202856e-004
1.595726e-004,-5.659938e-004
5.969870e-004,-4.677822e-004
8.572641e-004,-3.373197e-004
9.535310e-004,-2.089639e-004
9.407278e-004,-1.225831e-004
8.741189e-004,-1.020008e-004
7.867657e-004,-1.430034e-004
6.942262e-004,-2.225774e-004
6.041179e-004,-3.209511e-004
5.264885e-004,-4.392587e-004
4.632831e-004,-5.964620e-004
4.051016e-004,-8.047159e-004
3.393030e-004,-1.047976e-003
2.595669e-004,-1.290102e-003
1.730240e-004,-1.491063e-003
9.620503e-005,-1.622822e-003
4.612685e-005,-1.666579e-003
3.429608e-005,-1.605481e-003
5.244739e-005,-1.418619e-003
7.189524e-005,-1.084116e-003
6.217131e-005,-5.972724e-004
2.133085e-005,1.825161e-005
-1.480971e-005,7.057329e-004
1.274139e-005,1.390136e-003
1.467694e-004,1.977138e-003
3.705817e-004,2.367231e-003
6.031455e-004,2.512118e-003
7.217774e-004,2.423630e-003
6.243761e-004,2.166431e-003
2.905214e-004,1.831279e-003
-1.865989e-004,1.505202e-003
-6.507539e-004,1.235525e-003
-9.677536e-004,1.027109e-003
-1.070827e-003,8.551573e-004
-9.693743e-004,6.917953e-004
-7.288694e-004,5.243817e-004
-4.378001e-004,3.618301e-004
-1.844921e-004,2.237504e-004
-3.506787e-005,1.252147e-004
-9.947754e-006,6.476436e-005
-6.569822e-005,3.543053e-005
-1.279313e-004,2.781346e-005
-1.363587e-004,3.364782e-005
-7.947377e-005,4.661304e-005
5.124321e-006,6.055066e-005
5.779555e-005,7.011251e-005
4.661304e-005,7.432621e-005
-6.058186e-006,7.351588e-005
-4.268495e-005,6.914012e-005
-2.696461e-005,6.557468e-005
3.721326e-005,6.038860e-005
1.077117e-004,4.580272e-005
1.242423e-004,1.290346e-005
3.056858e-005,-4.544005e-005
-1.995642e-004,-1.302002e-004
-5.442770e-004,-2.348944e-004
-9.384198e-004,-3.463953e-004
-1.307929e-003,-4.494688e-004
-1.610667e-003,-5.345531e-004
-1.845337e-003,-6.052136e-004
-2.015668e-003,-6.693914e-004
-2.094432e-003,-7.319486e-004
-2.020368e-003,-7.747338e-004
-1.744533e-003,-7.659823e-004
-1.280540e-003,-6.677707e-004
-6.993735e-004,-4.517377e-004
-8.903562e-005,-1.253383e-004
4.824068e-004,2.427121e-004
9.804339e-004,5.459364e-004
1.392729e-003,6.903367e-004
1.710377e-003,6.284277e-004
1.951693e-003,3.733367e-004
2.142931e-003,-1.367526e-005
2.293977e-003,-4.390966e-004
2.390730e-003,-8.193018e-004
2.400941e-003,-1.097568e-003
2.301756e-003,-1.245533e-003
2.100470e-003,-1.262226e-003
1.840516e-003,-1.164015e-003
1.571973e-003,-9.692122e-004
1.338761e-003,-6.890013e-004
1.183178e-003,-3.324577e-004
1.135369e-003,6.119892e-005
1.193874e-003,4.080188e-004
1.314613e-003,6.200003e-004
1.408125e-003,6.472273e-004
1.384787e-003,4.965065e-004
1.200033e-003,2.214815e-004
8.838428e-004,-8.660465e-005
5.161164e-004,-3.146305e-004
1.696206e-004,-3.608191e-004
-1.243659e-004,-1.541859e-004
-3.767015e-004,3.354135e-004
-6.300095e-004,1.060818e-003
-9.139479e-004,1.871471e-003
-1.207448e-003,2.542748e-003
-1.449088e-003,2.857967e-003
-1.546651e-003,2.707083e-003
-1.444226e-003,2.134990e-003
-1.157046e-003,1.315261e-003
-7.620928e-004,4.587452e-004
-3.512573e-004,-2.575835e-004
-8.720958e-007,-7.413484e-004
2.467637e-004,-9.949806e-004
3.736609e-004,-1.068072e-003
3.691231e-004,-1.014915e-003
2.464396e-004,-8.638697e-004
3.656499e-005,-6.295234e-004
-2.188499e-004,-3.366714e-004
-4.757234e-004,-2.939559e-005
-7.108801e-004,2.391467e-004
-9.280476e-004,4.114221e-004
-1.159639e-003,4.392974e-004
-1.439202e-003,3.245551e-004
-1.755877e-003,1.304008e-004
-2.046785e-003,-5.305713e-005
-2.224895e-003,-1.663408e-004
-2.213712e-003,-1.981056e-004
-1.972235e-003,-1.749302e-004
-1.507755e-003,-1.349001e-004
-8.797522e-004,-1.068628e-004
-2.015089e-004,-1.096179e-004
3.908399e-004,-1.460826e-004
7.823899e-004,-2.100984e-004
9.326246e-004,-2.878897e-004
8.809257e-004,-3.604950e-004
7.152948e-004,-4.141386e-004
5.292437e-004,-4.538446e-004
3.816021e-004,-5.044090e-004
2.989488e-004,-5.916001e-004
2.861456e-004,-7.152559e-004
3.282826e-004,-8.494459e-004
3.869503e-004,-9.517092e-004
4.229288e-004,-9.881739e-004
4.107739e-004,-9.572193e-004
3.487029e-004,-8.985517e-004
2.587565e-004,-8.646800e-004
1.858272e-004,-8.943380e-004
1.757791e-004,-9.818532e-004
2.594048e-004,-1.084116e-003
4.467524e-004,-1.143108e-003
7.332840e-004,-1.117664e-003
1.126455e-003,-9.872015e-004
1.627400e-003,-7.413484e-004
2.171131e-003,-3.920977e-004
2.609195e-003,2.207145e-006
2.793465e-003,3.503235e-004
2.651495e-003,5.713807e-004
2.199654e-003,6.353965e-004
1.486241e-003,5.694359e-004
5.530672e-004,4.362181e-004
-4.959816e-004,3.052693e-004
-1.477611e-003,2.209953e-004
-2.225543e-003,1.906891e-004
-2.622442e-003,1.937684e-004
-2.626979e-003,1.996027e-004
-2.297824e-003,1.884202e-004
-1.786022e-003,1.589243e-004
-1.262550e-003,1.211631e-004
-8.475012e-004,9.344992e-005
-5.805796e-004,9.101894e-005
-4.426621e-004,1.221355e-004
-3.846427e-004,1.790204e-004
-3.523917e-004,2.325020e-004
-2.966413e-004,2.534084e-004
-1.893540e-004,2.305572e-004
-4.770897e-005,1.770756e-004
6.995045e-005,1.219734e-004
9.604297e-005,9.053274e-005
-2.372330e-005,9.231547e-005
-3.146305e-004,1.210010e-004
-7.590135e-004,1.660552e-004
-1.287670e-003,2.218057e-004
-1.770139e-003,2.842008e-004
-2.053754e-003,3.415720e-004
-2.028471e-003,3.824124e-004
-1.677276e-003,4.039671e-004
-1.089303e-003,4.109359e-004
-4.313175e-004,4.109359e-004
1.130598e-004,4.125566e-004
4.294114e-004,4.258459e-004
5.143337e-004,4.542074e-004
4.474007e-004,4.913204e-004
3.482167e-004,5.224369e-004
3.119140e-004,5.319988e-004
3.780367e-004,5.130371e-004
5.324850e-004,4.692795e-004
7.214532e-004,4.149876e-004
8.827084e-004,3.687989e-004
9.780029e-004,3.423823e-004
1.004582e-003,3.318480e-004
9.922647e-004,3.224483e-004
9.702237e-004,3.002453e-004
9.553137e-004,2.611876e-004
9.457518e-004,2.128921e-004
9.305177e-004,1.642725e-004
8.969702e-004,1.234320e-004
8.289026e-004,9.328785e-005
7.102708e-004,6.508849e-005
5.430192e-004,2.376183e-005
3.417340e-004,-3.458168e-005
1.263492e-004,-1.007043e-004
-8.012203e-005,-1.655304e-004
-2.532078e-004,-2.139880e-004
-3.653569e-004,-2.425115e-004
-3.835083e-004,-2.527216e-004
-2.861070e-004,-2.574215e-004
-9.211487e-005,-2.705488e-004
1.551968e-004,-3.013411e-004
4.042912e-004,-3.509331e-004
6.203245e-004,-4.138144e-004
8.128582e-004,-4.770199e-004
1.020302e-003,-5.193189e-004
1.226936e-003,-5.196431e-004
1.340057e-003,-4.687546e-004
1.245087e-003,-3.726499e-004
8.712017e-004,-2.512630e-004
2.696149e-004,-1.258244e-004
-3.877220e-004,-9.785687e-006
-8.941760e-004,9.912220e-005
-1.117016e-003,2.159713e-004
-1.038252e-003,3.598853e-004
-7.379450e-004,5.504742e-004
-3.392644e-004,7.874139e-004
3.186510e-005,1.028081e-003
2.913317e-004,1.205705e-003
4.200116e-004,1.264859e-003
4.499937e-004,1.178478e-003
4.253598e-004,9.630928e-004
3.775505e-004,6.650545e-004
3.167760e-004,3.357376e-004
2.346088e-004,1.419998e-005
1.211631e-004,-2.724935e-004
-2.226472e-005,-4.933885e-004
-1.773612e-004,-6.185029e-004
-3.154408e-004,-6.360059e-004
-4.108973e-004,-5.575664e-004
-4.536825e-004,-4.013354e-004
-4.551411e-004,-1.896782e-004
-4.321278e-004,3.834771e-005
-4.005251e-004,2.073818e-004
-3.648708e-004,2.363915e-004
-3.227338e-004,9.085687e-005
-2.835140e-004,-1.961608e-004
-2.640661e-004,-5.157535e-004
-2.504527e-004,-7.473448e-004
-1.937298e-004,-8.212466e-004
-5.872941e-005,-7.379450e-004
1.412592e-004,-5.514079e-004
3.608577e-004,-3.240303e-004
5.566327e-004,-9.260106e-005
6.961710e-004,1.294284e-004
7.712073e-004,3.470822e-004
7.859553e-004,5.718669e-004
7.538663e-004,8.198270e-004
6.934159e-004,1.089828e-003
6.195141e-004,1.351564e-003
5.370228e-004,1.557063e-003
4.358940e-004,1.664351e-003
2.780423e-004,1.651710e-003
3.665733e-006,1.538264e-003
-4.222419e-004,1.369553e-003
-9.590021e-004,1.186095e-003
-1.488794e-003,1.005716e-003
-1.861544e-003,8.444610e-004
-1.972559e-003,7.230739e-004
-1.799635e-003,6.234036e-004
-1.406140e-003,4.837033e-004
-9.071411e-004,2.461155e-004
-4.361795e-004,-9.519411e-005
-1.058904e-004,-4.925782e-004
2.262737e-005,-8.716489e-004
-3.782299e-005,-1.164825e-003
-2.045882e-004,-1.334669e-003
-3.574157e-004,-1.375672e-003
-3.953390e-004,-1.302580e-003
-2.674695e-004,-1.142460e-003
1.695509e-005,-9.358267e-004
4.047775e-004,-7.249798e-004
8.212855e-004,-5.418460e-004
1.193712e-003,-4.063595e-004
1.460148e-003,-3.228959e-004
1.578780e-003,-2.784900e-004
1.540371e-003,-2.480217e-004
1.373443e-003,-2.066950e-004
1.131965e-003,-1.491618e-004
8.736327e-004,-9.811128e-005
6.336138e-004,-8.854943e-005
4.253598e-004,-1.425172e-004
2.511395e-004,-2.506147e-004
1.119254e-004,-3.883702e-004
-5.479652e-007,-5.293670e-004
-1.018388e-004,-6.575607e-004
-2.042640e-004,-7.716546e-004
-2.984240e-004,-8.761867e-004
-3.515814e-004,-9.719673e-004
-3.267854e-004,-1.053000e-003
-2.066950e-004,-1.112154e-003
1.883015e-006,-1.149915e-003
2.608634e-004,-1.168553e-003
4.968306e-004,-1.164015e-003
6.334517e-004,-1.123498e-003
6.392861e-004,-1.039873e-003
5.386435e-004,-9.191340e-004
3.935950e-004,-7.807303e-004
2.689667e-004,-6.483229e-004
2.021958e-004,-5.481666e-004
2.005751e-004,-4.967919e-004
2.525981e-004,-4.779923e-004
3.341170e-004,-4.486585e-004
4.112601e-004,-3.546606e-004
4.485351e-004,-1.344139e-004
4.274666e-004,2.263435e-004
3.566440e-004,6.417171e-004
2.590807e-004,9.684410e-004
1.514693e-004,1.108141e-003
2.781346e-005,1.081239e-003
-1.245279e-004,1.013333e-003
-3.136581e-004,1.059036e-003
-5.282326e-004,1.293869e-003
-7.517206e-004,1.670995e-003
-9.756948e-004,2.046016e-003
-1.198535e-003,2.247626e-003
-1.422347e-003,2.169996e-003
-1.645025e-003,1.842623e-003
-1.846472e-003,1.383491e-003
-1.991034e-003,9.220903e-004
-2.016965e-003,5.538776e-004
-1.859437e-003,3.255275e-004
-1.506297e-003,2.372019e-004
-1.011997e-003,2.316917e-004
-4.849611e-004,2.284503e-004
-4.722277e-005,1.777239e-004
2.209953e-004,7.935023e-005
3.201793e-004,-4.592625e-005
3.357376e-004,-1.823852e-004
3.867882e-004,-3.149546e-004
5.529052e-004,-4.222419e-004
8.160995e-004,-4.839887e-004
1.061629e-003,-4.914437e-004
1.136341e-003,-4.475240e-004
9.334349e-004,-3.660052e-004
4.702519e-004,-2.640661e-004
-9.551824e-005,-1.652063e-004
-5.580526e-004,-8.692878e-005
-7.737615e-004,-3.085418e-005
-7.139593e-004,1.468617e-005
-4.616237e-004,6.557468e-005
-1.530514e-004,1.282940e-004
8.388807e-005,1.987924e-004
1.778859e-004,2.678322e-004
1.368834e-004,3.276343e-004
3.121684e-005,3.739850e-004
-5.111234e-005,4.013741e-004
-5.581224e-005,4.123945e-004
1.582063e-005,4.253598e-004
1.208390e-004,4.517764e-004
2.077060e-004,4.636072e-004
2.410914e-004,3.945674e-004
2.125679e-004,1.952270e-004
1.409351e-004,-1.107524e-004
5.666109e-005,-4.363416e-004
-2.048200e-005,-6.917564e-004
-7.736692e-005,-8.272430e-004
-9.859748e-005,-8.450702e-004
-6.942573e-005,-7.842957e-004
2.003433e-005,-6.938633e-004
1.620035e-004,-6.115341e-004
3.274723e-004,-5.561078e-004
4.798137e-004,-5.298532e-004
6.007145e-004,-5.196431e-004
6.867713e-004,-5.120260e-004
7.430080e-004,-4.969540e-004
7.849829e-004,-4.695649e-004
8.386266e-004,-4.335864e-004
9.271143e-004,-3.927460e-004
1.063087e-003,-3.504469e-004
1.231798e-003,-3.081479e-004
1.394998e-003,-2.682798e-004
1.510064e-003,-2.348944e-004
1.529350e-003,-2.128535e-004
1.412501e-003,-2.084778e-004
1.141365e-003,-2.194982e-004
7.342565e-004,-2.324634e-004
2.564876e-004,-2.233878e-004
-2.177155e-004,-1.681235e-004
-6.556159e-004,-5.354332e-005
-1.036631e-003,1.167873e-004
-1.331266e-003,3.148312e-004
-1.517965e-003,4.992615e-004
-1.571933e-003,6.290759e-004
-1.476963e-003,6.773715e-004
-1.238403e-003,6.415550e-004
-8.985517e-004,5.417227e-004
-5.305015e-004,4.099635e-004
-2.071812e-004,2.749631e-004
4.515445e-005,1.516314e-004
2.213195e-004,5.131293e-005
3.015418e-004,-1.886135e-005
2.663736e-004,-6.035006e-005
1.210010e-004,-7.979790e-005
-1.083214e-004,-9.033214e-005
-3.955011e-004,-1.003802e-004
-7.214144e-004,-1.146419e-004
-1.065965e-003,-1.267968e-004
-1.374375e-003,-1.209625e-004
-1.532227e-003,-8.628051e-005
-1.429154e-003,-2.307504e-005
-1.050893e-003,5.406805e-005
-5.207775e-004,1.278078e-004
-5.613637e-005,1.923098e-004
1.537382e-004,2.530843e-004
5.909207e-005,3.172621e-004
-2.306807e-004,3.864641e-004
-5.235327e-004,4.582590e-004
-6.578848e-004,5.229231e-004
-5.711798e-004,5.647360e-004
-3.117133e-004,5.717048e-004
3.827798e-006,5.358884e-004
2.629703e-004,4.603659e-004
4.036430e-004,3.569682e-004
4.260080e-004,2.336364e-004
3.662059e-004,9.620503e-005
2.735045e-004,-4.527799e-005
1.923098e-004,-1.776853e-004
1.446626e-004,-2.976136e-004
1.359110e-004,-4.029561e-004
1.577899e-004,-4.898231e-004
2.000889e-004,-5.494631e-004
2.587565e-004,-5.655076e-004
3.290929e-004,-5.181845e-004
4.078567e-004,-4.027940e-004
4.885652e-004,-2.357047e-004
5.697600e-004,-4.236081e-005
6.622994e-004,1.500107e-004
7.679660e-004,3.209897e-004
8.726603e-004,4.559901e-004
9.632549e-004,5.493397e-004
1.033429e-003,6.086557e-004
1.082373e-003,6.509548e-004
1.113166e-003,6.913091e-004
1.136827e-003,7.224256e-004
1.158220e-003,7.096225e-004
1.164378e-003,6.128695e-004
1.130182e-003,4.166082e-004
1.038129e-003,1.449867e-004
8.966460e-004,-1.498101e-004
7.255049e-004,-4.010113e-004
5.454502e-004,-5.543251e-004
3.673404e-004,-5.894932e-004
2.047888e-004,-5.223982e-004
7.416414e-005,-3.933942e-004
-1.221667e-005,-2.489941e-004
-4.997788e-005,-1.352242e-004
-5.289506e-005,-8.093235e-005
-4.171255e-005,-8.676671e-005
-3.377135e-005,-1.289037e-004
-3.685059e-005,-1.780095e-004
-5.289506e-005,-2.109087e-004
-7.250496e-005,-2.126914e-004
-8.498399e-005,-1.789819e-004
-7.882551e-005,-1.159385e-004
-5.078821e-005,-3.393342e-005
-7.354708e-006,5.585077e-005
2.829966e-005,1.376937e-004
3.186510e-005,1.952270e-004
-1.358292e-006,2.243987e-004
-4.641245e-005,2.337985e-004
-7.299116e-005,2.373639e-004
-6.375343e-005,2.449810e-004
-2.826113e-005,2.675081e-004
-5.734055e-006,3.135346e-004
-4.106429e-005,3.796573e-004
-1.430034e-004,4.483731e-004
-2.793003e-004,4.982892e-004
-3.929080e-004,5.224369e-004
-4.369898e-004,5.290816e-004
-4.005251e-004,5.428572e-004
-3.125237e-004,5.909906e-004
-2.251705e-004,6.924436e-004
-1.754164e-004,8.389507e-004
-1.661787e-004,9.836751e-004
-1.742820e-004,1.056119e-003
-1.720131e-004,1.010254e-003
-1.391138e-004,8.491608e-004
-7.266703e-005,6.156245e-004
2.045080e-006,3.691231e-004
5.909207e-005,1.534141e-004
9.879807e-005,-2.113026e-005
1.438522e-004,-1.605064e-004
2.180782e-004,-2.689281e-004
3.269861e-004,-3.457470e-004
4.559901e-004,-3.929080e-004
5.772150e-004,-4.190006e-004
6.588960e-004,-4.342347e-004
6.746163e-004,-4.473620e-004
6.187038e-004,-4.600031e-004
5.034753e-004,-4.685925e-004
3.454615e-004,-4.703752e-004
1.568175e-004,-4.651892e-004
-5.111234e-005,-4.574100e-004
-2.708729e-004,-4.580583e-004
-4.854473e-004,-4.768579e-004
-6.761981e-004,-5.193189e-004
-8.351842e-004,-5.851174e-004
-9.823395e-004,-6.663122e-004
-1.155263e-003,-7.489654e-004
-1.377293e-003,-8.223810e-004
-1.623794e-003,-8.713248e-004
-1.824107e-003,-8.863969e-004
-1.902870e-003,-8.693800e-004
-1.819407e-003,-8.324290e-004
-1.587329e-003,-7.825129e-004
-1.250071e-003,-7.186593e-004
-8.559285e-004,-6.301716e-004
-4.436345e-004,-5.076503e-004
-4.608832e-005,-3.536882e-004
2.997591e-004,-1.981056e-004
5.556603e-004,-7.963584e-005
7.041122e-004,-3.279896e-005
7.486802e-004,-6.164659e-005
7.094605e-004,-1.376552e-004
6.109247e-004,-2.141500e-004
4.731690e-004,-2.467252e-004
3.242310e-004,-1.990780e-004
2.132162e-004,-5.694669e-005
1.882581e-004,1.470936e-004
2.694529e-004,3.384927e-004
4.323286e-004,4.414042e-004
6.230795e-004,4.175806e-004
7.844967e-004,2.725321e-004
8.783326e-004,5.568870e-005
8.924323e-004,-1.593720e-004
8.313336e-004,-3.011791e-004
7.136741e-004,-3.196545e-004
5.668428e-004,-1.943781e-004
4.093153e-004,5.585077e-005
2.383363e-004,3.879227e-004
3.850977e-005,7.436562e-004
-2.159328e-004,1.065194e-003
-5.405495e-004,1.298569e-003
-9.283717e-004,1.407639e-003
-1.344717e-003,1.394998e-003
-1.736754e-003,1.308130e-003
-2.025878e-003,1.204895e-003
-2.115824e-003,1.112031e-003
-1.949870e-003,1.010578e-003
-1.546651e-003,8.593709e-004
-1.006163e-003,6.383137e-004
-4.750752e-004,3.665300e-004
-8.303921e-005,9.150514e-005
1.292664e-004,-1.358725e-004
1.984682e-004,-2.909690e-004
1.882581e-004,-3.757291e-004
1.741585e-004,-4.084663e-004
2.268297e-004,-4.191626e-004
3.670162e-004,-4.342347e-004
5.529052e-004,-4.672960e-004
7.131879e-004,-5.189948e-004
7.960033e-004,-5.857657e-004
7.977861e-004,-6.582089e-004
7.501388e-004,-7.188214e-004
6.927677e-004,-7.301659e-004
6.499824e-004,-6.476747e-004
6.259967e-004,-4.303451e-004
5.971491e-004,-7.477388e-005
5.389676e-004,3.587509e-004
4.488592e-004,7.678040e-004
3.420582e-004,1.058873e-003
2.222919e-004,1.172157e-003
7.076077e-005,1.093880e-003
-1.326312e-004,8.530504e-004
-3.663293e-004,5.115786e-004
-5.544871e-004,1.459591e-004
-6.120203e-004,-1.746061e-004
-4.987367e-004,-4.023078e-004
-2.254946e-004,-5.272602e-004
1.579519e-004,-5.591870e-004
5.799701e-004,-5.138087e-004
9.673066e-004,-4.113835e-004
1.267776e-003,-2.770314e-004
1.455124e-003,-1.396000e-004
1.516385e-003,-1.886135e-005
1.457393e-003,7.691926e-005
1.309751e-003,1.472556e-004
1.111059e-003,1.924718e-004
8.998873e-004,2.209953e-004
7.052467e-004,2.440086e-004
5.401021e-004,2.689667e-004
4.091532e-004,2.911697e-004
3.146691e-004,2.918179e-004
2.480603e-004,2.448189e-004
2.031682e-004,1.299146e-004
1.780480e-004,-6.035006e-005
1.749688e-004,-3.224097e-004
1.893926e-004,-6.394094e-004
2.148369e-004,-9.727776e-004
2.415776e-004,-1.286860e-003
2.608634e-004,-1.551837e-003
2.634565e-004,-1.746477e-003
2.441707e-004,-1.860572e-003
2.013854e-004,-1.889581e-003
1.401247e-004,-1.838531e-003
7.043664e-005,-1.709202e-003
-1.367526e-005,-1.493980e-003
-1.316588e-004,-1.182328e-003
-2.992343e-004,-7.648478e-004
-5.125122e-004,-2.485079e-004
-7.371347e-004,3.182345e-004
-9.188099e-004,8.700673e-004
-1.013294e-003,1.358371e-003
-1.006649e-003,1.743277e-003
-9.248063e-004,1.983783e-003
-8.150881e-004,2.049581e-003
-7.285452e-004,1.953152e-003
-6.920805e-004,1.756242e-003
-7.060181e-004,1.538102e-003
-7.418346e-004,1.358695e-003
-7.585273e-004,1.239901e-003
-7.058561e-004,1.179775e-003
-5.168880e-004,1.170699e-003
-1.478653e-004,1.203274e-003
3.517821e-004,1.272476e-003
8.624502e-004,1.386570e-003
1.260321e-003,1.547015e-003
1.451721e-003,1.722208e-003
1.392405e-003,1.853157e-003
1.098904e-003,1.876981e-003
6.553305e-004,1.745546e-003
1.759412e-004,1.425142e-003
-2.370012e-004,9.097733e-004
-5.168880e-004,2.446569e-004
-6.431369e-004,-4.702132e-004
-6.329267e-004,-1.115395e-003
-5.395771e-004,-1.618446e-003
-4.327761e-004,-1.947114e-003
-3.724878e-004,-2.101887e-003
-3.833462e-004,-2.111611e-003
-4.399070e-004,-2.018909e-003
-4.919299e-004,-1.866568e-003
-4.950092e-004,-1.688944e-003
-4.298589e-004,-1.512617e-003
-3.044204e-004,-1.348607e-003
-1.460826e-004,-1.188811e-003
1.614476e-005,-1.013618e-003
1.645966e-004,-8.086055e-004
3.013797e-004,-5.723143e-004
4.362181e-004,-3.199787e-004
5.681394e-004,-8.984595e-005
6.896884e-004,8.275361e-005
7.867657e-004,1.777239e-004
8.585606e-004,1.989545e-004
9.169042e-004,1.668655e-004
9.663342e-004,9.798775e-005
9.720065e-004,-1.034161e-006
8.817360e-004,-1.089697e-004
6.738060e-004,-1.835197e-004
3.676645e-004,-1.836818e-004
1.031041e-005,-9.049421e-005
-3.497987e-004,8.291567e-005
-6.849497e-004,2.936006e-004
-9.547884e-004,4.901859e-004
-1.085413e-003,6.355586e-004
-1.030149e-003,7.115673e-004
-8.282154e-004,7.285841e-004
-6.034308e-004,7.125397e-004
-5.073261e-004,6.942262e-004
-6.236890e-004,6.984400e-004
-9.105446e-004,7.313393e-004
-1.226410e-003,7.666695e-004
-1.426398e-003,7.611593e-004
-1.433367e-003,6.786680e-004
-1.247154e-003,5.080131e-004
-9.308027e-004,2.722080e-004
-5.721523e-004,5.610517e-006
-2.677937e-004,-2.561249e-004
-9.940780e-005,-4.872300e-004
-6.861539e-005,-6.676087e-004
-6.391550e-005,-7.789475e-004
7.140904e-005,-8.149261e-004
4.355699e-004,-7.758683e-004
1.003123e-003,-6.650157e-004
1.644579e-003,-5.086227e-004
2.199492e-003,-3.450988e-004
2.544207e-003,-2.169051e-004
2.618595e-003,-1.663408e-004
2.427195e-003,-2.097743e-004
2.030295e-003,-3.152788e-004
1.508120e-003,-4.237005e-004
9.374865e-004,-4.773441e-004
3.861399e-004,-4.429862e-004
-1.075111e-004,-3.259751e-004
-5.420081e-004,-1.596961e-004
-9.534919e-004,1.533444e-005
-1.413919e-003,1.623277e-004
-1.998165e-003,2.530843e-004
-2.725677e-003,2.757734e-004
-3.513641e-003,2.355812e-004
-4.150075e-003,1.566554e-004
-4.380047e-003,7.416414e-005
-4.032901e-003,1.533444e-005
-3.103777e-003,-9.785687e-006
-1.759119e-003,-5.571990e-006
-2.833519e-004,1.727922e-005
9.995577e-004,4.596478e-005
1.873416e-003,7.157111e-005
2.319908e-003,8.729143e-005
2.419902e-003,9.263960e-005
2.297380e-003,9.393611e-005
2.070488e-003,1.007429e-004
1.828523e-003,1.201907e-004
1.623186e-003,1.535762e-004
1.470358e-003,1.931201e-004
1.357074e-003,2.302331e-004
1.259025e-003,2.634565e-004
1.157247e-003,2.859835e-004
1.040722e-003,2.936006e-004
9.002115e-004,2.879283e-004
7.326358e-004,2.712356e-004
5.409124e-004,2.495188e-004
3.350894e-004,2.286124e-004
1.216493e-004,2.102990e-004
-9.616650e-005,1.940925e-004
-3.039342e-004,1.780480e-004
-4.726441e-004,1.576278e-004
-5.726385e-004,1.304008e-004
-5.799314e-004,1.007429e-004
-4.882024e-004,7.416414e-005
-3.141443e-004,5.017848e-005
-1.016767e-004,2.392390e-005
8.972242e-005,-1.562004e-005
2.090025e-004,-7.752898e-005
2.457913e-004,-1.585616e-004
2.312054e-004,-2.394322e-004
2.068957e-004,-2.917793e-004
1.944166e-004,-2.794623e-004
1.931201e-004,-1.754164e-004
1.853410e-004,9.662150e-006
1.524417e-004,2.274780e-004
8.745350e-005,4.179047e-004
-5.085794e-006,5.368608e-004
-1.063766e-004,5.704083e-004
-1.903264e-004,5.332953e-004
-2.363530e-004,4.490213e-004
-2.429977e-004,3.402754e-004
-2.245222e-004,2.252090e-004
-1.958366e-004,1.158149e-004
-1.622891e-004,2.554455e-005
-1.117248e-004,-3.944364e-005
-2.809907e-005,-7.607040e-005
8.534666e-005,-7.363942e-005
2.128921e-004,-2.615428e-005
3.329825e-004,5.925414e-005
4.318423e-004,1.535762e-004
5.054200e-004,2.090025e-004
5.532294e-004,1.850168e-004
5.707324e-004,7.870197e-005
5.616568e-004,-7.655659e-005
5.397779e-004,-2.379736e-004
5.222749e-004,-3.770256e-004
5.232472e-004,-4.882024e-004
5.431813e-004,-5.700454e-004
5.611706e-004,-6.099135e-004
5.454502e-004,-5.933827e-004
4.623107e-004,-5.227224e-004
2.987867e-004,-4.211074e-004
7.011251e-005,-3.251648e-004
-1.895161e-004,-2.744383e-004
-4.452551e-004,-2.908069e-004
-6.753878e-004,-3.711913e-004
-8.708385e-004,-4.916058e-004
-1.028042e-003,-6.092652e-004
-1.142460e-003,-6.776568e-004
-1.199183e-003,-6.672845e-004
-1.178438e-003,-5.588629e-004
-1.072124e-003,-3.447747e-004
-8.959587e-004,-5.532604e-005
-6.758740e-004,2.394708e-004
-4.355312e-004,4.663623e-004
-2.000504e-004,5.841838e-004
1.014835e-005,6.080074e-004
1.783722e-004,6.039558e-004
3.020280e-004,6.590580e-004
3.932708e-004,8.460816e-004
4.683071e-004,1.178640e-003
5.294057e-004,1.584939e-003
5.584154e-004,1.940997e-003
5.302160e-004,2.144066e-003
4.449697e-004,2.148117e-003
3.286067e-004,1.972438e-003
2.122438e-004,1.679099e-003
1.072255e-004,1.331792e-003
1.857574e-005,9.745996e-004
-4.106429e-005,6.355586e-004
-4.333321e-005,3.363859e-004
3.235129e-005,9.409818e-005
1.846927e-004,-7.396355e-005
3.785229e-004,-1.486757e-004
5.621430e-004,-1.229073e-004
6.922815e-004,-9.137427e-006
7.524077e-004,1.598967e-004
7.532181e-004,3.357376e-004
7.112431e-004,4.610142e-004
6.399344e-004,4.775448e-004
5.561465e-004,3.571302e-004
4.854860e-004,1.179218e-004
4.457800e-004,-1.807646e-004
4.446455e-004,-4.543308e-004
4.738173e-004,-6.311440e-004
5.084993e-004,-6.883531e-004
5.217887e-004,-6.614502e-004
4.969927e-004,-6.162340e-004
4.195254e-004,-6.061860e-004
2.848491e-004,-6.505919e-004
1.094944e-004,-7.295177e-004
-7.769105e-005,-8.108744e-004
-2.472113e-004,-8.633835e-004
-3.661673e-004,-8.706765e-004
-4.143007e-004,-8.312946e-004
-3.882081e-004,-7.536653e-004
-3.024756e-004,-6.526987e-004
-1.870851e-004,-5.481666e-004
-7.542214e-005,-4.564376e-004
3.989864e-006,-3.903150e-004
3.024445e-005,-3.497987e-004
-8.489165e-006,-3.287302e-004
-1.068628e-004,-3.222476e-004
-2.536940e-004,-3.324577e-004
-4.374760e-004,-3.535262e-004
-6.400576e-004,-3.739464e-004
-8.364808e-004,-3.792946e-004
-9.966012e-004,-3.656811e-004
-1.089465e-003,-3.348887e-004
-1.094164e-003,-2.896725e-004
-1.012160e-003,-2.358668e-004
-8.697041e-004,-1.801163e-004
-6.998597e-004,-1.316588e-004
-5.311497e-004,-1.015147e-004
-3.857772e-004,-1.020008e-004
-2.833519e-004,-1.324691e-004
-2.447804e-004,-1.739578e-004
-2.760590e-004,-2.037778e-004
-3.540124e-004,-2.183637e-004
-4.376381e-004,-2.378116e-004
-4.903093e-004,-2.840002e-004
-5.011677e-004,-3.575778e-004
-4.768579e-004,-4.374760e-004
-4.392587e-004,-4.901472e-004
-4.104111e-004,-4.891748e-004
-3.901529e-004,-4.202971e-004
-3.624398e-004,-2.958309e-004
-3.204648e-004,-1.452723e-004
-2.580697e-004,6.096713e-006
-1.593720e-004,1.487142e-004
-2.842320e-005,2.786906e-004
1.007429e-004,3.764160e-004
1.968476e-004,4.101256e-004
2.435224e-004,3.628025e-004
2.470879e-004,2.461155e-004
2.349330e-004,1.012291e-004
2.422259e-004,-3.004385e-005
2.986246e-004,-1.216107e-004
4.093153e-004,-1.647201e-004
5.496639e-004,-1.640719e-004
6.825575e-004,-1.407345e-004
7.780141e-004,-1.086455e-004
8.188545e-004,-6.958779e-005
8.037825e-004,-1.724069e-005
7.535422e-004,4.628891e-005
6.838541e-004,1.104668e-004
5.882355e-004,1.616794e-004
4.702519e-004,1.895547e-004
3.566440e-004,1.785342e-004
3.070520e-004,1.222975e-004
3.978086e-004,3.543053e-005
6.297242e-004,-6.310517e-005
8.720121e-004,-1.590478e-004
9.028045e-004,-2.410529e-004
5.295678e-004,-3.113892e-004
-2.498044e-004,-3.875599e-004
-1.196590e-003,-4.786406e-004
-1.971910e-003,-5.745832e-004
-2.307062e-003,-6.478368e-004
-2.105776e-003,-6.640432e-004
-1.472749e-003,-5.967862e-004
-6.599916e-004,-4.382863e-004
6.557468e-005,-2.128535e-004
5.285954e-004,3.202716e-005
6.971434e-004,2.644288e-004
6.428515e-004,4.700898e-004
4.736553e-004,6.404205e-004
2.880904e-004,7.731521e-004
1.436902e-004,8.692570e-004
5.487837e-005,9.318143e-004
6.582909e-006,9.653618e-004
-2.388537e-005,9.715203e-004
-5.257093e-005,9.428347e-004
-8.287714e-005,8.776843e-004
-1.089697e-004,7.995688e-004
-1.308485e-004,7.477078e-004
-1.511066e-004,7.477078e-004
-1.771991e-004,8.019998e-004
-2.190120e-004,8.853014e-004
-2.796244e-004,9.551517e-004
-3.473677e-004,9.627687e-004
-4.060353e-004,8.804395e-004
-4.275900e-004,7.144844e-004
-3.815635e-004,4.969927e-004
-2.357047e-004,2.671840e-004
2.748933e-005,5.649903e-005
3.850055e-004,-1.222590e-004
7.699108e-004,-2.601766e-004
1.101983e-003,-3.352128e-004
1.327092e-003,-3.181959e-004
1.429518e-003,-1.861127e-004
1.417039e-003,6.427816e-005
1.302944e-003,4.070464e-004
1.103117e-003,7.746107e-004
8.473782e-004,1.074270e-003
5.744599e-004,1.243953e-003
3.182345e-004,1.272314e-003
8.242948e-005,1.186419e-003
-1.553203e-004,1.027271e-003
-4.201350e-004,8.318198e-004
-7.149318e-004,6.292380e-004
-1.007135e-003,4.427008e-004
-1.235323e-003,2.752873e-004
-1.338883e-003,1.101426e-004
-1.298691e-003,-7.688072e-005
-1.138408e-003,-3.044204e-004
-9.238339e-004,-5.671282e-004
-7.329210e-004,-8.272430e-004
-6.031067e-004,-1.034038e-003
-5.110536e-004,-1.149591e-003
-3.929080e-004,-1.164339e-003
-1.972952e-004,-1.097406e-003
8.712937e-005,-9.834738e-004
4.217943e-004,-8.601422e-004
7.519216e-004,-7.500999e-004
1.033753e-003,-6.595054e-004
1.238604e-003,-5.872243e-004
1.351726e-003,-5.259637e-004
1.361288e-003,-4.835025e-004
1.265993e-003,-4.794509e-004
1.084318e-003,-5.389288e-004
8.533745e-004,-6.791154e-004
6.183797e-004,-9.003344e-004
4.363802e-004,-1.185245e-003
3.506476e-004,-1.493980e-003
3.465960e-004,-1.779701e-003
3.412478e-004,-2.008537e-003
2.221298e-004,-2.144996e-003
-8.060822e-005,-2.125710e-003
-5.076503e-004,-1.885368e-003
-8.842900e-004,-1.402089e-003
-1.030959e-003,-7.196317e-004
-8.684075e-004,6.654707e-005
-4.358554e-004,8.337646e-004
1.461212e-004,1.473762e-003
7.488423e-004,1.921549e-003
1.277824e-003,2.174048e-003
1.682340e-003,2.271450e-003
1.923170e-003,2.268694e-003
1.969521e-003,2.219588e-003
1.792221e-003,2.169834e-003
1.390784e-003,2.134828e-003
7.972998e-004,2.093177e-003
7.465034e-005,2.003068e-003
-6.992114e-004,1.823499e-003
-1.449736e-003,1.546367e-003
-2.113070e-003,1.200519e-003
-2.620335e-003,8.340887e-004
-2.899574e-003,4.903480e-004
-2.905894e-003,1.926339e-004
-2.635082e-003,-5.159854e-005
-2.125224e-003,-2.399184e-004
-1.449088e-003,-3.807532e-004
-6.885151e-004,-4.846370e-004
9.069480e-005,-5.629145e-004
8.289026e-004,-6.301716e-004
1.458365e-003,-6.932150e-004
1.903560e-003,-7.489654e-004
2.121214e-003,-7.820268e-004
2.153466e-003,-7.747338e-004
2.095608e-003,-7.188214e-004
1.992858e-003,-6.227166e-004
1.820744e-003,-5.087847e-004
1.543936e-003,-4.162455e-004
1.146065e-003,-3.703810e-004
6.308586e-004,-3.694086e-004
3.413401e-005,-3.898288e-004
-5.705316e-004,-4.002010e-004
-1.088006e-003,-3.789704e-004
-1.421698e-003,-3.214373e-004
-1.503866e-003,-2.378116e-004
-1.330942e-003,-1.535376e-004
-9.760189e-004,-9.665269e-005
-5.650214e-004,-8.838737e-005
-2.212809e-004,-1.311726e-004
-1.545797e-005,-2.023193e-004
5.082674e-005,-2.724935e-004
2.473422e-005,-3.146305e-004
-3.814712e-005,-3.243544e-004
-9.762508e-005,-3.110651e-004
-1.370070e-004,-2.867553e-004
-1.645580e-004,-2.541802e-004
-1.927574e-004,-2.065330e-004
-2.335979e-004,-1.373311e-004
-2.814071e-004,-3.814712e-005
-3.149546e-004,9.215340e-005
-3.126857e-004,2.435224e-004
-2.684419e-004,3.997534e-004
-1.932436e-004,5.328091e-004
-1.092938e-004,5.984456e-004
-2.955766e-005,5.436675e-004
5.034054e-005,3.279585e-004
1.436902e-004,-5.013995e-005
2.602152e-004,-5.390910e-004
3.926225e-004,-1.052676e-003
5.216266e-004,-1.496411e-003
6.271311e-004,-1.782456e-003
6.955228e-004,-1.830103e-003
7.221015e-004,-1.580847e-003
7.096225e-004,-1.037442e-003
6.650545e-004,-3.055549e-004
5.968249e-004,4.239012e-004
5.102821e-004,9.807580e-004
4.065602e-004,1.293220e-003
2.854973e-004,1.378953e-003
1.401247e-004,1.310075e-003
-2.793700e-005,1.167457e-003
-2.099363e-004,1.001502e-003
-3.937184e-004,8.347370e-004
-5.710178e-004,6.783438e-004
-7.283832e-004,5.438296e-004
-8.415048e-004,4.477248e-004
-8.898002e-004,4.094774e-004
-8.722972e-004,4.519385e-004
-8.048780e-004,5.937457e-004
-7.081250e-004,8.326301e-004
-5.977585e-004,1.105062e-003
-4.826922e-004,1.310237e-003
-3.762153e-004,1.358371e-003
-2.950206e-004,1.207974e-003
-2.473734e-004,8.830325e-004
-2.335979e-004,4.610142e-004
-2.460769e-004,3.932010e-005
-2.703867e-004,-2.997205e-004
-2.878897e-004,-5.155915e-004
-2.914552e-004,-6.139651e-004
-2.770314e-004,-6.251476e-004
-2.404046e-004,-5.890070e-004
-1.637477e-004,-5.366600e-004
-2.599222e-005,-4.841508e-004
1.752929e-004,-4.355312e-004
4.148255e-004,-3.872357e-004
6.571133e-004,-3.402368e-004
8.643949e-004,-3.016653e-004
1.006202e-003,-2.781658e-004
1.061305e-003,-2.718453e-004
1.026136e-003,-2.789761e-004
9.104216e-004,-2.908069e-004
7.297186e-004,-3.016653e-004
4.986133e-004,-3.100927e-004
2.342847e-004,-3.172235e-004
-5.192267e-005,-3.224097e-004
-3.616295e-004,-3.238682e-004
-7.071526e-004,-3.199787e-004
-1.092382e-003,-3.100927e-004
-1.498355e-003,-2.940482e-004
-1.869809e-003,-2.749245e-004
-2.112421e-003,-2.614731e-004
-2.131221e-003,-2.635799e-004
-1.885854e-003,-2.807589e-004
-1.418457e-003,-3.063652e-004
-8.434496e-004,-3.331059e-004
-3.006929e-004,-3.579019e-004
1.080358e-004,-3.835083e-004
3.569682e-004,-4.076560e-004
4.867825e-004,-4.269418e-004
5.626291e-004,-4.334243e-004
6.376654e-004,-4.248349e-004
7.321496e-004,-3.987424e-004
8.297130e-004,-3.546606e-004
8.934047e-004,-2.977757e-004
8.972943e-004,-2.318151e-004
8.496470e-004,-1.587237e-004
7.875760e-004,-7.639453e-005
7.391184e-004,1.047248e-005
7.050846e-004,9.944633e-005
6.546823e-004,1.902029e-004
5.397779e-004,2.812837e-004
3.180725e-004,3.699334e-004
-1.237873e-005,4.545315e-004
-3.982562e-004,5.344298e-004
-7.415105e-004,6.026593e-004
-9.299924e-004,6.548443e-004
-8.995241e-004,6.955228e-004
-6.627467e-004,7.287462e-004
-2.911311e-004,7.603490e-004
1.240803e-004,8.042687e-004
5.127130e-004,8.700673e-004
8.629364e-004,9.540172e-004
1.179288e-003,1.037643e-003
1.415904e-003,1.088694e-003
1.475382e-003,1.070542e-003
1.253190e-003,9.661721e-004
7.167534e-004,8.019998e-004
-2.550602e-005,6.248623e-004
-7.355140e-004,4.610142e-004
-1.163853e-003,3.023521e-004
-1.177466e-003,1.206769e-004
-7.966127e-004,-9.908367e-005
-1.687718e-004,-3.483401e-004
5.166026e-004,-5.940310e-004
1.114948e-003,-8.013126e-004
1.570028e-003,-9.499264e-004
1.888002e-003,-1.041980e-003
2.098201e-003,-1.087844e-003
2.225909e-003,-1.092706e-003
2.276473e-003,-1.054459e-003
2.234823e-003,-9.698604e-004
2.082481e-003,-8.466908e-004
1.818961e-003,-6.949977e-004
1.485754e-003,-5.181845e-004
1.145093e-003,-3.157650e-004
8.420299e-004,-1.021629e-004
5.674911e-004,1.059289e-004
2.561635e-004,2.940868e-004
-1.569410e-004,4.514523e-004
-6.727948e-004,5.704083e-004
-1.204207e-003,6.383137e-004
-1.621039e-003,6.392861e-004
-1.837558e-003,5.752702e-004
-1.853441e-003,4.734932e-004
-1.727030e-003,3.830607e-004
-1.528824e-003,3.582647e-004
-1.296422e-003,4.154738e-004
-1.033714e-003,5.154681e-004
-7.361623e-004,5.916388e-004
-4.300210e-004,6.012007e-004
-1.695821e-004,5.418848e-004
-1.092015e-005,4.417284e-004
3.753739e-005,3.383307e-004
1.419998e-005,2.551911e-004
-2.955766e-005,2.028440e-004
-4.317114e-005,1.876099e-004
6.582909e-006,2.044647e-004
1.261871e-004,2.216436e-004
2.846870e-004,1.942546e-004
4.217943e-004,8.712937e-005
4.767345e-004,-9.276313e-005
4.133669e-004,-3.073376e-004
2.276400e-004,-5.055434e-004
-5.548810e-005,-6.347094e-004
-3.757291e-004,-6.561021e-004
-6.510781e-004,-5.587008e-004
-8.233534e-004,-3.497987e-004
-8.988758e-004,-5.646050e-005
-9.538160e-004,2.833905e-004
-1.059483e-003,6.245381e-004
-1.208420e-003,9.149594e-004
-1.325270e-003,1.111545e-003
-1.329321e-003,1.194522e-003
-1.179573e-003,1.173292e-003
-8.941760e-004,1.080915e-003
-5.358497e-004,9.681169e-004
-1.906506e-004,8.794671e-004
6.849186e-005,8.248510e-004
1.958752e-004,7.778521e-004
1.754550e-004,7.002227e-004
5.934647e-006,5.665187e-004
-3.008549e-004,3.765781e-004
-7.149318e-004,1.338042e-004
-1.167904e-003,-1.682856e-004
-1.541789e-003,-5.366600e-004
-1.677600e-003,-9.632158e-004
-1.458325e-003,-1.419754e-003
-8.839659e-004,-1.856682e-003
-8.174268e-005,-2.205933e-003
7.266394e-004,-2.402843e-003
1.323040e-003,-2.416780e-003
1.600497e-003,-2.256497e-003
1.582184e-003,-1.973369e-003
1.386408e-003,-1.640325e-003
1.153520e-003,-1.328997e-003
9.792994e-004,-1.081037e-003
8.953495e-004,-8.949863e-004
8.875704e-004,-7.497758e-004
9.206317e-004,-6.262820e-004
9.527207e-004,-5.040848e-004
9.517483e-004,-3.613053e-004
8.984287e-004,-1.814128e-004
7.982723e-004,5.325772e-005
6.775335e-004,3.511338e-004
5.660325e-004,6.810990e-004
4.718725e-004,9.755719e-004
3.796573e-004,1.145903e-003
2.807975e-004,1.134072e-003
1.757791e-004,9.421864e-004
6.978838e-005,6.329655e-004
-3.377135e-005,2.991108e-004
-1.381414e-004,2.667901e-005
-2.425115e-004,-1.266348e-004
-3.449367e-004,-1.430034e-004
-4.496309e-004,-3.393342e-005
-5.634007e-004,1.668655e-004
-6.891634e-004,4.135290e-004
-8.146019e-004,6.572753e-004
-9.162169e-004,8.613158e-004
-9.680777e-004,1.013009e-003
-9.632158e-004,1.108628e-003
-9.145962e-004,1.141851e-003
-8.445840e-004,1.107169e-003
-7.502619e-004,1.014792e-003
-6.037550e-004,8.943771e-004
-3.938804e-004,7.844967e-004
-1.538618e-004,7.057329e-004
5.131293e-005,6.598684e-004
1.720516e-004,6.378275e-004
2.104611e-004,6.294001e-004
2.033302e-004,6.217830e-004
1.910132e-004,6.076833e-004
2.020337e-004,5.845079e-004
2.514636e-004,5.491777e-004
3.326584e-004,4.775448e-004
4.208219e-004,3.383307e-004
4.859722e-004,1.132219e-004
5.216266e-004,-1.865989e-004
5.720289e-004,-5.317980e-004
6.903367e-004,-8.760247e-004
8.964840e-004,-1.165149e-003
1.169564e-003,-1.364003e-003
1.458365e-003,-1.470642e-003
1.714105e-003,-1.506621e-003
1.907125e-003,-1.490252e-003
2.012630e-003,-1.432071e-003
1.995775e-003,-1.327052e-003
1.816206e-003,-1.158342e-003
1.449128e-003,-9.272373e-004
8.979425e-004,-6.564262e-004
2.209953e-004,-3.836703e-004
-4.804233e-004,-1.515928e-004
-1.109723e-003,3.017472e-006
-1.626063e-003,7.059870e-005
-2.029282e-003,8.291567e-005
-2.325699e-003,1.135460e-004
-2.496192e-003,2.514636e-004
-2.492951e-003,5.561465e-004
-2.277404e-003,9.972887e-004
-1.849875e-003,1.456258e-003
-1.256878e-003,1.791572e-003
