-6.278104e-005,1.051186e-004
2.689667e-004,8.502253e-005
5.460985e-004,7.254349e-005
7.524077e-004,7.076077e-005
8.870841e-004,7.708132e-005
9.651997e-004,8.534666e-005
1.008309e-003,9.101894e-005
1.032457e-003,9.328785e-005
1.014306e-003,8.567078e-005
9.065320e-004,6.751947e-005
6.887161e-004,4.126489e-005
3.942432e-004,1.484824e-005
8.178122e-005,-3.789271e-006
-2.053985e-004,-7.354708e-006
-4.395829e-004,-2.238345e-007
-5.951655e-004,7.879431e-006
-6.428128e-004,1.176900e-005
-5.609698e-004,1.630683e-005
-3.540124e-004,3.267542e-005
-6.699474e-005,6.184718e-005
2.422259e-004,9.199134e-005
5.255162e-004,1.090082e-004
7.655350e-004,1.091703e-004
9.749237e-004,9.328785e-005
1.161785e-003,6.946425e-005
1.309427e-003,5.228533e-005
1.400346e-003,5.115087e-005
1.444103e-003,7.205730e-005
1.474734e-003,1.166253e-004
1.507309e-003,1.697827e-004
1.544422e-003,2.094887e-004
1.581049e-003,2.169437e-004
1.565491e-003,1.835582e-004
1.443455e-003,1.130598e-004
1.190633e-003,2.862379e-005
7.812554e-004,-4.462973e-005
1.952270e-004,-9.454584e-005
-5.293670e-004,-1.292278e-004
-1.250071e-003,-1.600202e-004
-1.774677e-003,-1.951884e-004
-1.966238e-003,-2.295462e-004
-1.799149e-003,-2.511009e-004
-1.346338e-003,-2.457528e-004
-7.405381e-004,-2.010227e-004
-1.026491e-004,-1.169109e-004
5.256782e-004,-6.544382e-006
1.115272e-003,1.057669e-004
1.544260e-003,1.929580e-004
1.597093e-003,2.354192e-004
1.080428e-003,2.295848e-004
-4.106429e-005,1.924718e-004
-1.576795e-003,1.521176e-004
-3.166658e-003,1.266733e-004
-4.434502e-003,1.180839e-004
-4.967215e-003,1.174356e-004
-4.884723e-003,1.138701e-004
-3.993843e-003,1.033359e-004
-2.650155e-003,9.215340e-005
-1.212310e-003,9.215340e-005
-1.318906e-005,1.067393e-004
7.702350e-004,1.287802e-004
1.162758e-003,1.451487e-004
1.283497e-003,1.438522e-004
1.229367e-003,1.282940e-004
1.026622e-003,1.043083e-004
6.720233e-004,7.367795e-005
2.146748e-004,4.385793e-005
-2.428356e-004,3.056858e-005
-6.076446e-004,4.774750e-005
-8.256223e-004,9.782569e-005
-8.923932e-004,1.714033e-004
-8.358325e-004,2.449810e-004
-7.099077e-004,2.952213e-004
-5.745832e-004,3.075383e-004
-4.766958e-004,2.833905e-004
-4.575721e-004,2.350950e-004
-5.494631e-004,1.790204e-004
-7.629031e-004,1.257009e-004
-1.066127e-003,8.064676e-005
-1.389285e-003,4.483032e-005
-1.627035e-003,1.630683e-005
-1.664148e-003,-5.896120e-006
-1.425588e-003,-2.161646e-005
-8.967690e-004,-3.117831e-005
-1.097800e-004,-3.117831e-005
8.548331e-004,-1.950961e-005
1.856075e-003,7.485573e-007
2.701087e-003,2.295151e-005
3.177886e-003,3.591673e-005
3.138990e-003,2.943412e-005
2.611788e-003,4.476060e-006
1.786548e-003,-3.117831e-005
9.057217e-004,-7.817725e-005
1.830720e-004,-1.413827e-004
-2.481837e-004,-2.169051e-004
-3.463953e-004,-2.940482e-004
-1.627753e-004,-3.591985e-004
1.842065e-004,-3.979321e-004
5.498260e-004,-4.037664e-004
8.199890e-004,-3.760532e-004
9.447794e-004,-3.177098e-004
9.376486e-004,-2.412149e-004
8.483505e-004,-1.635857e-004
7.371736e-004,-9.665269e-005
6.496583e-004,-4.560212e-005
6.046041e-004,-1.302699e-005
6.007145e-004,3.341602e-006
6.219451e-004,1.306552e-005
6.439860e-004,2.927205e-005
6.499824e-004,5.471631e-005
6.355586e-004,7.708132e-005
6.083316e-004,8.793970e-005
5.765667e-004,8.323980e-005
5.389676e-004,7.108490e-005
4.830550e-004,6.136099e-005
4.067222e-004,5.698522e-005
3.177483e-004,5.730935e-005
2.287745e-004,6.800567e-005
1.539003e-004,8.550872e-005
1.031738e-004,1.034980e-004
8.048469e-005,1.177597e-004
8.842590e-005,1.260251e-004
1.373696e-004,1.297525e-004
2.318537e-004,1.263492e-004
3.647473e-004,1.179218e-004
5.243817e-004,1.099806e-004
6.903367e-004,1.075496e-004
8.352232e-004,1.098185e-004
9.464001e-004,1.101426e-004
1.024516e-003,1.034980e-004
1.075566e-003,9.231547e-005
1.099714e-003,8.129502e-005
1.093880e-003,7.059870e-005
1.055632e-003,5.828174e-005
9.849716e-004,4.758544e-005
8.788188e-004,4.304760e-005
7.447907e-004,4.790957e-005
6.042799e-004,6.184718e-005
4.781931e-004,8.129502e-005
3.611819e-004,1.041462e-004
2.085163e-004,1.274836e-004
-4.657451e-005,1.474177e-004
-4.642168e-004,1.618415e-004
-1.042790e-003,1.680000e-004
-1.700127e-003,1.618415e-004
-2.301714e-003,1.448246e-004
-2.706067e-003,1.148425e-004
-2.816110e-003,6.897806e-005
-2.620497e-003,1.938607e-005
-2.197182e-003,-1.318906e-005
-1.675331e-003,-2.420950e-005
-1.162556e-003,-2.534396e-005
-7.071526e-004,-3.101624e-005
-3.079858e-004,-4.495386e-005
4.823369e-005,-5.710876e-005
3.440029e-004,-5.500191e-005
5.216266e-004,-3.279896e-005
5.292437e-004,5.772582e-006
3.571302e-004,5.309565e-005
6.119892e-005,1.030118e-004
-2.640661e-004,1.467694e-004
-5.295291e-004,1.748067e-004
-6.736051e-004,1.791825e-004
-6.530228e-004,1.608691e-004
-4.601651e-004,1.247285e-004
-1.405724e-004,8.194328e-005
2.167816e-004,4.515445e-005
5.161164e-004,1.857574e-005
6.875816e-004,-8.489165e-006
7.174016e-004,-4.576419e-005
6.400964e-004,-9.438377e-005
5.123889e-004,-1.425172e-004
3.718782e-004,-1.739578e-004
2.133783e-004,-1.814128e-004
5.772582e-006,-1.639098e-004
-2.754107e-004,-1.255003e-004
-6.079687e-004,-7.574627e-005
-9.261028e-004,-2.939559e-005
-1.151698e-003,4.151929e-006
-1.225275e-003,1.825161e-005
-1.140191e-003,1.549650e-005
-9.392301e-004,5.610517e-006
-6.859221e-004,-2.492749e-006
-4.459034e-004,3.017472e-006
-2.669833e-004,2.651694e-005
-1.601823e-004,5.601283e-005
-1.054042e-004,7.853991e-005
-6.569822e-005,9.182927e-005
-6.220251e-006,1.017153e-004
8.518459e-005,1.153287e-004
1.903650e-004,1.357490e-004
2.866318e-004,1.613553e-004
3.559958e-004,1.804790e-004
3.963500e-004,1.863134e-004
4.112601e-004,1.809652e-004
4.047775e-004,1.701068e-004
3.801435e-004,1.586002e-004
3.407616e-004,1.498487e-004
2.892249e-004,1.448246e-004
2.380122e-004,1.461212e-004
2.070577e-004,1.534141e-004
2.062474e-004,1.658931e-004
2.190506e-004,1.796687e-004
2.287745e-004,1.906891e-004
2.273159e-004,1.944166e-004
2.145127e-004,1.877719e-004
1.869616e-004,1.736723e-004
1.211631e-004,1.555209e-004
-2.330684e-006,1.328318e-004
-1.715269e-004,1.088461e-004
-3.475298e-004,8.793970e-005
-4.839887e-004,8.161915e-005
-5.543251e-004,8.956035e-005
-5.535147e-004,1.049566e-004
-5.060296e-004,1.180839e-004
-4.536825e-004,1.232699e-004
-4.420138e-004,1.197045e-004
-4.990608e-004,1.047945e-004
-6.162340e-004,7.789165e-005
-7.635513e-004,4.223728e-005
-9.013068e-004,7.485573e-007
-1.013618e-003,-4.187462e-005
-1.111667e-003,-8.125648e-005
-1.194645e-003,-1.057284e-004
-1.215227e-003,-1.073490e-004
-1.104212e-003,-8.093235e-005
-7.846198e-004,-3.652646e-005
-2.002124e-004,9.986280e-006
6.178935e-004,4.320967e-005
1.500178e-003,5.957827e-005
2.214727e-003,6.881599e-005
2.557334e-003,7.789165e-005
2.443726e-003,8.259154e-005
1.964821e-003,8.080882e-005
1.349295e-003,7.643306e-005
8.248510e-004,7.335382e-005
5.164405e-004,6.946425e-005
4.276287e-004,5.876794e-005
4.859722e-004,3.737532e-005
6.046041e-004,9.824214e-006
7.144844e-004,-1.140634e-005
7.789865e-004,-1.610623e-005
7.840105e-004,-6.220251e-006
7.293944e-004,9.500084e-006
6.375034e-004,2.165498e-005
5.473950e-004,2.862379e-005
4.914824e-004,2.457216e-005
4.807861e-004,6.420843e-006
5.073649e-004,-1.821308e-005
5.470709e-004,-3.474375e-005
5.785116e-004,-3.539201e-005
5.906665e-004,-2.177852e-005
5.833735e-004,-2.816880e-006
5.616568e-004,1.744128e-005
5.366987e-004,3.348575e-005
5.196818e-004,3.996836e-005
5.219507e-004,3.915804e-005
5.482053e-004,4.320967e-005
5.942319e-004,5.990240e-005
6.470652e-004,9.150514e-005
6.990882e-004,1.321835e-004
7.546767e-004,1.697827e-004
8.289026e-004,1.911753e-004
9.271143e-004,1.932822e-004
1.053039e-003,1.830720e-004
1.210243e-003,1.714033e-004
1.400832e-003,1.662173e-004
1.624645e-003,1.663793e-004
1.851861e-003,1.645966e-004
2.028027e-003,1.537382e-004
2.101767e-003,1.271595e-004
2.040830e-003,8.599491e-005
1.823013e-003,3.818564e-005
1.451883e-003,-1.010982e-005
9.323005e-004,-6.472583e-005
2.443327e-004,-1.264727e-004
-6.185029e-004,-1.900023e-004
-1.574040e-003,-2.426735e-004
-2.461186e-003,-2.710350e-004
-3.113825e-003,-2.656868e-004
-3.429529e-003,-2.267911e-004
-3.403598e-003,-1.613168e-004
-3.106856e-003,-7.995997e-005
-2.648534e-003,5.864920e-007
-2.141431e-003,6.395403e-005
-1.682462e-003,1.031738e-004
-1.327539e-003,1.172735e-004
-1.090761e-003,1.018773e-004
-9.468471e-004,5.747142e-005
-8.398841e-004,-2.654814e-006
-7.074767e-004,-5.597430e-005
-5.138087e-004,-8.077029e-005
-2.533698e-004,-7.542214e-005
5.309565e-005,-5.483985e-005
3.636129e-004,-3.425755e-005
6.456067e-004,-2.323711e-005
8.959977e-004,-2.258885e-005
1.108466e-003,-2.275091e-005
1.250273e-003,-8.813297e-006
1.275231e-003,2.522042e-005
1.163568e-003,7.157111e-005
9.280867e-004,1.200286e-004
6.018489e-004,1.623277e-004
2.174299e-004,1.976579e-004
-2.024813e-004,2.287745e-004
-6.429748e-004,2.553532e-004
-1.088978e-003,2.756114e-004
-1.507107e-003,2.814457e-004
-1.818597e-003,2.689667e-004
-1.914215e-003,2.414156e-004
-1.716171e-003,2.034923e-004
-1.210852e-003,1.558451e-004
-4.523860e-004,1.046324e-004
4.159599e-004,5.844381e-005
1.198898e-003,2.554455e-005
1.736632e-003,1.014835e-005
1.962552e-003,8.689757e-006
1.948128e-003,1.160693e-005
1.845216e-003,1.063454e-005
1.750570e-003,-6.176923e-008
1.626103e-003,-1.724069e-005
1.335844e-003,-4.009190e-005
7.417114e-004,-7.023605e-005
-1.742820e-004,-1.151281e-004
-1.229165e-003,-1.812508e-004
-2.133976e-003,-2.660109e-004
-2.645617e-003,-3.450988e-004
-2.665875e-003,-3.971218e-004
-2.259415e-003,-4.086284e-004
-1.609046e-003,-3.804290e-004
-9.312889e-004,-3.130099e-004
-3.880461e-004,-2.128535e-004
-4.706071e-005,-9.697682e-005
1.091703e-004,1.371378e-005
1.446626e-004,1.020394e-004
1.448246e-004,1.560071e-004
1.890685e-004,1.762653e-004
3.230965e-004,1.712413e-004
5.188715e-004,1.539003e-004
6.926056e-004,1.357490e-004
7.671557e-004,1.214872e-004
7.182119e-004,1.107909e-004
5.679773e-004,1.018773e-004
3.702575e-004,9.377405e-005
1.840444e-004,8.388807e-005
5.406805e-005,7.367795e-005
8.203561e-006,7.124698e-005
4.483032e-005,8.097089e-005
1.307249e-004,9.912220e-005
2.148369e-004,1.213252e-004
2.577842e-004,1.381799e-004
2.334744e-004,1.427178e-004
1.419075e-004,1.373696e-004
8.203561e-006,1.250527e-004
-1.259865e-004,1.127357e-004
-2.399184e-004,1.062531e-004
-3.650328e-004,1.046324e-004
-5.672903e-004,1.090082e-004
-8.607905e-004,1.185700e-004
-1.171632e-003,1.308870e-004
-1.382965e-003,1.427178e-004
-1.380210e-003,1.513072e-004
-1.104699e-003,1.553589e-004
-5.971103e-004,1.547106e-004
3.105477e-005,1.464453e-004
6.443101e-004,1.396385e-004
1.134234e-003,1.370455e-004
1.465982e-003,1.383420e-004
1.659813e-003,1.386661e-004
1.710215e-003,1.370455e-004
1.569704e-003,1.357490e-004
1.192254e-003,1.391524e-004
5.932595e-004,1.501728e-004
-1.146419e-004,1.683241e-004
-7.510723e-004,1.880961e-004
-1.183300e-003,2.054371e-004
-1.385072e-003,2.187264e-004
-1.411164e-003,2.316917e-004
-1.350390e-003,2.477361e-004
-1.293829e-003,2.697770e-004
-1.290426e-003,2.987867e-004
-1.308415e-003,3.279585e-004
-1.267250e-003,3.498373e-004
-1.108264e-003,3.490270e-004
-8.241637e-004,3.042969e-004
-4.463896e-004,2.159713e-004
-3.733679e-005,1.104668e-004
3.485408e-004,2.068259e-005
6.775335e-004,-3.944364e-005
9.355418e-004,-7.542214e-005
1.110735e-003,-1.015147e-004
1.201167e-003,-1.295519e-004
1.216077e-003,-1.608306e-004
1.177181e-003,-1.891920e-004
1.121107e-003,-2.107467e-004
1.085452e-003,-2.191741e-004
1.093231e-003,-2.144742e-004
1.143634e-003,-1.989159e-004
1.216077e-003,-1.807646e-004
1.292572e-003,-1.676373e-004
1.368419e-003,-1.595340e-004
1.437945e-003,-1.522411e-004
1.483648e-003,-1.368449e-004
1.487861e-003,-1.078352e-004
1.445400e-003,-7.023605e-005
1.350429e-003,-4.317114e-005
1.197602e-003,-4.398147e-005
9.921027e-004,-7.688072e-005
7.574318e-004,-1.370070e-004
5.204921e-004,-2.050744e-004
3.041349e-004,-2.554767e-004
1.150046e-004,-2.666592e-004
-6.893953e-005,-2.324634e-004
-2.752486e-004,-1.572651e-004
-5.183466e-004,-5.581224e-005
-7.802441e-004,5.179913e-005
-9.904427e-004,1.425557e-004
-1.043438e-003,1.986303e-004
-8.713248e-004,2.114335e-004
-5.364979e-004,1.874478e-004
-2.243601e-004,1.430419e-004
-1.208004e-004,9.701536e-005
-3.196545e-004,6.525056e-005
-7.572308e-004,5.601283e-005
-1.240347e-003,6.849186e-005
-1.575336e-003,9.507057e-005
-1.663500e-003,1.245665e-004
-1.529958e-003,1.469315e-004
-1.275354e-003,1.616794e-004
-1.005353e-003,1.647587e-004
-7.773269e-004,1.569795e-004
-5.906277e-004,1.391524e-004
-4.207833e-004,1.184080e-004
-2.535319e-004,9.896014e-005
-9.811128e-005,8.161915e-005
1.290346e-005,7.189524e-005
5.633696e-005,7.351588e-005
5.730935e-005,8.583285e-005
7.756751e-005,1.070634e-004
1.594105e-004,1.334801e-004
2.872800e-004,1.574657e-004
4.059119e-004,1.733481e-004
4.644175e-004,1.796687e-004
4.548556e-004,1.761032e-004
4.128807e-004,1.694586e-004
3.807918e-004,1.641104e-004
3.744712e-004,1.602208e-004
3.671783e-004,1.548727e-004
3.102933e-004,1.488763e-004
1.610312e-004,1.441764e-004
-8.222889e-005,1.446626e-004
-3.736223e-004,1.467694e-004
-6.382748e-004,1.446626e-004
-7.946679e-004,1.393144e-004
-8.001781e-004,1.355869e-004
-6.727948e-004,1.381799e-004
-4.685925e-004,1.396385e-004
-2.442942e-004,1.282940e-004
-3.830918e-005,9.571883e-005
1.321835e-004,4.790957e-005
2.629703e-004,1.002961e-007
3.574544e-004,-3.733679e-005
4.209840e-004,-5.889147e-005
4.637692e-004,-6.440169e-005
4.909962e-004,-5.970180e-005
5.120648e-004,-5.629843e-005
5.363746e-004,-7.007398e-005
5.666808e-004,-1.045939e-004
6.052523e-004,-1.561307e-004
6.704027e-004,-2.125294e-004
7.729901e-004,-2.617972e-004
9.037769e-004,-2.995584e-004
1.021436e-003,-3.275957e-004
1.066977e-003,-3.462333e-004
1.006040e-003,-3.517435e-004
8.536986e-004,-3.371576e-004
6.558168e-004,-2.974516e-004
4.585831e-004,-2.391081e-004
2.848491e-004,-1.734716e-004
1.339663e-004,-1.071869e-004
-8.813297e-006,-4.592625e-005
-1.669890e-004,3.989864e-006
-3.493125e-004,4.077869e-005
-5.329325e-004,6.281957e-005
-6.781429e-004,7.562274e-005
-7.724649e-004,8.421220e-005
-8.517149e-004,9.701536e-005
-9.659709e-004,1.234320e-004
-1.133060e-003,1.670276e-004
-1.310846e-003,2.255332e-004
-1.395282e-003,2.970040e-004
-1.261254e-003,3.691231e-004
-8.478253e-004,4.166082e-004
-2.100984e-004,4.167703e-004
5.195197e-004,3.603715e-004
1.187554e-003,2.550291e-004
1.691578e-003,1.260251e-004
2.007606e-003,3.665733e-006
2.173238e-003,-8.741497e-005
2.238064e-003,-1.381414e-004
2.223802e-003,-1.511066e-004
2.124456e-003,-1.397621e-004
1.918956e-003,-1.151281e-004
1.568570e-003,-8.174268e-005
1.050932e-003,-3.441962e-005
4.094774e-004,3.154097e-005
-2.720073e-004,1.083599e-004
-9.421473e-004,1.806411e-004
-1.542437e-003,2.357433e-004
-1.948249e-003,2.662116e-004
-2.052943e-003,2.697770e-004
-1.859113e-003,2.545429e-004
-1.484904e-003,2.370398e-004
-1.097730e-003,2.239125e-004
-8.296740e-004,2.156472e-004
-7.048837e-004,2.099749e-004
-6.523746e-004,2.041405e-004
-5.796073e-004,1.929580e-004
-4.334243e-004,1.741585e-004
-2.183637e-004,1.529279e-004
2.927205e-005,1.329939e-004
2.655633e-004,1.161391e-004
4.649037e-004,1.025256e-004
6.118970e-004,9.166720e-005
7.034640e-004,7.999850e-005
7.480319e-004,6.541262e-005
7.475458e-004,4.645098e-005
6.992503e-004,1.841368e-005
5.940698e-004,-2.420950e-005
4.297355e-004,-7.023605e-005
2.556773e-004,-9.762508e-005
1.717275e-004,-8.709084e-005
2.955454e-004,-3.296103e-005
7.263152e-004,5.115087e-005
1.481865e-003,1.349386e-004
2.445671e-003,1.947408e-004
3.402025e-003,2.213195e-004
4.105071e-003,2.218057e-004
4.349792e-003,2.073818e-004
4.043161e-003,1.819376e-004
3.258595e-003,1.432040e-004
2.170807e-003,9.685329e-005
9.502897e-004,5.487837e-005
-2.569353e-004,2.829966e-005
-1.316680e-003,2.116879e-005
-2.148238e-003,3.299956e-005
-2.716602e-003,5.098881e-005
-3.036033e-003,5.163707e-005
-3.146400e-003,1.095867e-005
-3.092108e-003,-8.222889e-005
-2.930528e-003,-2.194982e-004
-2.715629e-003,-3.705430e-004
-2.452273e-003,-4.893369e-004
-2.075308e-003,-5.395771e-004
-1.498517e-003,-5.084606e-004
-7.403760e-004,-4.115455e-004
2.343770e-005,-2.854588e-004
5.201680e-004,-1.643960e-004
5.360504e-004,-6.731887e-005
5.601283e-005,6.258778e-006
-6.907840e-004,6.573675e-005
-1.351362e-003,1.116012e-004
-1.656369e-003,1.351007e-004
-1.523962e-003,1.281319e-004
-1.058510e-003,9.798775e-005
-4.786406e-004,5.763348e-005
8.365628e-006,2.003433e-005
2.957075e-004,-6.220251e-006
3.963500e-004,-1.626830e-005
3.948915e-004,-7.354708e-006
3.759298e-004,1.501031e-005
3.773884e-004,4.077869e-005
3.911640e-004,6.298164e-005
3.752816e-004,8.161915e-005
2.824181e-004,9.814982e-005
9.604297e-005,1.112771e-004
-1.559686e-004,1.187321e-004
-4.212695e-004,1.248906e-004
-6.407059e-004,1.315353e-004
-7.523688e-004,1.398006e-004
-7.215764e-004,1.509831e-004
-5.658317e-004,1.662173e-004
-3.562813e-004,1.801549e-004
-1.723372e-004,1.853410e-004
-3.198863e-005,1.801549e-004
9.069480e-005,1.670276e-004
2.158092e-004,1.483901e-004
3.405996e-004,1.291043e-004
4.550177e-004,1.174356e-004
5.614947e-004,1.188942e-004
6.759128e-004,1.347766e-004
8.191787e-004,1.663793e-004
9.919406e-004,2.138645e-004
1.168916e-003,2.717218e-004
1.313965e-003,3.256896e-004
1.372957e-003,3.508097e-004
1.285279e-003,3.255275e-004
1.035212e-003,2.495188e-004
6.567891e-004,1.472556e-004
1.819376e-004,5.325772e-005
-3.875599e-004,-8.327101e-006
-1.053000e-003,-3.328516e-005
-1.767222e-003,-3.198863e-005
-2.430232e-003,-2.631635e-005
-2.915132e-003,-3.182657e-005
-3.109611e-003,-5.467778e-005
-2.951273e-003,-9.227693e-005
-2.459566e-003,-1.365208e-004
-1.732864e-003,-1.736337e-004
-9.097342e-004,-1.890299e-004
-1.287416e-004,-1.754164e-004
5.068786e-004,-1.339277e-004
9.643894e-004,-7.444974e-005
1.258538e-003,-1.416145e-005
1.414283e-003,3.380988e-005
1.459986e-003,6.427816e-005
1.427735e-003,7.983643e-005
1.346540e-003,8.502253e-005
1.243304e-003,8.567078e-005
1.139258e-003,8.226741e-005
1.042991e-003,7.756751e-005
9.570965e-004,7.319175e-005
8.768740e-004,6.703327e-005
8.081583e-004,6.087479e-005
7.616455e-004,5.196120e-005
7.540284e-004,4.450619e-005
7.794727e-004,4.580272e-005
7.985964e-004,6.152305e-005
7.631041e-004,8.810177e-005
6.405826e-004,1.175977e-004
4.357320e-004,1.388282e-004
1.889064e-004,1.459591e-004
-4.835723e-005,1.401247e-004
-2.394322e-004,1.265113e-004
-3.770256e-004,1.106288e-004
-4.634064e-004,9.733949e-005
-4.927402e-004,8.615698e-005
-4.515757e-004,7.238143e-005
-3.438023e-004,4.742337e-005
-1.985918e-004,6.744974e-006
-4.155049e-005,-4.236081e-005
1.289422e-004,-9.114247e-005
3.224483e-004,-1.302002e-004
5.332953e-004,-1.609926e-004
7.407391e-004,-1.849783e-004
9.284109e-004,-2.084778e-004
1.083508e-003,-2.361909e-004
1.196791e-003,-2.632558e-004
1.266966e-003,-2.768693e-004
1.309265e-003,-2.622834e-004
1.335682e-003,-2.160948e-004
1.341678e-003,-1.423551e-004
1.317854e-003,-5.338126e-005
1.249463e-003,3.445814e-005
1.111059e-003,1.083599e-004
8.674742e-004,1.686482e-004
4.793275e-004,2.143507e-004
-6.618442e-005,2.427121e-004
-7.188214e-004,2.522740e-004
-1.378427e-003,2.441707e-004
-1.916484e-003,2.211574e-004
-2.213712e-003,1.877719e-004
-2.222788e-003,1.540623e-004
-1.994762e-003,1.359110e-004
-1.643890e-003,1.394765e-004
-1.269681e-003,1.618415e-004
-9.116790e-004,2.039785e-004
-5.551354e-004,2.581083e-004
-1.632615e-004,3.119140e-004
2.924662e-004,3.584267e-004
8.201511e-004,3.944053e-004
1.391756e-003,4.164462e-004
1.902425e-003,4.130428e-004
2.193334e-003,3.744712e-004
2.126400e-003,2.957075e-004
1.665971e-003,1.924718e-004
9.370003e-004,8.939829e-005
1.569795e-004,1.072688e-006
-4.904713e-004,-7.347736e-005
-9.473334e-004,-1.430034e-004
-1.257364e-003,-2.065330e-004
-1.471128e-003,-2.476975e-004
-1.581981e-003,-2.517492e-004
-1.533848e-003,-2.167431e-004
-1.276488e-003,-1.575892e-004
-8.243258e-004,-9.859748e-005
-2.767072e-004,-5.386745e-005
2.198609e-004,-2.485776e-005
5.362125e-004,-1.075808e-005
6.162728e-004,-9.947754e-006
4.976409e-004,-1.707863e-005
2.717218e-004,-2.501983e-005
1.452411e-005,-3.166451e-005
-2.400805e-004,-4.576419e-005
-4.924161e-004,-7.234290e-005
-7.523688e-004,-1.065387e-004
-1.014590e-003,-1.391138e-004
-1.250071e-003,-1.595340e-004
-1.403061e-003,-1.554824e-004
-1.427533e-003,-1.280934e-004
-1.323325e-003,-8.887356e-005
-1.131602e-003,-5.257093e-005
-9.128135e-004,-2.453363e-005
-7.308142e-004,-2.492749e-006
-6.311440e-004,1.938607e-005
-6.144513e-004,3.915804e-005
-6.322784e-004,5.228533e-005
-6.235269e-004,5.423011e-005
-5.413598e-004,4.547859e-005
-3.770256e-004,3.721326e-005
-1.517549e-004,3.640293e-005
1.010670e-004,4.353380e-005
3.592371e-004,5.163707e-005
6.115729e-004,4.774750e-005
8.575883e-004,2.489629e-005
1.114462e-003,-9.623623e-006
1.407639e-003,-3.895744e-005
1.741980e-003,-5.240886e-005
2.094636e-003,-4.706071e-005
2.413906e-003,-2.615428e-005
2.641122e-003,5.448451e-006
2.733824e-003,4.077869e-005
2.671105e-003,6.930219e-005
2.462525e-003,8.323980e-005
2.160272e-003,8.340186e-005
1.828361e-003,7.740545e-005
1.504068e-003,7.270556e-005
1.186095e-003,7.497447e-005
8.502953e-004,8.145709e-005
4.799758e-004,8.599491e-005
7.546067e-005,8.810177e-005
-3.569296e-004,9.101894e-005
-8.006643e-004,9.814982e-005
-1.212310e-003,1.075496e-004
-1.528337e-003,1.187321e-004
-1.670307e-003,1.313732e-004
-1.567557e-003,1.430419e-004
-1.218631e-003,1.508210e-004
-7.128249e-004,1.500107e-004
-1.849783e-004,1.401247e-004
2.323399e-004,1.237561e-004
4.723587e-004,1.056048e-004
5.660325e-004,9.004655e-005
6.211348e-004,8.356393e-005
7.347426e-004,9.296372e-005
9.196593e-004,1.222975e-004
1.123376e-003,1.665414e-004
1.260321e-003,2.154851e-004
1.249787e-003,2.569738e-004
1.070542e-003,2.793389e-004
7.293944e-004,2.796630e-004
2.020337e-004,2.560015e-004
-4.982505e-004,2.099749e-004
-1.237430e-003,1.456350e-004
-1.820055e-003,6.914012e-005
-2.108532e-003,-1.140634e-005
-2.086167e-003,-7.833932e-005
-1.839989e-003,-1.164247e-004
-1.492683e-003,-1.240417e-004
-1.150239e-003,-1.123730e-004
-8.766729e-004,-9.389758e-005
-6.804119e-004,-7.785312e-005
-5.350393e-004,-7.137050e-005
-4.125179e-004,-7.769105e-005
-3.086341e-004,-9.243900e-005
-2.263049e-004,-1.075111e-004
-1.668270e-004,-1.149661e-004
-1.298761e-004,-1.058904e-004
-1.211245e-004,-7.412562e-005
-1.485136e-004,-1.967167e-005
-2.115570e-004,4.871989e-005
-2.956689e-004,1.133840e-004
-3.762153e-004,1.623277e-004
-4.306693e-004,1.918236e-004
-4.478482e-004,2.023578e-004
-4.243487e-004,1.968476e-004
-3.613053e-004,1.773998e-004
-2.498044e-004,1.550348e-004
-7.315322e-005,1.375317e-004
1.712413e-004,1.297525e-004
4.537212e-004,1.344524e-004
6.971434e-004,1.427178e-004
8.264717e-004,1.407730e-004
8.135064e-004,1.250527e-004
6.950366e-004,1.017153e-004
5.456123e-004,7.335382e-005
4.386491e-004,4.175108e-005
4.145014e-004,4.800190e-006
4.642555e-004,-4.430560e-005
5.457744e-004,-1.089697e-004
6.167590e-004,-1.869231e-004
6.498203e-004,-2.532078e-004
6.342620e-004,-2.767072e-004
5.653843e-004,-2.433218e-004
4.550177e-004,-1.650442e-004
3.315239e-004,-6.488790e-005
2.226160e-004,3.316162e-005
1.496866e-004,1.094944e-004
1.124116e-004,1.563313e-004
9.296372e-005,1.726999e-004
7.157111e-005,1.602208e-004
3.818564e-005,1.234320e-004
1.883015e-006,7.675719e-005
-2.080613e-005,3.283749e-005
-1.756482e-005,-8.720958e-007
2.019640e-005,-1.707863e-005
9.377405e-005,-1.918548e-005
1.872858e-004,-1.805102e-005
2.673460e-004,-2.858526e-005
2.947351e-004,-5.565017e-005
2.425500e-004,-9.260106e-005
1.146805e-004,-1.261486e-004
-5.402952e-005,-1.434896e-004
-2.068571e-004,-1.357104e-004
-2.723315e-004,-9.600443e-005
-2.062088e-004,-2.728874e-005
-4.113402e-006,5.828174e-005
2.955454e-004,1.480659e-004
6.238898e-004,2.281262e-004
9.175524e-004,2.900352e-004
1.133100e-003,3.289309e-004
1.248652e-003,3.425443e-004
1.238928e-003,3.337928e-004
1.072649e-003,3.128864e-004
7.214532e-004,2.885766e-004
1.722137e-004,2.610255e-004
-5.272602e-004,2.329882e-004
-1.248937e-003,2.060853e-004
-1.825889e-003,1.795066e-004
-2.116149e-003,1.545486e-004
-2.068988e-003,1.346145e-004
-1.746477e-003,1.195424e-004
-1.265306e-003,1.090082e-004
-7.311383e-004,1.054428e-004
-2.292221e-004,1.080358e-004
1.504969e-004,1.111150e-004
3.180725e-004,1.124116e-004
2.325020e-004,1.151667e-004
-6.440169e-005,1.172735e-004
-4.446069e-004,1.159770e-004
-7.692236e-004,1.159770e-004
-9.356646e-004,1.197045e-004
-8.878554e-004,1.281319e-004
-6.462161e-004,1.381799e-004
-2.950206e-004,1.409351e-004
6.687120e-005,1.333180e-004
3.932708e-004,1.109530e-004
7.034640e-004,7.448828e-005
1.016899e-003,3.494434e-005
1.264049e-003,5.934647e-006
1.280579e-003,-1.108221e-005
9.052355e-004,-1.659243e-005
8.631904e-005,-1.756482e-005
-1.026583e-003,-1.918548e-005
-2.121659e-003,-2.453363e-005
-2.893739e-003,-3.425755e-005
-3.161958e-003,-4.754691e-005
-2.928908e-003,-6.213279e-005
-2.351630e-003,-7.185670e-005
-1.661393e-003,-7.704279e-005
-1.059969e-003,-8.417366e-005
-6.535090e-004,-9.794922e-005
-4.340726e-004,-1.169109e-004
-3.355369e-004,-1.327932e-004
-2.762210e-004,-1.331174e-004
-1.781715e-004,-1.141557e-004
1.274139e-005,-7.769105e-005
2.966798e-004,-3.604027e-005
6.125453e-004,-4.275467e-006
8.968081e-004,9.175954e-006
1.133424e-003,6.744974e-006
1.361774e-003,-5.571990e-006
1.617352e-003,-2.145439e-005
1.889136e-003,-3.247483e-005
2.119432e-003,-3.441962e-005
2.227368e-003,-2.534396e-005
2.168376e-003,-8.651231e-006
1.959311e-003,9.338019e-006
1.671644e-003,2.619281e-005
1.382681e-003,4.013043e-005
1.147523e-003,5.277152e-005
9.846475e-004,6.573675e-005
8.784947e-004,7.254349e-005
8.037825e-004,7.124698e-005
7.436562e-004,6.233338e-005
6.914712e-004,4.774750e-005
6.516030e-004,3.251336e-005
6.284277e-004,2.732727e-005
6.222692e-004,4.320967e-005
6.305345e-004,8.016056e-005
6.564650e-004,1.300767e-004
7.073535e-004,1.819376e-004
7.752589e-004,2.158092e-004
8.361956e-004,2.192126e-004
8.690949e-004,1.914994e-004
8.669881e-004,1.415833e-004
8.488367e-004,8.129502e-005
8.376542e-004,1.906194e-005
8.475402e-004,-4.138842e-005
8.747672e-004,-9.778715e-005
8.958357e-004,-1.441378e-004
8.613158e-004,-1.716889e-004
7.232359e-004,-1.755785e-004
4.723587e-004,-1.582375e-004
1.496866e-004,-1.274451e-004
-1.661787e-004,-8.903562e-005
-3.896667e-004,-4.997788e-005
-4.784785e-004,-1.821308e-005
-4.415276e-004,1.396819e-006
-3.227338e-004,8.527692e-006
-1.818990e-004,8.041497e-006
-6.132245e-005,5.610517e-006
1.306552e-005,4.313994e-006
3.024445e-005,6.907039e-006
-1.788895e-005,1.128280e-005
-1.347380e-004,1.371378e-005
-3.277578e-004,8.365628e-006
-5.870622e-004,-3.858999e-007
-8.703523e-004,-6.058186e-006
-1.104861e-003,-4.761663e-006
-1.206152e-003,2.207145e-006
-1.129171e-003,1.322759e-005
-9.045481e-004,1.987226e-005
-6.266062e-004,1.971020e-005
-4.152730e-004,1.663096e-005
-3.666535e-004,1.468617e-005
-5.146191e-004,1.436204e-005
-7.996919e-004,1.501031e-005
-1.105509e-003,1.857574e-005
-1.325594e-003,2.992031e-005
-1.413271e-003,4.580272e-005
-1.388637e-003,5.649903e-005
-1.311818e-003,6.071273e-005
-1.239699e-003,6.038860e-005
-1.192700e-003,5.795762e-005
-1.158342e-003,6.298164e-005
-1.126415e-003,7.870197e-005
-1.105347e-003,1.028497e-004
-1.114909e-003,1.331559e-004
-1.162718e-003,1.670276e-004
-1.222682e-003,1.996027e-004
-1.238078e-003,2.252090e-004
-1.141974e-003,2.388225e-004
-8.849382e-004,2.350950e-004
-4.609755e-004,2.117576e-004
9.199134e-005,1.736723e-004
6.976296e-004,1.271595e-004
1.267614e-003,7.918817e-005
1.725936e-003,3.478227e-005
2.025434e-003,-2.006553e-006
2.155410e-003,-2.745081e-005
2.154600e-003,-4.446767e-005
2.097391e-003,-6.116039e-005
2.079239e-003,-7.623246e-005
2.181827e-003,-8.287714e-005
2.394620e-003,-7.201877e-005
2.599796e-003,-4.090223e-005
2.664784e-003,4.476060e-006
2.533186e-003,5.001641e-005
2.227854e-003,8.242948e-005
1.785576e-003,9.798775e-005
1.216239e-003,9.863601e-005
5.281092e-004,8.956035e-005
-2.118811e-004,8.048469e-005
-8.745661e-004,7.691926e-005
-1.329808e-003,8.421220e-005
-1.500948e-003,1.034980e-004
-1.390258e-003,1.281319e-004
-1.070665e-003,1.509831e-004
-6.640432e-004,1.725378e-004
-2.840002e-004,1.902029e-004
3.503668e-006,2.020337e-004
1.801549e-004,2.080301e-004
2.582704e-004,2.083542e-004
2.671840e-004,2.054371e-004
2.282883e-004,1.994406e-004
1.521176e-004,1.906891e-004
5.617490e-005,1.791825e-004
-3.004385e-005,1.678379e-004
-9.519411e-005,1.550348e-004
-1.616409e-004,1.389903e-004
-2.827036e-004,1.175977e-004
-4.961436e-004,9.037068e-005
-7.701960e-004,6.168512e-005
-1.029501e-003,3.867184e-005
-1.202100e-003,2.619281e-005
-1.260444e-003,2.295151e-005
-1.219117e-003,2.116879e-005
-1.113612e-003,1.452411e-005
-9.907669e-004,-1.196226e-006
-8.902864e-004,-2.728874e-005
-8.316187e-004,-6.456376e-005
-8.184914e-004,-1.031353e-004
-8.223810e-004,-1.300381e-004
-7.674409e-004,-1.378173e-004
-5.407116e-004,-1.282554e-004
-4.462973e-005,-1.044318e-004
7.089743e-004,-7.396355e-005
1.525947e-003,-4.381940e-005
2.096580e-003,-1.691656e-005
2.154114e-003,9.500084e-006
1.632262e-003,3.607880e-005
7.165913e-004,6.314371e-005
-2.454286e-004,9.328785e-005
-9.061688e-004,1.227837e-004
-1.103564e-003,1.457970e-004
-9.051964e-004,1.553589e-004
-5.342290e-004,1.475797e-004
-2.136638e-004,1.197045e-004
-7.785312e-005,7.772959e-005
-1.750923e-004,3.397195e-005
-4.663236e-004,-2.654814e-006
-8.416668e-004,-3.053005e-005
-1.181842e-003,-5.111234e-005
-1.429154e-003,-6.326724e-005
-1.586519e-003,-6.521203e-005
-1.682300e-003,-5.856734e-005
-1.745505e-003,-4.868136e-005
-1.783104e-003,-4.333321e-005
-1.766087e-003,-4.219875e-005
-1.634976e-003,-4.576419e-005
-1.341800e-003,-5.240886e-005
-9.061688e-004,-5.646050e-005
-4.211074e-004,-5.710876e-005
-1.480971e-005,-5.565017e-005
2.153230e-004,-5.467778e-005
2.654012e-004,-5.419158e-005
2.234263e-004,-5.159854e-005
2.068957e-004,-4.689864e-005
2.950592e-004,-3.782299e-005
4.827309e-004,-2.307504e-005
6.992503e-004,-4.437533e-006
8.590468e-004,1.825161e-005
9.126905e-004,4.839576e-005
8.687708e-004,8.210535e-005
7.819037e-004,1.106288e-004
7.107570e-004,1.219734e-004
7.008709e-004,1.107909e-004
7.676419e-004,8.161915e-005
9.053975e-004,4.871989e-005
1.100686e-003,2.813760e-005
1.336816e-003,2.781346e-005
1.583480e-003,3.834771e-005
1.795948e-003,4.126489e-005
1.927546e-003,2.992031e-005
1.947966e-003,1.873781e-005
1.848295e-003,2.068259e-005
1.644741e-003,4.418206e-005
1.372146e-003,9.004655e-005
1.057577e-003,1.498487e-004
7.131879e-004,2.125679e-004
3.472442e-004,2.652392e-004
-2.307504e-005,2.940868e-004
-3.796187e-004,2.918179e-004
-7.202799e-004,2.581083e-004
-1.050569e-003,2.034923e-004
-1.381020e-003,1.459591e-004
-1.691537e-003,9.604297e-005
-1.925073e-003,5.244739e-005
-1.993141e-003,1.225519e-005
-1.807738e-003,-2.096819e-005
-1.329808e-003,-4.009190e-005
-5.843071e-004,-4.203669e-005
3.417340e-004,-2.858526e-005
1.277662e-003,-7.354708e-006
2.037264e-003,1.452411e-005
2.479218e-003,3.170303e-005
2.549555e-003,4.369587e-005
2.291708e-003,5.082674e-005
1.829334e-003,4.936815e-005
1.313479e-003,4.077869e-005
8.697432e-004,3.073064e-005
5.683014e-004,2.408596e-005
4.230909e-004,2.522042e-005
4.047775e-004,3.818564e-005
4.756000e-004,6.735740e-005
5.849942e-004,1.122495e-004
6.738060e-004,1.626518e-004
6.843403e-004,2.023578e-004
5.883976e-004,2.211574e-004
3.905157e-004,2.162954e-004
1.271595e-004,1.976579e-004
-1.475412e-004,1.809652e-004
-3.841565e-004,1.731861e-004
-5.546492e-004,1.731861e-004
-6.588572e-004,1.697827e-004
-7.120146e-004,1.514693e-004
-7.282211e-004,1.195424e-004
-7.204420e-004,8.048469e-005
-6.928909e-004,4.175108e-005
-6.544814e-004,9.106226e-007
-6.131548e-004,-5.046408e-005
-5.781486e-004,-1.248521e-004
-5.502734e-004,-2.259808e-004
-5.227224e-004,-3.361852e-004
-4.870680e-004,-4.288865e-004
-4.439586e-004,-4.732924e-004
-4.053871e-004,-4.522239e-004
-3.823738e-004,-3.755671e-004
-3.676258e-004,-2.718453e-004
-3.337542e-004,-1.707165e-004
-2.577456e-004,-9.746302e-005
-1.316588e-004,-5.970180e-005
3.818564e-005,-4.479180e-005
2.394708e-004,-2.988179e-005
4.665244e-004,-4.761663e-006
7.041122e-004,3.040651e-005
9.112319e-004,6.865393e-005
1.034402e-003,1.026876e-004
1.056605e-003,1.295905e-004
9.959922e-004,1.500107e-004
8.744430e-004,1.650828e-004
6.911471e-004,1.718895e-004
4.451317e-004,1.715654e-004
1.845306e-004,1.681620e-004
-4.761663e-006,1.684862e-004
-6.132245e-005,1.720516e-004
3.559260e-005,1.709171e-004
2.393087e-004,1.556830e-004
4.211461e-004,1.211631e-004
4.373526e-004,6.784360e-005
2.004130e-004,2.855406e-006
-2.624455e-004,-5.824321e-005
-8.173570e-004,-9.454584e-005
-1.296422e-003,-9.389758e-005
-1.590733e-003,-5.759496e-005
-1.677438e-003,3.017472e-006
-1.601267e-003,7.124698e-005
-1.414730e-003,1.307249e-004
-1.138246e-003,1.717275e-004
-7.782993e-004,1.970097e-004
-3.572537e-004,2.106232e-004
8.453633e-005,2.143507e-004
4.820826e-004,2.098128e-004
7.559732e-004,1.997648e-004
8.483505e-004,1.882581e-004
7.804451e-004,1.752929e-004
6.733198e-004,1.589243e-004
6.608408e-004,1.420695e-004
7.472216e-004,1.269974e-004
7.726659e-004,1.135460e-004
5.178991e-004,9.831188e-005
-1.434896e-004,7.999850e-005
-1.129333e-003,6.103685e-005
-2.158286e-003,4.483032e-005
-2.899088e-003,3.624086e-005
-3.116742e-003,3.802358e-005
-2.744315e-003,4.985435e-005
-1.884719e-003,7.238143e-005
-7.654961e-004,1.051186e-004
3.132105e-004,1.410971e-004
1.079456e-003,1.704310e-004
1.399049e-003,1.900409e-004
1.280579e-003,1.996027e-004
8.660157e-004,2.018716e-004
3.788470e-004,2.002510e-004
1.387585e-005,1.929580e-004
-1.357104e-004,1.767515e-004
-9.162867e-005,1.498487e-004
5.876794e-005,1.179218e-004
2.158092e-004,8.956035e-005
3.028383e-004,7.465034e-005
2.726942e-004,7.578480e-005
1.235941e-004,8.907416e-005
-9.973194e-005,1.072255e-004
-3.233821e-004,1.224596e-004
-4.645409e-004,1.269974e-004
-4.648650e-004,1.187321e-004
-3.215993e-004,1.010670e-004
-8.563225e-005,7.951231e-005
1.680000e-004,6.055066e-005
3.762539e-004,4.661304e-005
5.075269e-004,3.640293e-005
5.692738e-004,2.829966e-005
5.791598e-004,2.181705e-005
5.580913e-004,1.889987e-005
5.243817e-004,1.646889e-005
4.940755e-004,1.144487e-005
4.835412e-004,3.989864e-006
5.088234e-004,-8.165034e-006
5.702462e-004,-2.064406e-005
6.569512e-004,-3.020592e-005
7.431700e-004,-3.895744e-005
7.947068e-004,-4.932962e-005
7.888725e-004,-5.791909e-005
7.287462e-004,-5.808115e-005
6.366930e-004,-5.176060e-005
5.418848e-004,-5.030201e-005
4.681450e-004,-6.326724e-005
4.289252e-004,-9.373551e-005
4.204978e-004,-1.371690e-004
4.305458e-004,-1.793060e-004
4.430249e-004,-2.044261e-004
4.501558e-004,-2.021572e-004
4.503178e-004,-1.760647e-004
4.428628e-004,-1.394379e-004
4.339492e-004,-1.024870e-004
4.324906e-004,-6.650855e-005
4.430249e-004,-3.506787e-005
4.610142e-004,-1.432352e-005
4.739794e-004,-8.975361e-006
4.472386e-004,-1.902341e-005
3.302274e-004,-3.620233e-005
9.361198e-005,-4.787104e-005
-2.136638e-004,-4.527799e-005
-4.958195e-004,-2.210265e-005
-6.601537e-004,2.441009e-005
-6.486471e-004,9.296372e-005
-4.676201e-004,1.697827e-004
-1.885437e-004,2.323399e-004
9.507057e-005,2.585945e-004
3.080244e-004,2.360674e-004
4.119083e-004,1.688103e-004
4.042912e-004,7.967437e-005
2.901973e-004,-4.113402e-006
8.486046e-005,-6.521203e-005
-1.755785e-004,-1.039456e-004
-4.335864e-004,-1.298761e-004
-6.267682e-004,-1.520790e-004
-7.100698e-004,-1.684476e-004
-6.744154e-004,-1.684476e-004
-5.470321e-004,-1.436516e-004
-3.930701e-004,-9.794922e-005
-2.846484e-004,-4.349527e-005
-2.778417e-004,8.689757e-006
-3.841565e-004,5.179913e-005
-5.689110e-004,8.275361e-005
-7.646858e-004,9.733949e-005
-8.977414e-004,9.507057e-005
-9.069791e-004,7.384001e-005
-7.726270e-004,4.013043e-005
-5.275843e-004,2.693341e-006
-2.407287e-004,-2.793700e-005
1.257933e-005,-4.219875e-005
1.879340e-004,-3.328516e-005
2.845250e-004,-7.840905e-006
3.169380e-004,2.651694e-005
3.002453e-004,5.990240e-005
2.542187e-004,8.534666e-005
1.983062e-004,9.636710e-005
1.493625e-004,9.312579e-005
1.083599e-004,7.983643e-005
7.610893e-005,6.541262e-005
6.589881e-005,5.860587e-005
9.507057e-005,6.249544e-005
1.680000e-004,7.367795e-005
2.668598e-004,8.502253e-005
3.568061e-004,9.507057e-005
3.986190e-004,1.056048e-004
3.781987e-004,1.188942e-004
3.070520e-004,1.297525e-004
2.096508e-004,1.329939e-004
9.636710e-005,1.258630e-004
-3.441962e-005,1.094944e-004
-1.908126e-004,8.680524e-005
-3.724878e-004,6.233338e-005
-5.564319e-004,5.098881e-005
-7.095836e-004,6.233338e-005
-8.006643e-004,9.215340e-005
-8.082814e-004,1.331559e-004
-7.308142e-004,1.754550e-004
-5.776625e-004,2.060853e-004
-3.587123e-004,2.195368e-004
-8.514606e-005,2.127300e-004
2.171058e-004,1.923098e-004
5.078511e-004,1.650828e-004
7.431700e-004,1.396385e-004
8.919461e-004,1.184080e-004
9.517483e-004,1.018773e-004
9.473725e-004,8.826383e-005
9.225765e-004,7.805372e-005
9.222524e-004,7.140904e-005
9.684410e-004,6.525056e-005
1.066167e-003,6.055066e-005
1.210729e-003,5.844381e-005
1.355940e-003,5.455424e-005
1.423035e-003,4.239934e-005
1.336816e-003,1.808955e-005
1.031323e-003,-1.237873e-005
4.937514e-004,-3.847125e-005
-1.679614e-004,-5.435365e-005
-7.518826e-004,-5.791909e-005
-1.075689e-003,-5.030201e-005
-1.041817e-003,-3.571614e-005
-6.705258e-004,-1.659243e-005
-1.180453e-004,6.096713e-006
3.741471e-004,3.121684e-005
5.896941e-004,5.358185e-005
4.307079e-004,6.897806e-005
-2.728874e-005,7.205730e-005
-5.736108e-004,6.249544e-005
-9.917392e-004,4.742337e-005
-1.157532e-003,3.688912e-005
-1.049597e-003,3.624086e-005
-7.139593e-004,4.855782e-005
-2.263049e-004,7.076077e-005
3.221241e-004,9.101894e-005
8.167477e-004,9.879807e-005
1.156923e-003,9.215340e-005
1.298407e-003,7.935023e-005
1.253838e-003,6.881599e-005
1.079456e-003,5.990240e-005
8.441368e-004,5.050261e-005
6.050903e-004,4.304760e-005
3.843572e-004,3.980630e-005
1.751308e-004,4.045456e-005
-4.122636e-005,4.790957e-005
-2.831898e-004,6.265751e-005
-5.557836e-004,8.210535e-005
-8.329153e-004,1.013911e-004
-1.069693e-003,1.185700e-004
-1.227058e-003,1.291043e-004
-1.280864e-003,1.299146e-004
-1.226410e-003,1.258630e-004
-1.080875e-003,1.242423e-004
-8.774832e-004,1.266733e-004
-6.317922e-004,1.318594e-004
-3.144684e-004,1.381799e-004
1.004187e-004,1.469315e-004
5.660325e-004,1.547106e-004
9.429968e-004,1.524417e-004
1.073622e-003,1.336421e-004
8.742810e-004,1.013911e-004
3.713920e-004,6.589881e-005
-3.092824e-004,3.721326e-005
-9.774775e-004,2.424803e-005
-1.456867e-003,2.910999e-005
-1.656531e-003,4.580272e-005
-1.583116e-003,6.784360e-005
-1.311980e-003,9.134307e-005
-9.497644e-004,1.075496e-004
-5.927345e-004,1.083599e-004
-3.034480e-004,9.069480e-005
-1.057284e-004,5.374392e-005
1.565857e-005,-1.682422e-006
9.652916e-005,-7.250496e-005
1.707551e-004,-1.489998e-004
2.530843e-004,-2.180396e-004
3.433547e-004,-2.702246e-004
4.323286e-004,-3.005308e-004
5.115786e-004,-3.003688e-004
5.741358e-004,-2.606628e-004
6.076833e-004,-1.901644e-004
5.971491e-004,-1.096179e-004
5.504742e-004,-3.814712e-005
5.028270e-004,1.403791e-005
4.832171e-004,4.612685e-005
5.154681e-004,6.379197e-005
6.225933e-004,7.043664e-005
8.151271e-004,7.157111e-005
1.067463e-003,7.416414e-005
1.319151e-003,8.388807e-005
1.488347e-003,9.701536e-005
1.497747e-003,1.046324e-004
1.300675e-003,1.039842e-004
8.917841e-004,9.685329e-005
3.328204e-004,8.372600e-005
-2.616351e-004,6.168512e-005
-7.831612e-004,3.251336e-005
-1.195293e-003,6.744974e-006
-1.550865e-003,-3.627206e-006
-1.933177e-003,6.582909e-006
-2.372050e-003,3.040651e-005
-2.805738e-003,5.277152e-005
-3.101022e-003,6.119892e-005
-3.126466e-003,5.633696e-005
-2.822269e-003,4.288554e-005
-2.215009e-003,2.878586e-005
-1.399009e-003,2.084466e-005
-4.967919e-004,1.841368e-005
3.691231e-004,2.149292e-005
1.106683e-003,2.651694e-005
1.694657e-003,3.040651e-005
2.144066e-003,3.186510e-005
2.460257e-003,3.413401e-005
2.646633e-003,3.688912e-005
2.711783e-003,3.186510e-005
2.673860e-003,1.387585e-005
2.541776e-003,-9.137427e-006
2.317476e-003,-2.113026e-005
2.004527e-003,-1.335112e-005
1.629345e-003,1.744128e-005
1.235363e-003,6.589881e-005
8.640708e-004,1.182459e-004
5.503122e-004,1.577899e-004
3.104554e-004,1.726999e-004
1.386661e-004,1.564933e-004
2.246531e-005,1.211631e-004
-4.689864e-005,8.648111e-005
-7.218083e-005,6.832980e-005
-6.699474e-005,7.173317e-005
-6.099833e-005,9.263960e-005
-9.195280e-005,1.200286e-004
-1.767129e-004,1.432040e-004
-2.969654e-004,1.584381e-004
-4.032802e-004,1.673517e-004
-4.473620e-004,1.715654e-004
-4.204591e-004,1.720516e-004
-3.389403e-004,1.649207e-004
-2.370012e-004,1.488763e-004
-1.504584e-004,1.239182e-004
-1.068628e-004,9.231547e-005
-1.062145e-004,6.071273e-005
-1.222590e-004,2.975825e-005
-1.285796e-004,-5.734055e-006
-1.086455e-004,-5.548810e-005
-5.808115e-005,-1.175591e-004
1.663096e-005,-1.789819e-004
1.033359e-004,-2.209568e-004
1.812893e-004,-2.272773e-004
2.300710e-004,-1.887058e-004
2.422259e-004,-1.157764e-004
2.216436e-004,-3.425755e-005
1.778859e-004,2.603075e-005
1.214872e-004,4.612685e-005
6.395403e-005,2.651694e-005
2.765140e-005,-1.464765e-005
3.510640e-005,-5.095028e-005
9.814982e-005,-5.759496e-005
2.140265e-004,-2.420950e-005
3.687989e-004,3.915804e-005
5.472329e-004,1.104668e-004
7.292324e-004,1.723757e-004
8.870841e-004,2.145127e-004
9.940474e-004,2.300710e-004
1.014630e-003,2.195368e-004
9.034527e-004,1.832341e-004
6.281036e-004,1.323456e-004
2.052750e-004,7.999850e-005
-2.797865e-004,3.186510e-005
-7.105560e-004,-2.080613e-005
-1.023018e-003,-7.639453e-005
-1.230786e-003,-1.258244e-004
-1.380696e-003,-1.613168e-004
-1.508566e-003,-1.746061e-004
-1.609208e-003,-1.616409e-004
-1.625739e-003,-1.209625e-004
-1.494142e-003,-5.889147e-005
-1.193349e-003,1.209313e-005
-7.641996e-004,7.448828e-005
-2.977757e-004,1.120874e-004
1.046324e-004,1.244044e-004
3.697713e-004,1.218114e-004
4.764104e-004,1.197045e-004
4.495075e-004,1.226217e-004
3.482167e-004,1.255388e-004
2.229401e-004,1.271595e-004
1.039842e-004,1.287802e-004
4.962256e-006,1.282940e-004
-7.558420e-005,1.229458e-004
-1.431654e-004,1.120874e-004
-2.016710e-004,9.588090e-005
-2.480217e-004,7.546067e-005
-2.671454e-004,5.909207e-005
-2.332737e-004,4.920609e-005
-1.331174e-004,4.418206e-005
1.938607e-005,3.915804e-005
1.960373e-004,3.575467e-005
3.427064e-004,4.142695e-005
3.780367e-004,5.520250e-005
2.180782e-004,7.189524e-005
-1.702303e-004,8.923622e-005
-7.102318e-004,1.114392e-004
-1.240996e-003,1.344524e-004
-1.610343e-003,1.534141e-004
-1.733674e-003,1.673517e-004
-1.607750e-003,1.749688e-004
-1.289291e-003,1.739964e-004
-8.659766e-004,1.637863e-004
-4.272659e-004,1.402868e-004
-4.268495e-005,1.085220e-004
2.496809e-004,8.210535e-005
4.313562e-004,7.043664e-005
5.159543e-004,7.416414e-005
5.420469e-004,8.956035e-005
5.457744e-004,1.073875e-004
5.438296e-004,1.224596e-004
5.407503e-004,1.336421e-004
5.381573e-004,1.446626e-004
5.319988e-004,1.587622e-004
5.235714e-004,1.688103e-004
5.104441e-004,1.686482e-004
4.981271e-004,1.603829e-004
4.979650e-004,1.454729e-004
5.253541e-004,1.269974e-004
5.872631e-004,1.086841e-004
6.734819e-004,9.182927e-005
7.550008e-004,7.400208e-005
7.953551e-004,5.860587e-005
7.718556e-004,4.466826e-005
6.969814e-004,3.056858e-005
5.973111e-004,1.906194e-005
4.913204e-004,1.193106e-005
3.859779e-004,9.175954e-006
2.809595e-004,1.241726e-005
1.788584e-004,1.873781e-005
9.993253e-005,2.165498e-005
9.134307e-005,1.419998e-005
1.822617e-004,-2.168618e-006
3.423823e-004,-2.161646e-005
4.969927e-004,-3.701266e-005
5.614947e-004,-4.171255e-005
4.979650e-004,-3.928157e-005
3.341170e-004,-3.830918e-005
1.548727e-004,-4.495386e-005
5.163707e-005,-5.759496e-005
6.444023e-005,-7.347736e-005
1.793446e-004,-8.806324e-005
3.548613e-004,-9.616650e-005
5.767288e-004,-9.308726e-005
8.754155e-004,-8.190475e-005
1.273124e-003,-7.380149e-005
1.697898e-003,-7.363942e-005
1.970817e-003,-8.012203e-005
1.897077e-003,-8.676671e-005
1.356426e-003,-8.822530e-005
3.974845e-004,-8.595638e-005
-7.353520e-004,-8.222889e-005
-1.692996e-003,-7.607040e-005
-2.240129e-003,-6.699474e-005
-2.326510e-003,-6.018800e-005
-2.067043e-003,-5.435365e-005
-1.663176e-003,-4.981582e-005
-1.307605e-003,-4.981582e-005
-1.117988e-003,-5.176060e-005
-1.116043e-003,-4.544005e-005
-1.246182e-003,-2.728874e-005
-1.406788e-003,-7.516774e-006
-1.508403e-003,7.717366e-006
-1.498517e-003,1.987226e-005
-1.366920e-003,2.943412e-005
-1.146025e-003,3.235129e-005
-8.893140e-004,2.278944e-005
-6.510781e-004,5.934647e-006
-4.617858e-004,-5.571990e-006
-3.303509e-004,-3.465141e-006
-2.480217e-004,9.824214e-006
-1.951884e-004,2.732727e-005
-1.514308e-004,3.802358e-005
-1.041077e-004,3.737532e-005
-4.138842e-005,2.862379e-005
4.758544e-005,1.825161e-005
1.654069e-004,1.663096e-005
3.096451e-004,3.251336e-005
4.712243e-004,6.168512e-005
6.323173e-004,9.814982e-005
7.734763e-004,1.383420e-004
8.924323e-004,1.783722e-004
9.972887e-004,2.137024e-004
1.092583e-003,2.396328e-004
1.178316e-003,2.560015e-004
1.248490e-003,2.644288e-004
1.303431e-003,2.644288e-004
1.333737e-003,2.524360e-004
1.315910e-003,2.201850e-004
1.231635e-003,1.662173e-004
1.088694e-003,9.960840e-005
9.173904e-004,4.239934e-005
7.564594e-004,1.128280e-005
6.302104e-004,1.436204e-005
5.460985e-004,4.774750e-005
4.965065e-004,9.814982e-005
4.647416e-004,1.440143e-004
4.279528e-004,1.657311e-004
3.765781e-004,1.519555e-004
3.099692e-004,1.114392e-004
2.367157e-004,6.930219e-005
1.645966e-004,4.369587e-005
9.636710e-005,4.450619e-005
3.462021e-005,7.205730e-005
-2.064406e-005,1.140322e-004
-7.704279e-005,1.511452e-004
-1.383035e-004,1.650828e-004
-2.013469e-004,1.493625e-004
-2.580697e-004,1.065772e-004
-2.972895e-004,4.272347e-005
-3.183580e-004,-3.328516e-005
-3.308370e-004,-1.110765e-004
-3.301888e-004,-1.760647e-004
-2.984240e-004,-2.144742e-004
-2.266291e-004,-2.149604e-004
-1.177212e-004,-1.807646e-004
2.052053e-005,-1.269589e-004
1.761032e-004,-7.072224e-005
3.289309e-004,-1.999580e-005
4.718725e-004,2.084466e-005
6.225933e-004,5.001641e-005
8.084824e-004,6.573675e-005
1.050770e-003,7.173317e-005
1.339409e-003,7.578480e-005
1.629831e-003,8.097089e-005
1.824958e-003,8.323980e-005
1.809075e-003,7.999850e-005
1.498233e-003,7.270556e-005
8.878945e-004,6.395403e-005
7.691926e-005,5.779555e-005
-7.282211e-004,5.876794e-005
-1.307929e-003,6.670914e-005
-1.522017e-003,7.302969e-005
-1.335156e-003,6.930219e-005
-8.293498e-004,5.277152e-005
-2.032917e-004,2.278944e-005
2.795009e-004,-1.610623e-005
3.924605e-004,-5.532604e-005
5.131293e-005,-9.065627e-005
-6.047274e-004,-1.185315e-004
-1.286860e-003,-1.311726e-004
-1.736429e-003,-1.237176e-004
-1.832858e-003,-9.665269e-005
-1.605481e-003,-5.727082e-005
-1.191728e-003,-1.578211e-005
-7.640375e-004,2.133085e-005
-4.413656e-004,5.066468e-005
-2.616351e-004,6.784360e-005
-1.968091e-004,7.157111e-005
-1.943781e-004,7.481241e-005
-2.011848e-004,9.069480e-005
-1.836818e-004,1.222975e-004
-1.292278e-004,1.581140e-004
-4.965375e-005,1.874478e-004
2.262737e-005,2.054371e-004
6.346784e-005,2.080301e-004
7.789165e-005,1.940925e-004
9.020861e-005,1.603829e-004
1.184080e-004,1.133840e-004
1.576278e-004,6.687120e-005
1.963614e-004,3.121684e-005
2.410914e-004,6.744974e-006
3.054314e-004,-7.030578e-006
3.884088e-004,-1.221667e-005
4.663623e-004,-1.140634e-005
5.049338e-004,-7.678839e-006
4.856481e-004,-2.330684e-006
4.206599e-004,8.689757e-006
3.506476e-004,2.797553e-005
3.059176e-004,5.034054e-005
2.807975e-004,7.205730e-005
2.253711e-004,9.004655e-005
8.696730e-005,1.065772e-004
-1.451102e-004,1.213252e-004
-4.324520e-004,1.362352e-004
-7.097456e-004,1.521176e-004
-9.324233e-004,1.676758e-004
-1.100161e-003,1.820997e-004
-1.236134e-003,1.950649e-004
-1.334994e-003,1.997648e-004
-1.344880e-003,1.879340e-004
-1.197400e-003,1.611932e-004
-8.411806e-004,1.292664e-004
-2.912931e-004,9.717742e-005
3.495132e-004,7.059870e-005
9.117181e-004,5.406805e-005
1.246708e-003,4.839576e-005
1.286900e-003,5.131293e-005
1.054336e-003,6.119892e-005
6.477135e-004,7.659513e-005
2.013854e-004,9.426025e-005
-1.630995e-004,1.078737e-004
-3.669776e-004,1.090082e-004
-3.971218e-004,9.896014e-005
-2.862691e-004,8.745350e-005
-9.713889e-005,7.902610e-005
1.094944e-004,7.124698e-005
3.004074e-004,6.249544e-005
4.756000e-004,5.325772e-005
6.582477e-004,4.855782e-005
8.765499e-004,5.244739e-005
1.137475e-003,6.152305e-005
1.412339e-003,5.909207e-005
1.643282e-003,3.737532e-005
1.774393e-003,1.072688e-006
1.787197e-003,-3.879538e-005
1.693523e-003,-7.558420e-005
1.522543e-003,-1.086455e-004
1.310561e-003,-1.397621e-004
1.078321e-003,-1.702303e-004
8.280923e-004,-1.932436e-004
5.624671e-004,-1.994021e-004
2.936006e-004,-1.812508e-004
3.526847e-005,-1.399241e-004
-2.191741e-004,-8.465986e-005
-5.089468e-004,-2.664048e-005
-8.849382e-004,3.105477e-005
-1.379561e-003,8.761556e-005
-1.981634e-003,1.360731e-004
-2.596835e-003,1.705930e-004
-3.085949e-003,1.902029e-004
-3.336179e-003,1.940925e-004
-3.289504e-003,1.843686e-004
-2.924046e-003,1.658931e-004
-2.292476e-003,1.454729e-004
-1.529310e-003,1.302387e-004
-8.061745e-004,1.213252e-004
-2.653627e-004,1.116012e-004
3.688912e-005,9.377405e-005
1.363972e-004,6.865393e-005
1.206769e-004,4.369587e-005
8.518459e-005,2.392390e-005
9.847395e-005,5.772582e-006
1.832341e-004,-1.821308e-005
3.245551e-004,-5.321919e-005
4.968306e-004,-1.002181e-004
6.838541e-004,-1.489998e-004
8.815739e-004,-1.820611e-004
1.102307e-003,-1.812508e-004
1.349619e-003,-1.436516e-004
1.609411e-003,-7.623246e-005
1.844568e-003,5.864920e-007
2.009227e-003,6.995045e-005
2.050230e-003,1.177597e-004
1.915229e-003,1.388282e-004
1.585263e-003,1.383420e-004
1.103928e-003,1.248906e-004
5.777012e-004,1.091703e-004
1.355869e-004,9.685329e-005
-1.507825e-004,8.826383e-005
-2.945344e-004,8.178122e-005
-3.585502e-004,7.465034e-005
-4.099249e-004,6.362990e-005
-4.779923e-004,4.531652e-005
-5.410357e-004,2.408596e-005
-5.489769e-004,4.313994e-006
-4.603272e-004,-7.030578e-006
-2.711970e-004,-6.382316e-006
-2.404744e-005,5.772582e-006
2.172678e-004,2.700314e-005
4.039671e-004,5.277152e-005
5.187094e-004,7.481241e-005
5.689497e-004,8.453633e-005
5.684635e-004,8.356393e-005
5.308643e-004,7.918817e-005
4.632831e-004,7.448828e-005
3.683128e-004,6.768153e-005
2.654012e-004,5.520250e-005
1.884202e-004,3.251336e-005
1.532520e-004,1.396819e-006
1.461212e-004,-2.971972e-005
1.453108e-004,-4.819516e-005
1.268354e-004,-4.657451e-005
7.140904e-005,-2.728874e-005
-3.004385e-005,9.106226e-007
-1.814128e-004,2.538249e-005
-3.778360e-004,3.802358e-005
-6.003516e-004,3.445814e-005
-8.149261e-004,1.549650e-005
-9.719673e-004,-1.302699e-005
-1.029014e-003,-4.625038e-005
-9.713190e-004,-8.077029e-005
-8.162226e-004,-1.088076e-004
-5.998655e-004,-1.242038e-004
-3.452609e-004,-1.251762e-004
-6.764300e-005,-1.139937e-004
2.104611e-004,-8.368747e-005
4.574487e-004,-3.668853e-005
6.412309e-004,1.582063e-005
7.399287e-004,6.152305e-005
7.561353e-004,9.409818e-005
7.135121e-004,1.128978e-004
6.447963e-004,1.184080e-004
5.801322e-004,1.117633e-004
5.365366e-004,9.863601e-005
5.200059e-004,9.020861e-005
5.164405e-004,9.247753e-005
5.138475e-004,1.020394e-004
5.025028e-004,1.150046e-004
4.824068e-004,1.282940e-004
4.574487e-004,1.487142e-004
4.350837e-004,1.735102e-004
4.128807e-004,1.994406e-004
3.877606e-004,2.248849e-004
3.619922e-004,2.438465e-004
3.349273e-004,2.487085e-004
3.038107e-004,2.368777e-004
2.654012e-004,2.169437e-004
2.193747e-004,1.955511e-004
1.671896e-004,1.736723e-004
1.140322e-004,1.470936e-004
6.541262e-005,1.145184e-004
2.392390e-005,7.610893e-005
-1.140634e-005,3.364782e-005
-3.620233e-005,-3.789271e-006
-5.046408e-005,-2.469570e-005
-6.148453e-005,-2.518189e-005
-7.250496e-005,-8.813297e-006
-7.574627e-005,1.776542e-005
-6.035006e-005,4.758544e-005
-1.853721e-005,7.837785e-005
3.948217e-005,1.062531e-004
9.442231e-005,1.250527e-004
1.263492e-004,1.281319e-004
1.265113e-004,1.177597e-004
9.766362e-005,1.023635e-004
4.645098e-005,8.761556e-005
-2.955766e-005,7.270556e-005
-1.311726e-004,5.747142e-005
-2.545043e-004,4.256141e-005
-3.917736e-004,3.105477e-005
-5.361738e-004,2.376183e-005
-6.826808e-004,2.327564e-005
-8.254602e-004,2.554455e-005
-9.581918e-004,2.651694e-005
-1.071475e-003,2.473422e-005
-1.145377e-003,2.376183e-005
-1.151536e-003,2.570661e-005
-1.048462e-003,2.878586e-005
-7.755441e-004,2.538249e-005
-2.950206e-004,1.565857e-005
3.462718e-004,3.989864e-006
9.932371e-004,1.002961e-007
1.448479e-003,8.527692e-006
1.560467e-003,2.457216e-005
1.289817e-003,3.478227e-005
7.488423e-004,3.364782e-005
1.320215e-004,2.700314e-005
-3.909633e-004,2.278944e-005
-7.363243e-004,2.100672e-005
-8.988758e-004,1.873781e-005
-9.252925e-004,1.419998e-005
-8.719731e-004,1.274139e-005
-7.742476e-004,1.452411e-005
-6.423265e-004,2.019640e-005
-5.053813e-004,2.765140e-005
-4.068456e-004,3.413401e-005
-3.716775e-004,3.543053e-005
-3.546606e-004,2.862379e-005
-2.462390e-004,1.922400e-005
2.003433e-005,1.533444e-005
3.451374e-004,1.776542e-005
5.352401e-004,2.311357e-005
4.508040e-004,2.846173e-005
7.983643e-005,3.218923e-005
-4.159213e-004,2.522042e-005
-7.786234e-004,2.045080e-006
-8.097399e-004,-2.761287e-005
-4.820439e-004,-5.159854e-005
4.709924e-005,-6.310517e-005
5.141716e-004,-6.731887e-005
6.699165e-004,-7.039811e-005
3.890571e-004,-7.250496e-005
-2.788141e-004,-7.477388e-005
-1.129657e-003,-8.222889e-005
-1.918753e-003,-9.389758e-005
-2.473179e-003,-1.060525e-004
-2.728270e-003,-1.114006e-004
-2.731188e-003,-9.908367e-005
-2.596511e-003,-6.650855e-005
-2.441576e-003,-2.113026e-005
-2.313869e-003,2.457216e-005
-2.164606e-003,6.362990e-005
-1.891850e-003,9.166720e-005
-1.407437e-003,1.085220e-004
-6.956460e-004,1.124116e-004
1.769136e-004,1.007429e-004
1.074918e-003,7.805372e-005
1.877467e-003,5.179913e-005
2.526217e-003,3.299956e-005
3.002692e-003,2.619281e-005
3.293278e-003,2.910999e-005
3.378039e-003,3.899597e-005
3.230234e-003,5.260946e-005
2.855536e-003,6.735740e-005
2.318611e-003,7.724339e-005
1.730312e-003,8.064676e-005
1.208298e-003,7.740545e-005
8.546711e-004,7.432621e-005
7.172396e-004,7.610893e-005
7.762313e-004,8.323980e-005
9.520724e-004,9.847395e-005
1.153520e-003,1.148425e-004
1.303106e-003,1.295905e-004
1.354481e-003,1.425557e-004
1.310237e-003,1.521176e-004
1.206029e-003,1.551968e-004
1.070056e-003,1.553589e-004
9.125284e-004,1.573037e-004
7.415494e-004,1.595726e-004
5.671670e-004,1.631380e-004
4.026706e-004,1.655690e-004
2.595669e-004,1.671896e-004
1.513072e-004,1.645966e-004
8.858796e-005,1.555209e-004
7.108490e-005,1.373696e-004
8.810177e-005,1.153287e-004
1.182459e-004,9.280166e-005
1.457970e-004,6.816773e-005
1.633001e-004,3.543053e-005
1.743205e-004,-8.975361e-006
1.913374e-004,-5.905355e-005
2.224539e-004,-1.026491e-004
2.697770e-004,-1.276072e-004
3.196932e-004,-1.276072e-004
3.467580e-004,-1.076731e-004
3.318480e-004,-7.769105e-005
2.736665e-004,-4.414354e-005
1.895547e-004,-1.059601e-005
1.017153e-004,2.424803e-005
3.024445e-005,6.119892e-005
-1.837515e-005,9.393611e-005
-5.548810e-005,1.148425e-004
-1.024870e-004,1.203528e-004
-1.836818e-004,1.164632e-004
-3.196545e-004,1.085220e-004
-5.170500e-004,9.944633e-005
-7.726270e-004,8.875003e-005
-1.055431e-003,7.546067e-005
-1.296422e-003,5.795762e-005
-1.403709e-003,3.996836e-005
-1.299015e-003,2.343770e-005
-9.466851e-004,1.047248e-005
-4.107352e-004,6.258778e-006
1.513072e-004,1.371378e-005
5.433434e-004,2.765140e-005
6.313449e-004,4.304760e-005
4.169323e-004,5.633696e-005
3.202716e-005,6.881599e-005
-3.467194e-004,8.761556e-005
-5.930586e-004,1.171115e-004
-6.721465e-004,1.503348e-004
-6.201236e-004,1.773998e-004
-5.081365e-004,1.924718e-004
-4.099249e-004,1.963614e-004
-3.791325e-004,1.880961e-004
-4.358554e-004,1.725378e-004
-5.681007e-004,1.553589e-004
-7.385933e-004,1.388282e-004
-8.932035e-004,1.224596e-004
-9.828256e-004,1.030118e-004
-9.787740e-004,7.400208e-005
-8.854244e-004,2.862379e-005
-7.330831e-004,-3.215070e-005
-5.604835e-004,-9.568031e-005
-3.732981e-004,-1.470550e-004
-1.199901e-004,-1.760647e-004
2.686426e-004,-1.853024e-004
7.979481e-004,-1.851403e-004
1.374415e-003,-1.932436e-004
1.848620e-003,-2.160948e-004
2.095446e-003,-2.378116e-004
2.071946e-003,-2.345703e-004
1.825282e-003,-1.921091e-004
1.458689e-003,-1.165867e-004
1.080104e-003,-3.312309e-005
7.639144e-004,3.445814e-005
5.373469e-004,7.675719e-005
3.846813e-004,9.426025e-005
2.527601e-004,9.004655e-005
9.263960e-005,7.610893e-005
-1.193418e-004,6.703327e-005
-3.737843e-004,6.946425e-005
-6.387611e-004,8.145709e-005
-8.705144e-004,9.782569e-005
-1.030311e-003,1.128978e-004
-1.105671e-003,1.216493e-004
-1.110533e-003,1.198666e-004
-1.069368e-003,1.132219e-004
-1.004867e-003,1.062531e-004
-9.212409e-004,1.047945e-004
-7.958023e-004,1.130598e-004
-5.997033e-004,1.261871e-004
-3.228959e-004,1.389903e-004
3.341602e-006,1.466074e-004
3.148312e-004,1.496866e-004
5.566327e-004,1.488763e-004
7.149706e-004,1.457970e-004
8.065376e-004,1.432040e-004
8.447851e-004,1.409351e-004
8.227442e-004,1.368834e-004
7.055708e-004,1.299146e-004
4.555039e-004,1.221355e-004
8.534666e-005,1.161391e-004
-3.344025e-004,1.114392e-004
-7.063423e-004,1.041462e-004
-9.682398e-004,8.891209e-005
-1.124957e-003,7.140904e-005
-1.217982e-003,5.990240e-005
-1.279567e-003,5.779555e-005
-1.322028e-003,6.281957e-005
-1.326566e-003,6.897806e-005
-1.259471e-003,7.238143e-005
-1.094003e-003,6.962632e-005
-8.303222e-004,6.379197e-005
-4.956574e-004,5.309565e-005
-1.357104e-004,3.737532e-005
2.031682e-004,1.727922e-005
4.874308e-004,-6.058186e-006
7.063812e-004,-2.826113e-005
8.794671e-004,-4.689864e-005
1.024678e-003,-6.116039e-005
1.154816e-003,-7.477388e-005
1.271017e-003,-8.174268e-005
1.352212e-003,-7.607040e-005
1.370202e-003,-6.035006e-005
1.301324e-003,-3.895744e-005
1.141851e-003,-1.189254e-005
9.104216e-004,1.906194e-005
6.494962e-004,5.115087e-005
4.062360e-004,8.129502e-005
2.122438e-004,1.015532e-004
7.886404e-005,1.077117e-004
9.824214e-006,1.013911e-004
2.207145e-006,8.680524e-005
4.402000e-005,6.638501e-005
1.164632e-004,4.839576e-005
2.008992e-004,3.526847e-005
2.803112e-004,2.635488e-005
3.423823e-004,2.052053e-005
3.747953e-004,1.468617e-005
3.542131e-004,5.772582e-006
2.522740e-004,-9.623623e-006
5.017848e-005,-3.830918e-005
-2.327876e-004,-8.174268e-005
-5.230465e-004,-1.274451e-004
-7.178489e-004,-1.616409e-004
-7.382691e-004,-1.739578e-004
-5.779866e-004,-1.583996e-004
-2.969654e-004,-1.220969e-004
1.549650e-005,-7.120844e-005
2.851732e-004,-7.030578e-006
4.751138e-004,6.638501e-005
5.828873e-004,1.427178e-004
6.272933e-004,2.120818e-004
6.378275e-004,2.619979e-004
6.373413e-004,2.869559e-004
6.399344e-004,2.914938e-004
6.525755e-004,2.897111e-004
6.708889e-004,2.880904e-004
6.760749e-004,2.827422e-004
6.563029e-004,2.689667e-004
6.021731e-004,2.457913e-004
4.824068e-004,2.171058e-004
2.543808e-004,1.918236e-004
-1.183694e-004,1.710792e-004
-6.533469e-004,1.488763e-004
-1.325918e-003,1.198666e-004
-2.048568e-003,8.226741e-005
-2.670089e-003,4.223728e-005
-3.042678e-003,8.203561e-006
-3.088705e-003,-1.108221e-005
-2.826806e-003,-1.594417e-005
-2.358923e-003,-8.489165e-006
-1.818597e-003,7.069104e-006
-1.312953e-003,2.084466e-005
-8.800763e-004,2.149292e-005
-4.864197e-004,6.744974e-006
-5.694669e-005,-1.707863e-005
4.584211e-004,-4.138842e-005
1.016574e-003,-5.986387e-005
1.479110e-003,-7.169464e-005
1.682502e-003,-7.526008e-005
1.530160e-003,-7.088431e-005
1.067787e-003,-6.407756e-005
4.626348e-004,-6.521203e-005
-8.028410e-005,-7.153257e-005
-4.074939e-004,-7.088431e-005
-4.757234e-004,-5.597430e-005
-3.416954e-004,-3.150244e-005
-1.123730e-004,-2.330684e-006
1.192183e-004,2.311357e-005
2.914938e-004,3.656499e-005
3.905157e-004,3.802358e-005
4.333010e-004,3.283749e-005
4.417284e-004,2.619281e-005
4.334631e-004,1.873781e-005
4.290873e-004,9.500084e-006
4.381629e-004,-2.816880e-006
4.632831e-004,-1.934754e-005
5.044476e-004,-3.522994e-005
5.606844e-004,-4.414354e-005
6.250243e-004,-4.770897e-005
6.867713e-004,-6.067420e-005
7.342565e-004,-9.486997e-005
7.587283e-004,-1.413827e-004
7.653730e-004,-1.780095e-004
7.700729e-004,-1.893540e-004
7.812554e-004,-1.770371e-004
7.943827e-004,-1.515928e-004
7.992446e-004,-1.216107e-004
7.937344e-004,-8.579432e-005
7.799589e-004,-3.992984e-005
7.634282e-004,1.338965e-005
7.468975e-004,6.573675e-005
7.326358e-004,1.075496e-004
7.191843e-004,1.300767e-004
7.045984e-004,1.302387e-004
6.875816e-004,1.130598e-004
6.658648e-004,9.296372e-005
6.378275e-004,8.356393e-005
6.031455e-004,8.972242e-005
5.532294e-004,1.065772e-004
4.710622e-004,1.245665e-004
3.376824e-004,1.357490e-004
1.409351e-004,1.401247e-004
-1.118868e-004,1.370455e-004
-3.937184e-004,1.260251e-004
-6.609640e-004,1.117633e-004
-8.491218e-004,1.009049e-004
-8.914208e-004,9.896014e-005
-7.616066e-004,1.051186e-004
-4.862576e-004,1.166253e-004
-1.289037e-004,1.295905e-004
2.334744e-004,1.453108e-004
5.268127e-004,1.644345e-004
7.047605e-004,1.799928e-004
7.700729e-004,1.851789e-004
7.593766e-004,1.788584e-004
6.956849e-004,1.645966e-004
5.778632e-004,1.456350e-004
4.185530e-004,1.260251e-004
2.678322e-004,1.138701e-004
1.806411e-004,1.117633e-004
1.519555e-004,1.166253e-004
1.119254e-004,1.222975e-004
-3.733679e-005,1.150046e-004
-3.515814e-004,8.615698e-005
-7.959644e-004,4.304760e-005
-1.262550e-003,7.879431e-006
-1.623308e-003,-7.100305e-007
-1.770787e-003,1.679302e-005
-1.650535e-003,5.098881e-005
-1.258175e-003,9.053274e-005
-6.421645e-004,1.247285e-004
9.507057e-005,1.436902e-004
8.065376e-004,1.419075e-004
1.326120e-003,1.201907e-004
1.537453e-003,9.053274e-005
1.407477e-003,6.055066e-005
9.927509e-004,3.137890e-005
4.243874e-004,7.485573e-007
-1.018388e-004,-3.134038e-005
-4.084663e-004,-5.775702e-005
-4.309934e-004,-7.120844e-005
-2.395943e-004,-6.504996e-005
2.003433e-005,-3.798505e-005
2.068957e-004,2.207145e-006
2.548670e-004,4.758544e-005
1.738343e-004,8.372600e-005
3.040651e-005,1.036600e-004
-9.243900e-005,1.036600e-004
-1.374931e-004,8.437427e-005
-1.028112e-004,5.034054e-005
-3.620233e-005,1.209313e-005
-6.382316e-006,-1.967167e-005
-5.889147e-005,-3.749886e-005
-2.060468e-004,-4.171255e-005
-4.159213e-004,-3.636440e-005
-6.202856e-004,-2.226472e-005
-7.411863e-004,5.864920e-007
-7.295177e-004,2.441009e-005
-5.930586e-004,4.402000e-005
-3.927460e-004,5.471631e-005
-2.055606e-004,5.082674e-005
-8.903562e-005,3.316162e-005
-6.018800e-005,5.286386e-006
-9.632856e-005,-2.777494e-005
-1.501342e-004,-5.824321e-005
-1.799543e-004,-7.639453e-005
-1.655304e-004,-7.752898e-005
-1.101041e-004,-5.970180e-005
-3.117831e-005,-2.793700e-005
5.277152e-005,1.128280e-005
1.281319e-004,5.050261e-005
1.843686e-004,8.178122e-005
2.094887e-004,1.018773e-004
1.898788e-004,1.167873e-004
1.033359e-004,1.307249e-004
-6.035006e-005,1.414213e-004
-2.883759e-004,1.417454e-004
-5.467080e-004,1.334801e-004
-7.797579e-004,1.206769e-004
-9.077894e-004,1.022014e-004
-8.779694e-004,7.837785e-005
-6.958080e-004,5.520250e-005
-4.280762e-004,3.429608e-005
-1.658546e-004,1.776542e-005
2.489629e-005,5.772582e-006
1.299146e-004,-2.978945e-006
1.790204e-004,-1.480971e-005
2.148369e-004,-3.134038e-005
2.603772e-004,-4.462973e-005
3.062417e-004,-5.500191e-005
3.274723e-004,-6.197072e-005
3.033245e-004,-6.342930e-005
2.192126e-004,-5.727082e-005
8.194328e-005,-4.284701e-005
-6.683268e-005,-1.934754e-005
-1.703924e-004,1.760335e-005
-1.968091e-004,7.076077e-005
-1.464067e-004,1.242423e-004
-2.907146e-005,1.663793e-004
1.914994e-004,1.936063e-004
5.861287e-004,2.106232e-004
1.176857e-003,2.216436e-004
1.828523e-003,2.269918e-004
2.281012e-003,2.242366e-004
2.272260e-003,2.167816e-004
1.664837e-003,2.073818e-004
5.378331e-004,2.020337e-004
-8.205983e-004,2.028440e-004
-2.027499e-003,2.062474e-004
-2.840420e-003,2.086784e-004
-3.176382e-003,2.083542e-004
-3.103777e-003,2.030061e-004
-2.756794e-003,1.882581e-004
-2.279997e-003,1.605450e-004
-1.775001e-003,1.218114e-004
-1.276812e-003,7.643306e-005
-7.624169e-004,3.121684e-005
-1.724992e-004,-1.059601e-005
5.321608e-004,-5.727082e-005
1.297434e-003,-1.250141e-004
1.978272e-003,-2.099363e-004
2.385868e-003,-2.898345e-004
2.382627e-003,-3.395886e-004
1.973248e-003,-3.397506e-004
1.322878e-003,-2.869173e-004
6.637580e-004,-1.979435e-004
1.923098e-004,-1.007043e-004
-1.788895e-005,-1.675450e-005
-1.837515e-005,4.758544e-005
7.092283e-005,8.939829e-005
1.289422e-004,1.111150e-004
8.939829e-005,1.185700e-004
-4.057810e-005,1.172735e-004
-2.016710e-004,1.054428e-004
-3.178718e-004,8.405013e-005
-3.219235e-004,5.828174e-005
-1.997262e-004,3.575467e-005
9.338019e-006,2.278944e-005
2.368777e-004,1.987226e-005
4.255218e-004,1.906194e-005
5.392918e-004,1.452411e-005
5.793219e-004,9.500084e-006
5.704083e-004,1.209313e-005
5.365366e-004,1.954813e-005
5.031511e-004,3.154097e-005
4.932652e-004,4.353380e-005
5.117406e-004,5.179913e-005
5.407503e-004,5.617490e-005
5.624671e-004,6.087479e-005
5.705704e-004,7.497447e-005
5.694359e-004,9.863601e-005
5.819149e-004,1.197045e-004
6.420412e-004,1.242423e-004
7.616455e-004,1.138701e-004
9.138250e-004,1.013911e-004
1.026136e-003,9.928427e-005
1.014306e-003,1.085220e-004
8.452713e-004,1.213252e-004
5.644119e-004,1.325077e-004
2.566497e-004,1.409351e-004
-7.100305e-007,1.459591e-004
-1.538618e-004,1.441764e-004
-2.028055e-004,1.305629e-004
-1.833576e-004,1.052807e-004
-1.441378e-004,7.691926e-005
-1.337657e-004,5.147500e-005
-1.887058e-004,2.700314e-005
-3.160891e-004,2.369210e-006
-4.906334e-004,-1.918548e-005
-6.629088e-004,-3.198863e-005
-7.646858e-004,-3.620233e-005
-7.300038e-004,-3.458168e-005
-5.005194e-004,-2.939559e-005
-4.884343e-005,-2.615428e-005
5.699221e-004,-2.420950e-005
1.197116e-003,-2.242678e-005
1.639555e-003,-1.788895e-005
1.748787e-003,-1.043395e-005
1.474248e-003,-2.654814e-006
8.823843e-004,5.286386e-006
1.137081e-004,1.646889e-005
-6.821946e-004,2.910999e-005
-1.389772e-003,3.672705e-005
-1.940794e-003,3.786152e-005
-2.296852e-003,3.267542e-005
-2.432501e-003,2.133085e-005
-2.349685e-003,4.962256e-006
-2.089084e-003,-1.010982e-005
-1.708068e-003,-1.902341e-005
-1.265143e-003,-1.853721e-005
-8.178432e-004,-7.840905e-006
-4.165696e-004,7.069104e-006
-1.031353e-004,2.003433e-005
1.226217e-004,2.927205e-005
3.167760e-004,3.721326e-005
5.574430e-004,4.483032e-005
8.791430e-004,5.536457e-005
1.243953e-003,6.687120e-005
1.573594e-003,7.221937e-005
1.787845e-003,6.573675e-005
1.843109e-003,4.888196e-005
1.742791e-003,3.607880e-005
1.527405e-003,4.175108e-005
1.241359e-003,6.281957e-005
9.248454e-004,8.729143e-005
5.995801e-004,1.018773e-004
2.645909e-004,1.073875e-004
-9.211487e-005,1.086841e-004
-4.741028e-004,1.130598e-004
-8.581975e-004,1.190562e-004
-1.204693e-003,1.174356e-004
-1.470966e-003,1.010670e-004
-1.623794e-003,6.411610e-005
-1.649562e-003,6.258778e-006
-1.556861e-003,-6.164659e-005
-1.375672e-003,-1.135075e-004
-1.138895e-003,-1.266348e-004
-8.750523e-004,-9.470791e-005
-6.116962e-004,-3.231276e-005
-3.668155e-004,3.316162e-005
-1.358725e-004,8.113296e-005
1.075496e-004,1.031738e-004
3.877606e-004,1.077117e-004
6.977917e-004,1.039842e-004
9.877268e-004,9.717742e-005
1.191929e-003,9.085687e-005
1.272314e-003,8.421220e-005
1.238928e-003,7.902610e-005
1.135044e-003,7.691926e-005
1.006688e-003,7.886404e-005
8.887048e-004,8.323980e-005
8.195028e-004,8.712937e-005
8.222580e-004,8.907416e-005
8.900014e-004,8.453633e-005
9.912923e-004,7.351588e-005
1.088856e-003,6.038860e-005
1.150279e-003,5.001641e-005
1.141041e-003,4.483032e-005
1.030674e-003,4.742337e-005
8.164236e-004,6.006446e-005
5.321608e-004,7.724339e-005
2.329882e-004,8.826383e-005
-3.652646e-005,8.340186e-005
-2.556388e-004,6.233338e-005
-4.181902e-004,3.607880e-005
-5.353634e-004,1.938607e-005
-6.261200e-004,1.954813e-005
-7.207661e-004,3.299956e-005
-8.374531e-004,4.774750e-005
-9.745603e-004,5.390598e-005
-1.105023e-003,5.082674e-005
-1.180059e-003,4.612685e-005
-1.150887e-003,5.017848e-005
-1.001463e-003,6.460230e-005
-7.629031e-004,8.453633e-005
-4.830163e-004,1.044704e-004
-2.053985e-004,1.198666e-004
3.737532e-005,1.235941e-004
2.337985e-004,1.177597e-004
3.867882e-004,1.023635e-004
4.992615e-004,8.080882e-005
5.736496e-004,6.006446e-005
6.130315e-004,4.726130e-005
6.206486e-004,3.996836e-005
6.062247e-004,3.089270e-005
5.874252e-004,1.452411e-005
5.882355e-004,-7.030578e-006
6.319931e-004,-3.150244e-005
7.336082e-004,-6.521203e-005
8.878945e-004,-1.115627e-004
1.044288e-003,-1.721751e-004
1.108952e-003,-2.408908e-004
9.611481e-004,-3.039342e-004
5.097958e-004,-3.470436e-004
-2.470493e-004,-3.595226e-004
-1.210203e-003,-3.405610e-004
-2.214847e-003,-2.980999e-004
-3.057102e-003,-2.452666e-004
-3.550916e-003,-1.994021e-004
-3.591595e-003,-1.686097e-004
-3.171358e-003,-1.522411e-004
-2.377074e-003,-1.421931e-004
-1.384261e-003,-1.337657e-004
-4.382863e-004,-1.280934e-004
2.216436e-004,-1.172350e-004
4.733311e-004,-9.616650e-005
3.676645e-004,-6.132245e-005
8.097089e-005,-1.270286e-005
-1.997262e-004,5.115087e-005
-3.603329e-004,1.339663e-004
-3.632501e-004,2.438465e-004
-2.267911e-004,3.854917e-004
-4.599598e-006,5.516087e-004
2.388225e-004,7.151327e-004
4.548556e-004,8.395989e-004
6.175693e-004,9.015080e-004
7.190223e-004,8.921082e-004
7.726659e-004,8.130202e-004
8.079962e-004,6.807748e-004
8.600192e-004,5.253541e-004
9.549896e-004,3.814400e-004
1.087073e-003,2.744769e-004
1.224018e-003,2.135403e-004
1.321744e-003,1.884202e-004
1.348161e-003,1.780480e-004
1.292896e-003,1.581140e-004
1.167620e-003,1.179218e-004
1.006202e-003,6.768153e-005
8.528883e-004,2.246531e-005
7.457631e-004,-7.354708e-006
7.086501e-004,-2.113026e-005
7.326358e-004,-2.372330e-005
7.694246e-004,-9.785687e-006
7.498147e-004,1.841368e-005
6.209727e-004,5.147500e-005
3.788470e-004,7.627100e-005
7.967437e-005,8.129502e-005
-1.890299e-004,6.395403e-005
-3.538503e-004,2.667901e-005
-3.920977e-004,-1.869928e-005
-3.230579e-004,-5.613637e-005
-1.865989e-004,-7.607040e-005
-2.145439e-005,-7.428768e-005
1.415833e-004,-5.694669e-005
2.869559e-004,-3.976777e-005
4.175806e-004,-3.117831e-005
5.337815e-004,-3.150244e-005
6.203245e-004,-3.976777e-005
6.436618e-004,-5.597430e-005
5.742979e-004,-7.704279e-005
4.125566e-004,-9.827335e-005
1.926339e-004,-1.167488e-004
-4.300908e-005,-1.263107e-004
-2.658489e-004,-1.206384e-004
-4.656753e-004,-1.011905e-004
-6.366542e-004,-7.412562e-005
-7.687375e-004,-4.430560e-005
-8.533355e-004,-2.161646e-005
-8.776453e-004,-1.221667e-005
-8.298360e-004,-1.335112e-005
-7.194696e-004,-1.318906e-005
-5.804176e-004,-9.785687e-006
-4.523860e-004,-7.678839e-006
-3.506090e-004,-1.237873e-005
-2.538560e-004,-2.145439e-005
-1.157764e-004,-3.506787e-005
8.583285e-005,-5.095028e-005
3.261757e-004,-6.051213e-005
5.507984e-004,-6.002593e-005
6.995744e-004,-5.062615e-005
7.468975e-004,-3.992984e-005
7.164293e-004,-3.393342e-005
6.431757e-004,-3.344722e-005
5.509604e-004,-3.506787e-005
4.352457e-004,-3.117831e-005
2.713976e-004,-2.177852e-005
3.154097e-005,-1.480971e-005
-2.946965e-004,-2.291298e-005
-6.948357e-004,-4.803310e-005
-1.126578e-003,-8.012203e-005
-1.508890e-003,-1.075111e-004
-1.744371e-003,-1.188556e-004
-1.767060e-003,-1.041077e-004
-1.577119e-003,-6.278104e-005
-1.236458e-003,-4.437533e-006
-8.423151e-004,5.633696e-005
-4.807474e-004,1.043083e-004
-1.929195e-004,1.354248e-004
1.889987e-005,1.540623e-004
1.704310e-004,1.665414e-004
2.744769e-004,1.697827e-004
3.388168e-004,1.547106e-004
3.668542e-004,1.177597e-004
3.649094e-004,6.995045e-005
3.401134e-004,2.359977e-005
3.036486e-004,-8.975361e-006
2.673460e-004,-2.728874e-005
2.370398e-004,-4.187462e-005
2.115955e-004,-6.537409e-005
1.859892e-004,-1.096179e-004
1.432040e-004,-1.765509e-004
6.687120e-005,-2.527216e-004
-4.997788e-005,-3.149546e-004
-1.950263e-004,-3.402368e-004
-3.235441e-004,-3.143064e-004
-3.791325e-004,-2.425115e-004
-3.105789e-004,-1.426792e-004
-8.125648e-005,-4.236081e-005
3.248792e-004,4.110282e-005
8.527263e-004,1.000946e-004
1.352698e-003,1.399627e-004
1.641662e-003,1.657311e-004
1.592394e-003,1.808031e-004
1.202950e-003,1.838824e-004
6.167590e-004,1.786963e-004
4.645098e-005,1.691344e-004
-3.431540e-004,1.597346e-004
-4.882024e-004,1.550348e-004
-4.224039e-004,1.535762e-004
-2.335979e-004,1.555209e-004
-1.335112e-005,1.590864e-004
1.770756e-004,1.584381e-004
3.135346e-004,1.462832e-004
4.023465e-004,1.276457e-004
4.647416e-004,1.153287e-004
5.131992e-004,1.135460e-004
5.422089e-004,1.150046e-004
5.467467e-004,1.127357e-004
5.305402e-004,1.099806e-004
5.021787e-004,1.112771e-004
4.696036e-004,1.161391e-004
4.423766e-004,1.213252e-004
4.298976e-004,1.260251e-004
4.375147e-004,1.351007e-004
4.655520e-004,1.514693e-004
5.002340e-004,1.759412e-004
5.185474e-004,1.983062e-004
4.922927e-004,2.059233e-004
3.895433e-004,1.958752e-004
1.937684e-004,1.726999e-004
-7.428768e-005,1.398006e-004
-3.575778e-004,1.036600e-004
-5.943552e-004,6.865393e-005
-7.293556e-004,3.786152e-005
-7.249798e-004,1.582063e-005
-5.831727e-004,5.124321e-006
-3.608191e-004,8.203561e-006
-1.352242e-004,2.748933e-005
3.251336e-005,5.893001e-005
1.146805e-004,9.182927e-005
1.145184e-004,1.153287e-004
5.520250e-005,1.213252e-004
-4.706071e-005,1.083599e-004
-1.831956e-004,8.080882e-005
-3.418575e-004,4.612685e-005
-5.084606e-004,1.533444e-005
-6.507539e-004,-6.176923e-008
-7.006700e-004,2.693341e-006
-5.854416e-004,2.133085e-005
-2.875656e-004,4.466826e-005
1.300767e-004,5.990240e-005
5.538776e-004,6.395403e-005
8.655294e-004,6.508849e-005
9.750857e-004,6.849186e-005
8.410575e-004,7.367795e-005
4.841895e-004,7.319175e-005
-1.156841e-005,6.022653e-005
-5.047331e-004,4.045456e-005
-8.596560e-004,2.505835e-005
-1.001949e-003,2.149292e-005
-9.262649e-004,3.332369e-005
-6.807360e-004,5.649903e-005
-3.368334e-004,7.983643e-005
3.040651e-005,9.977046e-005
3.585888e-004,1.150046e-004
6.065489e-004,1.252147e-004
7.540284e-004,1.282940e-004
7.958413e-004,1.294284e-004
7.371736e-004,1.342904e-004
6.047661e-004,1.449867e-004
4.355699e-004,1.561692e-004
2.683184e-004,1.636242e-004
1.297525e-004,1.707551e-004
2.878586e-005,1.786963e-004
-3.960571e-005,1.858272e-004
-8.401160e-005,1.864754e-004
-1.102662e-004,1.809652e-004
-1.245279e-004,1.699447e-004
-1.285796e-004,1.493625e-004
-1.269589e-004,1.211631e-004
-1.230693e-004,8.956035e-005
-1.151281e-004,5.617490e-005
-1.021629e-004,2.376183e-005
-8.806324e-005,-3.465141e-006
-6.974985e-005,-2.890940e-005
-4.057810e-005,-5.727082e-005
1.720949e-006,-8.903562e-005
5.390598e-005,-1.161005e-004
1.088461e-004,-1.311726e-004
1.564933e-004,-1.316588e-004
1.845306e-004,-1.182074e-004
1.833962e-004,-9.389758e-005
1.490383e-004,-6.861539e-005
8.988448e-005,-5.629843e-005
1.922400e-005,-6.164659e-005
-4.673658e-005,-7.914964e-005
-9.227693e-005,-9.486997e-005
-1.084835e-004,-9.600443e-005
-9.146661e-005,-7.833932e-005
-4.462973e-005,-5.078821e-005
1.501031e-005,-2.453363e-005
7.384001e-005,-6.706447e-006
1.159770e-004,5.864920e-007
1.274836e-004,4.313994e-006
9.717742e-005,9.338019e-006
2.586868e-005,1.533444e-005
-6.553616e-005,1.971020e-005
-1.439758e-004,2.295151e-005
-1.849783e-004,2.748933e-005
-1.864369e-004,3.656499e-005
-1.603444e-004,5.341978e-005
-1.230693e-004,7.772959e-005
-8.709084e-005,9.717742e-005
-6.391550e-005,1.023635e-004
-6.310517e-005,9.085687e-005
-9.357345e-005,6.962632e-005
-1.554824e-004,5.034054e-005
-2.125294e-004,3.899597e-005
-2.115570e-004,3.332369e-005
-1.264727e-004,2.619281e-005
2.878586e-005,1.014835e-005
2.111093e-004,-1.805102e-005
3.751195e-004,-5.419158e-005
4.861343e-004,-9.000801e-005
5.342677e-004,-1.183694e-004
5.358884e-004,-1.331174e-004
5.094717e-004,-1.264727e-004
4.423766e-004,-9.924574e-005
3.047831e-004,-5.127441e-005
7.870197e-005,1.079661e-005
-2.182017e-004,7.319175e-005
-5.219121e-004,1.227837e-004
-7.408622e-004,1.532520e-004
-8.081193e-004,1.634621e-004
-7.186593e-004,1.530900e-004
-5.279084e-004,1.253768e-004
-3.110651e-004,8.923622e-005
-1.381414e-004,5.666109e-005
-1.756482e-005,3.510640e-005
9.977046e-005,2.586868e-005
2.548670e-004,3.121684e-005
4.608521e-004,4.888196e-005
7.024916e-004,7.059870e-005
9.211179e-004,8.307774e-005
1.025002e-003,8.242948e-005
9.297074e-004,7.578480e-005
6.125453e-004,6.735740e-005
1.380179e-004,5.536457e-005
-3.763774e-004,4.450619e-005
-8.196259e-004,3.656499e-005
-1.127712e-003,3.559260e-005
-1.299339e-003,3.737532e-005
-1.386530e-003,3.656499e-005
-1.439364e-003,3.380988e-005
-1.458163e-003,3.170303e-005
-1.407437e-003,3.251336e-005
-1.237754e-003,3.705119e-005
-9.314510e-004,4.758544e-005
-5.246671e-004,6.395403e-005
-9.179074e-005,8.178122e-005
2.919800e-004,9.555677e-005
5.926113e-004,9.782569e-005
8.374921e-004,8.680524e-005
1.062115e-003,6.816773e-005
1.265993e-003,4.985435e-005
1.419956e-003,3.591673e-005
1.500826e-003,2.538249e-005
1.501961e-003,1.744128e-005
1.437297e-003,1.403791e-005
1.325958e-003,1.922400e-005
1.177668e-003,3.332369e-005
9.875648e-004,5.601283e-005
7.428459e-004,8.567078e-005
4.388112e-004,1.175977e-004
8.842590e-005,1.432040e-004
-2.854588e-004,1.568175e-004
-6.556159e-004,1.556830e-004
-9.915772e-004,1.402868e-004
-1.258175e-003,1.153287e-004
-1.433691e-003,9.004655e-005
-1.501435e-003,7.011251e-005
-1.437581e-003,5.795762e-005
-1.168390e-003,5.325772e-005
-5.909518e-004,5.504044e-005
2.923041e-004,6.314371e-005
1.257242e-003,7.918817e-005
1.952666e-003,9.847395e-005
2.090908e-003,1.164632e-004
1.588504e-003,1.368834e-004
6.313449e-004,1.668655e-004
-4.353692e-004,2.028440e-004
-1.276002e-003,2.300710e-004
-1.729299e-003,2.318537e-004
-1.795259e-003,1.955511e-004
-1.575661e-003,1.198666e-004
-1.207772e-003,1.938607e-005
-7.987195e-004,-7.979790e-005
-4.071698e-004,-1.489998e-004
-4.868136e-005,-1.750923e-004
2.910076e-004,-1.554824e-004
6.177314e-004,-1.031353e-004
9.151215e-004,-4.236081e-005
1.160165e-003,1.234753e-006
1.329685e-003,1.209313e-005
1.416552e-003,-1.578211e-005
1.434380e-003,-7.736692e-005
1.400832e-003,-1.498101e-004
1.322230e-003,-2.045882e-004
1.186581e-003,-2.214430e-004
9.689272e-004,-2.018331e-004
6.610029e-004,-1.609926e-004
2.934386e-004,-1.117248e-004
-7.282909e-005,-6.634648e-005
-3.770256e-004,-3.053005e-005
-5.967862e-004,-5.247859e-006
-7.500999e-004,9.986280e-006
-8.599802e-004,1.808955e-005
-9.387439e-004,2.359977e-005
-9.771533e-004,2.441009e-005
-9.588400e-004,1.695509e-005
-8.760247e-004,2.855406e-006
-7.403760e-004,-1.335112e-005
-5.758798e-004,-2.599222e-005
-4.002010e-004,-3.101624e-005
-2.191741e-004,-2.615428e-005
-3.441962e-005,-8.002969e-006
1.519555e-004,2.392390e-005
3.328204e-004,6.022653e-005
4.971547e-004,9.263960e-005
6.328034e-004,1.140322e-004
7.212912e-004,1.188942e-004
7.522457e-004,1.088461e-004
7.326358e-004,9.020861e-005
6.840162e-004,6.995045e-005
6.340999e-004,5.536457e-005
6.008766e-004,4.871989e-005
5.869390e-004,5.828174e-005
5.819149e-004,8.161915e-005
5.807804e-004,1.096565e-004
5.785116e-004,1.291043e-004
5.694359e-004,1.328318e-004
5.451261e-004,1.248906e-004
5.031511e-004,1.150046e-004
4.467524e-004,1.075496e-004
3.833848e-004,9.993253e-005
3.188828e-004,8.939829e-005
2.525981e-004,8.242948e-005
1.833962e-004,8.323980e-005
1.086841e-004,9.328785e-005
4.953022e-005,1.075496e-004
6.784360e-005,1.188942e-004
2.360674e-004,1.206769e-004
5.645739e-004,1.138701e-004
9.792994e-004,1.004187e-004
1.358695e-003,8.178122e-005
1.588504e-003,6.281957e-005
1.613138e-003,4.871989e-005
1.442159e-003,4.175108e-005
1.136341e-003,3.818564e-005
7.678040e-004,3.121684e-005
4.021844e-004,2.019640e-005
8.080882e-005,1.549650e-005
-1.806025e-004,2.181705e-005
-3.861013e-004,3.867184e-005
-5.606457e-004,6.087479e-005
-7.351899e-004,8.259154e-005
-9.312889e-004,1.043083e-004
-1.156884e-003,1.258630e-004
-1.385234e-003,1.432040e-004
-1.570474e-003,1.543865e-004
-1.671441e-003,1.621656e-004
-1.674358e-003,1.759412e-004
-1.594784e-003,2.062474e-004
-1.469670e-003,2.545429e-004
-1.312791e-003,3.072141e-004
-1.110695e-003,3.444891e-004
-8.509045e-004,3.446512e-004
-5.564319e-004,2.947351e-004
-2.896725e-004,2.010613e-004
-1.161005e-004,9.960840e-005
-6.423963e-005,3.316162e-005
-1.167488e-004,3.008238e-005
-2.254946e-004,9.798775e-005
-3.348887e-004,2.162954e-004
-4.013354e-004,3.399513e-004
-4.040906e-004,4.172565e-004
-3.486642e-004,4.230909e-004
-2.588801e-004,3.634508e-004
-1.648822e-004,2.649151e-004
-8.303921e-005,1.581140e-004
-1.643037e-005,5.974033e-005
4.126489e-005,-1.950961e-005
8.405013e-005,-7.137050e-005
1.046324e-004,-9.292519e-005
1.044704e-004,-9.179074e-005
9.004655e-005,-8.141856e-005
7.367795e-005,-7.444974e-005
6.217131e-005,-8.222889e-005
4.953022e-005,-1.105903e-004
2.554455e-005,-1.582375e-004
-1.367526e-005,-2.099363e-004
-6.067420e-005,-2.489941e-004
-1.005423e-004,-2.648765e-004
-1.214487e-004,-2.582318e-004
-1.167488e-004,-2.311669e-004
-8.822530e-005,-1.921091e-004
-3.911951e-005,-1.507825e-004
2.927205e-005,-1.154523e-004
1.070634e-004,-9.114247e-005
1.814514e-004,-8.077029e-005
2.441707e-004,-8.595638e-005
2.890628e-004,-1.086455e-004
3.159656e-004,-1.428413e-004
3.326584e-004,-1.768750e-004
3.527545e-004,-1.964849e-004
3.898674e-004,-1.942160e-004
4.443214e-004,-1.768750e-004
5.073649e-004,-1.566169e-004
5.663566e-004,-1.405724e-004
6.104385e-004,-1.339277e-004
6.373413e-004,-1.396000e-004
6.637580e-004,-1.553203e-004
7.028157e-004,-1.739578e-004
7.443045e-004,-1.831956e-004
7.431700e-004,-1.692580e-004
6.355586e-004,-1.212866e-004
4.088291e-004,-3.377135e-005
1.370455e-004,1.052807e-004
-7.072224e-005,2.970040e-004
-1.256624e-004,5.143337e-004
9.986280e-006,7.105949e-004
2.947351e-004,8.410575e-004
6.234036e-004,8.744430e-004
8.715259e-004,8.107513e-004
9.376486e-004,6.812610e-004
7.532181e-004,5.255162e-004
2.940868e-004,3.799814e-004
-4.036044e-004,2.585945e-004
-1.226896e-003,1.576278e-004
-2.008375e-003,7.351588e-005
-2.562477e-003,9.662150e-006
-2.735725e-003,-3.474375e-005
-2.490520e-003,-6.180866e-005
-1.938201e-003,-6.974985e-005
-1.282484e-003,-6.067420e-005
-7.102318e-004,-4.300908e-005
-3.010170e-004,-3.036798e-005
-5.409925e-006,-3.425755e-005
3.059176e-004,-6.051213e-005
7.355530e-004,-1.096179e-004
1.255135e-003,-1.718510e-004
1.717346e-003,-2.358668e-004
1.943266e-003,-2.921034e-004
1.831279e-003,-3.319715e-004
1.430328e-003,-3.455850e-004
9.152836e-004,-3.332680e-004
4.888894e-004,-3.037722e-004
2.748010e-004,-2.674695e-004
2.793389e-004,-2.347323e-004
4.287631e-004,-2.105846e-004
6.224313e-004,-1.971332e-004
7.671557e-004,-1.864369e-004
8.000550e-004,-1.705545e-004
6.927677e-004,-1.496480e-004
4.373526e-004,-1.258244e-004
4.645098e-005,-1.034594e-004
-4.091146e-004,-8.595638e-005
-8.299981e-004,-7.590833e-005
-1.139867e-003,-7.412562e-005
-1.302094e-003,-7.558420e-005
-1.311008e-003,-7.347736e-005
-1.198048e-003,-6.553616e-005
-1.021559e-003,-4.884343e-005
-8.337256e-004,-1.724069e-005
-6.573986e-004,3.510640e-005
-4.878783e-004,1.107909e-004
-3.157650e-004,2.020337e-004
-1.376552e-004,2.913317e-004
3.818564e-005,3.589129e-004
2.017096e-004,3.926225e-004
3.341170e-004,3.877606e-004
4.140152e-004,3.477304e-004
4.324906e-004,2.825802e-004
4.055878e-004,2.125679e-004
3.597233e-004,1.564933e-004
3.180725e-004,1.237561e-004
2.924662e-004,1.138701e-004
2.801492e-004,1.193804e-004
2.670219e-004,1.315353e-004
2.482223e-004,1.423936e-004
2.256952e-004,1.440143e-004
2.033302e-004,1.339663e-004
1.798307e-004,1.200286e-004
1.573037e-004,1.069013e-004
1.381799e-004,9.377405e-005
1.278078e-004,8.129502e-005
1.344524e-004,6.962632e-005
1.712413e-004,5.893001e-005
2.370398e-004,5.098881e-005
3.180725e-004,4.596478e-005
3.978086e-004,4.304760e-005
4.558280e-004,4.612685e-005
4.790034e-004,5.747142e-005
4.738173e-004,6.865393e-005
4.512902e-004,7.481241e-005
4.276287e-004,7.286762e-005
4.190392e-004,6.508849e-005
4.251977e-004,5.341978e-005
4.357320e-004,4.402000e-005
4.373526e-004,4.175108e-005
4.243874e-004,4.709924e-005
4.042912e-004,5.390598e-005
3.819262e-004,5.649903e-005
3.602095e-004,5.293359e-005
3.386548e-004,5.179913e-005
3.193690e-004,5.212327e-005
3.128864e-004,4.774750e-005
3.245551e-004,3.964423e-005
3.443271e-004,3.154097e-005
3.499994e-004,2.732727e-005
3.239068e-004,2.052053e-005
2.665357e-004,9.824214e-006
1.861513e-004,5.864920e-007
9.490851e-005,-1.682422e-006
6.258778e-006,5.610517e-006
-7.509801e-005,2.116879e-005
-1.489998e-004,3.948217e-005
-2.250084e-004,5.763348e-005
-3.105789e-004,6.978838e-005
-3.955011e-004,7.740545e-005
-4.441207e-004,8.291567e-005
-4.130041e-004,8.712937e-005
-2.737901e-004,9.150514e-005
-3.441962e-005,1.007429e-004
2.710735e-004,1.171115e-004
6.060626e-004,1.388282e-004
9.512621e-004,1.598967e-004
1.290952e-003,1.714033e-004
1.607304e-003,1.621656e-004
1.869040e-003,1.284560e-004
2.003554e-003,7.983643e-005
1.873902e-003,3.575467e-005
1.354967e-003,1.387585e-005
4.653899e-004,1.971020e-005
-6.168823e-004,4.969228e-005
-1.661069e-003,9.361198e-005
-2.508833e-003,1.401247e-004
-3.064881e-003,1.773998e-004
-3.301497e-003,1.974959e-004
-3.252067e-003,1.936063e-004
-2.986603e-003,1.660552e-004
-2.577063e-003,1.240803e-004
-2.084060e-003,8.372600e-005
-1.559454e-003,5.455424e-005
-1.057214e-003,3.526847e-005
-6.269303e-004,1.938607e-005
-3.023136e-004,3.989864e-006
-9.324932e-005,-7.840905e-006
1.306552e-005,-7.840905e-006
4.758544e-005,1.072688e-006
8.259154e-005,9.338019e-006
2.218057e-004,6.582909e-006
5.243817e-004,-1.983374e-005
9.515862e-004,-7.752898e-005
1.389487e-003,-1.606685e-004
1.713295e-003,-2.485079e-004
1.840030e-003,-3.128478e-004
1.759970e-003,-3.267854e-004
1.521409e-003,-2.841623e-004
1.198412e-003,-2.029675e-004
8.614778e-004,-1.123730e-004
5.507984e-004,-3.150244e-005
2.830664e-004,2.878586e-005
6.589881e-005,6.362990e-005
-1.002181e-004,7.740545e-005
-2.300324e-004,7.983643e-005
-3.415334e-004,7.805372e-005
-4.366657e-004,7.481241e-005
-4.935506e-004,7.189524e-005
-4.818819e-004,6.460230e-005
-3.582261e-004,5.277152e-005
-6.877746e-005,3.818564e-005
4.093153e-004,2.376183e-005
9.864303e-004,1.371378e-005
1.478623e-003,9.338019e-006
1.697088e-003,1.112074e-005
1.542802e-003,2.084466e-005
1.067949e-003,3.996836e-005
4.548556e-004,6.362990e-005
-9.551824e-005,8.777764e-005
-4.569239e-004,1.104668e-004
-6.103996e-004,1.265113e-004
-6.094273e-004,1.304008e-004
-5.352014e-004,1.248906e-004
-4.656753e-004,1.174356e-004
-4.405552e-004,1.143563e-004
-4.590307e-004,1.161391e-004
-4.969540e-004,1.161391e-004
-5.287188e-004,1.132219e-004
-5.314739e-004,1.069013e-004
-4.946851e-004,9.604297e-005
-4.238625e-004,8.242948e-005
-3.379679e-004,7.027457e-005
-2.480217e-004,6.670914e-005
-1.410586e-004,7.108490e-005
9.986280e-006,7.643306e-005
2.250470e-004,7.513654e-005
4.814344e-004,6.525056e-005
7.057329e-004,5.277152e-005
8.070238e-004,4.580272e-005
7.136741e-004,4.531652e-005
4.175806e-004,4.839576e-005
-1.302699e-005,5.131293e-005
-4.603272e-004,5.893001e-005
-8.045539e-004,7.319175e-005
-9.669433e-004,8.761556e-005
-9.277235e-004,9.782569e-005
-7.219006e-004,9.993253e-005
-4.212695e-004,9.458438e-005
-1.102662e-004,8.648111e-005
1.448246e-004,8.372600e-005
3.059176e-004,9.069480e-005
3.692851e-004,1.005808e-004
3.692851e-004,1.070634e-004
3.480546e-004,1.085220e-004
3.300653e-004,1.073875e-004
3.281205e-004,1.094944e-004
3.380065e-004,1.137081e-004
3.555096e-004,1.171115e-004
3.882468e-004,1.184080e-004
4.511281e-004,1.111150e-004
5.517707e-004,9.588090e-005
6.658648e-004,7.513654e-005
7.451148e-004,5.098881e-005
7.426838e-004,2.505835e-005
6.360448e-004,1.072688e-006
4.294114e-004,-1.383732e-005
1.569795e-004,-1.318906e-005
-1.298761e-004,-1.844488e-006
-3.825359e-004,8.365628e-006
-5.646973e-004,7.231170e-006
-6.541573e-004,-8.327101e-006
-6.535090e-004,-2.518189e-005
-5.883588e-004,-3.215070e-005
-5.117019e-004,-2.631635e-005
-5.092709e-004,-1.416145e-005
-6.533469e-004,-3.141010e-006
-9.538160e-004,1.072688e-006
-1.338235e-003,2.623614e-007
-1.697048e-003,-2.238345e-007
-1.908057e-003,3.179537e-006
-1.882450e-003,1.338965e-005
-1.600781e-003,3.105477e-005
-1.119123e-003,5.098881e-005
-5.548113e-004,7.173317e-005
-3.263690e-005,8.712937e-005
3.642611e-004,9.539470e-005
6.141660e-004,1.026876e-004
7.446286e-004,1.153287e-004
8.041066e-004,1.294284e-004
8.326301e-004,1.328318e-004
8.447851e-004,1.114392e-004
8.269579e-004,5.974033e-005
7.567835e-004,-1.610623e-005
6.357207e-004,-9.762508e-005
4.862963e-004,-1.554824e-004
3.405996e-004,-1.640719e-004
2.375260e-004,-1.216107e-004
2.002510e-004,-5.143647e-005
2.422259e-004,1.274139e-005
3.757677e-004,5.228533e-005
6.083316e-004,6.670914e-005
9.613102e-004,6.751947e-005
1.454800e-003,6.298164e-005
2.060440e-003,5.439218e-005
2.643554e-003,4.207521e-005
2.992158e-003,2.716520e-005
2.918256e-003,1.128280e-005
2.353131e-003,-5.409925e-006
1.410556e-003,-1.448558e-005
3.449753e-004,-5.085794e-006
-5.530285e-004,2.246531e-005
-1.110047e-003,5.714729e-005
-1.321866e-003,8.242948e-005
-1.289453e-003,9.328785e-005
-1.163366e-003,9.507057e-005
-1.078930e-003,9.458438e-005
-1.113126e-003,9.409818e-005
-1.249585e-003,9.053274e-005
-1.390096e-003,8.178122e-005
-1.408247e-003,7.043664e-005
-1.224627e-003,5.601283e-005
-8.494459e-004,3.802358e-005
-3.637363e-004,2.068259e-005
1.269974e-004,9.013888e-006
5.329712e-004,2.855406e-006
8.008654e-004,-8.720958e-007
9.214421e-004,-5.409925e-006
9.186869e-004,-1.351319e-005
8.238786e-004,-1.983374e-005
6.618132e-004,-1.399939e-005
4.606900e-004,8.527692e-006
2.551911e-004,4.320967e-005
7.740545e-005,7.983643e-005
-5.824321e-005,1.088461e-004
-1.483515e-004,1.273216e-004
-1.887058e-004,1.388282e-004
-1.780095e-004,1.487142e-004
-1.295519e-004,1.560071e-004
-7.461181e-005,1.558451e-004
-5.046408e-005,1.422316e-004
-7.412562e-005,1.150046e-004
-1.352242e-004,8.161915e-005
-2.042640e-004,5.341978e-005
-2.460769e-004,3.737532e-005
-2.400805e-004,3.235129e-005
-1.940539e-004,3.105477e-005
-1.266348e-004,3.056858e-005
-5.224680e-005,2.635488e-005
2.781346e-005,1.711715e-005
1.127357e-004,4.244267e-007
1.932822e-004,-2.712668e-005
2.607013e-004,-6.472583e-005
3.034866e-004,-1.047560e-004
3.148312e-004,-1.374931e-004
2.893869e-004,-1.546721e-004
2.316917e-004,-1.511066e-004
1.545486e-004,-1.250141e-004
7.853991e-005,-8.077029e-005
1.501031e-005,-3.247483e-005
-3.344722e-005,8.527692e-006
-6.926366e-005,3.932010e-005
-1.032974e-004,5.487837e-005
-1.323070e-004,5.390598e-005
-1.444620e-004,4.223728e-005
-1.360346e-004,2.829966e-005
-1.118868e-004,1.663096e-005
-7.704279e-005,7.555300e-006
-3.360929e-005,1.072688e-006
3.575467e-005,-1.358292e-006
1.663793e-004,4.151929e-006
3.828986e-004,2.133085e-005
6.684579e-004,4.531652e-005
9.608240e-004,6.525056e-005
1.187067e-003,7.513654e-005
1.302620e-003,7.902610e-005
1.292896e-003,8.307774e-005
1.144120e-003,9.085687e-005
8.431644e-004,1.002567e-004
3.981328e-004,1.062531e-004
-1.493239e-004,1.078737e-004
-7.240074e-004,1.099806e-004
-1.227220e-003,1.148425e-004
-1.573716e-003,1.218114e-004
-1.732054e-003,1.265113e-004
-1.733512e-003,1.269974e-004
-1.645349e-003,1.200286e-004
-1.526879e-003,1.047945e-004
-1.405168e-003,8.226741e-005
-1.284753e-003,5.811968e-005
-1.166770e-003,4.142695e-005
-1.041007e-003,3.786152e-005
-8.831555e-004,4.871989e-005
-6.612882e-004,7.173317e-005
-3.509331e-004,9.733949e-005
4.726130e-005,1.174356e-004
4.849998e-004,1.244044e-004
8.841670e-004,1.167873e-004
1.172320e-003,9.977046e-005
1.309427e-003,7.967437e-005
1.298731e-003,5.990240e-005
1.182854e-003,4.709924e-005
1.018681e-003,4.612685e-005
8.444610e-004,5.844381e-005
6.720233e-004,8.145709e-005
5.005581e-004,1.069013e-004
3.167760e-004,1.273216e-004
9.831188e-005,1.393144e-004
-1.702303e-004,1.417454e-004
-4.878783e-004,1.402868e-004
-8.155743e-004,1.331559e-004
-1.079417e-003,1.234320e-004
-1.172928e-003,1.171115e-004
-9.722914e-004,1.128978e-004
-4.264555e-004,1.096565e-004
3.469201e-004,1.018773e-004
1.085776e-003,8.875003e-005
1.520112e-003,7.254349e-005
1.505040e-003,5.260946e-005
1.092583e-003,3.073064e-005
4.674967e-004,8.365628e-006
-1.525652e-004,-1.335112e-005
-6.095893e-004,-3.425755e-005
-8.449081e-004,-4.787104e-005
-8.761867e-004,-4.398147e-005
-7.607962e-004,-1.805102e-005
-5.651835e-004,2.084466e-005
-3.527158e-004,6.184718e-005
-1.724992e-004,9.636710e-005
-4.949169e-005,1.235941e-004
1.711715e-005,1.402868e-004
4.061663e-005,1.419075e-004
4.531652e-005,1.297525e-004
5.795762e-005,1.083599e-004
8.615698e-005,8.048469e-005
1.300767e-004,4.661304e-005
1.879340e-004,4.151929e-006
2.532463e-004,-4.057810e-005
3.248792e-004,-7.688072e-005
4.068843e-004,-9.989400e-005
4.978030e-004,-1.128592e-004
5.922871e-004,-1.259865e-004
6.880678e-004,-1.569410e-004
7.872518e-004,-2.117190e-004
8.989149e-004,-2.770314e-004
1.006202e-003,-3.259751e-004
1.054822e-003,-3.322956e-004
9.857820e-004,-2.878897e-004
7.833623e-004,-2.052364e-004
4.619866e-004,-1.075111e-004
7.497447e-005,-1.886135e-005
-2.955068e-004,4.693717e-005
-5.951655e-004,8.664317e-005
-8.071469e-004,1.062531e-004
-9.055205e-004,1.158149e-004
-8.648421e-004,1.193804e-004
-6.906220e-004,1.169494e-004
-4.285624e-004,1.114392e-004
-1.543479e-004,1.065772e-004
6.800567e-005,9.944633e-005
2.080301e-004,9.247753e-005
2.702632e-004,8.745350e-005
2.791768e-004,8.405013e-005
2.516257e-004,8.226741e-005
1.765894e-004,8.405013e-005
3.753739e-005,9.312579e-005
-1.609926e-004,1.046324e-004
-3.851289e-004,1.114392e-004
-5.839830e-004,1.111150e-004
-7.019665e-004,1.094944e-004
-6.959701e-004,1.156529e-004
-5.601594e-004,1.300767e-004
-3.331059e-004,1.432040e-004
-7.850138e-005,1.513072e-004
1.396385e-004,1.556830e-004
2.859835e-004,1.555209e-004
3.621542e-004,1.503348e-004
3.940811e-004,1.391524e-004
4.094774e-004,1.221355e-004
4.261701e-004,1.023635e-004
4.527488e-004,8.437427e-005
4.869446e-004,7.043664e-005
5.174129e-004,6.379197e-005
5.316746e-004,6.687120e-005
5.214645e-004,7.708132e-005
4.822447e-004,8.875003e-005
4.156358e-004,9.442231e-005
3.321721e-004,8.891209e-005
2.433604e-004,7.513654e-005
1.584381e-004,6.444023e-005
8.405013e-005,6.055066e-005
2.732727e-005,5.763348e-005
-1.270286e-005,4.985435e-005
-3.344722e-005,4.142695e-005
-2.955766e-005,4.418206e-005
-8.720958e-007,5.633696e-005
5.649903e-005,7.140904e-005
1.409351e-004,7.481241e-005
2.431983e-004,6.103685e-005
3.462718e-004,3.543053e-005
4.269804e-004,6.744974e-006
4.433490e-004,-2.015787e-005
3.529165e-004,-3.830918e-005
1.577899e-004,-4.349527e-005
-9.243900e-005,-3.474375e-005
-3.246786e-004,-1.318906e-005
-4.835025e-004,1.841368e-005
-5.659938e-004,5.763348e-005
-6.092652e-004,9.993253e-005
-6.588572e-004,1.344524e-004
-7.397278e-004,1.488763e-004
-8.316187e-004,1.367214e-004
-8.878554e-004,1.049566e-004
-8.697041e-004,6.703327e-005
-7.710063e-004,3.559260e-005
-6.283889e-004,1.922400e-005
-4.980884e-004,1.582063e-005
-4.199730e-004,1.274139e-005
-4.074939e-004,2.693341e-006
-4.382863e-004,-1.367526e-005
-4.557894e-004,-2.971972e-005
-3.893426e-004,-3.814712e-005
-1.836818e-004,-3.085418e-005
1.809652e-004,-1.270286e-005
6.783438e-004,6.258778e-006
1.211215e-003,1.727922e-005
1.632910e-003,1.808955e-005
1.793355e-003,1.436204e-005
1.603900e-003,1.063454e-005
1.106683e-003,9.338019e-006
4.725208e-004,9.824214e-006
-8.887356e-005,1.241726e-005
-4.309934e-004,1.144487e-005
-5.193189e-004,5.124321e-006
-4.066836e-004,-5.247859e-006
-1.883817e-004,-1.724069e-005
3.932010e-005,-2.647842e-005
2.158092e-004,-2.388537e-005
3.185587e-004,-8.813297e-006
3.555096e-004,1.306552e-005
3.504856e-004,3.413401e-005
3.277964e-004,4.547859e-005
3.072141e-004,4.596478e-005
2.966798e-004,4.175108e-005
2.932765e-004,3.899597e-005
2.887386e-004,4.353380e-005
2.803112e-004,5.487837e-005
2.658874e-004,6.832980e-005
2.501671e-004,7.821578e-005
2.376881e-004,8.161915e-005
2.279641e-004,8.097089e-005
2.154851e-004,8.097089e-005
1.999268e-004,8.648111e-005
1.832341e-004,1.033359e-004
1.704310e-004,1.286181e-004
1.581140e-004,1.555209e-004
1.417454e-004,1.744826e-004
1.201907e-004,1.756170e-004
9.604297e-005,1.543865e-004
8.372600e-005,1.188942e-004
9.717742e-005,7.870197e-005
1.362352e-004,4.547859e-005
1.811273e-004,2.748933e-005
2.055991e-004,1.938607e-005
1.889064e-004,1.468617e-005
1.279698e-004,8.203561e-006
4.272347e-005,-1.682422e-006
-4.025397e-005,-1.237873e-005
-1.013526e-004,-2.129233e-005
-1.319829e-004,-2.971972e-005
-1.310105e-004,-3.571614e-005
-1.097800e-004,-3.182657e-005
-8.968388e-005,-1.902341e-005
-8.401160e-005,-4.761663e-006
-9.535618e-005,2.693341e-006
-1.133454e-004,-3.789271e-006
-1.193418e-004,-1.983374e-005
-1.060525e-004,-3.604027e-005
-7.477388e-005,-4.284701e-005
-2.939559e-005,-3.150244e-005
2.424803e-005,-7.030578e-006
7.837785e-005,2.538249e-005
1.192183e-004,6.281957e-005
1.208390e-004,1.031738e-004
6.281957e-005,1.410971e-004
-4.381940e-005,1.676758e-004
-1.603444e-004,1.842065e-004
-2.527216e-004,2.038164e-004
-3.089582e-004,2.414156e-004
-3.339163e-004,2.997591e-004
-3.476918e-004,3.618301e-004
-3.705430e-004,4.046154e-004
-4.073319e-004,4.123945e-004
-4.494688e-004,3.806297e-004
-4.919299e-004,3.162897e-004
-5.478425e-004,2.350950e-004
-6.432989e-004,1.589243e-004
-7.875370e-004,1.033359e-004
-9.408508e-004,7.043664e-005
-1.024476e-003,5.358185e-005
-9.568952e-004,3.948217e-005
-7.267625e-004,1.517237e-005
-4.172178e-004,-2.080613e-005
-1.571030e-004,-6.294311e-005
-3.587821e-005,-1.021629e-004
-5.078821e-005,-1.342519e-004
-1.178833e-004,-1.561307e-004
-1.271210e-004,-1.660166e-004
-1.610623e-005,-1.596961e-004
1.931201e-004,-1.374931e-004
4.333010e-004,-1.091317e-004
6.446342e-004,-8.628051e-005
8.079962e-004,-7.623246e-005
9.366762e-004,-8.109442e-005
1.045422e-003,-9.875954e-005
1.131803e-003,-1.212866e-004
1.170699e-003,-1.405724e-004
1.128724e-003,-1.494860e-004
9.762202e-004,-1.485136e-004
7.057329e-004,-1.417068e-004
3.482167e-004,-1.345760e-004
-4.009190e-005,-1.271210e-004
-3.864254e-004,-1.117248e-004
-6.283889e-004,-8.725291e-005
-7.313003e-004,-5.483985e-005
-6.922426e-004,-1.967167e-005
-5.418460e-004,1.241726e-005
-3.287302e-004,3.413401e-005
-1.034594e-004,4.450619e-005
9.766362e-005,5.001641e-005
2.681563e-004,5.228533e-005
4.383250e-004,5.358185e-005
6.418792e-004,5.617490e-005
8.656915e-004,6.038860e-005
1.051905e-003,6.573675e-005
1.144444e-003,6.849186e-005
1.114138e-003,6.557468e-005
9.689272e-004,5.876794e-005
7.514353e-004,5.536457e-005
5.298919e-004,5.876794e-005
3.590750e-004,6.784360e-005
2.509774e-004,7.789165e-005
1.874478e-004,9.020861e-005
1.410971e-004,1.072255e-004
9.507057e-005,1.300767e-004
3.056858e-005,1.516314e-004
-8.449779e-005,1.611932e-004
-2.930758e-004,1.513072e-004
-6.016482e-004,1.247285e-004
-9.325854e-004,8.972242e-005
-1.158180e-003,4.709924e-005
-1.205341e-003,2.045080e-006
-1.089141e-003,-3.117831e-005
-8.773212e-004,-4.576419e-005
-6.421645e-004,-4.252288e-005
-4.237005e-004,-3.004385e-005
-2.316531e-004,-9.947754e-006
-6.958779e-005,1.452411e-005
5.536457e-005,3.948217e-005
1.346145e-004,5.617490e-005
1.623277e-004,5.844381e-005
1.208390e-004,4.628891e-005
-6.058186e-006,2.522042e-005
-2.139880e-004,1.883015e-006
-4.687546e-004,-1.934754e-005
-7.149318e-004,-3.312309e-005
-8.906105e-004,-3.620233e-005
-9.481437e-004,-3.425755e-005
-8.710006e-004,-3.344722e-005
-6.812222e-004,-3.441962e-005
-4.327761e-004,-3.749886e-005
-1.906506e-004,-4.268495e-005
-9.137427e-006,-5.419158e-005
8.016056e-005,-7.282909e-005
7.092283e-005,-8.968388e-005
-1.967167e-005,-9.324932e-005
-1.442999e-004,-6.796713e-005
-2.530457e-004,-4.275467e-006
-3.079858e-004,1.005808e-004
-2.924276e-004,2.474120e-004
-2.100984e-004,4.260080e-004
-7.509801e-005,6.075212e-004
8.534666e-005,7.520836e-004
2.346088e-004,8.277682e-004
3.414099e-004,8.144788e-004
3.888950e-004,7.174016e-004
3.824124e-004,5.624671e-004
3.449753e-004,3.853296e-004
2.992729e-004,2.282883e-004
2.676701e-004,1.150046e-004
2.623220e-004,4.936815e-005
2.806354e-004,1.776542e-005
3.130485e-004,2.207145e-006
3.585888e-004,-1.351319e-005
4.260080e-004,-3.992984e-005
5.268127e-004,-7.153257e-005
6.592201e-004,-9.616650e-005
8.097789e-004,-1.068628e-004
9.519104e-004,-1.101041e-004
1.061143e-003,-1.096179e-004
1.141527e-003,-1.037836e-004
1.224180e-003,-9.503204e-005
1.338599e-003,-8.838737e-005
1.488510e-003,-7.947377e-005
1.641824e-003,-6.099833e-005
1.741656e-003,-2.696461e-005
1.707622e-003,1.938607e-005
1.478948e-003,6.638501e-005
1.046070e-003,1.025256e-004
4.392974e-004,1.261871e-004
-2.567732e-004,1.372075e-004
-8.825072e-004,1.391524e-004
-1.281674e-003,1.373696e-004
-1.368703e-003,1.396385e-004
-1.132898e-003,1.430419e-004
-6.274165e-004,1.365593e-004
1.727922e-005,1.145184e-004
6.007145e-004,8.145709e-005
9.183628e-004,3.899597e-005
8.554814e-004,-1.562004e-005
4.462662e-004,-9.146661e-005
-1.212866e-004,-1.906506e-004
-6.121824e-004,-3.146305e-004
-8.769971e-004,-4.507653e-004
-8.904485e-004,-5.681007e-004
-7.272487e-004,-6.314681e-004
-5.129984e-004,-6.189891e-004
-3.596847e-004,-5.308256e-004
-3.217614e-004,-3.943666e-004
-3.830221e-004,-2.551526e-004
-4.899852e-004,-1.475412e-004
-5.873864e-004,-7.931171e-005
-6.368163e-004,-4.009190e-005
-6.251476e-004,-8.489165e-006
-5.505976e-004,3.008238e-005
-4.256452e-004,7.610893e-005
-2.731418e-004,1.193804e-004
-1.219349e-004,1.467694e-004
5.286386e-006,1.574657e-004
1.015532e-004,1.553589e-004
1.712413e-004,1.472556e-004
2.190506e-004,1.415833e-004
2.433604e-004,1.415833e-004
2.388225e-004,1.474177e-004
2.085163e-004,1.566554e-004
1.650828e-004,1.686482e-004
1.312111e-004,1.819376e-004
1.218114e-004,1.895547e-004
1.315353e-004,1.838824e-004
1.495245e-004,1.624898e-004
1.636242e-004,1.342904e-004
1.701068e-004,1.112771e-004
1.662173e-004,1.007429e-004
1.498487e-004,1.004187e-004
1.279698e-004,1.043083e-004
1.146805e-004,1.083599e-004
1.206769e-004,1.120874e-004
1.532520e-004,1.130598e-004
2.289365e-004,1.093323e-004
3.590750e-004,9.928427e-005
5.264885e-004,8.745350e-005
6.892022e-004,7.951231e-005
8.052411e-004,8.161915e-005
8.541849e-004,9.426025e-005
8.384645e-004,1.072255e-004
7.676419e-004,1.083599e-004
6.556546e-004,9.442231e-005
5.191956e-004,6.995045e-005
3.725264e-004,4.450619e-005
2.278021e-004,2.603075e-005
9.118101e-005,2.052053e-005
-2.680255e-005,2.700314e-005
-1.220969e-004,4.369587e-005
-1.969711e-004,6.508849e-005
-2.588801e-004,8.113296e-005
-3.120375e-004,8.712937e-005
-3.579019e-004,8.178122e-005
-3.919356e-004,6.784360e-005
-4.049009e-004,4.936815e-005
-3.927460e-004,2.813760e-005
-3.535262e-004,8.365628e-006
-2.799485e-004,-6.058186e-006
-1.668270e-004,-1.513384e-005
-2.599222e-005,-2.437157e-005
9.442231e-005,-3.571614e-005
1.198666e-004,-4.446767e-005
1.072688e-006,-4.171255e-005
-2.439700e-004,-2.210265e-005
-5.311497e-004,1.711715e-005
-7.578791e-004,7.384001e-005
-8.679213e-004,1.409351e-004
-8.708385e-004,2.060853e-004
-8.048780e-004,2.572980e-004
-7.235212e-004,2.950592e-004
-6.716603e-004,3.234207e-004
-6.718223e-004,3.404375e-004
-7.212523e-004,3.431926e-004
-7.889956e-004,3.287688e-004
-8.150881e-004,2.958695e-004
-7.353520e-004,2.467637e-004
-5.170500e-004,1.882581e-004
-1.895161e-004,1.295905e-004
1.709171e-004,8.664317e-005
4.741414e-004,6.751947e-005
6.629477e-004,6.557468e-005
7.285841e-004,6.946425e-005
7.058950e-004,7.432621e-005
6.444722e-004,7.708132e-005
5.801322e-004,7.384001e-005
5.227610e-004,6.281957e-005
4.593935e-004,4.709924e-005
3.775505e-004,2.781346e-005
2.683184e-004,8.365628e-006
1.359110e-004,-1.059601e-005
3.827798e-006,-2.939559e-005
-1.008664e-004,-4.706071e-005
-1.668270e-004,-6.148453e-005
-2.112329e-004,-7.104637e-005
-2.716832e-004,-7.331529e-005
-3.919356e-004,-6.974985e-005
-6.045653e-004,-6.391550e-005
-9.027654e-004,-6.067420e-005
-1.227220e-003,-6.359137e-005
-1.492359e-003,-7.234290e-005
-1.614070e-003,-8.660465e-005
-1.548110e-003,-1.007043e-004
-1.308091e-003,-1.065387e-004
-9.643502e-004,-9.973194e-005
-6.089411e-004,-8.482193e-005
-2.993964e-004,-6.440169e-005
-3.668853e-005,-4.381940e-005
2.075439e-004,-2.923352e-005
4.587452e-004,-2.210265e-005
7.136741e-004,-1.707863e-005
9.386210e-004,-6.544382e-006
1.093880e-003,1.241726e-005
1.159354e-003,3.964423e-005
1.141203e-003,6.703327e-005
1.068435e-003,8.291567e-005
9.648756e-004,7.772959e-005
8.363576e-004,4.709924e-005
6.733198e-004,3.827798e-006
4.777069e-004,-3.377135e-005
2.705873e-004,-5.435365e-005
7.756751e-005,-6.229485e-005
-9.195280e-005,-6.634648e-005
-2.617972e-004,-7.039811e-005
-4.719959e-004,-7.218083e-005
-7.274108e-004,-6.731887e-005
-9.671053e-004,-5.467778e-005
-1.088492e-003,-3.587821e-005
-1.007460e-003,-1.302699e-005
-7.157421e-004,9.013888e-006
-2.784900e-004,2.149292e-005
2.111093e-004,2.035846e-005
6.742922e-004,1.257933e-005
1.069732e-003,7.393235e-006
1.382519e-003,1.501031e-005
1.610383e-003,4.094075e-005
1.746194e-003,8.437427e-005
1.787035e-003,1.402868e-004
1.748301e-003,1.965235e-004
1.660461e-003,2.423880e-004
1.541667e-003,2.712356e-004
1.394998e-003,2.775562e-004
1.220291e-003,2.467637e-004
1.025326e-003,1.701068e-004
8.199890e-004,6.330577e-005
6.138418e-004,-3.522994e-005
4.164462e-004,-8.919769e-005
2.373639e-004,-8.498399e-005
9.215340e-005,-3.458168e-005
1.144487e-005,3.235129e-005
3.915804e-005,8.875003e-005
2.177540e-004,1.175977e-004
5.684635e-004,1.166253e-004
1.066167e-003,9.977046e-005
1.615731e-003,7.870197e-005
2.048123e-003,6.330577e-005
2.169996e-003,5.601283e-005
1.851537e-003,5.682316e-005
1.132937e-003,6.119892e-005
2.519498e-004,6.638501e-005
-4.796130e-004,6.995045e-005
-8.590078e-004,6.865393e-005
-8.581975e-004,6.038860e-005
-5.818761e-004,4.726130e-005
-2.130156e-004,3.121684e-005
6.444023e-005,1.776542e-005
1.274836e-004,1.112074e-005
-5.354332e-005,9.175954e-006
-4.164075e-004,6.420843e-006
-8.531734e-004,-1.520357e-006
-1.248451e-003,-7.354708e-006
-1.517641e-003,-3.951337e-006
-1.632221e-003,1.193106e-005
-1.620715e-003,3.624086e-005
-1.552809e-003,6.427816e-005
-1.502245e-003,9.215340e-005
-1.523962e-003,1.077117e-004
-1.631411e-003,1.046324e-004
-1.793152e-003,8.583285e-005
-1.945980e-003,6.168512e-005
-2.015506e-003,4.045456e-005
-1.932691e-003,2.651694e-005
-1.653128e-003,1.938607e-005
-1.176494e-003,1.565857e-005
-5.622663e-004,1.598270e-005
6.800567e-005,2.441009e-005
5.762426e-004,4.029249e-005
8.781705e-004,5.390598e-005
9.600137e-004,5.779555e-005
8.699052e-004,5.260946e-005
6.903367e-004,3.802358e-005
5.050959e-004,1.954813e-005
3.717161e-004,3.341602e-006
3.088348e-004,-2.654814e-006
2.987867e-004,3.017472e-006
3.115899e-004,1.290346e-005
3.206655e-004,1.776542e-005
3.143450e-004,1.241726e-005
2.940868e-004,1.234753e-006
2.662116e-004,-8.165034e-006
2.325020e-004,-1.010982e-005
1.929580e-004,-1.844488e-006
1.495245e-004,1.922400e-005
1.122495e-004,4.953022e-005
8.988448e-005,7.740545e-005
8.875003e-005,9.669123e-005
1.094944e-004,1.067393e-004
1.451487e-004,1.135460e-004
1.835582e-004,1.219734e-004
2.114335e-004,1.318594e-004
2.247228e-004,1.425557e-004
2.282883e-004,1.535762e-004
2.290986e-004,1.654069e-004
2.287745e-004,1.757791e-004
2.265056e-004,1.817755e-004
2.247228e-004,1.775618e-004
2.271538e-004,1.658931e-004
2.323399e-004,1.553589e-004
2.329882e-004,1.492004e-004
2.258573e-004,1.448246e-004
2.109473e-004,1.372075e-004
1.882581e-004,1.205148e-004
1.611932e-004,9.053274e-005
1.308870e-004,4.807163e-005
9.182927e-005,-7.030578e-006
4.272347e-005,-7.704279e-005
-7.840905e-006,-1.562927e-004
-4.738484e-005,-2.290600e-004
-6.472583e-005,-2.746004e-004
-5.613637e-005,-2.760590e-004
-2.583015e-005,-2.334358e-004
1.403791e-005,-1.630995e-004
5.082674e-005,-9.227693e-005
7.157111e-005,-4.884343e-005
6.233338e-005,-4.657451e-005
1.371378e-005,-7.752898e-005
-7.234290e-005,-1.138316e-004
-1.783336e-004,-1.313347e-004
-2.747625e-004,-1.154523e-004
-3.366714e-004,-5.953974e-005
-3.549847e-004,3.024445e-005
-3.368334e-004,1.269974e-004
-2.930758e-004,2.018716e-004
-2.313289e-004,2.383363e-004
-1.454343e-004,2.394708e-004
-3.377135e-005,2.187264e-004
9.328785e-005,1.895547e-004
2.192126e-004,1.633001e-004
3.227724e-004,1.432040e-004
3.903536e-004,1.269974e-004
4.261701e-004,1.156529e-004
4.396215e-004,1.130598e-004
4.414042e-004,1.174356e-004
4.475627e-004,1.222975e-004
4.683071e-004,1.203528e-004
5.109303e-004,1.122495e-004
5.802942e-004,1.039842e-004
6.720233e-004,1.028497e-004
7.629420e-004,1.073875e-004
8.118858e-004,1.125736e-004
7.703970e-004,1.114392e-004
6.026593e-004,1.065772e-004
3.018659e-004,1.017153e-004
-9.600443e-005,9.636710e-005
-5.317980e-004,8.842590e-005
-9.390680e-004,7.902610e-005
-1.271788e-003,7.157111e-005
-1.502407e-003,6.962632e-005
-1.605156e-003,7.351588e-005
-1.571123e-003,7.675719e-005
-1.414730e-003,7.497447e-005
-1.158666e-003,6.638501e-005
-8.382634e-004,5.763348e-005
-5.000332e-004,5.633696e-005
-1.815749e-004,6.038860e-005
9.328785e-005,6.152305e-005
3.094830e-004,5.374392e-005
4.519385e-004,3.964423e-005
5.149819e-004,2.473422e-005
4.990995e-004,9.824214e-006
4.135290e-004,-6.868512e-006
2.824181e-004,-2.680255e-005
1.388282e-004,-5.500191e-005
1.241726e-005,-9.551824e-005
-7.477388e-005,-1.400862e-004
-1.039456e-004,-1.712027e-004
-6.456376e-005,-1.770371e-004
3.380988e-005,-1.548341e-004
1.696206e-004,-1.139937e-004
3.180725e-004,-6.731887e-005
4.561522e-004,-2.420950e-005
5.678153e-004,1.355172e-005
6.650545e-004,4.564065e-005
7.723418e-004,7.335382e-005
8.964840e-004,9.814982e-005
1.020464e-003,1.154908e-004
1.114624e-003,1.229458e-004
1.152872e-003,1.216493e-004
1.133424e-003,1.132219e-004
1.073297e-003,1.009049e-004
1.006040e-003,8.842590e-005
9.601757e-004,7.999850e-005
9.332728e-004,7.821578e-005
8.959977e-004,8.259154e-005
8.195028e-004,9.344992e-005
6.904988e-004,1.086841e-004
5.182232e-004,1.252147e-004
3.290929e-004,1.448246e-004
1.427178e-004,1.684862e-004
-4.495386e-005,1.882581e-004
-2.459148e-004,1.923098e-004
-4.574100e-004,1.782101e-004
-6.470264e-004,1.553589e-004
-7.661444e-004,1.378558e-004
-7.894817e-004,1.295905e-004
-7.219006e-004,1.292664e-004
-5.938690e-004,1.342904e-004
-4.457413e-004,1.354248e-004
-3.032860e-004,1.269974e-004
-1.682856e-004,1.043083e-004
-3.134038e-005,6.962632e-005
1.065772e-004,2.927205e-005
2.368777e-004,-5.734055e-006
3.480546e-004,-2.615428e-005
4.086670e-004,-3.004385e-005
3.812780e-004,-2.113026e-005
2.359053e-004,-6.706447e-006
-3.944364e-005,4.313994e-006
-4.154351e-004,9.175954e-006
-7.979092e-004,8.527692e-006
-1.071151e-003,4.476060e-006
-1.163366e-003,3.665733e-006
-1.077148e-003,6.582909e-006
-8.719731e-004,1.112074e-005
-6.288751e-004,9.986280e-006
-4.108973e-004,2.855406e-006
-2.344082e-004,-9.299492e-006
-8.660465e-005,-2.356124e-005
4.904402e-005,-3.539201e-005
1.720516e-004,-4.527799e-005
2.756114e-004,-5.354332e-005
3.529165e-004,-5.694669e-005
4.057499e-004,-5.532604e-005
4.333010e-004,-4.803310e-005
4.274666e-004,-3.555407e-005
3.853296e-004,-1.821308e-005
3.028383e-004,-2.006553e-006
1.803169e-004,5.124321e-006
2.457216e-005,2.855406e-006
-1.585616e-004,-5.085794e-006
-3.689224e-004,-1.010982e-005
-6.107238e-004,-1.010982e-005
-8.828314e-004,-1.205460e-005
-1.160935e-003,-1.643037e-005
-1.402575e-003,-1.788895e-005
-1.565450e-003,-1.108221e-005
-1.633194e-003,-2.238345e-007
-1.610019e-003,8.041497e-006
-1.503541e-003,1.257933e-005
-1.299825e-003,1.225519e-005
-9.539780e-004,9.013888e-006
-4.131662e-004,1.720949e-006
3.263378e-004,-4.923729e-006
1.142337e-003,-4.437533e-006
1.829982e-003,5.124321e-006
2.214240e-003,1.938607e-005
2.219264e-003,2.992031e-005
1.906801e-003,3.008238e-005
1.459338e-003,2.246531e-005
1.081401e-003,1.484824e-005
8.953495e-004,1.484824e-005
9.055596e-004,2.149292e-005
1.012847e-003,3.251336e-005
1.076053e-003,4.661304e-005
9.906440e-004,5.909207e-005
7.347426e-004,6.395403e-005
3.610198e-004,5.957827e-005
-4.900549e-005,5.017848e-005
-4.331002e-004,4.499239e-005
-7.577170e-004,4.839576e-005
-1.014590e-003,6.136099e-005
-1.226086e-003,7.918817e-005
-1.412137e-003,9.782569e-005
-1.565937e-003,1.125736e-004
-1.641135e-003,1.200286e-004
-1.571123e-003,1.163011e-004
-1.304525e-003,1.000946e-004
-8.507424e-004,7.610893e-005
-2.948585e-004,5.536457e-005
2.302331e-004,4.385793e-005
6.026593e-004,4.580272e-005
7.660213e-004,5.325772e-005
7.368495e-004,6.233338e-005
5.749461e-004,7.400208e-005
3.587509e-004,9.215340e-005
1.692965e-004,1.132219e-004
9.134307e-005,1.286181e-004
1.934442e-004,1.320215e-004
4.802999e-004,1.201907e-004
8.817360e-004,8.858796e-005
1.267452e-003,3.299956e-005
1.497099e-003,-3.782299e-005
1.473762e-003,-1.076731e-004
1.191767e-003,-1.530514e-004
7.477078e-004,-1.549962e-004
3.015418e-004,-1.149661e-004
-1.196226e-006,-4.592625e-005
-9.875954e-005,3.332369e-005
-2.469570e-005,1.013911e-004
1.389903e-004,1.480659e-004
3.025142e-004,1.748067e-004
4.013741e-004,1.908512e-004
4.183909e-004,2.015475e-004
3.734988e-004,2.012234e-004
2.936006e-004,1.825858e-004
1.911753e-004,1.482280e-004
6.249544e-005,9.879807e-005
-1.060525e-004,3.948217e-005
-3.173856e-004,-2.113026e-005
-5.578905e-004,-7.380149e-005
-7.872129e-004,-1.054042e-004
-9.468471e-004,-1.105903e-004
-9.837981e-004,-9.405964e-005
-8.791039e-004,-6.018800e-005
-6.632329e-004,-9.461557e-006
-3.969597e-004,6.055066e-005
-1.504584e-004,1.564933e-004
2.894792e-005,2.833905e-004
1.284560e-004,4.337872e-004
1.633001e-004,5.864528e-004
1.615174e-004,7.060570e-004
1.487142e-004,7.601869e-004
1.376937e-004,7.293944e-004
1.300767e-004,6.187038e-004
1.221355e-004,4.550177e-004
1.175977e-004,2.795009e-004
1.182459e-004,1.300767e-004
1.179218e-004,2.441009e-005
1.091703e-004,-4.106429e-005
9.409818e-005,-8.271508e-005
7.967437e-005,-1.157764e-004
7.529860e-005,-1.465688e-004
9.474644e-005,-1.733096e-004
1.448246e-004,-1.916230e-004
2.256952e-004,-1.974573e-004
3.328204e-004,-1.844921e-004
4.608521e-004,-1.522411e-004
6.034696e-004,-1.101041e-004
7.436562e-004,-7.526008e-005
8.647191e-004,-6.018800e-005
9.590412e-004,-6.650855e-005
1.024516e-003,-8.741497e-005
1.042667e-003,-1.109144e-004
9.804339e-004,-1.251762e-004
8.152892e-004,-1.230693e-004
5.514466e-004,-1.057284e-004
2.409294e-004,-7.898758e-005
-3.344722e-005,-4.770897e-005
-2.102605e-004,-1.950961e-005
-2.771934e-004,9.106226e-007
-2.617972e-004,1.079661e-005
-2.096122e-004,1.014835e-005
-1.580754e-004,-6.176923e-008
-1.324691e-004,-1.513384e-005
-1.536997e-004,-2.534396e-005
-2.417011e-004,-2.242678e-005
-4.044147e-004,-2.654814e-006
-6.227166e-004,2.894792e-005
-8.295119e-004,6.298164e-005
-9.403646e-004,8.729143e-005
-9.116790e-004,9.490851e-005
-7.770028e-004,8.567078e-005
-5.984068e-004,6.362990e-005
-4.214316e-004,3.543053e-005
-2.622834e-004,4.800190e-006
-1.204763e-004,-2.210265e-005
1.128280e-005,-4.106429e-005
1.461212e-004,-5.224680e-005
2.884145e-004,-6.067420e-005
4.234150e-004,-6.634648e-005
5.279472e-004,-6.650855e-005
5.794839e-004,-6.067420e-005
5.623050e-004,-4.527799e-005
4.788413e-004,-1.886135e-005
3.401134e-004,1.257933e-005
1.665414e-004,4.191315e-005
-2.955766e-005,6.103685e-005
-2.319772e-004,6.703327e-005
-4.168937e-004,6.379197e-005
-5.664800e-004,5.601283e-005
-6.749016e-004,5.098881e-005
-7.486413e-004,5.374392e-005
-8.011505e-004,6.476436e-005
-8.418289e-004,7.805372e-005
-8.607905e-004,8.437427e-005
-8.298360e-004,7.627100e-005
-7.193075e-004,5.747142e-005
-4.909575e-004,3.656499e-005
-1.070249e-004,1.501031e-005
4.360561e-004,-1.643037e-005
1.054336e-003,-6.261898e-005
1.578618e-003,-1.190177e-004
1.829334e-003,-1.746061e-004
1.694495e-003,-2.135018e-004
1.203922e-003,-2.230636e-004
5.235714e-004,-1.958366e-004
-1.410586e-004,-1.412206e-004
-6.486471e-004,-7.185670e-005
-9.638640e-004,-6.058186e-006
-1.129171e-003,4.077869e-005
-1.209555e-003,6.379197e-005
-1.240023e-003,6.298164e-005
-1.216686e-003,4.531652e-005
-1.134195e-003,2.651694e-005
-1.010701e-003,1.695509e-005
-8.708385e-004,1.452411e-005
-7.270867e-004,8.365628e-006
-5.823624e-004,-1.140634e-005
-4.423380e-004,-4.462973e-005
-3.173856e-004,-8.352540e-005
-2.086398e-004,-1.159385e-004
-9.243900e-005,-1.336036e-004
6.525056e-005,-1.269589e-004
2.689667e-004,-9.503204e-005
4.767345e-004,-4.495386e-005
6.285898e-004,9.662150e-006
6.875816e-004,6.071273e-005
6.530616e-004,1.054428e-004
5.530672e-004,1.407730e-004
4.375147e-004,1.623277e-004
3.495132e-004,1.689724e-004
3.133726e-004,1.634621e-004
3.318480e-004,1.506590e-004
3.965121e-004,1.351007e-004
4.880791e-004,1.237561e-004
5.812666e-004,1.234320e-004
6.503065e-004,1.363972e-004
6.708889e-004,1.597346e-004
6.281036e-004,1.863134e-004
5.307022e-004,2.096508e-004
4.106118e-004,2.268297e-004
2.981384e-004,2.372019e-004
2.030061e-004,2.453051e-004
1.200286e-004,2.560015e-004
4.158902e-005,2.705873e-004
-4.090223e-005,2.748010e-004
-1.306864e-004,2.513016e-004
-2.045882e-004,2.025199e-004
-2.310048e-004,1.480659e-004
-1.916230e-004,1.060910e-004
-9.017008e-005,8.129502e-005
5.990240e-005,7.173317e-005
2.310434e-004,7.481241e-005
3.851675e-004,8.518459e-005
4.968306e-004,9.847395e-005
5.561465e-004,1.119254e-004
5.645739e-004,1.294284e-004
5.323229e-004,1.530900e-004
4.841895e-004,1.853410e-004
4.550177e-004,2.209953e-004
4.802999e-004,2.491947e-004
