7.725038e-004,9.280166e-005
9.130146e-004,8.972242e-005
1.030998e-003,7.853991e-005
1.102955e-003,6.492643e-005
1.110248e-003,5.828174e-005
1.032295e-003,6.638501e-005
8.582365e-004,8.161915e-005
6.055764e-004,9.458438e-005
3.320101e-004,9.620503e-005
1.088461e-004,8.469840e-005
-8.165034e-006,6.411610e-005
-2.816880e-006,4.077869e-005
8.437427e-005,2.376183e-005
1.556830e-004,1.825161e-005
1.078737e-004,2.262737e-005
-1.010285e-004,2.910999e-005
-4.227281e-004,2.554455e-005
-7.573929e-004,9.013888e-006
-1.011349e-003,-7.516774e-006
-1.143432e-003,-1.205460e-005
-1.178276e-003,-2.978945e-006
-1.164663e-003,1.128280e-005
-1.139867e-003,2.522042e-005
-1.110209e-003,3.478227e-005
-1.049759e-003,3.834771e-005
-9.241580e-004,3.980630e-005
-7.184972e-004,3.964423e-005
-4.533584e-004,3.607880e-005
-1.695821e-004,2.878586e-005
8.842590e-005,2.441009e-005
2.807975e-004,2.359977e-005
3.895433e-004,2.424803e-005
4.248735e-004,2.732727e-005
4.214702e-004,2.975825e-005
4.151496e-004,3.073064e-005
4.183909e-004,3.316162e-005
4.229288e-004,3.980630e-005
4.047775e-004,4.645098e-005
3.311998e-004,5.341978e-005
1.855030e-004,6.136099e-005
-2.015787e-005,6.460230e-005
-2.441321e-004,5.957827e-005
-4.342347e-004,4.969228e-005
-5.397392e-004,4.628891e-005
-5.264499e-004,5.682316e-005
-3.895047e-004,7.918817e-005
-1.605064e-004,9.928427e-005
1.017153e-004,1.007429e-004
3.300653e-004,8.048469e-005
4.760862e-004,4.531652e-005
5.297298e-004,6.420843e-006
5.272989e-004,-2.518189e-005
5.260024e-004,-4.560212e-005
5.657084e-004,-5.791909e-005
6.587339e-004,-6.893953e-005
7.877380e-004,-8.725291e-005
9.157698e-004,-1.118868e-004
1.006364e-003,-1.331174e-004
1.041046e-003,-1.387897e-004
1.020140e-003,-1.209625e-004
9.619584e-004,-7.850138e-005
8.848152e-004,-2.242678e-005
7.956792e-004,3.332369e-005
6.921194e-004,7.400208e-005
5.702462e-004,9.652916e-005
4.263321e-004,1.009049e-004
2.660495e-004,9.247753e-005
9.458438e-005,8.259154e-005
-6.958779e-005,7.789165e-005
-1.968091e-004,8.275361e-005
-2.536940e-004,9.571883e-005
-2.235498e-004,1.130598e-004
-1.091317e-004,1.331559e-004
8.340186e-005,1.529279e-004
3.310377e-004,1.699447e-004
5.665187e-004,1.825858e-004
6.845024e-004,1.889064e-004
5.935836e-004,1.866375e-004
2.838767e-004,1.762653e-004
-1.391138e-004,1.629759e-004
-5.094330e-004,1.522796e-004
-7.065043e-004,1.469315e-004
-7.055320e-004,1.401247e-004
-5.606457e-004,1.201907e-004
-3.651949e-004,7.691926e-005
-2.078295e-004,1.744128e-005
-1.431654e-004,-4.511592e-005
-1.729855e-004,-8.628051e-005
-2.679557e-004,-9.179074e-005
-3.909633e-004,-6.164659e-005
-5.149432e-004,-1.059601e-005
-6.240131e-004,3.818564e-005
-7.006700e-004,6.995045e-005
-7.343796e-004,8.696730e-005
-7.233592e-004,9.960840e-005
-6.575607e-004,1.124116e-004
-5.270981e-004,1.281319e-004
-3.410472e-004,1.462832e-004
-1.323070e-004,1.608691e-004
6.978838e-005,1.692965e-004
2.547049e-004,1.696206e-004
4.200116e-004,1.595726e-004
5.409124e-004,1.435281e-004
5.699221e-004,1.266733e-004
4.537212e-004,1.114392e-004
1.644345e-004,9.328785e-005
-2.504527e-004,7.351588e-005
-6.548056e-004,5.066468e-005
-8.878554e-004,2.473422e-005
-8.598181e-004,-2.168618e-006
-5.839830e-004,-3.036798e-005
-1.498101e-004,-6.116039e-005
3.203414e-004,-9.373551e-005
7.216153e-004,-1.326312e-004
9.886991e-004,-1.814128e-004
1.105873e-003,-2.426735e-004
1.099552e-003,-3.063652e-004
1.003609e-003,-3.543365e-004
8.420299e-004,-3.692465e-004
6.329655e-004,-3.413713e-004
4.049395e-004,-2.716832e-004
1.950649e-004,-1.754164e-004
3.251336e-005,-7.477388e-005
-7.720485e-005,1.031041e-005
-1.606685e-004,6.881599e-005
-2.590421e-004,9.361198e-005
-3.993907e-004,9.020861e-005
-5.677765e-004,7.708132e-005
-7.029389e-004,6.800567e-005
-7.311383e-004,6.670914e-005
-6.055377e-004,7.027457e-005
-3.374817e-004,7.416414e-005
1.776542e-005,7.400208e-005
3.811159e-004,7.254349e-005
6.830437e-004,7.821578e-005
8.856255e-004,9.263960e-005
9.744375e-004,1.127357e-004
9.480208e-004,1.326697e-004
8.159374e-004,1.514693e-004
6.059006e-004,1.671896e-004
3.561578e-004,1.772377e-004
1.080358e-004,1.798307e-004
-9.551824e-005,1.780480e-004
-2.232257e-004,1.765894e-004
-2.729797e-004,1.782101e-004
-2.541802e-004,1.795066e-004
-1.831956e-004,1.748067e-004
-8.320127e-005,1.662173e-004
2.343770e-005,1.590864e-004
1.245665e-004,1.493625e-004
2.182402e-004,1.307249e-004
3.023521e-004,1.022014e-004
3.629646e-004,6.670914e-005
3.905157e-004,2.894792e-005
3.762539e-004,-7.192643e-006
3.146691e-004,-3.847125e-005
2.156472e-004,-6.504996e-005
1.009049e-004,-9.357345e-005
-9.461557e-006,-1.302002e-004
-1.016767e-004,-1.733096e-004
-1.681235e-004,-2.100984e-004
-2.052364e-004,-2.256567e-004
-2.201465e-004,-2.128535e-004
-2.251705e-004,-1.689338e-004
-2.363530e-004,-1.008664e-004
-2.600145e-004,-2.469570e-005
-2.921034e-004,4.126489e-005
-3.256510e-004,8.405013e-005
-3.590364e-004,9.896014e-005
-3.823738e-004,9.150514e-005
-3.880461e-004,7.691926e-005
-3.778360e-004,6.330577e-005
-3.626019e-004,5.277152e-005
-3.551468e-004,4.612685e-005
-3.606571e-004,4.385793e-005
-3.745946e-004,4.677511e-005
-3.903150e-004,5.990240e-005
-4.034423e-004,8.356393e-005
-4.084663e-004,1.120874e-004
-4.055491e-004,1.376937e-004
-3.953390e-004,1.574657e-004
-3.713534e-004,1.741585e-004
-3.224097e-004,1.853410e-004
-2.405667e-004,1.861513e-004
-1.308485e-004,1.754550e-004
-1.270286e-005,1.576278e-004
9.037068e-005,1.355869e-004
1.645966e-004,1.094944e-004
2.057612e-004,8.388807e-005
2.169437e-004,6.687120e-005
2.068957e-004,6.055066e-005
1.884202e-004,5.974033e-005
1.717275e-004,5.876794e-005
1.611932e-004,5.666109e-005
1.498487e-004,5.811968e-005
1.331559e-004,6.444023e-005
1.085220e-004,7.594687e-005
8.469840e-005,8.956035e-005
7.465034e-005,1.041462e-004
8.599491e-005,1.141943e-004
1.268354e-004,1.182459e-004
1.937684e-004,1.146805e-004
2.662116e-004,1.062531e-004
3.055935e-004,9.831188e-005
2.791768e-004,9.069480e-005
1.867996e-004,7.999850e-005
5.455424e-005,6.638501e-005
-9.341139e-005,5.309565e-005
-2.423494e-004,4.466826e-005
-3.838324e-004,4.045456e-005
-5.029504e-004,3.915804e-005
-5.666420e-004,4.061663e-005
-5.460597e-004,4.385793e-005
-4.361795e-004,4.596478e-005
-2.622834e-004,4.871989e-005
-8.109442e-005,5.520250e-005
3.948217e-005,6.233338e-005
5.098881e-005,6.476436e-005
-4.722277e-005,5.747142e-005
-2.079916e-004,4.239934e-005
-3.609812e-004,2.424803e-005
-4.457413e-004,9.338019e-006
-4.355312e-004,2.531276e-006
-3.361852e-004,6.582909e-006
-1.789819e-004,2.262737e-005
-3.627206e-006,5.050261e-005
1.610312e-004,8.291567e-005
2.955454e-004,1.056048e-004
3.898674e-004,1.099806e-004
4.388112e-004,1.013911e-004
4.428628e-004,8.875003e-005
4.099635e-004,7.659513e-005
3.581026e-004,6.298164e-005
3.070520e-004,5.131293e-005
2.782044e-004,4.774750e-005
2.876042e-004,5.163707e-005
3.483787e-004,5.747142e-005
4.436731e-004,6.362990e-005
5.332953e-004,6.946425e-005
5.775391e-004,7.853991e-005
5.624671e-004,9.150514e-005
4.974788e-004,1.026876e-004
4.041292e-004,1.026876e-004
3.073762e-004,8.875003e-005
2.226160e-004,6.476436e-005
1.543865e-004,3.235129e-005
1.031738e-004,-1.196226e-006
6.654707e-005,-2.469570e-005
4.547859e-005,-3.474375e-005
3.607880e-005,-3.101624e-005
3.445814e-005,-1.432352e-005
3.316162e-005,8.689757e-006
2.797553e-005,2.376183e-005
2.197911e-005,2.214118e-005
2.262737e-005,8.365628e-006
3.624086e-005,-4.923729e-006
7.124698e-005,-7.192643e-006
1.375317e-004,1.396819e-006
2.350950e-004,1.419998e-005
3.538889e-004,2.359977e-005
4.773827e-004,2.165498e-005
5.883976e-004,6.744974e-006
6.765611e-004,-1.788895e-005
7.347426e-004,-4.155049e-005
7.592145e-004,-5.386745e-005
7.464113e-004,-5.305713e-005
6.875816e-004,-4.122636e-005
5.801322e-004,-2.664048e-005
4.371905e-004,-1.837515e-005
2.819319e-004,-2.210265e-005
1.432040e-004,-3.344722e-005
4.547859e-005,-4.657451e-005
-4.761663e-006,-5.710876e-005
-2.955766e-005,-5.921561e-005
-6.116039e-005,-4.673658e-005
-1.094559e-004,-1.886135e-005
-1.645580e-004,1.517237e-005
-2.117190e-004,4.223728e-005
-2.327876e-004,5.601283e-005
-2.083157e-004,5.471631e-005
-1.339277e-004,4.320967e-005
-3.117831e-005,2.473422e-005
5.487837e-005,6.582909e-006
8.113296e-005,-6.382316e-006
2.116879e-005,-1.448558e-005
-1.151281e-004,-2.258885e-005
-2.982619e-004,-3.101624e-005
-4.815578e-004,-3.895744e-005
-6.150996e-004,-4.203669e-005
-6.679328e-004,-3.344722e-005
-6.445954e-004,-1.594417e-005
-5.713420e-004,4.476060e-006
-4.779923e-004,2.035846e-005
-3.765395e-004,2.765140e-005
-2.652006e-004,2.813760e-005
-1.434896e-004,2.165498e-005
-2.647842e-005,1.436204e-005
6.832980e-005,1.646889e-005
1.355869e-004,2.716520e-005
1.965235e-004,4.175108e-005
2.929523e-004,5.341978e-005
4.577728e-004,5.471631e-005
6.874196e-004,4.612685e-005
9.366762e-004,3.494434e-005
1.129858e-003,2.667901e-005
1.194685e-003,2.635488e-005
1.103766e-003,3.850977e-005
8.767120e-004,5.941620e-005
5.627912e-004,7.772959e-005
2.167816e-004,8.745350e-005
-1.180453e-004,8.194328e-005
-4.073319e-004,6.946425e-005
-6.160719e-004,6.119892e-005
-7.123387e-004,6.200925e-005
-6.680949e-004,7.221937e-005
-4.567618e-004,8.161915e-005
-6.699474e-005,8.016056e-005
4.582590e-004,6.233338e-005
9.899957e-004,3.688912e-005
1.348323e-003,1.614476e-005
1.386246e-003,9.013888e-006
1.064222e-003,1.128280e-005
4.918065e-004,1.517237e-005
-1.266348e-004,1.922400e-005
-6.048895e-004,2.910999e-005
-8.591698e-004,4.855782e-005
-9.102204e-004,7.335382e-005
-8.475012e-004,9.847395e-005
-7.732753e-004,1.229458e-004
-7.557722e-004,1.443384e-004
-8.240017e-004,1.558451e-004
-9.581918e-004,1.542244e-004
-1.103888e-003,1.412592e-004
-1.200479e-003,1.268354e-004
-1.211500e-003,1.193804e-004
-1.143757e-003,1.146805e-004
-1.033876e-003,1.124116e-004
-9.121652e-004,1.127357e-004
-7.839716e-004,1.158149e-004
-6.533469e-004,1.180839e-004
-5.222362e-004,1.132219e-004
-3.955011e-004,1.025256e-004
-2.770314e-004,8.988448e-005
-1.673132e-004,7.805372e-005
-5.889147e-005,7.027457e-005
6.038860e-005,6.962632e-005
1.919856e-004,7.708132e-005
3.341170e-004,8.777764e-005
4.858101e-004,9.539470e-005
6.507927e-004,9.928427e-005
8.348991e-004,9.685329e-005
1.041695e-003,9.037068e-005
1.249949e-003,7.999850e-005
1.395808e-003,6.298164e-005
1.397753e-003,3.786152e-005
1.209595e-003,1.047248e-005
8.608295e-004,-1.448558e-005
4.420525e-004,-3.798505e-005
5.179913e-005,-5.759496e-005
-2.640661e-004,-6.893953e-005
-5.139708e-004,-6.521203e-005
-7.215764e-004,-4.576419e-005
-8.954725e-004,-1.772689e-005
-1.014915e-003,8.689757e-006
-1.043276e-003,2.343770e-005
-9.617572e-004,2.765140e-005
-7.771648e-004,2.781346e-005
-5.016539e-004,2.829966e-005
-1.619650e-004,3.397195e-005
1.970097e-004,4.531652e-005
5.238955e-004,5.811968e-005
7.853070e-004,7.043664e-005
9.724927e-004,7.772959e-005
1.095014e-003,7.967437e-005
1.166971e-003,7.594687e-005
1.195333e-003,7.173317e-005
1.180747e-003,7.140904e-005
1.117703e-003,7.432621e-005
1.007823e-003,7.708132e-005
8.677984e-004,7.578480e-005
7.203188e-004,6.897806e-005
5.898561e-004,5.714729e-005
4.848377e-004,4.029249e-005
3.793332e-004,2.149292e-005
2.248849e-004,1.031041e-005
-3.733679e-005,1.484824e-005
-4.374760e-004,3.024445e-005
-9.411749e-004,5.017848e-005
-1.454436e-003,6.476436e-005
-1.870782e-003,6.881599e-005
-2.121821e-003,6.265751e-005
-2.179679e-003,5.001641e-005
-2.037709e-003,3.332369e-005
-1.708068e-003,9.662150e-006
-1.234351e-003,-1.740276e-005
-6.943495e-004,-3.604027e-005
-1.874093e-004,-3.344722e-005
1.953890e-004,-1.189254e-005
4.059119e-004,1.808955e-005
4.577728e-004,4.531652e-005
4.042912e-004,5.779555e-005
3.064038e-004,5.698522e-005
2.039785e-004,5.131293e-005
1.265113e-004,4.499239e-005
9.636710e-005,4.094075e-005
1.227837e-004,4.256141e-005
1.911753e-004,4.790957e-005
2.686426e-004,5.390598e-005
3.198552e-004,5.455424e-005
3.198552e-004,4.450619e-005
2.634565e-004,2.392390e-005
1.790204e-004,-2.816880e-006
1.090082e-004,-2.826113e-005
9.004655e-005,-4.430560e-005
1.316973e-004,-4.430560e-005
2.253711e-004,-2.939559e-005
3.501614e-004,-6.544382e-006
4.741414e-004,1.679302e-005
5.775391e-004,4.061663e-005
6.556546e-004,6.362990e-005
7.141603e-004,8.583285e-005
7.584042e-004,1.043083e-004
7.822278e-004,1.172735e-004
7.648868e-004,1.237561e-004
6.869333e-004,1.206769e-004
5.404262e-004,1.075496e-004
3.488649e-004,8.599491e-005
1.673517e-004,5.925414e-005
4.029249e-005,3.494434e-005
-1.772689e-005,1.825161e-005
-1.335112e-005,9.338019e-006
5.617490e-005,1.128280e-005
2.090025e-004,2.586868e-005
4.342734e-004,4.969228e-005
6.660269e-004,7.238143e-005
8.081583e-004,8.518459e-005
7.819037e-004,8.599491e-005
5.684635e-004,7.675719e-005
2.171058e-004,6.557468e-005
-1.828714e-004,5.714729e-005
-5.376323e-004,5.455424e-005
-7.740856e-004,4.661304e-005
-8.392358e-004,1.906194e-005
-7.170386e-004,-3.069211e-005
-4.582204e-004,-8.968388e-005
-1.854645e-004,-1.342519e-004
-1.383732e-005,-1.442999e-004
1.014835e-005,-1.151281e-004
-6.569822e-005,-6.067420e-005
-1.326312e-004,-7.100305e-007
-1.151281e-004,4.726130e-005
-1.124428e-005,7.270556e-005
1.323456e-004,7.918817e-005
2.626462e-004,7.837785e-005
3.474063e-004,7.837785e-005
3.807918e-004,7.999850e-005
3.777125e-004,7.821578e-005
3.566440e-004,7.286762e-005
3.354135e-004,6.687120e-005
3.300653e-004,6.411610e-005
3.396272e-004,6.703327e-005
3.550234e-004,7.270556e-005
3.626405e-004,7.740545e-005
3.577785e-004,7.951231e-005
3.423823e-004,7.724339e-005
3.159656e-004,7.529860e-005
2.806354e-004,8.064676e-005
2.470879e-004,9.247753e-005
2.177540e-004,1.039842e-004
1.877719e-004,1.101426e-004
1.540623e-004,1.094944e-004
1.153287e-004,1.062531e-004
7.189524e-005,1.041462e-004
3.235129e-005,1.015532e-004
8.689757e-006,9.766362e-005
2.045080e-006,9.426025e-005
8.203561e-006,9.231547e-005
2.408596e-005,8.810177e-005
4.726130e-005,8.259154e-005
6.411610e-005,7.951231e-005
5.698522e-005,7.805372e-005
2.165498e-005,7.254349e-005
-3.134038e-005,6.670914e-005
-8.919769e-005,6.606088e-005
-1.439758e-004,7.173317e-005
-1.877334e-004,7.886404e-005
-2.162569e-004,7.918817e-005
-2.305186e-004,6.800567e-005
-2.358668e-004,4.839576e-005
-2.334358e-004,2.943412e-005
-2.199844e-004,1.922400e-005
-2.037778e-004,1.533444e-005
-2.013469e-004,1.501031e-005
-2.324634e-004,1.776542e-005
-3.029618e-004,2.489629e-005
-3.992286e-004,3.721326e-005
-4.927402e-004,6.038860e-005
-5.758798e-004,9.685329e-005
-6.441093e-004,1.381799e-004
-6.740913e-004,1.743205e-004
-6.385990e-004,1.984682e-004
-5.327704e-004,2.081922e-004
-3.791325e-004,2.030061e-004
-2.199844e-004,1.869616e-004
-9.438377e-005,1.624898e-004
-2.809907e-005,1.338042e-004
-2.826113e-005,1.036600e-004
-8.384953e-005,7.481241e-005
-1.637477e-004,4.385793e-005
-2.303566e-004,6.420843e-006
-2.575835e-004,-3.879538e-005
-2.370012e-004,-8.984595e-005
-1.781715e-004,-1.494860e-004
-9.422171e-005,-2.190120e-004
5.610517e-006,-2.979378e-004
1.132219e-004,-3.818876e-004
2.235884e-004,-4.625961e-004
3.264999e-004,-5.253154e-004
4.080188e-004,-5.536768e-004
4.572866e-004,-5.371462e-004
4.730070e-004,-4.695649e-004
4.634451e-004,-3.600088e-004
4.467524e-004,-2.298704e-004
4.328148e-004,-1.016767e-004
4.302217e-004,6.258778e-006
4.461041e-004,8.599491e-005
4.848377e-004,1.383420e-004
5.370228e-004,1.722137e-004
5.822390e-004,2.005751e-004
6.084936e-004,2.276400e-004
6.052523e-004,2.508154e-004
5.673291e-004,2.683184e-004
5.037994e-004,2.782044e-004
4.357320e-004,2.786906e-004
3.807918e-004,2.696149e-004
3.503235e-004,2.548670e-004
3.427064e-004,2.359053e-004
3.418961e-004,2.057612e-004
3.256896e-004,1.590864e-004
2.731804e-004,1.022014e-004
1.811273e-004,4.855782e-005
7.059870e-005,1.257933e-005
-2.501983e-005,-6.176923e-008
-8.271508e-005,8.365628e-006
-9.454584e-005,2.862379e-005
-5.629843e-005,5.406805e-005
3.348575e-005,8.097089e-005
1.642725e-004,1.060910e-004
3.080244e-004,1.250527e-004
4.242253e-004,1.323456e-004
4.828930e-004,1.219734e-004
4.738173e-004,8.858796e-005
4.098015e-004,3.705119e-005
3.091589e-004,-1.724069e-005
1.874478e-004,-5.808115e-005
6.314371e-005,-7.590833e-005
-4.835723e-005,-7.428768e-005
-1.485136e-004,-5.581224e-005
-2.535319e-004,-2.501983e-005
-3.750809e-004,1.241726e-005
-5.120260e-004,4.807163e-005
-6.458919e-004,7.497447e-005
-7.552860e-004,9.377405e-005
-8.139536e-004,1.093323e-004
-8.142778e-004,1.258630e-004
-7.763545e-004,1.495245e-004
-7.348658e-004,1.780480e-004
-7.257902e-004,2.041405e-004
-7.755441e-004,2.203471e-004
-8.898002e-004,2.273159e-004
-1.033552e-003,2.227780e-004
-1.154615e-003,2.026820e-004
-1.215065e-003,1.723757e-004
-1.185083e-003,1.414213e-004
-1.057052e-003,1.172735e-004
-8.450702e-004,1.010670e-004
-5.880346e-004,9.231547e-005
-3.339163e-004,8.469840e-005
-1.255003e-004,7.335382e-005
2.262737e-005,5.568870e-005
1.172735e-004,3.364782e-005
1.731861e-004,1.176900e-005
2.030061e-004,7.485573e-007
2.174299e-004,3.827798e-006
2.299089e-004,1.436204e-005
2.663736e-004,2.862379e-005
3.459477e-004,4.418206e-005
4.597176e-004,5.860587e-005
5.786736e-004,6.832980e-005
6.704027e-004,7.610893e-005
7.076777e-004,7.886404e-005
6.723474e-004,6.962632e-005
5.486915e-004,5.196120e-005
3.346032e-004,3.769945e-005
5.649903e-005,3.089270e-005
-2.353806e-004,2.894792e-005
-4.857715e-004,2.781346e-005
-6.463781e-004,2.862379e-005
-6.836532e-004,3.299956e-005
-5.865761e-004,3.948217e-005
-3.872357e-004,4.223728e-005
-1.408965e-004,4.158902e-005
1.030118e-004,3.769945e-005
3.158036e-004,3.526847e-005
4.908342e-004,3.932010e-005
6.308586e-004,4.645098e-005
7.387943e-004,5.293359e-005
8.115617e-004,5.779555e-005
8.394369e-004,6.136099e-005
8.138305e-004,6.119892e-005
7.321496e-004,5.568870e-005
6.036317e-004,4.499239e-005
4.475627e-004,3.721326e-005
2.837146e-004,3.721326e-005
1.222975e-004,4.272347e-005
-4.641245e-005,4.628891e-005
-2.502906e-004,4.369587e-005
-5.006815e-004,3.867184e-005
-7.641996e-004,3.170303e-005
-9.565711e-004,2.068259e-005
-9.912531e-004,8.365628e-006
-8.267568e-004,-2.238345e-007
-4.938747e-004,7.485573e-007
-7.266703e-005,1.079661e-005
3.555096e-004,2.343770e-005
7.459251e-004,3.494434e-005
1.083670e-003,4.661304e-005
1.347999e-003,5.666109e-005
1.516223e-003,6.395403e-005
1.572135e-003,6.800567e-005
1.516709e-003,7.092283e-005
1.364043e-003,7.384001e-005
1.142500e-003,7.691926e-005
8.927564e-004,7.886404e-005
6.614891e-004,7.465034e-005
4.911583e-004,5.909207e-005
4.039671e-004,3.445814e-005
3.801435e-004,1.079661e-005
3.747953e-004,-4.599598e-006
3.427064e-004,-1.010982e-005
2.563256e-004,-4.599598e-006
1.221355e-004,4.962256e-006
-2.907146e-005,1.549650e-005
-1.614788e-004,2.441009e-005
-2.522354e-004,3.056858e-005
-3.094444e-004,3.218923e-005
-3.603329e-004,2.441009e-005
-4.066836e-004,5.934647e-006
-4.120317e-004,-2.031993e-005
-3.253268e-004,-4.738484e-005
-1.430034e-004,-7.039811e-005
6.411610e-005,-8.514606e-005
2.020337e-004,-9.000801e-005
2.166196e-004,-8.628051e-005
1.208390e-004,-7.461181e-005
-3.134038e-005,-5.694669e-005
-1.749302e-004,-3.247483e-005
-2.609869e-004,1.883015e-006
-2.750866e-004,4.612685e-005
-2.337599e-004,8.907416e-005
-1.639098e-004,1.143563e-004
-8.482193e-005,1.133840e-004
-5.896120e-006,9.393611e-005
7.481241e-005,6.735740e-005
1.592484e-004,4.499239e-005
2.491947e-004,3.105477e-005
3.378445e-004,2.473422e-005
4.112601e-004,2.003433e-005
4.608521e-004,1.371378e-005
4.822447e-004,6.258778e-006
4.777069e-004,-2.330684e-006
4.422145e-004,-1.254080e-005
3.624784e-004,-2.583015e-005
2.219677e-004,-4.560212e-005
4.638125e-006,-6.861539e-005
-2.857829e-004,-8.984595e-005
-6.228787e-004,-1.032974e-004
-9.593262e-004,-1.028112e-004
-1.233216e-003,-8.676671e-005
-1.395282e-003,-5.986387e-005
-1.427695e-003,-2.534396e-005
-1.342449e-003,1.257933e-005
-1.162718e-003,5.131293e-005
-9.082756e-004,8.194328e-005
-5.779866e-004,9.798775e-005
-1.515928e-004,1.007429e-004
3.571302e-004,9.328785e-005
8.494850e-004,7.643306e-005
1.177668e-003,5.941620e-005
1.218022e-003,4.839576e-005
9.365141e-004,4.013043e-005
4.261701e-004,3.591673e-005
-1.363587e-004,3.883391e-005
-5.841451e-004,4.596478e-005
-8.280533e-004,5.179913e-005
-8.641938e-004,5.147500e-005
-7.476689e-004,4.450619e-005
-5.575664e-004,3.543053e-005
-3.669776e-004,3.299956e-005
-2.151224e-004,4.256141e-005
-1.084835e-004,6.330577e-005
-3.766092e-005,8.712937e-005
7.717366e-006,1.031738e-004
3.348575e-005,1.043083e-004
5.811968e-005,9.328785e-005
1.000946e-004,7.756751e-005
1.663793e-004,6.784360e-005
2.556773e-004,7.076077e-005
3.636129e-004,8.226741e-005
4.862963e-004,9.620503e-005
6.300483e-004,1.026876e-004
8.039446e-004,9.879807e-005
1.006040e-003,8.939829e-005
1.207164e-003,8.064676e-005
1.360640e-003,7.691926e-005
1.407153e-003,7.367795e-005
1.285765e-003,6.962632e-005
9.770305e-004,6.865393e-005
5.247058e-004,6.768153e-005
2.311357e-005,6.006446e-005
-4.251590e-004,4.483032e-005
-7.544757e-004,3.056858e-005
-9.640261e-004,2.441009e-005
-1.090113e-003,2.732727e-005
-1.170173e-003,3.494434e-005
-1.216038e-003,4.531652e-005
-1.221386e-003,5.941620e-005
-1.170173e-003,7.578480e-005
-1.055755e-003,8.891209e-005
-8.789418e-004,9.393611e-005
-6.614502e-004,9.134307e-005
-4.382863e-004,8.648111e-005
-2.423494e-004,8.421220e-005
-9.000801e-005,8.777764e-005
2.408596e-005,9.247753e-005
1.081979e-004,9.280166e-005
1.730240e-004,9.085687e-005
2.312054e-004,8.696730e-005
2.877662e-004,8.259154e-005
3.376824e-004,7.935023e-005
3.707437e-004,7.967437e-005
3.816021e-004,9.020861e-005
3.707437e-004,1.122495e-004
3.530786e-004,1.406109e-004
3.370341e-004,1.675138e-004
3.279585e-004,1.890685e-004
3.268240e-004,2.033302e-004
3.276343e-004,2.059233e-004
3.266619e-004,1.929580e-004
3.326584e-004,1.642725e-004
3.610198e-004,1.253768e-004
4.187151e-004,8.259154e-005
4.995857e-004,4.320967e-005
5.913147e-004,1.160693e-005
6.791542e-004,-6.058186e-006
7.472216e-004,-5.085794e-006
7.776900e-004,1.063454e-005
7.650488e-004,3.008238e-005
7.139983e-004,4.580272e-005
6.347482e-004,5.309565e-005
5.391297e-004,5.017848e-005
4.394594e-004,3.850977e-005
3.508097e-004,2.797553e-005
2.911697e-004,2.716520e-005
2.748010e-004,3.705119e-005
3.047831e-004,5.147500e-005
3.563199e-004,5.828174e-005
3.744712e-004,4.596478e-005
2.953833e-004,7.393235e-006
9.993253e-005,-4.592625e-005
-1.710407e-004,-9.162867e-005
-4.392587e-004,-1.096179e-004
-6.261200e-004,-9.357345e-005
-6.781429e-004,-4.997788e-005
-5.844692e-004,-1.358292e-006
-3.752429e-004,3.559260e-005
-1.032974e-004,5.277152e-005
1.754550e-004,5.017848e-005
4.166082e-004,3.218923e-005
5.958526e-004,2.369210e-006
7.034640e-004,-2.955766e-005
7.378219e-004,-5.921561e-005
7.060570e-004,-8.530812e-005
6.167590e-004,-1.070249e-004
4.582590e-004,-1.214487e-004
1.858272e-004,-1.196660e-004
-2.431597e-004,-9.616650e-005
-8.228672e-004,-5.889147e-005
-1.475180e-003,-1.918548e-005
-2.067691e-003,1.209313e-005
-2.465562e-003,3.510640e-005
-2.579332e-003,5.017848e-005
-2.398143e-003,5.974033e-005
-1.997031e-003,6.719534e-005
-1.501759e-003,7.610893e-005
-1.043762e-003,8.777764e-005
-7.144455e-004,1.005808e-004
-5.334187e-004,1.049566e-004
-4.538446e-004,9.652916e-005
-4.002010e-004,7.659513e-005
-3.167374e-004,5.536457e-005
-1.864369e-004,4.483032e-005
-1.578211e-005,4.742337e-005
1.853410e-004,6.038860e-005
4.041292e-004,7.627100e-005
6.224313e-004,8.793970e-005
8.183684e-004,9.101894e-005
9.715203e-004,8.194328e-005
1.067301e-003,6.298164e-005
1.098256e-003,4.077869e-005
1.064384e-003,1.922400e-005
9.664962e-004,-5.479652e-007
8.117237e-004,-1.594417e-005
6.185417e-004,-2.518189e-005
4.041292e-004,-2.923352e-005
1.877719e-004,-3.134038e-005
8.689757e-006,-2.923352e-005
-9.762508e-005,-2.793700e-005
-1.264727e-004,-2.923352e-005
-1.076731e-004,-3.036798e-005
-9.098041e-005,-2.939559e-005
-1.117248e-004,-2.469570e-005
-1.734716e-004,-1.513384e-005
-2.671454e-004,9.106226e-007
-3.781601e-004,2.214118e-005
-4.815578e-004,4.142695e-005
-5.311497e-004,5.504044e-005
-4.784785e-004,6.233338e-005
-2.901587e-004,6.055066e-005
2.522042e-005,5.017848e-005
4.054257e-004,3.494434e-005
7.412253e-004,2.149292e-005
9.267902e-004,1.193106e-005
9.060458e-004,7.393235e-006
7.018433e-004,8.041497e-006
4.164462e-004,1.484824e-005
1.777239e-004,2.732727e-005
7.659513e-005,4.223728e-005
1.313732e-004,5.147500e-005
3.060797e-004,5.487837e-005
5.281092e-004,5.666109e-005
7.010330e-004,5.844381e-005
7.365253e-004,5.795762e-005
5.937457e-004,5.406805e-005
3.102933e-004,5.131293e-005
-1.358292e-006,5.131293e-005
-2.071812e-004,5.309565e-005
-2.246843e-004,5.455424e-005
-5.565017e-005,5.147500e-005
2.297469e-004,4.239934e-005
5.357263e-004,3.137890e-005
7.772038e-004,2.376183e-005
8.959977e-004,2.846173e-005
8.807636e-004,4.790957e-005
7.650488e-004,7.918817e-005
6.034696e-004,1.125736e-004
4.439973e-004,1.354248e-004
3.187208e-004,1.393144e-004
2.441707e-004,1.266733e-004
2.184023e-004,1.052807e-004
2.154851e-004,8.080882e-005
1.992786e-004,5.747142e-005
1.496866e-004,3.607880e-005
7.302969e-005,2.214118e-005
-6.382316e-006,2.230324e-005
-5.905355e-005,4.029249e-005
-7.315322e-005,7.221937e-005
-5.808115e-005,1.091703e-004
-2.907146e-005,1.436902e-004
4.313994e-006,1.686482e-004
3.769945e-005,1.812893e-004
5.860587e-005,1.811273e-004
5.974033e-005,1.739964e-004
3.980630e-005,1.712413e-004
7.393235e-006,1.712413e-004
-1.967167e-005,1.641104e-004
-3.020592e-005,1.433660e-004
-2.939559e-005,1.125736e-004
-4.803310e-005,7.918817e-005
-1.282554e-004,4.823369e-005
-2.733039e-004,2.505835e-005
-4.285624e-004,9.338019e-006
-4.951712e-004,3.665733e-006
-4.049009e-004,4.476060e-006
-1.716889e-004,7.879431e-006
1.124116e-004,1.306552e-005
3.337928e-004,1.792748e-005
4.088291e-004,2.100672e-005
3.263378e-004,2.133085e-005
1.428798e-004,1.954813e-005
-6.748093e-005,1.727922e-005
-2.480217e-004,2.149292e-005
-3.776739e-004,3.397195e-005
-4.604893e-004,5.504044e-005
-5.071640e-004,7.870197e-005
-5.335807e-004,9.733949e-005
-5.407116e-004,1.080358e-004
-5.167259e-004,1.116012e-004
-4.510895e-004,1.096565e-004
-3.420196e-004,1.059289e-004
-2.015089e-004,9.993253e-005
-4.851930e-005,8.875003e-005
9.118101e-005,6.476436e-005
2.008992e-004,2.181705e-005
2.796630e-004,-3.798505e-005
3.331445e-004,-1.096179e-004
3.676645e-004,-1.807646e-004
3.833848e-004,-2.355427e-004
3.825745e-004,-2.656868e-004
3.731747e-004,-2.708729e-004
3.675024e-004,-2.519113e-004
3.671783e-004,-2.107467e-004
3.660438e-004,-1.593720e-004
3.619922e-004,-1.125351e-004
3.512959e-004,-8.514606e-005
3.357376e-004,-7.590833e-005
3.148312e-004,-7.412562e-005
2.748010e-004,-6.715681e-005
1.906891e-004,-4.527799e-005
3.332369e-005,-1.059601e-005
-1.942160e-004,2.992031e-005
-4.587065e-004,6.800567e-005
-7.082871e-004,9.571883e-005
-8.841279e-004,1.039842e-004
-9.525195e-004,9.523264e-005
-9.202685e-004,8.113296e-005
-8.361566e-004,7.286762e-005
-7.685754e-004,7.918817e-005
-7.549619e-004,9.993253e-005
-7.795958e-004,1.297525e-004
-8.050401e-004,1.603829e-004
-7.928851e-004,1.853410e-004
-7.137973e-004,2.033302e-004
-5.603214e-004,2.164575e-004
-3.455850e-004,2.229401e-004
-9.973194e-005,2.184023e-004
1.402868e-004,2.005751e-004
3.493511e-004,1.720516e-004
5.198439e-004,1.423936e-004
6.600305e-004,1.143563e-004
7.844967e-004,9.361198e-005
8.969702e-004,8.226741e-005
9.933992e-004,7.967437e-005
1.068760e-003,8.599491e-005
1.110897e-003,1.002567e-004
1.090314e-003,1.179218e-004
9.736271e-004,1.312111e-004
7.446286e-004,1.331559e-004
4.253598e-004,1.252147e-004
7.400208e-005,1.112771e-004
-2.365150e-004,9.409818e-005
-4.441207e-004,7.659513e-005
-5.233706e-004,6.071273e-005
-4.870680e-004,4.936815e-005
-3.812393e-004,4.871989e-005
-2.645523e-004,6.087479e-005
-1.757406e-004,7.983643e-005
-1.305243e-004,9.928427e-005
-1.169109e-004,1.132219e-004
-1.143178e-004,1.163011e-004
-1.045939e-004,1.093323e-004
-8.093235e-005,9.766362e-005
-5.386745e-005,8.761556e-005
-4.317114e-005,8.291567e-005
-6.845333e-005,8.810177e-005
-1.428413e-004,1.013911e-004
-2.575835e-004,1.169494e-004
-3.838324e-004,1.203528e-004
-4.932265e-004,1.036600e-004
-5.679386e-004,7.124698e-005
-5.951655e-004,3.478227e-005
-5.663179e-004,3.827798e-006
-4.835025e-004,-1.302699e-005
-3.570916e-004,-1.529591e-005
-2.032917e-004,-8.165034e-006
-2.566809e-005,2.207145e-006
1.783722e-004,1.306552e-005
3.955397e-004,1.889987e-005
5.995801e-004,2.230324e-005
7.595387e-004,2.586868e-005
8.533745e-004,2.829966e-005
8.754155e-004,2.505835e-005
8.394369e-004,1.338965e-005
7.755831e-004,-5.479652e-007
7.151327e-004,-1.043395e-005
6.684579e-004,-1.302699e-005
6.227554e-004,-1.221667e-005
5.550120e-004,-1.221667e-005
4.417284e-004,-1.691656e-005
2.694529e-004,-2.291298e-005
3.607880e-005,-2.599222e-005
-2.441321e-004,-2.420950e-005
-5.292050e-004,-1.853721e-005
-7.692236e-004,-1.205460e-005
-9.306406e-004,-7.354708e-006
-1.005029e-003,-6.058186e-006
-1.012322e-003,-9.947754e-006
-9.915772e-004,-1.756482e-005
-9.792602e-004,-2.955766e-005
-9.700225e-004,-4.268495e-005
-9.079515e-004,-4.932962e-005
-7.277349e-004,-5.095028e-005
-4.055491e-004,-4.787104e-005
3.591673e-005,-4.511592e-005
5.725151e-004,-4.722277e-005
1.186743e-003,-5.224680e-005
1.844892e-003,-6.018800e-005
2.461391e-003,-6.326724e-005
2.913880e-003,-5.775702e-005
3.082105e-003,-4.365734e-005
2.905777e-003,-2.664048e-005
2.431247e-003,-1.351319e-005
1.772773e-003,5.864920e-007
1.046557e-003,2.133085e-005
3.589129e-004,4.645098e-005
-2.049123e-004,7.076077e-005
-5.857657e-004,8.648111e-005
-7.703581e-004,8.729143e-005
-8.024470e-004,6.816773e-005
-7.637134e-004,3.186510e-005
-7.319486e-004,-8.165034e-006
-7.591756e-004,-3.441962e-005
-8.465288e-004,-3.620233e-005
-9.502505e-004,-1.432352e-005
-1.017508e-003,2.003433e-005
-1.026421e-003,5.747142e-005
-9.922255e-004,8.259154e-005
-9.442541e-004,8.858796e-005
-9.061688e-004,7.805372e-005
-8.983896e-004,5.212327e-005
-9.379336e-004,1.387585e-005
-1.034687e-003,-2.761287e-005
-1.182328e-003,-5.856734e-005
-1.338883e-003,-6.877746e-005
-1.438715e-003,-5.613637e-005
-1.410516e-003,-2.356124e-005
-1.218144e-003,2.311357e-005
-8.778074e-004,7.367795e-005
-4.497929e-004,1.156529e-004
-1.092015e-005,1.417454e-004
3.814400e-004,1.548727e-004
6.971434e-004,1.650828e-004
9.287350e-004,1.748067e-004
1.069894e-003,1.830720e-004
1.122403e-003,1.884202e-004
1.098256e-003,1.903650e-004
1.013171e-003,1.879340e-004
8.940530e-004,1.843686e-004
7.631041e-004,1.785342e-004
6.328034e-004,1.652449e-004
5.050959e-004,1.443384e-004
3.825745e-004,1.195424e-004
2.803112e-004,9.263960e-005
2.162954e-004,6.606088e-005
1.924718e-004,4.191315e-005
1.927960e-004,2.327564e-005
2.049509e-004,9.824214e-006
2.222919e-004,5.864920e-007
2.406053e-004,-4.923729e-006
2.558394e-004,-8.165034e-006
2.641047e-004,-7.354708e-006
2.673460e-004,-5.896120e-006
2.670219e-004,-1.059601e-005
2.615117e-004,-1.756482e-005
2.449810e-004,-2.210265e-005
2.156472e-004,-2.501983e-005
1.812893e-004,-2.745081e-005
1.513072e-004,-2.745081e-005
1.235941e-004,-2.420950e-005
9.798775e-005,-1.805102e-005
7.529860e-005,-6.382316e-006
5.585077e-005,9.824214e-006
3.786152e-005,2.554455e-005
2.262737e-005,3.705119e-005
1.792748e-005,4.499239e-005
3.510640e-005,4.742337e-005
8.032263e-005,4.839576e-005
1.438522e-004,4.628891e-005
2.098128e-004,4.126489e-005
2.673460e-004,3.575467e-005
3.068900e-004,3.899597e-005
3.252033e-004,5.260946e-005
3.299032e-004,7.221937e-005
3.277964e-004,8.712937e-005
3.240689e-004,8.842590e-005
3.268240e-004,7.578480e-005
3.409237e-004,5.585077e-005
3.649094e-004,3.818564e-005
3.885709e-004,3.154097e-005
3.971604e-004,3.218923e-005
3.767402e-004,3.397195e-005
3.269861e-004,3.510640e-005
2.671840e-004,4.256141e-005
2.216436e-004,5.617490e-005
1.994406e-004,7.140904e-005
1.940925e-004,8.469840e-005
1.858272e-004,9.442231e-005
1.633001e-004,9.960840e-005
1.248906e-004,1.030118e-004
7.772959e-005,1.078737e-004
2.489629e-005,1.127357e-004
-3.814712e-005,1.148425e-004
-1.206384e-004,1.103047e-004
-2.386219e-004,9.896014e-005
-4.024699e-004,8.810177e-005
-6.019723e-004,8.372600e-005
-7.880232e-004,8.745350e-005
-9.003344e-004,9.798775e-005
-9.008206e-004,1.111150e-004
-7.936954e-004,1.188942e-004
-6.225546e-004,1.167873e-004
-4.457413e-004,1.065772e-004
-3.131719e-004,9.280166e-005
-2.446183e-004,8.080882e-005
-2.301945e-004,7.562274e-005
-2.486699e-004,7.610893e-005
-2.791382e-004,7.367795e-005
-3.063652e-004,6.119892e-005
-3.284061e-004,4.142695e-005
-3.538503e-004,1.938607e-005
-3.914495e-004,-4.275467e-006
-4.284004e-004,-2.599222e-005
-4.068456e-004,-4.074016e-005
-2.632558e-004,-4.641245e-005
1.031041e-005,-4.641245e-005
3.561578e-004,-4.479180e-005
6.794783e-004,-4.414354e-005
8.830325e-004,-4.365734e-005
9.138250e-004,-4.544005e-005
7.841726e-004,-5.095028e-005
5.537155e-004,-5.921561e-005
3.013797e-004,-6.342930e-005
8.858796e-005,-5.532604e-005
-5.030201e-005,-3.328516e-005
-1.073490e-004,-4.761663e-006
-1.042698e-004,2.133085e-005
-7.039811e-005,3.915804e-005
-2.955766e-005,4.547859e-005
4.962256e-006,4.580272e-005
2.700314e-005,4.499239e-005
3.688912e-005,4.369587e-005
4.126489e-005,4.256141e-005
4.953022e-005,4.369587e-005
7.189524e-005,4.969228e-005
1.116012e-004,6.217131e-005
1.671896e-004,7.465034e-005
2.303951e-004,7.724339e-005
2.864697e-004,6.087479e-005
3.232586e-004,2.910999e-005
3.462718e-004,-3.303075e-006
3.658818e-004,-1.756482e-005
3.877606e-004,-7.100305e-007
4.120704e-004,4.742337e-005
4.461041e-004,1.098185e-004
4.943996e-004,1.668655e-004
5.577672e-004,1.994406e-004
6.294001e-004,2.026820e-004
6.794783e-004,1.814514e-004
6.648924e-004,1.495245e-004
5.498260e-004,1.214872e-004
3.260137e-004,9.588090e-005
5.124321e-006,6.622294e-005
-3.882081e-004,3.024445e-005
-8.022850e-004,-5.409925e-006
-1.172118e-003,-3.296103e-005
-1.448925e-003,-4.641245e-005
-1.621039e-003,-4.641245e-005
-1.707582e-003,-3.279896e-005
-1.730433e-003,-6.382316e-006
-1.696724e-003,2.748933e-005
-1.606129e-003,6.314371e-005
-1.452653e-003,9.539470e-005
-1.238565e-003,1.163011e-004
-9.789361e-004,1.218114e-004
-7.001838e-004,1.075496e-004
-4.314796e-004,7.691926e-005
-2.021572e-004,4.045456e-005
-3.085418e-005,9.175954e-006
7.238143e-005,-1.367526e-005
1.119254e-004,-3.198863e-005
1.062531e-004,-4.689864e-005
9.652916e-005,-6.197072e-005
1.331559e-004,-8.158062e-005
2.605393e-004,-1.076731e-004
4.872688e-004,-1.340898e-004
7.775279e-004,-1.520790e-004
1.074756e-003,-1.566169e-004
1.322554e-003,-1.486757e-004
1.474248e-003,-1.311726e-004
1.511199e-003,-1.076731e-004
1.443779e-003,-8.271508e-005
1.296624e-003,-5.872941e-005
1.087235e-003,-3.539201e-005
8.303613e-004,-1.189254e-005
5.405883e-004,1.517237e-005
2.384984e-004,4.839576e-005
-6.294311e-005,8.161915e-005
-3.588744e-004,1.044704e-004
-6.384369e-004,1.151667e-004
-8.779694e-004,1.184080e-004
-1.035659e-003,1.224596e-004
-1.067100e-003,1.329939e-004
-9.543022e-004,1.558451e-004
-7.157421e-004,1.884202e-004
-3.839945e-004,2.243987e-004
1.209313e-005,2.555152e-004
4.266563e-004,2.713976e-004
7.947068e-004,2.691287e-004
1.043802e-003,2.568118e-004
1.119648e-003,2.459534e-004
1.015764e-003,2.423880e-004
7.880622e-004,2.438465e-004
5.182232e-004,2.538946e-004
2.773941e-004,2.675081e-004
1.124116e-004,2.738286e-004
3.073064e-005,2.607013e-004
6.258778e-006,2.221298e-004
1.396819e-006,1.584381e-004
-8.651231e-006,8.307774e-005
-3.847125e-005,1.290346e-005
-7.995997e-005,-4.074016e-005
-1.094559e-004,-7.526008e-005
-1.144799e-004,-8.919769e-005
-9.778715e-005,-8.498399e-005
-6.245691e-005,-6.991192e-005
-1.643037e-005,-4.981582e-005
3.056858e-005,-2.842320e-005
8.113296e-005,-6.706447e-006
1.454729e-004,1.290346e-005
2.268297e-004,2.943412e-005
3.276343e-004,4.013043e-005
4.422145e-004,3.996836e-005
5.587395e-004,2.910999e-005
6.585718e-004,1.225519e-005
7.250187e-004,-6.868512e-006
7.483561e-004,-2.275091e-005
7.293944e-004,-3.117831e-005
6.785059e-004,-3.004385e-005
6.096281e-004,-2.437157e-005
5.337815e-004,-1.999580e-005
4.559901e-004,-1.934754e-005
3.790091e-004,-2.194059e-005
3.089968e-004,-3.296103e-005
2.509774e-004,-5.240886e-005
2.013854e-004,-7.201877e-005
1.500107e-004,-8.352540e-005
8.956035e-005,-8.417366e-005
2.019640e-005,-6.910160e-005
-5.224680e-005,-3.604027e-005
-1.157764e-004,1.549650e-005
-1.630995e-004,7.691926e-005
-2.034537e-004,1.351007e-004
-2.379736e-004,1.817755e-004
-2.569353e-004,2.141886e-004
-2.464010e-004,2.349330e-004
-1.959987e-004,2.503292e-004
-1.062145e-004,2.636185e-004
1.257933e-005,2.741528e-004
1.448246e-004,2.726942e-004
2.718839e-004,2.600531e-004
3.790091e-004,2.410914e-004
4.566384e-004,2.166196e-004
4.901859e-004,1.851789e-004
4.665244e-004,1.391524e-004
3.709058e-004,6.946425e-005
1.957131e-004,-2.647842e-005
-5.727082e-005,-1.470550e-004
-3.732981e-004,-2.820554e-004
-7.235212e-004,-4.165696e-004
-1.073096e-003,-5.290429e-004
-1.392851e-003,-5.987309e-004
-1.654100e-003,-6.074825e-004
-1.818597e-003,-5.463838e-004
-1.839341e-003,-4.204591e-004
-1.686675e-003,-2.558008e-004
-1.373079e-003,-8.854943e-005
-9.568952e-004,5.568870e-005
-5.063537e-004,1.598967e-004
-7.769105e-005,2.177540e-004
2.929523e-004,2.346088e-004
5.827252e-004,2.234263e-004
7.738004e-004,1.992786e-004
8.575883e-004,1.726999e-004
8.391127e-004,1.516314e-004
7.404149e-004,1.380179e-004
5.924492e-004,1.305629e-004
4.324906e-004,1.242423e-004
2.880904e-004,1.111150e-004
1.791825e-004,8.421220e-005
1.135460e-004,4.742337e-005
9.377405e-005,9.824214e-006
1.067393e-004,-1.740276e-005
1.278078e-004,-2.323711e-005
1.316973e-004,-9.137427e-006
1.081979e-004,1.014835e-005
6.022653e-005,2.586868e-005
3.989864e-006,3.640293e-005
-4.187462e-005,4.272347e-005
-5.791909e-005,4.450619e-005
-3.652646e-005,4.256141e-005
1.614476e-005,3.899597e-005
8.307774e-005,4.029249e-005
1.440143e-004,4.774750e-005
1.984682e-004,5.990240e-005
2.618358e-004,7.027457e-005
3.488649e-004,7.481241e-005
4.546936e-004,6.946425e-005
5.533914e-004,6.006446e-005
6.230795e-004,5.358185e-005
6.469032e-004,5.260946e-005
6.118970e-004,5.601283e-005
5.002340e-004,6.233338e-005
3.096451e-004,7.092283e-005
7.108490e-005,7.691926e-005
-1.703924e-004,7.724339e-005
-3.692465e-004,7.173317e-005
-5.011677e-004,6.119892e-005
-5.804176e-004,4.936815e-005
-6.520504e-004,4.320967e-005
-7.538274e-004,4.515445e-005
-8.701903e-004,5.277152e-005
-9.361508e-004,6.411610e-005
-8.805625e-004,7.351588e-005
-6.697155e-004,7.870197e-005
-3.233821e-004,7.837785e-005
8.745350e-005,7.659513e-005
4.734932e-004,8.194328e-005
7.744486e-004,1.004187e-004
9.724927e-004,1.269974e-004
1.065680e-003,1.509831e-004
1.038939e-003,1.639483e-004
8.807636e-004,1.641104e-004
6.034696e-004,1.537382e-004
2.665357e-004,1.380179e-004
-5.305713e-005,1.214872e-004
-3.115513e-004,1.080358e-004
-5.089468e-004,9.717742e-005
-6.454058e-004,8.550872e-005
-6.867324e-004,7.124698e-005
-5.995412e-004,5.439218e-005
-4.036044e-004,3.899597e-005
-1.877334e-004,2.781346e-005
-7.282909e-005,2.133085e-005
-1.350622e-004,2.214118e-005
-3.392644e-004,2.927205e-005
-5.831727e-004,3.867184e-005
-7.663065e-004,4.142695e-005
-8.381014e-004,3.688912e-005
-8.022850e-004,3.024445e-005
-6.949977e-004,2.554455e-005
-5.643732e-004,2.586868e-005
-4.405552e-004,3.251336e-005
-3.292164e-004,4.337174e-005
-2.219292e-004,5.358185e-005
-1.073490e-004,6.298164e-005
2.392390e-005,6.768153e-005
1.761032e-004,6.784360e-005
3.506476e-004,6.541262e-005
5.556603e-004,6.444023e-005
7.981102e-004,6.184718e-005
1.059522e-003,5.212327e-005
1.284793e-003,3.769945e-005
1.404397e-003,2.392390e-005
1.382519e-003,1.889987e-005
1.244439e-003,2.505835e-005
1.054822e-003,4.142695e-005
8.862738e-004,6.622294e-005
7.880622e-004,9.118101e-005
7.728280e-004,1.091703e-004
8.175580e-004,1.153287e-004
8.898393e-004,1.107909e-004
9.541793e-004,9.782569e-005
9.818925e-004,8.210535e-005
9.499656e-004,6.768153e-005
8.371680e-004,5.568870e-005
6.237278e-004,4.823369e-005
3.136967e-004,4.515445e-005
-5.435365e-005,4.110282e-005
-4.206212e-004,3.348575e-005
-7.170386e-004,2.133085e-005
-9.045481e-004,6.096713e-006
-9.802326e-004,-9.785687e-006
-9.662950e-004,-2.453363e-005
-8.941760e-004,-3.830918e-005
-8.024470e-004,-5.629843e-005
-7.129869e-004,-7.801519e-005
-6.348715e-004,-9.649063e-005
-5.728005e-004,-1.065387e-004
-5.207775e-004,-1.045939e-004
-4.606513e-004,-9.114247e-005
-3.723257e-004,-7.250496e-005
-2.444563e-004,-5.970180e-005
-7.995997e-005,-5.937767e-005
1.002567e-004,-7.104637e-005
2.608634e-004,-8.887356e-005
3.700955e-004,-1.078352e-004
4.145014e-004,-1.256624e-004
3.926225e-004,-1.438137e-004
3.205035e-004,-1.626133e-004
2.231022e-004,-1.734716e-004
1.232699e-004,-1.643960e-004
3.316162e-005,-1.269589e-004
-5.078821e-005,-6.018800e-005
-1.295519e-004,2.781346e-005
-1.961608e-004,1.318594e-004
-2.407287e-004,2.524360e-004
-2.577456e-004,3.922984e-004
-2.465631e-004,5.389676e-004
-2.194982e-004,6.645683e-004
-1.904885e-004,7.430080e-004
-1.661787e-004,7.559732e-004
-1.421931e-004,7.055708e-004
-1.071869e-004,6.109247e-004
-5.402952e-005,4.987753e-004
1.695509e-005,3.851675e-004
9.928427e-005,2.770700e-004
1.817755e-004,1.778859e-004
2.592428e-004,9.409818e-005
3.308756e-004,3.137890e-005
3.982948e-004,-9.299492e-006
4.631210e-004,-3.522994e-005
5.242196e-004,-5.354332e-005
5.822390e-004,-7.266703e-005
6.345861e-004,-9.454584e-005
6.674855e-004,-1.193418e-004
6.657027e-004,-1.438137e-004
6.157866e-004,-1.619650e-004
5.229231e-004,-1.689338e-004
4.072085e-004,-1.668270e-004
2.854973e-004,-1.592099e-004
1.707551e-004,-1.488377e-004
7.432621e-005,-1.363587e-004
3.989864e-006,-1.220969e-004
-4.171255e-005,-1.079973e-004
-6.731887e-005,-9.681476e-005
-7.704279e-005,-8.514606e-005
-8.060822e-005,-7.169464e-005
-8.952182e-005,-5.937767e-005
-1.091317e-004,-5.370539e-005
-1.347380e-004,-5.159854e-005
-1.697441e-004,-4.722277e-005
-2.180396e-004,-3.976777e-005
-2.626076e-004,-3.263690e-005
-2.660109e-004,-3.101624e-005
-2.078295e-004,-3.425755e-005
-9.292519e-005,-3.911951e-005
4.985435e-005,-4.462973e-005
1.871237e-004,-4.981582e-005
2.879283e-004,-5.289506e-005
3.334687e-004,-4.787104e-005
3.196932e-004,-3.668853e-005
2.525981e-004,-2.323711e-005
1.441764e-004,-1.513384e-005
1.396819e-006,-1.594417e-005
-1.741199e-004,-2.210265e-005
-3.741085e-004,-2.307504e-005
-5.736108e-004,-1.254080e-005
-7.468586e-004,5.286386e-006
-8.893140e-004,2.149292e-005
-1.023990e-003,2.359977e-005
-1.188162e-003,1.565857e-005
-1.393985e-003,8.527692e-006
-1.602077e-003,5.448451e-006
-1.733026e-003,3.665733e-006
-1.710337e-003,2.531276e-006
-1.515696e-003,4.313994e-006
-1.197886e-003,1.031041e-005
-8.356704e-004,1.922400e-005
-4.822060e-004,2.829966e-005
-1.553203e-004,3.915804e-005
1.488763e-004,4.904402e-005
4.255218e-004,5.325772e-005
6.655407e-004,4.953022e-005
8.569400e-004,4.175108e-005
9.828649e-004,3.283749e-005
1.030674e-003,2.376183e-005
1.003609e-003,1.419998e-005
9.217662e-004,8.365628e-006
8.165857e-004,8.041497e-006
7.203188e-004,1.176900e-005
6.473893e-004,2.068259e-005
5.973111e-004,3.364782e-005
5.548500e-004,5.017848e-005
5.012063e-004,6.427816e-005
4.337872e-004,7.076077e-005
3.636129e-004,6.849186e-005
3.122381e-004,6.038860e-005
2.965178e-004,4.807163e-005
3.167760e-004,3.299956e-005
3.590750e-004,1.808955e-005
4.063981e-004,9.662150e-006
4.418904e-004,7.231170e-006
4.553419e-004,9.106226e-007
4.404318e-004,-1.464765e-005
3.978086e-004,-3.992984e-005
3.449753e-004,-6.910160e-005
2.966798e-004,-8.854943e-005
2.675081e-004,-8.547019e-005
2.631323e-004,-5.581224e-005
2.822560e-004,-8.489165e-006
3.138588e-004,3.721326e-005
3.529165e-004,7.124698e-005
3.973224e-004,9.328785e-005
4.496696e-004,1.041462e-004
5.175750e-004,1.067393e-004
6.059006e-004,1.057669e-004
7.107570e-004,1.094944e-004
8.135064e-004,1.222975e-004
8.882186e-004,1.428798e-004
9.151215e-004,1.645966e-004
8.942151e-004,1.786963e-004
8.316578e-004,1.816135e-004
7.366874e-004,1.809652e-004
6.185417e-004,1.853410e-004
4.845136e-004,1.961993e-004
3.402754e-004,2.049509e-004
1.838824e-004,2.026820e-004
-6.382316e-006,1.898788e-004
-2.630937e-004,1.718895e-004
-6.039171e-004,1.547106e-004
-9.957909e-004,1.407730e-004
-1.356710e-003,1.320215e-004
-1.597539e-003,1.294284e-004
-1.637245e-003,1.308870e-004
-1.426885e-003,1.329939e-004
-1.007460e-003,1.313732e-004
-5.455735e-004,1.232699e-004
-2.668213e-004,1.127357e-004
-3.345645e-004,1.020394e-004
-7.478310e-004,9.296372e-005
-1.342773e-003,8.777764e-005
-1.885530e-003,8.696730e-005
-2.193940e-003,8.858796e-005
-2.205447e-003,9.247753e-005
-1.961862e-003,9.426025e-005
-1.562857e-003,8.793970e-005
-1.117826e-003,7.221937e-005
-7.136352e-004,5.568870e-005
-3.959873e-004,4.807163e-005
-1.715269e-004,4.871989e-005
-2.988179e-005,4.758544e-005
4.839576e-005,3.964423e-005
8.826383e-005,2.408596e-005
1.227837e-004,6.582909e-006
1.926339e-004,-8.651231e-006
3.286067e-004,-1.707863e-005
5.230852e-004,-1.675450e-005
7.371736e-004,-6.868512e-006
9.240351e-004,8.527692e-006
1.052067e-003,1.971020e-005
1.112193e-003,2.230324e-005
1.112355e-003,2.084466e-005
1.061143e-003,1.792748e-005
9.715203e-004,1.387585e-005
8.665019e-004,9.662150e-006
7.708832e-004,9.338019e-006
6.935780e-004,1.193106e-005
6.311828e-004,1.517237e-005
5.793219e-004,1.954813e-005
5.354022e-004,2.586868e-005
4.903480e-004,3.186510e-005
4.470765e-004,3.251336e-005
4.174185e-004,2.765140e-005
3.987810e-004,2.052053e-005
3.720402e-004,1.274139e-005
3.205035e-004,5.448451e-006
2.402811e-004,-2.238345e-007
1.462832e-004,-1.520357e-006
8.648111e-005,2.623614e-007
1.219734e-004,3.017472e-006
2.769079e-004,5.772582e-006
5.101199e-004,6.744974e-006
7.409011e-004,8.041497e-006
8.912979e-004,1.436204e-005
9.126905e-004,2.781346e-005
8.068617e-004,4.515445e-005
6.162728e-004,5.909207e-005
4.068843e-004,6.411610e-005
2.370398e-004,6.281957e-005
1.467694e-004,5.844381e-005
1.355869e-004,5.260946e-005
1.633001e-004,4.936815e-005
1.773998e-004,5.050261e-005
1.483901e-004,5.390598e-005
9.377405e-005,5.763348e-005
9.134307e-005,6.103685e-005
2.138645e-004,6.330577e-005
4.624727e-004,6.346784e-005
7.629420e-004,6.298164e-005
1.010902e-003,6.217131e-005
1.121269e-003,6.022653e-005
1.069084e-003,5.730935e-005
8.870841e-004,5.585077e-005
6.428515e-004,5.649903e-005
4.051016e-004,5.844381e-005
2.091646e-004,6.152305e-005
4.288554e-005,6.589881e-005
-1.272830e-004,6.719534e-005
-3.091203e-004,6.687120e-005
-4.835025e-004,6.395403e-005
-6.326025e-004,5.795762e-005
-7.470206e-004,5.001641e-005
-8.312946e-004,4.223728e-005
-8.961207e-004,4.029249e-005
-9.517092e-004,4.158902e-005
-1.006325e-003,4.239934e-005
-1.056727e-003,4.402000e-005
-1.096596e-003,4.645098e-005
-1.130953e-003,4.790957e-005
-1.158666e-003,4.936815e-005
-1.160125e-003,4.969228e-005
-1.110047e-003,4.628891e-005
-9.993564e-004,3.721326e-005
-8.418289e-004,2.295151e-005
-6.744154e-004,7.231170e-006
-5.415219e-004,-7.354708e-006
-4.721580e-004,-2.210265e-005
-4.711856e-004,-3.992984e-005
-5.191569e-004,-6.180866e-005
-5.739350e-004,-7.914964e-005
-5.964620e-004,-8.547019e-005
-5.671282e-004,-7.979790e-005
-4.822060e-004,-6.472583e-005
-3.465574e-004,-4.349527e-005
-1.707165e-004,-2.113026e-005
3.137890e-005,-9.137427e-006
2.414156e-004,-4.437533e-006
4.394594e-004,2.623614e-007
5.968249e-004,5.286386e-006
6.851506e-004,7.231170e-006
6.956849e-004,5.934647e-006
6.517651e-004,3.341602e-006
6.049282e-004,2.045080e-006
5.960146e-004,6.258778e-006
6.370172e-004,1.857574e-005
7.122156e-004,3.575467e-005
7.948689e-004,5.098881e-005
8.637467e-004,6.541262e-005
9.102596e-004,7.999850e-005
9.290591e-004,1.002567e-004
9.201455e-004,1.231079e-004
8.833566e-004,1.501728e-004
8.235545e-004,1.798307e-004
7.460872e-004,2.075439e-004
6.512789e-004,2.274780e-004
5.431813e-004,2.342847e-004
4.354078e-004,2.184023e-004
3.422202e-004,1.795066e-004
2.566497e-004,1.295905e-004
1.273216e-004,8.210535e-005
-1.173971e-004,4.547859e-005
-5.039228e-004,2.473422e-005
-9.646743e-004,1.971020e-005
-1.367082e-003,2.262737e-005
-1.587815e-003,2.554455e-005
-1.570312e-003,2.700314e-005
-1.357845e-003,2.910999e-005
-1.050083e-003,3.543053e-005
-7.402139e-004,4.402000e-005
-4.922540e-004,5.147500e-005
-3.303509e-004,5.358185e-005
-2.392702e-004,4.871989e-005
-1.799543e-004,4.239934e-005
-1.190177e-004,4.175108e-005
-4.608832e-005,5.309565e-005
2.100672e-005,7.059870e-005
4.953022e-005,8.469840e-005
2.797553e-005,8.712937e-005
-2.356124e-005,7.756751e-005
-6.780506e-005,6.298164e-005
-7.509801e-005,4.985435e-005
-3.830918e-005,3.834771e-005
3.850977e-005,2.781346e-005
1.436902e-004,1.695509e-005
2.547049e-004,6.907039e-006
3.498373e-004,-1.682422e-006
4.162841e-004,-1.075808e-005
4.511281e-004,-2.680255e-005
4.580969e-004,-5.240886e-005
4.482110e-004,-8.757703e-005
4.329768e-004,-1.277692e-004
4.224426e-004,-1.687718e-004
4.185530e-004,-2.049123e-004
4.170944e-004,-2.276015e-004
4.122324e-004,-2.311669e-004
4.002396e-004,-2.139880e-004
3.756057e-004,-1.771991e-004
3.393030e-004,-1.272830e-004
2.963557e-004,-7.688072e-005
2.553532e-004,-3.279896e-005
2.198609e-004,5.772582e-006
1.840444e-004,3.705119e-005
1.493625e-004,6.038860e-005
1.258630e-004,7.221937e-005
1.174356e-004,7.043664e-005
1.226217e-004,6.038860e-005
1.367214e-004,4.920609e-005
1.527658e-004,4.402000e-005
1.644345e-004,4.645098e-005
1.667035e-004,5.179913e-005
1.598967e-004,5.212327e-005
1.495245e-004,4.175108e-005
1.409351e-004,2.068259e-005
1.440143e-004,-1.034161e-006
1.633001e-004,-8.165034e-006
1.942546e-004,2.855406e-006
2.294227e-004,2.943412e-005
2.582704e-004,6.233338e-005
2.804733e-004,8.777764e-005
2.994350e-004,1.007429e-004
3.128864e-004,1.067393e-004
3.174242e-004,1.107909e-004
3.149932e-004,1.151667e-004
3.122381e-004,1.224596e-004
3.180725e-004,1.308870e-004
3.365479e-004,1.385041e-004
3.649094e-004,1.453108e-004
3.968363e-004,1.521176e-004
4.326527e-004,1.605450e-004
4.696036e-004,1.670276e-004
5.012063e-004,1.676758e-004
5.195197e-004,1.629759e-004
5.172509e-004,1.573037e-004
4.978030e-004,1.513072e-004
4.692795e-004,1.407730e-004
4.456179e-004,1.279698e-004
4.566384e-004,1.151667e-004
5.261644e-004,1.062531e-004
6.379896e-004,1.033359e-004
7.349047e-004,1.069013e-004
7.326358e-004,1.133840e-004
5.533914e-004,1.222975e-004
1.636242e-004,1.302387e-004
-3.920977e-004,1.334801e-004
-1.006811e-003,1.294284e-004
-1.558644e-003,1.198666e-004
-1.949383e-003,1.059289e-004
-2.138352e-003,8.858796e-005
-2.147103e-003,6.865393e-005
-2.039168e-003,4.855782e-005
-1.890716e-003,2.846173e-005
-1.759929e-003,6.258778e-006
-1.669821e-003,-1.432352e-005
-1.616987e-003,-2.890940e-005
-1.574040e-003,-3.425755e-005
-1.497707e-003,-3.409548e-005
-1.332238e-003,-2.858526e-005
-1.035497e-003,-1.659243e-005
-5.966241e-004,4.244267e-007
-1.788895e-005,2.084466e-005
6.840162e-004,4.175108e-005
1.434866e-003,5.779555e-005
2.097391e-003,6.460230e-005
2.503528e-003,6.703327e-005
2.516655e-003,7.076077e-005
2.123321e-003,7.610893e-005
1.463227e-003,8.761556e-005
7.577559e-004,1.023635e-004
2.093266e-004,1.175977e-004
-8.158062e-005,1.297525e-004
-1.387897e-004,1.376937e-004
-6.132245e-005,1.399627e-004
4.693717e-005,1.349386e-004
1.219734e-004,1.289422e-004
1.532520e-004,1.281319e-004
1.621656e-004,1.352628e-004
1.720516e-004,1.524417e-004
1.949028e-004,1.725378e-004
2.253711e-004,1.846927e-004
2.427121e-004,1.791825e-004
2.242366e-004,1.553589e-004
1.517934e-004,1.158149e-004
1.922400e-005,6.346784e-005
-1.676373e-004,1.396819e-006
-3.822118e-004,-7.104637e-005
-5.862519e-004,-1.446240e-004
-7.525309e-004,-1.997262e-004
-8.716489e-004,-2.120432e-004
-9.567332e-004,-1.736337e-004
-1.022856e-003,-9.616650e-005
-1.073906e-003,-3.141010e-006
-1.096920e-003,8.129502e-005
-1.069368e-003,1.341283e-004
-9.761809e-004,1.428798e-004
-8.162226e-004,1.130598e-004
-6.105618e-004,6.995045e-005
-3.942045e-004,3.640293e-005
-1.992400e-004,2.408596e-005
-4.430560e-005,2.684107e-005
6.881599e-005,3.413401e-005
1.508210e-004,3.932010e-005
2.153230e-004,4.110282e-005
2.688046e-004,3.834771e-005
3.153174e-004,3.137890e-005
3.485408e-004,8.527692e-006
3.619922e-004,-4.025397e-005
3.653956e-004,-1.154523e-004
3.752816e-004,-2.037778e-004
3.931088e-004,-2.830278e-004
4.078567e-004,-3.324577e-004
4.044533e-004,-3.415334e-004
3.702575e-004,-3.165753e-004
3.169380e-004,-2.737901e-004
2.966798e-004,-2.217671e-004
3.945674e-004,-1.634236e-004
6.584098e-004,-1.015147e-004
1.041209e-003,-3.830918e-005
1.430166e-003,2.214118e-005
1.707622e-003,7.675719e-005
1.798055e-003,1.198666e-004
1.692874e-003,1.483901e-004
1.444428e-003,1.615174e-004
1.136179e-003,1.586002e-004
8.442989e-004,1.440143e-004
6.151383e-004,1.244044e-004
4.621486e-004,1.086841e-004
3.723644e-004,9.928427e-005
3.230965e-004,9.426025e-005
2.871180e-004,8.826383e-005
2.488706e-004,7.675719e-005
2.043026e-004,6.217131e-005
1.558451e-004,4.758544e-005
1.043083e-004,3.186510e-005
5.034054e-005,1.338965e-005
-7.354708e-006,-9.623623e-006
-7.785312e-005,-3.798505e-005
-1.720131e-004,-6.521203e-005
-2.899966e-004,-8.239095e-005
-4.206212e-004,-8.498399e-005
-5.520561e-004,-7.331529e-005
-6.719845e-004,-4.868136e-005
-7.653341e-004,-2.080613e-005
-8.202742e-004,-2.816880e-006
-8.223810e-004,1.002961e-007
-7.693857e-004,-8.165034e-006
-6.653398e-004,-1.707863e-005
-5.251534e-004,-1.821308e-005
-3.664914e-004,-4.599598e-006
-2.019951e-004,2.489629e-005
-4.252288e-005,6.606088e-005
1.031738e-004,1.200286e-004
2.276400e-004,1.887443e-004
3.245551e-004,2.701011e-004
3.927846e-004,3.610198e-004
4.284390e-004,4.467524e-004
4.298976e-004,5.089855e-004
4.054257e-004,5.292437e-004
3.644232e-004,5.013684e-004
3.119140e-004,4.373526e-004
2.466016e-004,3.553475e-004
1.691344e-004,2.718839e-004
9.199134e-005,2.068957e-004
3.526847e-005,1.665414e-004
1.873781e-005,1.430419e-004
4.920609e-005,1.159770e-004
1.109530e-004,7.416414e-005
1.692965e-004,2.214118e-005
1.911753e-004,-3.150244e-005
1.586002e-004,-6.861539e-005
6.832980e-005,-8.028410e-005
-7.185670e-005,-7.363942e-005
-2.378116e-004,-5.953974e-005
-4.055491e-004,-4.398147e-005
-5.572422e-004,-2.923352e-005
-6.726327e-004,-1.643037e-005
-7.230350e-004,-8.327101e-006
-6.781429e-004,-6.382316e-006
-5.107295e-004,-1.043395e-005
-2.019951e-004,-1.821308e-005
2.248849e-004,-2.664048e-005
6.763990e-004,-3.555407e-005
1.007013e-003,-4.592625e-005
1.083183e-003,-6.035006e-005
8.446230e-004,-7.607040e-005
3.538889e-004,-8.919769e-005
-2.170672e-004,-1.002181e-004
-6.617744e-004,-1.104282e-004
-8.350221e-004,-1.185315e-004
-6.990493e-004,-1.204763e-004
-3.347266e-004,-1.169109e-004
9.182927e-005,-1.131834e-004
4.135290e-004,-1.099420e-004
5.336195e-004,-1.037836e-004
4.527488e-004,-9.405964e-005
2.516257e-004,-7.671866e-005
4.628891e-005,-4.446767e-005
-7.137050e-005,1.225519e-005
-7.007398e-005,1.022014e-004
1.436204e-005,2.321778e-004
1.101426e-004,3.976466e-004
1.592484e-004,5.705704e-004
1.310491e-004,7.118914e-004
1.598270e-005,7.853070e-004
-1.823852e-004,7.708832e-004
-4.520619e-004,6.786680e-004
-7.554481e-004,5.373469e-004
-1.025773e-003,3.793332e-004
-1.181842e-003,2.347709e-004
-1.166932e-003,1.227837e-004
-9.859049e-004,4.953022e-005
-7.068285e-004,5.772582e-006
-4.172178e-004,-2.696461e-005
-1.966470e-004,-6.018800e-005
-1.011905e-004,-9.292519e-005
-1.431654e-004,-1.161005e-004
-3.094444e-004,-1.297140e-004
-5.525423e-004,-1.352242e-004
-7.891576e-004,-1.358725e-004
-9.583538e-004,-1.350622e-004
-1.042790e-003,-1.324691e-004
-1.054621e-003,-1.229073e-004
-1.022694e-003,-1.067007e-004
-9.662950e-004,-8.822530e-005
-8.731075e-004,-7.736692e-005
-7.204420e-004,-7.558420e-005
-4.980884e-004,-7.704279e-005
-2.196603e-004,-7.866345e-005
7.286762e-005,-8.028410e-005
3.277964e-004,-8.303921e-005
5.089855e-004,-8.206682e-005
6.118970e-004,-7.477388e-005
6.558168e-004,-6.294311e-005
6.700785e-004,-5.224680e-005
6.702406e-004,-4.803310e-005
6.631097e-004,-5.078821e-005
6.481997e-004,-5.532604e-005
6.170831e-004,-5.808115e-005
5.608465e-004,-5.937767e-005
4.866205e-004,-6.488790e-005
4.183909e-004,-7.509801e-005
3.851675e-004,-8.854943e-005
3.942432e-004,-9.632856e-005
4.345975e-004,-9.179074e-005
4.909962e-004,-7.914964e-005
5.444778e-004,-6.699474e-005
5.780254e-004,-6.099833e-005
5.830494e-004,-6.229485e-005
5.629533e-004,-7.104637e-005
5.221128e-004,-8.222889e-005
4.658761e-004,-8.871149e-005
4.065602e-004,-8.125648e-005
3.556717e-004,-5.953974e-005
3.208276e-004,-3.296103e-005
3.117519e-004,-1.416145e-005
3.326584e-004,-9.137427e-006
3.840331e-004,-1.092015e-005
4.587452e-004,-1.643037e-005
5.478812e-004,-2.469570e-005
6.387999e-004,-3.409548e-005
7.139983e-004,-4.446767e-005
7.519216e-004,-5.127441e-005
7.457631e-004,-4.754691e-005
7.118914e-004,-3.247483e-005
6.704027e-004,-1.059601e-005
6.319931e-004,1.290346e-005
5.963388e-004,3.283749e-005
5.532294e-004,4.677511e-005
4.961823e-004,5.520250e-005
4.298976e-004,6.103685e-005
3.678265e-004,6.249544e-005
3.222862e-004,5.649903e-005
2.992729e-004,4.499239e-005
2.929523e-004,3.526847e-005
2.897111e-004,3.040651e-005
2.756114e-004,3.154097e-005
2.495188e-004,3.850977e-005
2.180782e-004,4.628891e-005
1.845306e-004,5.050261e-005
1.483901e-004,5.406805e-005
1.198666e-004,6.119892e-005
1.106288e-004,7.286762e-005
1.282940e-004,8.696730e-005
1.681620e-004,1.020394e-004
2.137024e-004,1.127357e-004
2.410914e-004,1.182459e-004
2.307192e-004,1.171115e-004
1.829100e-004,1.083599e-004
1.135460e-004,9.798775e-005
3.769945e-005,9.377405e-005
-4.219875e-005,9.798775e-005
-1.282554e-004,1.096565e-004
-2.078295e-004,1.253768e-004
-2.679557e-004,1.399627e-004
-3.000446e-004,1.542244e-004
-3.039342e-004,1.668655e-004
-2.862691e-004,1.762653e-004
-2.580697e-004,1.783722e-004
-2.266291e-004,1.722137e-004
-1.901644e-004,1.620035e-004
-1.352242e-004,1.504969e-004
-5.581224e-005,1.372075e-004
2.603075e-005,1.182459e-004
7.772959e-005,9.361198e-005
7.918817e-005,6.427816e-005
3.040651e-005,3.915804e-005
-4.997788e-005,2.959618e-005
-1.386276e-004,3.850977e-005
-2.177155e-004,5.536457e-005
-2.786520e-004,6.784360e-005
-3.156029e-004,7.124698e-005
-3.340783e-004,6.768153e-005
-3.514193e-004,6.152305e-005
-3.776739e-004,5.714729e-005
-4.123559e-004,5.325772e-005
-4.548170e-004,5.001641e-005
-4.995470e-004,4.985435e-005
-5.319600e-004,5.552663e-005
-5.415219e-004,7.043664e-005
-5.240189e-004,9.085687e-005
-4.836646e-004,1.127357e-004
-4.228901e-004,1.333180e-004
-3.548227e-004,1.492004e-004
-2.980999e-004,1.558451e-004
-2.703867e-004,1.501728e-004
-2.783279e-004,1.357490e-004
-3.107410e-004,1.177597e-004
-3.426678e-004,1.018773e-004
-3.476918e-004,8.858796e-005
-3.110651e-004,8.032263e-005
-2.313289e-004,7.643306e-005
-1.251762e-004,7.870197e-005
-1.869928e-005,8.405013e-005
6.281957e-005,8.599491e-005
1.140322e-004,7.886404e-005
1.490383e-004,6.606088e-005
1.867996e-004,5.293359e-005
2.305572e-004,4.304760e-005
2.608634e-004,3.980630e-005
2.513016e-004,3.996836e-005
1.921477e-004,4.320967e-005
1.070634e-004,4.661304e-005
3.737532e-005,4.888196e-005
1.047248e-005,5.196120e-005
2.684107e-005,5.455424e-005
7.189524e-005,4.871989e-005
1.257009e-004,3.283749e-005
1.676758e-004,1.630683e-005
1.856651e-004,9.500084e-006
1.744826e-004,1.549650e-005
1.454729e-004,2.910999e-005
1.125736e-004,4.077869e-005
8.178122e-005,4.142695e-005
3.802358e-005,2.959618e-005
-3.036798e-005,1.079661e-005
-1.208004e-004,-5.247859e-006
-2.005366e-004,-1.399939e-005
-2.227395e-004,-1.513384e-005
-1.347380e-004,-1.124428e-005
8.680524e-005,-3.627206e-006
3.948915e-004,6.907039e-006
6.721854e-004,1.760335e-005
7.943827e-004,2.603075e-005
6.861230e-004,2.651694e-005
3.543751e-004,1.468617e-005
-9.438377e-005,-6.544382e-006
-4.993849e-004,-3.053005e-005
-7.168766e-004,-5.062615e-005
-6.761981e-004,-6.294311e-005
-3.908012e-004,-6.667061e-005
5.876794e-005,-6.197072e-005
5.603603e-004,-4.916756e-005
1.006364e-003,-2.680255e-005
1.325471e-003,4.313994e-006
1.498882e-003,4.045456e-005
1.549284e-003,7.691926e-005
1.511847e-003,1.094944e-004
1.416876e-003,1.351007e-004
1.274421e-003,1.493625e-004
1.080915e-003,1.517934e-004
8.491608e-004,1.485521e-004
6.089798e-004,1.477418e-004
3.744712e-004,1.490383e-004
1.461212e-004,1.435281e-004
-8.401160e-005,1.313732e-004
-3.178718e-004,1.182459e-004
-5.540009e-004,1.098185e-004
-7.739235e-004,1.069013e-004
-9.496023e-004,1.041462e-004
-1.061427e-003,9.604297e-005
-1.103240e-003,8.421220e-005
-1.080227e-003,7.610893e-005
-1.003246e-003,7.562274e-005
-9.212409e-004,8.226741e-005
-9.137859e-004,9.199134e-005
-1.039549e-003,9.863601e-005
-1.309063e-003,1.043083e-004
-1.679382e-003,1.075496e-004
-2.068501e-003,1.004187e-004
-2.378047e-003,8.194328e-005
-2.518071e-003,5.455424e-005
-2.429583e-003,2.359977e-005
-2.099456e-003,-3.141010e-006
-1.575174e-003,-1.934754e-005
-9.502505e-004,-3.085418e-005
-3.300267e-004,-3.620233e-005
2.138645e-004,-3.393342e-005
6.499824e-004,-2.518189e-005
9.737892e-004,-1.675450e-005
1.186581e-003,-1.480971e-005
1.298082e-003,-1.659243e-005
1.319475e-003,-1.853721e-005
1.274907e-003,-1.772689e-005
1.188850e-003,-1.724069e-005
1.076053e-003,-1.788895e-005
9.306798e-004,-2.048200e-005
7.340944e-004,-2.501983e-005
4.798137e-004,-3.231276e-005
1.856651e-004,-4.203669e-005
-1.021629e-004,-5.192267e-005
-3.250027e-004,-5.791909e-005
-4.337485e-004,-6.002593e-005
-4.108973e-004,-5.905355e-005
-2.771934e-004,-5.338126e-005
-8.012203e-005,-4.349527e-005
1.282940e-004,-3.020592e-005
3.107795e-004,-1.545797e-005
4.514523e-004,-3.627206e-006
5.509604e-004,5.286386e-006
6.196762e-004,1.176900e-005
6.635959e-004,1.549650e-005
6.887161e-004,1.517237e-005
6.935780e-004,1.079661e-005
6.747784e-004,7.717366e-006
6.363689e-004,8.203561e-006
5.888838e-004,8.203561e-006
5.464226e-004,8.041497e-006
5.154681e-004,7.393235e-006
5.036373e-004,5.610517e-006
5.114165e-004,3.017472e-006
5.323229e-004,-1.196226e-006
5.540397e-004,-1.682422e-006
5.692738e-004,5.286386e-006
5.775391e-004,2.197911e-005
5.806184e-004,4.418206e-005
5.801322e-004,6.508849e-005
5.726772e-004,8.259154e-005
5.585775e-004,9.701536e-005
5.347539e-004,1.047945e-004
4.984512e-004,1.013911e-004
4.496696e-004,8.518459e-005
3.851675e-004,6.217131e-005
3.075383e-004,4.045456e-005
2.195368e-004,2.424803e-005
1.260251e-004,1.663096e-005
3.170303e-005,2.133085e-005
-5.273300e-005,3.591673e-005
-1.188556e-004,5.066468e-005
-1.605064e-004,5.649903e-005
-1.746061e-004,5.163707e-005
-1.728234e-004,3.640293e-005
-1.692580e-004,1.598270e-005
-1.713648e-004,-1.034161e-006
-1.801163e-004,-1.270286e-005
-1.961608e-004,-2.161646e-005
-2.135018e-004,-3.215070e-005
-2.206326e-004,-4.025397e-005
-2.019951e-004,-3.928157e-005
-1.577513e-004,-2.177852e-005
-9.632856e-005,1.079661e-005
-3.976777e-005,4.969228e-005
-7.354708e-006,8.534666e-005
-6.868512e-006,1.127357e-004
-3.247483e-005,1.354248e-004
-6.780506e-005,1.586002e-004
-9.243900e-005,1.817755e-004
-8.854943e-005,1.968476e-004
-5.127441e-005,1.966855e-004
1.338965e-005,1.822617e-004
9.328785e-005,1.587622e-004
1.736723e-004,1.305629e-004
2.368777e-004,9.733949e-005
2.704253e-004,6.281957e-005
2.689667e-004,2.862379e-005
2.362295e-004,-3.627206e-006
1.824238e-004,-3.992984e-005
1.222975e-004,-8.449779e-005
7.092283e-005,-1.319829e-004
3.429608e-005,-1.744440e-004
9.500084e-006,-2.047502e-004
-1.027188e-005,-2.170672e-004
-2.615428e-005,-2.089639e-004
-3.539201e-005,-1.833576e-004
-3.117831e-005,-1.428413e-004
-4.761663e-006,-9.503204e-005
4.758544e-005,-5.176060e-005
1.304008e-004,-1.853721e-005
2.487085e-004,6.258778e-006
4.076946e-004,2.570661e-005
5.986076e-004,4.175108e-005
7.985964e-004,5.325772e-005
9.669825e-004,6.217131e-005
1.037319e-003,6.703327e-005
9.405658e-004,6.849186e-005
6.538720e-004,7.157111e-005
2.279641e-004,7.967437e-005
-2.311669e-004,9.539470e-005
-6.141271e-004,1.200286e-004
-8.716489e-004,1.534141e-004
-1.019452e-003,1.906891e-004
-1.110371e-003,2.263435e-004
-1.196428e-003,2.542187e-004
-1.289129e-003,2.736665e-004
-1.351524e-003,2.884145e-004
-1.334021e-003,3.015418e-004
-1.209717e-003,3.065658e-004
-9.880118e-004,2.874421e-004
-7.133111e-004,2.409294e-004
-4.444448e-004,1.785342e-004
-2.337599e-004,1.172735e-004
-1.063766e-004,6.995045e-005
-5.532604e-005,4.207521e-005
-5.467778e-005,3.218923e-005
-6.861539e-005,3.883391e-005
-5.743289e-005,5.617490e-005
7.879431e-006,7.789165e-005
1.299146e-004,9.539470e-005
2.804733e-004,1.018773e-004
4.190392e-004,1.012291e-004
5.214645e-004,1.017153e-004
5.875872e-004,1.107909e-004
6.305345e-004,1.284560e-004
6.587339e-004,1.480659e-004
6.673234e-004,1.637863e-004
6.566271e-004,1.702689e-004
6.214589e-004,1.705930e-004
5.564707e-004,1.696206e-004
4.632831e-004,1.688103e-004
3.548613e-004,1.663793e-004
2.474120e-004,1.595726e-004
1.521176e-004,1.480659e-004
7.011251e-005,1.352628e-004
-6.706447e-006,1.286181e-004
-9.114247e-005,1.321835e-004
-1.909747e-004,1.440143e-004
-2.989102e-004,1.535762e-004
-4.010113e-004,1.482280e-004
-4.831784e-004,1.273216e-004
-5.360117e-004,9.944633e-005
-5.525423e-004,7.594687e-005
-5.201293e-004,6.768153e-005
-4.316416e-004,7.918817e-005
-2.948585e-004,1.034980e-004
-1.371690e-004,1.248906e-004
9.986280e-006,1.316973e-004
1.197045e-004,1.167873e-004
1.736723e-004,8.534666e-005
1.707551e-004,4.580272e-005
1.239182e-004,4.151929e-006
5.649903e-005,-3.490581e-005
-9.785687e-006,-7.120844e-005
-5.808115e-005,-1.083214e-004
-8.028410e-005,-1.533756e-004
-7.639453e-005,-2.117190e-004
-5.176060e-005,-2.781658e-004
-1.610623e-005,-3.344025e-004
2.100672e-005,-3.609812e-004
5.034054e-005,-3.497987e-004
7.254349e-005,-3.084720e-004
9.199134e-005,-2.502906e-004
1.166253e-004,-1.924333e-004
1.445005e-004,-1.465688e-004
1.654069e-004,-1.255003e-004
1.754550e-004,-1.282554e-004
1.799928e-004,-1.410586e-004
1.963614e-004,-1.494860e-004
2.566497e-004,-1.431654e-004
3.794953e-004,-1.204763e-004
5.478812e-004,-8.935975e-005
7.191843e-004,-5.970180e-005
8.559676e-004,-4.025397e-005
9.468863e-004,-3.101624e-005
9.909682e-004,-2.194059e-005
9.825408e-004,-6.382316e-006
9.157698e-004,1.193106e-005
7.955172e-004,2.603075e-005
6.418792e-004,3.510640e-005
4.647416e-004,4.304760e-005
2.524360e-004,5.390598e-005
-2.145439e-005,7.092283e-005
-3.763774e-004,8.972242e-005
-8.052021e-004,1.052807e-004
-1.264009e-003,1.175977e-004
-1.672089e-003,1.263492e-004
-1.943063e-003,1.294284e-004
-1.993465e-003,1.252147e-004
-1.764467e-003,1.188942e-004
-1.265954e-003,1.145184e-004
-5.943552e-004,1.119254e-004
8.275361e-005,1.065772e-004
5.981215e-004,9.328785e-005
8.786567e-004,7.594687e-005
9.624446e-004,6.087479e-005
9.332728e-004,5.406805e-005
8.605054e-004,5.747142e-005
7.721797e-004,7.205730e-005
6.731577e-004,8.956035e-005
5.580913e-004,1.012291e-004
4.227667e-004,1.031738e-004
2.900352e-004,9.879807e-005
1.880961e-004,9.215340e-005
1.252147e-004,8.567078e-005
8.356393e-005,8.032263e-005
3.932010e-005,7.724339e-005
-2.501983e-005,7.627100e-005
-1.096179e-004,7.918817e-005
-1.958366e-004,8.729143e-005
-2.525595e-004,9.944633e-005
-2.486699e-004,1.101426e-004
-1.682856e-004,1.132219e-004
-2.809907e-005,1.088461e-004
1.380179e-004,1.015532e-004
2.955454e-004,9.636710e-005
4.276287e-004,9.474644e-005
5.350781e-004,9.474644e-005
6.125453e-004,9.442231e-005
6.274553e-004,8.842590e-005
5.363746e-004,7.594687e-005
3.172621e-004,6.298164e-005
-7.678839e-006,5.487837e-005
-3.770256e-004,5.212327e-005
-7.270867e-004,5.341978e-005
-1.020587e-003,5.957827e-005
-1.236458e-003,7.043664e-005
-1.361410e-003,8.113296e-005
-1.391878e-003,8.842590e-005
-1.331104e-003,9.134307e-005
-1.195942e-003,9.134307e-005
-1.005839e-003,9.166720e-005
-7.633893e-004,9.199134e-005
-4.640547e-004,9.020861e-005
-1.266348e-004,7.983643e-005
2.138645e-004,6.200925e-005
5.243817e-004,4.693717e-005
7.791486e-004,4.126489e-005
9.689272e-004,4.726130e-005
1.090963e-003,5.666109e-005
1.148982e-003,6.217131e-005
1.150441e-003,6.444023e-005
1.096473e-003,6.525056e-005
9.765443e-004,6.006446e-005
7.888725e-004,4.580272e-005
5.567948e-004,2.376183e-005
3.051073e-004,-1.844488e-006
5.860587e-005,-2.583015e-005
-1.794681e-004,-4.770897e-005
-4.365036e-004,-6.359137e-005
-7.398898e-004,-7.104637e-005
-1.065641e-003,-7.169464e-005
-1.331104e-003,-6.602235e-005
-1.440174e-003,-5.743289e-005
-1.328187e-003,-4.949169e-005
-9.996805e-004,-4.074016e-005
-5.303394e-004,-2.907146e-005
-2.242678e-005,-1.318906e-005
4.370285e-004,8.527692e-006
7.953551e-004,2.992031e-005
1.032943e-003,4.239934e-005
1.148658e-003,4.158902e-005
1.150116e-003,2.992031e-005
1.062439e-003,1.338965e-005
9.175524e-004,-1.196226e-006
7.600248e-004,-8.975361e-006
6.399344e-004,-1.189254e-005
5.872631e-004,-1.092015e-005
6.010386e-004,-8.327101e-006
6.571133e-004,-6.706447e-006
7.209671e-004,-8.165034e-006
7.593766e-004,-9.785687e-006
7.480319e-004,-5.734055e-006
6.802886e-004,3.665733e-006
5.721910e-004,1.533444e-005
4.568004e-004,3.170303e-005
3.611819e-004,5.147500e-005
2.914938e-004,7.027457e-005
2.406053e-004,8.064676e-005
2.031682e-004,8.097089e-005
1.743205e-004,7.562274e-005
1.493625e-004,6.978838e-005
1.252147e-004,6.962632e-005
1.051186e-004,7.416414e-005
8.956035e-005,8.064676e-005
7.497447e-005,8.437427e-005
5.811968e-005,8.307774e-005
4.045456e-005,7.659513e-005
1.889987e-005,6.865393e-005
-9.137427e-006,6.670914e-005
-4.414354e-005,7.157111e-005
-8.692878e-005,8.226741e-005
-1.324691e-004,9.782569e-005
-1.731475e-004,1.188942e-004
-2.076674e-004,1.435281e-004
-2.370012e-004,1.628139e-004
-2.598524e-004,1.699447e-004
-2.784900e-004,1.652449e-004
-2.827036e-004,1.506590e-004
-2.619593e-004,1.304008e-004
-2.301945e-004,1.093323e-004
-2.173913e-004,9.328785e-005
-2.421873e-004,8.275361e-005
-3.026377e-004,7.254349e-005
-3.835083e-004,5.779555e-005
-4.616237e-004,3.753739e-005
-5.134846e-004,1.533444e-005
-5.232086e-004,-5.247859e-006
-4.937127e-004,-2.275091e-005
-4.426621e-004,-3.636440e-005
-3.932322e-004,-4.462973e-005
-3.626019e-004,-4.560212e-005
-3.525538e-004,-3.360929e-005
-3.540124e-004,-1.480971e-005
-3.519055e-004,5.772582e-006
-3.339163e-004,2.473422e-005
-2.963171e-004,4.045456e-005
-2.446183e-004,5.001641e-005
-1.908126e-004,5.163707e-005
-1.454343e-004,4.499239e-005
-1.097800e-004,3.559260e-005
-8.255302e-005,3.024445e-005
-6.035006e-005,3.850977e-005
-3.474375e-005,5.568870e-005
1.290346e-005,7.124698e-005
9.766362e-005,8.145709e-005
2.205091e-004,8.550872e-005
3.613439e-004,8.291567e-005
4.895377e-004,7.691926e-005
5.767288e-004,7.286762e-005
6.016869e-004,7.513654e-005
5.525811e-004,8.210535e-005
4.428628e-004,8.761556e-005
3.120761e-004,8.875003e-005
2.122438e-004,8.648111e-005
1.761032e-004,8.178122e-005
2.028440e-004,7.351588e-005
2.691287e-004,6.217131e-005
3.444891e-004,4.871989e-005
4.031568e-004,3.332369e-005
4.295734e-004,2.262737e-005
4.114221e-004,1.857574e-005
3.480546e-004,1.857574e-005
2.534084e-004,2.457216e-005
1.409351e-004,3.380988e-005
2.181705e-005,4.077869e-005
-9.600443e-005,3.964423e-005
-2.120432e-004,3.170303e-005
-3.248406e-004,2.473422e-005
-4.292107e-004,2.359977e-005
-5.164018e-004,2.975825e-005
-5.818761e-004,4.304760e-005
-6.228787e-004,6.460230e-005
-6.316302e-004,9.037068e-005
-5.951655e-004,1.125736e-004
-5.095950e-004,1.239182e-004
-3.749188e-004,1.213252e-004
-1.903264e-004,1.062531e-004
5.098881e-005,8.080882e-005
3.606957e-004,4.920609e-005
7.339323e-004,1.533444e-005
1.128724e-003,-1.302699e-005
1.461607e-003,-3.458168e-005
1.639068e-003,-4.916756e-005
1.608114e-003,-5.532604e-005
1.387867e-003,-5.046408e-005
1.052229e-003,-3.847125e-005
6.849886e-004,-2.728874e-005
3.522683e-004,-2.242678e-005
7.448828e-005,-2.356124e-005
-1.708786e-004,-2.583015e-005
-4.152730e-004,-2.437157e-005
-6.700397e-004,-1.383732e-005
-9.178375e-004,1.144487e-005
-1.114423e-003,5.066468e-005
-1.213931e-003,9.182927e-005
-1.164501e-003,1.210010e-004
-9.168651e-004,1.300767e-004
-4.739407e-004,1.232699e-004
6.265751e-005,1.041462e-004
5.117406e-004,7.837785e-005
7.057329e-004,5.374392e-005
5.871010e-004,3.980630e-005
2.508154e-004,3.705119e-005
-1.130213e-004,4.175108e-005
-3.378058e-004,4.547859e-005
-3.510952e-004,4.483032e-005
-1.943781e-004,4.434413e-005
7.717366e-006,4.434413e-005
1.342904e-004,4.239934e-005
1.284560e-004,3.818564e-005
-1.416145e-005,3.073064e-005
-2.669833e-004,2.003433e-005
-5.703695e-004,8.041497e-006
-8.507424e-004,-1.844488e-006
-1.042142e-003,-1.205460e-005
-1.109561e-003,-2.971972e-005
-1.084765e-003,-5.500191e-005
-1.051217e-003,-8.433573e-005
-1.086710e-003,-1.131834e-004
-1.217820e-003,-1.399241e-004
-1.404844e-003,-1.629374e-004
-1.566261e-003,-1.710407e-004
-1.621039e-003,-1.528894e-004
-1.522827e-003,-1.073490e-004
-1.288967e-003,-5.159854e-005
-9.834738e-004,-3.627206e-006
-6.739292e-004,2.489629e-005
-3.786463e-004,3.024445e-005
-6.278104e-005,1.857574e-005
3.096451e-004,-2.492749e-006
7.251807e-004,-2.404744e-005
1.124834e-003,-3.944364e-005
1.429194e-003,-4.511592e-005
1.573756e-003,-4.544005e-005
1.553012e-003,-4.430560e-005
1.411366e-003,-4.041603e-005
1.224991e-003,-2.793700e-005
1.063249e-003,-1.043395e-005
9.407278e-004,7.393235e-006
8.295509e-004,2.246531e-005
6.926056e-004,3.170303e-005
5.191956e-004,3.624086e-005
3.286067e-004,3.915804e-005
1.561692e-004,3.753739e-005
5.293359e-005,2.943412e-005
5.844381e-005,1.954813e-005
1.759412e-004,1.906194e-005
3.686369e-004,3.526847e-005
5.888838e-004,6.233338e-005
7.869277e-004,9.182927e-005
9.243592e-004,1.257009e-004
9.820545e-004,1.675138e-004
9.647135e-004,2.114335e-004
8.930806e-004,2.501671e-004
7.840105e-004,2.788527e-004
6.655407e-004,2.947351e-004
5.853183e-004,2.997591e-004
5.885596e-004,2.955454e-004
6.917953e-004,2.835526e-004
8.707155e-004,2.702632e-004
1.070866e-003,2.619979e-004
1.230015e-003,2.516257e-004
1.307806e-003,2.315296e-004
1.296138e-003,1.989545e-004
1.209270e-003,1.579519e-004
1.069408e-003,1.187321e-004
8.925944e-004,8.939829e-005
6.822334e-004,7.238143e-005
4.405939e-004,6.541262e-005
1.715654e-004,6.265751e-005
-1.130213e-004,5.747142e-005
-3.938804e-004,5.374392e-005
-6.642053e-004,5.390598e-005
-9.319371e-004,5.990240e-005
-1.202748e-003,7.140904e-005
-1.449412e-003,8.323980e-005
-1.610180e-003,8.842590e-005
-1.630277e-003,8.291567e-005
-1.493493e-003,6.735740e-005
-1.244561e-003,4.839576e-005
-9.602986e-004,3.251336e-005
-6.962942e-004,2.781346e-005
-4.548170e-004,3.737532e-005
-2.178775e-004,5.730935e-005
8.365628e-006,8.048469e-005
1.898788e-004,9.669123e-005
2.963557e-004,1.010670e-004
3.216379e-004,9.798775e-005
2.775562e-004,9.182927e-005
1.976579e-004,8.291567e-005
1.195424e-004,7.351588e-005
6.589881e-005,6.557468e-005
3.299956e-005,5.098881e-005
5.448451e-006,2.441009e-005
-3.263690e-005,-1.367526e-005
-8.384953e-005,-5.646050e-005
-1.379793e-004,-9.114247e-005
-1.804405e-004,-1.130213e-004
-1.964849e-004,-1.162626e-004
-1.804405e-004,-9.681476e-005
-1.438137e-004,-6.488790e-005
-1.005423e-004,-3.425755e-005
-6.569822e-005,-1.075808e-005
-3.879538e-005,4.638125e-006
2.623614e-007,1.338965e-005
7.837785e-005,1.889987e-005
2.111093e-004,2.522042e-005
3.974845e-004,3.283749e-005
6.109247e-004,4.223728e-005
7.990826e-004,4.953022e-005
9.016700e-004,5.050261e-005
8.699052e-004,4.790957e-005
6.835299e-004,3.834771e-005
3.739850e-004,1.906194e-005
1.889987e-005,-9.137427e-006
-2.793003e-004,-3.847125e-005
-4.442827e-004,-5.791909e-005
-4.577342e-004,-6.213279e-005
-3.574157e-004,-5.305713e-005
-2.088019e-004,-3.636440e-005
-6.991192e-005,-1.805102e-005
3.040651e-005,-1.358292e-006
9.037068e-005,1.209313e-005
1.289422e-004,2.165498e-005
1.696206e-004,2.489629e-005
2.239125e-004,2.327564e-005
2.848491e-004,2.181705e-005
3.440029e-004,2.408596e-005
3.913260e-004,3.186510e-005
4.190392e-004,4.304760e-005
4.300596e-004,5.617490e-005
4.214702e-004,6.411610e-005
3.848434e-004,6.087479e-005
3.159656e-004,4.774750e-005
2.239125e-004,3.429608e-005
1.239182e-004,2.554455e-005
2.651694e-005,2.829966e-005
-6.099833e-005,4.061663e-005
-1.327932e-004,5.957827e-005
-1.898402e-004,7.465034e-005
-2.355427e-004,8.129502e-005
-2.736280e-004,7.983643e-005
-3.078238e-004,7.643306e-005
-3.387782e-004,7.205730e-005
-3.591985e-004,6.751947e-005
-3.776739e-004,6.071273e-005
-4.097628e-004,5.228533e-005
-4.575721e-004,4.077869e-005
-5.032745e-004,2.505835e-005
-5.189948e-004,1.883015e-006
-4.990608e-004,-2.761287e-005
-4.624341e-004,-6.116039e-005
-4.288865e-004,-9.114247e-005
-4.037664e-004,-1.063766e-004
-3.825359e-004,-1.054042e-004
-3.590364e-004,-9.033214e-005
-3.345645e-004,-6.148453e-005
-3.248406e-004,-2.647842e-005
-3.403989e-004,8.203561e-006
-3.671397e-004,3.996836e-005
-3.779980e-004,6.573675e-005
-3.528779e-004,8.178122e-005
-2.815692e-004,8.842590e-005
-1.697441e-004,8.664317e-005
-3.539201e-005,8.405013e-005
9.896014e-005,8.696730e-005
2.049509e-004,9.960840e-005
2.615117e-004,1.175977e-004
2.582704e-004,1.244044e-004
2.023578e-004,1.145184e-004
1.114392e-004,9.490851e-005
4.962256e-006,7.448828e-005
-1.101041e-004,6.006446e-005
-2.378116e-004,5.568870e-005
-3.799428e-004,6.362990e-005
-5.324463e-004,7.870197e-005
-6.838152e-004,9.377405e-005
-8.165467e-004,1.025256e-004
-8.959587e-004,1.023635e-004
-8.833176e-004,9.766362e-005
-7.452379e-004,9.442231e-005
-4.574100e-004,9.814982e-005
-2.145439e-005,1.062531e-004
4.990995e-004,1.125736e-004
9.715203e-004,1.169494e-004
1.237308e-003,1.171115e-004
1.181557e-003,1.094944e-004
8.117237e-004,9.020861e-005
2.760976e-004,6.055066e-005
-2.259808e-004,2.619281e-005
-5.392530e-004,-5.734055e-006
-6.097514e-004,-2.971972e-005
-4.783164e-004,-3.766092e-005
-2.352185e-004,-2.890940e-005
3.089270e-005,-9.299492e-006
2.540566e-004,1.403791e-005
4.051016e-004,3.154097e-005
4.871067e-004,3.721326e-005
5.190336e-004,3.559260e-005
5.238955e-004,2.992031e-005
5.154681e-004,2.538249e-005
4.877549e-004,2.197911e-005
4.245494e-004,2.181705e-005
3.247172e-004,2.667901e-005
2.094887e-004,3.235129e-005
1.185700e-004,3.559260e-005
8.761556e-005,3.624086e-005
1.316973e-004,3.980630e-005
2.517877e-004,4.904402e-005
4.289252e-004,5.925414e-005
6.399344e-004,6.314371e-005
8.601813e-004,6.055066e-005
1.073297e-003,5.747142e-005
1.264049e-003,5.666109e-005
1.400508e-003,5.730935e-005
1.427573e-003,5.601283e-005
1.300351e-003,5.293359e-005
1.018681e-003,4.758544e-005
6.358827e-004,3.932010e-005
2.480603e-004,3.640293e-005
-5.143647e-005,4.272347e-005
-2.097743e-004,5.439218e-005
-2.266291e-004,6.200925e-005
-1.472171e-004,5.974033e-005
-3.944364e-005,4.434413e-005
2.165498e-005,2.376183e-005
-3.134038e-005,9.500084e-006
-2.366771e-004,3.503668e-006
-5.664800e-004,3.179537e-006
-9.316130e-004,8.851824e-006
-1.234351e-003,2.230324e-005
-1.411164e-003,4.045456e-005
-1.428505e-003,5.909207e-005
-1.283943e-003,7.205730e-005
-1.009404e-003,7.724339e-005
-6.575607e-004,7.448828e-005
-2.870794e-004,6.865393e-005
5.568870e-005,6.476436e-005
3.496752e-004,6.444023e-005
5.969870e-004,6.395403e-005
8.117237e-004,6.265751e-005
1.009120e-003,6.136099e-005
1.192902e-003,5.828174e-005
1.348161e-003,5.309565e-005
1.441024e-003,4.207521e-005
1.419307e-003,2.505835e-005
1.235849e-003,5.286386e-006
8.922702e-004,-6.706447e-006
4.521005e-004,-1.844488e-006
2.570661e-005,2.343770e-005
-3.021515e-004,6.217131e-005
-5.183466e-004,1.034980e-004
-6.539952e-004,1.375317e-004
-7.475069e-004,1.566554e-004
-8.205983e-004,1.586002e-004
-8.640318e-004,1.419075e-004
-8.546320e-004,1.107909e-004
-7.750580e-004,7.400208e-005
-6.334129e-004,4.061663e-005
-4.674581e-004,1.760335e-005
-3.309991e-004,3.665733e-006
-2.553146e-004,9.106226e-007
-2.438080e-004,9.338019e-006
-2.700626e-004,2.100672e-005
-3.024756e-004,2.603075e-005
-3.251648e-004,2.457216e-005
-3.277578e-004,1.857574e-005
-2.859450e-004,9.338019e-006
-1.806025e-004,1.396819e-006
-1.626830e-005,-5.479652e-007
1.756170e-004,2.207145e-006
3.553475e-004,4.800190e-006
4.906721e-004,5.772582e-006
5.642498e-004,5.124321e-006
5.804563e-004,3.503668e-006
5.563085e-004,-2.816880e-006
4.990995e-004,-1.464765e-005
4.052637e-004,-2.842320e-005
2.587565e-004,-3.911951e-005
6.557468e-005,-4.317114e-005
-1.186936e-004,-3.717472e-005
-2.003745e-004,-2.275091e-005
-1.285796e-004,-5.409925e-006
5.633696e-005,7.555300e-006
2.384984e-004,1.792748e-005
2.864697e-004,3.137890e-005
1.430419e-004,5.163707e-005
-1.238797e-004,8.080882e-005
-3.647087e-004,1.231079e-004
-4.483344e-004,1.816135e-004
-3.237062e-004,2.537325e-004
-2.291298e-005,3.243930e-004
3.712299e-004,3.710678e-004
7.590525e-004,3.783608e-004
1.061467e-003,3.464339e-004
1.228394e-003,2.856594e-004
1.238442e-003,2.151610e-004
1.106197e-003,1.532520e-004
8.776843e-004,1.069013e-004
6.149763e-004,7.351588e-005
3.697713e-004,5.001641e-005
1.629759e-004,3.218923e-005
-1.562004e-005,1.338965e-005
-1.794681e-004,-7.354708e-006
-3.306750e-004,-2.761287e-005
-4.549791e-004,-4.495386e-005
-5.243430e-004,-5.905355e-005
-5.128363e-004,-7.088431e-005
-4.261314e-004,-7.882551e-005
-2.943724e-004,-8.222889e-005
-1.674752e-004,-8.287714e-005
-8.854943e-005,-8.206682e-005
-8.741497e-005,-7.850138e-005
-1.741199e-004,-6.083626e-005
-3.339163e-004,-2.728874e-005
-5.308256e-004,1.533444e-005
-7.296797e-004,5.196120e-005
-8.906105e-004,7.238143e-005
-9.739121e-004,7.546067e-005
-9.534919e-004,6.751947e-005
-8.069848e-004,5.633696e-005
-5.186707e-004,4.207521e-005
-9.114247e-005,2.570661e-005
4.161220e-004,8.041497e-006
8.781705e-004,-5.085794e-006
1.148010e-003,-7.840905e-006
1.127589e-003,-8.720958e-007
8.345749e-004,1.063454e-005
3.982948e-004,2.133085e-005
-1.108221e-005,2.619281e-005
-2.676316e-004,1.711715e-005
-3.371576e-004,-1.464765e-005
-2.669833e-004,-7.007398e-005
-1.421931e-004,-1.428413e-004
-4.025397e-005,-2.220912e-004
3.017472e-006,-2.898345e-004
-5.409925e-006,-3.267854e-004
-4.965375e-005,-3.237062e-004
-1.361966e-004,-2.818933e-004
-2.917793e-004,-2.091260e-004
-5.298532e-004,-1.240417e-004
-8.160605e-004,-4.608832e-005
-1.079093e-003,8.689757e-006
-1.238241e-003,3.818564e-005
-1.234027e-003,4.337174e-005
-1.061589e-003,2.781346e-005
-7.771648e-004,-6.382316e-006
-4.590307e-004,-5.257093e-005
-1.559686e-004,-9.908367e-005
1.222975e-004,-1.259865e-004
3.806297e-004,-1.214487e-004
6.080074e-004,-8.725291e-005
7.703970e-004,-3.539201e-005
8.289026e-004,1.825161e-005
7.781762e-004,6.476436e-005
6.618132e-004,9.863601e-005
5.378331e-004,1.201907e-004
4.533971e-004,1.307249e-004
4.193634e-004,1.406109e-004
4.243874e-004,1.563313e-004
4.469145e-004,1.769136e-004
4.644175e-004,1.966855e-004
4.639313e-004,2.101370e-004
4.482110e-004,2.151610e-004
4.279528e-004,2.115955e-004
4.093153e-004,1.991165e-004
3.922984e-004,1.833962e-004
3.762539e-004,1.701068e-004
3.600474e-004,1.603829e-004
3.441650e-004,1.474177e-004
3.339549e-004,1.284560e-004
3.294171e-004,1.070634e-004
3.239068e-004,8.972242e-005
3.140208e-004,7.821578e-005
2.981384e-004,7.302969e-005
2.692908e-004,7.076077e-005
2.271538e-004,6.995045e-005
1.832341e-004,6.800567e-005
1.477418e-004,6.152305e-005
1.234320e-004,4.936815e-005
1.128978e-004,3.429608e-005
1.101426e-004,1.355172e-005
1.039842e-004,-1.124428e-005
9.312579e-005,-3.458168e-005
8.826383e-005,-5.192267e-005
9.442231e-005,-6.326724e-005
1.086841e-004,-6.423963e-005
1.182459e-004,-4.900549e-005
1.119254e-004,-1.805102e-005
8.858796e-005,2.457216e-005
5.341978e-005,7.740545e-005
1.517237e-005,1.368834e-004
-1.886135e-005,1.945787e-004
-4.576419e-005,2.393087e-004
-7.120844e-005,2.574600e-004
-9.794922e-005,2.467637e-004
-1.256624e-004,2.171058e-004
-1.494860e-004,1.861513e-004
-1.647201e-004,1.689724e-004
-1.681235e-004,1.712413e-004
-1.661787e-004,1.856651e-004
-1.639098e-004,1.974959e-004
-1.572651e-004,1.999268e-004
-1.321450e-004,1.949028e-004
-7.590833e-005,1.885823e-004
1.160693e-005,1.780480e-004
1.065772e-004,1.636242e-004
1.846927e-004,1.469315e-004
2.266676e-004,1.278078e-004
2.268297e-004,1.046324e-004
1.968476e-004,8.210535e-005
1.637863e-004,6.573675e-005
1.490383e-004,6.184718e-005
1.641104e-004,7.384001e-005
1.999268e-004,9.328785e-005
2.365536e-004,1.069013e-004
2.688046e-004,1.057669e-004
3.020280e-004,9.101894e-005
3.420582e-004,7.708132e-005
3.910019e-004,6.946425e-005
4.394594e-004,6.606088e-005
4.624727e-004,6.249544e-005
4.217943e-004,6.071273e-005
2.856594e-004,6.379197e-005
5.649903e-005,6.703327e-005
-2.350565e-004,6.525056e-005
-5.552974e-004,6.119892e-005
-8.763488e-004,5.617490e-005
-1.176980e-003,4.661304e-005
-1.435150e-003,2.829966e-005
-1.634166e-003,6.258778e-006
-1.766898e-003,-1.221667e-005
-1.820055e-003,-2.388537e-005
-1.781484e-003,-2.988179e-005
-1.659935e-003,-3.393342e-005
-1.491225e-003,-3.847125e-005
-1.313439e-003,-4.544005e-005
-1.141650e-003,-5.354332e-005
-9.684018e-004,-6.132245e-005
-7.800820e-004,-6.748093e-005
-5.723143e-004,-6.893953e-005
-3.442885e-004,-6.018800e-005
-9.438377e-005,-4.203669e-005
1.720516e-004,-2.113026e-005
4.412422e-004,-8.651231e-006
6.924436e-004,-1.189254e-005
8.961599e-004,-2.696461e-005
1.030350e-003,-4.122636e-005
1.093394e-003,-4.608832e-005
1.100524e-003,-3.960571e-005
1.075566e-003,-2.291298e-005
1.036995e-003,-2.816880e-006
9.919406e-004,1.468617e-005
9.387831e-004,2.910999e-005
8.724983e-004,4.677511e-005
7.869277e-004,6.460230e-005
6.849886e-004,7.562274e-005
5.705704e-004,7.400208e-005
4.486972e-004,6.087479e-005
3.334687e-004,4.904402e-005
2.433604e-004,4.709924e-005
1.851789e-004,5.001641e-005
1.623277e-004,5.293359e-005
1.773998e-004,4.807163e-005
2.325020e-004,2.959618e-005
3.208276e-004,5.864920e-007
4.282769e-004,-3.101624e-005
5.307022e-004,-5.500191e-005
6.002283e-004,-5.678463e-005
6.253485e-004,-3.215070e-005
6.234036e-004,7.879431e-006
6.198382e-004,4.920609e-005
6.331276e-004,8.080882e-005
6.613270e-004,1.012291e-004
6.888781e-004,1.107909e-004
6.960090e-004,1.103047e-004
6.721854e-004,1.010670e-004
6.185417e-004,8.680524e-005
5.415606e-004,7.027457e-005
4.545315e-004,5.941620e-005
3.730126e-004,5.309565e-005
3.052693e-004,4.385793e-005
2.446569e-004,2.651694e-005
1.811273e-004,3.341602e-006
1.119254e-004,-1.529591e-005
4.142695e-005,-2.356124e-005
-2.696461e-005,-1.740276e-005
-8.919769e-005,-2.492749e-006
-1.360346e-004,1.695509e-005
-1.587237e-004,3.753739e-005
-1.605064e-004,5.212327e-005
-1.489998e-004,5.552663e-005
-1.363587e-004,4.855782e-005
-1.327932e-004,3.543053e-005
-1.431654e-004,2.019640e-005
-1.674752e-004,5.610517e-006
-2.071812e-004,-4.599598e-006
-2.596904e-004,-6.706447e-006
-3.118754e-004,1.072688e-006
-3.463953e-004,1.533444e-005
-3.523917e-004,2.684107e-005
-3.279199e-004,3.121684e-005
-2.870794e-004,3.073064e-005
-2.577456e-004,2.376183e-005
-2.566112e-004,1.241726e-005
-2.820554e-004,2.623614e-007
-3.214373e-004,-5.896120e-006
-3.577399e-004,-5.896120e-006
-3.741085e-004,-3.951337e-006
-3.611433e-004,-1.034161e-006
-3.246786e-004,3.989864e-006
-2.765452e-004,1.031041e-005
-2.233878e-004,1.517237e-005
-1.587237e-004,1.808955e-005
-6.099833e-005,2.262737e-005
7.918817e-005,2.846173e-005
2.478982e-004,3.202716e-005
4.078567e-004,2.992031e-005
5.217887e-004,2.505835e-005
5.655463e-004,2.392390e-005
5.391297e-004,2.732727e-005
4.590693e-004,3.024445e-005
3.402754e-004,2.700314e-005
1.992786e-004,1.744128e-005
5.228533e-005,1.396819e-006
-9.276313e-005,-1.594417e-005
-2.327876e-004,-2.745081e-005
-3.687603e-004,-2.745081e-005
-5.070020e-004,-1.643037e-005
-6.517263e-004,4.800190e-006
-8.139536e-004,3.445814e-005
-9.956289e-004,6.719534e-005
-1.163366e-003,9.960840e-005
-1.259633e-003,1.242423e-004
-1.221224e-003,1.367214e-004
-9.987081e-004,1.381799e-004
-5.789590e-004,1.365593e-004
-2.696461e-005,1.406109e-004
4.989374e-004,1.453108e-004
8.186925e-004,1.448246e-004
8.117237e-004,1.362352e-004
4.948858e-004,1.218114e-004
2.149292e-005,9.831188e-005
-4.097628e-004,6.087479e-005
-6.546435e-004,1.257933e-005
-6.695535e-004,-3.409548e-005
-5.061917e-004,-6.423963e-005
-2.498044e-004,-7.428768e-005
5.179913e-005,-7.056018e-005
3.783608e-004,-6.699474e-005
7.042743e-004,-6.893953e-005
9.796235e-004,-7.250496e-005
1.118190e-003,-6.715681e-005
1.020950e-003,-4.511592e-005
6.389620e-004,-5.085794e-006
2.149292e-005,4.191315e-005
-6.763602e-004,8.453633e-005
-1.252178e-003,1.175977e-004
-1.551999e-003,1.409351e-004
-1.522665e-003,1.607070e-004
-1.214903e-003,1.835582e-004
-7.536653e-004,2.043026e-004
-2.674695e-004,2.143507e-004
1.602208e-004,2.080301e-004
4.955340e-004,1.944166e-004
7.418735e-004,1.803169e-004
9.243592e-004,1.691344e-004
1.072811e-003,1.603829e-004
1.210567e-003,1.501728e-004
1.367122e-003,1.315353e-004
1.564518e-003,1.054428e-004
1.790438e-003,7.886404e-005
1.979083e-003,5.601283e-005
2.023489e-003,3.591673e-005
1.832575e-003,2.165498e-005
1.393701e-003,1.695509e-005
7.885484e-004,2.246531e-005
1.615174e-004,3.299956e-005
-3.515814e-004,4.158902e-005
-6.962942e-004,4.661304e-005
-8.941760e-004,5.147500e-005
-9.933600e-004,5.860587e-005
-1.040845e-003,6.768153e-005
-1.055269e-003,7.562274e-005
-1.022856e-003,7.805372e-005
-9.252925e-004,7.432621e-005
-7.721408e-004,6.249544e-005
-6.178546e-004,4.645098e-005
-5.144570e-004,3.073064e-005
-4.749131e-004,2.084466e-005
-4.694028e-004,1.355172e-005
-4.395829e-004,3.827798e-006
-3.371576e-004,-8.813297e-006
-1.502963e-004,-2.129233e-005
9.458438e-005,-2.728874e-005
3.545372e-004,-2.485776e-005
5.841838e-004,-1.513384e-005
7.541904e-004,-1.844488e-006
8.585606e-004,1.290346e-005
9.088010e-004,2.538249e-005
9.233868e-004,3.332369e-005
9.170663e-004,3.348575e-005
9.002115e-004,2.068259e-005
8.796291e-004,-3.951337e-006
8.553193e-004,-3.117831e-005
8.128582e-004,-5.176060e-005
7.183740e-004,-6.051213e-005
5.221128e-004,-5.905355e-005
1.856651e-004,-5.289506e-005
-2.825416e-004,-4.576419e-005
-8.261085e-004,-3.798505e-005
-1.369838e-003,-3.296103e-005
-1.831238e-003,-2.793700e-005
-2.124090e-003,-1.918548e-005
-2.173520e-003,-8.813297e-006
-1.955380e-003,2.693341e-006
-1.516021e-003,1.517237e-005
-9.526815e-004,2.732727e-005
-3.760532e-004,3.559260e-005
1.269974e-004,3.721326e-005
5.183853e-004,4.191315e-005
7.914655e-004,5.844381e-005
9.525587e-004,8.793970e-005
1.013981e-003,1.190562e-004
9.796235e-004,1.422316e-004
8.425161e-004,1.555209e-004
6.007145e-004,1.615174e-004
2.720459e-004,1.660552e-004
-9.989400e-005,1.769136e-004
-4.484964e-004,1.931201e-004
-6.817084e-004,2.083542e-004
-7.157421e-004,2.101370e-004
-5.295291e-004,1.942546e-004
-1.791439e-004,1.624898e-004
2.336364e-004,1.226217e-004
6.024972e-004,8.469840e-005
8.595330e-004,5.568870e-005
9.854579e-004,3.850977e-005
9.943715e-004,3.364782e-005
9.198214e-004,3.964423e-005
7.870898e-004,4.936815e-005
6.178935e-004,5.504044e-005
4.401077e-004,5.147500e-005
2.825802e-004,3.996836e-005
1.555209e-004,2.992031e-005
4.580272e-005,3.186510e-005
-7.250496e-005,4.564065e-005
-2.160948e-004,6.200925e-005
-3.836703e-004,7.173317e-005
-5.525423e-004,7.529860e-005
-6.949977e-004,7.675719e-005
-7.774889e-004,7.610893e-005
-7.781372e-004,7.221937e-005
-6.979149e-004,6.233338e-005
-5.535147e-004,4.758544e-005
-3.715154e-004,2.943412e-005
-1.733096e-004,9.013888e-006
2.295151e-005,-1.092015e-005
2.051129e-004,-2.583015e-005
3.696093e-004,-2.955766e-005
5.146578e-004,-2.113026e-005
6.305345e-004,-9.137427e-006
7.023295e-004,-2.168618e-006
7.222636e-004,-2.168618e-006
6.947124e-004,-8.651231e-006
6.352345e-004,-2.015787e-005
5.580913e-004,-3.036798e-005
4.799758e-004,-3.474375e-005
4.183909e-004,-3.247483e-005
3.804677e-004,-2.437157e-005
3.616681e-004,-1.383732e-005
3.512959e-004,-8.002969e-006
3.451374e-004,-7.192643e-006
3.347652e-004,-7.516774e-006
3.130485e-004,-5.085794e-006
2.788527e-004,-1.034161e-006
2.414156e-004,1.883015e-006
2.104611e-004,1.883015e-006
1.944166e-004,-2.006553e-006
1.968476e-004,-1.302699e-005
2.119197e-004,-2.745081e-005
2.292607e-004,-3.733679e-005
2.362295e-004,-3.895744e-005
2.290986e-004,-3.344722e-005
2.146748e-004,-3.134038e-005
1.996027e-004,-3.652646e-005
1.889064e-004,-4.673658e-005
1.804790e-004,-5.824321e-005
1.675138e-004,-6.861539e-005
1.508210e-004,-7.444974e-005
1.321835e-004,-6.974985e-005
1.119254e-004,-5.013995e-005
8.777764e-005,-1.983374e-005
4.953022e-005,1.371378e-005
-1.140634e-005,4.596478e-005
-9.843541e-005,7.027457e-005
-2.034537e-004,8.226741e-005
-3.165753e-004,8.502253e-005
-4.339106e-004,8.486046e-005
-5.530285e-004,8.534666e-005
-6.689052e-004,8.405013e-005
-7.768407e-004,8.113296e-005
-8.671110e-004,7.837785e-005
-9.217270e-004,7.627100e-005
-9.077894e-004,7.221937e-005
-7.818647e-004,6.379197e-005
-5.045710e-004,5.358185e-005
-6.650855e-005,4.499239e-005
4.561522e-004,3.802358e-005
9.092871e-004,3.462021e-005
1.143472e-003,3.510640e-005
1.079132e-003,4.077869e-005
7.572697e-004,5.017848e-005
3.248792e-004,6.395403e-005
-5.224680e-005,8.016056e-005
-2.630937e-004,9.328785e-005
-2.823795e-004,9.620503e-005
-1.546721e-004,8.486046e-005
4.094075e-005,6.508849e-005
2.325020e-004,4.888196e-005
3.851675e-004,4.466826e-005
4.984512e-004,5.277152e-005
5.806184e-004,7.124698e-005
6.329655e-004,9.166720e-005
6.524133e-004,1.098185e-004
6.423653e-004,1.240803e-004
6.151383e-004,1.326697e-004
5.752702e-004,1.389903e-004
5.213025e-004,1.490383e-004
4.511281e-004,1.644345e-004
3.634508e-004,1.809652e-004
2.521119e-004,1.968476e-004
1.109530e-004,2.090025e-004
-6.748093e-005,2.154851e-004
-2.833519e-004,2.148369e-004
-5.220741e-004,2.068957e-004
-7.484793e-004,1.958752e-004
-9.299924e-004,1.853410e-004
-1.047976e-003,1.744826e-004
-1.090275e-003,1.616794e-004
-1.047490e-003,1.451487e-004
-9.176754e-004,1.235941e-004
-7.222247e-004,9.215340e-005
-5.052193e-004,5.633696e-005
-3.109030e-004,2.376183e-005
-1.493239e-004,-2.654814e-006
9.106226e-007,-2.372330e-005
1.542244e-004,-4.106429e-005
2.872800e-004,-5.419158e-005
3.360618e-004,-6.683268e-005
2.209953e-004,-8.303921e-005
-1.020008e-004,-1.054042e-004
-6.065101e-004,-1.339277e-004
-1.213769e-003,-1.650442e-004
-1.822324e-003,-1.940539e-004
-2.318569e-003,-2.125294e-004
-2.587273e-003,-2.118811e-004
-2.554212e-003,-1.914609e-004
-2.207230e-003,-1.564548e-004
-1.609694e-003,-1.099420e-004
-8.745661e-004,-5.435365e-005
-1.224211e-004,3.017472e-006
5.488536e-004,5.698522e-005
1.077997e-003,1.010670e-004
1.436000e-003,1.278078e-004
1.618648e-003,1.333180e-004
1.644903e-003,1.222975e-004
1.539560e-003,1.015532e-004
1.319151e-003,7.708132e-005
9.930750e-004,4.385793e-005
5.749461e-004,9.106226e-007
1.086841e-004,-4.333321e-005
-3.141443e-004,-7.234290e-005
-5.817141e-004,-7.461181e-005
-6.360059e-004,-4.625038e-005
-4.885265e-004,4.800190e-006
-2.028055e-004,6.362990e-005
1.297525e-004,1.151667e-004
4.243874e-004,1.490383e-004
6.311828e-004,1.623277e-004
7.397666e-004,1.582760e-004
7.632662e-004,1.420695e-004
7.308530e-004,1.234320e-004
6.726715e-004,1.127357e-004
6.115729e-004,1.080358e-004
5.627912e-004,1.041462e-004
5.352401e-004,9.750155e-005
5.285954e-004,8.680524e-005
5.366987e-004,7.578480e-005
5.491777e-004,7.043664e-005
5.524190e-004,6.865393e-005
5.459364e-004,7.092283e-005
5.362125e-004,7.935023e-005
5.302160e-004,8.891209e-005
5.383193e-004,9.166720e-005
5.642498e-004,8.421220e-005
6.036317e-004,7.221937e-005
6.444722e-004,6.152305e-005
6.767232e-004,5.536457e-005
6.906608e-004,5.212327e-005
6.770473e-004,4.726130e-005
6.277794e-004,4.126489e-005
5.376711e-004,3.624086e-005
3.999155e-004,3.170303e-005
2.174299e-004,2.586868e-005
2.693341e-006,2.052053e-005
-2.417011e-004,1.744128e-005
-5.147811e-004,1.760335e-005
-7.841336e-004,2.116879e-005
-9.909290e-004,2.813760e-005
-1.081848e-003,3.753739e-005
-1.035173e-003,4.693717e-005
-8.744040e-004,5.260946e-005
-6.549676e-004,5.358185e-005
-4.471999e-004,4.823369e-005
-2.998826e-004,3.462021e-005
-2.241981e-004,1.274139e-005
-2.011848e-004,-1.432352e-005
-2.039399e-004,-3.814712e-005
-2.096122e-004,-5.078821e-005
-2.003745e-004,-5.111234e-005
-1.768750e-004,-4.155049e-005
-1.551583e-004,-2.712668e-005
-1.470550e-004,-9.947754e-006
-1.517549e-004,1.582063e-005
-1.520790e-004,5.536457e-005
-1.319829e-004,1.096565e-004
-7.995997e-005,1.746447e-004
2.855406e-006,2.397949e-004
1.069013e-004,2.861456e-004
2.128921e-004,2.945730e-004
2.966798e-004,2.689667e-004
3.404375e-004,2.265056e-004
3.435167e-004,1.863134e-004
3.149932e-004,1.607070e-004
2.610255e-004,1.540623e-004
1.856651e-004,1.629759e-004
8.939829e-005,1.819376e-004
-2.145439e-005,1.971717e-004
-1.316588e-004,1.994406e-004
-2.173913e-004,1.871237e-004
-2.569353e-004,1.680000e-004
-2.334358e-004,1.475797e-004
-1.442999e-004,1.308870e-004
-3.789271e-006,1.153287e-004
1.662173e-004,9.507057e-005
3.407616e-004,7.092283e-005
4.913204e-004,4.450619e-005
6.031455e-004,1.176900e-005
6.776956e-004,-2.696461e-005
7.172396e-004,-7.380149e-005
7.174016e-004,-1.332795e-004
6.801265e-004,-2.060468e-004
6.115729e-004,-2.796244e-004
5.251920e-004,-3.342404e-004
4.410801e-004,-3.548227e-004
3.820883e-004,-3.366714e-004
3.613439e-004,-2.877277e-004
3.718782e-004,-2.225774e-004
3.880847e-004,-1.541859e-004
3.840331e-004,-9.341139e-005
3.508097e-004,-4.349527e-005
2.936006e-004,-1.010982e-005
2.255332e-004,6.582909e-006
1.545486e-004,1.387585e-005
8.291567e-005,2.019640e-005
9.662150e-006,3.008238e-005
-7.056018e-005,4.207521e-005
-1.596961e-004,5.196120e-005
-2.543422e-004,5.682316e-005
-3.502849e-004,5.601283e-005
-4.449310e-004,4.596478e-005
-5.298532e-004,2.862379e-005
-5.796073e-004,1.371378e-005
-5.548113e-004,8.041497e-006
-4.155972e-004,1.047248e-005
-1.407345e-004,1.565857e-005
2.777182e-004,1.582063e-005
8.243648e-004,8.689757e-006
1.423035e-003,2.369210e-006
1.932570e-003,9.986280e-006
2.164162e-003,3.510640e-005
1.966279e-003,6.751947e-005
1.322392e-003,9.701536e-005
3.955397e-004,1.203528e-004
-5.343910e-004,1.347766e-004
-1.222358e-003,1.410971e-004
-1.586681e-003,1.349386e-004
-1.680679e-003,1.116012e-004
-1.623956e-003,7.772959e-005
-1.518452e-003,5.034054e-005
-1.405492e-003,4.110282e-005
-1.284591e-003,4.369587e-005
-1.153643e-003,4.790957e-005
-1.031769e-003,4.839576e-005
-9.533298e-004,4.871989e-005
-9.410128e-004,4.920609e-005
-9.839601e-004,4.823369e-005
-1.038252e-003,4.547859e-005
-1.041169e-003,3.996836e-005
-9.473334e-004,3.299956e-005
-7.539894e-004,2.586868e-005
-4.979264e-004,2.149292e-005
-2.259808e-004,2.100672e-005
2.295151e-005,2.116879e-005
2.162954e-004,1.922400e-005
3.384927e-004,1.160693e-005
3.843572e-004,-2.330684e-006
3.671783e-004,-1.578211e-005
3.112657e-004,-2.064406e-005
2.462775e-004,-1.480971e-005
2.028440e-004,-8.165034e-006
1.976579e-004,-4.437533e-006
2.320158e-004,-5.479652e-007
2.955454e-004,5.448451e-006
3.718782e-004,1.403791e-005
4.493454e-004,2.489629e-005
5.230852e-004,3.834771e-005
5.888838e-004,5.390598e-005
6.400964e-004,6.832980e-005
6.773715e-004,7.902610e-005
7.081639e-004,8.242948e-005
7.412253e-004,7.643306e-005
7.869277e-004,6.444023e-005
8.421920e-004,5.179913e-005
8.893531e-004,4.288554e-005
9.107458e-004,3.705119e-005
9.008597e-004,3.364782e-005
8.640708e-004,3.316162e-005
8.073479e-004,3.688912e-005
7.378219e-004,4.450619e-005
6.580856e-004,5.179913e-005
5.679773e-004,5.893001e-005
4.726828e-004,6.281957e-005
3.670162e-004,6.200925e-005
2.436845e-004,5.941620e-005
1.010670e-004,5.795762e-005
-5.710876e-005,5.682316e-005
-2.152845e-004,5.228533e-005
-3.532020e-004,4.985435e-005
-4.557894e-004,5.163707e-005
-5.175362e-004,5.779555e-005
-5.436288e-004,6.962632e-005
-5.397392e-004,8.550872e-005
-5.141328e-004,1.012291e-004
-4.736166e-004,1.109530e-004
-4.133283e-004,1.127357e-004
-3.128478e-004,1.107909e-004
-1.485136e-004,1.054428e-004
8.972242e-005,1.018773e-004
3.602095e-004,1.033359e-004
5.849942e-004,1.137081e-004
6.874196e-004,1.295905e-004
6.485238e-004,1.454729e-004
5.209784e-004,1.550348e-004
3.866261e-004,1.581140e-004
3.057555e-004,1.551968e-004
2.960316e-004,1.479039e-004
3.451374e-004,1.368834e-004
4.221185e-004,1.269974e-004
4.978030e-004,1.232699e-004
5.413986e-004,1.278078e-004
5.271368e-004,1.402868e-004
4.448076e-004,1.587622e-004
3.010556e-004,1.743205e-004
1.201907e-004,1.767515e-004
-7.428768e-005,1.618415e-004
-2.663351e-004,1.336421e-004
-4.462275e-004,9.523264e-005
-6.060239e-004,5.131293e-005
-7.504240e-004,8.851824e-006
-8.979035e-004,-2.777494e-005
-1.060617e-003,-5.532604e-005
-1.213445e-003,-7.007398e-005
-1.290102e-003,-7.282909e-005
-1.226248e-003,-6.602235e-005
-1.006649e-003,-5.386745e-005
-6.825187e-004,-4.009190e-005
-3.530400e-004,-2.955766e-005
-1.287416e-004,-2.404744e-005
-8.384953e-005,-2.096819e-005
-2.203085e-004,-1.562004e-005
-4.557894e-004,-7.030578e-006
-6.836532e-004,2.693341e-006
-8.222189e-004,7.879431e-006
-8.264327e-004,8.041497e-006
-6.967805e-004,4.476060e-006
-4.732924e-004,-1.844488e-006
-2.146362e-004,-7.678839e-006
2.894792e-005,-1.010982e-005
2.318537e-004,-9.461557e-006
3.832228e-004,-6.544382e-006
4.848377e-004,-3.858999e-007
5.496639e-004,7.069104e-006
5.995801e-004,1.598270e-005
6.556546e-004,2.797553e-005
7.232359e-004,4.175108e-005
7.932482e-004,5.244739e-005
8.530504e-004,5.666109e-005
8.914599e-004,5.714729e-005
8.904876e-004,5.990240e-005
8.233925e-004,6.508849e-005
6.684579e-004,7.140904e-005
4.170944e-004,7.675719e-005
8.777764e-005,8.097089e-005
-2.716832e-004,8.242948e-005
-5.930586e-004,8.323980e-005
-8.144398e-004,8.161915e-005
-9.073032e-004,7.319175e-005
-8.823452e-004,5.601283e-005
-7.627410e-004,3.591673e-005
-5.569181e-004,1.776542e-005
-2.515871e-004,5.772582e-006
1.398006e-004,9.106226e-007
5.676532e-004,2.531276e-006
9.647135e-004,9.175954e-006
1.272314e-003,1.857574e-005
1.463065e-003,2.797553e-005
1.537777e-003,3.607880e-005
1.520274e-003,3.705119e-005
1.435352e-003,2.538249e-005
1.293382e-003,-5.734055e-006
1.084480e-003,-5.402952e-005
8.058894e-004,-1.029732e-004
4.704139e-004,-1.361966e-004
1.192183e-004,-1.436516e-004
-1.744440e-004,-1.242038e-004
-3.434781e-004,-8.838737e-005
-3.762153e-004,-4.722277e-005
-3.225717e-004,-5.571990e-006
-2.569353e-004,3.559260e-005
-2.431597e-004,7.529860e-005
-3.079858e-004,1.096565e-004
-4.416897e-004,1.334801e-004
-6.029447e-004,1.393144e-004
-7.363243e-004,1.281319e-004
-7.849439e-004,1.075496e-004
-7.068285e-004,8.777764e-005
-4.826922e-004,7.789165e-005
-1.212866e-004,7.610893e-005
3.018659e-004,7.918817e-005
6.465790e-004,8.226741e-005
7.703970e-004,8.518459e-005
5.935836e-004,8.761556e-005
1.540623e-004,8.810177e-005
-3.929080e-004,8.696730e-005
-8.697041e-004,8.696730e-005
-1.159477e-003,9.053274e-005
-1.226086e-003,9.426025e-005
-1.107292e-003,8.793970e-005
-8.957966e-004,6.606088e-005
-6.886772e-004,3.494434e-005
-5.436288e-004,5.610517e-006
-4.702132e-004,-1.788895e-005
-4.378001e-004,-3.279896e-005
-4.018217e-004,-3.474375e-005
-3.352128e-004,-2.890940e-005
-2.353806e-004,-2.096819e-005
-1.235555e-004,-1.156841e-005
-1.902341e-005,2.855406e-006
6.103685e-005,2.181705e-005
1.085220e-004,4.288554e-005
1.278078e-004,6.298164e-005
1.307249e-004,7.675719e-005
1.291043e-004,8.242948e-005
1.265113e-004,8.259154e-005
1.154908e-004,8.161915e-005
9.231547e-005,8.129502e-005
6.249544e-005,8.356393e-005
3.705119e-005,9.085687e-005
2.651694e-005,1.036600e-004
4.288554e-005,1.172735e-004
9.328785e-005,1.258630e-004
1.759412e-004,1.304008e-004
2.749631e-004,1.312111e-004
3.746333e-004,1.266733e-004
4.662002e-004,1.146805e-004
5.496639e-004,1.000946e-004
6.216210e-004,7.983643e-005
6.780197e-004,4.953022e-005
7.204809e-004,1.355172e-005
7.491664e-004,-1.578211e-005
7.619696e-004,-2.939559e-005
7.511112e-004,-2.761287e-005
7.091363e-004,-2.080613e-005
6.384758e-004,-1.902341e-005
5.522569e-004,-2.761287e-005
4.683071e-004,-4.187462e-005
3.897054e-004,-5.467778e-005
3.107795e-004,-6.829127e-005
2.187264e-004,-8.757703e-005
1.062531e-004,-1.143178e-004
-3.247483e-005,-1.462447e-004
-2.037778e-004,-1.762267e-004
-4.099249e-004,-1.940539e-004
-6.322784e-004,-1.943781e-004
-8.225431e-004,-1.780095e-004
-9.272373e-004,-1.501342e-004
-9.081136e-004,-1.128592e-004
-7.551239e-004,-6.310517e-005
-4.950092e-004,-5.734055e-006
-1.833576e-004,5.115087e-005
1.104668e-004,9.750155e-005
3.333066e-004,1.295905e-004
4.663623e-004,1.448246e-004
5.224369e-004,1.511452e-004
5.274609e-004,1.551968e-004
5.013684e-004,1.598967e-004
4.535591e-004,1.655690e-004
3.935950e-004,1.715654e-004
3.371962e-004,1.772377e-004
2.974902e-004,1.825858e-004
2.824181e-004,1.882581e-004
2.874421e-004,1.939304e-004
2.973281e-004,1.937684e-004
3.073762e-004,1.843686e-004
3.193690e-004,1.675138e-004
3.292550e-004,1.495245e-004
3.295791e-004,1.360731e-004
3.143450e-004,1.276457e-004
2.830664e-004,1.216493e-004
2.525981e-004,1.180839e-004
2.391467e-004,1.154908e-004
2.482223e-004,1.125736e-004
2.712356e-004,1.130598e-004
2.910076e-004,1.132219e-004
2.919800e-004,1.072255e-004
2.629703e-004,9.101894e-005
2.051129e-004,6.962632e-005
1.292664e-004,4.888196e-005
4.871989e-005,3.640293e-005
-2.404744e-005,3.380988e-005
-8.465986e-005,3.478227e-005
-1.350622e-004,3.218923e-005
-1.723372e-004,2.700314e-005
-1.955125e-004,2.489629e-005
-2.079916e-004,2.878586e-005
-2.139880e-004,3.591673e-005
-2.159328e-004,4.547859e-005
-2.224154e-004,5.244739e-005
-2.347323e-004,5.423011e-005
-2.486699e-004,5.034054e-005
-2.590421e-004,4.158902e-005
-2.637420e-004,2.992031e-005
-2.605007e-004,1.906194e-005
-2.468872e-004,9.013888e-006
-2.207947e-004,-2.006553e-006
-1.820611e-004,-1.399939e-005
-1.355484e-004,-2.420950e-005
-9.243900e-005,-2.745081e-005
-6.099833e-005,-2.291298e-005
-4.544005e-005,-1.432352e-005
-4.106429e-005,-8.002969e-006
-3.020592e-005,-6.544382e-006
1.322759e-005,-1.043395e-005
1.067393e-004,-1.432352e-005
2.574600e-004,-1.237873e-005
4.433490e-004,4.244267e-007
6.131936e-004,2.068259e-005
7.206429e-004,4.304760e-005
7.426838e-004,5.876794e-005
6.835299e-004,6.217131e-005
5.658705e-004,5.682316e-005
4.222805e-004,5.115087e-005
2.876042e-004,5.277152e-005
1.767515e-004,5.828174e-005
8.761556e-005,6.055066e-005
9.175954e-006,5.698522e-005
-7.363942e-005,4.969228e-005
-1.705545e-004,4.175108e-005
-2.817312e-004,3.980630e-005
-3.955011e-004,4.693717e-005
-4.896610e-004,6.119892e-005
-5.423322e-004,8.032263e-005
-5.552974e-004,9.960840e-005
-5.523803e-004,1.158149e-004
-5.614560e-004,1.242423e-004
-5.958137e-004,1.235941e-004
-6.361680e-004,1.175977e-004
-6.426506e-004,1.114392e-004
-6.133168e-004,1.049566e-004
-6.018102e-004,9.215340e-005
-6.932150e-004,6.168512e-005
-9.283717e-004,1.128280e-005
-1.250071e-003,-4.835723e-005
-1.514076e-003,-9.811128e-005
-1.564478e-003,-1.232314e-004
-1.327215e-003,-1.203142e-004
-8.385876e-004,-9.292519e-005
-1.977814e-004,-4.965375e-005
4.670106e-004,-2.006553e-006
1.019168e-003,3.672705e-005
1.355454e-003,5.941620e-005
1.434217e-003,6.946425e-005
1.276041e-003,7.238143e-005
9.684410e-004,7.481241e-005
6.373413e-004,8.064676e-005
3.838710e-004,8.956035e-005
2.265056e-004,9.798775e-005
1.235941e-004,1.052807e-004
2.052053e-005,1.107909e-004
-1.128592e-004,1.150046e-004
-2.634179e-004,1.190562e-004
-4.021458e-004,1.175977e-004
-5.110536e-004,1.075496e-004
-5.927345e-004,9.004655e-005
-6.646915e-004,7.140904e-005
-7.308142e-004,5.115087e-005
-7.630652e-004,2.959618e-005
-7.238454e-004,1.468617e-005
-5.930586e-004,1.338965e-005
-3.794566e-004,2.084466e-005
-1.156143e-004,3.073064e-005
1.526038e-004,3.964423e-005
3.780367e-004,4.839576e-005
5.358884e-004,5.617490e-005
6.222692e-004,6.411610e-005
6.386379e-004,6.914012e-005
5.952043e-004,6.476436e-005
5.101199e-004,4.807163e-005
4.031568e-004,2.684107e-005
2.945730e-004,9.662150e-006
1.893926e-004,3.665733e-006
7.740545e-005,6.744974e-006
-5.095028e-005,1.371378e-005
-1.809267e-004,1.063454e-005
-2.765452e-004,-8.489165e-006
-2.899966e-004,-4.284701e-005
-1.875713e-004,-8.401160e-005
4.969228e-005,-1.214487e-004
4.357320e-004,-1.426792e-004
9.455898e-004,-1.467309e-004
1.487699e-003,-1.410586e-004
1.913770e-003,-1.305243e-004
2.075188e-003,-1.128592e-004
1.897077e-003,-8.563225e-005
1.434866e-003,-5.224680e-005
8.478643e-004,-1.869928e-005
3.091589e-004,8.203561e-006
-6.213279e-005,2.716520e-005
-2.350565e-004,3.899597e-005
-2.436459e-004,4.823369e-005
-1.504584e-004,6.330577e-005
-1.837515e-005,8.388807e-005
1.044704e-004,1.046324e-004
1.911753e-004,1.141943e-004
2.414156e-004,1.070634e-004
2.678322e-004,8.761556e-005
2.906834e-004,6.914012e-005
3.252033e-004,6.249544e-005
3.723644e-004,7.043664e-005
4.258459e-004,8.631904e-005
4.762483e-004,1.012291e-004
5.093096e-004,1.106288e-004
5.166026e-004,1.143563e-004
4.945617e-004,1.127357e-004
4.498316e-004,1.043083e-004
3.859779e-004,8.372600e-005
3.175863e-004,4.936815e-005
2.654012e-004,6.096713e-006
2.372019e-004,-4.317114e-005
2.107852e-004,-9.632856e-005
1.451487e-004,-1.512687e-004
1.549650e-005,-2.044261e-004
-1.775233e-004,-2.502906e-004
-4.070077e-004,-2.809209e-004
-6.293613e-004,-2.887001e-004
-7.970989e-004,-2.674695e-004
-8.680834e-004,-2.177155e-004
-8.351842e-004,-1.408965e-004
-7.210902e-004,-4.236081e-005
-5.661558e-004,7.384001e-005
-4.121938e-004,2.070577e-004
-2.979378e-004,3.574544e-004
-2.444563e-004,5.208162e-004
-2.483458e-004,6.755887e-004
-2.875656e-004,7.879001e-004
-3.347266e-004,8.277682e-004
-3.713534e-004,7.776900e-004
-3.911253e-004,6.410688e-004
-4.027940e-004,4.519385e-004
-4.160834e-004,2.582704e-004
-4.292107e-004,9.977046e-005
-4.340726e-004,-3.789271e-006
-4.235384e-004,-5.581224e-005
-3.927460e-004,-7.461181e-005
-3.457470e-004,-8.093235e-005
-2.857829e-004,-8.741497e-005
-2.204706e-004,-9.843541e-005
-1.661787e-004,-1.101041e-004
-1.379793e-004,-1.169109e-004
-1.483515e-004,-1.165867e-004
-1.998883e-004,-1.131834e-004
-2.692523e-004,-1.102662e-004
-2.901587e-004,-1.097800e-004
-1.921091e-004,-1.062145e-004
4.239934e-005,-9.130454e-005
3.626405e-004,-6.067420e-005
6.678096e-004,-1.562004e-005
8.540228e-004,4.320967e-005
8.712017e-004,1.210010e-004
7.371736e-004,2.145127e-004
5.237334e-004,3.190449e-004
3.154794e-004,4.180668e-004
1.667035e-004,4.945617e-004
8.891209e-005,5.311884e-004
6.638501e-005,5.125509e-004
7.627100e-005,4.292493e-004
1.002567e-004,2.919800e-004
1.333180e-004,1.373696e-004
1.929580e-004,5.864920e-007
2.986246e-004,-9.470791e-005
4.472386e-004,-1.408965e-004
6.076833e-004,-1.470550e-004
7.386322e-004,-1.326312e-004
8.101031e-004,-1.180453e-004
8.070238e-004,-1.117248e-004
7.250187e-004,-1.164247e-004
5.704083e-004,-1.269589e-004
3.577785e-004,-1.365208e-004
1.067393e-004,-1.360346e-004
-1.583996e-004,-1.263107e-004
-4.108973e-004,-1.135075e-004
-6.197994e-004,-1.067007e-004
-7.650100e-004,-1.062145e-004
-8.411806e-004,-1.088076e-004
-8.457184e-004,-1.105903e-004
-7.797579e-004,-1.118868e-004
-6.569124e-004,-1.122110e-004
-5.092709e-004,-1.104282e-004
-3.794566e-004,-1.104282e-004
-3.157650e-004,-1.109144e-004
-3.510952e-004,-1.114006e-004
-4.723200e-004,-1.084835e-004
-6.071583e-004,-1.018388e-004
-6.392473e-004,-9.422171e-005
-4.838267e-004,-8.692878e-005
-1.464067e-004,-7.704279e-005
2.717218e-004,-6.294311e-005
6.383137e-004,-4.657451e-005
8.603433e-004,-3.279896e-005
9.198214e-004,-2.437157e-005
8.527263e-004,-1.626830e-005
7.169154e-004,-1.237873e-005
5.623050e-004,-1.529591e-005
4.169323e-004,-2.242678e-005
2.876042e-004,-2.469570e-005
1.610312e-004,-1.626830e-005
2.376183e-005,3.827798e-006
-1.246900e-004,2.975825e-005
-2.955068e-004,5.163707e-005
-5.023021e-004,6.298164e-005
-7.376209e-004,6.849186e-005
-9.671053e-004,7.367795e-005
-1.145863e-003,7.902610e-005
-1.236296e-003,8.615698e-005
-1.213282e-003,9.555677e-005
-1.075203e-003,1.047945e-004
-8.466908e-004,1.154908e-004
-5.702075e-004,1.252147e-004
-2.898345e-004,1.291043e-004
-3.992984e-005,1.216493e-004
1.600588e-004,1.046324e-004
3.068900e-004,8.696730e-005
4.078567e-004,7.724339e-005
4.785172e-004,7.918817e-005
5.366987e-004,9.166720e-005
5.960146e-004,1.067393e-004
6.621373e-004,1.154908e-004
7.246946e-004,1.171115e-004
7.708832e-004,1.125736e-004
7.869277e-004,1.020394e-004
7.639144e-004,8.810177e-005
6.838541e-004,7.627100e-005
5.247058e-004,6.946425e-005
2.780423e-004,6.492643e-005
-3.134038e-005,5.714729e-005
-3.353749e-004,4.223728e-005
-5.528664e-004,2.311357e-005
-6.240131e-004,8.365628e-006
-5.424943e-004,4.313994e-006
-3.559572e-004,8.203561e-006
-1.347380e-004,1.387585e-005
6.703327e-005,2.019640e-005
2.206712e-004,2.538249e-005
3.206655e-004,2.505835e-005
3.824124e-004,1.663096e-005
4.179047e-004,4.800190e-006
4.358940e-004,-4.761663e-006
4.461041e-004,-6.058186e-006
4.568004e-004,2.693341e-006
4.674967e-004,1.825161e-005
4.699277e-004,3.429608e-005
4.590693e-004,4.612685e-005
4.409180e-004,5.617490e-005
4.318423e-004,6.606088e-005
4.439973e-004,7.448828e-005
4.781931e-004,8.405013e-005
5.229231e-004,9.426025e-005
5.540397e-004,1.005808e-004
5.391297e-004,1.026876e-004
4.574487e-004,1.041462e-004
3.188828e-004,1.039842e-004
1.535762e-004,9.977046e-005
-2.978945e-006,9.231547e-005
-1.107524e-004,8.291567e-005
-1.324691e-004,7.384001e-005
-5.111234e-005,6.832980e-005
1.085220e-004,6.687120e-005
2.806354e-004,6.897806e-005
3.921364e-004,7.578480e-005
3.905157e-004,8.761556e-005
2.691287e-004,1.018773e-004
6.800567e-005,1.111150e-004
-1.496480e-004,1.119254e-004
-3.201407e-004,1.098185e-004
-3.987424e-004,1.109530e-004
-3.878840e-004,1.219734e-004
-3.339163e-004,1.398006e-004
-3.065272e-004,1.561692e-004
-3.583881e-004,1.545486e-004
-4.886886e-004,1.268354e-004
-6.373025e-004,7.821578e-005
-7.219006e-004,2.959618e-005
-6.833291e-004,-3.303075e-006
-5.118640e-004,-1.237873e-005
-2.507768e-004,3.665733e-006
3.348575e-005,3.656499e-005
2.879283e-004,6.962632e-005
4.811102e-004,9.053274e-005
5.997421e-004,9.588090e-005
6.371792e-004,8.826383e-005
5.966629e-004,7.497447e-005
5.042856e-004,5.747142e-005
4.119083e-004,3.850977e-005
3.728506e-004,1.873781e-005
4.339492e-004,-1.358292e-006
6.237278e-004,-2.194059e-005
9.216041e-004,-3.895744e-005
1.227908e-003,-5.613637e-005
1.389974e-003,-7.104637e-005
1.274097e-003,-7.817725e-005
8.417058e-004,-7.461181e-005
1.921477e-004,-6.278104e-005
-4.826922e-004,-4.138842e-005
-1.008594e-003,-1.335112e-005
-1.303553e-003,1.663096e-005
-1.371944e-003,4.661304e-005
-1.273571e-003,7.286762e-005
-1.087034e-003,9.037068e-005
-8.849382e-004,9.490851e-005
-7.099077e-004,8.583285e-005
-5.706937e-004,6.800567e-005
-4.645409e-004,5.034054e-005
-3.799428e-004,3.721326e-005
-3.042583e-004,2.846173e-005
-2.323013e-004,2.667901e-005
-1.640719e-004,3.073064e-005
-1.037836e-004,4.077869e-005
-4.819516e-005,5.520250e-005
8.527692e-006,6.946425e-005
6.995045e-005,8.080882e-005
1.368834e-004,8.761556e-005
2.101370e-004,8.664317e-005
2.775562e-004,7.967437e-005
3.206655e-004,6.995045e-005
3.308756e-004,6.168512e-005
3.151553e-004,5.649903e-005
2.867939e-004,5.034054e-005
2.563256e-004,4.029249e-005
2.268297e-004,2.667901e-005
1.973338e-004,1.225519e-005
1.738343e-004,1.883015e-006
1.668655e-004,-1.520357e-006
1.819376e-004,2.531276e-006
2.124059e-004,8.365628e-006
2.482223e-004,1.209313e-005
2.777182e-004,1.452411e-005
2.901973e-004,1.403791e-005
2.743148e-004,1.322759e-005
2.315296e-004,1.582063e-005
1.702689e-004,2.068259e-005
1.015532e-004,2.505835e-005
4.045456e-005,2.781346e-005
-3.303075e-006,2.505835e-005
-2.988179e-005,1.727922e-005
-4.835723e-005,7.069104e-006
-6.310517e-005,1.720949e-006
-7.201877e-005,5.772582e-006
-7.331529e-005,1.987226e-005
-6.116039e-005,3.802358e-005
-2.404744e-005,5.163707e-005
3.996836e-005,5.714729e-005
1.116012e-004,5.617490e-005
1.618415e-004,5.179913e-005
1.654069e-004,4.450619e-005
1.088461e-004,3.996836e-005
4.638125e-006,4.483032e-005
-1.167488e-004,5.828174e-005
-2.167431e-004,7.448828e-005
-2.598524e-004,8.972242e-005
-2.227395e-004,1.034980e-004
-9.746302e-005,1.104668e-004
1.180839e-004,1.081979e-004
4.120704e-004,1.049566e-004
7.413873e-004,1.069013e-004
1.035536e-003,1.107909e-004
1.207002e-003,1.156529e-004
1.173616e-003,1.203528e-004
9.201455e-004,1.253768e-004
5.083373e-004,1.287802e-004
5.423011e-005,1.278078e-004
-3.256510e-004,1.237561e-004
-5.807417e-004,1.182459e-004
-7.353520e-004,1.150046e-004
-8.429633e-004,1.117633e-004
-9.476575e-004,1.038221e-004
-1.050731e-003,8.680524e-005
-1.105185e-003,6.119892e-005
-1.060779e-003,2.829966e-005
-9.066550e-004,-1.140634e-005
-6.761981e-004,-5.727082e-005
-4.240246e-004,-1.010285e-004
-2.065330e-004,-1.342519e-004
-7.461181e-005,-1.489998e-004
-6.521203e-005,-1.386276e-004
-1.919471e-004,-1.044318e-004
-4.282383e-004,-5.370539e-005
-7.052078e-004,-3.858999e-007
-9.304786e-004,4.304760e-005
-1.021883e-003,6.978838e-005
-9.429576e-004,8.032263e-005
-7.196317e-004,7.935023e-005
-4.212695e-004,7.254349e-005
-1.110765e-004,6.751947e-005
1.952270e-004,6.573675e-005
5.096338e-004,6.557468e-005
8.232304e-004,6.168512e-005
1.089666e-003,5.212327e-005
1.238118e-003,3.834771e-005
1.207650e-003,2.214118e-005
9.865924e-004,-2.492749e-006
6.177314e-004,-4.268495e-005
1.832341e-004,-9.017008e-005
-2.295462e-004,-1.258244e-004
-5.480045e-004,-1.360346e-004
-7.329210e-004,-1.233935e-004
-7.855922e-004,-9.438377e-005
-7.329210e-004,-5.500191e-005
-6.084549e-004,-9.785687e-006
-4.455793e-004,3.413401e-005
-2.778417e-004,7.238143e-005
-1.421931e-004,9.766362e-005
-5.856734e-005,1.117633e-004
1.072688e-006,1.175977e-004
1.036600e-004,1.175977e-004
2.919800e-004,1.130598e-004
5.501501e-004,1.043083e-004
8.214476e-004,9.571883e-005
1.037157e-003,8.777764e-005
1.159354e-003,8.048469e-005
1.194522e-003,7.578480e-005
