1.176047e-003,3.332369e-005
1.040722e-003,8.323980e-005
9.546655e-004,1.307249e-004
9.332728e-004,1.642725e-004
9.726548e-004,1.798307e-004
1.044450e-003,1.806411e-004
1.108952e-003,1.686482e-004
1.135206e-003,1.466074e-004
1.114138e-003,1.213252e-004
1.059198e-003,9.474644e-005
9.851338e-004,6.978838e-005
9.029665e-004,4.450619e-005
8.230683e-004,2.246531e-005
7.493285e-004,3.665733e-006
6.700785e-004,-1.464765e-005
5.772150e-004,-3.312309e-005
4.721966e-004,-4.932962e-005
3.553475e-004,-6.035006e-005
2.289365e-004,-6.456376e-005
9.960840e-005,-5.808115e-005
-2.874733e-005,-3.992984e-005
-1.378173e-004,-1.967167e-005
-2.063709e-004,-7.354708e-006
-2.088019e-004,-5.896120e-006
-1.225831e-004,-8.813297e-006
6.411610e-005,-4.437533e-006
3.574544e-004,1.987226e-005
7.096225e-004,6.670914e-005
1.010578e-003,1.286181e-004
1.118028e-003,1.931201e-004
9.264661e-004,2.513016e-004
4.415663e-004,2.948972e-004
-1.895161e-004,3.243930e-004
-7.530171e-004,3.423823e-004
-1.086061e-003,3.452995e-004
-1.125443e-003,3.266619e-004
-9.074653e-004,2.851732e-004
-5.467080e-004,2.300710e-004
-1.744440e-004,1.717275e-004
1.000946e-004,1.145184e-004
2.166196e-004,5.374392e-005
1.754550e-004,-1.529591e-005
3.624086e-005,-9.049421e-005
-1.060525e-004,-1.677994e-004
-1.582375e-004,-2.465631e-004
-7.234290e-005,-3.233821e-004
1.404489e-004,-3.775118e-004
4.320044e-004,-3.851289e-004
7.431700e-004,-3.366714e-004
1.013981e-003,-2.404046e-004
1.178802e-003,-1.206384e-004
1.171185e-003,-6.706447e-006
9.511000e-004,8.129502e-005
5.452881e-004,1.370455e-004
5.082674e-005,1.652449e-004
-4.047388e-004,1.718895e-004
-7.324348e-004,1.629759e-004
-9.157307e-004,1.406109e-004
-9.972495e-004,1.067393e-004
-1.033390e-003,6.914012e-005
-1.060779e-003,3.688912e-005
-1.070341e-003,1.727922e-005
-1.025611e-003,1.144487e-005
-9.001723e-004,1.630683e-005
-7.029389e-004,2.586868e-005
-4.736166e-004,3.024445e-005
-2.553146e-004,2.181705e-005
-7.185670e-005,-5.479652e-007
6.427816e-005,-3.117831e-005
1.446626e-004,-5.775702e-005
1.761032e-004,-8.093235e-005
1.944166e-004,-1.101041e-004
2.363915e-004,-1.457585e-004
3.151553e-004,-1.780095e-004
4.183909e-004,-1.930815e-004
5.234093e-004,-1.875713e-004
6.083316e-004,-1.645580e-004
6.605167e-004,-1.280934e-004
6.859609e-004,-8.222889e-005
6.960090e-004,-2.777494e-005
6.929297e-004,3.478227e-005
6.669993e-004,1.041462e-004
6.075212e-004,1.720516e-004
5.370228e-004,2.323399e-004
5.247058e-004,2.845250e-004
6.451205e-004,3.334687e-004
8.994011e-004,3.785229e-004
1.195171e-003,4.154738e-004
1.404884e-003,4.425387e-004
1.419956e-003,4.543695e-004
1.210405e-003,4.514523e-004
8.319819e-004,4.392974e-004
3.968363e-004,4.245494e-004
2.165498e-005,4.094774e-004
-2.204706e-004,3.905157e-004
-3.118754e-004,3.649094e-004
-2.883759e-004,3.240689e-004
-2.136638e-004,2.650771e-004
-1.553203e-004,1.929580e-004
-1.640719e-004,1.130598e-004
-2.645523e-004,3.137890e-005
-4.358554e-004,-4.414354e-005
-6.235269e-004,-1.037836e-004
-7.594997e-004,-1.452723e-004
-8.047159e-004,-1.669890e-004
-7.569067e-004,-1.715269e-004
-6.431369e-004,-1.621271e-004
-5.037607e-004,-1.462447e-004
-3.729740e-004,-1.357104e-004
-2.686040e-004,-1.394379e-004
-2.013469e-004,-1.606685e-004
-1.703924e-004,-1.940539e-004
-1.673132e-004,-2.266291e-004
-1.759026e-004,-2.426735e-004
-1.807646e-004,-2.382978e-004
-1.702303e-004,-2.233878e-004
-1.464067e-004,-2.089639e-004
-1.193418e-004,-2.039399e-004
-1.003802e-004,-2.131776e-004
-9.794922e-005,-2.368392e-004
-1.133454e-004,-2.642282e-004
-1.378173e-004,-2.729797e-004
-1.593720e-004,-2.368392e-004
-1.754164e-004,-1.489998e-004
-1.927574e-004,-1.740276e-005
-2.156086e-004,1.352628e-004
-2.415391e-004,2.701011e-004
-2.708729e-004,3.503235e-004
-3.117133e-004,3.598853e-004
-3.632501e-004,3.068900e-004
-3.990665e-004,2.137024e-004
-3.838324e-004,1.124116e-004
-3.006929e-004,2.473422e-005
-1.549962e-004,-3.620233e-005
3.462021e-005,-7.169464e-005
2.363915e-004,-9.357345e-005
4.132048e-004,-1.141557e-004
5.412365e-004,-1.371690e-004
6.242140e-004,-1.621271e-004
6.909849e-004,-1.797922e-004
7.658592e-004,-1.827094e-004
8.457575e-004,-1.676373e-004
9.078285e-004,-1.220969e-004
9.277626e-004,-2.437157e-005
8.976184e-004,1.469315e-004
8.238786e-004,3.840331e-004
7.216153e-004,6.318311e-004
6.089798e-004,8.180442e-004
5.067165e-004,8.922702e-004
4.135290e-004,8.397610e-004
3.086727e-004,6.908229e-004
1.457970e-004,5.047718e-004
-1.292278e-004,3.365479e-004
-5.313118e-004,2.132162e-004
-9.931979e-004,1.383420e-004
-1.440822e-003,9.814982e-005
-1.868351e-003,7.789165e-005
-2.320675e-003,6.557468e-005
-2.793421e-003,5.260946e-005
-3.167955e-003,4.142695e-005
-3.266167e-003,3.283749e-005
-2.955648e-003,2.781346e-005
-2.248070e-003,2.651694e-005
-1.353469e-003,3.089270e-005
-5.964620e-004,4.029249e-005
-2.178775e-004,5.163707e-005
-2.084778e-004,6.006446e-005
-3.802670e-004,6.346784e-005
-5.204534e-004,6.298164e-005
-5.053813e-004,5.925414e-005
-3.178718e-004,5.390598e-005
-2.664048e-005,4.547859e-005
2.785285e-004,3.591673e-005
5.276230e-004,2.522042e-005
6.901746e-004,8.689757e-006
7.661833e-004,-2.015787e-005
7.791486e-004,-6.359137e-005
7.574318e-004,-1.115627e-004
7.269635e-004,-1.507825e-004
6.976296e-004,-1.712027e-004
6.747784e-004,-1.810887e-004
6.648924e-004,-1.994021e-004
6.697544e-004,-2.400805e-004
6.890402e-004,-2.979378e-004
7.123776e-004,-3.579019e-004
7.298806e-004,-3.976079e-004
7.337703e-004,-3.971218e-004
7.216153e-004,-3.525538e-004
6.914712e-004,-2.705488e-004
6.490100e-004,-1.663408e-004
6.070351e-004,-5.629843e-005
5.772150e-004,4.839576e-005
5.593878e-004,1.412592e-004
5.493397e-004,2.137024e-004
5.478812e-004,2.517877e-004
5.538776e-004,2.522740e-004
5.634395e-004,2.248849e-004
5.731634e-004,1.835582e-004
5.741358e-004,1.393144e-004
5.619809e-004,1.007429e-004
5.420469e-004,6.460230e-005
5.242196e-004,2.910999e-005
5.172509e-004,-4.437533e-006
5.188715e-004,-4.138842e-005
5.240575e-004,-8.012203e-005
5.238955e-004,-1.101041e-004
5.026649e-004,-1.167488e-004
4.499937e-004,-9.389758e-005
3.717161e-004,-4.868136e-005
2.812837e-004,1.072688e-006
1.960373e-004,3.915804e-005
1.258630e-004,5.520250e-005
6.314371e-005,5.082674e-005
-4.275467e-006,3.364782e-005
-8.871149e-005,1.517237e-005
-1.825473e-004,2.369210e-006
-2.567732e-004,-4.275467e-006
-2.802727e-004,-8.651231e-006
-2.374874e-004,-1.237873e-005
-1.350622e-004,-1.545797e-005
3.827798e-006,-1.432352e-005
1.551968e-004,-7.516774e-006
3.062417e-004,3.341602e-006
4.480489e-004,1.452411e-005
5.657084e-004,2.343770e-005
6.446342e-004,2.781346e-005
6.801265e-004,2.295151e-005
6.772094e-004,1.322759e-005
6.464170e-004,4.313994e-006
6.010386e-004,1.720949e-006
5.498260e-004,2.531276e-006
4.895377e-004,3.989864e-006
4.208219e-004,5.286386e-006
3.490270e-004,6.258778e-006
2.726942e-004,7.555300e-006
1.830720e-004,1.225519e-005
7.837785e-005,2.748933e-005
-1.529591e-005,5.568870e-005
-5.581224e-005,9.134307e-005
-2.712668e-005,1.227837e-004
5.568870e-005,1.402868e-004
1.772377e-004,1.409351e-004
3.498373e-004,1.305629e-004
6.099522e-004,1.169494e-004
9.770305e-004,1.064151e-004
1.379926e-003,1.000946e-004
1.656410e-003,9.814982e-005
1.634693e-003,9.863601e-005
1.230987e-003,9.620503e-005
5.091476e-004,8.777764e-005
-3.139823e-004,7.448828e-005
-9.651606e-004,6.217131e-005
-1.269033e-003,5.974033e-005
-1.208745e-003,7.578480e-005
-8.959587e-004,1.075496e-004
-5.076503e-004,1.428798e-004
-1.985918e-004,1.634621e-004
-4.770897e-005,1.589243e-004
-5.548810e-005,1.307249e-004
-1.632615e-004,8.810177e-005
-2.895104e-004,4.612685e-005
-3.695707e-004,1.468617e-005
-3.843186e-004,1.002961e-007
-3.472056e-004,3.503668e-006
-2.836761e-004,2.019640e-005
-2.062088e-004,4.596478e-005
-1.235555e-004,7.367795e-005
-4.349527e-005,9.912220e-005
3.040651e-005,1.211631e-004
1.005808e-004,1.396385e-004
1.605450e-004,1.556830e-004
1.924718e-004,1.681620e-004
1.866375e-004,1.752929e-004
1.396385e-004,1.790204e-004
5.050261e-005,1.759412e-004
-7.574627e-005,1.678379e-004
-2.282497e-004,1.564933e-004
-3.940425e-004,1.472556e-004
-5.706937e-004,1.425557e-004
-7.643617e-004,1.451487e-004
-9.884980e-004,1.547106e-004
-1.253151e-003,1.686482e-004
-1.552323e-003,1.790204e-004
-1.845986e-003,1.757791e-004
-2.046136e-003,1.553589e-004
-2.057967e-003,1.159770e-004
-1.844689e-003,5.520250e-005
-1.453139e-003,-2.469570e-005
-1.001139e-003,-1.018388e-004
-6.146134e-004,-1.451102e-004
-3.598467e-004,-1.400862e-004
-2.295462e-004,-9.940780e-005
-1.564548e-004,-4.803310e-005
-4.787104e-005,-1.520357e-006
1.561692e-004,3.121684e-005
4.378388e-004,4.596478e-005
7.125397e-004,4.320967e-005
8.874083e-004,2.846173e-005
9.206317e-004,7.555300e-006
8.391127e-004,-1.140634e-005
7.071915e-004,-2.129233e-005
5.807804e-004,-2.113026e-005
4.746277e-004,-1.529591e-005
3.692851e-004,-9.299492e-006
2.344468e-004,-3.858999e-007
5.374392e-005,1.160693e-005
-1.687718e-004,1.679302e-005
-3.987424e-004,9.500084e-006
-5.750695e-004,-5.409925e-006
-6.497815e-004,-1.594417e-005
-6.116962e-004,-1.594417e-005
-4.813957e-004,-1.124428e-005
-3.036101e-004,-8.002969e-006
-1.276072e-004,-9.785687e-006
2.619281e-005,-1.318906e-005
1.665414e-004,-1.772689e-005
3.205035e-004,-1.675450e-005
5.166026e-004,-1.254080e-005
7.694246e-004,-7.516774e-006
1.078646e-003,-2.816880e-006
1.399698e-003,4.476060e-006
1.622052e-003,1.419998e-005
1.617028e-003,2.489629e-005
1.315261e-003,3.429608e-005
7.601869e-004,4.369587e-005
7.610893e-005,5.277152e-005
-5.948414e-004,5.876794e-005
-1.152346e-003,6.200925e-005
-1.538386e-003,6.444023e-005
-1.718602e-003,6.914012e-005
-1.694455e-003,7.886404e-005
-1.500786e-003,9.426025e-005
-1.191566e-003,1.072255e-004
-8.170329e-004,1.025256e-004
-4.128421e-004,7.221937e-005
-3.465141e-006,2.700314e-005
3.948915e-004,-1.140634e-005
7.668316e-004,-2.615428e-005
1.091449e-003,-1.221667e-005
1.342326e-003,1.825161e-005
1.494668e-003,4.985435e-005
1.538588e-003,7.351588e-005
1.485917e-003,8.793970e-005
1.376360e-003,9.312579e-005
1.268749e-003,8.745350e-005
1.202464e-003,7.367795e-005
1.174751e-003,6.006446e-005
1.135855e-003,5.747142e-005
9.788133e-004,7.043664e-005
5.807804e-004,9.361198e-005
-1.361966e-004,1.190562e-004
-1.153480e-003,1.393144e-004
-2.335423e-003,1.496866e-004
-3.454649e-003,1.535762e-004
-4.271949e-003,1.532520e-004
-4.613423e-003,1.509831e-004
-4.422347e-003,1.449867e-004
-3.770678e-003,1.318594e-004
-2.815462e-003,1.109530e-004
-1.721844e-003,8.518459e-005
-6.348715e-004,5.730935e-005
3.250413e-004,3.024445e-005
1.074756e-003,8.851824e-006
1.579590e-003,-8.165034e-006
1.841975e-003,-3.004385e-005
1.895295e-003,-6.537409e-005
1.797245e-003,-1.211245e-004
1.614921e-003,-1.887058e-004
1.407153e-003,-2.473734e-004
1.221587e-003,-2.729797e-004
1.081401e-003,-2.535319e-004
9.984232e-004,-1.909747e-004
9.742754e-004,-1.021629e-004
1.004258e-003,-9.785687e-006
1.076053e-003,6.362990e-005
1.165837e-003,1.086841e-004
1.233094e-003,1.269974e-004
1.244925e-003,1.257009e-004
1.182043e-003,1.109530e-004
1.048015e-003,8.453633e-005
8.679605e-004,4.628891e-005
6.815851e-004,-1.034161e-006
5.344298e-004,-5.532604e-005
4.540453e-004,-1.138316e-004
4.444834e-004,-1.661787e-004
4.973168e-004,-1.977814e-004
5.989318e-004,-1.984297e-004
7.282600e-004,-1.721751e-004
8.627743e-004,-1.271210e-004
9.827028e-004,-7.266703e-005
1.067949e-003,-1.902341e-005
1.106845e-003,2.684107e-005
1.094204e-003,6.719534e-005
1.032133e-003,1.051186e-004
9.303557e-004,1.417454e-004
8.133444e-004,1.720516e-004
7.097846e-004,1.911753e-004
6.457687e-004,1.965235e-004
6.281036e-004,1.911753e-004
6.483617e-004,1.782101e-004
6.775335e-004,1.663793e-004
6.785059e-004,1.671896e-004
6.266450e-004,1.801549e-004
5.289195e-004,1.952270e-004
4.162841e-004,2.021958e-004
3.162897e-004,1.898788e-004
2.427121e-004,1.545486e-004
1.926339e-004,1.052807e-004
1.521176e-004,5.601283e-005
1.094944e-004,2.311357e-005
6.071273e-005,1.776542e-005
-2.006553e-006,3.964423e-005
-8.611845e-005,7.772959e-005
-1.922712e-004,1.156529e-004
-3.092824e-004,1.393144e-004
-4.172178e-004,1.456350e-004
-4.980884e-004,1.399627e-004
-5.397392e-004,1.316973e-004
-5.439529e-004,1.253768e-004
-5.223982e-004,1.250527e-004
-4.898231e-004,1.284560e-004
-4.650271e-004,1.310491e-004
-4.681063e-004,1.287802e-004
-5.037607e-004,1.213252e-004
-5.648593e-004,1.098185e-004
-6.415162e-004,9.944633e-005
-7.193075e-004,8.761556e-005
-7.794337e-004,6.849186e-005
-8.087676e-004,3.867184e-005
-8.040676e-004,-1.520357e-006
-7.695478e-004,-4.738484e-005
-7.095836e-004,-8.757703e-005
-6.139651e-004,-1.131834e-004
-4.583824e-004,-1.225831e-004
-2.429977e-004,-1.237176e-004
-5.734055e-006,-1.172350e-004
1.952270e-004,-1.015147e-004
3.214759e-004,-7.817725e-005
3.655576e-004,-5.111234e-005
3.506476e-004,-1.821308e-005
3.047831e-004,1.727922e-005
2.493568e-004,4.985435e-005
1.880961e-004,7.092283e-005
1.185700e-004,7.691926e-005
2.894792e-005,7.043664e-005
-1.034594e-004,6.249544e-005
-2.985860e-004,6.071273e-005
-5.561078e-004,6.444023e-005
-8.522010e-004,7.092283e-005
-1.149105e-003,8.161915e-005
-1.399171e-003,9.247753e-005
-1.565613e-003,9.685329e-005
-1.626225e-003,9.182927e-005
-1.574364e-003,8.145709e-005
-1.408247e-003,7.011251e-005
-1.109885e-003,6.087479e-005
-6.797636e-004,5.115087e-005
-1.815749e-004,3.721326e-005
2.555152e-004,1.938607e-005
4.788413e-004,-6.176923e-008
3.932708e-004,-1.675450e-005
2.441009e-005,-2.923352e-005
-5.070020e-004,-3.328516e-005
-1.035659e-003,-2.534396e-005
-1.410192e-003,-8.975361e-006
-1.529958e-003,1.614476e-005
-1.368541e-003,4.612685e-005
-9.813671e-004,7.221937e-005
-4.749131e-004,8.729143e-005
3.510640e-005,9.118101e-005
4.542074e-004,9.166720e-005
7.397666e-004,9.344992e-005
9.063699e-004,9.669123e-005
9.943715e-004,9.766362e-005
1.036184e-003,9.182927e-005
1.047367e-003,7.821578e-005
1.041209e-003,6.119892e-005
1.035698e-003,4.515445e-005
1.052553e-003,3.121684e-005
1.110248e-003,2.003433e-005
1.195009e-003,1.274139e-005
1.253190e-003,1.338965e-005
1.213484e-003,1.938607e-005
1.032457e-003,2.554455e-005
7.373357e-004,2.878586e-005
4.002396e-004,3.024445e-005
9.798775e-005,3.688912e-005
-9.859748e-005,5.196120e-005
-1.465688e-004,7.238143e-005
-7.461181e-005,8.761556e-005
9.824214e-006,9.215340e-005
-1.724069e-005,8.664317e-005
-2.206326e-004,7.351588e-005
-5.747453e-004,6.022653e-005
-9.985460e-004,5.098881e-005
-1.410354e-003,4.320967e-005
-1.748098e-003,3.251336e-005
-1.960728e-003,1.565857e-005
-2.005782e-003,-8.651231e-006
-1.863165e-003,-4.641245e-005
-1.546975e-003,-9.470791e-005
-1.112316e-003,-1.413827e-004
-6.300095e-004,-1.720131e-004
-1.501342e-004,-1.831956e-004
3.111037e-004,-1.877334e-004
7.363633e-004,-2.021572e-004
1.107655e-003,-2.335979e-004
1.437297e-003,-2.755728e-004
1.773583e-003,-3.157650e-004
2.180044e-003,-3.384541e-004
2.673536e-003,-3.298646e-004
3.126511e-003,-2.838381e-004
3.273668e-003,-2.034537e-004
2.846298e-003,-1.021629e-004
1.707136e-003,2.693341e-006
-1.594417e-005,9.588090e-005
-1.840475e-003,1.710792e-004
-3.211712e-003,2.290986e-004
-3.792233e-003,2.699391e-004
-3.504565e-003,2.979764e-004
-2.537681e-003,3.179104e-004
-1.271302e-003,3.410858e-004
-1.248521e-004,3.806297e-004
6.075212e-004,4.449697e-004
8.642329e-004,5.349160e-004
7.504629e-004,6.415550e-004
4.284390e-004,7.464113e-004
5.747142e-005,8.214476e-004
-2.564491e-004,8.384645e-004
-4.647030e-004,7.848209e-004
-5.416840e-004,6.668372e-004
-4.698891e-004,5.052580e-004
-2.737901e-004,3.320101e-004
-2.826113e-005,1.764274e-004
2.010613e-004,5.909207e-005
3.796573e-004,-1.578211e-005
5.096338e-004,-5.451571e-005
6.151383e-004,-7.396355e-005
7.182119e-004,-9.081834e-005
8.271199e-004,-1.055663e-004
9.358659e-004,-1.135075e-004
1.033753e-003,-1.094559e-004
1.105711e-003,-9.551824e-005
1.135369e-003,-8.028410e-005
1.113814e-003,-6.683268e-005
1.040884e-003,-5.565017e-005
9.246834e-004,-5.062615e-005
7.796347e-004,-5.095028e-005
6.287518e-004,-5.483985e-005
4.919686e-004,-6.326724e-005
3.605336e-004,-7.736692e-005
1.910132e-004,-9.389758e-005
-5.159854e-005,-1.107524e-004
-3.386162e-004,-1.302002e-004
-5.804176e-004,-1.553203e-004
-6.804119e-004,-1.877334e-004
-5.927345e-004,-2.276015e-004
-3.399127e-004,-2.687660e-004
1.906194e-005,-3.011791e-004
4.177427e-004,-3.147926e-004
8.083204e-004,-3.065272e-004
1.157409e-003,-2.835140e-004
1.433731e-003,-2.637420e-004
1.602604e-003,-2.548284e-004
1.643931e-003,-2.470493e-004
1.567598e-003,-2.301945e-004
1.400508e-003,-2.028055e-004
1.185933e-003,-1.707165e-004
9.698996e-004,-1.421931e-004
7.872518e-004,-1.246900e-004
6.478755e-004,-1.157764e-004
5.358884e-004,-1.104282e-004
4.261701e-004,-1.063766e-004
3.049452e-004,-1.005423e-004
1.762653e-004,-8.871149e-005
5.844381e-005,-7.120844e-005
-2.890940e-005,-5.694669e-005
-7.914964e-005,-5.500191e-005
-9.422171e-005,-5.986387e-005
-9.260106e-005,-6.132245e-005
-9.195280e-005,-4.527799e-005
-8.919769e-005,-5.247859e-006
-7.769105e-005,6.670914e-005
-5.613637e-005,1.880961e-004
-3.247483e-005,3.694472e-004
-1.853721e-005,5.892079e-004
-2.745081e-005,7.938965e-004
-7.201877e-005,9.211179e-004
-1.494860e-004,9.310039e-004
-2.489941e-004,8.250131e-004
-3.564433e-004,6.415550e-004
-4.603272e-004,4.357320e-004
-5.502734e-004,2.551911e-004
-6.191512e-004,1.265113e-004
-6.666363e-004,5.390598e-005
-7.115284e-004,1.857574e-005
-7.637134e-004,-3.789271e-006
-8.128192e-004,-2.728874e-005
-8.225431e-004,-5.581224e-005
-7.455621e-004,-8.482193e-005
-5.536768e-004,-1.068628e-004
-2.472113e-004,-1.196660e-004
1.534141e-004,-1.263107e-004
6.024972e-004,-1.277692e-004
1.007823e-003,-1.235555e-004
1.242332e-003,-1.141557e-004
1.191443e-003,-1.011905e-004
8.199890e-004,-8.725291e-005
2.237504e-004,-7.444974e-005
-4.159213e-004,-6.569822e-005
-9.377715e-004,-6.018800e-005
-1.271302e-003,-5.678463e-005
-1.428829e-003,-5.597430e-005
-1.478421e-003,-5.629843e-005
-1.512293e-003,-6.164659e-005
-1.595270e-003,-7.234290e-005
-1.738536e-003,-8.401160e-005
-1.904815e-003,-9.130454e-005
-2.035116e-003,-8.871149e-005
-2.074822e-003,-7.801519e-005
-1.986334e-003,-6.472583e-005
-1.759281e-003,-5.078821e-005
-1.403385e-003,-3.393342e-005
-9.361508e-004,-1.270286e-005
-3.911253e-004,6.258778e-006
1.668655e-004,1.825161e-005
6.478755e-004,2.684107e-005
9.784891e-004,4.126489e-005
1.131317e-003,6.103685e-005
1.147199e-003,7.805372e-005
1.128886e-003,8.664317e-005
1.196143e-003,8.340186e-005
1.396942e-003,7.335382e-005
1.682502e-003,6.200925e-005
1.932246e-003,5.212327e-005
2.006958e-003,3.640293e-005
1.803403e-003,1.355172e-005
1.288520e-003,-1.513384e-005
5.159543e-004,-4.689864e-005
-3.804290e-004,-8.158062e-005
-1.234837e-003,-1.139937e-004
-1.901574e-003,-1.305243e-004
-2.267680e-003,-1.208004e-004
-2.296041e-003,-8.514606e-005
-2.039330e-003,-3.263690e-005
-1.615042e-003,2.505835e-005
-1.148132e-003,7.416414e-005
-7.283832e-004,1.043083e-004
-3.817255e-004,1.137081e-004
-7.785312e-005,1.081979e-004
2.125679e-004,9.652916e-005
4.773827e-004,8.793970e-005
6.723474e-004,8.972242e-005
7.579180e-004,9.944633e-005
7.331220e-004,1.096565e-004
6.347482e-004,1.167873e-004
5.096338e-004,1.203528e-004
3.976466e-004,1.210010e-004
3.252033e-004,1.200286e-004
3.057555e-004,1.185700e-004
3.384927e-004,1.224596e-004
4.052637e-004,1.325077e-004
4.756000e-004,1.446626e-004
5.225990e-004,1.516314e-004
5.321608e-004,1.521176e-004
5.034753e-004,1.480659e-004
4.508040e-004,1.457970e-004
3.948915e-004,1.464453e-004
3.506476e-004,1.462832e-004
3.247172e-004,1.420695e-004
3.167760e-004,1.363972e-004
3.179104e-004,1.273216e-004
3.226103e-004,1.143563e-004
3.264999e-004,1.007429e-004
3.250413e-004,9.053274e-005
3.159656e-004,9.215340e-005
2.963557e-004,1.052807e-004
2.618358e-004,1.184080e-004
2.158092e-004,1.231079e-004
1.726999e-004,1.171115e-004
1.368834e-004,1.051186e-004
1.075496e-004,9.442231e-005
8.275361e-005,8.453633e-005
6.103685e-005,7.335382e-005
5.325772e-005,5.925414e-005
6.897806e-005,4.790957e-005
9.960840e-005,4.158902e-005
1.255388e-004,4.029249e-005
1.321835e-004,4.191315e-005
1.166253e-004,4.726130e-005
7.173317e-005,5.082674e-005
-9.299492e-006,4.936815e-005
-1.250141e-004,4.758544e-005
-2.637420e-004,5.017848e-005
-4.021458e-004,5.390598e-005
-5.149432e-004,5.293359e-005
-5.753936e-004,4.564065e-005
-5.643732e-004,3.235129e-005
-4.805854e-004,1.322759e-005
-3.399127e-004,-1.221667e-005
-1.580754e-004,-3.296103e-005
6.508849e-005,-4.284701e-005
3.302274e-004,-3.879538e-005
6.071971e-004,-2.534396e-005
8.381404e-004,-1.075808e-005
9.557999e-004,5.286386e-006
8.959977e-004,2.505835e-005
6.506307e-004,4.985435e-005
2.911697e-004,7.659513e-005
-8.709084e-005,1.010670e-004
-3.825359e-004,1.195424e-004
-5.014918e-004,1.312111e-004
-4.083042e-004,1.378558e-004
-1.373311e-004,1.461212e-004
2.198609e-004,1.644345e-004
5.488536e-004,1.887443e-004
7.494906e-004,2.067336e-004
7.622938e-004,2.141886e-004
5.945560e-004,2.120818e-004
3.302274e-004,2.041405e-004
8.502253e-005,1.971717e-004
-6.116039e-005,1.955511e-004
-9.308726e-005,1.965235e-004
-3.847125e-005,1.897167e-004
6.606088e-005,1.634621e-004
1.923098e-004,1.101426e-004
3.211517e-004,3.753739e-005
4.357320e-004,-3.506787e-005
5.311884e-004,-9.454584e-005
6.018489e-004,-1.376552e-004
6.177314e-004,-1.762267e-004
5.409124e-004,-2.250084e-004
3.679886e-004,-2.899966e-004
1.391524e-004,-3.549847e-004
-8.952182e-005,-3.942045e-004
-2.747625e-004,-3.938804e-004
-3.951770e-004,-3.517435e-004
-4.308313e-004,-2.731418e-004
-3.580640e-004,-1.679614e-004
-1.425172e-004,-5.646050e-005
2.619979e-004,4.239934e-005
8.395989e-004,1.124116e-004
1.463227e-003,1.449867e-004
1.955745e-003,1.474177e-004
2.220723e-003,1.333180e-004
2.307590e-003,1.188942e-004
2.367879e-003,1.182459e-004
2.434974e-003,1.355869e-004
2.289925e-003,1.623277e-004
1.581859e-003,1.822617e-004
9.409818e-005,1.785342e-004
-1.982121e-003,1.414213e-004
-4.093514e-003,7.465034e-005
-4.967377e-003,-5.409925e-006
-4.967377e-003,-7.282909e-005
-4.967377e-003,-1.075111e-004
-4.967539e-003,-1.010285e-004
-4.127224e-003,-6.326724e-005
-2.660527e-003,-1.367526e-005
-1.240023e-003,2.910999e-005
-1.756482e-005,5.747142e-005
8.757396e-004,6.849186e-005
1.385274e-003,6.670914e-005
1.547663e-003,6.006446e-005
1.455286e-003,5.617490e-005
1.225153e-003,5.698522e-005
9.630928e-004,6.395403e-005
7.371736e-004,7.886404e-005
5.772150e-004,9.669123e-005
4.765724e-004,1.038221e-004
4.162841e-004,8.956035e-005
3.824124e-004,5.714729e-005
3.751195e-004,2.359977e-005
4.020223e-004,2.693341e-006
4.551798e-004,1.883015e-006
5.170887e-004,1.954813e-005
5.678153e-004,4.758544e-005
5.913147e-004,7.546067e-005
5.793219e-004,9.296372e-005
5.332953e-004,9.847395e-005
4.684691e-004,9.523264e-005
4.143393e-004,8.648111e-005
3.966742e-004,7.367795e-005
4.193634e-004,5.601283e-005
4.704139e-004,2.586868e-005
5.362125e-004,-1.691656e-005
6.106005e-004,-6.051213e-005
6.820713e-004,-9.811128e-005
7.321496e-004,-1.248521e-004
7.421976e-004,-1.407345e-004
7.031398e-004,-1.449481e-004
6.183797e-004,-1.366828e-004
5.127130e-004,-1.177212e-004
4.298976e-004,-8.709084e-005
4.151496e-004,-4.770897e-005
4.872688e-004,-3.465141e-006
6.203245e-004,4.077869e-005
7.378219e-004,8.048469e-005
7.571077e-004,1.090082e-004
6.318311e-004,1.237561e-004
3.807918e-004,1.282940e-004
7.513654e-005,1.276457e-004
-2.211188e-004,1.255388e-004
-4.797750e-004,1.211631e-004
-7.011562e-004,1.122495e-004
-8.922312e-004,9.782569e-005
-1.047004e-003,7.918817e-005
-1.143918e-003,5.795762e-005
-1.153805e-003,3.640293e-005
-1.062076e-003,2.035846e-005
-8.829935e-004,1.841368e-005
-6.518884e-004,3.462021e-005
-4.120317e-004,7.076077e-005
-2.019951e-004,1.159770e-004
-4.787104e-005,1.576278e-004
4.175108e-005,1.820997e-004
8.113296e-005,1.845306e-004
1.009049e-004,1.723757e-004
1.339663e-004,1.509831e-004
2.005751e-004,1.226217e-004
3.000832e-004,8.729143e-005
4.157979e-004,4.969228e-005
5.250300e-004,1.582063e-005
6.059006e-004,-1.059601e-005
6.457687e-004,-3.150244e-005
6.425274e-004,-4.576419e-005
6.122212e-004,-5.678463e-005
5.918010e-004,-6.683268e-005
6.289139e-004,-8.174268e-005
7.496526e-004,-1.005423e-004
9.339211e-004,-1.216107e-004
1.118514e-003,-1.447861e-004
1.236659e-003,-1.630995e-004
1.269235e-003,-1.671511e-004
1.257404e-003,-1.501342e-004
1.247680e-003,-1.152902e-004
1.240225e-003,-6.974985e-005
1.166809e-003,-1.918548e-005
9.203076e-004,3.413401e-005
4.256839e-004,8.178122e-005
-2.893483e-004,1.164632e-004
-1.097082e-003,1.464453e-004
-1.830589e-003,1.842065e-004
-2.361840e-003,2.477361e-004
-2.647238e-003,3.452995e-004
-2.724219e-003,4.636072e-004
-2.655341e-003,5.736496e-004
-2.471396e-003,6.430136e-004
-2.143052e-003,6.483617e-004
-1.622822e-003,5.838597e-004
-9.225374e-004,4.666864e-004
-1.310105e-004,3.311998e-004
5.981215e-004,2.148369e-004
1.111221e-003,1.394765e-004
1.326606e-003,1.007429e-004
1.248652e-003,7.805372e-005
9.789753e-004,4.888196e-005
6.741302e-004,2.045080e-006
4.645796e-004,-6.002593e-005
4.046154e-004,-1.211245e-004
4.660382e-004,-1.600202e-004
5.634395e-004,-1.653684e-004
6.063868e-004,-1.470550e-004
5.566327e-004,-1.206384e-004
4.349216e-004,-9.535618e-005
2.806354e-004,-7.639453e-005
1.229458e-004,-6.440169e-005
-3.555407e-005,-5.905355e-005
-2.180396e-004,-6.002593e-005
-4.455793e-004,-6.245691e-005
-7.108801e-004,-6.504996e-005
-9.927116e-004,-6.699474e-005
-1.272436e-003,-6.829127e-005
-1.520720e-003,-7.201877e-005
-1.675493e-003,-8.044616e-005
-1.648266e-003,-8.952182e-005
-1.355414e-003,-9.470791e-005
-7.692236e-004,-9.227693e-005
4.969228e-005,-8.093235e-005
9.669825e-004,-6.197072e-005
1.808751e-003,-4.219875e-005
2.415688e-003,-2.890940e-005
2.689580e-003,-2.177852e-005
2.605792e-003,-1.610623e-005
2.194306e-003,-5.409925e-006
1.555767e-003,1.274139e-005
8.588848e-004,3.883391e-005
2.812837e-004,6.444023e-005
-6.796713e-005,8.064676e-005
-1.815749e-004,8.453633e-005
-1.297140e-004,8.097089e-005
-2.168618e-006,7.416414e-005
1.378558e-004,6.703327e-005
2.671840e-004,6.200925e-005
3.971604e-004,6.362990e-005
5.378331e-004,6.865393e-005
6.817472e-004,7.432621e-005
8.058894e-004,7.724339e-005
8.864359e-004,7.140904e-005
9.143112e-004,5.649903e-005
8.896772e-004,3.688912e-005
8.079962e-004,2.003433e-005
6.666752e-004,7.717366e-006
4.683071e-004,9.106226e-007
2.151610e-004,-5.896120e-006
-9.130454e-005,-2.064406e-005
-4.418518e-004,-4.268495e-005
-8.246499e-004,-6.553616e-005
-1.223007e-003,-8.384953e-005
-1.608722e-003,-1.122110e-004
-1.940146e-003,-1.575892e-004
-2.168172e-003,-2.097743e-004
-2.246936e-003,-2.452666e-004
-2.142241e-003,-2.480217e-004
-1.844689e-003,-2.203085e-004
-1.392527e-003,-1.817370e-004
-8.933656e-004,-1.548341e-004
-4.894990e-004,-1.524032e-004
-2.836761e-004,-1.699062e-004
-2.883759e-004,-1.963229e-004
-4.151110e-004,-2.217671e-004
-5.520561e-004,-2.374874e-004
-6.180167e-004,-2.321393e-004
-5.875484e-004,-1.925954e-004
-4.762096e-004,-1.146419e-004
-3.170615e-004,-6.220251e-006
-1.439758e-004,1.154908e-004
1.857574e-005,2.187264e-004
1.540623e-004,2.715597e-004
2.603772e-004,2.636185e-004
3.417340e-004,2.091646e-004
3.987810e-004,1.359110e-004
4.381629e-004,7.108490e-005
4.827309e-004,3.850977e-005
5.661946e-004,4.191315e-005
7.031398e-004,6.395403e-005
8.891911e-004,8.550872e-005
1.095987e-003,1.018773e-004
1.284469e-003,1.143563e-004
1.421900e-003,1.276457e-004
1.494992e-003,1.521176e-004
1.503582e-003,1.994406e-004
1.459500e-003,2.845250e-004
1.380250e-003,4.245494e-004
1.283172e-003,6.204865e-004
1.173454e-003,8.334405e-004
1.048988e-003,9.998818e-004
9.070182e-004,1.067949e-003
7.413873e-004,1.015278e-003
5.222749e-004,8.592089e-004
1.978200e-004,6.420412e-004
-2.553146e-004,4.130428e-004
-8.082814e-004,2.145127e-004
-1.383937e-003,7.286762e-005
-1.870944e-003,-9.137427e-006
-2.174006e-003,-3.895744e-005
-2.243370e-003,-3.604027e-005
-2.091191e-003,-2.420950e-005
-1.782456e-003,-2.356124e-005
-1.389934e-003,-3.863331e-005
-9.727776e-004,-5.872941e-005
-5.875484e-004,-7.380149e-005
-2.943724e-004,-8.012203e-005
-1.263107e-004,-8.206682e-005
-7.509801e-005,-8.676671e-005
-9.924574e-005,-9.778715e-005
-1.371690e-004,-1.122110e-004
-1.360346e-004,-1.264727e-004
-6.910160e-005,-1.371690e-004
6.071273e-005,-1.405724e-004
2.231022e-004,-1.370070e-004
3.705817e-004,-1.314967e-004
4.652278e-004,-1.290658e-004
4.995857e-004,-1.306864e-004
4.835412e-004,-1.331174e-004
4.354078e-004,-1.384655e-004
3.744712e-004,-1.460826e-004
3.201793e-004,-1.517549e-004
3.004074e-004,-1.468929e-004
3.294171e-004,-1.274451e-004
4.054257e-004,-9.730095e-005
5.263265e-004,-6.423963e-005
6.903367e-004,-3.668853e-005
8.652053e-004,-2.129233e-005
9.968025e-004,-2.015787e-005
1.036346e-003,-2.971972e-005
9.700616e-004,-4.495386e-005
8.193408e-004,-5.953974e-005
6.290759e-004,-6.667061e-005
4.401077e-004,-6.294311e-005
2.671840e-004,-5.111234e-005
1.017153e-004,-3.895744e-005
-6.391550e-005,-3.085418e-005
-2.284118e-004,-2.745081e-005
-3.987424e-004,-2.858526e-005
-5.857657e-004,-3.425755e-005
-7.570687e-004,-4.268495e-005
-8.099020e-004,-4.673658e-005
-6.210959e-004,-4.495386e-005
-1.559686e-004,-3.798505e-005
4.532350e-004,-2.988179e-005
9.507759e-004,-2.372330e-005
1.097121e-003,-2.064406e-005
7.856312e-004,-1.643037e-005
9.912220e-005,-8.489165e-006
-7.162283e-004,2.369210e-006
-1.385720e-003,1.290346e-005
-1.743560e-003,2.035846e-005
-1.770787e-003,2.635488e-005
-1.556375e-003,3.186510e-005
-1.228841e-003,3.899597e-005
-9.097342e-004,4.726130e-005
-6.857600e-004,5.260946e-005
-5.867381e-004,5.471631e-005
-5.864140e-004,5.179913e-005
-6.193132e-004,4.418206e-005
-5.967862e-004,3.753739e-005
-4.175420e-004,4.450619e-005
-3.141010e-006,6.768153e-005
6.331276e-004,1.049566e-004
1.383815e-003,1.467694e-004
2.099335e-003,1.812893e-004
2.642905e-003,2.008992e-004
2.915176e-003,2.067336e-004
2.893297e-003,2.044647e-004
2.632371e-003,1.963614e-004
2.230123e-003,1.801549e-004
1.782335e-003,1.560071e-004
1.363233e-003,1.260251e-004
1.014306e-003,9.312579e-005
7.501388e-004,5.698522e-005
5.702462e-004,1.582063e-005
4.512902e-004,-3.231276e-005
3.551854e-004,-8.968388e-005
2.419018e-004,-1.603444e-004
9.442231e-005,-2.451045e-004
-8.044616e-005,-3.300267e-004
-2.617972e-004,-3.893426e-004
-4.340726e-004,-3.989045e-004
-5.870622e-004,-3.483401e-004
-6.852738e-004,-2.493182e-004
-6.640432e-004,-1.289037e-004
-4.544929e-004,-1.286493e-005
-3.166451e-005,8.437427e-005
5.354022e-004,1.555209e-004
1.086425e-003,2.013854e-004
1.436649e-003,2.266676e-004
1.455286e-003,2.368777e-004
1.125158e-003,2.331502e-004
5.695979e-004,2.213195e-004
-2.015787e-005,2.094887e-004
-4.708614e-004,2.055991e-004
-6.938633e-004,2.086784e-004
-6.924047e-004,2.133783e-004
-5.522182e-004,2.132162e-004
-3.982562e-004,2.075439e-004
-3.697327e-004,1.992786e-004
-5.679386e-004,1.916615e-004
-1.007298e-003,1.876099e-004
-1.616177e-003,1.859892e-004
-2.243208e-003,1.855030e-004
-2.674302e-003,1.838824e-004
-2.733294e-003,1.780480e-004
-2.376264e-003,1.668655e-004
-1.715685e-003,1.474177e-004
-9.721293e-004,1.258630e-004
-3.658432e-004,1.099806e-004
-1.432352e-005,1.038221e-004
8.956035e-005,1.031738e-004
3.429608e-005,1.025256e-004
-7.169464e-005,9.993253e-005
-1.423551e-004,9.409818e-005
-1.384655e-004,8.858796e-005
-6.375343e-005,8.599491e-005
5.179913e-005,8.939829e-005
1.728619e-004,9.409818e-005
2.676701e-004,9.896014e-005
3.073762e-004,1.039842e-004
2.809595e-004,1.062531e-004
2.102990e-004,1.028497e-004
1.352628e-004,9.134307e-005
9.604297e-005,7.367795e-005
1.060910e-004,5.520250e-005
1.564933e-004,3.640293e-005
2.237504e-004,1.841368e-005
2.645909e-004,9.013888e-006
2.380122e-004,9.824214e-006
1.240803e-004,1.582063e-005
-6.018800e-005,2.003433e-005
-2.614731e-004,1.646889e-005
-4.164075e-004,9.338019e-006
-4.741028e-004,5.286386e-006
-4.125179e-004,7.485573e-007
-2.423494e-004,-7.678839e-006
-4.761663e-006,-1.918548e-005
2.462775e-004,-2.858526e-005
4.600418e-004,-3.134038e-005
5.995801e-004,-2.890940e-005
6.566271e-004,-2.534396e-005
6.426895e-004,-2.177852e-005
5.841838e-004,-1.626830e-005
5.086614e-004,-1.383732e-005
4.336251e-004,-1.675450e-005
3.608577e-004,-2.388537e-005
2.864697e-004,-2.858526e-005
2.102990e-004,-2.777494e-005
1.351007e-004,-2.404744e-005
6.654707e-005,-1.983374e-005
2.531276e-006,-1.286493e-005
-6.342930e-005,-1.520357e-006
-1.290658e-004,1.160693e-005
-1.755785e-004,2.554455e-005
-1.865989e-004,3.964423e-005
-1.595340e-004,5.066468e-005
-9.260106e-005,5.098881e-005
1.825161e-005,4.045456e-005
1.631380e-004,2.327564e-005
3.286067e-004,8.203561e-006
4.997478e-004,-6.176923e-008
6.582477e-004,1.883015e-006
7.807692e-004,1.517237e-005
8.408955e-004,3.445814e-005
8.258234e-004,4.855782e-005
7.467354e-004,5.763348e-005
6.368551e-004,6.946425e-005
5.358884e-004,8.340186e-005
4.611762e-004,9.247753e-005
3.929467e-004,9.409818e-005
3.020280e-004,9.344992e-005
1.704310e-004,9.847395e-005
-1.173047e-005,1.075496e-004
-2.630937e-004,1.109530e-004
-6.133168e-004,1.012291e-004
-1.079579e-003,7.465034e-005
-1.613422e-003,3.413401e-005
-2.103183e-003,-1.205460e-005
-2.427639e-003,-4.997788e-005
-2.503323e-003,-6.699474e-005
-2.292314e-003,-5.370539e-005
-1.814059e-003,-1.886135e-005
-1.145053e-003,1.760335e-005
-3.848048e-004,4.483032e-005
3.794953e-004,6.038860e-005
1.078159e-003,6.946425e-005
1.670347e-003,7.448828e-005
2.132721e-003,7.351588e-005
2.441781e-003,6.071273e-005
2.574675e-003,4.061663e-005
2.523300e-003,2.165498e-005
2.303701e-003,1.095867e-005
1.967414e-003,4.476060e-006
1.593204e-003,1.396819e-006
1.249301e-003,7.485573e-007
9.519104e-004,3.665733e-006
6.503065e-004,1.695509e-005
2.801492e-004,4.596478e-005
-1.742820e-004,8.842590e-005
-6.368163e-004,1.297525e-004
-9.790981e-004,1.558451e-004
-1.113288e-003,1.624898e-004
-1.070503e-003,1.530900e-004
-9.797465e-004,1.263492e-004
-9.857429e-004,7.999850e-005
-1.144405e-003,1.436204e-005
-1.385234e-003,-6.667061e-005
-1.569502e-003,-1.535376e-004
-1.574526e-003,-2.321393e-004
-1.354765e-003,-2.874036e-004
-9.565711e-004,-3.097686e-004
-4.980884e-004,-2.997205e-004
-9.956987e-005,-2.661730e-004
1.736723e-004,-2.246843e-004
3.098072e-004,-1.846541e-004
3.328204e-004,-1.473791e-004
3.038107e-004,-1.088076e-004
2.970040e-004,-6.829127e-005
3.590750e-004,-2.437157e-005
4.849998e-004,1.776542e-005
6.250243e-004,5.633696e-005
7.201567e-004,9.312579e-005
7.221015e-004,1.247285e-004
6.096281e-004,1.410971e-004
3.918122e-004,1.419075e-004
1.009049e-004,1.300767e-004
-2.246843e-004,1.133840e-004
-5.403875e-004,9.312579e-005
-7.779751e-004,7.546067e-005
-8.706765e-004,6.346784e-005
-7.701960e-004,5.666109e-005
-4.266176e-004,5.390598e-005
2.179161e-004,5.439218e-005
1.149630e-003,5.585077e-005
2.229150e-003,5.763348e-005
3.189555e-003,6.087479e-005
3.692124e-003,6.687120e-005
3.482734e-003,7.886404e-005
2.527190e-003,9.669123e-005
1.037643e-003,1.211631e-004
-6.138030e-004,1.490383e-004
-1.997517e-003,1.702689e-004
-2.871050e-003,1.814514e-004
-3.167307e-003,1.848548e-004
-2.975745e-003,1.884202e-004
-2.478851e-003,1.966855e-004
-1.869323e-003,2.094887e-004
-1.286860e-003,2.224539e-004
-8.019608e-004,2.302331e-004
-4.198109e-004,2.299089e-004
-1.028112e-004,2.177540e-004
2.033302e-004,1.936063e-004
5.384814e-004,1.637863e-004
9.131767e-004,1.401247e-004
1.322392e-003,1.255388e-004
1.740035e-003,1.133840e-004
2.091881e-003,9.669123e-005
2.263184e-003,7.546067e-005
2.141311e-003,5.860587e-005
1.698061e-003,5.358185e-005
1.042991e-003,6.055066e-005
3.679886e-004,7.578480e-005
-1.536997e-004,9.280166e-005
-4.392587e-004,1.060910e-004
-5.053813e-004,1.145184e-004
-4.365036e-004,1.188942e-004
-3.287302e-004,1.213252e-004
-2.292221e-004,1.240803e-004
-1.259865e-004,1.278078e-004
1.468617e-005,1.344524e-004
2.312054e-004,1.419075e-004
5.454502e-004,1.448246e-004
9.512621e-004,1.436902e-004
1.391108e-003,1.394765e-004
1.713457e-003,1.253768e-004
1.703247e-003,9.280166e-005
1.197116e-003,3.721326e-005
2.059233e-004,-3.992984e-005
-1.033714e-003,-1.224211e-004
-2.177896e-003,-1.874093e-004
-2.963752e-003,-2.162569e-004
-3.261305e-003,-2.029675e-004
-3.098266e-003,-1.600202e-004
-2.611259e-003,-1.089697e-004
-1.965428e-003,-7.088431e-005
-1.300960e-003,-5.565017e-005
-7.082871e-004,-5.986387e-005
-2.220912e-004,-7.477388e-005
1.586002e-004,-9.146661e-005
4.431869e-004,-1.060525e-004
6.439860e-004,-1.126972e-004
7.848209e-004,-1.089697e-004
9.102596e-004,-9.503204e-005
1.077511e-003,-7.882551e-005
1.333575e-003,-6.310517e-005
1.698222e-003,-4.819516e-005
2.151521e-003,-3.766092e-005
2.599147e-003,-2.793700e-005
2.865098e-003,-1.497178e-005
2.802702e-003,7.555300e-006
2.379548e-003,3.316162e-005
1.679585e-003,5.098881e-005
8.285785e-004,5.941620e-005
-7.963584e-005,6.265751e-005
-9.766672e-004,6.622294e-005
-1.784887e-003,6.897806e-005
-2.413701e-003,6.962632e-005
-2.783373e-003,6.460230e-005
-2.831668e-003,5.179913e-005
-2.560857e-003,3.283749e-005
-2.056022e-003,1.371378e-005
-1.456543e-003,4.244267e-007
-9.003344e-004,-2.006553e-006
-4.841508e-004,3.503668e-006
-2.402425e-004,9.175954e-006
-1.353863e-004,7.555300e-006
-1.091317e-004,5.864920e-007
-1.117248e-004,-1.010982e-005
-1.055663e-004,-1.448558e-005
-7.363942e-005,-3.465141e-006
-1.448558e-005,2.068259e-005
6.249544e-005,4.628891e-005
1.422316e-004,5.990240e-005
1.991165e-004,6.427816e-005
1.968476e-004,6.703327e-005
1.054428e-004,7.448828e-005
-8.044616e-005,8.972242e-005
-3.316474e-004,1.104668e-004
-5.920862e-004,1.291043e-004
-7.953162e-004,1.409351e-004
-8.857485e-004,1.456350e-004
-8.329153e-004,1.453108e-004
-6.535090e-004,1.422316e-004
-3.912874e-004,1.339663e-004
-1.073490e-004,1.211631e-004
1.488763e-004,1.013911e-004
3.514579e-004,7.270556e-005
5.000719e-004,3.834771e-005
6.081695e-004,5.286386e-006
6.781818e-004,-2.080613e-005
7.062191e-004,-2.745081e-005
6.861230e-004,-1.529591e-005
6.169211e-004,4.151929e-006
5.003960e-004,1.841368e-005
3.597233e-004,2.910999e-005
2.368777e-004,5.179913e-005
1.683241e-004,1.009049e-004
1.675138e-004,1.770756e-004
2.281262e-004,2.647530e-004
3.219621e-004,3.428685e-004
4.180668e-004,3.897054e-004
4.940755e-004,3.924605e-004
5.298919e-004,3.508097e-004
5.107682e-004,2.838767e-004
4.339492e-004,2.132162e-004
3.182345e-004,1.551968e-004
1.814514e-004,1.219734e-004
4.207521e-005,1.098185e-004
-7.477388e-005,1.054428e-004
-1.460826e-004,9.507057e-005
-1.757406e-004,7.124698e-005
-2.015089e-004,3.380988e-005
-2.692523e-004,-1.254080e-005
-3.843186e-004,-6.423963e-005
-5.037607e-004,-1.167488e-004
-5.578905e-004,-1.671511e-004
-4.799371e-004,-2.092881e-004
-2.361909e-004,-2.368392e-004
1.530900e-004,-2.425115e-004
6.253485e-004,-2.301945e-004
1.100200e-003,-2.062088e-004
1.506823e-003,-1.726613e-004
1.788817e-003,-1.332795e-004
1.920091e-003,-9.843541e-005
1.906639e-003,-7.509801e-005
1.790762e-003,-6.359137e-005
1.636313e-003,-6.261898e-005
1.507147e-003,-6.504996e-005
1.440700e-003,-6.861539e-005
1.405046e-003,-7.526008e-005
1.302458e-003,-8.628051e-005
1.034402e-003,-9.843541e-005
5.689497e-004,-1.097800e-004
-3.627206e-006,-1.182074e-004
-5.065158e-004,-1.258244e-004
-7.857542e-004,-1.336036e-004
-7.953162e-004,-1.405724e-004
-6.048895e-004,-1.434896e-004
-3.609812e-004,-1.321450e-004
-2.075054e-004,-8.725291e-005
-2.198223e-004,6.420843e-006
-3.830221e-004,1.581140e-004
-6.079687e-004,3.553475e-004
-7.909404e-004,5.584154e-004
-8.758626e-004,7.177258e-004
-8.748902e-004,7.961654e-004
-8.483115e-004,7.767176e-004
-8.679213e-004,6.702406e-004
-9.768292e-004,5.083373e-004
-1.176008e-003,3.328204e-004
-1.428181e-003,1.806411e-004
-1.663824e-003,6.995045e-005
-1.799797e-003,1.234753e-006
-1.740157e-003,-3.377135e-005
-1.419592e-003,-4.754691e-005
-8.669490e-004,-4.916756e-005
-2.144742e-004,-4.868136e-005
3.546993e-004,-5.386745e-005
6.992503e-004,-6.780506e-005
7.810934e-004,-8.741497e-005
6.537099e-004,-1.065387e-004
4.203357e-004,-1.172350e-004
1.880961e-004,-1.146419e-004
2.975825e-005,-1.032974e-004
-2.809907e-005,-8.725291e-005
-1.196226e-006,-7.201877e-005
8.437427e-005,-6.035006e-005
2.130541e-004,-5.176060e-005
4.034809e-004,-4.446767e-005
6.947124e-004,-3.863331e-005
1.073622e-003,-3.117831e-005
1.438107e-003,-2.453363e-005
1.618162e-003,-2.372330e-005
1.428383e-003,-2.761287e-005
7.742866e-004,-3.053005e-005
-2.138259e-004,-2.793700e-005
-1.178276e-003,-1.837515e-005
-1.777918e-003,-4.761663e-006
-1.866892e-003,8.689757e-006
-1.523800e-003,1.711715e-005
-9.894704e-004,1.711715e-005
-5.185086e-004,1.014835e-005
-2.498044e-004,-7.100305e-007
-1.830335e-004,-9.137427e-006
-2.686040e-004,-1.010982e-005
-4.541687e-004,-2.330684e-006
-6.687432e-004,1.241726e-005
-7.795958e-004,2.457216e-005
-6.181788e-004,2.765140e-005
-9.308726e-005,2.149292e-005
6.882299e-004,9.662150e-006
1.444914e-003,-2.168618e-006
1.876981e-003,-6.058186e-006
1.814262e-003,-1.358292e-006
1.308130e-003,6.420843e-006
6.201623e-004,1.209313e-005
6.103685e-005,1.776542e-005
-1.851403e-004,2.295151e-005
-1.083214e-004,2.846173e-005
1.764274e-004,3.462021e-005
5.115786e-004,4.288554e-005
7.695867e-004,5.293359e-005
8.958357e-004,5.974033e-005
9.073423e-004,6.249544e-005
8.533745e-004,6.525056e-005
7.827140e-004,6.897806e-005
7.221015e-004,6.995045e-005
6.554926e-004,6.589881e-005
5.392918e-004,5.795762e-005
3.324963e-004,4.807163e-005
2.586868e-005,3.283749e-005
-3.488263e-004,1.241726e-005
-7.181731e-004,-7.678839e-006
-9.959530e-004,-2.226472e-005
-1.119285e-003,-2.793700e-005
-1.078444e-003,-2.372330e-005
-9.183237e-004,-1.335112e-005
-7.042355e-004,-1.196226e-006
-4.969540e-004,1.176900e-005
-3.340783e-004,2.311357e-005
-2.261429e-004,2.910999e-005
-1.627753e-004,3.316162e-005
-1.337657e-004,4.094075e-005
-1.292278e-004,5.601283e-005
-1.339277e-004,7.691926e-005
-1.131834e-004,1.004187e-004
-2.842320e-005,1.190562e-004
1.250527e-004,1.299146e-004
3.020280e-004,1.326697e-004
4.334631e-004,1.312111e-004
4.652278e-004,1.302387e-004
3.914881e-004,1.279698e-004
2.616738e-004,1.229458e-004
1.425557e-004,1.163011e-004
8.826383e-005,1.116012e-004
1.127357e-004,1.203528e-004
1.897167e-004,1.464453e-004
2.778803e-004,1.843686e-004
3.477304e-004,2.240746e-004
3.858158e-004,2.553532e-004
3.898674e-004,2.712356e-004
3.687989e-004,2.712356e-004
3.384927e-004,2.564876e-004
3.102933e-004,2.235884e-004
2.897111e-004,1.757791e-004
2.710735e-004,1.253768e-004
2.420638e-004,8.486046e-005
1.983062e-004,6.330577e-005
1.420695e-004,5.828174e-005
7.999850e-005,6.670914e-005
2.457216e-005,7.967437e-005
-1.529591e-005,7.691926e-005
-3.798505e-005,4.013043e-005
-4.997788e-005,-3.441962e-005
-5.856734e-005,-1.384655e-004
-7.331529e-005,-2.506147e-004
-9.162867e-005,-3.416954e-004
-1.092938e-004,-3.908012e-004
-1.266348e-004,-3.925839e-004
-1.459205e-004,-3.497987e-004
-1.645580e-004,-2.789761e-004
-1.778474e-004,-2.021572e-004
-1.900023e-004,-1.352242e-004
-2.039399e-004,-8.012203e-005
-2.138259e-004,-2.971972e-005
-2.006986e-004,1.663096e-005
-1.558065e-004,5.374392e-005
-9.341139e-005,7.659513e-005
-3.668853e-005,8.388807e-005
-5.571990e-006,7.448828e-005
-8.327101e-006,5.260946e-005
-3.911951e-005,2.619281e-005
-8.433573e-005,5.124321e-006
-1.196660e-004,-2.816880e-006
-1.266348e-004,8.203561e-006
-1.016767e-004,3.575467e-005
-5.095028e-005,7.221937e-005
2.165498e-005,1.103047e-004
1.151667e-004,1.445005e-004
2.282883e-004,1.675138e-004
3.642611e-004,1.714033e-004
5.206542e-004,1.558451e-004
6.819093e-004,1.312111e-004
8.235545e-004,1.083599e-004
9.125284e-004,9.037068e-005
9.120423e-004,7.189524e-005
7.744486e-004,5.730935e-005
4.835412e-004,4.871989e-005
7.708132e-005,4.580272e-005
-3.562813e-004,4.547859e-005
-7.163903e-004,4.758544e-005
-9.526815e-004,5.212327e-005
-1.067586e-003,5.747142e-005
-1.101133e-003,6.525056e-005
-1.107778e-003,7.756751e-005
-1.110371e-003,9.361198e-005
-1.090437e-003,1.109530e-004
-1.001463e-003,1.253768e-004
-8.186535e-004,1.357490e-004
-5.621042e-004,1.436902e-004
-2.848105e-004,1.501728e-004
-3.604027e-005,1.540623e-004
1.654069e-004,1.540623e-004
3.282826e-004,1.485521e-004
4.780310e-004,1.414213e-004
6.459308e-004,1.376937e-004
8.459195e-004,1.365593e-004
1.066329e-003,1.346145e-004
1.277500e-003,1.297525e-004
1.442159e-003,1.205148e-004
1.525947e-003,1.106288e-004
1.508606e-003,1.043083e-004
1.368581e-003,1.051186e-004
1.082211e-003,1.093323e-004
6.509548e-004,1.153287e-004
1.269974e-004,1.169494e-004
-4.018217e-004,1.117633e-004
-8.599802e-004,1.023635e-004
-1.221062e-003,9.280166e-005
-1.480042e-003,8.810177e-005
-1.639352e-003,8.680524e-005
-1.693158e-003,8.486046e-005
-1.622497e-003,7.465034e-005
-1.410678e-003,5.617490e-005
-1.069368e-003,3.445814e-005
-6.338991e-004,1.760335e-005
-1.632615e-004,1.144487e-005
2.788527e-004,1.014835e-005
6.336138e-004,4.313994e-006
8.493229e-004,-7.678839e-006
9.039390e-004,-2.291298e-005
8.266338e-004,-4.041603e-005
6.613270e-004,-5.791909e-005
4.392974e-004,-6.780506e-005
1.816135e-004,-6.504996e-005
-8.725291e-005,-4.689864e-005
-3.339163e-004,-1.918548e-005
-4.977643e-004,8.365628e-006
-5.152673e-004,3.073064e-005
-3.710292e-004,4.337174e-005
-1.363587e-004,4.709924e-005
5.957827e-005,4.288554e-005
1.216493e-004,3.753739e-005
5.990240e-005,3.656499e-005
-3.020592e-005,3.980630e-005
-5.354332e-005,4.175108e-005
1.679302e-005,4.029249e-005
1.469315e-004,3.834771e-005
2.864697e-004,3.332369e-005
3.999155e-004,2.603075e-005
4.710622e-004,1.711715e-005
4.984512e-004,1.095867e-005
4.950479e-004,9.013888e-006
4.820826e-004,1.047248e-005
4.798137e-004,1.209313e-005
4.971547e-004,1.371378e-005
5.287575e-004,1.501031e-005
5.572810e-004,1.419998e-005
5.559844e-004,1.063454e-005
5.088234e-004,2.693341e-006
4.143393e-004,-8.651231e-006
2.887386e-004,-1.610623e-005
1.692965e-004,-2.404744e-005
1.025256e-004,-3.344722e-005
1.278078e-004,-4.349527e-005
2.574600e-004,-5.289506e-005
4.498316e-004,-5.808115e-005
6.157866e-004,-5.581224e-005
6.726715e-004,-4.641245e-005
5.974732e-004,-3.296103e-005
4.339492e-004,-1.950961e-005
2.587565e-004,-6.382316e-006
1.430419e-004,4.638125e-006
1.467694e-004,1.290346e-005
3.111037e-004,2.052053e-005
6.509548e-004,2.878586e-005
1.121269e-003,3.591673e-005
1.609086e-003,3.964423e-005
1.975193e-003,4.029249e-005
2.100470e-003,3.964423e-005
1.945697e-003,3.964423e-005
1.558684e-003,4.175108e-005
1.012199e-003,4.320967e-005
4.002396e-004,4.337174e-005
-1.580754e-004,4.061663e-005
-5.666420e-004,3.575467e-005
-7.864025e-004,3.494434e-005
-8.517149e-004,3.915804e-005
-8.719731e-004,4.580272e-005
-9.938461e-004,5.277152e-005
-1.337425e-003,5.957827e-005
-1.914053e-003,6.735740e-005
-2.605425e-003,7.724339e-005
-3.204906e-003,8.648111e-005
-3.488359e-003,8.858796e-005
-3.301011e-003,8.048469e-005
-2.632328e-003,6.233338e-005
-1.628656e-003,3.899597e-005
-5.439529e-004,1.306552e-005
3.636129e-004,-1.383732e-005
9.698996e-004,-4.349527e-005
1.336168e-003,-7.947377e-005
1.594338e-003,-1.156143e-004
1.803727e-003,-1.358725e-004
1.889784e-003,-1.339277e-004
1.700005e-003,-1.117248e-004
1.120621e-003,-7.979790e-005
1.966855e-004,-4.949169e-005
-8.364808e-004,-2.842320e-005
-1.678248e-003,-1.724069e-005
-2.136569e-003,-7.678839e-006
-2.168820e-003,1.176900e-005
-1.852954e-003,4.531652e-005
-1.338073e-003,8.583285e-005
-7.925610e-004,1.211631e-004
-3.520676e-004,1.410971e-004
-7.898758e-005,1.433660e-004
3.915804e-005,1.338042e-004
5.714729e-005,1.188942e-004
3.705119e-005,1.043083e-004
3.089270e-005,9.393611e-005
5.893001e-005,9.312579e-005
1.133840e-004,9.814982e-005
1.811273e-004,9.993253e-005
2.477361e-004,8.907416e-005
3.033245e-004,5.974033e-005
3.420582e-004,1.857574e-005
3.652335e-004,-1.740276e-005
3.803056e-004,-2.534396e-005
3.961880e-004,1.711715e-005
4.136910e-004,1.124116e-004
4.276287e-004,2.328261e-004
4.232529e-004,3.376824e-004
3.867882e-004,3.948915e-004
3.159656e-004,3.950535e-004
2.192126e-004,3.462718e-004
1.015532e-004,2.720459e-004
-3.247483e-005,2.002510e-004
-1.619650e-004,1.501728e-004
-2.548284e-004,1.252147e-004
-2.852967e-004,1.128978e-004
-2.428356e-004,9.717742e-005
-1.373311e-004,6.914012e-005
5.286386e-006,2.975825e-005
1.540623e-004,-1.124428e-005
2.846870e-004,-3.587821e-005
3.929467e-004,-3.636440e-005
4.768966e-004,-1.545797e-005
5.315125e-004,1.906194e-005
5.524190e-004,5.617490e-005
5.452881e-004,8.242948e-005
5.232472e-004,8.777764e-005
5.039615e-004,7.157111e-005
5.023408e-004,4.434413e-005
5.261644e-004,1.582063e-005
5.684635e-004,-1.399939e-005
6.117350e-004,-4.770897e-005
6.269691e-004,-7.736692e-005
5.835355e-004,-9.422171e-005
4.859722e-004,-9.568031e-005
3.710678e-004,-8.709084e-005
2.832284e-004,-7.898758e-005
2.501671e-004,-7.947377e-005
2.785285e-004,-8.709084e-005
3.508097e-004,-9.584237e-005
4.208219e-004,-1.011905e-004
4.524247e-004,-9.098041e-005
4.491834e-004,-5.629843e-005
4.386491e-004,1.072688e-006
4.388112e-004,7.108490e-005
4.568004e-004,1.394765e-004
4.885652e-004,1.940925e-004
5.235714e-004,2.292607e-004
5.501501e-004,2.441707e-004
5.417227e-004,2.409294e-004
4.631210e-004,2.253711e-004
3.089968e-004,2.043026e-004
1.260251e-004,1.863134e-004
-3.627206e-006,1.748067e-004
-2.048200e-005,1.741585e-004
9.442231e-005,1.827479e-004
3.261757e-004,1.931201e-004
6.174073e-004,1.934442e-004
8.770361e-004,1.696206e-004
1.007175e-003,1.041462e-004
9.407278e-004,-1.173047e-005
6.820713e-004,-1.632615e-004
2.890628e-004,-3.162512e-004
-1.574272e-004,-4.340726e-004
-5.849554e-004,-4.888507e-004
-9.531677e-004,-4.716718e-004
-1.241482e-003,-3.951770e-004
-1.429802e-003,-2.924276e-004
-1.486687e-003,-1.998883e-004
-1.388637e-003,-1.323070e-004
-1.153805e-003,-8.757703e-005
-8.650042e-004,-6.261898e-005
-6.363300e-004,-5.305713e-005
-5.645352e-004,-5.727082e-005
-6.838152e-004,-7.493595e-005
-9.379336e-004,-1.000561e-004
-1.218144e-003,-1.250141e-004
-1.417647e-003,-1.430034e-004
-1.456543e-003,-1.452723e-004
-1.288967e-003,-1.327932e-004
-9.021171e-004,-1.144799e-004
-3.371576e-004,-9.568031e-005
2.867939e-004,-7.931171e-005
7.927620e-004,-6.569822e-005
1.028405e-003,-4.787104e-005
9.452656e-004,-1.983374e-005
6.140039e-004,2.700314e-005
1.939304e-004,1.041462e-004
-1.512687e-004,2.269918e-004
-3.238682e-004,4.010499e-004
-3.146305e-004,6.062247e-004
-1.791439e-004,7.997308e-004
5.448451e-006,9.332728e-004
1.769136e-004,9.768684e-004
3.030004e-004,9.259799e-004
3.785229e-004,8.042687e-004
4.081808e-004,6.496583e-004
4.000776e-004,4.973168e-004
3.584267e-004,3.673404e-004
2.905214e-004,2.654012e-004
2.138645e-004,1.822617e-004
1.521176e-004,1.073875e-004
1.175977e-004,3.980630e-005
1.094944e-004,-1.626830e-005
1.154908e-004,-6.229485e-005
1.184080e-004,-1.034594e-004
1.124116e-004,-1.392759e-004
1.070634e-004,-1.663408e-004
1.093323e-004,-1.827094e-004
1.269974e-004,-1.904885e-004
1.686482e-004,-1.919471e-004
2.459534e-004,-1.903264e-004
3.668542e-004,-1.831956e-004
5.232472e-004,-1.689338e-004
7.024916e-004,-1.494860e-004
8.937289e-004,-1.256624e-004
1.074270e-003,-1.013526e-004
1.201815e-003,-8.352540e-005
1.219318e-003,-7.542214e-005
1.079618e-003,-8.028410e-005
7.819037e-004,-9.827335e-005
3.820883e-004,-1.201522e-004
-2.745081e-005,-1.352242e-004
-3.718396e-004,-1.366828e-004
-6.285509e-004,-1.279313e-004
-8.141157e-004,-1.206384e-004
-9.559228e-004,-1.227452e-004
-1.071961e-003,-1.324691e-004
-1.152346e-003,-1.402483e-004
-1.175683e-003,-1.323070e-004
-1.124957e-003,-1.054042e-004
-1.003408e-003,-6.488790e-005
-8.316187e-004,-2.291298e-005
-6.410300e-004,7.717366e-006
-4.638926e-004,2.246531e-005
-3.193304e-004,2.700314e-005
-2.162569e-004,2.554455e-005
-1.627753e-004,2.295151e-005
-1.757406e-004,2.035846e-005
-2.716832e-004,2.003433e-005
-4.473620e-004,2.441009e-005
-6.632329e-004,3.688912e-005
-8.350221e-004,5.455424e-005
-8.656525e-004,6.573675e-005
-6.877048e-004,6.362990e-005
-3.094444e-004,5.439218e-005
1.833962e-004,4.223728e-005
6.786680e-004,3.202716e-005
1.096959e-003,2.846173e-005
1.407963e-003,2.992031e-005
1.604549e-003,2.846173e-005
1.661434e-003,2.295151e-005
1.548636e-003,1.841368e-005
1.258700e-003,2.035846e-005
8.361956e-004,2.684107e-005
4.013741e-004,3.543053e-005
1.159770e-004,4.337174e-005
9.215340e-005,4.969228e-005
3.289309e-004,5.374392e-005
7.253428e-004,5.439218e-005
1.137313e-003,5.585077e-005
1.458203e-003,6.281957e-005
1.671968e-003,7.497447e-005
1.857209e-003,8.923622e-005
2.092042e-003,1.030118e-004
2.341624e-003,1.109530e-004
2.487970e-003,1.119254e-004
2.430761e-003,1.085220e-004
2.117487e-003,1.052807e-004
1.526271e-003,1.072255e-004
6.556546e-004,1.177597e-004
-4.284004e-004,1.360731e-004
-1.551351e-003,1.566554e-004
-2.511589e-003,1.746447e-004
-3.138945e-003,1.855030e-004
-3.341852e-003,1.858272e-004
-3.146562e-003,1.782101e-004
-2.691157e-003,1.665414e-004
-2.164282e-003,1.524417e-004
-1.740481e-003,1.365593e-004
-1.511969e-003,1.193804e-004
-1.463349e-003,9.993253e-005
-1.496735e-003,7.967437e-005
-1.498517e-003,5.747142e-005
-1.393499e-003,3.818564e-005
-1.172118e-003,2.343770e-005
-8.750523e-004,9.013888e-006
-5.669662e-004,-1.318906e-005
-3.016653e-004,-4.689864e-005
-1.068628e-004,-8.514606e-005
1.695509e-005,-1.191798e-004
9.280166e-005,-1.421931e-004
1.480659e-004,-1.509446e-004
2.109473e-004,-1.451102e-004
3.020280e-004,-1.250141e-004
4.169323e-004,-9.098041e-005
5.407503e-004,-5.046408e-005
6.567891e-004,-1.043395e-005
7.527319e-004,2.441009e-005
8.191787e-004,5.001641e-005
8.481885e-004,6.265751e-005
8.352232e-004,6.622294e-005
7.879001e-004,6.751947e-005
7.208050e-004,6.978838e-005
6.532237e-004,7.367795e-005
5.995801e-004,8.161915e-005
5.668428e-004,9.474644e-005
5.548500e-004,1.133840e-004
5.571189e-004,1.328318e-004
5.613326e-004,1.459591e-004
5.597120e-004,1.506590e-004
5.564707e-004,1.482280e-004
5.712186e-004,1.420695e-004
6.209727e-004,1.338042e-004
7.091363e-004,1.248906e-004
8.135064e-004,1.159770e-004
9.021562e-004,1.116012e-004
9.441312e-004,1.094944e-004
9.287350e-004,1.051186e-004
8.632605e-004,9.782569e-005
7.606731e-004,8.745350e-005
6.332896e-004,7.481241e-005
4.922927e-004,6.573675e-005
3.477304e-004,6.460230e-005
1.955511e-004,7.805372e-005
1.744128e-005,1.015532e-004
-2.128535e-004,1.248906e-004
-5.123501e-004,1.373696e-004
-8.724592e-004,1.344524e-004
-1.247802e-003,1.185700e-004
-1.576147e-003,9.977046e-005
-1.793638e-003,8.615698e-005
-1.854899e-003,7.967437e-005
-1.742588e-003,7.578480e-005
-1.462539e-003,7.221937e-005
-1.032255e-003,6.703327e-005
-4.830163e-004,5.714729e-005
1.078737e-004,4.158902e-005
6.114109e-004,2.862379e-005
8.854635e-004,2.376183e-005
8.506195e-004,2.392390e-005
5.580913e-004,2.473422e-005
1.608691e-004,2.813760e-005
-1.836818e-004,3.348575e-005
-3.828600e-004,4.029249e-005
-4.211074e-004,4.953022e-005
-3.381300e-004,6.136099e-005
-1.930815e-004,7.675719e-005
-3.620233e-005,9.150514e-005
1.104668e-004,9.944633e-005
2.595669e-004,9.928427e-005
4.130428e-004,9.507057e-005
5.529052e-004,9.150514e-005
6.558168e-004,9.069480e-005
7.055708e-004,8.875003e-005
7.042743e-004,8.372600e-005
6.697544e-004,7.432621e-005
6.250243e-004,5.779555e-005
5.760806e-004,2.992031e-005
5.076890e-004,-8.489165e-006
3.897054e-004,-5.370539e-005
1.916615e-004,-1.023250e-004
-9.519411e-005,-1.473791e-004
-4.340726e-004,-1.851403e-004
-7.248177e-004,-2.159328e-004
-8.465288e-004,-2.376495e-004
-7.426449e-004,-2.449424e-004
-4.543308e-004,-2.285738e-004
-7.898758e-005,-1.874093e-004
3.229344e-004,-1.237176e-004
7.679660e-004,-4.803310e-005
1.274745e-003,2.635488e-005
1.753163e-003,8.502253e-005
2.021220e-003,1.201907e-004
1.898536e-003,1.360731e-004
1.331306e-003,1.394765e-004
4.496696e-004,1.372075e-004
-4.838267e-004,1.315353e-004
-1.215065e-003,1.240803e-004
-1.618284e-003,1.138701e-004
-1.686837e-003,1.012291e-004
-1.520720e-003,8.486046e-005
-1.288967e-003,6.184718e-005
-1.153156e-003,3.607880e-005
-1.192052e-003,1.711715e-005
-1.375186e-003,7.717366e-006
-1.600132e-003,2.207145e-006
-1.759443e-003,2.369210e-006
-1.792666e-003,8.689757e-006
-1.691213e-003,1.679302e-005
-1.478745e-003,2.084466e-005
-1.184111e-003,1.889987e-005
-8.353463e-004,1.176900e-005
-4.669719e-004,1.396819e-006
-1.269589e-004,-1.043395e-005
1.276457e-004,-1.999580e-005
2.555152e-004,-2.404744e-005
2.751252e-004,-2.015787e-005
2.613496e-004,-1.092015e-005
3.313618e-004,-2.006553e-006
5.691118e-004,5.610517e-006
9.676307e-004,1.031041e-005
1.441348e-003,1.387585e-005
1.862233e-003,1.387585e-005
2.111491e-003,1.160693e-005
2.132073e-003,9.824214e-006
1.939701e-003,1.355172e-005
1.614921e-003,2.765140e-005
1.259187e-003,4.969228e-005
9.575827e-004,7.416414e-005
7.509491e-004,9.604297e-005
6.370172e-004,1.175977e-004
5.882355e-004,1.375317e-004
5.720289e-004,1.506590e-004
5.645739e-004,1.488763e-004
5.511225e-004,1.326697e-004
5.225990e-004,1.046324e-004
4.796517e-004,7.221937e-005
4.355699e-004,4.742337e-005
4.055878e-004,3.543053e-005
3.854917e-004,3.494434e-005
3.623164e-004,4.191315e-005
3.294171e-004,5.439218e-005
2.900352e-004,6.719534e-005
2.464396e-004,7.886404e-005
2.073818e-004,8.777764e-005
1.762653e-004,9.004655e-005
1.530900e-004,8.923622e-005
1.276457e-004,8.453633e-005
9.069480e-005,7.108490e-005
3.802358e-005,4.661304e-005
-3.571614e-005,1.760335e-005
-1.314967e-004,-4.275467e-006
-2.415391e-004,-1.027188e-005
-3.517435e-004,-2.006553e-006
-4.483344e-004,7.879431e-006
-5.193189e-004,1.079661e-005
-5.638869e-004,5.934647e-006
-5.877105e-004,-6.868512e-006
-5.873864e-004,-2.566809e-005
-5.504355e-004,-4.932962e-005
-4.702132e-004,-7.396355e-005
-3.566054e-004,-9.632856e-005
-2.254946e-004,-1.170729e-004
-9.065627e-005,-1.344139e-004
4.904402e-005,-1.426792e-004
2.151610e-004,-1.366828e-004
4.337872e-004,-1.164247e-004
7.146465e-004,-9.000801e-005
1.032457e-003,-6.197072e-005
1.320609e-003,-3.928157e-005
1.487537e-003,-1.918548e-005
1.459014e-003,1.387585e-005
1.194847e-003,7.448828e-005
6.888781e-004,1.665414e-004
1.176900e-005,2.756114e-004
-6.724706e-004,3.752816e-004
-1.193349e-003,4.365423e-004
-1.456543e-003,4.433490e-004
-1.480204e-003,3.973224e-004
-1.367731e-003,3.214759e-004
-1.233703e-003,2.469258e-004
-1.137274e-003,1.942546e-004
-1.060131e-003,1.654069e-004
-9.518712e-004,1.574657e-004
-7.893197e-004,1.564933e-004
-5.909518e-004,1.464453e-004
-4.005251e-004,1.210010e-004
-2.473734e-004,8.097089e-005
-1.050801e-004,3.089270e-005
1.038221e-004,-1.950961e-005
4.381629e-004,-6.148453e-005
8.767120e-004,-8.644258e-005
1.308617e-003,-9.179074e-005
1.593852e-003,-8.239095e-005
1.628048e-003,-6.845333e-005
1.391756e-003,-6.132245e-005
9.337590e-004,-6.683268e-005
3.339549e-004,-8.449779e-005
-3.297026e-004,-1.029732e-004
-9.664571e-004,-1.117248e-004
-1.491225e-003,-1.029732e-004
-1.832696e-003,-7.720485e-005
-1.935608e-003,-3.798505e-005
-1.788290e-003,8.527692e-006
-1.432557e-003,5.439218e-005
-9.272373e-004,9.199134e-005
-3.313232e-004,1.185700e-004
2.950592e-004,1.326697e-004
8.799533e-004,1.351007e-004
1.341516e-003,1.268354e-004
1.615407e-003,1.098185e-004
1.679585e-003,8.518459e-005
1.534212e-003,5.471631e-005
1.186581e-003,2.376183e-005
6.543581e-004,1.720949e-006
-1.740276e-005,-2.978945e-006
-7.428070e-004,1.063454e-005
-1.430774e-003,3.656499e-005
-2.007403e-003,6.557468e-005
-2.398791e-003,8.858796e-005
-2.523257e-003,1.022014e-004
-2.319217e-003,1.020394e-004
-1.793152e-003,8.291567e-005
-1.040845e-003,4.969228e-005
-2.107467e-004,1.371378e-005
5.264885e-004,-1.578211e-005
1.030026e-003,-3.344722e-005
1.234391e-003,-3.830918e-005
1.153682e-003,-3.150244e-005
8.611536e-004,-2.307504e-005
4.629589e-004,-2.291298e-005
6.330577e-005,-3.036798e-005
-2.734659e-004,-4.300908e-005
-5.403875e-004,-4.803310e-005
-7.666306e-004,-3.360929e-005
-9.731018e-004,1.883015e-006
-1.143594e-003,4.726130e-005
-1.228193e-003,8.712937e-005
-1.168877e-003,1.158149e-004
-9.487920e-004,1.391524e-004
-6.066721e-004,1.623277e-004
-2.120432e-004,1.877719e-004
1.668655e-004,2.090025e-004
4.828930e-004,2.162954e-004
7.225877e-004,2.049509e-004
8.948633e-004,1.767515e-004
1.025812e-003,1.378558e-004
1.146713e-003,9.620503e-005
1.271017e-003,5.341978e-005
1.385112e-003,8.527692e-006
1.458203e-003,-3.960571e-005
1.465820e-003,-9.632856e-005
1.403587e-003,-1.684476e-004
1.289169e-003,-2.538560e-004
1.147199e-003,-3.308370e-004
1.007175e-003,-3.737843e-004
8.982667e-004,-3.677879e-004
8.387886e-004,-3.160891e-004
8.347370e-004,-2.310048e-004
8.543470e-004,-1.334415e-004
8.408955e-004,-4.511592e-005
7.415494e-004,2.311357e-005
5.360504e-004,6.525056e-005
2.451431e-004,7.529860e-005
-6.942573e-005,5.714729e-005
-3.230579e-004,2.376183e-005
-4.494688e-004,-1.075808e-005
-4.271038e-004,-3.231276e-005
-2.771934e-004,-3.425755e-005
-3.814712e-005,-2.113026e-005
2.419018e-004,-2.978945e-006
5.084993e-004,1.679302e-005
7.047605e-004,3.380988e-005
8.016757e-004,4.207521e-005
8.039446e-004,3.964423e-005
7.447907e-004,3.073064e-005
6.660269e-004,2.457216e-005
5.966629e-004,2.797553e-005
5.470709e-004,4.434413e-005
5.084993e-004,7.108490e-005
4.649037e-004,1.025256e-004
3.984569e-004,1.286181e-004
3.034866e-004,1.407730e-004
1.827479e-004,1.407730e-004
4.272347e-005,1.386661e-004
-1.164247e-004,1.417454e-004
-2.852967e-004,1.469315e-004
-4.484964e-004,1.449867e-004
-5.951655e-004,1.339663e-004
-7.217385e-004,1.187321e-004
-8.314567e-004,1.093323e-004
-9.184857e-004,1.172735e-004
-9.538160e-004,1.527658e-004
-9.021171e-004,2.279641e-004
-7.463724e-004,3.517821e-004
-5.035987e-004,5.213025e-004
-2.102605e-004,7.086501e-004
9.182927e-005,8.669881e-004
3.569682e-004,9.511000e-004
5.402641e-004,9.368383e-004
6.118970e-004,8.245269e-004
5.686256e-004,6.397723e-004
4.263321e-004,4.222805e-004
2.057612e-004,2.151610e-004
-6.877746e-005,4.320967e-005
-3.634122e-004,-8.579432e-005
-6.437851e-004,-1.736337e-004
-8.904485e-004,-2.271153e-004
-1.113288e-003,-2.528836e-004
-1.337100e-003,-2.583938e-004
-1.562047e-003,-2.473734e-004
-1.747612e-003,-2.199844e-004
-1.816328e-003,-1.786577e-004
-1.695913e-003,-1.378173e-004
-1.358817e-003,-1.122110e-004
-8.327533e-004,-1.063766e-004
-1.909747e-004,-1.143178e-004
4.673347e-004,-1.284175e-004
1.043153e-003,-1.430034e-004
1.462093e-003,-1.551583e-004
1.677964e-003,-1.598582e-004
1.688499e-003,-1.559686e-004
1.537453e-003,-1.468929e-004
1.296462e-003,-1.358725e-004
1.047043e-003,-1.230693e-004
8.588848e-004,-1.094559e-004
7.546767e-004,-9.130454e-005
7.133500e-004,-6.780506e-005
7.112431e-004,-4.608832e-005
7.687763e-004,-3.036798e-005
9.389451e-004,-2.031993e-005
1.218832e-003,-1.691656e-005
1.485917e-003,-1.659243e-005
1.543612e-003,-1.464765e-005
1.221263e-003,-8.327101e-006
4.971547e-004,-1.520357e-006
-4.382863e-004,-2.168618e-006
-1.269033e-003,-1.351319e-005
-1.744857e-003,-3.004385e-005
-1.781160e-003,-4.576419e-005
-1.459784e-003,-5.678463e-005
-9.640261e-004,-6.359137e-005
-4.867438e-004,-7.056018e-005
-1.561307e-004,-8.384953e-005
-6.544382e-006,-1.071869e-004
3.179537e-006,-1.329553e-004
-5.467778e-005,-1.498101e-004
-1.165867e-004,-1.485136e-004
-1.457585e-004,-1.246900e-004
-1.353863e-004,-8.190475e-005
-1.054042e-004,-3.344722e-005
-7.931171e-005,8.365628e-006
-7.396355e-005,3.607880e-005
-8.757703e-005,4.790957e-005
-9.681476e-005,4.645098e-005
-7.801519e-005,4.628891e-005
-3.004385e-005,5.617490e-005
1.873781e-005,7.384001e-005
1.727922e-005,9.263960e-005
-8.255302e-005,1.060910e-004
-2.972895e-004,1.111150e-004
-6.001896e-004,1.125736e-004
-9.337199e-004,1.141943e-004
-1.215875e-003,1.184080e-004
-1.379561e-003,1.237561e-004
-1.391554e-003,1.239182e-004
-1.260768e-003,1.234320e-004
-1.035983e-003,1.326697e-004
-7.864025e-004,1.564933e-004
-5.805796e-004,1.837203e-004
-4.679442e-004,2.036543e-004
-4.478482e-004,2.132162e-004
-4.781544e-004,2.124059e-004
-5.053813e-004,2.002510e-004
-4.854473e-004,1.739964e-004
-3.911253e-004,1.359110e-004
-2.122052e-004,9.490851e-005
4.774750e-005,5.844381e-005
3.769022e-004,3.008238e-005
7.462493e-004,1.468617e-005
1.120458e-003,1.549650e-005
1.447183e-003,2.732727e-005
1.655761e-003,4.142695e-005
1.681854e-003,5.147500e-005
1.484458e-003,5.390598e-005
1.086263e-003,4.904402e-005
6.024972e-004,3.850977e-005
1.918236e-004,1.808955e-005
-3.766092e-005,-1.626830e-005
-6.861539e-005,-5.662256e-005
3.429608e-005,-8.919769e-005
1.770756e-004,-1.036215e-004
2.893869e-004,-9.422171e-005
3.521062e-004,-6.359137e-005
3.869503e-004,-1.999580e-005
4.237391e-004,2.408596e-005
4.804620e-004,6.346784e-005
5.582533e-004,9.669123e-005
6.478755e-004,1.187321e-004
7.363633e-004,1.276457e-004
8.175580e-004,1.247285e-004
8.878945e-004,1.130598e-004
9.567723e-004,9.523264e-005
1.056929e-003,7.157111e-005
1.209919e-003,4.564065e-005
1.382681e-003,2.230324e-005
1.488996e-003,3.989864e-006
1.435190e-003,-6.220251e-006
1.165351e-003,-9.947754e-006
6.883919e-004,-1.189254e-005
7.756751e-005,-1.156841e-005
-5.457356e-004,-9.785687e-006
-1.054134e-003,-4.275467e-006
-1.371782e-003,1.396819e-006
-1.507269e-003,5.448451e-006
-1.527203e-003,7.555300e-006
-1.493656e-003,5.610517e-006
-1.434015e-003,4.244267e-007
-1.334831e-003,2.045080e-006
-1.188487e-003,1.160693e-005
-1.027394e-003,2.538249e-005
-8.820211e-004,4.320967e-005
-7.782993e-004,5.925414e-005
-7.342175e-004,6.832980e-005
-7.445897e-004,6.995045e-005
-7.685754e-004,6.687120e-005
-7.334072e-004,6.444023e-005
-5.723143e-004,7.027457e-005
-2.682798e-004,8.680524e-005
1.227837e-004,1.056048e-004
4.969927e-004,1.154908e-004
7.579180e-004,1.111150e-004
8.587227e-004,9.490851e-005
8.136685e-004,7.335382e-005
6.817472e-004,5.341978e-005
5.321608e-004,3.818564e-005
4.062360e-004,2.505835e-005
3.187208e-004,1.257933e-005
2.694529e-004,4.638125e-006
2.532463e-004,2.531276e-006
2.683184e-004,3.503668e-006
3.125622e-004,4.638125e-006
3.775505e-004,1.160693e-005
4.410801e-004,2.619281e-005
4.854860e-004,4.304760e-005
5.076890e-004,5.909207e-005
5.149819e-004,7.546067e-005
5.151440e-004,9.312579e-005
5.159543e-004,1.072255e-004
5.191956e-004,1.140322e-004
5.248679e-004,1.120874e-004
5.332953e-004,1.054428e-004
5.436675e-004,1.002567e-004
5.428572e-004,1.009049e-004
5.115786e-004,1.065772e-004
4.430249e-004,1.107909e-004
3.508097e-004,1.093323e-004
2.406053e-004,1.075496e-004
1.078737e-004,1.067393e-004
-5.565017e-005,1.083599e-004
-2.528836e-004,1.107909e-004
-4.765338e-004,1.099806e-004
-7.112043e-004,1.046324e-004
-9.293441e-004,9.474644e-005
-1.095461e-003,8.502253e-005
-1.190269e-003,7.691926e-005
-1.225113e-003,6.768153e-005
-1.229813e-003,5.698522e-005
-1.228679e-003,4.612685e-005
-1.214741e-003,3.494434e-005
-1.154129e-003,2.700314e-005
-1.012160e-003,2.489629e-005
-7.841336e-004,2.684107e-005
-5.031124e-004,2.959618e-005
-2.241981e-004,2.975825e-005
5.286386e-006,2.716520e-005
1.602208e-004,2.538249e-005
2.380122e-004,2.716520e-005
2.477361e-004,3.056858e-005
1.952270e-004,3.089270e-005
8.323980e-005,2.392390e-005
-7.963584e-005,6.582909e-006
-2.695764e-004,-1.756482e-005
-4.418518e-004,-4.219875e-005
-5.467080e-004,-6.116039e-005
-5.544871e-004,-7.315322e-005
-4.682684e-004,-8.125648e-005
-3.206269e-004,-8.935975e-005
-1.554824e-004,-9.892161e-005
7.717366e-006,-1.091317e-004
1.709171e-004,-1.164247e-004
3.428685e-004,-1.185315e-004
5.216266e-004,-1.164247e-004
6.887161e-004,-1.139937e-004
8.196649e-004,-1.128592e-004
9.042631e-004,-1.128592e-004
9.493173e-004,-1.099420e-004
9.796235e-004,-1.049180e-004
1.019168e-003,-9.843541e-005
1.073784e-003,-8.644258e-005
1.127265e-003,-6.537409e-005
1.150441e-003,-3.377135e-005
1.128400e-003,5.610517e-006
1.084966e-003,5.779555e-005
1.053201e-003,1.354248e-004
1.042829e-003,2.397949e-004
1.028405e-003,3.474063e-004
9.700616e-004,4.222805e-004
8.368439e-004,4.414042e-004
6.302104e-004,4.068843e-004
3.952156e-004,3.355755e-004
2.088404e-004,2.569738e-004
1.453108e-004,1.914994e-004
2.269918e-004,1.428798e-004
3.981328e-004,1.122495e-004
5.423710e-004,9.555677e-005
5.454502e-004,8.323980e-005
3.574544e-004,6.589881e-005
4.244267e-007,3.980630e-005
-4.596789e-004,1.144487e-005
-9.552746e-004,-1.124428e-005
-1.434502e-003,-1.967167e-005
-1.845013e-003,-2.064406e-005
-2.127007e-003,-2.307504e-005
-2.225381e-003,-3.004385e-005
-2.103021e-003,-3.717472e-005
-1.763980e-003,-3.766092e-005
-1.262713e-003,-2.599222e-005
-6.821946e-004,-2.654814e-006
-1.096179e-004,2.619281e-005
3.799814e-004,5.196120e-005
7.298806e-004,7.059870e-005
9.086389e-004,8.145709e-005
9.256557e-004,8.907416e-005
8.311716e-004,9.798775e-005
6.917953e-004,1.047945e-004
5.608465e-004,1.067393e-004
4.692795e-004,1.059289e-004
4.237391e-004,1.047945e-004
4.015361e-004,9.879807e-005
3.777125e-004,7.821578e-005
3.389789e-004,3.526847e-005
2.842008e-004,-2.890940e-005
2.221298e-004,-9.470791e-005
1.686482e-004,-1.381414e-004
1.394765e-004,-1.464067e-004
1.402868e-004,-1.170729e-004
1.645966e-004,-6.359137e-005
2.000889e-004,-6.220251e-006
2.344468e-004,3.850977e-005
2.668598e-004,6.460230e-005
2.992729e-004,7.286762e-005
3.294171e-004,6.735740e-005
3.538889e-004,5.423011e-005
3.623164e-004,4.094075e-005
3.472442e-004,3.105477e-005
3.062417e-004,2.748933e-005
2.323399e-004,3.543053e-005
1.146805e-004,5.487837e-005
-5.257093e-005,8.080882e-005
-2.481837e-004,1.033359e-004
-4.269418e-004,1.195424e-004
-5.285567e-004,1.325077e-004
-4.906334e-004,1.398006e-004
-2.767072e-004,1.391524e-004
1.025256e-004,1.295905e-004
5.887217e-004,1.141943e-004
1.084804e-003,9.912220e-005
1.470358e-003,9.263960e-005
1.633234e-003,9.588090e-005
1.506175e-003,1.025256e-004
1.083994e-003,1.051186e-004
4.279528e-004,9.636710e-005
-3.668155e-004,7.140904e-005
-1.174387e-003,2.570661e-005
-1.854899e-003,-4.317114e-005
-2.277728e-003,-1.323070e-004
-2.352602e-003,-2.306807e-004
-2.057643e-003,-3.156029e-004
-1.453139e-003,-3.635742e-004
-6.682570e-004,-3.582261e-004
1.326697e-004,-3.002067e-004
7.767176e-004,-2.057227e-004
1.145741e-003,-9.730095e-005
1.201005e-003,1.558884e-006
9.707100e-004,7.967437e-005
5.668428e-004,1.339663e-004
1.671896e-004,1.671896e-004
-9.357345e-005,1.817755e-004
-1.818990e-004,1.778859e-004
-1.368449e-004,1.571416e-004
-1.788895e-005,1.214872e-004
1.211631e-004,7.740545e-005
2.493568e-004,3.705119e-005
3.657197e-004,2.855406e-006
5.047718e-004,-2.372330e-005
7.313393e-004,-3.928157e-005
1.077673e-003,-3.911951e-005
1.464686e-003,-2.566809e-005
1.727881e-003,-6.868512e-006
1.693847e-003,1.112074e-005
1.278635e-003,2.651694e-005
5.720289e-004,3.721326e-005
-1.893540e-004,4.142695e-005
-7.502619e-004,3.883391e-005
-9.740741e-004,2.975825e-005
-8.729454e-004,1.128280e-005
-5.770142e-004,-1.156841e-005
-2.590421e-004,-3.328516e-005
-4.787104e-005,-4.592625e-005
5.124321e-006,-4.106429e-005
-9.551824e-005,-1.318906e-005
-3.188442e-004,3.348575e-005
-6.103996e-004,8.599491e-005
-8.946622e-004,1.304008e-004
-1.075689e-003,1.592484e-004
-1.073906e-003,1.718895e-004
-8.658145e-004,1.675138e-004
-5.245051e-004,1.534141e-004
-2.036158e-004,1.367214e-004
-5.629843e-005,1.222975e-004
-1.546721e-004,1.093323e-004
-4.541687e-004,9.685329e-005
-8.270809e-004,8.745350e-005
-1.127712e-003,9.037068e-005
-1.263847e-003,1.083599e-004
-1.219441e-003,1.362352e-004
-1.038738e-003,1.649207e-004
-7.886714e-004,1.842065e-004
-5.316359e-004,1.884202e-004
-3.074996e-004,1.773998e-004
-1.373311e-004,1.576278e-004
-2.664048e-005,1.409351e-004
2.927205e-005,1.302387e-004
4.596478e-005,1.250527e-004
4.466826e-005,1.231079e-004
4.450619e-005,1.205148e-004
5.212327e-005,1.132219e-004
6.233338e-005,9.717742e-005
6.930219e-005,7.627100e-005
7.238143e-005,5.730935e-005
7.675719e-005,4.823369e-005
8.145709e-005,4.677511e-005
7.789165e-005,5.001641e-005
6.508849e-005,5.358185e-005
4.515445e-005,5.957827e-005
1.663096e-005,6.622294e-005
-3.150244e-005,6.573675e-005
-9.276313e-005,5.244739e-005
-1.413827e-004,2.619281e-005
-1.509446e-004,-1.520357e-006
-1.154523e-004,-2.015787e-005
-4.738484e-005,-2.631635e-005
3.510640e-005,-2.145439e-005
1.140322e-004,-9.461557e-006
1.798307e-004,1.883015e-006
2.289365e-004,8.365628e-006
2.636185e-004,9.013888e-006
2.901973e-004,5.934647e-006
3.171001e-004,-3.858999e-007
3.517821e-004,-8.489165e-006
4.049395e-004,-1.464765e-005
4.922927e-004,-1.562004e-005
6.250243e-004,-1.010982e-005
7.880622e-004,1.002961e-007
9.326246e-004,8.689757e-006
1.003933e-003,1.517237e-005
9.752478e-004,2.035846e-005
8.668260e-004,2.392390e-005
7.274497e-004,2.538249e-005
6.067109e-004,2.473422e-005
5.360504e-004,2.327564e-005
5.175750e-004,2.311357e-005
5.326470e-004,2.570661e-005
5.589016e-004,3.121684e-005
5.799701e-004,3.932010e-005
5.882355e-004,4.693717e-005
5.757564e-004,4.985435e-005
5.347539e-004,4.645098e-005
4.540453e-004,3.948217e-005
3.232586e-004,3.170303e-005
1.363972e-004,3.008238e-005
-9.308726e-005,3.478227e-005
-3.256510e-004,4.061663e-005
-5.087847e-004,3.883391e-005
-6.045653e-004,2.441009e-005
-6.027826e-004,1.558884e-006
-5.253154e-004,-1.853721e-005
-4.112214e-004,-2.971972e-005
-2.984240e-004,-3.522994e-005
-2.066950e-004,-3.555407e-005
-1.368449e-004,-3.393342e-005
-8.887356e-005,-3.312309e-005
-6.180866e-005,-3.231276e-005
-5.240886e-005,-2.809907e-005
-5.402952e-005,-1.756482e-005
-6.083626e-005,-3.465141e-006
-5.953974e-005,1.063454e-005
-3.847125e-005,2.732727e-005
9.662150e-006,5.147500e-005
7.756751e-005,8.178122e-005
1.493625e-004,1.099806e-004
2.161334e-004,1.279698e-004
2.783665e-004,1.295905e-004
3.451374e-004,1.216493e-004
4.255218e-004,1.116012e-004
5.162784e-004,1.033359e-004
5.960146e-004,1.033359e-004
6.428515e-004,1.141943e-004
6.462549e-004,1.359110e-004
6.024972e-004,1.673517e-004
5.140096e-004,1.974959e-004
3.965121e-004,2.104611e-004
2.639427e-004,1.999268e-004
1.265113e-004,1.738343e-004
-6.382316e-006,1.401247e-004
-1.318209e-004,1.072255e-004
-2.480217e-004,7.951231e-005
-3.514193e-004,5.893001e-005
-4.183523e-004,4.515445e-005
-4.292107e-004,4.077869e-005
-3.985803e-004,4.029249e-005
-3.694086e-004,3.607880e-005
-3.604950e-004,2.214118e-005
-3.626019e-004,-1.844488e-006
-3.674638e-004,-2.971972e-005
-3.786463e-004,-5.597430e-005
-3.961493e-004,-7.526008e-005
-4.039285e-004,-7.704279e-005
-3.736223e-004,-6.229485e-005
-2.882139e-004,-4.252288e-005
-1.511066e-004,-2.404744e-005
9.175954e-006,-7.678839e-006
1.385041e-004,7.231170e-006
1.835582e-004,2.084466e-005
1.122495e-004,3.299956e-005
-5.808115e-005,4.272347e-005
-2.617972e-004,4.515445e-005
-4.249970e-004,3.591673e-005
-5.112157e-004,1.663096e-005
-5.175362e-004,-5.734055e-006
-4.463896e-004,-2.404744e-005
-3.105789e-004,-3.490581e-005
-1.467309e-004,-3.960571e-005
-1.464765e-005,-3.879538e-005
1.938607e-005,-3.198863e-005
-7.250496e-005,-1.821308e-005
-2.611490e-004,-4.761663e-006
-4.799371e-004,2.693341e-006
-6.463781e-004,3.017472e-006
-7.005080e-004,-3.141010e-006
-6.332508e-004,-1.140634e-005
-4.734545e-004,-1.772689e-005
-2.679557e-004,-1.529591e-005
-6.877746e-005,-5.734055e-006
8.907416e-005,8.851824e-006
1.905270e-004,2.538249e-005
2.328261e-004,4.223728e-005
2.250470e-004,5.504044e-005
1.720516e-004,6.330577e-005
8.032263e-005,6.897806e-005
-3.393342e-005,7.254349e-005
-1.566169e-004,7.643306e-005
-2.758969e-004,8.210535e-005
-3.731361e-004,8.956035e-005
-4.194868e-004,9.993253e-005
-3.794566e-004,1.093323e-004
-2.196603e-004,1.159770e-004
6.444023e-005,1.172735e-004
4.352457e-004,1.154908e-004
8.276061e-004,1.124116e-004
1.156437e-003,1.052807e-004
1.366474e-003,9.442231e-005
1.458527e-003,7.821578e-005
1.442807e-003,6.022653e-005
1.333251e-003,4.677511e-005
1.171671e-003,3.818564e-005
1.000044e-003,3.186510e-005
8.455954e-004,2.035846e-005
7.225877e-004,-4.113402e-006
6.323173e-004,-4.074016e-005
5.764047e-004,-8.141856e-005
5.545259e-004,-1.193418e-004
5.593878e-004,-1.446240e-004
5.786736e-004,-1.455964e-004
5.867769e-004,-1.237176e-004
5.627912e-004,-8.709084e-005
5.016925e-004,-4.430560e-005
4.039671e-004,-2.330684e-006
2.859835e-004,3.105477e-005
1.778859e-004,5.471631e-005
1.067393e-004,7.351588e-005
7.335382e-005,8.777764e-005
6.460230e-005,9.636710e-005
7.853991e-005,1.007429e-004
1.172735e-004,1.010670e-004
1.675138e-004,9.685329e-005
2.171058e-004,8.939829e-005
2.613496e-004,8.016056e-005
3.070520e-004,7.302969e-005
3.569682e-004,7.400208e-005
4.080188e-004,8.226741e-005
4.496696e-004,9.328785e-005
4.509661e-004,1.017153e-004
3.730126e-004,1.044704e-004
1.885823e-004,1.013911e-004
-8.887356e-005,9.344992e-005
-4.152730e-004,8.145709e-005
-7.327590e-004,7.059870e-005
-9.931979e-004,6.217131e-005
-1.182976e-003,5.406805e-005
-1.316032e-003,4.790957e-005
-1.410840e-003,4.628891e-005
-1.475504e-003,5.179913e-005
-1.504352e-003,6.265751e-005
-1.464970e-003,7.432621e-005
-1.328349e-003,8.340186e-005
-1.092544e-003,8.421220e-005
-7.857542e-004,7.173317e-005
-4.593548e-004,4.790957e-005
-1.661787e-004,2.457216e-005
6.071273e-005,1.193106e-005
2.146748e-004,1.403791e-005
3.135346e-004,2.765140e-005
3.790091e-004,4.790957e-005
4.305458e-004,7.173317e-005
4.956961e-004,9.134307e-005
6.093039e-004,1.036600e-004
7.755831e-004,1.075496e-004
9.431588e-004,1.039842e-004
1.030350e-003,9.296372e-005
9.626067e-004,7.805372e-005
7.107570e-004,6.119892e-005
3.171001e-004,4.774750e-005
-1.146419e-004,3.591673e-005
-4.651892e-004,2.457216e-005
-6.575607e-004,1.501031e-005
-6.770085e-004,1.306552e-005
-5.604835e-004,1.582063e-005
-3.682741e-004,2.035846e-005
-1.703924e-004,2.797553e-005
-2.518189e-005,4.337174e-005
4.126489e-005,6.719534e-005
4.223728e-005,9.263960e-005
6.907039e-006,1.148425e-004
-4.090223e-005,1.326697e-004
-8.822530e-005,1.456350e-004
-1.246900e-004,1.483901e-004
-1.483515e-004,1.401247e-004
-1.619650e-004,1.218114e-004
-1.736337e-004,1.010670e-004
-1.929195e-004,8.599491e-005
-2.250084e-004,8.064676e-005
-2.690902e-004,7.935023e-005
-3.201407e-004,7.870197e-005
-3.695707e-004,8.016056e-005
-4.016596e-004,8.178122e-005
-4.042526e-004,7.853991e-005
-3.711913e-004,6.525056e-005
-3.042583e-004,4.434413e-005
-2.105846e-004,1.711715e-005
-1.028112e-004,-1.027188e-005
3.989864e-006,-3.328516e-005
9.960840e-005,-4.965375e-005
1.816135e-004,-5.597430e-005
2.569738e-004,-5.046408e-005
3.274723e-004,-3.522994e-005
3.913260e-004,-1.983374e-005
4.402698e-004,-1.432352e-005
4.684691e-004,-1.643037e-005
4.736553e-004,-2.339917e-005
4.579349e-004,-2.988179e-005
4.213081e-004,-3.668853e-005
3.603715e-004,-4.544005e-005
2.689667e-004,-5.629843e-005
1.582760e-004,-6.893953e-005
5.115087e-005,-8.206682e-005
-2.550602e-005,-9.665269e-005
-5.500191e-005,-1.138316e-004
-4.462973e-005,-1.321450e-004
-1.318906e-005,-1.494860e-004
2.392390e-005,-1.642339e-004
6.249544e-005,-1.729855e-004
1.033359e-004,-1.755785e-004
1.414213e-004,-1.647201e-004
1.777239e-004,-1.297140e-004
2.156472e-004,-5.565017e-005
2.509774e-004,7.011251e-005
2.731804e-004,2.498430e-004
2.723700e-004,4.566384e-004
2.488706e-004,6.415550e-004
2.177540e-004,7.520836e-004
2.008992e-004,7.600248e-004
2.119197e-004,6.705647e-004
2.388225e-004,5.191956e-004
2.585945e-004,3.511338e-004
2.556773e-004,2.013854e-004
2.247228e-004,8.956035e-005
1.681620e-004,1.873781e-005
1.056048e-004,-1.594417e-005
6.265751e-005,-2.761287e-005
5.747142e-005,-2.777494e-005
8.956035e-005,-2.210265e-005
1.435281e-004,-1.594417e-005
1.950649e-004,-1.156841e-005
2.260194e-004,-9.461557e-006
2.252090e-004,-4.923729e-006
1.804790e-004,7.231170e-006
1.041462e-004,2.522042e-005
3.705119e-005,3.867184e-005
3.202716e-005,4.158902e-005
1.407730e-004,3.462021e-005
3.717161e-004,2.035846e-005
6.781818e-004,4.151929e-006
9.836751e-004,-6.220251e-006
1.214294e-003,-7.840905e-006
1.321096e-003,-6.176923e-008
1.291600e-003,1.290346e-005
1.154816e-003,2.943412e-005
9.689272e-004,4.855782e-005
8.016757e-004,7.043664e-005
6.951987e-004,9.118101e-005
6.592201e-004,1.013911e-004
6.532237e-004,9.247753e-005
5.806184e-004,6.168512e-005
3.086727e-004,1.533444e-005
-2.901587e-004,-3.636440e-005
-1.233379e-003,-8.190475e-005
-2.376912e-003,-1.165867e-004
-3.441036e-003,-1.460826e-004
-4.147320e-003,-1.818990e-004
-4.328186e-003,-2.389460e-004
-3.979906e-003,-3.196545e-004
-3.259846e-003,-4.050630e-004
-2.416780e-003,-4.640547e-004
-1.672089e-003,-4.734545e-004
-1.121067e-003,-4.293727e-004
-7.251419e-004,-3.459091e-004
-3.865875e-004,-2.399184e-004
-3.863331e-005,-1.271210e-004
3.156415e-004,-2.453363e-005
6.136798e-004,5.714729e-005
7.840105e-004,1.159770e-004
7.916276e-004,1.550348e-004
6.652166e-004,1.843686e-004
4.678209e-004,2.143507e-004
2.645909e-004,2.444948e-004
8.340186e-005,2.681563e-004
-9.389758e-005,2.751252e-004
-3.049066e-004,2.623220e-004
-5.546492e-004,2.350950e-004
-7.946679e-004,2.033302e-004
-9.437679e-004,1.723757e-004
-9.283717e-004,1.440143e-004
-7.227109e-004,1.158149e-004
-3.609812e-004,7.416414e-005
8.161915e-005,9.500084e-006
5.253541e-004,-7.266703e-005
9.123664e-004,-1.496480e-004
1.209270e-003,-2.024813e-004
1.398563e-003,-2.264670e-004
1.488510e-003,-2.263049e-004
1.500826e-003,-2.097743e-004
1.445400e-003,-1.818990e-004
1.340868e-003,-1.447861e-004
1.237470e-003,-1.008664e-004
1.191281e-003,-4.981582e-005
1.225639e-003,6.907039e-006
1.329847e-003,6.638501e-005
1.459338e-003,1.205148e-004
1.567435e-003,1.611932e-004
1.625131e-003,1.812893e-004
1.635665e-003,1.796687e-004
1.615731e-003,1.629759e-004
1.564518e-003,1.385041e-004
1.472627e-003,1.114392e-004
1.330334e-003,8.664317e-005
1.144282e-003,6.784360e-005
9.335970e-004,5.649903e-005
7.222636e-004,5.358185e-005
5.174129e-004,5.747142e-005
2.945730e-004,6.103685e-005
2.214118e-005,5.876794e-005
-2.917793e-004,5.228533e-005
-5.757177e-004,4.774750e-005
-7.206041e-004,4.531652e-005
-6.353577e-004,4.564065e-005
-3.248406e-004,4.774750e-005
9.458438e-005,5.098881e-005
4.511281e-004,5.617490e-005
5.935836e-004,6.444023e-005
4.791655e-004,7.351588e-005
2.299089e-004,8.113296e-005
2.311357e-005,9.069480e-005
-7.104637e-005,1.038221e-004
-1.237176e-004,1.213252e-004
-2.681178e-004,1.449867e-004
-5.975965e-004,1.738343e-004
-1.078930e-003,2.046267e-004
-1.553458e-003,2.310434e-004
-1.831238e-003,2.487085e-004
-1.794773e-003,2.577842e-004
-1.451194e-003,2.621599e-004
-9.126514e-004,2.631323e-004
-3.428299e-004,2.597290e-004
1.163011e-004,2.511395e-004
3.982948e-004,2.344468e-004
5.157922e-004,2.064095e-004
5.266506e-004,1.626518e-004
4.939134e-004,9.312579e-005
4.689553e-004,-3.465141e-006
4.752759e-004,-1.125351e-004
5.042856e-004,-2.002124e-004
5.290816e-004,-2.295462e-004
5.229231e-004,-1.924333e-004
4.747897e-004,-1.062145e-004
3.927846e-004,-6.058186e-006
2.991108e-004,7.627100e-005
2.112714e-004,1.227837e-004
1.333180e-004,1.339663e-004
6.330577e-005,1.187321e-004
-1.358292e-006,9.280166e-005
-5.953974e-005,6.914012e-005
-1.079973e-004,5.244739e-005
-1.502963e-004,4.158902e-005
-1.901644e-004,3.640293e-005
-2.284118e-004,3.364782e-005
-2.673074e-004,3.413401e-005
-3.052307e-004,3.786152e-005
-3.436402e-004,4.077869e-005
-3.826979e-004,4.142695e-005
-4.170558e-004,4.126489e-005
-4.390966e-004,4.013043e-005
-4.415276e-004,4.126489e-005
-4.201350e-004,4.191315e-005
-3.768636e-004,4.288554e-005
-3.215993e-004,4.726130e-005
-2.788141e-004,5.487837e-005
-2.924276e-004,6.346784e-005
-4.029561e-004,6.914012e-005
-6.162340e-004,6.914012e-005
-9.013068e-004,6.233338e-005
-1.197562e-003,5.196120e-005
-1.420726e-003,3.867184e-005
-1.502245e-003,2.165498e-005
-1.416674e-003,7.555300e-006
-1.194969e-003,1.234753e-006
-9.055205e-004,-2.330684e-006
-6.091031e-004,-7.030578e-006
-3.382920e-004,-1.270286e-005
-9.179074e-005,-1.740276e-005
1.657311e-004,-1.918548e-005
4.721966e-004,-1.513384e-005
8.324681e-004,-3.627206e-006
1.204246e-003,1.047248e-005
1.508606e-003,2.149292e-005
1.671158e-003,2.684107e-005
1.658679e-003,3.073064e-005
1.499044e-003,3.591673e-005
1.255297e-003,4.077869e-005
9.968025e-004,4.385793e-005
7.673178e-004,4.434413e-005
5.882355e-004,4.418206e-005
4.658761e-004,4.434413e-005
3.966742e-004,4.985435e-005
3.713920e-004,5.876794e-005
3.772264e-004,6.622294e-005
3.992672e-004,6.946425e-005
4.151496e-004,6.865393e-005
4.062360e-004,6.573675e-005
3.689610e-004,6.006446e-005
3.025142e-004,5.455424e-005
2.088404e-004,4.953022e-005
9.669123e-005,4.288554e-005
-1.448558e-005,3.850977e-005
-1.097800e-004,3.899597e-005
-1.765509e-004,4.564065e-005
-2.136638e-004,4.823369e-005
-2.271153e-004,4.677511e-005
-2.235498e-004,4.531652e-005
-2.084778e-004,4.790957e-005
-1.877334e-004,5.423011e-005
-1.703924e-004,6.006446e-005
-1.611547e-004,6.525056e-005
-1.567789e-004,6.735740e-005
-1.527273e-004,6.541262e-005
-1.525652e-004,5.730935e-005
-1.661787e-004,4.580272e-005
-2.125294e-004,3.380988e-005
-3.032860e-004,2.327564e-005
-4.280762e-004,1.582063e-005
-5.570801e-004,1.468617e-005
-6.573986e-004,2.214118e-005
-7.039113e-004,3.332369e-005
-6.969425e-004,4.450619e-005
-6.509160e-004,5.358185e-005
-5.823624e-004,6.168512e-005
-5.014918e-004,6.346784e-005
-4.206212e-004,6.152305e-005
-3.483401e-004,5.893001e-005
-2.893483e-004,5.957827e-005
-2.476975e-004,6.217131e-005
-2.182017e-004,6.298164e-005
-1.877334e-004,5.876794e-005
-1.323070e-004,5.309565e-005
-2.971972e-005,5.179913e-005
1.266733e-004,5.455424e-005
3.219621e-004,5.682316e-005
5.269747e-004,5.568870e-005
7.075156e-004,5.196120e-005
8.292268e-004,4.175108e-005
8.707155e-004,3.105477e-005
8.277682e-004,2.262737e-005
7.217774e-004,1.663096e-005
5.807804e-004,9.338019e-006
4.281149e-004,3.179537e-006
2.824181e-004,-3.465141e-006
1.373696e-004,-1.432352e-005
-3.069211e-005,-2.955766e-005
-2.446183e-004,-4.138842e-005
-4.964678e-004,-4.106429e-005
-7.415105e-004,-3.101624e-005
-9.030895e-004,-2.161646e-005
-9.296683e-004,-2.226472e-005
-8.142778e-004,-3.198863e-005
-5.787969e-004,-4.171255e-005
-2.805968e-004,-4.171255e-005
-1.399939e-005,-3.166451e-005
1.297525e-004,-1.659243e-005
1.150046e-004,-2.816880e-006
-7.516774e-006,1.720949e-006
-1.280934e-004,-4.113402e-006
-1.436516e-004,-1.513384e-005
-2.842320e-005,-2.453363e-005
1.822617e-004,-2.680255e-005
4.316803e-004,-1.902341e-005
6.648924e-004,-2.330684e-006
8.360335e-004,1.533444e-005
9.013459e-004,2.262737e-005
8.186925e-004,1.355172e-005
5.741358e-004,-3.303075e-006
2.143507e-004,-1.610623e-005
-1.661787e-004,-2.145439e-005
-4.549791e-004,-1.448558e-005
-5.951655e-004,-6.176923e-008
-6.045653e-004,1.873781e-005
-5.502734e-004,3.672705e-005
-4.972781e-004,5.260946e-005
-4.729683e-004,6.476436e-005
-4.548170e-004,7.092283e-005
-3.912874e-004,7.108490e-005
-2.467252e-004,6.930219e-005
-2.501983e-005,6.589881e-005
2.375260e-004,6.119892e-005
4.882411e-004,5.601283e-005
6.854748e-004,5.309565e-005
8.060514e-004,5.082674e-005
8.431644e-004,5.115087e-005
8.105892e-004,6.022653e-005
7.353909e-004,8.939829e-005
6.415550e-004,1.331559e-004
5.376711e-004,1.741585e-004
4.182289e-004,1.955511e-004
2.689667e-004,1.953890e-004
7.837785e-005,1.809652e-004
-1.545100e-004,1.605450e-004
-3.985803e-004,1.401247e-004
-6.058618e-004,1.226217e-004
-7.350278e-004,1.104668e-004
-7.547998e-004,1.069013e-004
-6.564262e-004,1.099806e-004
-4.637306e-004,1.116012e-004
-2.284118e-004,1.059289e-004
-8.002969e-006,9.426025e-005
1.584381e-004,8.826383e-005
2.673460e-004,9.507057e-005
3.444891e-004,1.119254e-004
4.193634e-004,1.276457e-004
5.081752e-004,1.341283e-004
6.050903e-004,1.320215e-004
6.966572e-004,1.289422e-004
7.652109e-004,1.274836e-004
7.906552e-004,1.247285e-004
7.459251e-004,1.177597e-004
6.138418e-004,1.046324e-004
4.098015e-004,8.048469e-005
1.916615e-004,4.531652e-005
3.543053e-005,4.151929e-006
-7.192643e-006,-4.219875e-005
5.439218e-005,-8.952182e-005
1.705930e-004,-1.340898e-004
2.691287e-004,-1.669890e-004
2.811216e-004,-1.770371e-004
1.902029e-004,-1.637477e-004
1.517237e-005,-1.357104e-004
-2.222533e-004,-1.007043e-004
-4.630823e-004,-6.051213e-005
-6.296854e-004,-2.096819e-005
-6.645294e-004,1.452411e-005
-5.574043e-004,4.402000e-005
-3.418575e-004,6.314371e-005
-7.898758e-005,6.800567e-005
1.667035e-004,6.071273e-005
3.519442e-004,4.969228e-005
4.605280e-004,3.899597e-005
4.945617e-004,3.137890e-005
4.718725e-004,2.862379e-005
4.211461e-004,2.797553e-005
3.736609e-004,2.505835e-005
3.647473e-004,2.165498e-005
4.164462e-004,2.149292e-005
5.208162e-004,2.295151e-005
6.383137e-004,2.862379e-005
7.222636e-004,3.818564e-005
7.366874e-004,4.904402e-005
6.569512e-004,5.941620e-005
4.743035e-004,6.687120e-005
2.094887e-004,6.816773e-005
-6.650855e-005,6.038860e-005
-2.566112e-004,4.256141e-005
-2.815692e-004,2.133085e-005
-1.287416e-004,5.286386e-006
1.273216e-004,-3.951337e-006
3.675024e-004,-2.816880e-006
4.942375e-004,5.610517e-006
4.618245e-004,1.274139e-005
2.684805e-004,1.776542e-005
-5.953974e-005,2.165498e-005
-4.706994e-004,2.603075e-005
-8.851003e-004,2.878586e-005
-1.206314e-003,3.186510e-005
-1.354603e-003,3.656499e-005
-1.303391e-003,4.337174e-005
-1.090437e-003,5.293359e-005
-7.867267e-004,6.119892e-005
-4.719959e-004,6.703327e-005
-2.130156e-004,7.270556e-005
-5.078821e-005,8.080882e-005
7.555300e-006,9.053274e-005
-1.902341e-005,1.000946e-004
-9.081834e-005,1.096565e-004
-1.478653e-004,1.164632e-004
-1.028112e-004,1.177597e-004
1.287802e-004,1.195424e-004
5.512845e-004,1.253768e-004
1.062925e-003,1.363972e-004
1.487375e-003,1.488763e-004
1.654465e-003,1.595726e-004
1.497747e-003,1.692965e-004
1.085939e-003,1.783722e-004
5.717048e-004,1.859892e-004
1.198666e-004,1.855030e-004
-1.571030e-004,1.722137e-004
-2.271153e-004,1.483901e-004
-1.297140e-004,1.195424e-004
6.200925e-005,9.085687e-005
2.675081e-004,6.751947e-005
4.264942e-004,4.936815e-005
5.122268e-004,3.802358e-005
5.203301e-004,3.040651e-005
4.558280e-004,2.424803e-005
3.346032e-004,1.419998e-005
1.775618e-004,-7.678839e-006
7.231170e-006,-4.284701e-005
-1.614788e-004,-8.271508e-005
-3.232200e-004,-1.149661e-004
-4.702132e-004,-1.324691e-004
-5.920862e-004,-1.352242e-004
-6.857600e-004,-1.237176e-004
-7.502619e-004,-1.024870e-004
-7.795958e-004,-7.428768e-005
-7.661444e-004,-4.041603e-005
-7.066664e-004,-4.761663e-006
-6.175305e-004,2.603075e-005
-5.214258e-004,4.920609e-005
-4.296969e-004,6.654707e-005
-3.235441e-004,8.080882e-005
-1.669890e-004,9.199134e-005
4.742337e-005,9.782569e-005
2.712356e-004,1.018773e-004
4.555039e-004,1.094944e-004
5.814287e-004,1.224596e-004
6.631097e-004,1.398006e-004
7.214532e-004,1.540623e-004
7.577559e-004,1.618415e-004
7.532181e-004,1.644345e-004
7.020054e-004,1.649207e-004
6.282656e-004,1.624898e-004
5.506363e-004,1.561692e-004
4.589073e-004,1.480659e-004
3.334687e-004,1.362352e-004
1.777239e-004,1.111150e-004
2.538249e-005,6.719534e-005
-7.866345e-005,5.448451e-006
-1.677994e-004,-6.667061e-005
-3.977700e-004,-1.394379e-004
-9.517092e-004,-2.100984e-004
-1.901574e-003,-2.809209e-004
-3.104911e-003,-3.617915e-004
-4.247315e-003,-4.525481e-004
-4.967053e-003,-5.361738e-004
-4.967377e-003,-5.791211e-004
-4.464322e-003,-5.468701e-004
-3.331479e-003,-4.358554e-004
-1.933015e-003,-2.739521e-004
-5.570801e-004,-1.084835e-004
5.702462e-004,2.311357e-005
1.345243e-003,1.028497e-004
1.795624e-003,1.339663e-004
1.982324e-003,1.347766e-004
1.958500e-003,1.253768e-004
1.765480e-003,1.161391e-004
1.446859e-003,1.083599e-004
1.054498e-003,9.814982e-005
6.516030e-004,8.567078e-005
3.136967e-004,7.302969e-005
1.137081e-004,6.281957e-005
8.178122e-005,5.568870e-005
1.989545e-004,5.277152e-005
4.054257e-004,5.050261e-005
6.255105e-004,4.953022e-005
7.992446e-004,4.888196e-005
8.942151e-004,4.596478e-005
9.165801e-004,3.980630e-005
8.981046e-004,2.992031e-005
8.888669e-004,1.582063e-005
9.386210e-004,-2.654814e-006
1.076701e-003,-2.339917e-005
1.285279e-003,-3.863331e-005
1.511523e-003,-4.268495e-005
1.693847e-003,-3.150244e-005
1.787521e-003,-3.789271e-006
1.767587e-003,3.834771e-005
1.624321e-003,9.263960e-005
1.374253e-003,1.652449e-004
1.056280e-003,2.631323e-004
7.225877e-004,3.783608e-004
4.169323e-004,4.879170e-004
1.603829e-004,5.614947e-004
-6.553616e-005,5.789977e-004
-3.010170e-004,5.386435e-004
-5.894932e-004,4.593935e-004
-9.578676e-004,3.692851e-004
-1.399171e-003,2.957075e-004
-1.860572e-003,2.498430e-004
-2.235915e-003,2.256952e-004
-2.401708e-003,2.104611e-004
-2.296041e-003,1.932822e-004
-1.943225e-003,1.688103e-004
-1.432881e-003,1.336421e-004
-8.912588e-004,9.101894e-005
-4.374760e-004,5.147500e-005
-1.363587e-004,2.489629e-005
1.241726e-005,1.598270e-005
4.953022e-005,1.873781e-005
3.996836e-005,2.392390e-005
5.811968e-005,2.894792e-005
1.490383e-004,3.235129e-005
3.211517e-004,3.462021e-005
5.666808e-004,3.348575e-005
8.575883e-004,2.732727e-005
1.160813e-003,1.938607e-005
1.464362e-003,1.128280e-005
1.771800e-003,3.827798e-006
2.083129e-003,-2.654814e-006
2.375496e-003,-9.947754e-006
2.588289e-003,-1.788895e-005
2.623133e-003,-2.339917e-005
2.395916e-003,-2.501983e-005
1.888002e-003,-2.080613e-005
1.150116e-003,-1.189254e-005
2.965178e-004,4.244267e-007
-5.126743e-004,1.711715e-005
-1.152670e-003,3.883391e-005
-1.574202e-003,6.055066e-005
-1.787156e-003,7.756751e-005
-1.827996e-003,8.550872e-005
-1.730433e-003,8.242948e-005
-1.499490e-003,7.286762e-005
-1.110695e-003,6.200925e-005
-5.350393e-004,5.504044e-005
1.856651e-004,5.082674e-005
8.898393e-004,4.499239e-005
1.358857e-003,3.316162e-005
1.419307e-003,1.565857e-005
1.047367e-003,-6.058186e-006
4.073705e-004,-2.988179e-005
-2.488320e-004,-5.483985e-005
-7.125008e-004,-7.995997e-005
-8.966069e-004,-1.041077e-004
-8.311325e-004,-1.280934e-004
-6.134789e-004,-1.530514e-004
-3.530400e-004,-1.773612e-004
-1.266348e-004,-1.925954e-004
3.850977e-005,-1.921091e-004
1.488763e-004,-1.736337e-004
2.195368e-004,-1.410586e-004
2.668598e-004,-1.000561e-004
2.931144e-004,-6.002593e-005
2.940868e-004,-2.890940e-005
2.655633e-004,-3.951337e-006
2.083542e-004,1.727922e-005
1.355869e-004,3.591673e-005
8.210535e-005,5.439218e-005
9.280166e-005,6.962632e-005
1.978200e-004,7.610893e-005
3.780367e-004,7.092283e-005
5.561465e-004,5.455424e-005
6.462549e-004,3.494434e-005
6.115729e-004,2.149292e-005
4.838654e-004,1.582063e-005
3.282826e-004,1.614476e-005
2.036543e-004,2.441009e-005
1.363972e-004,4.175108e-005
1.195424e-004,6.670914e-005
1.257009e-004,9.636710e-005
1.336421e-004,1.237561e-004
1.333180e-004,1.422316e-004
1.184080e-004,1.456350e-004
8.826383e-005,1.365593e-004
5.098881e-005,1.195424e-004
1.841368e-005,1.002567e-004
5.286386e-006,8.097089e-005
1.533444e-005,6.541262e-005
3.591673e-005,5.730935e-005
4.385793e-005,5.552663e-005
2.311357e-005,5.714729e-005
-3.344722e-005,5.860587e-005
-1.183694e-004,6.006446e-005
-2.109087e-004,5.811968e-005
-2.861070e-004,4.953022e-005
-3.219235e-004,3.543053e-005
-3.068514e-004,2.116879e-005
-2.502906e-004,1.711715e-005
-1.734716e-004,2.522042e-005
-1.062145e-004,3.559260e-005
-6.423963e-005,3.721326e-005
-5.386745e-005,2.943412e-005
-8.433573e-005,1.792748e-005
-1.695821e-004,5.286386e-006
-3.222476e-004,-2.978945e-006
-5.371462e-004,-6.382316e-006
-7.719788e-004,-7.354708e-006
-9.617572e-004,-8.651231e-006
-1.044086e-003,-1.237873e-005
-9.799085e-004,-2.064406e-005
-7.820268e-004,-3.117831e-005
-5.100812e-004,-4.138842e-005
-2.457528e-004,-4.722277e-005
-4.932962e-005,-5.062615e-005
5.666109e-005,-5.305713e-005
8.793970e-005,-5.176060e-005
7.675719e-005,-4.511592e-005
6.816773e-005,-3.895744e-005
1.130598e-004,-3.053005e-005
2.443327e-004,-1.886135e-005
4.555039e-004,-5.247859e-006
7.037881e-004,7.717366e-006
9.152836e-004,1.695509e-005
1.016412e-003,2.538249e-005
9.721686e-004,3.802358e-005
8.008654e-004,5.909207e-005
5.655463e-004,8.648111e-005
3.375203e-004,1.158149e-004
1.639483e-004,1.423936e-004
5.957827e-005,1.594105e-004
8.041497e-006,1.654069e-004
-1.464765e-005,1.647587e-004
-2.939559e-005,1.613553e-004
-4.770897e-005,1.621656e-004
-7.169464e-005,1.689724e-004
-1.011905e-004,1.819376e-004
-1.336036e-004,2.028440e-004
-1.634236e-004,2.274780e-004
-1.862748e-004,2.448189e-004
-2.023193e-004,2.457913e-004
-2.169051e-004,2.281262e-004
-2.305186e-004,1.937684e-004
-2.407287e-004,1.498487e-004
-2.428356e-004,1.026876e-004
-2.237119e-004,6.006446e-005
-1.767129e-004,2.716520e-005
-1.050801e-004,1.031041e-005
-1.853721e-005,7.069104e-006
6.346784e-005,8.527692e-006
1.184080e-004,8.041497e-006
1.323456e-004,7.069104e-006
9.977046e-005,9.175954e-006
2.149292e-005,1.112074e-005
-8.984595e-005,1.112074e-005
-2.159328e-004,7.231170e-006
-3.405610e-004,4.313994e-006
-4.518998e-004,7.069104e-006
-5.444391e-004,1.338965e-005
-6.212580e-004,1.841368e-005
-6.899737e-004,2.343770e-005
-7.560964e-004,2.732727e-005
-8.152502e-004,3.121684e-005
-8.499321e-004,3.591673e-005
-8.439357e-004,4.531652e-005
-7.923989e-004,5.698522e-005
-7.060181e-004,6.622294e-005
-6.006758e-004,6.914012e-005
-4.849611e-004,6.687120e-005
-3.559572e-004,6.200925e-005
-1.924333e-004,5.568870e-005
2.959618e-005,4.823369e-005
3.052693e-004,3.786152e-005
5.883976e-004,2.684107e-005
8.148029e-004,2.149292e-005
9.327867e-004,2.197911e-005
9.243592e-004,2.408596e-005
8.160995e-004,2.392390e-005
6.610029e-004,1.873781e-005
5.112544e-004,8.689757e-006
3.971604e-004,-4.113402e-006
3.099692e-004,-1.756482e-005
2.187264e-004,-2.907146e-005
1.054428e-004,-3.053005e-005
-2.129233e-005,-1.772689e-005
-1.337657e-004,3.665733e-006
-2.018331e-004,2.586868e-005
-2.104225e-004,4.077869e-005
-1.566169e-004,4.256141e-005
-5.597430e-005,3.202716e-005
6.897806e-005,1.889987e-005
1.900409e-004,1.063454e-005
2.854973e-004,3.503668e-006
3.467580e-004,-5.571990e-006
3.791711e-004,-1.610623e-005
3.929467e-004,-2.728874e-005
4.010499e-004,-3.522994e-005
4.145014e-004,-3.749886e-005
4.313562e-004,-3.506787e-005
4.459420e-004,-3.425755e-005
4.524247e-004,-3.620233e-005
4.493454e-004,-3.798505e-005
4.412422e-004,-3.701266e-005
4.305458e-004,-3.571614e-005
4.200116e-004,-3.539201e-005
4.174185e-004,-3.377135e-005
4.298976e-004,-2.971972e-005
4.486972e-004,-2.210265e-005
4.459420e-004,-1.270286e-005
3.880847e-004,-5.247859e-006
2.525981e-004,-4.761663e-006
4.693717e-005,-1.237873e-005
-1.904885e-004,-2.696461e-005
-3.901529e-004,-4.414354e-005
-4.854473e-004,-5.986387e-005
-4.481723e-004,-6.472583e-005
-2.937241e-004,-5.824321e-005
-6.245691e-005,-4.414354e-005
1.965235e-004,-2.323711e-005
4.354078e-004,4.313994e-006
6.167590e-004,3.316162e-005
7.144844e-004,5.617490e-005
7.272876e-004,7.011251e-005
6.723474e-004,7.708132e-005
5.874252e-004,7.902610e-005
5.151440e-004,7.173317e-005
4.754380e-004,5.277152e-005
4.582590e-004,2.700314e-005
4.316803e-004,5.772582e-006
3.637749e-004,-3.141010e-006
2.428742e-004,8.203561e-006
8.696730e-005,5.196120e-005
-6.780506e-005,1.407730e-004
-1.930815e-004,2.835526e-004
-2.728177e-004,4.629589e-004
-3.066893e-004,6.321552e-004
-2.985860e-004,7.378219e-004
-2.519113e-004,7.423597e-004
-1.721751e-004,6.422033e-004
-6.829127e-005,4.733311e-004
5.082674e-005,2.952213e-004
1.660552e-004,1.603829e-004
2.451431e-004,8.793970e-005
2.430362e-004,6.557468e-005
1.030118e-004,7.270556e-005
-2.229016e-004,9.150514e-005
-7.483172e-004,1.039842e-004
-1.413433e-003,1.041462e-004
-2.081791e-003,9.199134e-005
-2.574308e-003,6.914012e-005
-2.749177e-003,3.867184e-005
-2.564908e-003,9.338019e-006
-2.098483e-003,-1.318906e-005
-1.495924e-003,-2.696461e-005
-9.154065e-004,-3.344722e-005
-4.671339e-004,-3.247483e-005
-1.827094e-004,-2.323711e-005
-2.647842e-005,-1.156841e-005
5.925414e-005,-3.141010e-006
1.284560e-004,-6.176923e-008
2.125679e-004,-2.492749e-006
3.279585e-004,-1.497178e-005
4.909962e-004,-3.441962e-005
7.120535e-004,-5.451571e-005
9.877268e-004,-6.845333e-005
1.299865e-003,-7.347736e-005
1.623024e-003,-6.893953e-005
1.902101e-003,-6.278104e-005
2.061412e-003,-6.375343e-005
2.041640e-003,-7.315322e-005
1.805996e-003,-8.465986e-005
1.362747e-003,-9.632856e-005
8.052411e-004,-1.031353e-004
2.866318e-004,-9.422171e-005
-6.261898e-005,-6.537409e-005
-1.908126e-004,-2.518189e-005
-1.310105e-004,2.855406e-006
2.894792e-005,9.338019e-006
2.002510e-004,-2.168618e-006
3.239068e-004,-1.724069e-005
3.759298e-004,-2.826113e-005
3.568061e-004,-3.134038e-005
3.060797e-004,-2.842320e-005
2.890628e-004,-2.404744e-005
3.524303e-004,-2.129233e-005
4.986133e-004,-2.226472e-005
6.921194e-004,-2.712668e-005
8.861118e-004,-3.652646e-005
1.043639e-003,-5.240886e-005
1.142986e-003,-7.817725e-005
1.172157e-003,-1.167488e-004
1.124186e-003,-1.647201e-004
9.937233e-004,-2.206326e-004
7.870898e-004,-2.778417e-004
5.211404e-004,-3.220855e-004
2.174299e-004,-3.381300e-004
-1.044318e-004,-3.178718e-004
-4.224039e-004,-2.640661e-004
-7.278970e-004,-1.882196e-004
-1.032094e-003,-1.042698e-004
-1.350714e-003,-2.680255e-005
-1.673872e-003,3.478227e-005
-1.944359e-003,7.789165e-005
-2.061046e-003,1.034980e-004
-1.912108e-003,1.180839e-004
-1.438391e-003,1.257009e-004
-7.032630e-004,1.260251e-004
1.034980e-004,1.216493e-004
7.360392e-004,1.154908e-004
1.019492e-003,1.104668e-004
9.311660e-004,1.057669e-004
5.924492e-004,1.023635e-004
1.830720e-004,9.912220e-005
-1.498101e-004,9.377405e-005
-3.334301e-004,8.307774e-005
-3.660052e-004,6.541262e-005
-2.935620e-004,4.337174e-005
-1.731475e-004,2.295151e-005
-5.386745e-005,1.322759e-005
3.559260e-005,1.695509e-005
8.453633e-005,2.975825e-005
9.069480e-005,4.758544e-005
6.379197e-005,6.832980e-005
2.230324e-005,9.231547e-005
-1.788895e-005,1.143563e-004
-2.971972e-005,1.336421e-004
6.420843e-006,1.592484e-004
8.307774e-005,2.052750e-004
1.767515e-004,2.788527e-004
2.579462e-004,3.697713e-004
3.021901e-004,4.467524e-004
2.992729e-004,4.812723e-004
2.519498e-004,4.613383e-004
1.720516e-004,3.950535e-004
7.659513e-005,3.060797e-004
-1.562004e-005,2.242366e-004
-9.146661e-005,1.707551e-004
-1.475412e-004,1.459591e-004
-1.935677e-004,1.389903e-004
-2.465631e-004,1.351007e-004
-3.154408e-004,1.195424e-004
-3.998769e-004,9.101894e-005
-4.929024e-004,5.860587e-005
-5.830106e-004,3.056858e-005
-6.544814e-004,1.144487e-005
-6.941874e-004,1.883015e-006
-6.893254e-004,-8.002969e-006
-6.306578e-004,-2.615428e-005
-5.191569e-004,-5.159854e-005
-3.444505e-004,-7.363942e-005
-9.438377e-005,-7.963584e-005
2.325020e-004,-6.877746e-005
5.994180e-004,-4.868136e-005
9.264661e-004,-2.680255e-005
1.129858e-003,-7.030578e-006
1.157896e-003,5.286386e-006
1.015116e-003,1.063454e-005
7.559732e-004,1.306552e-005
4.399456e-004,1.727922e-005
1.224596e-004,2.489629e-005
-1.488377e-004,3.705119e-005
-3.352128e-004,5.082674e-005
-4.186764e-004,6.638501e-005
-4.254832e-004,8.372600e-005
-3.971218e-004,9.814982e-005
-3.425058e-004,1.051186e-004
-2.185258e-004,1.067393e-004
4.645098e-005,1.054428e-004
4.624727e-004,1.044704e-004
9.130146e-004,1.013911e-004
1.217050e-003,9.928427e-005
1.239415e-003,9.912220e-005
9.762202e-004,9.863601e-005
5.623050e-004,9.928427e-005
2.196988e-004,1.018773e-004
1.257009e-004,1.022014e-004
2.908455e-004,9.685329e-005
5.431813e-004,8.842590e-005
6.345861e-004,7.610893e-005
3.746333e-004,6.055066e-005
-2.523974e-004,4.547859e-005
-1.071961e-003,3.575467e-005
-1.829293e-003,3.332369e-005
-2.291179e-003,3.737532e-005
-2.320999e-003,4.353380e-005
-1.934473e-003,4.677511e-005
-1.290750e-003,4.094075e-005
-6.091031e-004,2.667901e-005
-6.569822e-005,6.744974e-006
2.684805e-004,-1.497178e-005
4.328148e-004,-3.053005e-005
5.185474e-004,-3.636440e-005
6.003904e-004,-3.717472e-005
6.995744e-004,-3.701266e-005
7.857932e-004,-3.231276e-005
8.011895e-004,-2.145439e-005
7.029778e-004,-7.030578e-006
4.931031e-004,5.934647e-006
2.149989e-004,9.500084e-006
-5.808115e-005,3.179537e-006
-2.504527e-004,-6.382316e-006
-3.228959e-004,-1.399939e-005
-2.862691e-004,-1.318906e-005
-1.934057e-004,-3.141010e-006
-1.292278e-004,8.851824e-006
-1.806025e-004,1.371378e-005
-3.890185e-004,7.555300e-006
-7.291935e-004,-4.437533e-006
-1.107292e-003,-1.399939e-005
-1.400630e-003,-1.724069e-005
-1.504028e-003,-1.448558e-005
-1.366596e-003,-5.085794e-006
-1.016535e-003,5.286386e-006
-5.446011e-004,1.209313e-005
-6.067420e-005,9.824214e-006
3.550234e-004,-2.006553e-006
6.661889e-004,-2.323711e-005
8.728224e-004,-4.560212e-005
9.974508e-004,-6.083626e-005
1.061953e-003,-6.326724e-005
1.076863e-003,-5.354332e-005
1.050284e-003,-3.668853e-005
9.925888e-004,-1.918548e-005
9.147974e-004,-7.678839e-006
8.248510e-004,-2.816880e-006
7.251807e-004,-7.100305e-007
5.994180e-004,4.476060e-006
4.232529e-004,1.047248e-005
1.958752e-004,1.128280e-005
-5.095028e-005,4.151929e-006
-2.608248e-004,-6.868512e-006
-3.736223e-004,-1.416145e-005
-3.569296e-004,-9.461557e-006
-2.055606e-004,4.800190e-006
5.941620e-005,2.457216e-005
3.723644e-004,3.948217e-005
6.287518e-004,4.402000e-005
7.097846e-004,3.850977e-005
5.401021e-004,2.684107e-005
1.534141e-004,1.468617e-005
-3.146305e-004,6.420843e-006
-7.069905e-004,7.069104e-006
-9.280476e-004,1.582063e-005
-9.667812e-004,3.137890e-005
-8.727834e-004,4.985435e-005
-7.024527e-004,6.638501e-005
-4.982505e-004,7.724339e-005
-2.783279e-004,7.983643e-005
-4.187462e-005,7.659513e-005
2.124059e-004,7.286762e-005
4.786793e-004,7.221937e-005
7.410632e-004,7.432621e-005
9.891854e-004,7.756751e-005
1.220615e-003,8.388807e-005
1.435352e-003,9.701536e-005
1.615083e-003,1.112771e-004
1.729339e-003,1.184080e-004
1.735498e-003,1.187321e-004
1.597256e-003,1.185700e-004
1.308617e-003,1.247285e-004
8.694190e-004,1.370455e-004
2.880904e-004,1.501728e-004
-3.559572e-004,1.582760e-004
-9.047101e-004,1.587622e-004
-1.200965e-003,1.540623e-004
-1.166121e-003,1.521176e-004
-8.324290e-004,1.615174e-004
-3.162512e-004,1.791825e-004
2.457913e-004,1.958752e-004
7.272876e-004,1.999268e-004
1.044774e-003,1.903650e-004
1.177668e-003,1.728619e-004
1.157734e-003,1.595726e-004
1.030350e-003,1.530900e-004
8.420299e-004,1.454729e-004
6.289139e-004,1.258630e-004
4.217943e-004,8.421220e-005
2.402811e-004,1.484824e-005
9.166720e-005,-6.991192e-005
-2.096819e-005,-1.421931e-004
-1.036215e-004,-1.749302e-004
-1.634236e-004,-1.592099e-004
-2.041020e-004,-1.065387e-004
-2.259808e-004,-3.960571e-005
-2.326255e-004,2.230324e-005
-2.306807e-004,6.832980e-005
-2.288980e-004,9.215340e-005
-2.347323e-004,9.247753e-005
-2.455907e-004,7.108490e-005
-2.645523e-004,3.834771e-005
-2.977757e-004,5.934647e-006
-3.450988e-004,-2.258885e-005
-4.049009e-004,-4.803310e-005
-4.766958e-004,-6.586029e-005
-5.559457e-004,-7.428768e-005
-6.141271e-004,-7.299116e-005
-6.181788e-004,-6.148453e-005
-5.559457e-004,-4.608832e-005
-4.335864e-004,-3.231276e-005
-2.708729e-004,-2.015787e-005
-9.551824e-005,-6.220251e-006
6.362990e-005,7.555300e-006
1.840444e-004,1.857574e-005
2.576221e-004,2.457216e-005
2.856594e-004,2.700314e-005
2.666978e-004,2.959618e-005
1.957131e-004,3.040651e-005
6.946425e-005,2.862379e-005
-1.075111e-004,2.554455e-005
-3.074996e-004,2.586868e-005
-4.916058e-004,2.748933e-005
-6.347094e-004,2.651694e-005
-7.478310e-004,1.906194e-005
-8.572250e-004,1.112074e-005
-9.721293e-004,1.209313e-005
-1.061265e-003,2.068259e-005
-1.075365e-003,2.878586e-005
-9.747224e-004,3.299956e-005
-7.580412e-004,3.413401e-005
-4.583824e-004,3.186510e-005
-1.237176e-004,2.586868e-005
1.950649e-004,1.922400e-005
4.566384e-004,2.246531e-005
6.303724e-004,3.883391e-005
6.963331e-004,6.006446e-005
6.624614e-004,7.918817e-005
5.551741e-004,9.393611e-005
4.141773e-004,1.073875e-004
2.785285e-004,1.188942e-004
1.678379e-004,1.260251e-004
8.664317e-005,1.266733e-004
2.457216e-005,1.234320e-004
-3.101624e-005,1.185700e-004
-7.185670e-005,1.122495e-004
-5.030201e-005,1.043083e-004
7.935023e-005,9.361198e-005
2.932765e-004,7.935023e-005
4.879170e-004,5.876794e-005
5.358884e-004,3.235129e-005
3.535648e-004,8.203561e-006
-4.365734e-005,-6.868512e-006
-5.621042e-004,-4.923729e-006
-1.071800e-003,1.031041e-005
-1.450384e-003,3.299956e-005
-1.617635e-003,5.649903e-005
-1.559292e-003,7.432621e-005
-1.321380e-003,8.405013e-005
-9.878497e-004,8.161915e-005
-6.452437e-004,6.978838e-005
-3.494745e-004,5.763348e-005
-1.169109e-004,5.293359e-005
5.747142e-005,5.423011e-005
1.838824e-004,5.682316e-005
2.705873e-004,5.811968e-005
3.271481e-004,6.249544e-005
3.624784e-004,7.011251e-005
3.812780e-004,8.032263e-005
3.898674e-004,9.134307e-005
3.929467e-004,9.912220e-005
3.932708e-004,1.010670e-004
3.944053e-004,9.669123e-005
4.002396e-004,9.037068e-005
4.141773e-004,8.599491e-005
4.371905e-004,8.323980e-005
4.720346e-004,7.789165e-005
5.217887e-004,7.205730e-005
5.909906e-004,6.897806e-005
6.707268e-004,6.800567e-005
7.402528e-004,6.298164e-005
7.741245e-004,5.455424e-005
7.613213e-004,4.077869e-005
6.977917e-004,2.165498e-005
5.916388e-004,-1.682422e-006
4.644175e-004,-2.501983e-005
3.498373e-004,-3.928157e-005
2.725321e-004,-4.009190e-005
2.349330e-004,-2.842320e-005
2.193747e-004,-6.868512e-006
2.078680e-004,1.971020e-005
1.895547e-004,4.450619e-005
1.626518e-004,6.589881e-005
1.336421e-004,8.437427e-005
1.075496e-004,9.863601e-005
9.377405e-005,1.036600e-004
9.669123e-005,9.685329e-005
1.103047e-004,8.226741e-005
1.269974e-004,6.606088e-005
1.436902e-004,5.131293e-005
1.589243e-004,3.575467e-005
1.730240e-004,1.792748e-005
1.856651e-004,2.045080e-006
1.937684e-004,-9.299492e-006
1.986303e-004,-1.788895e-005
2.059233e-004,-2.501983e-005
2.122438e-004,-3.166451e-005
2.098128e-004,-3.960571e-005
1.918236e-004,-6.132245e-005
1.545486e-004,-1.026491e-004
9.669123e-005,-1.522411e-004
1.792748e-005,-1.898402e-004
-7.752898e-005,-2.070192e-004
-1.773612e-004,-2.066950e-004
-2.642282e-004,-1.932436e-004
-3.196545e-004,-1.690959e-004
-3.303509e-004,-1.353863e-004
-2.940482e-004,-9.730095e-005
-2.204706e-004,-5.775702e-005
-1.316588e-004,-1.805102e-005
-4.949169e-005,1.727922e-005
1.031041e-005,4.272347e-005
4.920609e-005,5.633696e-005
7.837785e-005,5.844381e-005
1.096565e-004,5.455424e-005
1.569795e-004,5.050261e-005
2.266676e-004,5.034054e-005
3.111037e-004,5.163707e-005
3.961880e-004,5.325772e-005
4.687933e-004,5.390598e-005
5.242196e-004,5.179913e-005
5.658705e-004,4.531652e-005
5.989318e-004,3.559260e-005
6.247002e-004,2.635488e-005
6.469032e-004,2.311357e-005
6.679717e-004,2.927205e-005
6.862851e-004,4.191315e-005
6.982779e-004,5.925414e-005
6.958469e-004,7.999850e-005
6.705647e-004,1.000946e-004
6.123832e-004,1.182459e-004
5.133613e-004,1.357490e-004
3.496752e-004,1.535762e-004
7.935023e-005,1.728619e-004
-3.319715e-004,1.953890e-004
-8.800763e-004,2.203471e-004
-1.503379e-003,2.431983e-004
-2.090542e-003,2.613496e-004
-2.510292e-003,2.783665e-004
-2.659068e-003,2.968419e-004
-2.497327e-003,3.169380e-004
-2.059102e-003,3.370341e-004
-1.413433e-003,3.472442e-004
-6.507539e-004,3.404375e-004
9.685329e-005,3.172621e-004
6.707268e-004,2.798251e-004
9.462381e-004,2.303951e-004
8.731465e-004,1.767515e-004
5.138475e-004,1.274836e-004
3.024445e-005,8.550872e-005
-3.992286e-004,5.504044e-005
-6.567503e-004,3.462021e-005
-7.128249e-004,2.230324e-005
-6.116962e-004,1.646889e-005
-4.277521e-004,8.365628e-006
-2.327876e-004,-4.437533e-006
-7.056018e-005,-1.821308e-005
4.110282e-005,-2.842320e-005
1.023635e-004,-3.263690e-005
1.227837e-004,-3.604027e-005
1.169494e-004,-3.879538e-005
1.026876e-004,-4.284701e-005
1.127357e-004,-4.803310e-005
1.673517e-004,-6.035006e-005
2.590807e-004,-8.028410e-005
3.582647e-004,-1.034594e-004
4.315182e-004,-1.191798e-004
4.598797e-004,-1.235555e-004
4.388112e-004,-1.199901e-004
3.880847e-004,-1.146419e-004
3.329825e-004,-1.089697e-004
2.942489e-004,-1.007043e-004
2.748010e-004,-8.854943e-005
2.663736e-004,-7.266703e-005
2.626462e-004,-5.483985e-005
2.642668e-004,-3.749886e-005
2.793389e-004,-2.226472e-005
3.133726e-004,-1.464765e-005
3.636129e-004,-1.562004e-005
4.170944e-004,-1.967167e-005
4.595555e-004,-2.469570e-005
4.770586e-004,-2.809907e-005
4.671726e-004,-2.323711e-005
4.370285e-004,-1.318906e-005
4.021844e-004,-8.720958e-007
3.717161e-004,9.662150e-006
3.512959e-004,1.322759e-005
3.425443e-004,9.824214e-006
3.428685e-004,2.531276e-006
3.444891e-004,-2.168618e-006
3.383307e-004,-1.682422e-006
3.188828e-004,2.855406e-006
2.958695e-004,9.824214e-006
2.833905e-004,2.035846e-005
2.900352e-004,3.494434e-005
3.209897e-004,5.082674e-005
3.718782e-004,6.687120e-005
4.294114e-004,7.886404e-005
4.819206e-004,8.486046e-005
5.162784e-004,8.599491e-005
5.214645e-004,8.469840e-005
4.994237e-004,7.837785e-005
4.631210e-004,7.108490e-005
4.237391e-004,6.719534e-005
3.875985e-004,6.768153e-005
3.564820e-004,7.254349e-005
3.245551e-004,8.453633e-005
2.863077e-004,1.043083e-004
2.401191e-004,1.235941e-004
1.885823e-004,1.333180e-004
1.425557e-004,1.284560e-004
1.104668e-004,1.153287e-004
9.247753e-005,1.039842e-004
7.821578e-005,1.013911e-004
4.142695e-005,1.083599e-004
-4.155049e-005,1.164632e-004
-1.880575e-004,1.128978e-004
-4.003631e-004,8.712937e-005
-6.582089e-004,4.288554e-005
-9.034136e-004,-1.682422e-006
-1.065803e-003,-2.907146e-005
-1.097730e-003,-3.247483e-005
-9.928737e-004,-1.351319e-005
-7.927230e-004,1.614476e-005
-5.645352e-004,4.223728e-005
-3.694086e-004,5.504044e-005
-2.348944e-004,5.082674e-005
-1.592099e-004,3.380988e-005
-1.274451e-004,1.306552e-005
-1.201522e-004,-5.085794e-006
-1.233935e-004,-1.416145e-005
-1.217728e-004,-1.416145e-005
-1.045939e-004,-7.516774e-006
-8.141856e-005,-1.682422e-006
-8.028410e-005,-3.951337e-006
-1.212866e-004,-1.740276e-005
-1.874093e-004,-4.090223e-005
-2.272773e-004,-6.699474e-005
-1.909747e-004,-8.563225e-005
-7.380149e-005,-9.243900e-005
8.923622e-005,-8.887356e-005
2.529222e-004,-7.947377e-005
3.872744e-004,-6.829127e-005
4.802999e-004,-5.613637e-005
5.373469e-004,-4.333321e-005
5.733254e-004,-2.631635e-005
5.906665e-004,9.106226e-007
5.749461e-004,4.726130e-005
5.133613e-004,1.216493e-004
4.115842e-004,2.175920e-004
3.038107e-004,3.109416e-004
2.235884e-004,3.759298e-004
1.808031e-004,3.966742e-004
1.605450e-004,3.692851e-004
1.163011e-004,3.119140e-004
-1.156841e-005,2.485465e-004
-2.486699e-004,1.960373e-004
-6.005137e-004,1.573037e-004
-1.045383e-003,1.315353e-004
-1.501759e-003,1.154908e-004
-1.839827e-003,1.009049e-004
-1.939335e-003,7.740545e-005
-1.756850e-003,4.337174e-005
-1.360762e-003,7.879431e-006
-8.852624e-004,-1.967167e-005
-4.647030e-004,-3.231276e-005
-1.677994e-004,-3.069211e-005
2.846173e-005,-2.210265e-005
1.825858e-004,-1.254080e-005
3.331445e-004,-2.238345e-007
4.837033e-004,1.241726e-005
6.136798e-004,2.035846e-005
7.078398e-004,1.889987e-005
7.645627e-004,1.290346e-005
7.853070e-004,6.420843e-006
7.702350e-004,-1.034161e-006
7.264772e-004,-6.868512e-006
6.668372e-004,-1.043395e-005
6.071971e-004,-7.678839e-006
5.587395e-004,-3.858999e-007
5.240575e-004,1.063454e-005
5.042856e-004,2.359977e-005
5.089855e-004,3.218923e-005
5.430192e-004,3.445814e-005
6.007145e-004,3.364782e-005
6.707268e-004,3.332369e-005
7.460872e-004,3.299956e-005
8.248510e-004,3.364782e-005
9.047493e-004,3.818564e-005
9.762202e-004,4.353380e-005
1.010254e-003,4.320967e-005
9.608240e-004,3.575467e-005
7.917897e-004,3.008238e-005
5.002340e-004,2.992031e-005
1.310491e-004,3.251336e-005
-2.350565e-004,3.575467e-005
-5.334187e-004,3.915804e-005
-7.437794e-004,4.029249e-005
-8.815349e-004,3.640293e-005
-9.779637e-004,2.603075e-005
-1.060617e-003,1.322759e-005
-1.135167e-003,1.072688e-006
-1.171146e-003,-6.868512e-006
-1.122202e-003,-9.461557e-006
-9.696984e-004,-9.785687e-006
-7.397278e-004,-8.489165e-006
-4.773441e-004,-4.599598e-006
-2.287359e-004,4.962256e-006
-2.712668e-005,2.295151e-005
1.171115e-004,5.034054e-005
2.085163e-004,8.534666e-005
2.522740e-004,1.166253e-004
2.504912e-004,1.326697e-004
2.086784e-004,1.341283e-004
1.385041e-004,1.242423e-004
4.353380e-005,1.098185e-004
-9.114247e-005,9.652916e-005
-2.703867e-004,8.923622e-005
-4.557894e-004,8.291567e-005
-5.666420e-004,7.221937e-005
-5.104053e-004,5.390598e-005
-2.365150e-004,2.603075e-005
2.122438e-004,-7.192643e-006
6.903367e-004,-3.587821e-005
1.020950e-003,-5.662256e-005
1.089018e-003,-7.769105e-005
9.120423e-004,-1.141557e-004
6.362069e-004,-1.739578e-004
4.563142e-004,-2.444563e-004
5.020167e-004,-2.972895e-004
7.528939e-004,-3.096065e-004
1.057577e-003,-2.733039e-004
1.220615e-003,-1.969711e-004
1.088532e-003,-1.044318e-004
6.148142e-004,-1.578211e-005
-1.261486e-004,5.666109e-005
-9.789361e-004,1.109530e-004
-1.768194e-003,1.492004e-004
-2.345147e-003,1.699447e-004
-2.608018e-003,1.736723e-004
-2.518557e-003,1.623277e-004
-2.111287e-003,1.415833e-004
-1.485066e-003,1.161391e-004
-7.782993e-004,9.361198e-005
-1.285796e-004,7.821578e-005
3.644232e-004,7.140904e-005
6.530616e-004,7.140904e-005
7.494906e-004,7.675719e-005
7.224256e-004,8.761556e-005
6.674855e-004,1.046324e-004
6.678096e-004,1.242423e-004
7.582422e-004,1.422316e-004
9.117181e-004,1.576278e-004
1.066653e-003,1.696206e-004
1.165837e-003,1.809652e-004
1.196305e-003,1.856651e-004
1.189823e-003,1.796687e-004
1.178154e-003,1.654069e-004
1.168916e-003,1.464453e-004
1.147686e-003,1.265113e-004
1.094366e-003,1.098185e-004
9.929129e-004,1.010670e-004
8.410575e-004,1.004187e-004
6.533858e-004,1.039842e-004
4.556660e-004,1.056048e-004
2.712356e-004,1.005808e-004
1.137081e-004,8.631904e-005
-1.886135e-005,6.038860e-005
-1.412206e-004,2.359977e-005
-2.606628e-004,-1.124428e-005
-3.570916e-004,-4.074016e-005
-3.914495e-004,-6.359137e-005
-3.459091e-004,-7.444974e-005
-2.350565e-004,-6.699474e-005
-8.174268e-005,-4.155049e-005
1.141943e-004,-4.599598e-006
3.832228e-004,3.299956e-005
7.593766e-004,6.119892e-005
1.208622e-003,7.675719e-005
1.583156e-003,7.951231e-005
1.686716e-003,7.173317e-005
1.389163e-003,5.925414e-005
7.237222e-004,4.742337e-005
-1.122110e-004,3.850977e-005
