4.323286e-004,6.071273e-005
4.098015e-004,1.116012e-004
3.728506e-004,1.884202e-004
3.243930e-004,2.911697e-004
2.671840e-004,3.932708e-004
2.072198e-004,4.634451e-004
1.566554e-004,4.833792e-004
1.253768e-004,4.545315e-004
1.141943e-004,3.911640e-004
1.138702e-004,3.148312e-004
1.140322e-004,2.501671e-004
1.062531e-004,2.196988e-004
9.053275e-005,2.354192e-004
7.157111e-005,2.945730e-004
6.022653e-005,3.807918e-004
6.541262e-005,4.788414e-004
8.988449e-005,5.741358e-004
1.242423e-004,6.541961e-004
1.537382e-004,7.097846e-004
1.657311e-004,7.365254e-004
1.537382e-004,7.340944e-004
1.210010e-004,7.049226e-004
7.691926e-005,6.584098e-004
4.272347e-005,6.023352e-004
3.494434e-005,5.464226e-004
6.395404e-005,5.034753e-004
1.281319e-004,4.872688e-004
2.101370e-004,4.935893e-004
2.777182e-004,5.054200e-004
3.038107e-004,5.008822e-004
2.785285e-004,4.679830e-004
2.099749e-004,4.133669e-004
1.156529e-004,3.488649e-004
1.776542e-005,2.908455e-004
-6.537409e-005,2.534084e-004
-1.233935e-004,2.406053e-004
-1.574272e-004,2.420638e-004
-1.710407e-004,2.396328e-004
-1.642339e-004,2.192126e-004
-1.347380e-004,1.773998e-004
-9.098041e-005,1.172735e-004
-4.754691e-005,3.737532e-005
-1.740276e-005,-6.634648e-005
-9.785688e-006,-1.887058e-004
-3.344723e-005,-3.078238e-004
-8.401160e-005,-4.019837e-004
-1.431655e-004,-4.611376e-004
-1.911368e-004,-4.927403e-004
-2.135018e-004,-5.133225e-004
-2.071812e-004,-5.285567e-004
-1.817370e-004,-5.249913e-004
-1.512687e-004,-4.804233e-004
-1.245279e-004,-3.770257e-004
-1.015147e-004,-2.052365e-004
-7.979791e-005,2.343770e-005
-6.067420e-005,2.749631e-004
-5.273300e-005,5.023408e-004
-6.310517e-005,6.700786e-004
-8.692878e-005,7.598628e-004
-1.139937e-004,7.883863e-004
-1.264727e-004,7.916276e-004
-1.107524e-004,8.008654e-004
-6.699475e-005,8.148030e-004
-9.623623e-006,8.019998e-004
4.126489e-005,7.255049e-004
7.140904e-005,5.676532e-004
7.140904e-005,3.339549e-004
3.737532e-005,5.828175e-005
-1.594417e-005,-2.070192e-004
-6.812920e-005,-4.060354e-004
-9.811128e-005,-5.115399e-004
-9.811128e-005,-5.332566e-004
-7.428769e-005,-5.058676e-004
-4.284701e-005,-4.745890e-004
-1.999580e-005,-4.653512e-004
-1.497178e-005,-4.656754e-004
-2.728874e-005,-4.484965e-004
-5.467778e-005,-4.049009e-004
-9.600444e-005,-3.591985e-004
-1.436516e-004,-3.496366e-004
-1.851404e-004,-4.083043e-004
-2.120432e-004,-5.540010e-004
-2.203085e-004,-7.855922e-004
-2.041020e-004,-1.072124e-003
-1.726613e-004,-1.352983e-003
-1.366828e-004,-1.572257e-003
-1.032974e-004,-1.698992e-003
-7.072225e-005,-1.721033e-003
-3.782299e-005,-1.640649e-003
-7.516774e-006,-1.479394e-003
1.776542e-005,-1.265630e-003
3.526847e-005,-1.011835e-003
4.239934e-005,-6.902979e-004
4.466826e-005,-2.640662e-004
4.904402e-005,2.671840e-004
5.925414e-005,8.533746e-004
6.995045e-005,1.418011e-003
7.076078e-005,1.895132e-003
5.730935e-005,2.244222e-003
2.959619e-005,2.438864e-003
-3.789272e-006,2.460419e-003
-2.874733e-005,2.300136e-003
-3.150244e-005,1.970169e-003
7.485573e-007,1.520436e-003
6.719535e-005,1.031160e-003
1.527658e-004,5.963388e-004
2.362295e-004,2.859836e-004
2.979764e-004,1.135460e-004
3.248792e-004,2.813760e-005
3.096451e-004,-4.884343e-005
2.517878e-004,-1.399241e-004
1.673517e-004,-1.969711e-004
8.064677e-005,-1.585616e-004
1.646890e-005,-2.339918e-005
-1.902341e-005,1.393144e-004
-3.701266e-005,2.302331e-004
-5.046408e-005,1.798307e-004
-6.650855e-005,-1.351319e-005
-9.049421e-005,-2.825416e-004
-1.269589e-004,-5.399013e-004
-1.760647e-004,-7.249799e-004
-2.297083e-004,-8.197880e-004
-2.744383e-004,-8.418289e-004
-2.977757e-004,-8.227052e-004
-2.878898e-004,-7.990437e-004
-2.410529e-004,-8.183295e-004
-1.666649e-004,-9.346923e-004
-8.498399e-005,-1.155425e-003
-1.643037e-005,-1.398685e-003
2.376183e-005,-1.532389e-003
3.235129e-005,-1.460756e-003
1.193106e-005,-1.175683e-003
-1.772689e-005,-7.512344e-004
-3.053005e-005,-3.049066e-004
-8.813297e-006,5.617490e-005
5.163707e-005,2.780424e-004
1.427178e-004,3.657197e-004
2.410915e-004,3.619922e-004
3.205035e-004,3.085106e-004
3.598854e-004,2.234263e-004
3.571303e-004,1.135460e-004
3.200173e-004,-1.756482e-005
2.634565e-004,-1.686097e-004
2.020337e-004,-3.356990e-004
1.462832e-004,-5.073262e-004
9.798775e-005,-6.599916e-004
4.904402e-005,-7.671168e-004
-5.409925e-006,-8.048780e-004
-6.229485e-005,-7.622549e-004
-1.133454e-004,-6.463782e-004
-1.618029e-004,-4.786406e-004
-2.109087e-004,-2.859450e-004
-2.637420e-004,-8.854943e-005
-3.168994e-004,1.085220e-004
-3.666535e-004,3.034866e-004
-4.089525e-004,4.960203e-004
-4.397449e-004,6.830437e-004
-4.540067e-004,8.541849e-004
-4.439586e-004,9.924268e-004
-4.057112e-004,1.079294e-003
-3.373197e-004,1.094366e-003
-2.425115e-004,1.030188e-003
-1.272830e-004,9.019942e-004
-4.275467e-006,7.394425e-004
1.039842e-004,5.666808e-004
1.822617e-004,4.029947e-004
2.240746e-004,2.689667e-004
2.303951e-004,1.770756e-004
2.141886e-004,1.257009e-004
1.937684e-004,1.104668e-004
1.856651e-004,1.370455e-004
1.942546e-004,2.052750e-004
2.137024e-004,2.994350e-004
2.334744e-004,3.888950e-004
2.493568e-004,4.337872e-004
2.626462e-004,3.910019e-004
2.709115e-004,2.289366e-004
2.746390e-004,-3.701266e-005
2.726942e-004,-3.403989e-004
2.637806e-004,-6.019723e-004
2.493568e-004,-7.734374e-004
2.386605e-004,-8.478253e-004
2.402811e-004,-8.428013e-004
2.603772e-004,-7.846198e-004
3.036487e-004,-6.969426e-004
3.655576e-004,-6.061860e-004
4.357320e-004,-5.426564e-004
4.978030e-004,-5.178604e-004
5.342677e-004,-5.165638e-004
5.321609e-004,-4.958195e-004
4.893756e-004,-3.966356e-004
4.185530e-004,-1.710407e-004
3.428685e-004,1.861513e-004
2.809595e-004,6.284277e-004
2.449810e-004,1.082535e-003
2.373639e-004,1.486565e-003
2.425500e-004,1.802431e-003
2.409294e-004,2.019275e-003
2.127300e-004,2.149414e-003
1.457970e-004,2.211485e-003
4.871989e-005,2.199654e-003
-4.511593e-005,2.113435e-003
-9.049421e-005,1.979893e-003
-7.056019e-005,1.834196e-003
-2.330684e-006,1.700167e-003
7.643307e-005,1.587045e-003
1.318594e-004,1.497585e-003
1.467694e-004,1.423845e-003
1.257009e-004,1.340382e-003
9.474644e-005,1.211053e-003
8.372601e-005,1.013819e-003
1.075496e-004,7.590525e-004
1.680000e-004,4.969927e-004
2.547049e-004,3.026763e-004
3.548613e-004,2.273159e-004
4.482110e-004,2.451431e-004
5.161164e-004,2.731804e-004
5.426951e-004,2.263435e-004
5.136854e-004,6.184718e-005
4.128807e-004,-2.018331e-004
2.401191e-004,-4.993849e-004
6.582909e-006,-7.601480e-004
-2.507768e-004,-9.471713e-004
-4.878783e-004,-1.063372e-003
-6.679329e-004,-1.133222e-003
-7.774890e-004,-1.184111e-003
-8.321049e-004,-1.235648e-003
-8.729455e-004,-1.304201e-003
-9.486300e-004,-1.409220e-003
-1.089465e-003,-1.553458e-003
-1.291236e-003,-1.712282e-003
-1.512455e-003,-1.830914e-003
-1.695913e-003,-1.852144e-003
-1.788453e-003,-1.754743e-003
-1.755715e-003,-1.568368e-003
-1.598350e-003,-1.359628e-003
-1.349741e-003,-1.197562e-003
-1.055431e-003,-1.116368e-003
-7.556102e-004,-1.111343e-003
-4.810716e-004,-1.138570e-003
-2.535319e-004,-1.137922e-003
-7.671866e-005,-1.046517e-003
6.184718e-005,-7.977472e-004
1.861513e-004,-3.141443e-004
3.133726e-004,4.216323e-004
4.435111e-004,1.265831e-003
5.545259e-004,1.997072e-003
6.162729e-004,2.439188e-003
6.063868e-004,2.525083e-003
5.211404e-004,2.310670e-003
3.850055e-004,1.925601e-003
2.532463e-004,1.501313e-003
1.825859e-004,1.124348e-003
1.924718e-004,8.232304e-004
2.637806e-004,5.699221e-004
3.581026e-004,2.830664e-004
4.336251e-004,-1.391138e-004
4.634451e-004,-7.612825e-004
4.386491e-004,-1.564478e-003
3.723644e-004,-2.461673e-003
2.921420e-004,-3.293232e-003
2.213195e-004,-3.870835e-003
1.770756e-004,-4.058184e-003
1.699448e-004,-3.827077e-003
1.996027e-004,-3.261791e-003
2.603772e-004,-2.520178e-003
3.378445e-004,-1.766087e-003
4.145014e-004,-1.112316e-003
4.768966e-004,-6.076446e-004
5.204921e-004,-2.502906e-004
5.457744e-004,-1.270286e-005
5.542018e-004,1.440143e-004
5.462606e-004,2.602152e-004
5.287575e-004,3.655576e-004
5.102821e-004,4.764104e-004
4.945617e-004,5.916389e-004
4.853240e-004,6.919574e-004
4.798138e-004,7.490044e-004
4.736553e-004,7.449528e-004
4.582590e-004,6.856368e-004
4.284390e-004,5.929354e-004
3.850055e-004,4.918066e-004
3.310377e-004,3.966742e-004
2.676702e-004,3.136967e-004
1.960373e-004,2.513016e-004
1.222976e-004,2.198609e-004
5.990240e-005,2.292607e-004
2.700314e-005,2.866318e-004
2.943412e-005,3.935950e-004
5.666109e-005,5.323229e-004
8.291568e-005,6.712130e-004
8.826383e-005,7.768797e-004
7.497447e-005,8.305234e-004
5.504044e-005,8.298751e-004
4.175109e-005,7.809313e-004
4.547859e-005,6.911471e-004
7.092284e-005,5.738117e-004
1.077117e-004,4.427008e-004
1.360731e-004,3.177483e-004
1.410971e-004,2.209954e-004
1.221355e-004,1.710792e-004
8.858796e-005,1.730240e-004
5.341979e-005,2.222919e-004
1.954813e-005,2.994350e-004
-2.048200e-005,3.760919e-004
-7.477388e-005,4.242253e-004
-1.336036e-004,4.282770e-004
-1.699062e-004,3.940812e-004
-1.640719e-004,3.462718e-004
-1.139937e-004,3.091589e-004
-4.138842e-005,2.970040e-004
2.424803e-005,3.078624e-004
5.471631e-005,3.321722e-004
3.705119e-005,3.585888e-004
-2.145439e-005,3.817642e-004
-8.773911e-005,4.038051e-004
-1.272830e-004,4.277907e-004
-1.256624e-004,4.524247e-004
-9.130454e-005,4.749518e-004
-4.689865e-005,4.858102e-004
-9.137427e-006,4.743035e-004
1.274139e-005,4.368664e-004
1.371378e-005,3.859779e-004
-8.813297e-006,3.422202e-004
-5.127441e-005,3.242310e-004
-1.023250e-004,3.323342e-004
-1.520790e-004,3.501615e-004
-1.914609e-004,3.639370e-004
-2.135018e-004,3.765781e-004
-2.165810e-004,4.086671e-004
-2.002124e-004,5.284334e-004
-1.815749e-004,8.368439e-004
-1.759026e-004,1.325634e-003
-1.895161e-004,1.860126e-003
-2.133397e-004,2.269181e-003
-2.323013e-004,2.433840e-003
-2.365151e-004,2.338059e-003
-2.214430e-004,2.061898e-003
-1.903264e-004,1.724801e-003
-1.541859e-004,1.422063e-003
-1.224211e-004,1.188040e-003
-1.034594e-004,9.817304e-004
-1.060525e-004,7.186982e-004
-1.350622e-004,3.274723e-004
-1.854645e-004,-2.045882e-004
-2.360289e-004,-8.254603e-004
-2.621213e-004,-1.440012e-003
-2.480217e-004,-1.921508e-003
-1.969711e-004,-2.152451e-003
-1.302002e-004,-2.090542e-003
-7.104638e-005,-1.815193e-003
-3.830919e-005,-1.485066e-003
-3.766092e-005,-1.238565e-003
-6.018800e-005,-1.119771e-003
-8.579432e-005,-1.076499e-003
-9.470791e-005,-1.028204e-003
-7.914964e-005,-9.241581e-004
-4.155049e-005,-7.580412e-004
8.527692e-006,-5.580526e-004
5.957827e-005,-3.617915e-004
1.049566e-004,-2.023193e-004
1.414213e-004,-9.697683e-005
1.639484e-004,-4.900550e-005
1.663793e-004,-4.916756e-005
1.427178e-004,-8.125649e-005
9.814982e-005,-1.324691e-004
4.936815e-005,-2.055606e-004
1.727922e-005,-3.144685e-004
1.630683e-005,-4.715097e-004
4.904402e-005,-6.703638e-004
1.010670e-004,-8.844521e-004
1.474177e-004,-1.067910e-003
1.615174e-004,-1.172604e-003
1.320215e-004,-1.184111e-003
6.395404e-005,-1.120743e-003
-1.724069e-005,-1.008270e-003
-8.838737e-005,-8.581975e-004
-1.397621e-004,-6.656639e-004
-1.630995e-004,-4.332623e-004
-1.556445e-004,-1.861127e-004
-1.178833e-004,4.693717e-005
-6.051213e-005,2.454672e-004
-2.654814e-006,3.997535e-004
4.207521e-005,5.242196e-004
7.221937e-005,6.647304e-004
9.231547e-005,8.671501e-004
1.072255e-004,1.120459e-003
1.197045e-004,1.351888e-003
1.291043e-004,1.460796e-003
1.344524e-004,1.382357e-003
1.359110e-004,1.139096e-003
1.351007e-004,8.417058e-004
1.310491e-004,6.282657e-004
1.197045e-004,5.490156e-004
1.018773e-004,5.548500e-004
8.826383e-005,5.655463e-004
8.453633e-005,5.279472e-004
8.680524e-005,4.261701e-004
8.469840e-005,2.608634e-004
7.578480e-005,3.056858e-005
6.557468e-005,-2.681178e-004
6.265751e-005,-6.146134e-004
7.140904e-005,-9.393922e-004
8.518459e-005,-1.146674e-003
9.199134e-005,-1.182004e-003
7.772959e-005,-1.076499e-003
3.073064e-005,-9.286959e-004
-5.532604e-005,-8.653284e-004
-1.765509e-004,-9.658089e-004
-3.170615e-004,-1.211338e-003
-4.436345e-004,-1.492035e-003
-5.261258e-004,-1.669983e-003
-5.538389e-004,-1.656855e-003
-5.340669e-004,-1.452491e-003
-4.805854e-004,-1.124795e-003
-4.002010e-004,-7.650100e-004
-2.956689e-004,-4.387725e-004
-1.771992e-004,-1.755785e-004
-6.164659e-005,2.295151e-005
3.802358e-005,1.628139e-004
1.145184e-004,2.543808e-004
1.710792e-004,3.068900e-004
2.179161e-004,3.295791e-004
2.605393e-004,3.448133e-004
2.934386e-004,3.793332e-004
3.051073e-004,4.537212e-004
2.908455e-004,5.668429e-004
2.608634e-004,7.023296e-004
2.278021e-004,8.287407e-004
1.973338e-004,9.198214e-004
1.678379e-004,9.720065e-004
1.412592e-004,1.002475e-003
1.252147e-004,1.028729e-003
1.291043e-004,1.058874e-003
1.597346e-004,1.087235e-003
2.171058e-004,1.097283e-003
2.953834e-004,1.072973e-003
3.734989e-004,1.016088e-003
4.253598e-004,9.417002e-004
4.367043e-004,8.713639e-004
4.088291e-004,8.164236e-004
3.540510e-004,7.768797e-004
2.877662e-004,7.475458e-004
2.166196e-004,7.209671e-004
1.372076e-004,6.883920e-004
4.191315e-005,6.425274e-004
-6.991193e-005,5.832114e-004
-1.818991e-004,5.170888e-004
-2.639041e-004,4.524247e-004
-2.969654e-004,3.916502e-004
-2.775176e-004,3.273102e-004
-2.241981e-004,2.470879e-004
-1.673132e-004,1.386662e-004
-1.334415e-004,-4.275467e-006
-1.308485e-004,-1.742820e-004
-1.536997e-004,-3.489884e-004
-1.909747e-004,-5.089468e-004
-2.280877e-004,-6.501057e-004
-2.494803e-004,-7.721409e-004
-2.423494e-004,-8.799143e-004
-2.019951e-004,-9.821774e-004
-1.326312e-004,-1.089627e-003
-4.803310e-005,-1.212796e-003
3.121684e-005,-1.346662e-003
8.923623e-005,-1.466753e-003
1.154908e-004,-1.535631e-003
1.143563e-004,-1.521369e-003
9.928428e-005,-1.410030e-003
8.826383e-005,-1.206152e-003
9.490851e-005,-9.353406e-004
1.200286e-004,-6.324406e-004
1.539003e-004,-3.282440e-004
1.824238e-004,-3.571614e-005
2.008992e-004,2.459534e-004
2.093267e-004,5.219508e-004
2.107852e-004,7.929241e-004
2.137024e-004,1.049474e-003
2.278021e-004,1.274097e-003
2.576221e-004,1.438593e-003
3.012177e-004,1.508282e-003
3.530786e-004,1.481054e-003
4.042913e-004,1.390622e-003
4.427008e-004,1.279445e-003
4.512903e-004,1.161785e-003
4.213082e-004,1.027757e-003
3.558337e-004,8.564538e-004
2.547049e-004,6.434998e-004
1.192183e-004,4.063981e-004
-3.360929e-005,1.712413e-004
-1.712027e-004,-4.576419e-005
-2.570974e-004,-2.473734e-004
-2.687660e-004,-4.502792e-004
-2.130156e-004,-6.747396e-004
-1.175591e-004,-9.340441e-004
-1.918548e-005,-1.221872e-003
5.163707e-005,-1.498031e-003
8.242948e-005,-1.698020e-003
7.189524e-005,-1.769005e-003
2.959619e-005,-1.694941e-003
-2.664048e-005,-1.490738e-003
-8.271508e-005,-1.184597e-003
-1.331174e-004,-8.047160e-004
-1.862748e-004,-3.773498e-004
-2.454286e-004,7.189524e-005
-2.958309e-004,5.141716e-004
-3.143064e-004,9.159319e-004
-2.904828e-004,1.239415e-003
-2.267911e-004,1.454962e-003
-1.410586e-004,1.573594e-003
-5.840528e-005,1.662082e-003
-1.520357e-006,1.784604e-003
1.679302e-005,1.945697e-003
-5.734056e-006,2.087181e-003
-5.791909e-005,2.121701e-003
-1.159385e-004,1.995775e-003
-1.530514e-004,1.729015e-003
-1.536997e-004,1.411853e-003
-1.135075e-004,1.152872e-003
-4.381940e-005,1.010902e-003
3.121684e-005,9.515863e-004
8.275361e-005,8.715259e-004
9.263960e-005,6.645683e-004
6.444023e-005,2.814457e-004
1.646890e-005,-2.509389e-004
-1.950961e-005,-8.486357e-004
-2.177852e-005,-1.409706e-003
1.144487e-005,-1.835614e-003
6.281957e-005,-2.057805e-003
1.072255e-004,-2.052943e-003
1.286181e-004,-1.858303e-003
1.229458e-004,-1.562371e-003
1.004187e-004,-1.265306e-003
8.210535e-005,-1.031445e-003
9.085688e-005,-8.661387e-004
1.407730e-004,-7.290315e-004
2.209954e-004,-5.768522e-004
3.067279e-004,-3.938804e-004
3.767402e-004,-1.985918e-004
4.245494e-004,-2.680255e-005
4.545315e-004,9.377406e-005
4.697657e-004,1.581140e-004
4.668485e-004,1.741585e-004
4.443214e-004,1.530900e-004
3.997535e-004,1.085220e-004
3.346032e-004,5.957827e-005
2.590807e-004,2.262738e-005
1.932822e-004,6.420843e-006
1.508211e-004,3.827799e-006
1.433661e-004,4.962256e-006
1.697827e-004,5.448452e-006
2.141886e-004,3.017472e-006
2.517878e-004,7.485573e-007
2.538946e-004,-3.858999e-007
2.017096e-004,-7.100305e-007
9.458438e-005,-1.520357e-006
-4.738484e-005,-1.221667e-005
-2.036158e-004,-5.127441e-005
-3.595226e-004,-1.349001e-004
-4.966299e-004,-2.606628e-004
-5.987309e-004,-4.185144e-004
-6.577228e-004,-6.115342e-004
-6.836532e-004,-8.688938e-004
-6.961322e-004,-1.217334e-003
-7.157421e-004,-1.640001e-003
-7.591756e-004,-2.074498e-003
-8.321049e-004,-2.419698e-003
-9.160548e-004,-2.572363e-003
-9.786120e-004,-2.474962e-003
-9.922255e-004,-2.145645e-003
-9.523575e-004,-1.660421e-003
-8.810487e-004,-1.115719e-003
-8.082814e-004,-5.813900e-004
-7.470207e-004,-8.547019e-005
-6.870566e-004,3.649094e-004
-6.016482e-004,7.716935e-004
-4.694029e-004,1.144930e-003
-2.856209e-004,1.497909e-003
-6.829127e-005,1.846189e-003
1.480659e-004,2.197548e-003
3.263378e-004,2.579375e-003
4.423766e-004,3.034782e-003
4.892136e-004,3.521306e-003
4.730070e-004,3.908322e-003
4.036430e-004,4.055155e-003
2.983005e-004,3.897787e-003
1.752929e-004,3.484517e-003
6.751948e-005,2.932680e-003
9.662150e-006,2.351348e-003
2.165498e-005,1.815396e-003
9.118101e-005,1.359181e-003
1.832341e-004,9.695755e-004
2.618358e-004,5.932595e-004
3.055935e-004,1.539003e-004
3.156415e-004,-4.074939e-004
3.055935e-004,-1.092706e-003
2.986247e-004,-1.817948e-003
3.146691e-004,-2.432176e-003
3.644232e-004,-2.787262e-003
4.469145e-004,-2.823565e-003
5.448020e-004,-2.609314e-003
6.389620e-004,-2.299445e-003
7.117294e-004,-2.034954e-003
7.472217e-004,-1.867216e-003
7.436562e-004,-1.750853e-003
7.114052e-004,-1.600619e-003
6.705648e-004,-1.359466e-003
6.341000e-004,-1.024801e-003
6.012007e-004,-6.476747e-004
5.614947e-004,-3.133340e-004
5.096338e-004,-9.859748e-005
4.456179e-004,-3.296103e-005
3.854917e-004,-9.422172e-005
3.470822e-004,-2.203085e-004
3.342791e-004,-3.344025e-004
3.342791e-004,-3.825359e-004
3.310377e-004,-3.567675e-004
3.114278e-004,-2.857829e-004
2.692908e-004,-2.057227e-004
2.109473e-004,-1.421931e-004
1.480659e-004,-1.049180e-004
9.037068e-005,-9.405965e-005
3.494434e-005,-9.956988e-005
-3.053005e-005,-1.045939e-004
-1.120489e-004,-9.049421e-005
-2.036158e-004,-4.122636e-005
-2.833519e-004,4.774750e-005
-3.241924e-004,1.649207e-004
-3.097686e-004,2.884145e-004
-2.499665e-004,3.880847e-004
-1.742820e-004,4.365423e-004
-1.067007e-004,4.282770e-004
-5.889148e-005,3.722023e-004
-2.858527e-005,2.809595e-004
-9.137427e-006,1.624898e-004
-5.479652e-007,3.218923e-005
-1.075808e-005,-6.391550e-005
-4.965376e-005,-6.748094e-005
-1.058904e-004,6.055066e-005
-1.475412e-004,3.018659e-004
-1.494860e-004,5.772150e-004
-1.136696e-004,7.995688e-004
-6.586029e-005,9.190111e-004
-3.377136e-005,9.447795e-004
-3.166451e-005,9.086389e-004
-4.932962e-005,8.366818e-004
-6.294311e-005,7.464114e-004
-5.791909e-005,6.460929e-004
-3.685060e-005,5.358884e-004
-1.448558e-005,4.010500e-004
4.244267e-007,2.195368e-004
1.014835e-005,-2.210265e-005
1.322759e-005,-3.282440e-004
6.582909e-006,-6.804119e-004
-1.335113e-005,-1.018804e-003
-5.095028e-005,-1.270168e-003
-1.024871e-004,-1.381992e-003
-1.655305e-004,-1.332401e-003
-2.371633e-004,-1.126578e-003
-3.071755e-004,-7.927231e-004
-3.530400e-004,-3.823738e-004
-3.635742e-004,2.392390e-005
-3.344025e-004,3.568061e-004
-2.723315e-004,5.838597e-004
-1.891920e-004,7.149707e-004
-1.015147e-004,7.788245e-004
-2.469570e-005,8.054032e-004
2.343770e-005,8.180443e-004
3.510641e-005,8.233925e-004
1.403791e-005,8.242028e-004
-2.599222e-005,8.151271e-004
-6.553616e-005,8.123720e-004
-9.486997e-005,8.749293e-004
-1.083214e-004,1.046881e-003
-1.042698e-004,1.299217e-003
-8.060823e-005,1.556091e-003
-3.863332e-005,1.737605e-003
1.549650e-005,1.793841e-003
6.735741e-005,1.712322e-003
1.028497e-004,1.513792e-003
1.180839e-004,1.227746e-003
1.125736e-004,8.801154e-004
8.696731e-005,4.995857e-004
4.661304e-005,1.211631e-004
1.002961e-007,-2.203085e-004
-4.041603e-005,-5.159156e-004
-6.926366e-005,-7.789475e-004
-8.676672e-005,-1.032418e-003
-1.028112e-004,-1.297719e-003
-1.256624e-004,-1.562371e-003
-1.583996e-004,-1.774029e-003
-1.964849e-004,-1.854089e-003
-2.225774e-004,-1.745343e-003
-2.075054e-004,-1.447953e-003
-1.378173e-004,-1.017832e-003
-2.550602e-005,-5.433047e-004
9.993253e-005,-1.092938e-004
2.054371e-004,2.425500e-004
2.736666e-004,5.109303e-004
3.028383e-004,7.174017e-004
2.961937e-004,8.767120e-004
2.582704e-004,9.747617e-004
1.978200e-004,9.765443e-004
1.273216e-004,8.525642e-004
6.217132e-005,6.169211e-004
1.987227e-005,3.336308e-004
6.744974e-006,7.627100e-005
1.727922e-005,-1.007043e-004
3.607880e-005,-1.830335e-004
4.402000e-005,-1.843300e-004
3.235129e-005,-1.361966e-004
5.448452e-006,-7.412562e-005
-1.999580e-005,-1.902341e-005
-3.231277e-005,1.841368e-005
-2.647842e-005,3.640293e-005
-2.978945e-006,3.883391e-005
3.218923e-005,2.797553e-005
6.897806e-005,5.448452e-006
9.150514e-005,-3.134038e-005
8.599492e-005,-8.141856e-005
5.439218e-005,-1.379794e-004
1.047248e-005,-1.875713e-004
-2.372331e-005,-2.154466e-004
-3.717473e-005,-2.151224e-004
-2.566809e-005,-1.917850e-004
3.017472e-006,-1.600202e-004
3.996837e-005,-1.370070e-004
7.432621e-005,-1.326312e-004
9.101894e-005,-1.452723e-004
8.178122e-005,-1.656925e-004
5.115087e-005,-1.869231e-004
1.079661e-005,-1.997262e-004
-2.971972e-005,-2.011848e-004
-6.148453e-005,-1.940539e-004
-7.898758e-005,-1.885437e-004
-7.688073e-005,-1.938919e-004
-5.467778e-005,-2.167431e-004
-2.339918e-005,-2.558008e-004
3.179537e-006,-3.015032e-004
1.484824e-005,-3.449367e-004
1.209313e-005,-3.812394e-004
1.720949e-006,-4.112214e-004
-7.192643e-006,-4.475241e-004
-7.678839e-006,-4.924161e-004
-1.682422e-006,-5.228845e-004
1.883015e-006,-5.115399e-004
-4.275467e-006,-4.436345e-004
-1.983374e-005,-3.282440e-004
-4.009191e-005,-1.930815e-004
-5.500191e-005,-6.634648e-005
-5.532604e-005,3.721326e-005
-3.830919e-005,1.216493e-004
-9.299493e-006,1.997648e-004
2.684107e-005,2.840388e-004
6.638502e-005,3.751195e-004
1.025256e-004,4.621486e-004
1.334801e-004,5.232473e-004
1.548727e-004,5.488536e-004
1.623277e-004,5.576051e-004
1.540623e-004,5.885597e-004
1.308870e-004,6.705648e-004
9.685330e-005,8.058894e-004
5.212327e-005,9.710342e-004
3.341602e-006,1.123700e-003
-4.009191e-005,1.218508e-003
-6.991193e-005,1.223046e-003
-8.271508e-005,1.133262e-003
-7.995997e-005,9.757340e-004
-6.488790e-005,7.938966e-004
-4.527799e-005,6.242140e-004
-2.680255e-005,4.828930e-004
-7.354709e-006,3.718782e-004
1.727922e-005,2.845250e-004
4.466826e-005,2.114335e-004
6.606088e-005,1.467694e-004
7.189524e-005,8.453633e-005
6.071273e-005,1.711715e-005
3.980630e-005,-5.597430e-005
2.116879e-005,-1.264727e-004
1.387585e-005,-1.833576e-004
1.987227e-005,-2.271153e-004
2.927205e-005,-2.707109e-004
3.559260e-005,-3.256510e-004
3.721326e-005,-3.958252e-004
3.494434e-005,-4.766958e-004
3.332369e-005,-5.658317e-004
3.267542e-005,-6.541573e-004
2.959619e-005,-7.306521e-004
2.910999e-005,-7.872129e-004
3.624086e-005,-8.304843e-004
5.163707e-005,-8.721352e-004
6.589881e-005,-9.194582e-004
7.011252e-005,-9.627296e-004
6.217132e-005,-9.521954e-004
5.163707e-005,-8.440978e-004
4.758544e-005,-6.436231e-004
5.260946e-005,-3.930701e-004
6.670914e-005,-1.423551e-004
8.729144e-005,6.670914e-005
1.088461e-004,2.083542e-004
1.229458e-004,2.770700e-004
1.240803e-004,2.752873e-004
1.140322e-004,2.012234e-004
1.005808e-004,4.709924e-005
9.977047e-005,-1.788198e-004
1.213252e-004,-4.452552e-004
1.602208e-004,-7.230351e-004
2.018716e-004,-9.966013e-004
2.247229e-004,-1.265630e-003
2.140265e-004,-1.529148e-003
1.684862e-004,-1.751340e-003
1.054428e-004,-1.868351e-003
5.390598e-005,-1.834965e-003
3.478228e-005,-1.664473e-003
4.645098e-005,-1.424454e-003
7.578480e-005,-1.177790e-003
1.091703e-004,-9.423094e-004
1.401247e-004,-6.948357e-004
1.667035e-004,-4.094387e-004
1.866375e-004,-8.660465e-005
2.013854e-004,2.594049e-004
2.151610e-004,6.120591e-004
2.346088e-004,9.507760e-004
2.595669e-004,1.241359e-003
2.824181e-004,1.438431e-003
2.974902e-004,1.509902e-003
3.000832e-004,1.462579e-003
2.835526e-004,1.335195e-003
2.425500e-004,1.172157e-003
1.746447e-004,1.010254e-003
8.291568e-005,8.804395e-004
-1.594417e-005,8.096169e-004
-8.741498e-005,8.112376e-004
-9.600444e-005,8.806016e-004
-3.360929e-005,9.933992e-004
7.319176e-005,1.113004e-003
1.650828e-004,1.205705e-003
1.756171e-004,1.250273e-003
6.217132e-005,1.232446e-003
-1.624512e-004,1.142824e-003
-4.314796e-004,9.888613e-004
-6.608020e-004,7.989206e-004
-7.873750e-004,6.059006e-004
-7.969369e-004,4.350837e-004
-7.256281e-004,3.064038e-004
-6.382749e-004,2.278021e-004
-5.737729e-004,1.897167e-004
-5.368221e-004,1.668655e-004
-5.070020e-004,1.391524e-004
-4.569239e-004,1.041462e-004
-3.763774e-004,8.453633e-005
-2.831898e-004,1.127357e-004
-2.055606e-004,1.984683e-004
-1.655305e-004,3.311998e-004
-1.700683e-004,4.861343e-004
-2.194982e-004,6.311828e-004
-3.258130e-004,7.365254e-004
-4.935506e-004,7.844968e-004
-7.058561e-004,7.718556e-004
-9.233478e-004,6.984400e-004
-1.096271e-003,5.606844e-004
-1.179249e-003,3.621543e-004
-1.144081e-003,1.171115e-004
-9.901187e-004,-1.421931e-004
-7.488034e-004,-3.768636e-004
-4.659995e-004,-5.619422e-004
-1.810887e-004,-6.928909e-004
7.659513e-005,-7.825130e-004
2.845250e-004,-8.444220e-004
4.292493e-004,-8.899623e-004
5.135234e-004,-9.196203e-004
5.546879e-004,-9.364750e-004
5.717048e-004,-9.442542e-004
5.744600e-004,-9.500885e-004
5.668429e-004,-9.585159e-004
5.504743e-004,-9.640261e-004
5.316747e-004,-9.366371e-004
5.183853e-004,-8.423151e-004
5.154681e-004,-6.776568e-004
5.166026e-004,-4.809095e-004
5.157923e-004,-3.024756e-004
5.091476e-004,-1.742820e-004
4.987754e-004,-1.045939e-004
4.859722e-004,-8.384954e-005
4.713863e-004,-9.000802e-005
4.538833e-004,-1.003802e-004
4.365423e-004,-9.324933e-005
4.136911e-004,-5.127441e-005
3.830607e-004,5.115087e-005
3.517821e-004,2.516257e-004
3.337929e-004,5.841838e-004
3.418961e-004,1.012847e-003
3.726885e-004,1.420442e-003
4.125566e-004,1.670023e-003
4.443214e-004,1.686392e-003
4.572867e-004,1.493372e-003
4.524247e-004,1.192902e-003
4.394595e-004,9.147974e-004
4.250357e-004,7.483562e-004
4.112601e-004,7.028158e-004
3.973225e-004,7.167534e-004
3.775505e-004,6.780197e-004
3.503235e-004,4.561522e-004
3.218000e-004,-3.782299e-005
2.991108e-004,-7.860785e-004
2.820940e-004,-1.676627e-003
2.642668e-004,-2.563450e-003
2.422259e-004,-3.251257e-003
2.151610e-004,-3.560641e-003
1.903650e-004,-3.425315e-003
1.762653e-004,-2.919508e-003
1.804790e-004,-2.217278e-003
2.041406e-004,-1.518128e-003
2.388225e-004,-9.674295e-004
2.739907e-004,-5.969483e-004
2.991108e-004,-3.175477e-004
3.041349e-004,-6.058186e-006
2.859836e-004,3.997535e-004
2.524360e-004,8.679605e-004
2.162954e-004,1.303431e-003
1.832341e-004,1.605359e-003
1.508211e-004,1.702274e-003
1.227837e-004,1.577484e-003
9.831188e-005,1.277338e-003
7.448828e-005,9.058838e-004
4.499239e-005,5.681394e-004
9.824215e-006,3.264999e-004
-3.279896e-005,1.916615e-004
-8.887356e-005,1.291043e-004
-1.637477e-004,8.259155e-005
-2.562870e-004,9.175954e-006
-3.634122e-004,-1.021629e-004
-4.718339e-004,-2.321393e-004
-5.565940e-004,-3.352128e-004
-5.935449e-004,-3.669776e-004
-5.838210e-004,-3.113892e-004
-5.428185e-004,-1.844921e-004
-4.906334e-004,-2.485776e-005
-4.403932e-004,1.187321e-004
-3.943667e-004,2.090025e-004
-3.507711e-004,2.373639e-004
-3.066893e-004,2.362295e-004
-2.619593e-004,2.503292e-004
-2.165810e-004,2.864697e-004
-1.728234e-004,3.052694e-004
-1.383035e-004,2.571359e-004
-1.178833e-004,1.200286e-004
-1.050801e-004,-1.003802e-004
-9.179074e-005,-3.919357e-004
-7.801519e-005,-7.199558e-004
-7.590833e-005,-1.007946e-003
-9.373552e-005,-1.160935e-003
-1.310105e-004,-1.108913e-003
-1.742820e-004,-8.616009e-004
-2.063709e-004,-5.082985e-004
-2.175534e-004,-1.635857e-004
-2.117191e-004,8.242948e-005
-1.972953e-004,1.919856e-004
-1.867610e-004,1.816135e-004
-1.888679e-004,1.128978e-004
-2.005366e-004,5.504044e-005
-2.128535e-004,4.871989e-005
-2.151224e-004,9.896015e-005
-1.992400e-004,1.953890e-004
-1.618029e-004,3.253654e-004
-1.060525e-004,4.577728e-004
-3.814712e-005,5.459364e-004
3.364782e-005,5.477191e-004
9.944634e-005,4.595556e-004
1.495245e-004,3.321722e-004
1.757791e-004,2.443328e-004
1.791825e-004,2.582704e-004
1.697827e-004,3.773884e-004
1.597346e-004,5.433434e-004
1.569795e-004,6.785059e-004
1.649207e-004,7.287462e-004
1.762653e-004,6.780197e-004
1.838824e-004,5.368608e-004
1.790204e-004,3.903536e-004
1.553589e-004,4.025085e-004
1.083599e-004,6.527375e-004
4.061663e-005,1.081077e-003
-3.117831e-005,1.553336e-003
-8.692878e-005,1.952180e-003
-1.102662e-004,2.230285e-003
-9.665270e-005,2.398347e-003
-5.321920e-005,2.480839e-003
3.503668e-006,2.490077e-003
5.876794e-005,2.431409e-003
9.555677e-005,2.307590e-003
1.022015e-004,2.098201e-003
7.627100e-005,1.759970e-003
2.700314e-005,1.246221e-003
-3.117831e-005,5.448020e-004
-8.368748e-005,-2.705488e-004
-1.175591e-004,-1.012160e-003
-1.261486e-004,-1.475018e-003
-1.094559e-004,-1.552485e-003
-7.428769e-005,-1.304687e-003
-3.004385e-005,-9.124894e-004
1.306552e-005,-5.567560e-004
5.098881e-005,-3.261372e-004
7.675720e-005,-2.136638e-004
8.810177e-005,-1.721751e-004
8.469840e-005,-1.629374e-004
6.654708e-005,-1.737958e-004
3.769945e-005,-2.075054e-004
1.095867e-005,-2.634179e-004
3.827799e-006,-3.308371e-004
2.295151e-005,-4.029561e-004
6.703327e-005,-4.789647e-004
1.308870e-004,-5.595111e-004
1.986303e-004,-6.381128e-004
2.483844e-004,-7.056941e-004
2.660495e-004,-7.635514e-004
2.493568e-004,-8.269189e-004
2.062474e-004,-9.303166e-004
1.496866e-004,-1.116205e-003
9.296373e-005,-1.380048e-003
4.612685e-005,-1.662042e-003
1.776542e-005,-1.893309e-003
1.387585e-005,-2.021989e-003
2.943412e-005,-2.021827e-003
5.196120e-005,-1.889905e-003
6.914012e-005,-1.644863e-003
7.740546e-005,-1.317166e-003
7.627100e-005,-9.461989e-004
5.504044e-005,-5.711799e-004
9.986281e-006,-2.065330e-004
-4.949169e-005,1.470936e-004
-9.924574e-005,4.835413e-004
-1.159385e-004,7.676419e-004
-8.611845e-005,9.358659e-004
-1.724069e-005,9.361901e-004
6.395404e-005,7.642386e-004
1.227837e-004,4.658761e-004
1.360731e-004,1.166253e-004
1.059290e-004,-2.088019e-004
5.471631e-005,-4.606514e-004
8.527692e-006,-6.186650e-004
-1.983374e-005,-6.831670e-004
-3.377136e-005,-6.744154e-004
-3.587821e-005,-6.283889e-004
-3.198864e-005,-5.625904e-004
-3.036798e-005,-4.559515e-004
-3.928157e-005,-2.972895e-004
-6.861539e-005,-9.584238e-005
-1.302002e-004,1.195424e-004
-2.253326e-004,3.052694e-004
-3.301888e-004,4.229288e-004
-4.112214e-004,4.673347e-004
-4.507654e-004,4.514523e-004
-4.358554e-004,3.843572e-004
-3.613053e-004,2.731804e-004
-2.405667e-004,1.375317e-004
-1.000561e-004,1.306552e-005
2.927205e-005,-6.456377e-005
1.192183e-004,-6.845333e-005
1.539003e-004,-2.978945e-006
1.381800e-004,9.717743e-005
8.194328e-005,1.908512e-004
-8.651231e-006,2.608634e-004
-1.151281e-004,3.093210e-004
-2.045882e-004,3.474063e-004
-2.420253e-004,3.932708e-004
-2.083157e-004,4.790034e-004
-1.123730e-004,6.313449e-004
1.209313e-005,8.488368e-004
1.307250e-004,1.099228e-003
2.276400e-004,1.320772e-003
3.046211e-004,1.427087e-003
3.681507e-004,1.348809e-003
4.268184e-004,1.078159e-003
4.799758e-004,6.856368e-004
5.237334e-004,2.851732e-004
5.530673e-004,-1.788895e-005
5.627912e-004,-1.749302e-004
5.402642e-004,-1.981056e-004
4.718725e-004,-1.381414e-004
3.491891e-004,-4.689865e-005
1.801549e-004,3.899597e-005
-1.520357e-006,1.064152e-004
-1.528894e-004,1.576278e-004
-2.485079e-004,1.965235e-004
-2.828657e-004,2.271538e-004
-2.664971e-004,2.534084e-004
-2.185258e-004,2.696149e-004
-1.593720e-004,2.637806e-004
-1.101041e-004,2.180782e-004
-7.688073e-005,1.253768e-004
-6.067420e-005,6.096713e-006
-6.083626e-005,-1.007043e-004
-7.412562e-005,-1.614788e-004
-1.005423e-004,-1.677994e-004
-1.501342e-004,-1.357104e-004
-2.227395e-004,-9.697683e-005
-2.938862e-004,-8.239095e-005
-3.251648e-004,-1.013526e-004
-2.961551e-004,-1.493239e-004
-2.143121e-004,-2.128535e-004
-1.042698e-004,-2.713591e-004
8.365628e-006,-3.063652e-004
1.051186e-004,-3.162512e-004
1.803169e-004,-3.147926e-004
2.386605e-004,-3.219235e-004
2.879283e-004,-3.489884e-004
3.269861e-004,-4.000390e-004
3.529166e-004,-4.645409e-004
3.660439e-004,-5.324463e-004
3.730126e-004,-6.000275e-004
3.772264e-004,-6.671225e-004
3.744712e-004,-7.329211e-004
3.663680e-004,-7.990437e-004
3.640991e-004,-8.735937e-004
3.892192e-004,-9.531678e-004
4.543695e-004,-1.016859e-003
5.529052e-004,-1.040521e-003
6.590580e-004,-1.001139e-003
7.379840e-004,-8.945001e-004
7.671557e-004,-7.309763e-004
7.451148e-004,-5.269361e-004
6.856368e-004,-2.966413e-004
6.052523e-004,-5.386745e-005
5.177371e-004,1.738343e-004
4.284390e-004,3.496752e-004
3.323342e-004,4.580970e-004
2.218057e-004,5.080132e-004
9.393612e-005,5.119027e-004
-4.349527e-005,4.791655e-004
-1.759026e-004,4.222805e-004
-2.909690e-004,3.540510e-004
-3.929081e-004,2.804733e-004
-4.992229e-004,2.135403e-004
-6.398956e-004,1.654069e-004
-8.402083e-004,1.472556e-004
-1.101133e-003,1.741585e-004
-1.385234e-003,2.551911e-004
-1.630601e-003,3.893813e-004
-1.781808e-003,5.624671e-004
-1.799797e-003,7.579181e-004
-1.671603e-003,9.655239e-004
-1.416999e-003,1.174588e-003
-1.095623e-003,1.374091e-003
-7.831613e-004,1.544098e-003
-5.368221e-004,1.652358e-003
-3.747568e-004,1.667592e-003
-2.814071e-004,1.577322e-003
-2.279256e-004,1.394673e-003
-1.820611e-004,1.158706e-003
-1.169109e-004,9.188490e-004
-2.275091e-005,7.154569e-004
9.474644e-005,5.676532e-004
2.148369e-004,4.678209e-004
3.133726e-004,3.969983e-004
3.781987e-004,3.294171e-004
4.169324e-004,2.474120e-004
4.452938e-004,1.428799e-004
4.744656e-004,6.744974e-006
5.018546e-004,-1.595340e-004
5.217887e-004,-3.429920e-004
5.350781e-004,-5.356876e-004
5.472330e-004,-7.300039e-004
5.718669e-004,-8.883416e-004
6.182176e-004,-9.615952e-004
6.854748e-004,-9.393922e-004
7.593766e-004,-8.622491e-004
8.149651e-004,-7.851060e-004
8.363577e-004,-7.332452e-004
8.186926e-004,-6.979149e-004
7.695867e-004,-6.575607e-004
6.989262e-004,-5.963000e-004
6.110868e-004,-5.125122e-004
5.130371e-004,-4.191627e-004
4.166082e-004,-3.342404e-004
3.331446e-004,-2.752487e-004
2.726942e-004,-2.538560e-004
2.441707e-004,-2.877277e-004
2.491947e-004,-3.989045e-004
2.759355e-004,-5.791211e-004
3.007315e-004,-7.575550e-004
3.067279e-004,-8.189777e-004
2.854973e-004,-6.697156e-004
2.250470e-004,-3.040963e-004
1.222976e-004,1.931201e-004
-2.113026e-005,6.879058e-004
-1.919471e-004,1.066653e-003
-3.593606e-004,1.276366e-003
-4.893369e-004,1.333089e-003
-5.588629e-004,1.298407e-003
-5.629146e-004,1.248815e-003
-5.092709e-004,1.226612e-003
-4.120317e-004,1.211864e-003
-2.882139e-004,1.151575e-003
-1.580754e-004,9.972887e-004
-4.155049e-005,7.214533e-004
4.693717e-005,3.286068e-004
9.798775e-005,-1.524032e-004
1.088461e-004,-6.674466e-004
8.486046e-005,-1.152184e-003
4.693717e-005,-1.543572e-003
1.987227e-005,-1.778404e-003
1.371378e-005,-1.810818e-003
2.100672e-005,-1.651831e-003
3.170304e-005,-1.375996e-003
4.596478e-005,-1.070503e-003
6.395404e-005,-7.962886e-004
8.437427e-005,-5.750695e-004
1.088461e-004,-3.989045e-004
1.344524e-004,-2.541802e-004
1.521176e-004,-1.323071e-004
1.543865e-004,-3.004385e-005
1.498487e-004,5.957827e-005
1.506590e-004,1.501728e-004
1.647587e-004,2.571359e-004
1.937684e-004,3.916502e-004
2.318537e-004,5.522569e-004
2.704253e-004,7.075156e-004
2.989488e-004,8.092928e-004
3.104554e-004,8.164236e-004
3.005694e-004,7.127018e-004
2.662116e-004,5.164405e-004
2.047888e-004,2.691288e-004
1.208390e-004,2.084466e-005
2.975825e-005,-1.865989e-004
-4.608832e-005,-3.149546e-004
-9.130454e-005,-3.426678e-004
-9.632857e-005,-2.752487e-004
-6.845333e-005,-1.439758e-004
-1.983374e-005,9.338019e-006
2.781346e-005,1.553589e-004
4.418206e-005,2.738286e-004
1.234753e-006,3.509718e-004
-1.083214e-004,3.760919e-004
-2.642282e-004,3.451374e-004
-4.233763e-004,2.658874e-004
-5.470322e-004,1.556830e-004
-6.236890e-004,3.154097e-005
-6.612882e-004,-9.989401e-005
-6.719845e-004,-2.357047e-004
-6.548056e-004,-3.626019e-004
-5.959758e-004,-4.392588e-004
-4.870680e-004,-4.096008e-004
-3.326198e-004,-2.676316e-004
-1.491618e-004,-8.303922e-005
3.559260e-005,5.568870e-005
1.825859e-004,1.022015e-004
2.592428e-004,6.508849e-005
2.564877e-004,-4.761664e-006
1.932822e-004,-2.874733e-005
1.017153e-004,4.612685e-005
1.257933e-005,2.111094e-004
-5.678463e-005,4.149876e-004
-9.503204e-005,6.093040e-004
-1.018388e-004,7.553250e-004
-8.935975e-005,8.235546e-004
-6.731888e-005,8.005413e-004
-3.587821e-005,6.845024e-004
9.986281e-006,4.718725e-004
6.881599e-005,1.736723e-004
1.248906e-004,-1.489998e-004
1.545486e-004,-3.922598e-004
1.359110e-004,-4.609755e-004
6.865393e-005,-3.348887e-004
-2.923353e-005,-7.833932e-005
-1.266348e-004,1.978200e-004
-1.869231e-004,3.897054e-004
-1.943781e-004,4.360561e-004
-1.561307e-004,3.297412e-004
-9.243900e-005,1.205148e-004
-2.372331e-005,-1.135075e-004
3.364782e-005,-3.063652e-004
7.319176e-005,-4.316416e-004
9.247754e-005,-4.963057e-004
8.923623e-005,-5.204534e-004
6.881599e-005,-5.211017e-004
4.369587e-005,-5.198052e-004
3.073064e-005,-5.431426e-004
3.899597e-005,-6.139652e-004
6.525056e-005,-7.345417e-004
9.571884e-005,-8.734317e-004
1.151667e-004,-9.716432e-004
1.164632e-004,-9.812050e-004
1.033359e-004,-8.956346e-004
8.421220e-005,-7.454000e-004
7.092284e-005,-5.719902e-004
6.768154e-005,-4.118697e-004
7.124698e-005,-3.084721e-004
7.238143e-005,-2.972895e-004
5.974033e-005,-3.674638e-004
3.089271e-005,-4.783165e-004
-3.951337e-006,-5.864140e-004
-3.830919e-005,-6.561021e-004
-6.829127e-005,-6.664743e-004
-8.773911e-005,-6.133168e-004
-8.919769e-005,-5.058676e-004
-7.461182e-005,-3.611433e-004
-5.516398e-005,-1.922712e-004
-4.122636e-005,-7.516774e-006
-3.490581e-005,1.949028e-004
-3.069211e-005,4.206599e-004
-1.999580e-005,6.686199e-004
4.313994e-006,9.138250e-004
4.110282e-005,1.112841e-003
8.648112e-005,1.223694e-003
1.406109e-004,1.235201e-003
1.970097e-004,1.164702e-003
2.451431e-004,1.035860e-003
2.735045e-004,8.799533e-004
2.767458e-004,7.339324e-004
2.654013e-004,6.399344e-004
2.634565e-004,6.237278e-004
2.885766e-004,6.877437e-004
3.469201e-004,8.162616e-004
4.273046e-004,9.985853e-004
5.070407e-004,1.229853e-003
5.681394e-004,1.499044e-003
6.015248e-004,1.779255e-003
6.029835e-004,2.015223e-003
5.734875e-004,2.104198e-003
5.169268e-004,1.961742e-003
4.326527e-004,1.605035e-003
3.242310e-004,1.180261e-003
1.992786e-004,8.921082e-004
7.238143e-005,8.979426e-004
-3.944364e-005,1.191930e-003
-1.245279e-004,1.626265e-003
-1.807646e-004,2.020572e-003
-2.180396e-004,2.248598e-003
-2.522354e-004,2.278743e-003
-3.013411e-004,2.150872e-003
-3.823738e-004,1.922036e-003
-5.037607e-004,1.628372e-003
-6.667984e-004,1.277176e-003
-8.594940e-004,8.502954e-004
-1.053486e-003,3.070520e-004
-1.210527e-003,-4.065215e-004
-1.292370e-003,-1.306470e-003
-1.279243e-003,-2.340285e-003
-1.186380e-003,-3.404571e-003
-1.046841e-003,-4.329321e-003
-8.888278e-004,-4.915840e-003
-7.197938e-004,-4.968512e-003
-5.332566e-004,-4.670957e-003
-3.269475e-004,-3.943765e-003
-1.172350e-004,-3.023392e-003
6.525056e-005,-2.029444e-003
1.949028e-004,-9.588401e-004
2.632944e-004,1.871237e-004
2.835526e-004,1.272638e-003
2.722080e-004,2.124618e-003
2.464396e-004,2.613247e-003
2.154851e-004,2.706921e-003
1.827479e-004,2.475167e-003
1.542244e-004,2.055740e-003
1.417454e-004,1.591907e-003
1.509831e-004,1.179612e-003
1.743205e-004,8.219338e-004
1.971717e-004,4.289252e-004
2.106232e-004,-1.063766e-004
2.111094e-004,-8.214086e-004
2.068957e-004,-1.658152e-003
2.080301e-004,-2.494896e-003
2.196988e-004,-3.176544e-003
2.425500e-004,-3.555940e-003
2.764217e-004,-3.557561e-003
3.179104e-004,-3.231485e-003
3.576164e-004,-2.726650e-003
3.804677e-004,-2.194102e-003
3.781987e-004,-1.724599e-003
3.572923e-004,-1.343421e-003
3.339549e-004,-1.037604e-003
3.182346e-004,-7.917507e-004
3.114278e-004,-5.958138e-004
3.102934e-004,-4.369898e-004
3.148312e-004,-3.037722e-004
3.286068e-004,-1.934057e-004
3.559958e-004,-1.084835e-004
3.944053e-004,-4.430560e-005
4.358940e-004,2.045080e-006
4.694416e-004,3.218923e-005
4.874308e-004,4.434413e-005
4.848378e-004,4.337174e-005
4.593935e-004,3.559260e-005
4.151496e-004,2.667901e-005
3.621543e-004,2.327564e-005
3.114278e-004,3.267542e-005
2.726942e-004,5.860588e-005
2.534084e-004,9.782569e-005
2.498430e-004,1.370455e-004
2.584324e-004,1.631380e-004
2.754493e-004,1.814514e-004
2.937627e-004,2.182402e-004
3.046211e-004,2.961937e-004
2.979764e-004,4.132049e-004
2.710735e-004,5.533914e-004
2.276400e-004,6.951987e-004
1.694586e-004,8.240407e-004
9.977047e-005,9.292212e-004
3.543054e-005,1.004582e-003
-2.006553e-006,1.047043e-003
-3.858999e-007,1.061305e-003
3.218923e-005,1.058063e-003
7.659513e-005,1.051905e-003
1.127357e-004,1.055956e-003
1.323456e-004,1.074918e-003
1.362352e-004,1.101011e-003
1.326697e-004,1.120459e-003
1.318594e-004,1.128238e-003
1.401247e-004,1.132938e-003
1.564933e-004,1.138124e-003
1.751309e-004,1.136341e-003
1.887444e-004,1.110248e-003
1.937684e-004,1.048988e-003
1.864754e-004,9.473725e-004
1.684862e-004,8.133444e-004
1.355869e-004,6.622995e-004
7.772959e-005,5.091476e-004
-4.761664e-006,3.640991e-004
-1.120489e-004,2.289366e-004
-2.417012e-004,1.107909e-004
-3.888564e-004,1.436204e-005
-5.360117e-004,-6.083626e-005
-6.705259e-004,-1.135075e-004
-7.810544e-004,-1.438137e-004
-8.457185e-004,-1.548341e-004
-8.372911e-004,-1.465688e-004
-7.408622e-004,-1.136696e-004
-5.697213e-004,-5.840528e-005
-3.548227e-004,7.555301e-006
-1.381414e-004,6.995045e-005
4.677511e-005,1.229458e-004
1.863134e-004,1.694586e-004
2.723701e-004,2.057612e-004
2.973281e-004,2.172679e-004
2.632944e-004,1.882582e-004
1.825859e-004,1.148425e-004
7.951231e-005,4.638125e-006
-2.275091e-005,-1.190177e-004
-1.081593e-004,-2.382978e-004
-1.822232e-004,-3.588744e-004
-2.699005e-004,-4.937127e-004
-3.796187e-004,-6.355198e-004
-4.882024e-004,-7.554481e-004
-5.621043e-004,-8.144398e-004
-5.869002e-004,-7.823510e-004
-5.705316e-004,-6.492953e-004
-5.290429e-004,-4.232143e-004
-4.886886e-004,-1.306864e-004
-4.789647e-004,1.872858e-004
-5.176983e-004,4.896998e-004
-6.082929e-004,7.468975e-004
-7.424829e-004,9.460760e-004
-8.953104e-004,1.084318e-003
-1.025125e-003,1.159840e-003
-1.092058e-003,1.172644e-003
-1.077958e-003,1.129696e-003
-9.949806e-004,1.039102e-003
-8.812108e-004,9.182008e-004
-7.629031e-004,8.049170e-004
-6.439472e-004,7.345806e-004
-5.172121e-004,7.169155e-004
-3.775118e-004,7.349047e-004
-2.246843e-004,7.613214e-004
-6.294311e-005,7.883863e-004
9.993253e-005,8.318199e-004
2.508154e-004,8.895152e-004
3.700955e-004,9.395934e-004
4.401077e-004,9.546655e-004
4.639314e-004,9.154457e-004
4.668485e-004,8.131823e-004
4.747897e-004,6.423654e-004
4.992616e-004,3.952156e-004
5.401021e-004,6.233338e-005
5.960147e-004,-3.527159e-004
6.621373e-004,-8.165467e-004
7.332841e-004,-1.258013e-003
7.989206e-004,-1.592353e-003
8.397611e-004,-1.765763e-003
8.383025e-004,-1.790073e-003
7.930862e-004,-1.739347e-003
7.185361e-004,-1.704341e-003
6.334517e-004,-1.741291e-003
5.589016e-004,-1.842096e-003
5.089855e-004,-1.953111e-003
4.862963e-004,-2.022961e-003
4.825689e-004,-2.034792e-003
4.900239e-004,-1.988603e-003
4.984512e-004,-1.881478e-003
4.974789e-004,-1.707582e-003
4.833792e-004,-1.463025e-003
4.576108e-004,-1.155587e-003
4.290873e-004,-8.081193e-004
4.025085e-004,-4.533584e-004
3.760919e-004,-1.230693e-004
3.483787e-004,1.563313e-004
3.206656e-004,3.783608e-004
2.919800e-004,5.579292e-004
2.645909e-004,7.183740e-004
2.423880e-004,8.718501e-004
2.231022e-004,1.012847e-003
2.000889e-004,1.121755e-003
1.738343e-004,1.180099e-003
1.513072e-004,1.167296e-003
1.362352e-004,1.070380e-003
1.239182e-004,8.880566e-004
1.062531e-004,6.381517e-004
8.469840e-005,3.666921e-004
6.184718e-005,1.289422e-004
3.996837e-005,-3.458168e-005
2.295151e-005,-1.099421e-004
1.225520e-005,-1.084835e-004
1.144487e-005,-5.305713e-005
2.781346e-005,4.061663e-005
6.346784e-005,1.607070e-004
1.043083e-004,2.965178e-004
1.363972e-004,4.251977e-004
1.522796e-004,5.146578e-004
1.577899e-004,5.485295e-004
1.611932e-004,5.279472e-004
1.688103e-004,4.710622e-004
1.827479e-004,4.031568e-004
1.937684e-004,3.409237e-004
1.902029e-004,2.848491e-004
1.637863e-004,2.235884e-004
1.172735e-004,1.537382e-004
5.860588e-005,8.064677e-005
-7.100305e-007,2.855407e-006
-5.548811e-005,-8.563225e-005
-1.024871e-004,-1.822232e-004
-1.396000e-004,-2.833519e-004
-1.640719e-004,-3.911253e-004
-1.747682e-004,-5.016539e-004
-1.729855e-004,-5.916001e-004
-1.598582e-004,-6.282268e-004
-1.347380e-004,-5.972724e-004
-1.005423e-004,-5.146191e-004
-7.331530e-005,-4.003631e-004
-6.764301e-005,-2.525595e-004
-8.822530e-005,-8.141856e-005
-1.314967e-004,8.550872e-005
-1.948643e-004,2.205092e-004
-2.726556e-004,3.218000e-004
-3.473677e-004,4.072085e-004
-3.950149e-004,4.960203e-004
-3.967976e-004,6.047662e-004
-3.512573e-004,7.331221e-004
-2.724935e-004,8.687708e-004
-1.838438e-004,9.950198e-004
-1.076731e-004,1.095014e-003
-5.500191e-005,1.155627e-003
-2.826114e-005,1.156761e-003
-2.291298e-005,1.056929e-003
-3.344723e-005,8.041067e-004
-6.407757e-005,3.770643e-004
-1.220970e-004,-1.611547e-004
-2.002124e-004,-6.724707e-004
-2.823795e-004,-1.020425e-003
-3.540124e-004,-1.147322e-003
-4.055492e-004,-1.097244e-003
-4.282383e-004,-9.671054e-004
-4.105732e-004,-8.551183e-004
-3.613053e-004,-8.236776e-004
-3.000446e-004,-8.857486e-004
-2.442942e-004,-1.009242e-003
-2.021572e-004,-1.142784e-003
-1.731475e-004,-1.237106e-003
-1.494860e-004,-1.260119e-003
-1.186936e-004,-1.206638e-003
-7.671866e-005,-1.099027e-003
-2.420950e-005,-9.701846e-004
3.218923e-005,-8.502563e-004
8.080883e-005,-7.604721e-004
1.057669e-004,-6.781430e-004
1.020394e-004,-5.280706e-004
7.675720e-005,-2.726556e-004
3.818565e-005,4.450620e-005
-9.785688e-006,3.444891e-004
-5.402952e-005,5.681394e-004
-8.287715e-005,6.974676e-004
-8.968389e-005,7.608352e-004
-7.882551e-005,8.016757e-004
-6.148453e-005,8.430023e-004
-4.576419e-005,8.663398e-004
-3.085418e-005,8.198270e-004
-9.785688e-006,6.601926e-004
1.922400e-005,3.916502e-004
5.293359e-005,6.087479e-005
8.453633e-005,-2.674695e-004
1.072255e-004,-5.330946e-004
1.088461e-004,-6.925668e-004
8.664318e-005,-7.149318e-004
4.726130e-005,-5.809038e-004
7.879432e-006,-2.968033e-004
-1.529591e-005,9.458438e-005
-1.254080e-005,5.204921e-004
1.355172e-005,9.081527e-004
5.082674e-005,1.213808e-003
8.388807e-005,1.432111e-003
1.051186e-004,1.586073e-003
1.099806e-004,1.706488e-003
1.010670e-004,1.812803e-003
8.891209e-005,1.899022e-003
8.113296e-005,1.937432e-003
7.870197e-005,1.896591e-003
8.048470e-005,1.757701e-003
8.664318e-005,1.525947e-003
9.701536e-005,1.230339e-003
1.065772e-004,9.154457e-004
1.111150e-004,6.219451e-004
1.122495e-004,3.702575e-004
1.180839e-004,1.620036e-004
1.357490e-004,-8.327101e-006
1.676758e-004,-1.431655e-004
2.115956e-004,-2.415391e-004
2.564877e-004,-3.040963e-004
2.858215e-004,-3.381300e-004
2.819319e-004,-3.488263e-004
2.381743e-004,-3.433161e-004
1.649207e-004,-3.322956e-004
8.259155e-005,-3.199787e-004
1.290346e-005,-3.045825e-004
-2.664048e-005,-2.820554e-004
-3.069211e-005,-2.392702e-004
-5.085794e-006,-1.522411e-004
3.526847e-005,-3.627206e-006
7.108491e-005,1.861513e-004
8.826383e-005,3.576164e-004
8.097089e-005,4.344354e-004
5.714729e-005,3.525924e-004
3.364782e-005,1.062531e-004
2.489629e-005,-2.421874e-004
3.202716e-005,-6.031067e-004
4.839576e-005,-9.006586e-004
6.249545e-005,-1.097406e-003
6.573675e-005,-1.194645e-003
5.747142e-005,-1.220089e-003
5.244739e-005,-1.209879e-003
7.384002e-005,-1.195942e-003
1.304008e-004,-1.198373e-003
2.096508e-004,-1.216362e-003
2.854973e-004,-1.239861e-003
3.305515e-004,-1.246506e-003
3.342791e-004,-1.193997e-003
3.046211e-004,-1.030311e-003
2.589186e-004,-7.256281e-004
2.120818e-004,-3.050687e-004
1.654069e-004,1.443384e-004
1.187321e-004,5.115786e-004
7.675720e-005,7.034640e-004
3.299956e-005,6.546823e-004
-3.101625e-005,3.741471e-004
-1.290658e-004,-4.770897e-005
-2.512630e-004,-4.966299e-004
-3.673017e-004,-8.794281e-004
-4.390967e-004,-1.141164e-003
-4.303451e-004,-1.270816e-003
-3.284061e-004,-1.300312e-003
-1.643960e-004,-1.281512e-003
2.045080e-006,-1.255420e-003
1.116012e-004,-1.217496e-003
1.355869e-004,-1.120419e-003
8.956036e-005,-9.170272e-004
2.197911e-005,-5.800935e-004
-1.529591e-005,-1.011905e-004
2.207145e-006,5.287575e-004
7.108491e-005,1.309589e-003
1.697827e-004,2.219751e-003
2.692908e-004,3.162166e-003
3.461098e-004,3.985141e-003
3.905157e-004,4.564370e-003
4.070464e-004,4.843127e-003
4.010500e-004,4.819627e-003
3.713920e-004,4.526122e-003
3.072141e-004,3.997783e-003
1.936063e-004,3.278368e-003
2.246531e-005,2.444374e-003
-1.945401e-004,1.597580e-003
-4.249970e-004,7.968137e-004
-6.379507e-004,1.558884e-006
-8.218948e-004,-8.722972e-004
-9.802326e-004,-1.863489e-003
-1.107778e-003,-2.919184e-003
-1.179573e-003,-3.882342e-003
-1.171146e-003,-4.544383e-003
-1.076824e-003,-4.780515e-003
-9.129756e-004,-4.604834e-003
-7.125008e-004,-4.109072e-003
-5.091089e-004,-3.402140e-003
-3.262992e-004,-2.581925e-003
-1.793060e-004,-1.736592e-003
-7.882551e-005,-9.599745e-004
-2.664048e-005,-3.366714e-004
-6.382317e-006,8.761557e-005
1.241726e-005,3.196932e-004
6.298164e-005,4.107739e-004
1.678379e-004,4.102877e-004
3.164518e-004,3.444891e-004
4.665244e-004,2.256952e-004
5.708945e-004,7.238143e-005
5.987698e-004,-7.752899e-005
5.441537e-004,-1.857886e-004
4.251977e-004,-2.368392e-004
2.817699e-004,-2.348944e-004
1.629760e-004,-1.964849e-004
1.090082e-004,-1.420310e-004
1.260251e-004,-8.773911e-005
1.926339e-004,-3.312309e-005
2.764217e-004,3.137890e-005
3.535648e-004,1.031738e-004
4.149876e-004,1.530900e-004
4.686312e-004,1.479039e-004
5.180612e-004,8.534666e-005
5.637637e-004,1.072688e-006
5.942319e-004,-5.338126e-005
5.976353e-004,-3.976777e-005
5.661946e-004,4.612685e-005
4.935893e-004,1.788584e-004
3.777126e-004,3.258516e-004
2.273159e-004,4.665244e-004
5.633696e-005,5.990939e-004
-1.162626e-004,7.290703e-004
-2.694143e-004,8.639088e-004
-3.890185e-004,1.004744e-003
-4.711856e-004,1.131965e-003
-5.176983e-004,1.213970e-003
-5.343911e-004,1.237470e-003
-5.228845e-004,1.204895e-003
-4.752372e-004,1.130993e-003
-3.851289e-004,1.030512e-003
-2.577456e-004,9.157698e-004
-1.131834e-004,7.922759e-004
2.295151e-005,6.681338e-004
1.313732e-004,5.514466e-004
2.080301e-004,4.553419e-004
2.571359e-004,3.986190e-004
2.829043e-004,3.874365e-004
2.927903e-004,4.041292e-004
2.900352e-004,4.295735e-004
2.769079e-004,4.546936e-004
2.581083e-004,4.736553e-004
2.436845e-004,4.764104e-004
2.456293e-004,4.477248e-004
2.710735e-004,3.717161e-004
3.154794e-004,2.419018e-004
3.653956e-004,5.763349e-005
4.075326e-004,-1.720131e-004
4.316803e-004,-4.313175e-004
4.318424e-004,-6.998597e-004
4.119083e-004,-9.494403e-004
3.793332e-004,-1.149429e-003
3.399513e-004,-1.281836e-003
2.955454e-004,-1.345852e-003
2.493568e-004,-1.352983e-003
2.041406e-004,-1.320408e-003
1.636242e-004,-1.252988e-003
1.300767e-004,-1.138246e-003
1.046324e-004,-9.573814e-004
8.858796e-005,-6.982391e-004
8.129502e-005,-3.690845e-004
8.194328e-005,1.002961e-007
8.469840e-005,3.598854e-004
8.875003e-005,6.661890e-004
9.215340e-005,8.998874e-004
9.539470e-005,1.060980e-003
9.733949e-005,1.162271e-003
9.442231e-005,1.203274e-003
8.972242e-005,1.168430e-003
7.789165e-005,1.037967e-003
5.585077e-005,8.117238e-004
2.765140e-005,5.292437e-004
7.485573e-007,2.547049e-004
-2.096820e-005,4.661304e-005
-3.474375e-005,-6.942573e-005
-4.187462e-005,-9.892161e-005
-5.095028e-005,-7.039812e-005
-6.780507e-005,-2.048200e-005
-9.454585e-005,2.165498e-005
-1.251762e-004,4.158902e-005
-1.509446e-004,3.526847e-005
-1.613168e-004,1.176900e-005
-1.522411e-004,-1.497178e-005
-1.276072e-004,-2.599222e-005
-9.875954e-005,-1.027188e-005
-7.461182e-005,3.575467e-005
-5.710876e-005,1.046324e-004
-4.884343e-005,1.822617e-004
-4.965376e-005,2.568118e-004
-6.051213e-005,3.177483e-004
-7.769106e-005,3.584268e-004
-1.000561e-004,3.749574e-004
-1.209625e-004,3.734989e-004
-1.392759e-004,3.559958e-004
-1.541859e-004,3.222862e-004
-1.663408e-004,2.676702e-004
-1.650443e-004,1.872858e-004
-1.436516e-004,9.085688e-005
-1.065387e-004,-4.275467e-006
-6.845333e-005,-8.563225e-005
-4.479180e-005,-1.475412e-004
-4.349527e-005,-1.865989e-004
-5.678463e-005,-2.006986e-004
-6.991193e-005,-1.912988e-004
-7.380149e-005,-1.608306e-004
-7.039812e-005,-1.162626e-004
-6.035007e-005,-7.056019e-005
-4.381940e-005,-3.117831e-005
-2.453363e-005,-2.978945e-006
-9.299493e-006,1.954813e-005
-2.006553e-006,4.061663e-005
-9.299493e-006,5.341979e-005
-3.377136e-005,4.547859e-005
-6.780507e-005,2.369211e-006
-9.843541e-005,-7.688073e-005
-1.104282e-004,-1.739578e-004
-1.011905e-004,-2.645523e-004
-7.898758e-005,-3.363473e-004
-5.257093e-005,-3.882082e-004
-2.534396e-005,-4.224039e-004
-5.896120e-006,-4.415277e-004
-3.951337e-006,-4.459034e-004
-3.296103e-005,-4.365036e-004
-1.015147e-004,-4.113835e-004
-2.058847e-004,-3.622777e-004
-3.220855e-004,-2.807589e-004
-4.224039e-004,-1.728234e-004
-4.867439e-004,-5.370539e-005
-5.057055e-004,5.795762e-005
-4.781544e-004,1.629760e-004
-4.139766e-004,2.816078e-004
-3.258130e-004,4.251977e-004
-2.297083e-004,5.725152e-004
-1.430034e-004,6.752646e-004
-7.639453e-005,6.851507e-004
-2.907146e-005,5.822391e-004
3.989864e-006,3.830607e-004
3.186510e-005,1.381800e-004
6.184718e-005,-8.935975e-005
9.604298e-005,-2.519113e-004
1.341283e-004,-3.438023e-004
1.725378e-004,-3.956632e-004
2.013854e-004,-4.457413e-004
2.122438e-004,-5.128364e-004
2.046267e-004,-5.797693e-004
1.934442e-004,-6.343853e-004
1.957132e-004,-6.912703e-004
2.154851e-004,-7.718167e-004
2.448189e-004,-8.721352e-004
2.684805e-004,-9.632158e-004
2.759355e-004,-1.010863e-003
2.621599e-004,-9.941703e-004
2.315296e-004,-9.171893e-004
1.957132e-004,-7.996919e-004
1.699448e-004,-6.622606e-004
1.581140e-004,-5.180225e-004
1.522796e-004,-3.707051e-004
1.432040e-004,-2.019951e-004
1.300767e-004,-3.465141e-006
1.153287e-004,1.957132e-004
1.054428e-004,3.647473e-004
1.054428e-004,5.107683e-004
1.072255e-004,6.713751e-004
9.166720e-005,8.814119e-004
3.380988e-005,1.145093e-003
-7.963584e-005,1.426276e-003
-2.335979e-004,1.667106e-003
-3.864254e-004,1.819448e-003
-4.860956e-004,1.863530e-003
-4.961436e-004,1.805510e-003
-4.070078e-004,1.653655e-003
-2.389460e-004,1.419308e-003
-3.522994e-005,1.107655e-003
1.530900e-004,7.277738e-004
2.926282e-004,3.239069e-004
3.775505e-004,-1.302700e-005
4.188772e-004,-1.900023e-004
4.313562e-004,-1.814128e-004
4.251977e-004,-4.122636e-005
4.133669e-004,1.266733e-004
4.089912e-004,2.284504e-004
4.179048e-004,2.235884e-004
4.386491e-004,1.281319e-004
4.650658e-004,-1.034161e-006
4.877550e-004,-1.143178e-004
4.922928e-004,-1.956746e-004
4.598797e-004,-2.538560e-004
3.777126e-004,-3.011791e-004
2.396328e-004,-3.363473e-004
4.596478e-005,-3.579019e-004
-1.940539e-004,-3.745947e-004
-4.541688e-004,-4.027940e-004
-6.912703e-004,-4.570859e-004
-8.632215e-004,-5.455735e-004
-9.444162e-004,-6.598296e-004
-9.283718e-004,-7.724650e-004
-8.340498e-004,-8.475012e-004
-6.940254e-004,-8.581975e-004
-5.384427e-004,-7.974231e-004
-3.856151e-004,-6.823567e-004
-2.434839e-004,-5.528665e-004
-1.143178e-004,-4.527101e-004
3.665733e-006,-4.220798e-004
1.111150e-004,-4.836646e-004
2.104611e-004,-6.403818e-004
3.049452e-004,-8.656525e-004
4.015361e-004,-1.097892e-003
5.018546e-004,-1.258013e-003
5.935837e-004,-1.285239e-003
6.524134e-004,-1.162718e-003
6.603546e-004,-9.254546e-004
6.177314e-004,-6.337371e-004
5.399400e-004,-3.395886e-004
4.480489e-004,-6.748094e-005
3.572923e-004,1.722137e-004
2.767458e-004,3.791712e-004
2.004130e-004,5.585775e-004
1.116012e-004,7.075156e-004
-2.330684e-006,8.076721e-004
-1.332795e-004,8.407335e-004
-2.527216e-004,7.964896e-004
-3.290543e-004,6.773715e-004
-3.601709e-004,5.042856e-004
-3.776739e-004,3.059176e-004
-4.241867e-004,1.000946e-004
-5.236948e-004,-9.276313e-005
-6.797637e-004,-2.464010e-004
-8.654904e-004,-3.358611e-004
-1.029501e-003,-3.507711e-004
-1.113450e-003,-3.094444e-004
-1.081848e-003,-2.478596e-004
-9.539781e-004,-1.966470e-004
-7.818647e-004,-1.674752e-004
-6.254718e-004,-1.485136e-004
-5.251534e-004,-1.104282e-004
-4.882024e-004,-2.323711e-005
-4.945230e-004,1.326697e-004
-5.073262e-004,3.461098e-004
-4.786406e-004,5.804563e-004
-3.775118e-004,7.956792e-004
-2.092881e-004,9.643894e-004
-8.165035e-006,1.076539e-003
1.824238e-004,1.136665e-003
3.284447e-004,1.158058e-003
4.237391e-004,1.177181e-003
4.791655e-004,1.243142e-003
5.167646e-004,1.371498e-003
5.512846e-004,1.505526e-003
5.828873e-004,1.542964e-003
6.021731e-004,1.410070e-003
6.088178e-004,1.083183e-003
6.057385e-004,5.979594e-004
6.020110e-004,4.045456e-005
6.110868e-004,-4.710235e-004
6.397723e-004,-8.335636e-004
6.825576e-004,-1.000329e-003
7.224257e-004,-9.846084e-004
7.426839e-004,-8.406945e-004
7.362012e-004,-6.330888e-004
7.036261e-004,-4.259694e-004
6.490100e-004,-2.749245e-004
5.804563e-004,-1.900023e-004
5.031512e-004,-1.214487e-004
4.203358e-004,-7.354709e-006
3.373583e-004,1.636242e-004
2.600531e-004,3.354135e-004
2.031682e-004,4.204978e-004
1.778860e-004,3.525924e-004
1.921477e-004,1.175977e-004
2.397949e-004,-2.295462e-004
3.059176e-004,-5.891691e-004
3.739850e-004,-8.695421e-004
4.303838e-004,-1.016535e-003
4.605280e-004,-1.013942e-003
4.616624e-004,-8.716490e-004
4.443214e-004,-6.199615e-004
4.198496e-004,-2.974516e-004
3.971604e-004,6.055066e-005
3.806297e-004,4.149876e-004
3.681507e-004,7.235601e-004
3.577785e-004,9.507760e-004
3.465960e-004,1.079456e-003
3.303894e-004,1.106683e-003
3.124002e-004,1.034078e-003
2.965178e-004,8.801154e-004
2.850112e-004,6.851507e-004
2.793389e-004,4.994237e-004
2.795009e-004,3.435168e-004
2.901973e-004,1.885823e-004
3.120761e-004,-7.516774e-006
3.399513e-004,-2.528836e-004
3.611819e-004,-5.071641e-004
3.595612e-004,-6.966184e-004
3.234207e-004,-7.588515e-004
2.431983e-004,-6.718224e-004
1.221355e-004,-4.556273e-004
-2.113026e-005,-1.598582e-004
-1.613168e-004,1.524417e-004
-2.750866e-004,4.329769e-004
-3.447747e-004,6.603546e-004
-3.729740e-004,8.230684e-004
-3.804291e-004,8.989150e-004
-3.891806e-004,8.566159e-004
-3.969597e-004,6.794783e-004
-3.912874e-004,3.887330e-004
-3.643846e-004,3.932010e-005
-3.243544e-004,-3.023136e-004
-2.911311e-004,-5.946793e-004
-2.867553e-004,-8.304843e-004
-3.287302e-004,-1.033228e-003
-4.207833e-004,-1.228679e-003
-5.434667e-004,-1.431585e-003
-6.625847e-004,-1.642107e-003
-7.484793e-004,-1.841772e-003
-7.846198e-004,-1.994438e-003
-7.684134e-004,-2.048892e-003
-7.043975e-004,-1.959431e-003
-6.027826e-004,-1.706610e-003
-4.781544e-004,-1.306794e-003
-3.499608e-004,-7.943438e-004
-2.358668e-004,-2.097743e-004
-1.438137e-004,4.057499e-004
-7.282909e-005,1.007823e-003
-2.048200e-005,1.550743e-003
1.306552e-005,1.992696e-003
3.089271e-005,2.281012e-003
3.526847e-005,2.361234e-003
3.299956e-005,2.267722e-003
2.862379e-005,2.149900e-003
2.295151e-005,2.089774e-003
1.290346e-005,2.032402e-003
-2.492749e-006,1.884923e-003
-2.534396e-005,1.606169e-003
-5.613637e-005,1.228556e-003
-9.049421e-005,8.345750e-004
-1.214487e-004,5.062304e-004
-1.481895e-004,2.856594e-004
-1.652063e-004,1.741585e-004
-1.629374e-004,1.409351e-004
-1.374932e-004,1.257009e-004
-9.324933e-005,5.828175e-005
-4.868137e-005,-9.778715e-005
-2.647842e-005,-3.420196e-004
-4.009191e-005,-6.528608e-004
-8.725291e-005,-9.719674e-004
-1.478653e-004,-1.203397e-003
-1.935677e-004,-1.263847e-003
-1.987538e-004,-1.151698e-003
-1.593720e-004,-9.648365e-004
-9.243900e-005,-8.188156e-004
-2.485776e-005,-7.515585e-004
1.857574e-005,-7.172007e-004
3.283749e-005,-6.476747e-004
3.267542e-005,-5.066779e-004
2.894792e-005,-3.055549e-004
2.797553e-005,-8.611845e-005
3.170304e-005,9.960841e-005
3.932010e-005,2.073819e-004
4.936815e-005,2.046267e-004
5.714729e-005,9.344993e-005
5.893001e-005,-9.179074e-005
5.374392e-005,-3.015032e-004
3.996837e-005,-4.888507e-004
2.295151e-005,-6.300096e-004
7.393236e-006,-7.251419e-004
5.864920e-007,-7.810544e-004
7.231170e-006,-8.134675e-004
2.035846e-005,-8.408565e-004
3.445814e-005,-8.656525e-004
4.418206e-005,-8.714869e-004
4.904402e-005,-8.390738e-004
4.953022e-005,-7.635514e-004
4.888196e-005,-6.619364e-004
4.758544e-005,-5.637249e-004
4.531652e-005,-4.891749e-004
4.094075e-005,-4.390967e-004
3.316162e-005,-4.006872e-004
2.586868e-005,-3.626019e-004
2.165498e-005,-3.188442e-004
1.792748e-005,-2.655248e-004
9.986281e-006,-2.010227e-004
-1.520357e-006,-1.334415e-004
-8.002969e-006,-7.088431e-005
-6.382317e-006,-1.756482e-005
9.106227e-007,2.603075e-005
1.063454e-005,6.914012e-005
1.614476e-005,1.268354e-004
2.149292e-005,2.102990e-004
3.656499e-005,3.214759e-004
6.444023e-005,4.474007e-004
1.020394e-004,5.661946e-004
1.443384e-004,6.585719e-004
1.791825e-004,7.146465e-004
1.981441e-004,7.402529e-004
1.906891e-004,7.428459e-004
1.514693e-004,7.233981e-004
9.393612e-005,6.819093e-004
4.953022e-005,6.342620e-004
4.645098e-005,6.076833e-004
8.891209e-005,6.222692e-004
1.470936e-004,6.794783e-004
1.859892e-004,7.650489e-004
1.858272e-004,8.489988e-004
1.475797e-004,8.998874e-004
9.182927e-005,8.968081e-004
4.807163e-005,8.514298e-004
3.753739e-005,8.220959e-004
6.411610e-005,8.697432e-004
1.031738e-004,9.940475e-004
1.197045e-004,1.144606e-003
9.166720e-005,1.259025e-003
2.700314e-005,1.284793e-003
-4.074016e-005,1.190471e-003
-7.898758e-005,9.703859e-004
-7.396356e-005,6.353966e-004
-3.636440e-005,2.242366e-004
9.175954e-006,-2.013469e-004
4.612685e-005,-5.828486e-004
6.849186e-005,-9.081136e-004
7.870197e-005,-1.207772e-003
7.886404e-005,-1.515534e-003
7.092284e-005,-1.824917e-003
5.423012e-005,-2.057805e-003
3.380988e-005,-2.072715e-003
2.133085e-005,-1.732216e-003
2.181705e-005,-1.032580e-003
3.121684e-005,-1.293899e-004
4.272347e-005,7.470596e-004
5.034055e-005,1.452045e-003
5.277153e-005,1.977624e-003
5.633696e-005,2.364151e-003
7.043665e-005,2.644202e-003
1.007429e-004,2.837223e-003
1.462832e-004,2.954235e-003
2.007372e-004,2.967686e-003
2.474120e-004,2.791682e-003
2.756114e-004,2.310345e-003
2.900352e-004,1.455772e-003
3.075383e-004,2.679943e-004
3.423823e-004,-1.073582e-003
3.984569e-004,-2.282752e-003
4.629590e-004,-3.126466e-003
5.094717e-004,-3.506348e-003
5.119027e-004,-3.508779e-003
4.529109e-004,-3.314300e-003
3.357376e-004,-3.074119e-003
1.835583e-004,-2.840420e-003
3.316162e-005,-2.577063e-003
-8.190475e-005,-2.235105e-003
-1.430034e-004,-1.816652e-003
-1.496481e-004,-1.381506e-003
-1.245279e-004,-1.002274e-003
-1.032974e-004,-7.217386e-004
-1.170729e-004,-5.335807e-004
-1.794681e-004,-3.912874e-004
-2.908069e-004,-2.491561e-004
-4.331002e-004,-8.935975e-005
-5.797693e-004,7.805372e-005
-7.113663e-004,2.214815e-004
-8.197880e-004,3.044590e-004
-9.056826e-004,3.154794e-004
-9.662951e-004,2.713977e-004
-9.993564e-004,2.049509e-004
-9.987081e-004,1.508211e-004
-9.625676e-004,1.308870e-004
-8.928794e-004,1.511452e-004
-7.899680e-004,2.046267e-004
-6.538332e-004,2.824181e-004
-4.946851e-004,3.736609e-004
-3.177098e-004,4.736553e-004
-1.355484e-004,5.781874e-004
3.251336e-005,6.819093e-004
1.668655e-004,7.854691e-004
2.530843e-004,8.882187e-004
2.911697e-004,9.869165e-004
2.931144e-004,1.074270e-003
2.863077e-004,1.137151e-003
2.948972e-004,1.158706e-003
3.227724e-004,1.132451e-003
3.561579e-004,1.064708e-003
3.807918e-004,9.726548e-004
3.935950e-004,8.712018e-004
3.955397e-004,7.802831e-004
3.937570e-004,7.080019e-004
3.913261e-004,6.405826e-004
3.859779e-004,5.546879e-004
3.799815e-004,4.490213e-004
3.785229e-004,3.414099e-004
3.861400e-004,2.553532e-004
3.979707e-004,2.031682e-004
4.062361e-004,1.730240e-004
4.028327e-004,1.425557e-004
3.851676e-004,9.344993e-005
3.532407e-004,2.619281e-005
3.135347e-004,-4.689865e-005
2.751252e-004,-1.054042e-004
2.443328e-004,-1.389517e-004
2.258573e-004,-1.457585e-004
2.196988e-004,-1.305243e-004
2.167816e-004,-9.341139e-005
2.065715e-004,-2.971972e-005
1.856651e-004,6.362991e-005
1.605450e-004,1.775618e-004
1.470936e-004,2.850112e-004
1.608691e-004,3.537269e-004
2.055991e-004,3.679886e-004
2.665357e-004,3.358997e-004
3.232586e-004,2.838767e-004
3.621543e-004,2.391467e-004
3.778746e-004,2.065715e-004
3.804677e-004,1.691344e-004
3.838710e-004,1.070634e-004
3.934329e-004,6.744974e-006
4.065602e-004,-1.394379e-004
4.112601e-004,-3.297026e-004
4.044533e-004,-5.400634e-004
3.929467e-004,-7.353520e-004
3.840331e-004,-8.729455e-004
3.803056e-004,-9.141100e-004
3.752816e-004,-8.416669e-004
3.603715e-004,-6.690673e-004
3.367100e-004,-4.384484e-004
3.046211e-004,-1.976194e-004
2.629703e-004,2.133085e-005
2.083542e-004,2.177540e-004
1.440143e-004,4.127187e-004
7.140904e-005,6.071971e-004
-1.254080e-005,7.575939e-004
-1.172350e-004,7.994067e-004
-2.465631e-004,6.804507e-004
-3.895047e-004,3.957018e-004
-5.217500e-004,-1.075808e-005
-6.236890e-004,-4.491447e-004
-6.891634e-004,-8.317808e-004
-7.172007e-004,-1.109399e-003
-6.995356e-004,-1.266926e-003
-6.379507e-004,-1.305336e-003
-5.465460e-004,-1.230624e-003
-4.387725e-004,-1.054134e-003
-3.196545e-004,-7.996919e-004
-1.903264e-004,-5.159156e-004
-5.775702e-005,-2.538560e-004
5.698522e-005,-1.950961e-005
1.286181e-004,2.359054e-004
1.354248e-004,5.639257e-004
7.351589e-005,9.522345e-004
-3.863332e-005,1.323527e-003
-1.674752e-004,1.570515e-003
-2.828657e-004,1.611355e-003
-3.695707e-004,1.425628e-003
-4.468758e-004,1.064060e-003
-5.413599e-004,6.238899e-004
-6.559400e-004,2.109473e-004
-7.664686e-004,-1.052422e-004
-8.368049e-004,-2.961551e-004
-8.424772e-004,-3.778360e-004
-7.859163e-004,-3.844807e-004
-6.808981e-004,-3.455850e-004
-5.424943e-004,-2.838381e-004
-3.880461e-004,-2.122053e-004
-2.298704e-004,-1.251762e-004
-8.303922e-005,-1.967167e-005
3.737532e-005,8.405014e-005
1.201907e-004,1.506590e-004
1.667035e-004,1.626518e-004
1.913374e-004,1.282940e-004
2.159713e-004,5.860588e-005
2.579462e-004,-2.939559e-005
3.158036e-004,-1.148040e-004
3.780367e-004,-1.825473e-004
4.292493e-004,-2.203085e-004
4.587452e-004,-2.209568e-004
4.681450e-004,-1.875713e-004
4.589073e-004,-1.339277e-004
4.378388e-004,-8.239095e-005
4.078567e-004,-5.629844e-005
3.649094e-004,-7.623246e-005
3.099692e-004,-1.501342e-004
2.472499e-004,-2.575835e-004
1.762653e-004,-3.433161e-004
9.717743e-005,-3.497987e-004
1.209313e-005,-2.554767e-004
-7.590833e-005,-8.271508e-005
-1.603444e-004,1.148425e-004
-2.327876e-004,3.008936e-004
-2.874036e-004,4.747897e-004
-3.156029e-004,6.357207e-004
-3.076617e-004,7.655351e-004
-2.554767e-004,8.389507e-004
-1.605064e-004,8.358715e-004
-4.430560e-005,7.493285e-004
6.460230e-005,5.854804e-004
1.461212e-004,3.683128e-004
1.906891e-004,1.336421e-004
2.031682e-004,-9.276313e-005
2.046267e-004,-3.172236e-004
2.159713e-004,-5.574043e-004
2.394708e-004,-8.111986e-004
2.629703e-004,-1.054621e-003
2.673460e-004,-1.263199e-003
2.433604e-004,-1.433043e-003
1.987924e-004,-1.572905e-003
1.558451e-004,-1.692672e-003
1.393144e-004,-1.796880e-003
1.534141e-004,-1.875482e-003
1.876099e-004,-1.901736e-003
2.192126e-004,-1.835614e-003
2.316917e-004,-1.656693e-003
2.180782e-004,-1.381344e-003
1.798307e-004,-1.040845e-003
1.299146e-004,-6.483230e-004
8.664318e-005,-1.937298e-004
6.298164e-005,3.203414e-004
5.666109e-005,8.643950e-004
5.698522e-005,1.386732e-003
5.293359e-005,1.821393e-003
4.304761e-005,2.122511e-003
2.651694e-005,2.282308e-003
-7.100305e-007,2.320069e-003
-3.928157e-005,2.261078e-003
-8.109443e-005,2.118784e-003
-1.130213e-004,1.905343e-003
-1.242038e-004,1.641500e-003
-1.188556e-004,1.343299e-003
-1.078352e-004,1.019978e-003
-9.681477e-005,6.697544e-004
-8.757704e-005,2.992729e-004
-7.785312e-005,-5.727083e-005
-6.618442e-005,-3.446126e-004
-5.240886e-005,-5.280706e-004
-3.490581e-005,-6.055377e-004
-1.075808e-005,-6.079687e-004
1.630683e-005,-5.766901e-004
3.640293e-005,-5.411978e-004
4.596478e-005,-5.099192e-004
5.082674e-005,-4.766958e-004
6.735741e-005,-4.353692e-004
1.093323e-004,-3.814014e-004
1.824238e-004,-3.115513e-004
2.748010e-004,-2.224154e-004
3.618301e-004,-1.122110e-004
4.169324e-004,1.841368e-005
4.277907e-004,1.626518e-004
3.919743e-004,3.072141e-004
3.174242e-004,4.336251e-004
2.177540e-004,5.217887e-004
1.145184e-004,5.584154e-004
2.311357e-005,5.363746e-004
-4.365734e-005,4.606900e-004
-8.044617e-005,3.519442e-004
-8.595638e-005,2.386605e-004
-5.970181e-005,1.440143e-004
-6.706447e-006,8.210535e-005
5.876794e-005,6.119892e-005
1.205148e-004,7.821578e-005
1.663793e-004,1.171115e-004
1.898788e-004,1.553589e-004
1.905271e-004,1.786963e-004
1.678379e-004,2.111094e-004
1.258630e-004,2.948972e-004
7.043665e-005,4.305459e-004
9.338019e-006,5.708945e-004
-4.868137e-005,6.592202e-004
-9.405965e-005,6.590580e-004
-1.242038e-004,5.655463e-004
-1.428413e-004,4.049396e-004
-1.582375e-004,2.175920e-004
-1.728234e-004,4.158902e-005
-1.778474e-004,-9.956988e-005
-1.618029e-004,-1.989159e-004
-1.245279e-004,-2.718453e-004
-6.731888e-005,-3.532020e-004
1.002961e-007,-4.747511e-004
6.719535e-005,-6.494574e-004
1.195424e-004,-8.731075e-004
1.560072e-004,-1.111181e-003
1.835583e-004,-1.303229e-003
2.026820e-004,-1.388151e-003
2.077060e-004,-1.338397e-003
1.937684e-004,-1.171632e-003
1.665414e-004,-9.461989e-004
1.355869e-004,-7.275729e-004
1.080358e-004,-5.677765e-004
8.988449e-005,-4.841508e-004
7.659513e-005,-4.706994e-004
5.990240e-005,-5.134846e-004
3.251336e-005,-5.987309e-004
-9.137427e-006,-7.178490e-004
-6.942573e-005,-8.611146e-004
-1.423551e-004,-1.014266e-003
-2.217671e-004,-1.164825e-003
-3.050687e-004,-1.299339e-003
-4.055492e-004,-1.400306e-003
-5.343911e-004,-1.448926e-003
-6.794395e-004,-1.420564e-003
-8.055263e-004,-1.281188e-003
-8.703524e-004,-1.011511e-003
-8.546321e-004,-6.225546e-004
-7.763545e-004,-1.530514e-004
-6.831670e-004,3.483787e-004
-6.222305e-004,8.326302e-004
-6.031067e-004,1.260159e-003
-5.916001e-004,1.609411e-003
-5.475183e-004,1.876657e-003
-4.525481e-004,2.076970e-003
-3.224097e-004,2.223316e-003
-1.822232e-004,2.298839e-003
-5.516398e-005,2.258971e-003
4.418206e-005,2.066112e-003
1.091703e-004,1.724964e-003
1.432040e-004,1.301000e-003
1.592484e-004,8.893532e-004
1.699448e-004,5.739738e-004
1.820997e-004,3.976466e-004
1.950649e-004,3.454615e-004
2.088404e-004,3.670162e-004
2.258573e-004,4.059119e-004
2.444948e-004,4.284390e-004
2.600531e-004,4.297355e-004
2.699391e-004,4.164462e-004
2.782044e-004,3.935950e-004
2.851732e-004,3.569682e-004
2.947351e-004,2.916559e-004
3.114278e-004,1.914995e-004
3.389789e-004,7.513654e-005
3.730126e-004,-2.615429e-005
4.085050e-004,-9.519411e-005
4.358940e-004,-1.397621e-004
4.457800e-004,-1.744440e-004
4.391353e-004,-1.961608e-004
4.204978e-004,-1.875713e-004
3.963501e-004,-1.337657e-004
3.731747e-004,-3.166451e-005
3.574544e-004,1.106288e-004
3.451374e-004,2.812837e-004
3.326584e-004,4.644175e-004
3.175863e-004,6.444722e-004
2.987867e-004,8.092928e-004
2.712356e-004,9.553138e-004
2.253711e-004,1.082859e-003
1.649207e-004,1.178316e-003
1.091703e-004,1.204733e-003
8.178122e-005,1.117055e-003
1.015532e-004,8.862739e-004
1.707551e-004,5.209784e-004
2.688046e-004,7.465034e-005
3.629646e-004,-3.731361e-004
4.224426e-004,-7.559343e-004
4.328148e-004,-1.039062e-003
4.020224e-004,-1.215551e-003
3.485408e-004,-1.287184e-003
2.960316e-004,-1.267088e-003
2.621599e-004,-1.162556e-003
2.493568e-004,-9.799085e-004
2.482223e-004,-7.437794e-004
2.457913e-004,-5.057055e-004
2.313675e-004,-3.282440e-004
2.010613e-004,-2.464010e-004
1.590864e-004,-2.588801e-004
1.086841e-004,-3.350507e-004
4.726130e-005,-4.202971e-004
-3.377136e-005,-4.437966e-004
-1.430034e-004,-3.634122e-004
-2.946965e-004,-1.906506e-004
-4.972781e-004,7.485573e-007
-7.416725e-004,1.213252e-004
-9.969254e-004,1.216493e-004
-1.213283e-003,1.565857e-005
-1.344069e-003,-1.396000e-004
-1.354117e-003,-2.796244e-004
-1.240023e-003,-3.373197e-004
-1.030635e-003,-2.533699e-004
-7.849440e-004,-1.772689e-005
-5.715040e-004,3.041349e-004
-4.314796e-004,6.127074e-004
-3.626019e-004,8.232304e-004
-3.290543e-004,8.974564e-004
-2.903207e-004,8.485126e-004
-2.251705e-004,7.272876e-004
-1.295519e-004,5.841838e-004
-1.562004e-005,4.553419e-004
9.750156e-005,3.511338e-004
1.926339e-004,2.707494e-004
2.624841e-004,1.991165e-004
3.078624e-004,1.031738e-004
3.334687e-004,-6.472583e-005
3.420582e-004,-3.608192e-004
3.410858e-004,-8.173570e-004
3.370341e-004,-1.394148e-003
3.357376e-004,-1.994924e-003
3.425444e-004,-2.531523e-003
3.611819e-004,-2.950949e-003
3.867882e-004,-3.218844e-003
4.063981e-004,-3.332938e-003
4.080188e-004,-3.306845e-003
3.851676e-004,-3.149317e-003
3.363859e-004,-2.867971e-003
2.715597e-004,-2.484200e-003
2.091646e-004,-2.020692e-003
1.636242e-004,-1.488145e-003
1.386662e-004,-8.912588e-004
1.304008e-004,-2.301945e-004
1.386662e-004,4.780310e-004
1.586002e-004,1.189823e-003
1.795066e-004,1.856075e-003
1.889064e-004,2.441943e-003
1.820997e-004,2.921011e-003
1.568175e-004,3.263619e-003
1.140322e-004,3.451941e-003
6.168512e-005,3.494727e-003
4.638125e-006,3.413045e-003
-4.803310e-005,3.232665e-003
-8.757704e-005,2.986162e-003
-1.011905e-004,2.716321e-003
-7.607040e-005,2.460257e-003
-1.383732e-005,2.228502e-003
6.670914e-005,2.004041e-003
1.354248e-004,1.767101e-003
1.785342e-004,1.509902e-003
1.960373e-004,1.233580e-003
1.970097e-004,9.449415e-004
1.871237e-004,6.434998e-004
1.702689e-004,3.192070e-004
1.516314e-004,-2.469570e-005
1.386662e-004,-3.525538e-004
1.333180e-004,-6.149375e-004
1.359110e-004,-7.758683e-004
1.415833e-004,-8.244879e-004
1.415833e-004,-7.748959e-004
1.234320e-004,-6.598296e-004
7.918817e-005,-5.199672e-004
1.517237e-005,-3.864254e-004
-4.738484e-005,-2.754107e-004
-8.109443e-005,-1.938919e-004
-6.569822e-005,-1.396000e-004
3.017472e-006,-1.028112e-004
1.080358e-004,-7.785312e-005
2.117576e-004,-6.472583e-005
2.767458e-004,-7.493595e-005
2.833905e-004,-1.214487e-004
2.360674e-004,-2.099363e-004
1.579519e-004,-3.392644e-004
7.999851e-005,-4.933886e-004
3.251336e-005,-6.467023e-004
2.635488e-005,-7.776510e-004
4.547859e-005,-8.737558e-004
6.152305e-005,-9.293442e-004
5.050261e-005,-9.452265e-004
5.610517e-006,-9.308027e-004
-6.423963e-005,-9.038999e-004
-1.410586e-004,-8.748902e-004
-2.050744e-004,-8.528493e-004
-2.452666e-004,-8.458805e-004
-2.616352e-004,-8.578734e-004
-2.553146e-004,-8.915829e-004
-2.292221e-004,-9.471713e-004
-1.891920e-004,-1.021397e-003
-1.425172e-004,-1.094165e-003
-9.065628e-005,-1.136626e-003
-3.263690e-005,-1.139867e-003
3.170304e-005,-1.114261e-003
9.750156e-005,-1.088654e-003
1.597346e-004,-1.113937e-003
2.130541e-004,-1.228679e-003
2.449810e-004,-1.414568e-003
2.451431e-004,-1.606291e-003
2.145127e-004,-1.725085e-003
1.671896e-004,-1.711309e-003
1.237561e-004,-1.540330e-003
9.766362e-005,-1.238565e-003
9.085688e-005,-8.742420e-004
9.409818e-005,-5.113778e-004
9.490851e-005,-1.771992e-004
8.453633e-005,1.328318e-004
5.666109e-005,4.316803e-004
9.175954e-006,7.308531e-004
-4.981582e-005,1.035860e-003
-1.037836e-004,1.332440e-003
-1.381414e-004,1.589477e-003
-1.360346e-004,1.773907e-003
-9.616651e-005,1.877305e-003
-4.203669e-005,1.918146e-003
-1.286493e-005,1.921063e-003
-3.782299e-005,1.896429e-003
-1.229073e-004,1.840354e-003
-2.428356e-004,1.745060e-003
-3.585502e-004,1.619621e-003
-4.429862e-004,1.491913e-003
-4.886886e-004,1.397915e-003
-5.074882e-004,1.361612e-003
-5.061917e-004,1.384787e-003
-4.750752e-004,1.449290e-003
-4.023079e-004,1.520599e-003
-2.937241e-004,1.568084e-003
-1.710407e-004,1.589801e-003
-5.953974e-005,1.604549e-003
3.251336e-005,1.626914e-003
1.109530e-004,1.653006e-003
1.861513e-004,1.655113e-003
2.637806e-004,1.581535e-003
3.397893e-004,1.394512e-003
3.994293e-004,1.092421e-003
4.271425e-004,7.156190e-004
4.141773e-004,3.192070e-004
3.561579e-004,-4.965376e-005
2.475741e-004,-3.587123e-004
9.069481e-005,-5.922483e-004
-9.616651e-005,-7.478310e-004
-2.844864e-004,-8.301602e-004
-4.528722e-004,-8.522011e-004
-5.818762e-004,-8.348601e-004
-6.481609e-004,-8.005023e-004
-6.420024e-004,-7.791097e-004
-5.705316e-004,-7.977472e-004
-4.614617e-004,-8.771592e-004
-3.481781e-004,-1.010863e-003
-2.629317e-004,-1.167742e-003
-2.238740e-004,-1.302419e-003
-2.271153e-004,-1.375996e-003
-2.486699e-004,-1.372593e-003
-2.522354e-004,-1.291722e-003
-2.047502e-004,-1.122364e-003
-9.924574e-005,-8.625733e-004
4.191315e-005,-5.585388e-004
1.890685e-004,-2.828657e-004
3.248792e-004,-8.563225e-005
4.470765e-004,2.376183e-005
5.598741e-004,6.622294e-005
6.610029e-004,7.853991e-005
7.441425e-004,8.858796e-005
8.084825e-004,1.081979e-004
8.502954e-004,1.263492e-004
8.697432e-004,1.184080e-004
8.697432e-004,5.439218e-005
8.470541e-004,-8.547019e-005
7.814175e-004,-3.079858e-004
6.490100e-004,-5.985689e-004
4.472386e-004,-9.235098e-004
2.090025e-004,-1.222520e-003
-1.108221e-005,-1.421050e-003
-1.681235e-004,-1.456219e-003
-2.561249e-004,-1.307605e-003
-3.100927e-004,-1.024639e-003
-3.826980e-004,-6.977529e-004
-5.113778e-004,-4.087905e-004
-6.920806e-004,-2.045882e-004
-8.773212e-004,-8.854943e-005
-1.004705e-003,-9.623623e-006
-1.034687e-003,9.847395e-005
-9.651606e-004,2.624841e-004
-8.265948e-004,4.627969e-004
-6.601537e-004,6.635960e-004
-4.880404e-004,8.186926e-004
-3.165753e-004,8.895152e-004
-1.515928e-004,8.528884e-004
1.720949e-006,7.016813e-004
1.363972e-004,4.467524e-004
2.391467e-004,1.120874e-004
2.931144e-004,-2.702246e-004
2.876042e-004,-6.432990e-004
2.273159e-004,-9.380957e-004
1.333180e-004,-1.102268e-003
3.769945e-005,-1.133384e-003
-3.296103e-005,-1.067100e-003
-5.856735e-005,-9.528436e-004
-3.604027e-005,-8.275671e-004
2.651694e-005,-7.032631e-004
1.133840e-004,-5.666421e-004
2.046267e-004,-4.094387e-004
2.801492e-004,-2.366771e-004
3.284447e-004,-6.278104e-005
3.564820e-004,9.652917e-005
3.747954e-004,2.359054e-004
3.935950e-004,3.717161e-004
4.162841e-004,5.350781e-004
4.461041e-004,7.434942e-004
4.773828e-004,9.786512e-004
4.958582e-004,1.195009e-003
4.942376e-004,1.344271e-003
4.721967e-004,1.395484e-003
4.362182e-004,1.339409e-003
4.031568e-004,1.191281e-003
3.895433e-004,9.867544e-004
3.984569e-004,7.721797e-004
4.153117e-004,5.914768e-004
4.159600e-004,4.687933e-004
3.801436e-004,4.034809e-004
3.025142e-004,3.769022e-004
1.916615e-004,3.687990e-004
7.497447e-005,3.634508e-004
-1.335113e-005,3.582647e-004
-5.078821e-005,3.576164e-004
-3.863332e-005,3.731747e-004
3.665733e-006,4.028327e-004
4.936815e-005,4.292493e-004
7.708133e-005,4.307079e-004
7.627100e-005,3.945674e-004
5.325772e-005,3.279585e-004
2.489629e-005,2.496809e-004
7.879432e-006,1.824238e-004
1.193106e-005,1.325077e-004
3.705119e-005,9.344993e-005
7.384002e-005,5.925414e-005
1.094944e-004,2.133085e-005
1.359110e-004,-2.712668e-005
1.485521e-004,-8.806324e-005
1.517934e-004,-1.551583e-004
1.498487e-004,-2.146363e-004
1.475797e-004,-2.548284e-004
1.445005e-004,-2.716832e-004
1.334801e-004,-2.750866e-004
1.138702e-004,-2.757348e-004
8.680524e-005,-2.830278e-004
5.439218e-005,-3.002067e-004
2.489629e-005,-3.240303e-004
-5.479652e-007,-3.402368e-004
-2.420950e-005,-3.345645e-004
-4.900550e-005,-3.011791e-004
-7.201877e-005,-2.488320e-004
-9.081835e-005,-1.890299e-004
-1.062146e-004,-1.306864e-004
-1.180453e-004,-7.412562e-005
-1.225832e-004,-1.967167e-005
-1.199901e-004,2.878586e-005
-1.138316e-004,6.865393e-005
-1.063766e-004,9.798775e-005
-9.794922e-005,1.200286e-004
-8.887356e-005,1.417454e-004
-8.158062e-005,1.689724e-004
-8.465986e-005,2.034923e-004
-1.024871e-004,2.433604e-004
-1.274451e-004,2.859836e-004
-1.459206e-004,3.195311e-004
-1.436516e-004,3.281205e-004
-1.203142e-004,2.981384e-004
-8.871149e-005,2.234263e-004
-6.942573e-005,1.028497e-004
-7.331530e-005,-6.618442e-005
-9.065628e-005,-2.752487e-004
-1.081593e-004,-5.021401e-004
-1.133454e-004,-7.168766e-004
-1.045939e-004,-8.938519e-004
-8.530812e-005,-1.019290e-003
-6.002594e-005,-1.081199e-003
-3.571614e-005,-1.062238e-003
-1.464765e-005,-9.392301e-004
1.072688e-006,-6.953219e-004
9.986281e-006,-3.371576e-004
6.258778e-006,1.012291e-004
-1.075808e-005,5.681394e-004
-3.798505e-005,1.007985e-003
-6.197072e-005,1.382681e-003
-7.315322e-005,1.674075e-003
-7.185670e-005,1.879736e-003
-6.391550e-005,2.017330e-003
-5.435365e-005,2.113597e-003
-4.900550e-005,2.158165e-003
-5.240886e-005,2.107277e-003
-6.634648e-005,1.923008e-003
-9.373552e-005,1.609735e-003
-1.289037e-004,1.220291e-003
-1.596961e-004,8.361956e-004
-1.718510e-004,5.316747e-004
-1.603444e-004,3.477304e-004
-1.267968e-004,2.822560e-004
-8.012204e-005,2.957075e-004
-3.247483e-005,3.289309e-004
2.207145e-006,3.282826e-004
1.889987e-005,2.595669e-004
1.987227e-005,1.091703e-004
4.638125e-006,-1.212866e-004
-2.096820e-005,-4.131662e-004
-4.527799e-005,-7.322728e-004
-5.775702e-005,-1.047652e-003
-5.451572e-005,-1.351848e-003
-4.576419e-005,-1.671603e-003
-3.911951e-005,-2.041436e-003
-3.312309e-005,-2.450814e-003
-1.724069e-005,-2.824700e-003
2.311357e-005,-3.059371e-003
9.328786e-005,-3.080439e-003
1.853410e-004,-2.874616e-003
2.863077e-004,-2.483875e-003
3.756057e-004,-1.978393e-003
4.282770e-004,-1.415540e-003
4.235771e-004,-8.319429e-004
3.592371e-004,-2.429977e-004
2.483844e-004,3.551855e-004
1.179218e-004,9.690893e-004
-5.571990e-006,1.588828e-003
-9.227693e-005,2.153952e-003
-1.216107e-004,2.567220e-003
-8.838737e-005,2.739659e-003
-7.678839e-006,2.623781e-003
9.507057e-005,2.241143e-003
1.908512e-004,1.675047e-003
2.491947e-004,1.035374e-003
2.482223e-004,4.183910e-004
1.814514e-004,-1.114006e-004
4.742337e-005,-5.186707e-004
-1.413827e-004,-7.953162e-004
-3.527159e-004,-9.539781e-004
-5.423322e-004,-1.025449e-003
-6.817085e-004,-1.046841e-003
-7.616066e-004,-1.039711e-003
-7.831613e-004,-9.844464e-004
-7.538275e-004,-8.510666e-004
-6.734431e-004,-6.499436e-004
-5.462218e-004,-4.345588e-004
-3.880461e-004,-2.653627e-004
-2.240360e-004,-1.760647e-004
-7.671866e-005,-1.652063e-004
3.543054e-005,-2.031296e-004
1.004187e-004,-2.541802e-004
1.200286e-004,-2.903207e-004
1.065772e-004,-2.974516e-004
6.687121e-005,-2.726556e-004
-1.844488e-006,-2.185258e-004
-9.000802e-005,-1.331174e-004
-1.747682e-004,4.151929e-006
-2.290601e-004,2.310434e-004
-2.334358e-004,5.548500e-004
-1.810887e-004,9.016701e-004
-9.681477e-005,1.180099e-003
-1.562004e-005,1.354643e-003
3.656499e-005,1.452369e-003
5.844381e-005,1.521571e-003
5.876794e-005,1.590287e-003
4.742337e-005,1.657544e-003
3.640293e-005,1.724964e-003
4.677511e-005,1.803241e-003
9.069481e-005,1.873416e-003
1.586002e-004,1.856075e-003
2.229401e-004,1.638258e-003
2.592428e-004,1.151899e-003
2.657254e-004,4.148255e-004
2.569738e-004,-4.687546e-004
2.367157e-004,-1.289615e-003
1.994406e-004,-1.835776e-003
1.326697e-004,-1.998489e-003
3.850978e-005,-1.814707e-003
-5.338126e-005,-1.429964e-003
-9.811128e-005,-1.021235e-003
-7.169464e-005,-7.445897e-004
9.500085e-006,-6.971046e-004
1.013911e-004,-9.016310e-004
1.639484e-004,-1.297719e-003
1.731861e-004,-1.763657e-003
1.318594e-004,-2.165903e-003
6.508849e-005,-2.418725e-003
3.503668e-006,-2.498948e-003
-3.117831e-005,-2.422939e-003
-3.928157e-005,-2.226353e-003
-3.247483e-005,-1.943225e-003
-2.566809e-005,-1.606615e-003
-2.583016e-005,-1.242940e-003
-2.712668e-005,-8.779695e-004
-2.064406e-005,-5.317981e-004
-3.858999e-007,-2.152845e-004
3.575467e-005,6.654708e-005
9.053275e-005,3.078624e-004
1.626518e-004,5.055821e-004
2.440086e-004,6.619753e-004
3.260137e-004,7.822278e-004
3.984569e-004,8.690950e-004
4.524247e-004,9.284109e-004
4.793275e-004,9.716824e-004
4.773828e-004,1.005230e-003
4.553419e-004,1.022409e-003
4.341113e-004,1.005392e-003
4.326527e-004,9.337591e-004
4.587452e-004,7.989206e-004
5.034753e-004,6.122212e-004
5.467468e-004,4.055878e-004
5.708945e-004,2.171058e-004
5.683015e-004,7.384002e-005
5.449640e-004,-1.270286e-005
5.140096e-004,-2.874733e-005
4.913204e-004,6.978839e-005
4.794896e-004,3.111037e-004
4.718725e-004,6.272933e-004
4.597176e-004,8.856256e-004
4.342734e-004,9.904819e-004
3.914881e-004,9.271143e-004
3.266619e-004,7.373357e-004
2.321778e-004,4.900239e-004
1.028497e-004,2.517878e-004
-5.500191e-005,5.471631e-005
-2.130156e-004,-1.099421e-004
-3.295405e-004,-2.640662e-004
-3.752429e-004,-4.152731e-004
-3.467195e-004,-5.530285e-004
-2.635799e-004,-6.609641e-004
-1.624512e-004,-7.343796e-004
-8.174268e-005,-7.776510e-004
-4.527799e-005,-7.805682e-004
-4.414354e-005,-7.128249e-004
-5.176061e-005,-5.612939e-004
-3.749886e-005,-3.462333e-004
1.906194e-005,-1.131834e-004
1.153287e-004,1.044704e-004
2.224539e-004,2.960316e-004
3.012177e-004,4.684692e-004
3.230965e-004,6.363689e-004
2.807975e-004,8.076721e-004
1.858272e-004,9.797857e-004
6.492643e-005,1.144444e-003
-4.576419e-005,1.286900e-003
-1.146419e-004,1.393539e-003
-1.284175e-004,1.448966e-003
-9.260107e-005,1.443293e-003
-2.453363e-005,1.380088e-003
5.277153e-005,1.275879e-003
1.185701e-004,1.151413e-003
1.564933e-004,1.022733e-003
1.573037e-004,9.037769e-004
1.094944e-004,8.081583e-004
-2.492749e-006,7.365254e-004
-1.848162e-004,6.814231e-004
-4.288866e-004,6.397723e-004
-7.100698e-004,6.162729e-004
-9.948185e-004,6.117350e-004
-1.239051e-003,6.180556e-004
-1.391392e-003,6.237278e-004
-1.409220e-003,6.272933e-004
-1.276488e-003,6.441481e-004
-1.023666e-003,6.919574e-004
-7.214144e-004,7.626179e-004
-4.454172e-004,8.207994e-004
-2.441321e-004,8.269579e-004
-1.238797e-004,7.538663e-004
-6.229485e-005,5.804563e-004
-2.323711e-005,2.999212e-004
1.598270e-005,-8.060823e-005
5.828175e-005,-5.266119e-004
9.020862e-005,-9.826636e-004
1.072255e-004,-1.390744e-003
1.101427e-004,-1.711796e-003
1.086841e-004,-1.940794e-003
1.117633e-004,-2.096539e-003
1.279698e-004,-2.197668e-003
1.555210e-004,-2.234457e-003
1.840444e-004,-2.173844e-003
2.044647e-004,-1.970776e-003
2.192126e-004,-1.604508e-003
2.328261e-004,-1.092220e-003
2.431983e-004,-4.899852e-004
2.436845e-004,1.210010e-004
2.328261e-004,6.619753e-004
2.124059e-004,1.098580e-003
1.780480e-004,1.435190e-003
1.268354e-004,1.683637e-003
6.735741e-005,1.852509e-003
2.214118e-005,1.944725e-003
1.176900e-005,1.951694e-003
3.948217e-005,1.840678e-003
8.891209e-005,1.591583e-003
1.323456e-004,1.232122e-003
1.509831e-004,8.360335e-004
1.469315e-004,4.864584e-004
1.363972e-004,2.352571e-004
1.328318e-004,9.247754e-005
1.443384e-004,3.202716e-005
1.675138e-004,9.662150e-006
1.897167e-004,-1.659243e-005
1.963614e-004,-6.893953e-005
1.790204e-004,-1.486757e-004
1.365593e-004,-2.517492e-004
7.967438e-005,-3.685983e-004
2.311357e-005,-4.825302e-004
-2.096820e-005,-5.702075e-004
-5.013995e-005,-6.133168e-004
-6.116039e-005,-6.129927e-004
-5.565017e-005,-5.891691e-004
-3.733679e-005,-5.693972e-004
-1.286493e-005,-5.773384e-004
1.549650e-005,-6.291993e-004
4.612685e-005,-7.345417e-004
7.659513e-005,-8.959587e-004
1.059290e-004,-1.103240e-003
1.313732e-004,-1.327539e-003
1.545486e-004,-1.518938e-003
1.752929e-004,-1.635301e-003
1.947408e-004,-1.662528e-003
2.067336e-004,-1.612125e-003
1.987924e-004,-1.502407e-003
1.616794e-004,-1.343745e-003
9.685330e-005,-1.128036e-003
1.419998e-005,-8.483115e-004
-7.444975e-005,-5.019780e-004
-1.577513e-004,-9.600444e-005
-2.196603e-004,3.451374e-004
-2.404046e-004,7.760693e-004
-2.113949e-004,1.145741e-003
-1.412206e-004,1.410232e-003
-4.803310e-005,1.542153e-003
4.693717e-005,1.553984e-003
1.242423e-004,1.467117e-003
1.707551e-004,1.281552e-003
1.859892e-004,9.896717e-004
1.751309e-004,6.117350e-004
1.501728e-004,2.031682e-004
1.198666e-004,-1.627754e-004
8.972242e-005,-4.386105e-004
6.411610e-005,-6.136410e-004
4.531652e-005,-7.095836e-004
3.121684e-005,-7.638755e-004
1.792748e-005,-8.060125e-004
1.558884e-006,-8.444220e-004
-1.513384e-005,-8.646801e-004
-2.550602e-005,-8.400462e-004
-2.745081e-005,-7.557723e-004
-2.177852e-005,-6.241752e-004
-7.030578e-006,-4.797751e-004
1.290346e-005,-3.627639e-004
3.332369e-005,-2.914552e-004
4.531652e-005,-2.567732e-004
4.304761e-005,-2.358668e-004
2.910999e-005,-2.094502e-004
1.711715e-005,-1.689338e-004
1.889987e-005,-1.070249e-004
3.818565e-005,-4.113403e-006
6.444023e-005,1.586002e-004
8.631905e-005,3.725265e-004
9.442231e-005,5.911527e-004
8.777764e-005,7.515975e-004
7.173317e-005,8.078342e-004
5.974033e-005,7.525698e-004
6.508849e-005,6.219451e-004
8.680524e-005,4.650658e-004
1.195424e-004,3.206656e-004
1.534141e-004,1.971717e-004
1.809652e-004,8.793970e-005
2.034923e-004,-1.173047e-005
2.265056e-004,-1.047560e-004
2.566497e-004,-1.934057e-004
2.903593e-004,-2.796244e-004
3.171001e-004,-3.651949e-004
3.260137e-004,-4.512515e-004
3.122381e-004,-5.267740e-004
2.765838e-004,-5.703696e-004
2.255332e-004,-5.669662e-004
1.704310e-004,-5.191569e-004
1.242423e-004,-4.450931e-004
9.442231e-005,-3.707051e-004
8.340187e-005,-3.237062e-004
7.643307e-005,-3.128478e-004
5.066468e-005,-3.348887e-004
-1.545797e-005,-3.822118e-004
-1.199901e-004,-4.481723e-004
-2.449425e-004,-5.155915e-004
-3.627639e-004,-5.582146e-004
-4.517378e-004,-5.321222e-004
-5.071641e-004,-3.993907e-004
-5.376324e-004,-1.535376e-004
-5.616181e-004,1.850168e-004
-5.995413e-004,5.739738e-004
-6.719845e-004,9.651998e-004
-7.810544e-004,1.316072e-003
-8.988759e-004,1.594338e-003
-9.795844e-004,1.787197e-003
-9.820154e-004,1.900643e-003
-8.901244e-004,1.958014e-003
-7.163903e-004,1.975679e-003
-4.972781e-004,1.932894e-003
-2.757348e-004,1.782173e-003
-8.968389e-005,1.498234e-003
4.045456e-005,1.110086e-003
1.150046e-004,6.773715e-004
1.527658e-004,2.535705e-004
1.705930e-004,-1.203142e-004
1.858272e-004,-3.967976e-004
2.112714e-004,-5.340669e-004
2.482223e-004,-5.173742e-004
2.869559e-004,-3.718396e-004
3.145071e-004,-1.598582e-004
3.224483e-004,5.341979e-005
3.093210e-004,2.130541e-004
2.804733e-004,2.503292e-004
2.487085e-004,1.020394e-004
2.284504e-004,-2.391081e-004
2.271538e-004,-7.227109e-004
2.427121e-004,-1.267899e-003
2.741528e-004,-1.766736e-003
3.218000e-004,-2.095728e-003
3.804677e-004,-2.169630e-003
4.336251e-004,-1.971424e-003
4.662003e-004,-1.566423e-003
4.751139e-004,-1.070665e-003
4.674968e-004,-5.956517e-004
4.555039e-004,-2.041020e-004
4.415663e-004,1.026876e-004
4.211461e-004,3.623164e-004
3.916502e-004,6.075213e-004
3.574544e-004,8.452713e-004
3.227724e-004,1.067949e-003
2.903593e-004,1.271666e-003
2.511395e-004,1.460958e-003
1.986303e-004,1.639879e-003
1.278078e-004,1.802107e-003
3.186510e-005,1.937756e-003
-9.243900e-005,2.046988e-003
-2.506147e-004,2.140500e-003
-4.418518e-004,2.209378e-003
-6.366542e-004,2.209378e-003
-7.860785e-004,2.085884e-003
-8.486357e-004,1.815558e-003
-8.170329e-004,1.429518e-003
-7.173628e-004,9.979371e-004
-5.969483e-004,5.982835e-004
-4.909576e-004,2.806354e-004
-4.105732e-004,4.969229e-005
-3.485022e-004,-1.198280e-004
-2.854588e-004,-2.588801e-004
-2.078295e-004,-3.976080e-004
-1.122110e-004,-5.530285e-004
-2.654814e-006,-7.233592e-004
1.073875e-004,-8.898003e-004
1.994406e-004,-1.024152e-003
2.657254e-004,-1.100647e-003
3.028383e-004,-1.106968e-003
3.114278e-004,-1.052028e-003
2.994350e-004,-9.620814e-004
2.820940e-004,-8.695421e-004
2.744769e-004,-8.000161e-004
2.786906e-004,-7.625790e-004
2.887387e-004,-7.543136e-004
3.012177e-004,-7.656582e-004
3.196932e-004,-7.706822e-004
3.427064e-004,-7.086112e-004
3.683128e-004,-5.280706e-004
3.937570e-004,-2.501286e-004
4.179048e-004,4.709924e-005
4.414042e-004,2.767458e-004
4.658761e-004,3.872744e-004
4.973168e-004,3.770643e-004
5.425331e-004,2.832284e-004
6.028214e-004,1.482280e-004
6.704027e-004,3.017472e-006
7.297186e-004,-1.381414e-004
7.575939e-004,-2.746004e-004
7.425218e-004,-4.113835e-004
6.752646e-004,-5.564319e-004
5.475571e-004,-7.181731e-004
3.603715e-004,-9.076274e-004
1.316974e-004,-1.131926e-003
-9.713889e-005,-1.376806e-003
-2.862691e-004,-1.580523e-003
-4.065215e-004,-1.657017e-003
-4.515757e-004,-1.559292e-003
-4.374760e-004,-1.317329e-003
-3.924218e-004,-1.012646e-003
-3.378059e-004,-7.259523e-004
-2.828657e-004,-4.980884e-004
-2.350565e-004,-3.295405e-004
-2.041020e-004,-1.989159e-004
-1.984297e-004,-8.563225e-005
-2.282497e-004,1.857574e-005
-3.065273e-004,1.109530e-004
-4.350450e-004,1.855030e-004
-5.888450e-004,2.393087e-004
-7.204420e-004,2.686426e-004
-7.744097e-004,2.678322e-004
-7.214144e-004,2.372019e-004
-5.681007e-004,1.895547e-004
-3.528779e-004,1.443384e-004
-1.284175e-004,1.116012e-004
4.904402e-005,9.280167e-005
1.406109e-004,7.562274e-005
1.417454e-004,4.402000e-005
7.983644e-005,-3.627206e-006
2.623614e-007,-5.727083e-005
-5.937768e-005,-1.052422e-004
-8.822530e-005,-1.344139e-004
-9.632857e-005,-1.337657e-004
-9.243900e-005,-9.649064e-005
-7.736692e-005,-2.550602e-005
-4.446767e-005,7.351589e-005
9.824215e-006,1.934442e-004
7.886404e-005,3.255275e-004
1.511452e-004,4.585832e-004
2.090025e-004,5.827253e-004
2.404432e-004,6.827196e-004
2.454672e-004,7.434942e-004
2.337985e-004,7.629421e-004
2.132162e-004,7.618076e-004
1.947408e-004,7.605111e-004
1.895547e-004,7.644006e-004
2.038164e-004,7.665075e-004
2.355812e-004,7.525698e-004
2.743149e-004,7.169155e-004
3.055935e-004,6.559788e-004
3.167760e-004,5.710566e-004
2.986247e-004,4.717105e-004
2.475741e-004,3.662059e-004
1.689724e-004,2.577842e-004
7.902610e-005,1.438522e-004
3.017472e-006,3.186510e-005
-4.171256e-005,-6.440170e-005
-4.916756e-005,-1.345760e-004
-2.226472e-005,-1.801163e-004
2.052053e-005,-2.107467e-004
5.423012e-005,-2.371633e-004
6.314371e-005,-2.619593e-004
4.677511e-005,-2.914552e-004
1.971020e-005,-3.371576e-004
-1.520357e-006,-3.976080e-004
-1.075808e-005,-4.557894e-004
-8.002969e-006,-4.937127e-004
5.124321e-006,-4.993849e-004
2.359977e-005,-4.750752e-004
4.175109e-005,-4.355313e-004
5.747142e-005,-3.961493e-004
6.606088e-005,-3.574158e-004
6.379197e-005,-3.091203e-004
5.050261e-005,-2.344082e-004
3.186510e-005,-1.232314e-004
1.290346e-005,5.504044e-005
-2.978945e-006,3.261758e-004
-1.416145e-005,6.661890e-004
-1.805102e-005,1.002961e-003
-1.351319e-005,1.265021e-003
-2.978945e-006,1.416552e-003
5.448452e-006,1.459986e-003
5.286387e-006,1.427087e-003
-7.100305e-007,1.348971e-003
-9.461558e-006,1.244763e-003
-1.788895e-005,1.121107e-003
-2.566809e-005,9.768684e-004
-2.955766e-005,8.044308e-004
-2.777494e-005,5.908285e-004
-2.080613e-005,3.315239e-004
-1.983374e-005,3.024445e-005
-3.992984e-005,-2.942103e-004
-9.730096e-005,-5.894933e-004
-1.930815e-004,-7.823510e-004
-3.078238e-004,-8.194639e-004
-4.016596e-004,-6.962943e-004
-4.402311e-004,-4.671340e-004
-4.058733e-004,-2.211189e-004
-3.087962e-004,-3.409549e-005
-1.789819e-004,5.860588e-005
-5.516398e-005,7.059871e-005
3.218923e-005,5.017848e-005
7.254349e-005,4.677511e-005
7.902610e-005,7.400208e-005
7.772959e-005,1.206769e-004
9.247754e-005,1.650828e-004
1.291043e-004,1.853410e-004
1.736723e-004,1.667035e-004
2.041406e-004,1.094944e-004
2.034923e-004,2.619281e-005
1.671896e-004,-6.893953e-005
1.059290e-004,-1.600202e-004
3.948217e-005,-2.355427e-004
-9.947754e-006,-2.883759e-004
-2.469570e-005,-3.097686e-004
9.106227e-007,-2.825416e-004
5.795762e-005,-1.848162e-004
1.265113e-004,-2.777494e-005
1.816135e-004,1.532520e-004
2.075439e-004,3.101313e-004
1.926339e-004,4.007258e-004
1.287802e-004,3.973225e-004
2.359977e-005,2.953834e-004
-1.015147e-004,1.117633e-004
-2.123673e-004,-1.128592e-004
-2.776796e-004,-3.345645e-004
-2.854588e-004,-5.238568e-004
-2.486699e-004,-6.734431e-004
-1.898403e-004,-7.899680e-004
-1.357104e-004,-8.932036e-004
-1.026491e-004,-9.977358e-004
-8.822530e-005,-1.105671e-003
-7.720486e-005,-1.206476e-003
-5.727083e-005,-1.273409e-003
-2.680255e-005,-1.260282e-003
-3.858999e-007,-1.132250e-003
9.013889e-006,-8.966069e-004
-3.303076e-006,-5.990551e-004
-2.809907e-005,-2.972895e-004
-5.062615e-005,-3.231277e-005
-5.143648e-005,1.855030e-004
-2.226472e-005,3.628026e-004
2.992031e-005,5.034753e-004
8.388807e-005,6.106006e-004
1.164632e-004,6.992503e-004
1.195424e-004,7.833623e-004
1.026876e-004,8.525642e-004
7.918817e-005,8.702294e-004
6.330578e-005,7.984344e-004
6.735741e-005,6.400964e-004
8.875003e-005,4.472386e-004
1.137081e-004,2.997591e-004
1.286181e-004,2.636185e-004
1.281319e-004,3.662059e-004
1.180839e-004,5.827253e-004
1.073875e-004,8.486747e-004
9.490851e-005,1.095338e-003
8.032264e-005,1.277662e-003
7.027458e-005,1.376036e-003
6.962632e-005,1.388353e-003
8.145709e-005,1.301324e-003
1.041462e-004,1.099714e-003
1.336421e-004,7.913035e-004
1.608691e-004,4.107739e-004
1.754550e-004,1.614476e-005
1.772377e-004,-3.293785e-004
1.715654e-004,-5.724764e-004
1.637863e-004,-6.865704e-004
1.530900e-004,-6.815463e-004
1.297526e-004,-5.980827e-004
8.826383e-005,-4.809095e-004
3.883391e-005,-3.582261e-004
3.017472e-006,-2.374874e-004
2.531276e-006,-1.219349e-004
4.272347e-005,-2.031993e-005
1.086841e-004,4.272347e-005
1.733481e-004,3.559260e-005
2.135403e-004,-4.625038e-005
2.182402e-004,-1.780095e-004
1.999268e-004,-3.232200e-004
1.783722e-004,-4.510895e-004
1.650828e-004,-5.381186e-004
1.628139e-004,-5.562698e-004
1.696206e-004,-4.864197e-004
1.808031e-004,-3.413713e-004
1.895547e-004,-1.613168e-004
1.872858e-004,-1.520357e-006
1.680000e-004,9.879808e-005
1.383420e-004,1.391524e-004
1.025256e-004,1.550348e-004
6.914012e-005,1.773998e-004
4.450620e-005,2.046267e-004
3.299956e-005,2.059233e-004
3.834771e-005,1.595726e-004
6.217132e-005,6.897806e-005
9.669123e-005,-5.030202e-005
1.240803e-004,-1.927574e-004
1.316974e-004,-3.689224e-004
1.222976e-004,-5.961379e-004
1.043083e-004,-8.534976e-004
9.150514e-005,-1.067586e-003
9.847395e-005,-1.142946e-003
1.313732e-004,-1.025773e-003
1.864754e-004,-7.368106e-004
2.456293e-004,-3.575778e-004
2.796630e-004,1.144487e-005
2.572980e-004,2.942489e-004
1.618415e-004,4.632831e-004
-1.520357e-006,5.339436e-004
-2.070192e-004,5.376711e-004
-4.178661e-004,4.950479e-004
-5.963000e-004,4.018603e-004
-7.180111e-004,2.496809e-004
-7.726270e-004,4.693717e-005
-7.667927e-004,-1.736337e-004
-7.206041e-004,-3.647087e-004
-6.653398e-004,-4.800992e-004
-6.220684e-004,-5.032745e-004
-5.987309e-004,-4.467137e-004
-5.847933e-004,-3.405610e-004
-5.625904e-004,-2.261429e-004
-5.181845e-004,-1.514308e-004
-4.502792e-004,-1.485136e-004
-3.621157e-004,-2.159328e-004
-2.666592e-004,-3.241924e-004
-1.771992e-004,-4.394208e-004
-1.144799e-004,-5.442770e-004
-9.081835e-005,-6.350336e-004
-9.956988e-005,-7.178490e-004
-1.212866e-004,-8.009885e-004
-1.353863e-004,-8.781315e-004
-1.340898e-004,-9.414990e-004
-1.233935e-004,-9.854188e-004
-1.136696e-004,-9.959530e-004
-1.016767e-004,-9.248063e-004
-7.639453e-005,-7.259523e-004
-2.550602e-005,-4.026320e-004
4.596478e-005,-1.367526e-005
1.271595e-004,3.650715e-004
2.112714e-004,6.794783e-004
2.889007e-004,9.258178e-004
3.532407e-004,1.139906e-003
3.965121e-004,1.354643e-003
4.174185e-004,1.566139e-003
4.245494e-004,1.714267e-003
4.250357e-004,1.721074e-003
4.224426e-004,1.551715e-003
4.179048e-004,1.240225e-003
4.099636e-004,8.656915e-004
3.969983e-004,5.096338e-004
3.807918e-004,2.316917e-004
3.619922e-004,6.103686e-005
3.378445e-004,-8.327101e-006
3.098072e-004,-1.869928e-005
2.759355e-004,-2.680255e-005
2.295848e-004,-6.569822e-005
1.564933e-004,-1.243659e-004
4.126489e-005,-1.707166e-004
-1.136696e-004,-1.731475e-004
-2.801106e-004,-1.063766e-004
-4.212695e-004,4.726130e-005
-5.086227e-004,2.824181e-004
-5.399013e-004,5.618189e-004
-5.287188e-004,8.269579e-004
-4.935506e-004,1.024678e-003
-4.522240e-004,1.129372e-003
-4.167317e-004,1.151251e-003
-3.809152e-004,1.119648e-003
-3.284061e-004,1.066653e-003
-2.417012e-004,1.007175e-003
-1.123730e-004,9.404037e-004
5.957827e-005,8.630985e-004
2.576221e-004,7.741245e-004
4.514523e-004,6.762370e-004
6.109247e-004,5.674912e-004
7.139983e-004,4.409181e-004
7.562974e-004,2.858215e-004
7.537043e-004,9.782569e-005
7.293945e-004,-1.120489e-004
6.974676e-004,-3.211132e-004
6.588960e-004,-4.995471e-004
6.076833e-004,-6.212580e-004
5.383193e-004,-6.713362e-004
4.548557e-004,-6.509160e-004
3.585888e-004,-5.583767e-004
2.469258e-004,-3.763774e-004
1.257009e-004,-1.237176e-004
1.047248e-005,1.276457e-004
-8.093236e-005,2.945730e-004
-1.326312e-004,3.324963e-004
-1.410586e-004,2.410915e-004
-1.161005e-004,5.730935e-005
-7.444975e-005,-1.548341e-004
-2.809907e-005,-3.423437e-004
1.825161e-005,-4.836646e-004
6.719535e-005,-5.672903e-004
1.221355e-004,-5.833348e-004
1.801549e-004,-5.442770e-004
2.337985e-004,-4.984126e-004
2.688046e-004,-5.117019e-004
2.723701e-004,-6.293613e-004
2.422259e-004,-8.603043e-004
1.867996e-004,-1.163366e-003
1.192183e-004,-1.455084e-003
5.325772e-005,-1.646483e-003
-6.058186e-006,-1.696724e-003
-5.775702e-005,-1.619904e-003
-9.940781e-005,-1.464322e-003
-1.267968e-004,-1.274867e-003
-1.366828e-004,-1.072934e-003
-1.266348e-004,-8.698662e-004
-9.373552e-005,-6.864083e-004
-4.381940e-005,-5.536768e-004
1.598270e-005,-4.961436e-004
7.756752e-005,-5.104054e-004
1.370455e-004,-5.467080e-004
1.835583e-004,-5.308256e-004
2.104611e-004,-4.172179e-004
2.098128e-004,-2.089640e-004
1.835583e-004,5.487838e-005
1.427178e-004,3.255275e-004
1.007429e-004,5.652222e-004
6.492643e-005,7.533802e-004
3.170304e-005,8.857877e-004
-7.354709e-006,9.687652e-004
-5.419158e-005,1.011875e-003
-9.422172e-005,1.023381e-003
-1.102662e-004,1.010902e-003
-9.697683e-005,9.814063e-004
-6.018800e-005,9.337591e-004
-1.918548e-005,8.650433e-004
6.744974e-006,7.759072e-004
5.772582e-006,6.751026e-004
-2.291298e-005,5.760806e-004
-8.158062e-005,4.837033e-004
-1.836818e-004,3.934329e-004
-3.394265e-004,2.994350e-004
-5.363359e-004,2.036544e-004
-7.377830e-004,1.128978e-004
-8.893140e-004,3.380988e-005
-9.416611e-004,-2.761287e-005
-8.708386e-004,-6.099833e-005
-6.911082e-004,-5.905355e-005
-4.514136e-004,-2.469570e-005
-2.094502e-004,3.283749e-005
-8.165035e-006,1.000946e-004
1.363972e-004,1.621656e-004
2.203471e-004,2.081922e-004
2.446569e-004,2.310434e-004
2.154851e-004,2.284504e-004
1.511452e-004,2.044647e-004
7.870197e-005,1.759412e-004
2.149292e-005,1.603829e-004
-1.140634e-005,1.571416e-004
-2.048200e-005,1.561692e-004
-1.059602e-005,1.402868e-004
9.662150e-006,9.685330e-005
2.878586e-005,2.975825e-005
3.478228e-005,-3.701266e-005
2.408596e-005,-6.569822e-005
6.582909e-006,-3.409549e-005
1.558884e-006,4.807163e-005
2.278944e-005,1.423936e-004
7.902610e-005,2.044647e-004
1.634622e-004,2.072198e-004
2.511395e-004,1.470936e-004
3.098072e-004,3.186510e-005
3.192070e-004,-1.285796e-004
2.835526e-004,-3.120375e-004
2.192126e-004,-4.847991e-004
1.485521e-004,-6.084549e-004
9.636710e-005,-6.643674e-004
7.529860e-005,-6.530228e-004
8.145709e-005,-5.823624e-004
1.015532e-004,-4.439586e-004
1.174356e-004,-2.243602e-004
1.154908e-004,4.612685e-005
9.182927e-005,2.955454e-004
4.645098e-005,4.644175e-004
-1.950961e-005,5.452881e-004
-9.551824e-005,5.694359e-004
-1.630995e-004,5.849942e-004
-2.096122e-004,6.331276e-004
-2.318152e-004,7.209671e-004
-2.339220e-004,8.170719e-004
-2.178775e-004,8.726604e-004
-1.844921e-004,8.551573e-004
-1.349001e-004,7.608352e-004
-7.542214e-005,6.097901e-004
-1.853722e-005,4.245494e-004
2.554455e-005,2.172679e-004
5.260946e-005,1.144487e-005
6.314371e-005,-1.545100e-004
6.136099e-005,-2.512630e-004
4.969229e-005,-2.763831e-004
2.716521e-005,-2.519113e-004
-6.220252e-006,-2.081536e-004
-4.803310e-005,-1.707166e-004
-8.919769e-005,-1.517549e-004
-1.144799e-004,-1.468929e-004
-1.099421e-004,-1.457585e-004
-7.315322e-005,-1.387897e-004
-1.513384e-005,-1.225832e-004
4.677511e-005,-1.016767e-004
9.896015e-005,-8.060823e-005
1.341283e-004,-6.326724e-005
1.490383e-004,-5.078821e-005
1.436902e-004,-4.203669e-005
1.203528e-004,-3.441962e-005
8.972242e-005,-1.562004e-005
6.638502e-005,2.392390e-005
6.281957e-005,8.210535e-005
8.615699e-005,1.534141e-004
1.385041e-004,2.303951e-004
2.171058e-004,3.088348e-004
3.122381e-004,3.901916e-004
4.025085e-004,4.773828e-004
4.639314e-004,5.686256e-004
4.804620e-004,6.632718e-004
4.491834e-004,7.528940e-004
3.770643e-004,8.143168e-004
2.697770e-004,8.182063e-004
1.415833e-004,7.449528e-004
1.403791e-005,5.875872e-004
-8.514606e-005,3.469201e-004
-1.365208e-004,3.478228e-005
-1.316588e-004,-3.335922e-004
-7.963584e-005,-7.353520e-004
3.179537e-006,-1.131926e-003
9.134307e-005,-1.477125e-003
1.598967e-004,-1.732216e-003
1.884202e-004,-1.878885e-003
1.655690e-004,-1.916646e-003
8.275361e-005,-1.858303e-003
-4.949169e-005,-1.706772e-003
-2.010227e-004,-1.451519e-003
-3.381300e-004,-1.081361e-003
-4.316416e-004,-6.018102e-004
-4.661616e-004,-4.997789e-005
-4.455793e-004,5.153061e-004
-3.857772e-004,1.032781e-003
-3.040963e-004,1.460634e-003
-2.225774e-004,1.782335e-003
-1.491618e-004,2.005500e-003
-7.655660e-005,2.147469e-003
4.313994e-006,2.205165e-003
9.377406e-005,2.130938e-003
1.801549e-004,1.858182e-003
2.422259e-004,1.360154e-003
2.626462e-004,6.843403e-004
2.430362e-004,-5.710876e-005
2.021958e-004,-7.184973e-004
1.691344e-004,-1.185245e-003
1.668655e-004,-1.410192e-003
1.976579e-004,-1.408085e-003
2.375260e-004,-1.238241e-003
2.487085e-004,-9.690502e-004
2.060853e-004,-6.577228e-004
1.094944e-004,-3.472056e-004
-1.918548e-005,-6.359137e-005
-1.477033e-004,1.984683e-004
-2.499665e-004,4.532350e-004
-3.173856e-004,6.998986e-004
-3.596847e-004,9.097734e-004
-4.002010e-004,1.033916e-003
-4.559515e-004,1.037805e-003
-5.204534e-004,9.219283e-004
-5.656697e-004,7.246946e-004
-5.671282e-004,5.117406e-004
-5.180225e-004,3.446512e-004
-4.353692e-004,2.585945e-004
-3.457471e-004,2.491947e-004
-2.664971e-004,2.741528e-004
-1.984297e-004,2.715597e-004
-1.387897e-004,1.803169e-004
-9.162867e-005,-4.300908e-005
-6.845333e-005,-3.979321e-004
-7.218083e-005,-8.095779e-004
-9.324933e-005,-1.155749e-003
-1.154523e-004,-1.336452e-003
-1.332795e-004,-1.323001e-003
-1.415448e-004,-1.154291e-003
-1.302002e-004,-9.019551e-004
-8.368748e-005,-6.364922e-004
3.503668e-006,-4.118697e-004
1.208390e-004,-2.540181e-004
2.449810e-004,-1.569410e-004
3.511338e-004,-9.778715e-005
4.247115e-004,-5.013995e-005
4.608521e-004,2.207145e-006
4.629590e-004,5.941620e-005
4.427008e-004,1.039842e-004
4.138531e-004,1.167873e-004
3.906778e-004,9.085688e-005
3.799815e-004,3.413401e-005
3.767402e-004,-3.360929e-005
3.775505e-004,-8.709085e-005
3.717161e-004,-1.122110e-004
3.517821e-004,-1.172350e-004
3.209897e-004,-1.303623e-004
2.919800e-004,-1.841680e-004
2.731804e-004,-2.943724e-004
2.645909e-004,-4.437966e-004
2.662116e-004,-5.898174e-004
2.840388e-004,-6.988873e-004
3.154794e-004,-7.586894e-004
3.529166e-004,-7.680892e-004
3.859779e-004,-7.201179e-004
4.094774e-004,-5.997034e-004
4.282770e-004,-4.138145e-004
4.457800e-004,-1.972953e-004
4.642555e-004,1.014835e-005
4.793275e-004,1.848548e-004
4.911583e-004,3.258516e-004
4.982892e-004,4.402698e-004
4.974789e-004,5.318367e-004
4.892136e-004,5.940699e-004
4.765725e-004,6.259967e-004
4.524247e-004,6.259967e-004
4.127187e-004,5.916389e-004
3.405996e-004,5.193577e-004
2.235884e-004,4.034809e-004
6.346784e-005,2.399570e-004
-1.177212e-004,3.024445e-005
-2.827037e-004,-2.182017e-004
-3.997148e-004,-4.847991e-004
-4.596790e-004,-7.376209e-004
-4.771820e-004,-9.447403e-004
-4.786406e-004,-1.077310e-003
-4.862577e-004,-1.116205e-003
-5.102433e-004,-1.072772e-003
-5.530285e-004,-9.779637e-004
-6.042412e-004,-8.654904e-004
-6.335750e-004,-7.635514e-004
-6.100755e-004,-6.862463e-004
-5.193190e-004,-6.311440e-004
-3.812394e-004,-5.878726e-004
-2.334358e-004,-5.433047e-004
-1.112386e-004,-4.825302e-004
-4.041603e-005,-3.867496e-004
-2.599222e-005,-2.397564e-004
-5.743289e-005,-4.106429e-005
-1.156143e-004,1.942546e-004
-1.765509e-004,4.443214e-004
-2.152845e-004,6.815852e-004
-2.139880e-004,8.835187e-004
-1.747682e-004,1.036347e-003
-1.165867e-004,1.133100e-003
-6.180866e-005,1.168592e-003
-2.518189e-005,1.143796e-003
-1.529591e-005,1.070866e-003
-2.809907e-005,9.729789e-004
-4.949169e-005,8.731466e-004
-6.099833e-005,7.877381e-004
-5.338126e-005,7.208050e-004
-2.955766e-005,6.694303e-004
-3.951337e-006,6.274553e-004
7.231170e-006,5.869390e-004
-6.058186e-006,5.431813e-004
-4.106429e-005,4.851619e-004
-8.611845e-005,4.018603e-004
-1.173971e-004,2.910076e-004
-1.164247e-004,1.584381e-004
-8.482193e-005,1.938607e-005
-3.474375e-005,-1.089697e-004
1.598270e-005,-2.109087e-004
4.936815e-005,-2.687660e-004
6.622294e-005,-2.601766e-004
8.275361e-005,-1.689338e-004
1.096565e-004,5.448452e-006
1.517934e-004,2.313675e-004
2.026820e-004,4.623107e-004
2.543808e-004,6.580857e-004
2.932765e-004,7.990826e-004
3.057555e-004,8.840049e-004
2.845250e-004,9.146354e-004
2.375260e-004,8.895152e-004
1.863134e-004,8.066997e-004
1.592484e-004,6.650545e-004
1.744826e-004,4.807861e-004
2.248849e-004,2.979764e-004
2.835526e-004,1.814514e-004
3.201794e-004,1.817755e-004
3.179104e-004,3.010556e-004
2.791768e-004,4.924549e-004
2.234263e-004,6.892023e-004
1.778860e-004,8.395990e-004
1.574657e-004,9.290591e-004
1.561692e-004,9.742755e-004
1.594105e-004,1.015116e-003
1.615174e-004,1.097283e-003
1.636242e-004,1.245411e-003
1.660552e-004,1.436973e-003
1.642725e-004,1.603900e-003
1.516314e-004,1.690281e-003
1.184080e-004,1.693361e-003
6.314371e-005,1.613138e-003
-8.813297e-006,1.418011e-003
-9.146661e-005,1.082697e-003
-1.809267e-004,6.305345e-004
-2.726556e-004,1.359110e-004
-3.601709e-004,-3.149546e-004
-4.331002e-004,-6.656639e-004
-4.828543e-004,-9.013069e-004
-5.076503e-004,-1.040683e-003
-5.031124e-004,-1.122688e-003
-4.653512e-004,-1.189621e-003
-3.867496e-004,-1.273085e-003
-2.666592e-004,-1.396903e-003
-1.203142e-004,-1.569178e-003
2.489629e-005,-1.772246e-003
1.430419e-004,-1.982931e-003
2.132162e-004,-2.166551e-003
2.269918e-004,-2.262656e-003
1.851789e-004,-2.210471e-003
1.007429e-004,-2.003027e-003
-7.030578e-006,-1.696886e-003
-1.092938e-004,-1.378427e-003
-1.804405e-004,-1.120581e-003
-2.070192e-004,-9.602986e-004
-1.945401e-004,-8.980656e-004
-1.585616e-004,-9.029275e-004
-1.114006e-004,-9.346923e-004
-6.780507e-005,-9.573814e-004
-3.944364e-005,-9.424714e-004
-1.853722e-005,-8.802384e-004
4.638125e-006,-7.883473e-004
2.651694e-005,-7.034251e-004
3.948217e-005,-6.572366e-004
3.802358e-005,-6.492953e-004
2.716521e-005,-6.489712e-004
1.403791e-005,-6.210960e-004
1.825161e-005,-5.554595e-004
5.212327e-005,-4.668098e-004
1.043083e-004,-3.856151e-004
1.482280e-004,-3.361852e-004
1.634622e-004,-3.164132e-004
1.467694e-004,-2.998826e-004
1.109530e-004,-2.579077e-004
6.914012e-005,-1.731475e-004
3.283749e-005,-4.608832e-005
1.808955e-005,1.051186e-004
3.688912e-005,2.381743e-004
8.583286e-005,3.052694e-004
1.457970e-004,2.811216e-004
1.939304e-004,1.793446e-004
2.190506e-004,4.628891e-005
2.187264e-004,-6.423963e-005
2.039785e-004,-1.130213e-004
1.984683e-004,-7.979791e-005
2.172679e-004,2.505836e-005
2.508154e-004,1.641104e-004
2.817699e-004,2.963557e-004
2.872801e-004,3.816021e-004
2.538946e-004,3.756057e-004
1.853410e-004,2.623220e-004
9.669123e-005,1.116012e-004
1.063454e-005,2.619281e-005
-4.706071e-005,5.957827e-005
-6.164659e-005,2.060853e-004
-3.215070e-005,4.399457e-004
2.748934e-005,7.331221e-004
9.312580e-005,1.065032e-003
1.351007e-004,1.434704e-003
1.172735e-004,1.831927e-003
1.776542e-005,2.218454e-003
-1.499722e-004,2.531890e-003
-3.408851e-004,2.709839e-003
-5.040849e-004,2.722804e-003
-6.092652e-004,2.585210e-003
-6.533470e-004,2.325742e-003
-6.449196e-004,1.961742e-003
-5.997034e-004,1.529350e-003
-5.397392e-004,1.107493e-003
-4.873921e-004,7.987585e-004
-4.441207e-004,6.627856e-004
-3.933943e-004,6.686199e-004
-3.188442e-004,7.157810e-004
-2.238740e-004,6.937401e-004
-1.308485e-004,5.337815e-004
-6.537409e-005,2.370398e-004
-4.122636e-005,-1.242038e-004
-5.111234e-005,-4.480103e-004
-6.764301e-005,-6.740913e-004
-6.699475e-005,-8.084435e-004
-3.992984e-005,-8.891520e-004
5.772582e-006,-9.291821e-004
5.698522e-005,-9.100584e-004
1.072255e-004,-8.110365e-004
1.553589e-004,-6.496195e-004
2.036544e-004,-4.779923e-004
2.513016e-004,-3.557951e-004
2.999212e-004,-3.225718e-004
3.478926e-004,-3.802670e-004
3.905157e-004,-4.958195e-004
4.200116e-004,-6.215822e-004
4.276287e-004,-7.191455e-004
4.091532e-004,-7.654962e-004
3.670162e-004,-7.588515e-004
3.136967e-004,-7.163903e-004
2.660495e-004,-6.616123e-004
2.373639e-004,-6.091032e-004
2.295848e-004,-5.564319e-004
2.362295e-004,-4.951713e-004
2.519498e-004,-4.251591e-004
2.730183e-004,-3.510952e-004
2.973281e-004,-2.843243e-004
3.195311e-004,-2.352185e-004
3.367100e-004,-2.078295e-004
3.464339e-004,-1.990780e-004
3.417340e-004,-2.041020e-004
3.167760e-004,-2.177155e-004
2.722080e-004,-2.300324e-004
2.093267e-004,-2.324634e-004
1.325077e-004,-2.256567e-004
4.855783e-005,-2.141500e-004
-2.793700e-005,-2.010227e-004
-8.174268e-005,-1.836818e-004
-1.125351e-004,-1.567789e-004
-1.274451e-004,-1.138316e-004
-1.334415e-004,-5.224680e-005
-1.321450e-004,2.052053e-005
-1.193418e-004,9.280167e-005
-8.838737e-005,1.607070e-004
-4.025397e-005,2.232643e-004
1.274139e-005,2.744769e-004
5.925414e-005,2.945730e-004
9.150514e-005,2.634565e-004
1.036600e-004,1.681620e-004
9.555677e-005,8.203562e-006
7.465034e-005,-1.956746e-004
6.411610e-005,-4.029561e-004
9.134307e-005,-5.729626e-004
1.746447e-004,-6.792775e-004
3.059176e-004,-7.170386e-004
4.558281e-004,-6.872186e-004
5.901803e-004,-5.912760e-004
6.807749e-004,-4.322899e-004
7.221015e-004,-2.209568e-004
7.250187e-004,2.457216e-005
7.070294e-004,2.921420e-004
6.794783e-004,5.695980e-004
6.438239e-004,8.449472e-004
5.905044e-004,1.105386e-003
5.023408e-004,1.334223e-003
3.773884e-004,1.516547e-003
2.266676e-004,1.634207e-003
5.860588e-005,1.656734e-003
-1.177212e-004,1.552039e-003
-2.878898e-004,1.310075e-003
-4.343968e-004,9.566103e-004
-5.462218e-004,5.506363e-004
-6.232028e-004,1.714034e-004
-6.924047e-004,-1.105903e-004
-7.888335e-004,-2.668213e-004
-9.304786e-004,-3.086341e-004
-1.111181e-003,-2.687660e-004
-1.313277e-003,-1.995642e-004
-1.504514e-003,-1.710407e-004
-1.645511e-003,-2.452666e-004
-1.708878e-003,-4.284004e-004
-1.687810e-003,-6.671225e-004
-1.584574e-003,-8.836418e-004
-1.413919e-003,-1.016373e-003
-1.194969e-003,-1.039873e-003
-9.470092e-004,-9.679157e-004
-6.826808e-004,-8.434496e-004
-4.147869e-004,-7.155800e-004
-1.635857e-004,-6.120203e-004
4.985435e-005,-5.305015e-004
2.098128e-004,-4.502792e-004
3.033245e-004,-3.522297e-004
3.316860e-004,-2.303566e-004
3.171001e-004,-9.130454e-005
2.879283e-004,5.293359e-005
2.592428e-004,1.902029e-004
2.362295e-004,3.148312e-004
2.253711e-004,4.216323e-004
2.346088e-004,5.054200e-004
2.762596e-004,5.601982e-004
3.508097e-004,5.825632e-004
4.448076e-004,5.807805e-004
5.396159e-004,5.665187e-004
6.156246e-004,5.435055e-004
6.577615e-004,5.065545e-004
6.546823e-004,4.512903e-004
6.096281e-004,3.850055e-004
5.368608e-004,3.174242e-004
4.665244e-004,2.553532e-004
4.253598e-004,2.021958e-004
4.251977e-004,1.569795e-004
4.608521e-004,1.125736e-004
5.214646e-004,6.962632e-005
5.845079e-004,4.320967e-005
6.206486e-004,6.152305e-005
6.055765e-004,1.417454e-004
5.276231e-004,2.786906e-004
3.987811e-004,4.407560e-004
2.514636e-004,5.845079e-004
1.229458e-004,6.778577e-004
3.769945e-005,7.002227e-004
1.720949e-006,6.509548e-004
4.476060e-006,5.404262e-004
2.684107e-005,3.867882e-004
5.001642e-005,2.099749e-004
6.330578e-005,3.397195e-005
7.546067e-005,-1.183694e-004
1.036600e-004,-2.370013e-004
1.633001e-004,-3.215994e-004
2.475741e-004,-3.823738e-004
3.375204e-004,-4.288866e-004
4.130428e-004,-4.650271e-004
4.650658e-004,-4.886886e-004
4.986133e-004,-5.016539e-004
5.183853e-004,-5.146191e-004
5.260024e-004,-5.407116e-004
5.255162e-004,-5.912760e-004
5.166026e-004,-6.749016e-004
4.940755e-004,-7.753822e-004
4.493454e-004,-8.397221e-004
3.767402e-004,-8.207604e-004
2.738286e-004,-7.055320e-004
1.457970e-004,-5.152673e-004
9.824215e-006,-2.851347e-004
-1.123730e-004,-4.965376e-005
-1.982676e-004,1.806411e-004
-2.319772e-004,4.217943e-004
-2.141500e-004,6.848265e-004
-1.618029e-004,9.365142e-004
-9.811128e-005,1.113652e-003
-3.992984e-005,1.158220e-003
-1.682422e-006,1.048664e-003
1.306552e-005,8.120479e-004
9.500085e-006,5.010443e-004
-8.327101e-006,1.654069e-004
-4.171256e-005,-1.546721e-004
-8.806324e-005,-4.266177e-004
-1.331174e-004,-6.280648e-004
-1.645581e-004,-7.489655e-004
-1.773612e-004,-7.872129e-004
-1.759026e-004,-7.526930e-004
-1.674752e-004,-6.693914e-004
-1.554824e-004,-5.690731e-004
-1.408965e-004,-4.703753e-004
-1.232314e-004,-3.762153e-004
-1.002181e-004,-2.747625e-004
-7.623246e-005,-1.528894e-004
-5.840528e-005,-1.724069e-005
-5.273300e-005,1.167873e-004
-5.808115e-005,2.303951e-004
-7.444975e-005,3.075383e-004
-9.956988e-005,3.367100e-004
-1.295519e-004,3.146691e-004
-1.556445e-004,2.519498e-004
-1.736337e-004,1.694586e-004
-1.862748e-004,8.388807e-005
-2.003745e-004,9.824215e-006
-2.156086e-004,-5.224680e-005
-2.264670e-004,-1.003802e-004
-2.298704e-004,-1.131834e-004
-2.237119e-004,-3.620233e-005
-2.089640e-004,1.566554e-004
-1.912988e-004,4.264942e-004
-1.776853e-004,7.065432e-004
-1.700683e-004,9.454277e-004
-1.710407e-004,1.106359e-003
-1.768750e-004,1.160003e-003
-1.830335e-004,1.095338e-003
-1.828714e-004,9.245213e-004
-1.703924e-004,6.762370e-004
-1.436516e-004,3.801436e-004
-1.029732e-004,5.050261e-005
-5.710876e-005,-3.086341e-004
-1.837515e-005,-7.026148e-004
4.151929e-006,-1.134195e-003
