-3.595226e-004,-1.161005e-004
-1.044318e-004,-1.511067e-004
1.323456e-004,-1.922712e-004
2.932765e-004,-2.357047e-004
3.357376e-004,-2.741142e-004
2.342847e-004,-3.042584e-004
3.665733e-006,-3.295405e-004
-2.814071e-004,-3.536883e-004
-5.061917e-004,-3.773498e-004
-5.736109e-004,-3.958252e-004
-4.449310e-004,-4.055492e-004
-1.635857e-004,-4.003631e-004
1.723757e-004,-3.801049e-004
4.649037e-004,-3.519055e-004
6.538720e-004,-3.253268e-004
7.237222e-004,-3.052308e-004
6.846645e-004,-2.940482e-004
5.584154e-004,-2.901587e-004
3.799815e-004,-2.874036e-004
2.036544e-004,-2.830278e-004
8.275361e-005,-2.801106e-004
4.337174e-005,-2.817312e-004
8.777764e-005,-2.849726e-004
2.034923e-004,-2.828657e-004
3.687990e-004,-2.723315e-004
5.551741e-004,-2.540181e-004
7.128638e-004,-2.321393e-004
7.836864e-004,-2.139880e-004
7.326358e-004,-2.076674e-004
5.603603e-004,-2.167431e-004
2.924662e-004,-2.417012e-004
-2.793700e-005,-2.744383e-004
-3.410472e-004,-3.026377e-004
-5.776625e-004,-3.190063e-004
-6.875428e-004,-3.186821e-004
-6.661501e-004,-2.968033e-004
-5.583767e-004,-2.541802e-004
-4.384484e-004,-1.977815e-004
-3.656811e-004,-1.353863e-004
-3.614674e-004,-7.266703e-005
-4.060354e-004,-1.691656e-005
-4.395829e-004,3.413401e-005
-3.930701e-004,9.037068e-005
-2.310048e-004,1.600588e-004
3.283749e-005,2.372019e-004
3.496752e-004,3.149933e-004
6.524134e-004,3.872744e-004
8.862739e-004,4.538833e-004
1.024354e-003,5.170888e-004
1.064222e-003,5.778633e-004
1.025650e-003,6.352345e-004
9.399176e-004,6.846645e-004
8.319819e-004,7.217774e-004
7.175637e-004,7.459252e-004
6.080075e-004,7.577559e-004
5.211404e-004,7.584042e-004
4.739794e-004,7.478700e-004
4.639314e-004,7.277738e-004
4.640934e-004,7.041123e-004
4.386491e-004,6.820714e-004
3.736609e-004,6.597064e-004
2.859836e-004,6.345862e-004
2.115956e-004,6.012007e-004
1.788584e-004,5.529052e-004
1.822617e-004,4.854860e-004
1.885823e-004,4.047775e-004
1.699448e-004,3.230965e-004
1.218114e-004,2.568118e-004
4.661304e-005,2.161334e-004
-6.942573e-005,1.970097e-004
-2.433218e-004,1.863134e-004
-4.635685e-004,1.676758e-004
-6.914323e-004,1.357490e-004
-8.787798e-004,9.442231e-005
-9.831499e-004,5.309566e-005
-9.706708e-004,2.327564e-005
-8.327533e-004,1.031041e-005
-5.953276e-004,1.517237e-005
-3.143064e-004,3.218923e-005
-6.391550e-005,5.244739e-005
8.405014e-005,6.573675e-005
7.918817e-005,6.832980e-005
-7.688073e-005,6.071273e-005
-3.225718e-004,4.531652e-005
-5.668041e-004,1.257933e-005
-7.176869e-004,-3.911951e-005
-7.058561e-004,-1.054042e-004
-5.198052e-004,-1.733096e-004
-2.178775e-004,-2.365151e-004
1.187321e-004,-2.946965e-004
4.273046e-004,-3.472056e-004
6.653786e-004,-3.932322e-004
7.859553e-004,-4.309934e-004
7.631041e-004,-4.595169e-004
6.050903e-004,-4.796130e-004
3.375204e-004,-4.929024e-004
-6.382317e-006,-4.969540e-004
-3.522297e-004,-4.888507e-004
-6.035930e-004,-4.658375e-004
-6.896496e-004,-4.360174e-004
-6.058619e-004,-4.083043e-004
-4.003631e-004,-3.857772e-004
-1.527273e-004,-3.669776e-004
7.124698e-005,-3.520676e-004
2.422259e-004,-3.389403e-004
3.629646e-004,-3.219235e-004
4.428628e-004,-2.953447e-004
4.833792e-004,-2.561249e-004
4.822447e-004,-2.096122e-004
4.388112e-004,-1.690959e-004
3.584268e-004,-1.467309e-004
2.568118e-004,-1.431655e-004
1.545486e-004,-1.546721e-004
6.865393e-005,-1.713648e-004
-2.583016e-005,-1.864369e-004
-1.699062e-004,-1.921092e-004
-3.747568e-004,-1.857886e-004
-6.525366e-004,-1.643960e-004
-1.001139e-003,-1.300382e-004
-1.371134e-003,-8.644259e-005
-1.665931e-003,-3.830919e-005
-1.779053e-003,1.241726e-005
-1.646969e-003,6.962632e-005
-1.283943e-003,1.338042e-004
-7.770028e-004,1.981441e-004
-2.575835e-004,2.521119e-004
1.498487e-004,2.885766e-004
3.918123e-004,3.049452e-004
4.981271e-004,3.021901e-004
5.357263e-004,2.838767e-004
5.665187e-004,2.527602e-004
6.245382e-004,2.130541e-004
7.057329e-004,1.702689e-004
7.875760e-004,1.323456e-004
8.556435e-004,1.125736e-004
9.039390e-004,1.239182e-004
9.272764e-004,1.746447e-004
9.229007e-004,2.600531e-004
8.974564e-004,3.653956e-004
8.648812e-004,4.653899e-004
8.407335e-004,5.420469e-004
8.331164e-004,5.898562e-004
8.379783e-004,6.177314e-004
8.410576e-004,6.384758e-004
8.225822e-004,6.593822e-004
7.734763e-004,6.832058e-004
6.964952e-004,6.986021e-004
6.076833e-004,6.911471e-004
5.182233e-004,6.533858e-004
4.363802e-004,5.875872e-004
3.623164e-004,5.049339e-004
2.960316e-004,4.204978e-004
2.466017e-004,3.495132e-004
2.182402e-004,2.965178e-004
2.060853e-004,2.535705e-004
1.973338e-004,2.115956e-004
1.790204e-004,1.600588e-004
1.597346e-004,9.863601e-005
1.631380e-004,3.121684e-005
2.128921e-004,-3.976777e-005
3.128864e-004,-1.052422e-004
4.488593e-004,-1.574272e-004
5.935837e-004,-1.890299e-004
7.078398e-004,-2.060468e-004
7.598628e-004,-2.214430e-004
7.332841e-004,-2.462390e-004
6.332897e-004,-2.820554e-004
4.853240e-004,-3.250027e-004
3.302274e-004,-3.697327e-004
2.026820e-004,-4.089525e-004
1.177597e-004,-4.373140e-004
5.763349e-005,-4.540067e-004
-9.785688e-006,-4.647030e-004
-1.097800e-004,-4.726442e-004
-2.549905e-004,-4.783165e-004
-4.428242e-004,-4.775062e-004
-6.445955e-004,-4.697270e-004
-7.998540e-004,-4.561135e-004
-8.423151e-004,-4.352071e-004
-7.423208e-004,-4.083043e-004
-5.176983e-004,-3.781601e-004
-2.097743e-004,-3.439643e-004
1.338042e-004,-3.044204e-004
4.650658e-004,-2.590421e-004
7.347427e-004,-2.052365e-004
9.026425e-004,-1.451102e-004
9.694134e-004,-8.482193e-005
9.804339e-004,-3.231277e-005
1.001502e-003,4.151929e-006
1.083346e-003,1.922400e-005
1.219643e-003,1.679302e-005
1.358857e-003,9.175954e-006
1.439566e-003,5.610517e-006
1.398887e-003,1.079661e-005
1.169078e-003,2.343770e-005
7.237222e-004,4.175109e-005
1.103047e-004,6.476436e-005
-5.436288e-004,9.344993e-005
-1.105023e-003,1.299146e-004
-1.503217e-003,1.676758e-004
-1.739347e-003,1.989545e-004
-1.850037e-003,2.200230e-004
-1.869161e-003,2.354192e-004
-1.845013e-003,2.500050e-004
-1.874833e-003,2.697770e-004
-2.069798e-003,2.927903e-004
-2.463941e-003,3.162898e-004
-2.966345e-003,3.368721e-004
-3.404247e-003,3.516200e-004
-3.581709e-003,3.587509e-004
-3.348010e-003,3.585888e-004
-2.698612e-003,3.556717e-004
-1.817624e-003,3.540510e-004
-9.747224e-004,3.542131e-004
-4.186764e-004,3.508097e-004
-2.614731e-004,3.431926e-004
-4.040906e-004,3.326584e-004
-6.175305e-004,3.239069e-004
-6.945116e-004,3.196932e-004
-5.629146e-004,3.159656e-004
-2.846485e-004,3.112658e-004
1.322759e-005,3.042970e-004
2.278021e-004,2.978143e-004
3.193690e-004,2.914938e-004
3.117519e-004,2.795009e-004
2.642668e-004,2.587566e-004
2.247229e-004,2.337985e-004
2.221298e-004,2.137024e-004
2.641047e-004,2.099749e-004
3.436788e-004,2.248849e-004
4.522626e-004,2.572980e-004
5.593878e-004,2.973281e-004
6.229175e-004,3.357376e-004
6.164349e-004,3.637749e-004
5.574431e-004,3.743092e-004
4.893756e-004,3.675024e-004
4.491834e-004,3.482167e-004
4.572867e-004,3.224483e-004
5.200059e-004,2.937627e-004
6.285898e-004,2.550291e-004
7.626179e-004,1.957132e-004
8.900014e-004,1.120874e-004
9.801098e-004,1.290346e-005
1.013819e-003,-8.725291e-005
9.828649e-004,-1.770371e-004
9.003736e-004,-2.498044e-004
8.052412e-004,-3.044204e-004
7.347427e-004,-3.446126e-004
7.104329e-004,-3.723258e-004
7.261531e-004,-3.859393e-004
7.541905e-004,-3.883702e-004
7.527319e-004,-3.839945e-004
6.838542e-004,-3.807532e-004
5.383193e-004,-3.848048e-004
3.543751e-004,-3.969597e-004
1.889064e-004,-4.126800e-004
8.307774e-005,-4.287245e-004
4.547859e-005,-4.434724e-004
6.136099e-005,-4.583824e-004
1.067393e-004,-4.744269e-004
1.631380e-004,-4.909576e-004
2.252090e-004,-5.029504e-004
2.939248e-004,-5.050572e-004
3.723644e-004,-4.963057e-004
4.710622e-004,-4.786406e-004
6.021731e-004,-4.544929e-004
7.708832e-004,-4.198109e-004
9.723307e-004,-3.690845e-004
1.182368e-003,-3.013411e-004
1.373929e-003,-2.240360e-004
1.528702e-003,-1.417068e-004
1.644093e-003,-5.548811e-005
1.723019e-003,3.380988e-005
1.756566e-003,1.206769e-004
1.722695e-003,1.965235e-004
1.602604e-003,2.501671e-004
1.390946e-003,2.678322e-004
1.097607e-003,2.487085e-004
7.504630e-004,2.073819e-004
3.921364e-004,1.629760e-004
4.645098e-005,1.237561e-004
-2.846485e-004,9.118101e-005
-5.907898e-004,6.784360e-005
-8.415048e-004,5.455425e-005
-1.014915e-003,5.309566e-005
-1.107454e-003,6.362991e-005
-1.120743e-003,8.437427e-005
-1.085413e-003,1.130598e-004
-1.052838e-003,1.504969e-004
-1.032580e-003,1.978200e-004
-1.003570e-003,2.538946e-004
-9.565711e-004,3.143450e-004
-9.022792e-004,3.764160e-004
-8.376152e-004,4.418904e-004
-7.217386e-004,5.130371e-004
-5.110537e-004,5.871011e-004
-2.055606e-004,6.550064e-004
1.480659e-004,7.045984e-004
4.893756e-004,7.298806e-004
7.728280e-004,7.349047e-004
9.781651e-004,7.347427e-004
1.102793e-003,7.449528e-004
1.146065e-003,7.708832e-004
1.107007e-003,8.011895e-004
9.877268e-004,8.101031e-004
7.835244e-004,7.692626e-004
4.843516e-004,6.671614e-004
8.729144e-005,5.122268e-004
-3.805911e-004,3.237448e-004
-8.470150e-004,1.263492e-004
-1.208096e-003,-4.576419e-005
-1.379399e-003,-1.724993e-004
-1.340666e-003,-2.530457e-004
-1.138408e-003,-3.040963e-004
-8.609526e-004,-3.403989e-004
-6.238511e-004,-3.689224e-004
-5.509217e-004,-3.925839e-004
-7.089354e-004,-4.045768e-004
-1.038576e-003,-4.002010e-004
-1.380048e-003,-3.817256e-004
-1.589274e-003,-3.587123e-004
-1.577119e-003,-3.400748e-004
-1.325432e-003,-3.284061e-004
-9.077895e-004,-3.246786e-004
-4.548170e-004,-3.332680e-004
-8.660465e-005,-3.546606e-004
1.368834e-004,-3.880461e-004
2.287745e-004,-4.284004e-004
2.436845e-004,-4.674581e-004
2.401191e-004,-4.959816e-004
2.597290e-004,-5.079744e-004
3.140208e-004,-5.050572e-004
3.908399e-004,-4.916058e-004
4.671726e-004,-4.721580e-004
5.206542e-004,-4.515757e-004
5.279472e-004,-4.296969e-004
4.752759e-004,-4.008493e-004
3.597233e-004,-3.604950e-004
2.094887e-004,-3.078238e-004
7.254349e-005,-2.439701e-004
-7.516774e-006,-1.749302e-004
-1.270286e-005,-1.104282e-004
4.434413e-005,-5.694670e-005
1.325077e-004,-8.813297e-006
2.325020e-004,4.094075e-005
3.247172e-004,9.507057e-005
3.803056e-004,1.511452e-004
3.668542e-004,2.067336e-004
2.712356e-004,2.581083e-004
1.128978e-004,2.952213e-004
-6.504996e-005,3.023522e-004
-1.963229e-004,2.733424e-004
-2.136638e-004,2.195368e-004
-7.493595e-005,1.628139e-004
2.151610e-004,1.180839e-004
6.094660e-004,9.118101e-005
1.036995e-003,8.323981e-005
1.432597e-003,9.263960e-005
1.749760e-003,1.141943e-004
1.980217e-003,1.440143e-004
2.143417e-003,1.825859e-004
2.256378e-003,2.271538e-004
2.299811e-003,2.767458e-004
2.237902e-003,3.260137e-004
2.049419e-003,3.637749e-004
1.733553e-003,3.796573e-004
1.314613e-003,3.717161e-004
8.525642e-004,3.514580e-004
4.185530e-004,3.349273e-004
6.476436e-005,3.349273e-004
-1.783336e-004,3.495132e-004
-3.366714e-004,3.683128e-004
-5.248293e-004,3.788470e-004
-9.123273e-004,3.725265e-004
-1.580523e-003,3.589129e-004
-2.463455e-003,3.498373e-004
-3.403760e-003,3.525924e-004
-4.206312e-003,3.696093e-004
-4.699967e-003,3.960259e-004
-4.845341e-003,4.211461e-004
-4.691215e-003,4.394595e-004
-4.307766e-003,4.457800e-004
-3.766951e-003,4.375147e-004
-3.122414e-003,4.122325e-004
-2.411918e-003,3.790091e-004
-1.678572e-003,3.537269e-004
-9.837981e-004,3.438409e-004
-3.927460e-004,3.423823e-004
4.191315e-005,3.324963e-004
2.854973e-004,3.025142e-004
3.530786e-004,2.517878e-004
3.154794e-004,1.902029e-004
2.809595e-004,1.321835e-004
3.449753e-004,8.664318e-005
5.345919e-004,5.520250e-005
7.995688e-004,3.040651e-005
1.045908e-003,3.989864e-006
1.199222e-003,-2.923353e-005
1.226287e-003,-6.845333e-005
1.147199e-003,-1.092938e-004
1.016088e-003,-1.475412e-004
8.864359e-004,-1.763888e-004
7.987585e-004,-1.956746e-004
7.741245e-004,-2.096122e-004
7.992447e-004,-2.254946e-004
8.421920e-004,-2.486699e-004
8.801154e-004,-2.823795e-004
9.141492e-004,-3.228959e-004
9.590413e-004,-3.676259e-004
1.031971e-003,-4.157593e-004
1.136665e-003,-4.629203e-004
1.252218e-003,-5.035987e-004
1.346540e-003,-5.329325e-004
1.397429e-003,-5.527044e-004
1.406018e-003,-5.653456e-004
1.380412e-003,-5.770142e-004
1.325796e-003,-5.920863e-004
1.245411e-003,-6.089411e-004
1.154168e-003,-6.204477e-004
1.065680e-003,-6.170443e-004
1.000692e-003,-5.893312e-004
9.799477e-004,-5.272602e-004
1.004258e-003,-4.254832e-004
1.037967e-003,-2.896725e-004
1.032619e-003,-1.347380e-004
9.562862e-004,1.776542e-005
8.135065e-004,1.504969e-004
6.357207e-004,2.519498e-004
4.593935e-004,3.156415e-004
3.111037e-004,3.456236e-004
2.091646e-004,3.517821e-004
1.568175e-004,3.449753e-004
1.297526e-004,3.282826e-004
9.312580e-005,3.010556e-004
2.781346e-005,2.652392e-004
-6.440170e-005,2.279642e-004
-1.710407e-004,1.924718e-004
-2.454286e-004,1.598967e-004
-2.266291e-004,1.321835e-004
-8.449780e-005,1.151667e-004
1.566554e-004,1.122495e-004
4.217943e-004,1.260251e-004
6.188659e-004,1.526038e-004
6.845024e-004,1.861513e-004
6.122212e-004,2.216436e-004
4.274666e-004,2.508154e-004
1.699448e-004,2.692908e-004
-1.172350e-004,2.762596e-004
-3.867496e-004,2.778803e-004
-5.875485e-004,2.809595e-004
-6.865704e-004,2.916559e-004
-6.881910e-004,3.083486e-004
-6.306578e-004,3.237448e-004
-5.533527e-004,3.318480e-004
-4.590307e-004,3.316860e-004
-3.134961e-004,3.243930e-004
-9.470791e-005,3.146691e-004
1.769136e-004,3.068900e-004
4.718725e-004,2.991108e-004
7.572698e-004,2.874421e-004
1.004744e-003,2.709115e-004
1.192902e-003,2.495189e-004
1.312506e-003,2.253711e-004
1.361774e-003,2.013854e-004
1.341030e-003,1.795066e-004
1.251408e-003,1.603829e-004
1.088208e-003,1.427178e-004
8.452713e-004,1.234320e-004
5.294057e-004,1.000946e-004
1.529279e-004,7.367795e-005
-2.609869e-004,4.661304e-005
-6.857601e-004,1.938607e-005
-1.079903e-003,-6.706447e-006
-1.387341e-003,-3.328516e-005
-1.589112e-003,-5.419158e-005
-1.718440e-003,-6.910160e-005
-1.829455e-003,-8.174268e-005
-1.939335e-003,-1.007043e-004
-2.012751e-003,-1.319829e-004
-1.973855e-003,-1.729855e-004
-1.766574e-003,-2.091260e-004
-1.402737e-003,-2.277635e-004
-9.612711e-004,-2.266291e-004
-5.133225e-004,-2.122053e-004
-6.537409e-005,-1.994021e-004
3.984569e-004,-1.982676e-004
8.297130e-004,-2.099363e-004
1.105062e-003,-2.358668e-004
1.075242e-003,-2.677937e-004
6.493342e-004,-2.958309e-004
-1.057284e-004,-3.149546e-004
-9.492782e-004,-3.285682e-004
-1.610019e-003,-3.392644e-004
-1.937067e-003,-3.470436e-004
-1.939011e-003,-3.494746e-004
-1.753933e-003,-3.467195e-004
-1.553944e-003,-3.381300e-004
-1.446333e-003,-3.186821e-004
-1.440822e-003,-2.896725e-004
-1.467077e-003,-2.512630e-004
-1.438067e-003,-2.107467e-004
-1.300474e-003,-1.749302e-004
-1.045059e-003,-1.457585e-004
-6.784671e-004,-1.159385e-004
-2.185258e-004,-7.833932e-005
2.927903e-004,-2.793700e-005
7.904932e-004,3.040651e-005
1.213322e-003,9.118101e-005
1.523516e-003,1.466074e-004
1.723343e-003,1.908512e-004
1.838572e-003,2.234263e-004
1.880871e-003,2.548670e-004
1.843596e-003,2.987867e-004
1.721074e-003,3.561579e-004
1.508444e-003,4.138531e-004
1.209108e-003,4.509661e-004
8.496471e-004,4.538833e-004
4.670106e-004,4.237391e-004
1.054428e-004,3.764160e-004
-1.896782e-004,3.346032e-004
-3.718396e-004,3.098072e-004
-4.144627e-004,3.010556e-004
-3.212752e-004,3.020280e-004
-1.267968e-004,3.057555e-004
1.022015e-004,3.055935e-004
2.871180e-004,2.973281e-004
3.911640e-004,2.788527e-004
4.329769e-004,2.551911e-004
4.585832e-004,2.350950e-004
5.114165e-004,2.243987e-004
6.109247e-004,2.222919e-004
7.292324e-004,2.271538e-004
7.731522e-004,2.359054e-004
6.410689e-004,2.467637e-004
3.180725e-004,2.572980e-004
-1.238797e-004,2.652392e-004
-5.862520e-004,2.713977e-004
-9.627296e-004,2.744769e-004
-1.173901e-003,2.730183e-004
-1.194969e-003,2.660495e-004
-1.044086e-003,2.574601e-004
-7.590136e-004,2.498430e-004
-3.951770e-004,2.389846e-004
-2.258885e-005,2.193747e-004
2.906835e-004,1.902029e-004
4.958582e-004,1.560072e-004
5.660325e-004,1.193804e-004
5.102821e-004,7.821578e-005
3.906778e-004,3.818565e-005
2.910076e-004,1.558884e-006
2.760976e-004,-2.728874e-005
3.410858e-004,-4.592625e-005
4.089912e-004,-5.710876e-005
3.935950e-004,-6.602235e-005
2.647530e-004,-8.044617e-005
5.179914e-005,-1.037836e-004
-1.697442e-004,-1.371690e-004
-3.058790e-004,-1.830335e-004
-3.117133e-004,-2.358668e-004
-2.464010e-004,-2.783279e-004
-2.429977e-004,-2.974516e-004
-4.068457e-004,-2.888622e-004
-7.588515e-004,-2.601766e-004
-1.199183e-003,-2.264670e-004
-1.504352e-003,-2.002124e-004
-1.463511e-003,-1.877334e-004
-1.036145e-003,-1.835197e-004
-3.796187e-004,-1.778474e-004
2.488706e-004,-1.647201e-004
6.277795e-004,-1.381414e-004
6.739681e-004,-1.000561e-004
4.709002e-004,-5.386745e-005
2.008992e-004,-5.409925e-006
1.598270e-005,3.834771e-005
-3.182657e-005,6.751948e-005
4.353380e-005,7.497447e-005
2.138645e-004,5.649903e-005
4.496696e-004,1.290346e-005
7.135121e-004,-4.544006e-005
9.660101e-004,-1.050801e-004
1.176695e-003,-1.546721e-004
1.322068e-003,-1.904885e-004
1.378305e-003,-2.102605e-004
1.320285e-003,-2.165810e-004
1.147686e-003,-2.078295e-004
9.011839e-004,-1.853024e-004
6.504686e-004,-1.527273e-004
4.723587e-004,-1.149661e-004
4.018603e-004,-7.623246e-005
3.804677e-004,-4.203669e-005
2.801492e-004,-1.367526e-005
1.176900e-005,3.665733e-006
-4.097628e-004,6.420843e-006
-8.567389e-004,-4.599598e-006
-1.144729e-003,-2.518189e-005
-1.126578e-003,-5.386745e-005
-7.791097e-004,-8.854943e-005
-2.115570e-004,-1.212866e-004
3.877606e-004,-1.399241e-004
8.331164e-004,-1.447861e-004
1.026623e-003,-1.457585e-004
9.682790e-004,-1.502963e-004
7.464114e-004,-1.595340e-004
5.081752e-004,-1.663408e-004
3.804677e-004,-1.564548e-004
4.175806e-004,-1.212866e-004
6.076833e-004,-5.662256e-005
8.883807e-004,3.769945e-005
1.173292e-003,1.608691e-004
1.375550e-003,3.057555e-004
1.430652e-003,4.611762e-004
1.323041e-003,6.130316e-004
1.093231e-003,7.472217e-004
8.152892e-004,8.574262e-004
5.409124e-004,9.415382e-004
2.887387e-004,1.002637e-003
6.541262e-005,1.048826e-003
-1.297140e-004,1.084480e-003
-3.036101e-004,1.099228e-003
-4.612996e-004,1.072163e-003
-5.990551e-004,9.875648e-004
-7.134732e-004,8.485126e-004
-8.003402e-004,6.725095e-004
-8.543079e-004,4.835413e-004
-8.821832e-004,3.062417e-004
-8.972552e-004,1.642725e-004
-9.228616e-004,6.719535e-005
-9.774775e-004,6.420843e-006
-1.066451e-003,-3.555408e-005
-1.172118e-003,-6.829127e-005
-1.251044e-003,-9.341139e-005
-1.262064e-003,-1.104282e-004
-1.188973e-003,-1.157764e-004
-1.042628e-003,-1.097800e-004
-8.460426e-004,-9.470791e-005
-6.254718e-004,-7.639453e-005
-3.998769e-004,-6.294311e-005
-1.825473e-004,-6.180866e-005
2.765140e-005,-7.412562e-005
2.290986e-004,-9.632857e-005
4.072085e-004,-1.229073e-004
5.409124e-004,-1.486757e-004
6.099523e-004,-1.737958e-004
6.015248e-004,-1.990780e-004
5.230852e-004,-2.292221e-004
4.005638e-004,-2.656868e-004
2.707494e-004,-3.053928e-004
1.543865e-004,-3.426678e-004
4.580272e-005,-3.744326e-004
-7.526008e-005,-4.057112e-004
-2.206326e-004,-4.437966e-004
-3.933943e-004,-4.969540e-004
-5.773384e-004,-5.643732e-004
-7.450759e-004,-6.319543e-004
-8.758627e-004,-6.784671e-004
-9.602986e-004,-6.877048e-004
-9.857429e-004,-6.522125e-004
-9.317751e-004,-5.797693e-004
-7.836475e-004,-4.904714e-004
-5.488148e-004,-4.040906e-004
-2.590421e-004,-3.277578e-004
4.823370e-005,-2.647144e-004
3.438409e-004,-2.186879e-004
6.050903e-004,-1.961608e-004
8.149651e-004,-1.891920e-004
9.587171e-004,-1.865989e-004
1.041857e-003,-1.872472e-004
1.087883e-003,-1.927574e-004
1.124996e-003,-1.947022e-004
1.174102e-003,-1.789819e-004
1.236822e-003,-1.381414e-004
1.296624e-003,-7.850138e-005
1.325796e-003,-1.691656e-005
1.297272e-003,3.526847e-005
1.196953e-003,7.465034e-005
1.022733e-003,1.064152e-004
7.754210e-004,1.378558e-004
4.621486e-004,1.736723e-004
9.863601e-005,2.080301e-004
-2.825416e-004,2.286124e-004
-6.342233e-004,2.274780e-004
-9.137859e-004,2.094887e-004
-1.093354e-003,1.919856e-004
-1.166770e-003,1.864754e-004
-1.155263e-003,1.932822e-004
-1.101944e-003,2.004130e-004
-1.074393e-003,1.952270e-004
-1.113774e-003,1.744826e-004
-1.207286e-003,1.479039e-004
-1.305174e-003,1.282940e-004
-1.345690e-003,1.210010e-004
-1.268385e-003,1.258630e-004
-1.036469e-003,1.451488e-004
-6.601537e-004,1.812893e-004
-1.943781e-004,2.360674e-004
2.799871e-004,3.099692e-004
6.882299e-004,3.982949e-004
9.833511e-004,4.926169e-004
1.148820e-003,5.874252e-004
1.192740e-003,6.746164e-004
1.151737e-003,7.464114e-004
1.100363e-003,7.971379e-004
1.127913e-003,8.190167e-004
1.286090e-003,8.007033e-004
1.568084e-003,7.370116e-004
1.912636e-003,6.355586e-004
2.206785e-003,5.157923e-004
2.317639e-003,3.961880e-004
2.177127e-003,2.890628e-004
1.821393e-003,1.997648e-004
1.334547e-003,1.313732e-004
8.152892e-004,8.469840e-005
3.837090e-004,5.860588e-005
1.406109e-004,4.936815e-005
9.458438e-005,5.131294e-005
1.362352e-004,5.585077e-005
7.416415e-005,5.974033e-005
-2.684419e-004,6.346784e-005
-9.400405e-004,6.768154e-005
-1.824755e-003,6.719535e-005
-2.699099e-003,5.552663e-005
-3.330831e-003,2.992031e-005
-3.553347e-003,-7.840905e-006
-3.320459e-003,-5.402952e-005
-2.756308e-003,-1.065387e-004
-2.120849e-003,-1.601823e-004
-1.660259e-003,-2.083157e-004
-1.453139e-003,-2.428356e-004
-1.406951e-003,-2.583939e-004
-1.370486e-003,-2.575835e-004
-1.190756e-003,-2.517492e-004
-7.685754e-004,-2.475355e-004
-1.167488e-004,-2.421874e-004
6.250244e-004,-2.314910e-004
1.263076e-003,-2.164190e-004
1.662730e-003,-1.997262e-004
1.782659e-003,-1.830335e-004
1.650413e-003,-1.661787e-004
1.322716e-003,-1.494860e-004
8.733086e-004,-1.410586e-004
3.963501e-004,-1.459206e-004
-2.323711e-005,-1.637477e-004
-3.360231e-004,-1.856265e-004
-5.228845e-004,-2.041020e-004
-5.692351e-004,-2.175534e-004
-4.574101e-004,-2.240360e-004
-2.118811e-004,-2.220912e-004
9.442231e-005,-2.151224e-004
3.757678e-004,-2.055606e-004
5.736496e-004,-1.968091e-004
6.793162e-004,-1.912988e-004
7.251808e-004,-1.864369e-004
7.475458e-004,-1.809267e-004
7.663454e-004,-1.720131e-004
7.830382e-004,-1.621271e-004
7.820658e-004,-1.473791e-004
7.217774e-004,-1.219349e-004
5.666808e-004,-8.417367e-005
3.250413e-004,-4.090223e-005
4.045456e-005,-2.978945e-006
-2.096122e-004,2.732727e-005
-3.348887e-004,5.115087e-005
-2.786520e-004,7.140904e-005
-4.317115e-005,8.583286e-005
3.042970e-004,9.280167e-005
6.535479e-004,9.442231e-005
8.948633e-004,9.069481e-005
9.622826e-004,9.020862e-005
8.652053e-004,9.879808e-005
6.806127e-004,1.172735e-004
5.106062e-004,1.414213e-004
4.198496e-004,1.697827e-004
4.281149e-004,2.015475e-004
5.125510e-004,2.407673e-004
6.287518e-004,2.892249e-004
7.425218e-004,3.469201e-004
8.360335e-004,4.101256e-004
9.065320e-004,4.715484e-004
9.556379e-004,5.178991e-004
9.929130e-004,5.349160e-004
1.048988e-003,5.187094e-004
1.165513e-003,4.778690e-004
1.369391e-003,4.266563e-004
1.647496e-003,3.790091e-004
1.935325e-003,3.412479e-004
2.154600e-003,3.081865e-004
2.267560e-003,2.744769e-004
2.298677e-003,2.370398e-004
2.298029e-003,2.017096e-004
2.279067e-003,1.717275e-004
2.217806e-003,1.513072e-004
2.092042e-003,1.396385e-004
1.894322e-003,1.312112e-004
1.583966e-003,1.182459e-004
1.083021e-003,9.896015e-005
3.462718e-004,7.627100e-005
-5.977586e-004,5.374392e-005
-1.670631e-003,3.186510e-005
-2.790342e-003,7.555301e-006
-3.833398e-003,-2.339918e-005
-4.599486e-003,-6.116039e-005
-4.894771e-003,-1.045939e-004
-4.629144e-003,-1.514308e-004
-3.865001e-003,-1.956746e-004
-2.805414e-003,-2.316531e-004
-1.761388e-003,-2.533699e-004
-1.060941e-003,-2.574215e-004
-8.975794e-004,-2.444563e-004
-1.257364e-003,-2.178775e-004
-1.965266e-003,-1.841680e-004
-2.736049e-003,-1.528894e-004
-3.295176e-003,-1.342519e-004
-3.508617e-003,-1.374932e-004
-3.387554e-003,-1.697442e-004
-3.027282e-003,-2.279256e-004
-2.545299e-003,-2.934000e-004
-2.040302e-003,-3.368335e-004
-1.563830e-003,-3.321336e-004
-1.107778e-003,-2.805968e-004
-6.395715e-004,-2.091260e-004
-1.574272e-004,-1.483515e-004
2.952213e-004,-1.157764e-004
6.608408e-004,-1.088076e-004
9.076665e-004,-1.175591e-004
1.032943e-003,-1.314967e-004
1.060818e-003,-1.442999e-004
1.028892e-003,-1.524032e-004
9.700617e-004,-1.527273e-004
9.008598e-004,-1.438137e-004
8.282544e-004,-1.272830e-004
7.744487e-004,-1.070249e-004
7.720177e-004,-8.109443e-005
8.246890e-004,-4.884343e-005
9.044252e-004,-8.651231e-006
9.660101e-004,3.899597e-005
9.637412e-004,9.085688e-005
8.781706e-004,1.417454e-004
7.528940e-004,1.880961e-004
6.725095e-004,2.334744e-004
6.890402e-004,2.788527e-004
7.788245e-004,3.226103e-004
8.509436e-004,3.581026e-004
8.117238e-004,3.848434e-004
6.191900e-004,4.044533e-004
3.096451e-004,4.183910e-004
-1.480971e-005,4.308700e-004
-2.355427e-004,4.417284e-004
-2.812451e-004,4.465904e-004
-1.697442e-004,4.401077e-004
-1.075808e-005,4.263322e-004
6.751948e-005,4.148255e-004
1.193106e-005,4.065602e-004
-1.475412e-004,3.908399e-004
-3.361852e-004,3.598854e-004
-4.702132e-004,3.193690e-004
-4.982505e-004,2.816078e-004
-4.061974e-004,2.589186e-004
-2.173914e-004,2.577842e-004
1.095867e-005,2.744769e-004
1.987924e-004,2.947351e-004
2.856594e-004,3.060797e-004
2.850112e-004,3.038107e-004
2.746390e-004,2.926282e-004
3.446512e-004,2.782044e-004
5.358884e-004,2.636185e-004
8.232304e-004,2.493568e-004
1.141203e-003,2.323399e-004
1.430976e-003,2.036544e-004
1.662892e-003,1.600588e-004
1.845054e-003,1.070634e-004
2.013603e-003,5.017848e-005
2.192848e-003,-9.299493e-006
2.383599e-003,-6.861539e-005
2.586344e-003,-1.250141e-004
2.786820e-003,-1.728234e-004
2.949535e-003,-2.102605e-004
3.025382e-003,-2.421874e-004
2.970117e-003,-2.758969e-004
2.757324e-003,-3.092824e-004
2.389596e-003,-3.363473e-004
1.904532e-003,-3.551469e-004
1.354967e-003,-3.700569e-004
7.600249e-004,-3.856151e-004
9.361199e-005,-3.982562e-004
-6.781430e-004,-3.969597e-004
-1.552485e-003,-3.723258e-004
-2.441738e-003,-3.199787e-004
-3.176058e-003,-2.511010e-004
-3.615581e-003,-1.835197e-004
-3.728541e-003,-1.376552e-004
-3.560965e-003,-1.225832e-004
-3.214630e-003,-1.326312e-004
-2.820648e-003,-1.548341e-004
-2.438983e-003,-1.720131e-004
-2.004000e-003,-1.679614e-004
-1.404682e-003,-1.310105e-004
-5.959758e-004,-6.180866e-005
3.615060e-004,2.246531e-005
1.316720e-003,9.588091e-005
2.115056e-003,1.334801e-004
2.634802e-003,1.206769e-004
2.811616e-003,6.411610e-005
2.665270e-003,-1.092015e-005
2.291870e-003,-7.963584e-005
1.814586e-003,-1.310105e-004
1.340868e-003,-1.618029e-004
9.530449e-004,-1.707166e-004
7.029778e-004,-1.616409e-004
5.906665e-004,-1.407345e-004
5.376711e-004,-1.102662e-004
4.333010e-004,-7.380149e-005
2.017096e-004,-3.328516e-005
-1.498101e-004,7.879432e-006
-5.290429e-004,4.320967e-005
-8.071469e-004,6.622294e-005
-8.969311e-004,7.999851e-005
-7.893197e-004,9.166720e-005
-5.317981e-004,1.057669e-004
-1.958367e-004,1.185701e-004
1.414213e-004,1.229458e-004
4.044533e-004,1.201907e-004
5.532294e-004,1.125736e-004
5.942319e-004,1.007429e-004
5.653843e-004,8.631905e-005
5.088235e-004,7.837785e-005
4.506420e-004,8.388807e-005
3.981328e-004,1.067393e-004
3.516200e-004,1.464453e-004
3.044590e-004,2.000889e-004
2.318537e-004,2.595669e-004
1.034980e-004,3.104554e-004
-9.892161e-005,3.457857e-004
-3.661673e-004,3.705817e-004
-6.470265e-004,4.007258e-004
-8.755385e-004,4.431870e-004
-1.020263e-003,4.929411e-004
-1.092544e-003,5.352402e-004
-1.112802e-003,5.577672e-004
-1.076337e-003,5.553362e-004
-9.790981e-004,5.331332e-004
-8.471771e-004,5.025029e-004
-7.285453e-004,4.721967e-004
-6.745775e-004,4.430249e-004
-7.350279e-004,4.107739e-004
-9.346923e-004,3.765781e-004
-1.254609e-003,3.394651e-004
-1.618932e-003,2.970040e-004
-1.904167e-003,2.509774e-004
-1.980662e-003,2.052750e-004
-1.775487e-003,1.611932e-004
-1.314249e-003,1.200286e-004
-7.199558e-004,8.388807e-005
-1.465688e-004,5.309566e-005
2.872801e-004,3.040651e-005
5.383193e-004,1.776542e-005
6.285898e-004,1.598270e-005
6.076833e-004,1.614476e-005
5.247059e-004,6.258778e-006
4.164462e-004,-2.777494e-005
3.062417e-004,-8.935975e-005
2.081922e-004,-1.686097e-004
1.342904e-004,-2.496423e-004
8.242948e-005,-3.177098e-004
3.672706e-005,-3.673017e-004
-2.728874e-005,-3.990665e-004
-1.220970e-004,-4.217557e-004
-2.360289e-004,-4.463896e-004
-3.428299e-004,-4.765338e-004
-4.125180e-004,-5.081365e-004
-4.295348e-004,-5.332566e-004
-4.155972e-004,-5.471942e-004
-4.238625e-004,-5.489769e-004
-4.917679e-004,-5.429805e-004
-6.176926e-004,-5.348772e-004
-7.648479e-004,-5.279084e-004
-8.807246e-004,-5.223983e-004
-9.204306e-004,-5.157535e-004
-8.622491e-004,-5.031124e-004
-7.188214e-004,-4.817198e-004
-5.319601e-004,-4.489826e-004
-3.582261e-004,-4.037664e-004
-2.415391e-004,-3.447747e-004
-1.849783e-004,-2.731418e-004
-1.538618e-004,-1.950263e-004
-1.016767e-004,-1.172350e-004
-3.465141e-006,-3.960571e-005
1.402868e-004,3.705119e-005
3.128864e-004,1.067393e-004
4.880791e-004,1.576278e-004
6.438239e-004,1.851789e-004
7.608352e-004,1.880961e-004
8.358715e-004,1.725378e-004
8.762258e-004,1.453108e-004
8.955116e-004,1.166253e-004
8.994011e-004,9.847395e-005
8.893532e-004,9.912221e-005
8.679605e-004,1.214872e-004
8.446231e-004,1.650828e-004
8.345750e-004,2.231022e-004
8.472161e-004,2.829043e-004
8.802774e-004,3.329825e-004
9.062079e-004,3.718782e-004
8.901635e-004,4.052637e-004
8.070238e-004,4.368664e-004
6.499824e-004,4.674968e-004
4.342734e-004,4.867825e-004
1.929580e-004,4.807861e-004
-2.031993e-005,4.410801e-004
-1.564548e-004,3.780367e-004
-1.958367e-004,3.146691e-004
-1.562927e-004,2.764217e-004
-8.303922e-005,2.678322e-004
-2.437157e-005,2.691288e-004
-8.002969e-006,2.556773e-004
-2.194059e-005,2.151610e-004
-3.053005e-005,1.487142e-004
4.638125e-006,7.302970e-005
1.025256e-004,1.160693e-005
2.467637e-004,-1.594417e-005
4.046154e-004,-4.113403e-006
5.501501e-004,4.175109e-005
6.785059e-004,1.070634e-004
7.900069e-004,1.830721e-004
8.872462e-004,2.642668e-004
9.783271e-004,3.482167e-004
1.065680e-003,4.305459e-004
1.135044e-003,5.104441e-004
1.162434e-003,5.900182e-004
1.136989e-003,6.705648e-004
1.058225e-003,7.409012e-004
9.400796e-004,7.810934e-004
8.222580e-004,7.772038e-004
7.483562e-004,7.224257e-004
7.360392e-004,6.259967e-004
7.671557e-004,5.078511e-004
8.032963e-004,3.937570e-004
8.188546e-004,3.064038e-004
8.123720e-004,2.597290e-004
7.869278e-004,2.543808e-004
7.705591e-004,2.746390e-004
8.173960e-004,2.913317e-004
9.392693e-004,2.733424e-004
1.045584e-003,2.083542e-004
9.989094e-004,9.944634e-005
7.107570e-004,-4.074016e-005
2.044647e-004,-1.912988e-004
-3.861013e-004,-3.332680e-004
-8.902864e-004,-4.502792e-004
-1.211986e-003,-5.321222e-004
-1.416188e-003,-5.765280e-004
-1.681651e-003,-5.872243e-004
-2.145483e-003,-5.807417e-004
-2.796662e-003,-5.749074e-004
-3.489332e-003,-5.786349e-004
-4.033550e-003,-5.904656e-004
-4.274866e-003,-6.053757e-004
-4.154613e-003,-6.167202e-004
-3.734375e-003,-6.181788e-004
-3.165038e-003,-6.055377e-004
-2.600077e-003,-5.776625e-004
-2.134462e-003,-5.384427e-004
-1.779377e-003,-4.950092e-004
-1.470156e-003,-4.551412e-004
-1.123336e-003,-4.243487e-004
-6.987253e-004,-4.037664e-004
-2.146363e-004,-3.882082e-004
2.780424e-004,-3.705430e-004
7.188602e-004,-3.429920e-004
1.050770e-003,-3.044204e-004
1.220291e-003,-2.540181e-004
1.197602e-003,-1.927574e-004
9.945336e-004,-1.277692e-004
6.490100e-004,-6.829127e-005
2.198609e-004,-2.453363e-005
-2.292221e-004,-7.100305e-007
-6.398956e-004,1.128280e-005
-9.599745e-004,2.651694e-005
-1.118961e-003,5.406805e-005
-1.051541e-003,9.020862e-005
-7.562584e-004,1.229458e-004
-3.274337e-004,1.423936e-004
1.146805e-004,1.490383e-004
4.877550e-004,1.540623e-004
7.501388e-004,1.676758e-004
9.193352e-004,1.976579e-004
1.071839e-003,2.394708e-004
1.277824e-003,2.867939e-004
1.557063e-003,3.294171e-004
1.886219e-003,3.616681e-004
2.209216e-003,3.843572e-004
2.462202e-003,4.008879e-004
2.598337e-003,4.119083e-004
2.615354e-003,4.145014e-004
2.543234e-003,4.052637e-004
2.432057e-003,3.822504e-004
2.328335e-003,3.503235e-004
2.265453e-003,3.183966e-004
2.256864e-003,2.957075e-004
2.290735e-003,2.850112e-004
2.336438e-003,2.859836e-004
2.355562e-003,2.940868e-004
2.315369e-003,3.012177e-004
2.205327e-003,3.039728e-004
2.034509e-003,3.021901e-004
1.814910e-003,2.963557e-004
1.561925e-003,2.866318e-004
1.293869e-003,2.744769e-004
1.029054e-003,2.592428e-004
7.775280e-004,2.404432e-004
5.524190e-004,2.218057e-004
3.652335e-004,2.060853e-004
2.099749e-004,1.902029e-004
7.384002e-005,1.686482e-004
-3.960571e-005,1.391524e-004
-1.271210e-004,1.049566e-004
-1.982676e-004,6.832980e-005
-2.752487e-004,3.624086e-005
-3.749188e-004,1.193106e-005
-4.880404e-004,-5.247859e-006
-5.875485e-004,-1.756482e-005
-6.608020e-004,-3.198864e-005
-7.162283e-004,-5.646050e-005
-7.782993e-004,-9.503204e-005
-8.716490e-004,-1.428413e-004
-9.931979e-004,-1.812508e-004
-1.119285e-003,-1.989159e-004
-1.214579e-003,-1.959987e-004
-1.253961e-003,-1.831956e-004
-1.229489e-003,-1.716889e-004
-1.147322e-003,-1.665028e-004
-1.007136e-003,-1.663408e-004
-8.017988e-004,-1.686097e-004
-5.415219e-004,-1.676373e-004
-2.699005e-004,-1.575893e-004
-5.775702e-005,-1.371690e-004
2.619281e-005,-1.115627e-004
-5.030202e-005,-9.017008e-005
-2.739521e-004,-8.012204e-005
-5.945173e-004,-8.595638e-005
-9.411749e-004,-1.037836e-004
-1.250558e-003,-1.266348e-004
-1.494790e-003,-1.511067e-004
-1.687162e-003,-1.736337e-004
-1.850361e-003,-1.877334e-004
-1.972397e-003,-1.914609e-004
-2.001730e-003,-1.830335e-004
-1.897523e-003,-1.658546e-004
-1.672090e-003,-1.462447e-004
-1.386206e-003,-1.308485e-004
-1.116692e-003,-1.199901e-004
-9.481438e-004,-1.084835e-004
-9.471713e-004,-9.114248e-005
-1.129495e-003,-6.569822e-005
-1.454112e-003,-3.847125e-005
-1.830265e-003,-1.594417e-005
-2.126845e-003,9.106227e-007
-2.195399e-003,1.338965e-005
-1.933825e-003,2.538249e-005
-1.356548e-003,4.515445e-005
-5.959758e-004,7.319176e-005
1.731861e-004,1.064152e-004
8.170719e-004,1.454729e-004
1.300838e-003,1.866375e-004
1.672454e-003,2.258573e-004
2.000313e-003,2.590807e-004
2.328335e-003,2.830664e-004
2.649712e-003,2.965178e-004
2.897187e-003,3.042970e-004
2.973196e-003,3.096451e-004
2.804809e-003,3.120761e-004
2.383923e-003,3.125623e-004
1.797569e-003,3.111037e-004
1.191119e-003,3.088348e-004
7.020054e-004,3.081865e-004
4.049396e-004,3.112658e-004
3.111037e-004,3.167760e-004
3.814401e-004,3.247172e-004
4.986133e-004,3.393030e-004
4.877550e-004,3.593992e-004
2.286124e-004,3.730126e-004
-2.617972e-004,3.704196e-004
-8.064987e-004,3.535648e-004
-1.144081e-003,3.326584e-004
-1.087520e-003,3.193690e-004
-6.617744e-004,3.140208e-004
-9.308726e-005,3.175863e-004
3.349273e-004,3.256896e-004
4.313562e-004,3.336308e-004
1.944166e-004,3.344411e-004
-1.660166e-004,3.229345e-004
-3.716775e-004,2.906835e-004
-2.771934e-004,2.378501e-004
8.259155e-005,1.723757e-004
5.576051e-004,1.047945e-004
9.776788e-004,4.499239e-005
1.232770e-003,-2.330684e-006
1.274583e-003,-3.279896e-005
1.107169e-003,-5.046408e-005
7.608352e-004,-6.521203e-005
2.582704e-004,-8.709085e-005
-3.569296e-004,-1.193418e-004
-1.023504e-003,-1.605064e-004
-1.664473e-003,-2.028055e-004
-2.185999e-003,-2.415391e-004
-2.507861e-003,-2.770314e-004
-2.582574e-003,-3.144685e-004
-2.406084e-003,-3.480160e-004
-2.028471e-003,-3.716775e-004
-1.528500e-003,-3.831841e-004
-9.789361e-004,-3.878840e-004
-4.612996e-004,-3.877220e-004
-6.731888e-005,-3.823738e-004
1.372076e-004,-3.723258e-004
1.527658e-004,-3.575778e-004
4.953022e-005,-3.311612e-004
-5.629844e-005,-2.948586e-004
-4.155049e-005,-2.558008e-004
1.545486e-004,-2.245222e-004
5.062304e-004,-2.081536e-004
9.088010e-004,-2.060468e-004
1.242494e-003,-2.151224e-004
1.442645e-003,-2.318152e-004
1.511199e-003,-2.473734e-004
1.483161e-003,-2.575835e-004
1.345892e-003,-2.608248e-004
1.047205e-003,-2.588801e-004
6.039558e-004,-2.514251e-004
1.200286e-004,-2.387840e-004
-2.783279e-004,-2.222533e-004
-4.937127e-004,-2.013469e-004
-4.770200e-004,-1.747682e-004
-2.551526e-004,-1.438137e-004
7.967438e-005,-1.081593e-004
4.143393e-004,-6.942573e-005
6.622995e-004,-2.971972e-005
7.887104e-004,7.879432e-006
8.019998e-004,4.029250e-005
7.321496e-004,6.589881e-005
6.065489e-004,8.356394e-005
4.462662e-004,9.458438e-005
2.726942e-004,1.034980e-004
1.210010e-004,1.151667e-004
-1.140634e-005,1.295905e-004
-2.164190e-004,1.470936e-004
-5.834968e-004,1.673517e-004
-1.103078e-003,1.897167e-004
-1.660583e-003,2.086784e-004
-2.095728e-003,2.174299e-004
-2.288262e-003,2.135403e-004
-2.217116e-003,2.065715e-004
-1.991196e-003,2.099749e-004
-1.754095e-003,2.308813e-004
-1.563182e-003,2.670219e-004
-1.367407e-003,3.145071e-004
-1.073258e-003,3.707437e-004
-6.225546e-004,4.371906e-004
-2.858527e-005,5.169268e-004
6.422033e-004,6.039558e-004
1.321906e-003,6.859610e-004
1.975679e-003,7.503009e-004
2.581320e-003,7.916276e-004
3.124891e-003,8.091307e-004
3.584836e-003,8.083204e-004
3.941869e-003,7.943827e-004
4.210091e-003,7.632662e-004
4.436661e-003,7.096225e-004
4.649456e-003,6.323173e-004
4.849934e-003,5.373470e-004
4.958519e-003,4.388112e-004
4.958519e-003,3.506476e-004
4.958519e-003,2.801492e-004
4.470533e-003,2.325020e-004
3.532164e-003,2.057612e-004
2.151359e-003,1.949028e-004
5.125510e-004,1.903650e-004
-1.023018e-003,1.801549e-004
-2.113556e-003,1.582761e-004
-2.703150e-003,1.216493e-004
-2.966021e-003,7.059871e-005
-3.151586e-003,8.203562e-006
-3.412998e-003,-5.646050e-005
-3.733727e-003,-1.156143e-004
-3.985902e-003,-1.677994e-004
-4.069204e-003,-2.159328e-004
-3.974557e-003,-2.647144e-004
-3.749447e-003,-3.172236e-004
-3.443467e-003,-3.736223e-004
-3.086922e-003,-4.256453e-004
-2.708498e-003,-4.617858e-004
-2.323268e-003,-4.763717e-004
-1.922481e-003,-4.716718e-004
-1.486687e-003,-4.536825e-004
-1.010215e-003,-4.241867e-004
-5.008436e-004,-3.828600e-004
2.684107e-005,-3.332680e-004
5.460985e-004,-2.885380e-004
1.019330e-003,-2.601766e-004
1.404235e-003,-2.506147e-004
1.676344e-003,-2.538560e-004
1.832251e-003,-2.609869e-004
1.883950e-003,-2.692523e-004
1.848782e-003,-2.817312e-004
1.742791e-003,-3.015032e-004
1.577646e-003,-3.271096e-004
1.358533e-003,-3.530400e-004
1.090963e-003,-3.721637e-004
7.867657e-004,-3.750809e-004
4.640934e-004,-3.525538e-004
1.503349e-004,-3.079858e-004
-1.415448e-004,-2.488320e-004
-4.191627e-004,-1.856265e-004
-6.956460e-004,-1.293899e-004
-9.684019e-004,-8.530812e-005
-1.223007e-003,-5.354332e-005
-1.423481e-003,-3.198864e-005
-1.527689e-003,-1.545797e-005
-1.513265e-003,-3.951337e-006
-1.390744e-003,2.855407e-006
-1.204369e-003,3.503668e-006
-9.930359e-004,-1.682422e-006
-7.688995e-004,-1.108221e-005
-5.339049e-004,-1.335113e-005
-3.019894e-004,2.045080e-006
-1.060525e-004,4.320967e-005
2.684107e-005,1.026876e-004
1.062531e-004,1.654069e-004
1.688103e-004,2.143507e-004
2.490327e-004,2.419018e-004
3.529166e-004,2.538946e-004
4.569625e-004,2.649151e-004
5.318367e-004,2.864697e-004
5.689497e-004,3.185587e-004
5.930975e-004,3.521062e-004
6.449584e-004,3.744712e-004
7.434942e-004,3.788470e-004
8.773603e-004,3.709058e-004
1.015764e-003,3.595612e-004
1.119162e-003,3.529166e-004
1.149792e-003,3.514580e-004
1.084966e-003,3.543751e-004
9.078286e-004,3.576164e-004
6.232416e-004,3.628026e-004
2.699391e-004,3.739850e-004
-7.493595e-005,3.843572e-004
-3.361852e-004,3.850055e-004
-4.728062e-004,3.715541e-004
-4.958195e-004,3.485408e-004
-4.561135e-004,3.243930e-004
-3.945287e-004,3.080245e-004
-3.149546e-004,2.995970e-004
-1.917850e-004,2.897111e-004
-6.058186e-006,2.689667e-004
2.297469e-004,2.344468e-004
4.700898e-004,1.867996e-004
6.601926e-004,1.300767e-004
7.579181e-004,6.930219e-005
7.666696e-004,1.193106e-005
7.396046e-004,-3.555408e-005
7.468975e-004,-7.104638e-005
8.392748e-004,-9.503204e-005
1.005716e-003,-1.167488e-004
1.174102e-003,-1.405724e-004
1.244601e-003,-1.686097e-004
1.123700e-003,-2.018331e-004
7.527319e-004,-2.389460e-004
1.441764e-004,-2.784900e-004
-5.844692e-004,-3.173856e-004
-1.259795e-003,-3.502849e-004
-1.732702e-003,-3.734602e-004
-1.925236e-003,-3.862634e-004
-1.853279e-003,-3.898288e-004
-1.602077e-003,-3.861013e-004
-1.277460e-003,-3.752429e-004
-9.695364e-004,-3.577399e-004
-7.275729e-004,-3.316474e-004
-5.655076e-004,-2.925897e-004
-4.807475e-004,-2.408908e-004
-4.702132e-004,-1.784957e-004
-5.261258e-004,-1.112386e-004
-6.291993e-004,-5.078821e-005
-7.478310e-004,-6.868513e-006
-8.429634e-004,2.262738e-005
-8.692179e-004,4.531652e-005
-7.915886e-004,6.525056e-005
-5.843072e-004,8.016057e-005
-2.687660e-004,8.891209e-005
5.455425e-005,9.085688e-005
2.517878e-004,8.956036e-005
2.490327e-004,9.231547e-005
6.444023e-005,1.036600e-004
-2.186879e-004,1.213252e-004
-4.796130e-004,1.351007e-004
-6.035930e-004,1.362352e-004
-5.193190e-004,1.255389e-004
-2.400805e-004,1.106288e-004
1.396385e-004,9.604298e-005
4.929411e-004,8.032264e-005
7.319876e-004,6.038860e-005
8.370060e-004,3.769945e-005
8.352232e-004,1.209313e-005
7.656972e-004,-1.318906e-005
6.686199e-004,-3.117831e-005
5.794840e-004,-2.890940e-005
5.292437e-004,9.106227e-007
5.431813e-004,5.471631e-005
6.357207e-004,1.222976e-004
8.031343e-004,1.898788e-004
1.035860e-003,2.498430e-004
1.320448e-003,2.976523e-004
1.628210e-003,3.276344e-004
1.902912e-003,3.472443e-004
2.047312e-003,3.687990e-004
1.951369e-003,3.903536e-004
1.559656e-003,4.044533e-004
8.977805e-004,4.078567e-004
8.583286e-005,3.995914e-004
-6.407059e-004,3.824125e-004
-1.043762e-003,3.576164e-004
-1.025611e-003,3.279585e-004
-6.656639e-004,2.978143e-004
-1.506204e-004,2.694529e-004
3.218000e-004,2.415777e-004
6.102764e-004,2.169437e-004
6.563030e-004,1.978200e-004
4.828930e-004,1.879340e-004
1.566554e-004,1.867996e-004
-2.629317e-004,1.942546e-004
-7.366485e-004,2.065715e-004
-1.227868e-003,2.174299e-004
-1.692510e-003,2.177540e-004
-2.062829e-003,2.000889e-004
-2.265735e-003,1.608691e-004
-2.255039e-003,1.033359e-004
-2.020368e-003,3.251336e-005
-1.593326e-003,-4.236082e-005
-1.044897e-003,-1.097800e-004
-4.805854e-004,-1.640719e-004
-2.745081e-005,-2.053985e-004
2.133783e-004,-2.413770e-004
2.057612e-004,-2.799486e-004
2.693341e-006,-3.235441e-004
-2.854588e-004,-3.619536e-004
-5.431426e-004,-3.830221e-004
-6.390853e-004,-3.789705e-004
-4.559515e-004,-3.481781e-004
2.343770e-005,-2.956689e-004
6.922815e-004,-2.301945e-004
1.384463e-003,-1.603444e-004
1.955907e-003,-9.924574e-005
2.312290e-003,-5.386745e-005
2.418119e-003,-2.096820e-005
2.306618e-003,1.419998e-005
2.064816e-003,6.411610e-005
1.832251e-003,1.307250e-004
1.745384e-003,1.987924e-004
1.845703e-003,2.446569e-004
2.031916e-003,2.441707e-004
2.099660e-003,1.884202e-004
1.816531e-003,8.469840e-005
1.065518e-003,-4.252288e-005
-6.132246e-005,-1.652063e-004
-1.262875e-003,-2.640662e-004
-2.210633e-003,-3.290543e-004
-2.702178e-003,-3.600088e-004
-2.694075e-003,-3.617915e-004
-2.293610e-003,-3.428299e-004
-1.682300e-003,-3.173856e-004
-1.021883e-003,-2.943724e-004
-4.202971e-004,-2.793003e-004
6.703327e-005,-2.687660e-004
4.219564e-004,-2.569353e-004
6.624615e-004,-2.324634e-004
8.233925e-004,-1.924333e-004
9.348936e-004,-1.433275e-004
1.011550e-003,-9.243900e-005
1.059036e-003,-4.381940e-005
1.072811e-003,5.286387e-006
1.040074e-003,5.909208e-005
9.459140e-004,1.182459e-004
7.841726e-004,1.791825e-004
5.689497e-004,2.337985e-004
3.258516e-004,2.757735e-004
7.967438e-005,3.007315e-004
-1.543479e-004,3.112658e-004
-3.786463e-004,3.156415e-004
-6.102377e-004,3.158036e-004
-8.619250e-004,3.096451e-004
-1.133871e-003,2.950592e-004
-1.403061e-003,2.746390e-004
-1.616339e-003,2.542187e-004
-1.724113e-003,2.409294e-004
-1.692186e-003,2.428742e-004
-1.494790e-003,2.615117e-004
-1.124795e-003,2.958695e-004
-6.185030e-004,3.430306e-004
-4.916756e-005,3.934329e-004
4.898618e-004,4.396215e-004
9.238730e-004,4.747897e-004
1.227746e-003,4.909963e-004
1.432921e-003,4.835413e-004
1.617514e-003,4.555039e-004
1.853320e-003,4.153117e-004
2.148117e-003,3.647473e-004
2.420550e-003,2.976523e-004
2.531404e-003,2.122438e-004
2.402561e-003,1.158149e-004
2.070002e-003,1.792748e-005
1.620431e-003,-7.736692e-005
1.118514e-003,-1.692580e-004
5.963388e-004,-2.556388e-004
6.670914e-005,-3.287302e-004
-4.606514e-004,-3.749188e-004
-9.696984e-004,-3.903150e-004
-1.439202e-003,-3.750809e-004
-1.852792e-003,-3.314853e-004
-2.221005e-003,-2.617972e-004
-2.587760e-003,-1.734716e-004
-2.997462e-003,-7.526008e-005
-3.454001e-003,2.262738e-005
-3.893200e-003,1.182459e-004
-4.183299e-003,2.158093e-004
-4.187999e-003,3.166139e-004
-3.861759e-003,4.217943e-004
-3.268112e-003,5.242196e-004
-2.504782e-003,6.112488e-004
-1.640649e-003,6.665131e-004
-7.141214e-004,6.755888e-004
2.341226e-004,6.336138e-004
1.122241e-003,5.457744e-004
1.846837e-003,4.237391e-004
2.322014e-003,2.801492e-004
2.514225e-003,1.261871e-004
2.461715e-003,-2.372331e-005
2.254108e-003,-1.561307e-004
2.009389e-003,-2.622834e-004
1.821231e-003,-3.366714e-004
1.722371e-003,-3.846427e-004
1.689147e-003,-4.152731e-004
1.622214e-003,-4.379622e-004
1.383329e-003,-4.604893e-004
8.968081e-004,-4.846370e-004
2.124059e-004,-5.047331e-004
-5.188328e-004,-5.095950e-004
-1.105347e-003,-4.953333e-004
-1.402413e-003,-4.682684e-004
-1.367731e-003,-4.397449e-004
-1.079579e-003,-4.157593e-004
-6.974287e-004,-3.972838e-004
-3.771877e-004,-3.784843e-004
-1.900023e-004,-3.566054e-004
-1.016767e-004,-3.279199e-004
-3.425755e-005,-2.896725e-004
7.724339e-005,-2.418632e-004
2.488706e-004,-1.932436e-004
4.593935e-004,-1.525652e-004
6.752646e-004,-1.240417e-004
8.690950e-004,-1.092938e-004
1.025488e-003,-1.032974e-004
1.141689e-003,-9.535618e-005
1.218508e-003,-7.477388e-005
1.248004e-003,-3.328516e-005
1.219319e-003,2.959619e-005
1.128886e-003,1.081979e-004
9.843234e-004,1.974959e-004
8.010275e-004,2.926282e-004
6.010387e-004,3.897054e-004
4.204978e-004,4.791655e-004
2.974902e-004,5.537156e-004
2.407673e-004,6.010387e-004
2.253711e-004,6.059006e-004
2.243987e-004,5.637637e-004
2.503292e-004,4.898618e-004
3.393030e-004,4.091532e-004
4.997478e-004,3.490270e-004
6.799645e-004,3.218000e-004
7.966516e-004,3.239069e-004
7.802831e-004,3.410858e-004
6.084936e-004,3.611819e-004
3.227724e-004,3.717161e-004
-4.923729e-006,3.681507e-004
-2.925897e-004,3.535648e-004
-4.773441e-004,3.414099e-004
-5.381186e-004,3.393030e-004
-4.865818e-004,3.386548e-004
-3.752429e-004,3.271482e-004
-2.789762e-004,2.947351e-004
-2.467252e-004,2.435224e-004
-2.755728e-004,1.867996e-004
-3.154408e-004,1.331559e-004
-3.055549e-004,8.777764e-005
-2.241981e-004,5.552663e-005
-8.806324e-005,3.640293e-005
6.006447e-005,2.781346e-005
1.900409e-004,2.781346e-005
2.880904e-004,2.829966e-005
3.470822e-004,2.262738e-005
3.644232e-004,2.855407e-006
3.440029e-004,-3.652646e-005
2.981384e-004,-9.130454e-005
2.474120e-004,-1.546721e-004
1.991165e-004,-2.136638e-004
1.352628e-004,-2.598524e-004
1.857574e-005,-2.885380e-004
-1.783336e-004,-2.995585e-004
-4.400691e-004,-2.935620e-004
-6.902979e-004,-2.778417e-004
-8.312946e-004,-2.640662e-004
-7.885094e-004,-2.582318e-004
-5.428185e-004,-2.611490e-004
-1.418689e-004,-2.720074e-004
3.094830e-004,-2.874036e-004
6.882299e-004,-3.000446e-004
9.055596e-004,-3.031239e-004
9.232248e-004,-2.927517e-004
7.538663e-004,-2.715212e-004
4.529109e-004,-2.444563e-004
1.044704e-004,-2.154466e-004
-2.079916e-004,-1.865989e-004
-4.371519e-004,-1.605064e-004
-5.757177e-004,-1.387897e-004
-6.376266e-004,-1.242038e-004
-6.342233e-004,-1.188556e-004
-5.700454e-004,-1.259865e-004
-4.531963e-004,-1.491618e-004
-3.013411e-004,-1.853024e-004
-1.392759e-004,-2.216050e-004
6.096713e-006,-2.449425e-004
1.184080e-004,-2.413770e-004
1.992786e-004,-2.068571e-004
2.629703e-004,-1.481895e-004
3.234207e-004,-7.898758e-005
4.078567e-004,-1.254080e-005
5.410745e-004,4.466826e-005
6.964952e-004,8.793970e-005
7.848209e-004,1.107909e-004
7.324737e-004,1.190562e-004
5.271368e-004,1.244044e-004
1.837203e-004,1.389903e-004
-2.452666e-004,1.618415e-004
-6.556159e-004,1.880961e-004
-9.497644e-004,2.128921e-004
-1.088654e-003,2.333123e-004
-1.084927e-003,2.517878e-004
-9.743983e-004,2.738286e-004
-7.941817e-004,3.004074e-004
-5.833348e-004,3.263378e-004
-3.703810e-004,3.449753e-004
-1.713648e-004,3.551855e-004
-1.140634e-005,3.613439e-004
5.633696e-005,3.694472e-004
-2.420950e-005,3.879227e-004
-2.746004e-004,4.180668e-004
-6.561021e-004,4.551798e-004
-1.074393e-003,4.869446e-004
-1.415540e-003,5.083373e-004
-1.577443e-003,5.177371e-004
-1.507917e-003,5.153061e-004
-1.225762e-003,5.062304e-004
-8.056884e-004,4.961824e-004
-3.350507e-004,4.841895e-004
1.138702e-004,4.668485e-004
4.843516e-004,4.449697e-004
7.258290e-004,4.208219e-004
8.037825e-004,3.921364e-004
7.092984e-004,3.593992e-004
4.814344e-004,3.227724e-004
2.386605e-004,2.829043e-004
1.540623e-004,2.425500e-004
3.634508e-004,2.010613e-004
8.859497e-004,1.556830e-004
1.619297e-003,1.051186e-004
2.404182e-003,5.228533e-005
3.089884e-003,5.772582e-006
3.581270e-003,-2.664048e-005
3.867481e-003,-4.365734e-005
3.996162e-003,-5.500191e-005
4.001834e-003,-6.845333e-005
3.864888e-003,-8.336335e-005
3.526978e-003,-9.989401e-005
2.953911e-003,-1.164247e-004
2.173238e-003,-1.258245e-004
1.277662e-003,-1.229073e-004
4.112601e-004,-1.104282e-004
-3.097686e-004,-9.908367e-005
-8.974173e-004,-9.665270e-005
-1.515048e-003,-1.049180e-004
-2.325051e-003,-1.233935e-004
-3.336341e-003,-1.472171e-004
-4.435798e-003,-1.708786e-004
-4.967540e-003,-1.930815e-004
-4.967540e-003,-2.160948e-004
-4.967540e-003,-2.420253e-004
-4.967540e-003,-2.716832e-004
-4.967378e-003,-3.029619e-004
-4.067259e-003,-3.355370e-004
-2.915294e-003,-3.721637e-004
-1.912757e-003,-4.160834e-004
-1.238727e-003,-4.650271e-004
-9.684019e-004,-5.102433e-004
-1.030311e-003,-5.392530e-004
-1.255095e-003,-5.408737e-004
-1.473559e-003,-5.128364e-004
-1.563506e-003,-4.635685e-004
-1.480690e-003,-4.065215e-004
-1.296260e-003,-3.549848e-004
-1.129333e-003,-3.130099e-004
-1.051541e-003,-2.702246e-004
-1.035497e-003,-2.139880e-004
-1.003408e-003,-1.447861e-004
-8.628974e-004,-7.623246e-005
-5.353634e-004,-2.048200e-005
-5.571990e-006,1.468618e-005
6.627856e-004,2.829966e-005
1.347675e-003,2.181705e-005
1.937918e-003,1.396819e-006
2.369175e-003,-2.453363e-005
2.629454e-003,-4.560212e-005
2.750355e-003,-5.208474e-005
2.778555e-003,-3.944364e-005
2.739983e-003,-1.286493e-005
2.632695e-003,2.165498e-005
2.424602e-003,6.541262e-005
2.087667e-003,1.282940e-004
1.640527e-003,2.122438e-004
1.170051e-003,3.013798e-004
7.903311e-004,3.726885e-004
5.786736e-004,4.080188e-004
5.456123e-004,4.041292e-004
6.271312e-004,3.720403e-004
7.139983e-004,3.360618e-004
7.271256e-004,3.175863e-004
6.725095e-004,3.313618e-004
6.149763e-004,3.702575e-004
6.191900e-004,4.072085e-004
7.091364e-004,4.172565e-004
8.681226e-004,3.913261e-004
1.059684e-003,3.418961e-004
1.241846e-003,2.864697e-004
1.387867e-003,2.436845e-004
1.508444e-003,2.250470e-004
1.627400e-003,2.393087e-004
1.763859e-003,2.903593e-004
1.912474e-003,3.699334e-004
2.047961e-003,4.637693e-004
2.140176e-003,5.530673e-004
2.151521e-003,6.219451e-004
2.022192e-003,6.600305e-004
1.713943e-003,6.652166e-004
1.260645e-003,6.383138e-004
7.590525e-004,5.846701e-004
3.146691e-004,5.149820e-004
-3.141010e-006,4.367043e-004
-1.606685e-004,3.538890e-004
-1.522411e-004,2.712356e-004
3.665733e-006,1.927960e-004
2.637806e-004,1.187321e-004
5.574431e-004,5.147500e-005
8.120479e-004,-9.299493e-006
9.817304e-004,-6.375344e-005
1.052391e-003,-1.102662e-004
1.035050e-003,-1.498101e-004
9.509380e-004,-1.849783e-004
8.057273e-004,-2.175534e-004
5.822391e-004,-2.460769e-004
2.688046e-004,-2.700626e-004
-1.146419e-004,-2.950206e-004
-5.196431e-004,-3.212752e-004
-9.008207e-004,-3.478539e-004
-1.231758e-003,-3.690845e-004
-1.496735e-003,-3.784843e-004
-1.682462e-003,-3.745947e-004
-1.769167e-003,-3.629260e-004
-1.722330e-003,-3.468815e-004
-1.514562e-003,-3.272716e-004
-1.148619e-003,-3.107410e-004
-6.752257e-004,-3.036101e-004
-1.872472e-004,-3.068514e-004
2.153231e-004,-3.152788e-004
4.673347e-004,-3.188442e-004
5.644119e-004,-3.152788e-004
5.524190e-004,-3.066893e-004
4.945617e-004,-2.943724e-004
4.367043e-004,-2.784900e-004
3.987811e-004,-2.582318e-004
3.733368e-004,-2.363530e-004
3.465960e-004,-2.143121e-004
3.060797e-004,-1.942160e-004
2.222919e-004,-1.767130e-004
6.735741e-005,-1.630995e-004
-1.658546e-004,-1.502963e-004
-4.527101e-004,-1.340898e-004
-7.413484e-004,-1.138316e-004
-9.518713e-004,-9.130454e-005
-1.015887e-003,-7.218083e-005
-9.154066e-004,-5.678463e-005
-6.901358e-004,-3.847125e-005
-4.332623e-004,-8.489166e-006
-2.548284e-004,3.154097e-005
-2.407288e-004,7.108491e-005
-4.099249e-004,1.064152e-004
-7.225489e-004,1.378558e-004
-1.130467e-003,1.683241e-004
-1.596891e-003,2.034923e-004
-2.053916e-003,2.454672e-004
-2.408191e-003,2.885766e-004
-2.599266e-003,3.237448e-004
-2.593270e-003,3.418961e-004
-2.386474e-003,3.418961e-004
-2.022151e-003,3.252034e-004
-1.590085e-003,2.960316e-004
-1.195617e-003,2.671840e-004
-9.126515e-004,2.500050e-004
-7.559343e-004,2.461155e-004
-6.846256e-004,2.485465e-004
-6.353577e-004,2.506533e-004
-5.606457e-004,2.558394e-004
-4.515757e-004,2.709115e-004
-3.246786e-004,3.041349e-004
-1.924333e-004,3.490270e-004
-5.402952e-005,3.969983e-004
9.215340e-005,4.418904e-004
2.417397e-004,4.786793e-004
3.927847e-004,5.073649e-004
5.499881e-004,5.321609e-004
7.167534e-004,5.545259e-004
8.895152e-004,5.689497e-004
1.055146e-003,5.661946e-004
1.201167e-003,5.399400e-004
1.308130e-003,4.961824e-004
1.353185e-003,4.459421e-004
1.313641e-003,3.965121e-004
1.178316e-003,3.461098e-004
9.639032e-004,2.843629e-004
7.149707e-004,2.041406e-004
4.945617e-004,1.114392e-004
3.603715e-004,1.857574e-005
3.380065e-004,-6.667062e-005
3.976466e-004,-1.408965e-004
4.739794e-004,-2.036158e-004
5.216266e-004,-2.564491e-004
5.520949e-004,-2.985861e-004
6.253485e-004,-3.253268e-004
7.981102e-004,-3.319715e-004
1.076863e-003,-3.168994e-004
1.400346e-003,-2.809209e-004
1.691902e-003,-2.248464e-004
1.911339e-003,-1.522411e-004
2.064491e-003,-7.363943e-005
2.171779e-003,-5.571990e-006
2.230933e-003,3.364782e-005
2.217482e-003,3.526847e-005
2.121377e-003,-2.816880e-006
1.948614e-003,-7.039812e-005
1.667430e-003,-1.509446e-004
1.219967e-003,-2.288980e-004
5.906665e-004,-2.963172e-004
-1.663408e-004,-3.494746e-004
-9.411749e-004,-3.859393e-004
-1.585223e-003,-4.063595e-004
-1.978393e-003,-4.160834e-004
-2.090542e-003,-4.232143e-004
-1.989414e-003,-4.282383e-004
-1.797690e-003,-4.292107e-004
-1.671928e-003,-4.254832e-004
-1.806442e-003,-4.168937e-004
-2.359571e-003,-4.060354e-004
-3.346389e-003,-3.911253e-004
-4.611317e-003,-3.763774e-004
-4.967540e-003,-3.695707e-004
-4.967378e-003,-3.741085e-004
-4.967215e-003,-3.857772e-004
-4.967540e-003,-3.916115e-004
-4.967378e-003,-3.781601e-004
-3.740210e-003,-3.350507e-004
-2.365892e-003,-2.622834e-004
-1.207772e-003,-1.708786e-004
-3.647087e-004,-6.812920e-005
1.902029e-004,3.624086e-005
5.767288e-004,1.367214e-004
9.230627e-004,2.284504e-004
1.293869e-003,3.075383e-004
1.695954e-003,3.699334e-004
2.085722e-003,4.063981e-004
2.393648e-003,4.161220e-004
2.566896e-003,4.005638e-004
2.598013e-003,3.647473e-004
2.511632e-003,3.209897e-004
2.353617e-003,2.807975e-004
2.180045e-003,2.535705e-004
2.048447e-003,2.456293e-004
1.995127e-003,2.595669e-004
2.017006e-003,2.908455e-004
2.075998e-003,3.342791e-004
2.129318e-003,3.833848e-004
2.145362e-003,4.345975e-004
2.113922e-003,4.859722e-004
2.038561e-003,5.368608e-004
1.938728e-003,5.809425e-004
1.838896e-003,6.151384e-004
1.764183e-003,6.339379e-004
1.730636e-003,6.323173e-004
1.736956e-003,6.089798e-004
1.763535e-003,5.661946e-004
1.786548e-003,5.044477e-004
1.790600e-003,4.256839e-004
1.764021e-003,3.381686e-004
1.700167e-003,2.571359e-004
1.607628e-003,1.919856e-004
1.521571e-003,1.438522e-004
1.478786e-003,1.064152e-004
1.495965e-003,7.367795e-005
1.560467e-003,4.628891e-005
1.641662e-003,2.392390e-005
1.698871e-003,7.555301e-006
1.687526e-003,-3.141010e-006
1.550257e-003,-1.043395e-005
1.229042e-003,-2.015787e-005
7.290703e-004,-3.328516e-005
1.432040e-004,-5.419158e-005
-4.130042e-004,-8.303922e-005
-8.753765e-004,-1.188556e-004
-1.244237e-003,-1.540238e-004
-1.554268e-003,-1.848162e-004
-1.834317e-003,-2.109087e-004
-2.081305e-003,-2.306807e-004
-2.259091e-003,-2.444563e-004
-2.316624e-003,-2.520733e-004
-2.237536e-003,-2.546664e-004
-2.052781e-003,-2.532078e-004
-1.825403e-003,-2.472114e-004
-1.627035e-003,-2.374874e-004
-1.491387e-003,-2.272773e-004
-1.392527e-003,-2.182017e-004
-1.258337e-003,-2.128535e-004
-1.008918e-003,-2.146363e-004
-6.065101e-004,-2.238740e-004
-8.530812e-005,-2.384598e-004
4.553419e-004,-2.553146e-004
9.026425e-004,-2.715212e-004
1.175885e-003,-2.861070e-004
1.233256e-003,-2.968033e-004
1.098418e-003,-3.013411e-004
8.645570e-004,-2.953447e-004
6.402585e-004,-2.796244e-004
4.882411e-004,-2.579077e-004
4.135290e-004,-2.334358e-004
3.926226e-004,-2.058847e-004
4.062361e-004,-1.724993e-004
4.530729e-004,-1.311726e-004
5.587396e-004,-8.303922e-005
7.433321e-004,-3.117831e-005
9.293833e-004,1.889987e-005
9.408899e-004,6.816773e-005
6.086557e-004,1.119254e-004
-9.973194e-005,1.448246e-004
-9.927117e-004,1.631380e-004
-1.749071e-003,1.654069e-004
-2.103508e-003,1.524417e-004
-1.970290e-003,1.323456e-004
-1.461243e-003,1.150046e-004
-8.058504e-004,1.064152e-004
-2.263049e-004,1.093323e-004
1.581140e-004,1.244044e-004
3.605336e-004,1.521176e-004
4.626348e-004,1.950649e-004
5.059062e-004,2.564877e-004
4.530729e-004,3.305515e-004
2.568118e-004,4.029947e-004
-6.310517e-005,4.602039e-004
-4.378002e-004,4.927790e-004
-7.724650e-004,4.994237e-004
-9.693743e-004,4.905101e-004
-9.850947e-004,4.768966e-004
-8.591699e-004,4.697657e-004
-6.888393e-004,4.738173e-004
-5.638869e-004,4.895377e-004
-5.113778e-004,5.119027e-004
-4.976023e-004,5.297299e-004
-4.651892e-004,5.302161e-004
-3.750809e-004,5.093097e-004
-2.256567e-004,4.739794e-004
-4.203669e-005,4.334631e-004
1.453108e-004,3.884089e-004
3.125623e-004,3.376824e-004
4.462662e-004,2.833905e-004
5.360505e-004,2.274780e-004
5.783495e-004,1.723757e-004
5.715428e-004,1.210010e-004
5.041235e-004,7.465034e-005
3.509718e-004,3.607880e-005
1.078737e-004,7.393236e-006
-1.971332e-004,-1.335113e-005
-5.071641e-004,-3.134038e-005
-7.672789e-004,-4.835724e-005
-9.379336e-004,-6.278104e-005
-9.862292e-004,-7.185670e-005
-8.954725e-004,-7.218083e-005
-6.702017e-004,-6.910160e-005
-3.433161e-004,-6.958779e-005
2.343770e-005,-7.704279e-005
3.582647e-004,-9.405965e-005
6.057385e-004,-1.219349e-004
7.467355e-004,-1.574272e-004
7.987585e-004,-1.934057e-004
7.929241e-004,-2.203085e-004
7.585663e-004,-2.332737e-004
7.221015e-004,-2.361909e-004
7.071915e-004,-2.323013e-004
7.321496e-004,-2.272773e-004
7.955172e-004,-2.277635e-004
8.553194e-004,-2.386219e-004
8.452713e-004,-2.579077e-004
7.177258e-004,-2.812451e-004
4.760863e-004,-3.018274e-004
1.880961e-004,-3.144685e-004
-4.187462e-005,-3.186821e-004
-1.242038e-004,-3.115513e-004
-3.085418e-005,-2.964792e-004
1.897167e-004,-2.799486e-004
4.368664e-004,-2.647144e-004
6.049282e-004,-2.491561e-004
6.248623e-004,-2.292221e-004
4.736553e-004,-2.019951e-004
1.631380e-004,-1.707166e-004
-2.692523e-004,-1.410586e-004
-7.585274e-004,-1.214487e-004
-1.220900e-003,-1.125351e-004
-1.566099e-003,-1.110765e-004
-1.732378e-003,-1.165867e-004
-1.706610e-003,-1.271210e-004
-1.512941e-003,-1.402483e-004
-1.188487e-003,-1.478653e-004
-8.077952e-004,-1.357104e-004
-4.823681e-004,-1.003802e-004
-3.079858e-004,-4.689865e-005
-3.057169e-004,1.079661e-005
-4.172179e-004,6.395404e-005
-5.228845e-004,1.096565e-004
-4.703753e-004,1.517934e-004
-1.478653e-004,1.932822e-004
4.673347e-004,2.308813e-004
1.285117e-003,2.561635e-004
2.139366e-003,2.600531e-004
2.846136e-003,2.448189e-004
3.272209e-003,2.193747e-004
3.389221e-003,1.974959e-004
3.283392e-003,1.887444e-004
3.094422e-003,1.963614e-004
2.918580e-003,2.141886e-004
2.762186e-003,2.265056e-004
2.553283e-003,2.235884e-004
2.194792e-003,2.072198e-004
1.628534e-003,1.837203e-004
8.723363e-004,1.626518e-004
-1.010982e-005,1.553589e-004
-9.277235e-004,1.697827e-004
-1.832534e-003,2.052750e-004
-2.783049e-003,2.522740e-004
-3.849442e-003,3.008936e-004
-4.964946e-003,3.446512e-004
-4.967540e-003,3.765781e-004
-4.967540e-003,3.944053e-004
-4.967702e-003,3.973225e-004
-4.967540e-003,3.850055e-004
-4.967378e-003,3.584268e-004
-4.967540e-003,3.164518e-004
-4.299176e-003,2.572980e-004
-3.649291e-003,1.793446e-004
-3.224516e-003,8.648112e-005
-2.940577e-003,-8.975362e-006
-2.654369e-003,-9.535618e-005
-2.221978e-003,-1.661787e-004
-1.549406e-003,-2.222533e-004
-6.510781e-004,-2.677937e-004
3.605336e-004,-3.031239e-004
1.322230e-003,-3.241924e-004
2.108898e-003,-3.285682e-004
2.659760e-003,-3.097686e-004
2.977248e-003,-2.653627e-004
3.102039e-003,-2.026434e-004
3.087615e-003,-1.267968e-004
2.978382e-003,-4.236082e-005
2.820854e-003,5.163707e-005
2.661057e-003,1.564933e-004
2.536590e-003,2.709115e-004
2.468522e-003,3.890571e-004
2.458960e-003,5.084993e-004
2.487808e-003,6.187038e-004
2.529783e-003,6.963331e-004
2.573541e-003,7.161052e-004
2.612761e-003,6.650545e-004
2.639664e-003,5.449640e-004
2.645660e-003,3.780367e-004
2.626213e-003,1.903650e-004
2.578241e-003,1.014835e-005
2.502232e-003,-1.326312e-004
2.404506e-003,-2.190120e-004
2.297866e-003,-2.502906e-004
2.188634e-003,-2.421874e-004
2.073729e-003,-2.172293e-004
1.946832e-003,-1.929195e-004
1.802593e-003,-1.812508e-004
1.644903e-003,-1.854645e-004
1.483486e-003,-2.018331e-004
1.333413e-003,-2.209568e-004
1.202788e-003,-2.303566e-004
1.084966e-003,-2.216050e-004
9.562862e-004,-1.966470e-004
7.817416e-004,-1.665028e-004
5.433434e-004,-1.431655e-004
2.517878e-004,-1.305243e-004
-7.477388e-005,-1.245279e-004
-4.107352e-004,-1.173971e-004
-7.249799e-004,-1.054042e-004
-9.825015e-004,-9.292520e-005
-1.158505e-003,-8.465986e-005
-1.245858e-003,-8.239095e-005
-1.248937e-003,-7.785312e-005
-1.170011e-003,-6.213279e-005
-1.003732e-003,-3.766092e-005
-7.535033e-004,-8.327101e-006
-4.515757e-004,2.003433e-005
-1.566169e-004,4.142696e-005
9.037068e-005,5.131294e-005
2.824181e-004,4.580272e-005
4.337872e-004,2.554455e-005
5.540397e-004,1.234753e-006
6.413930e-004,-1.788895e-005
6.911471e-004,-2.177852e-005
6.911471e-004,-7.192643e-006
6.195141e-004,2.359977e-005
4.632831e-004,6.589881e-005
2.337985e-004,1.180839e-004
-2.242678e-005,1.733481e-004
-2.198223e-004,2.245608e-004
-2.733039e-004,2.722080e-004
-1.707166e-004,3.171001e-004
-1.043395e-005,3.519442e-004
6.768154e-005,3.699334e-004
-1.027188e-005,3.657197e-004
-2.314910e-004,3.420582e-004
-5.283947e-004,3.091589e-004
-7.755442e-004,2.748010e-004
-8.452323e-004,2.443328e-004
-6.954839e-004,2.224539e-004
-3.797808e-004,2.064095e-004
1.193106e-005,1.924718e-004
4.162841e-004,1.783722e-004
8.023240e-004,1.642725e-004
1.157896e-003,1.503349e-004
1.463876e-003,1.360731e-004
1.604711e-003,1.253768e-004
1.376846e-003,1.208390e-004
6.339379e-004,1.201907e-004
-5.677765e-004,1.211631e-004
-1.896550e-003,1.203528e-004
-2.946087e-003,1.138702e-004
-3.426450e-003,9.669123e-005
-3.268760e-003,6.379197e-005
-2.636541e-003,1.711715e-005
-1.819731e-003,-3.928157e-005
-1.086385e-003,-9.827335e-005
-5.906277e-004,-1.558065e-004
-3.669776e-004,-2.105846e-004
-3.873979e-004,-2.601766e-004
-6.518884e-004,-3.003688e-004
-1.158667e-003,-3.279199e-004
-1.846310e-003,-3.394265e-004
-2.604452e-003,-3.345645e-004
-3.299715e-003,-3.211132e-004
-3.786885e-003,-3.055549e-004
-3.957054e-003,-2.948586e-004
-3.773595e-003,-2.929138e-004
-3.287397e-003,-2.993964e-004
-2.613690e-003,-3.094444e-004
-1.880992e-003,-3.194925e-004
-1.188811e-003,-3.264613e-004
-6.061860e-004,-3.258130e-004
-1.793060e-004,-3.186821e-004
8.097089e-005,-3.130099e-004
1.979821e-004,-3.136581e-004
2.167816e-004,-3.159271e-004
1.872858e-004,-3.066893e-004
1.482280e-004,-2.793003e-004
1.224596e-004,-2.344082e-004
1.278078e-004,-1.810887e-004
1.574657e-004,-1.300382e-004
1.838824e-004,-8.806324e-005
1.906891e-004,-5.613637e-005
1.991165e-004,-3.312309e-005
2.569738e-004,-1.837515e-005
4.059119e-004,-1.318906e-005
6.493342e-004,-1.837515e-005
9.494794e-004,-2.874733e-005
1.250921e-003,-3.636440e-005
1.514764e-003,-3.685060e-005
1.733877e-003,-3.117831e-005
1.920577e-003,-2.388537e-005
2.085722e-003,-1.140634e-005
2.223316e-003,1.436204e-005
2.331576e-003,6.265751e-005
2.418930e-003,1.355869e-004
2.501097e-003,2.308813e-004
2.580510e-003,3.422202e-004
2.643229e-003,4.611762e-004
2.658301e-003,5.781874e-004
2.576782e-003,6.781818e-004
2.354752e-003,7.535422e-004
1.975355e-003,8.045929e-004
1.455772e-003,8.425161e-004
8.522401e-004,8.817361e-004
2.318537e-004,9.285730e-004
-3.376438e-004,9.755720e-004
-8.017988e-004,1.009768e-003
-1.133871e-003,1.017709e-003
-1.327377e-003,9.825408e-004
-1.375186e-003,9.005356e-004
-1.280053e-003,7.854691e-004
-1.052352e-003,6.590580e-004
-7.099077e-004,5.407503e-004
-2.974516e-004,4.391353e-004
1.049566e-004,3.559958e-004
4.002396e-004,2.919800e-004
5.175750e-004,2.464396e-004
4.465904e-004,2.128921e-004
2.355812e-004,1.795066e-004
-7.354709e-006,1.349386e-004
-1.258245e-004,7.772959e-005
2.855407e-006,1.646890e-005
3.814401e-004,-3.458168e-005
8.987529e-004,-6.035007e-005
1.401642e-003,-5.354332e-005
1.770018e-003,-1.805102e-005
1.949587e-003,2.943412e-005
1.934515e-003,6.735741e-005
1.740684e-003,8.080883e-005
1.408935e-003,6.346784e-005
1.001502e-003,2.392390e-005
6.015248e-004,-3.198864e-005
2.448189e-004,-1.026491e-004
-1.314967e-004,-1.846542e-004
-6.185030e-004,-2.702246e-004
-1.223493e-003,-3.544986e-004
-1.829941e-003,-4.387725e-004
-2.240777e-003,-5.275843e-004
-2.292476e-003,-6.144513e-004
-1.953921e-003,-6.880290e-004
-1.361897e-003,-7.431312e-004
-7.567446e-004,-7.795958e-004
-3.551469e-004,-8.021229e-004
-2.214430e-004,-8.147640e-004
-2.605007e-004,-8.154123e-004
-3.204649e-004,-7.959644e-004
-2.959930e-004,-7.541516e-004
-1.846542e-004,-6.896496e-004
-5.905355e-005,-6.082929e-004
7.485573e-007,-5.191569e-004
-4.203669e-005,-4.274280e-004
-1.653684e-004,-3.363473e-004
-3.081479e-004,-2.488320e-004
-3.969597e-004,-1.661787e-004
-3.741085e-004,-8.530812e-005
-2.175534e-004,7.485573e-007
5.536457e-005,9.442231e-005
4.029947e-004,1.871237e-004
7.861174e-004,2.535705e-004
1.169726e-003,2.722080e-004
1.521733e-003,2.368777e-004
1.802431e-003,1.678379e-004
1.964173e-003,8.907416e-005
1.955259e-003,1.922400e-005
1.778121e-003,-3.036798e-005
1.509416e-003,-5.824322e-005
1.251245e-003,-7.023606e-005
1.094690e-003,-7.056019e-005
1.064546e-003,-5.921561e-005
1.055308e-003,-2.955766e-005
8.765499e-004,2.570662e-005
4.096394e-004,1.023635e-004
-2.987481e-004,1.837203e-004
-1.058348e-003,2.483844e-004
-1.629628e-003,2.876042e-004
-1.833345e-003,3.064038e-004
-1.666255e-003,3.172622e-004
-1.326080e-003,3.303894e-004
-1.068720e-003,3.534027e-004
-1.080065e-003,3.812780e-004
-1.393661e-003,4.026706e-004
-1.848093e-003,4.119083e-004
-2.180813e-003,4.140152e-004
-2.206095e-003,4.200116e-004
-1.921022e-003,4.367043e-004
-1.463836e-003,4.606900e-004
-9.996805e-004,4.858102e-004
-6.408680e-004,5.023408e-004
-4.152731e-004,5.039615e-004
-2.942103e-004,4.901859e-004
-2.451045e-004,4.649037e-004
-2.715212e-004,4.318424e-004
-3.789705e-004,3.986190e-004
-5.228845e-004,3.670162e-004
-6.125065e-004,3.373583e-004
-5.708557e-004,3.080245e-004
-3.775118e-004,2.780424e-004
-5.856735e-005,2.440086e-004
3.373583e-004,2.067336e-004
7.337703e-004,1.726999e-004
1.036833e-003,1.453108e-004
1.171995e-003,1.216493e-004
1.123862e-003,9.555677e-005
9.540173e-004,6.330578e-005
7.866036e-004,2.441009e-005
7.574318e-004,-1.707863e-005
9.541793e-004,-5.467778e-005
1.327903e-003,-8.498399e-005
1.696440e-003,-1.083214e-004
1.855426e-003,-1.289037e-004
1.687364e-003,-1.489998e-004
1.188202e-003,-1.637477e-004
4.529109e-004,-1.694200e-004
-3.522297e-004,-1.653684e-004
-1.036793e-003,-1.562927e-004
-1.452491e-003,-1.486757e-004
-1.543734e-003,-1.480274e-004
-1.363679e-003,-1.536997e-004
-1.054297e-003,-1.652063e-004
-7.797579e-004,-1.810887e-004
-6.624226e-004,-1.976194e-004
-7.095836e-004,-2.112329e-004
-8.061745e-004,-2.175534e-004
-8.124951e-004,-2.180396e-004
-6.595054e-004,-2.225774e-004
-3.781601e-004,-2.386219e-004
-5.775702e-005,-2.640662e-004
2.080301e-004,-2.929138e-004
3.579406e-004,-3.196545e-004
3.877606e-004,-3.356990e-004
3.449753e-004,-3.356990e-004
2.799871e-004,-3.222476e-004
2.013854e-004,-3.042584e-004
7.286763e-005,-2.895104e-004
-1.339277e-004,-2.781658e-004
-3.948528e-004,-2.640662e-004
-6.369784e-004,-2.412149e-004
-7.774890e-004,-2.100984e-004
-7.543136e-004,-1.775233e-004
-5.363359e-004,-1.528894e-004
-1.373311e-004,-1.420310e-004
3.657197e-004,-1.447861e-004
8.710398e-004,-1.525652e-004
1.310075e-003,-1.541859e-004
1.649765e-003,-1.410586e-004
1.879250e-003,-1.182074e-004
2.004527e-003,-9.584238e-005
2.046664e-003,-8.125649e-005
2.029323e-003,-7.363943e-005
1.958987e-003,-6.245691e-005
1.836627e-003,-3.117831e-005
1.672292e-003,2.910999e-005
1.476517e-003,1.164632e-004
1.245573e-003,2.161334e-004
9.655239e-004,3.030004e-004
6.454446e-004,3.593992e-004
3.117519e-004,3.846814e-004
-3.247483e-005,3.854917e-004
-4.091146e-004,3.741471e-004
-8.325911e-004,3.587509e-004
-1.270492e-003,3.451374e-004
-1.636759e-003,3.386548e-004
-1.831886e-003,3.402755e-004
-1.805631e-003,3.465960e-004
-1.579550e-003,3.569682e-004
-1.230948e-003,3.731747e-004
-8.663007e-004,3.961880e-004
-5.888450e-004,4.253598e-004
-4.565997e-004,4.551798e-004
-4.397449e-004,4.781931e-004
-4.463896e-004,4.908342e-004
-3.922598e-004,4.906721e-004
-2.363530e-004,4.845136e-004
1.646890e-005,4.773828e-004
3.203414e-004,4.697657e-004
6.065489e-004,4.574487e-004
8.042688e-004,4.316803e-004
8.767120e-004,3.882468e-004
8.498091e-004,3.320101e-004
7.888725e-004,2.692908e-004
7.447907e-004,2.093267e-004
7.311772e-004,1.564933e-004
7.216153e-004,1.086841e-004
6.566271e-004,6.768154e-005
4.736553e-004,3.235129e-005
1.597346e-004,-2.238346e-007
-2.355427e-004,-2.907146e-005
-6.337371e-004,-4.576419e-005
-9.675916e-004,-4.414354e-005
-1.199993e-003,-2.599222e-005
-1.320570e-003,-1.844488e-006
-1.338235e-003,1.031041e-005
-1.283133e-003,-2.168618e-006
-1.188000e-003,-3.701266e-005
-1.065641e-003,-7.607040e-005
-9.048723e-004,-1.032974e-004
-6.922426e-004,-1.165867e-004
-4.309934e-004,-1.246900e-004
-1.527273e-004,-1.389517e-004
9.977047e-005,-1.596961e-004
3.007315e-004,-1.838438e-004
4.611762e-004,-2.003745e-004
6.237278e-004,-2.019951e-004
8.280924e-004,-1.825473e-004
1.069408e-003,-1.498101e-004
1.316558e-003,-1.178833e-004
1.548150e-003,-9.989401e-005
1.774232e-003,-1.008664e-004
2.015709e-003,-1.128592e-004
2.291546e-003,-1.216107e-004
2.611951e-003,-1.211246e-004
2.963634e-003,-1.156143e-004
3.303812e-003,-1.118868e-004
3.579326e-003,-1.055663e-004
3.757923e-003,-8.563225e-005
3.847384e-003,-5.338126e-005
3.861646e-003,-2.518189e-005
3.789040e-003,-1.934754e-005
3.619842e-003,-3.911951e-005
3.317750e-003,-7.688073e-005
2.764617e-003,-1.167488e-004
1.801783e-003,-1.454344e-004
3.827366e-004,-1.580754e-004
-1.246668e-003,-1.564548e-004
-2.618552e-003,-1.442999e-004
-3.423047e-003,-1.258245e-004
-3.649129e-003,-1.011905e-004
-3.580251e-003,-7.347736e-005
-3.614447e-003,-4.916756e-005
-4.035008e-003,-3.636440e-005
-4.852958e-003,-3.749886e-005
-4.967540e-003,-4.673658e-005
-4.967540e-003,-5.597430e-005
-4.967378e-003,-5.565017e-005
-4.967540e-003,-3.928157e-005
-4.967540e-003,-4.275467e-006
-4.967540e-003,4.531652e-005
-4.176978e-003,1.020394e-004
-2.692454e-003,1.584381e-004
-1.227868e-003,2.055991e-004
-2.420950e-005,2.388225e-004
6.992503e-004,2.563256e-004
8.415438e-004,2.579462e-004
4.686312e-004,2.470879e-004
-2.178775e-004,2.315296e-004
-9.278856e-004,2.171058e-004
-1.393499e-003,2.107852e-004
-1.472749e-003,2.148369e-004
-1.195293e-003,2.300710e-004
-7.350279e-004,2.503292e-004
-2.765452e-004,2.670219e-004
8.113296e-005,2.707494e-004
3.417340e-004,2.600531e-004
5.551741e-004,2.415777e-004
7.645627e-004,2.232643e-004
9.851338e-004,2.081922e-004
1.207812e-003,1.908512e-004
1.411528e-003,1.701068e-004
1.565329e-003,1.483901e-004
1.646524e-003,1.227837e-004
1.648306e-003,9.588091e-005
1.562412e-003,6.897806e-005
1.390946e-003,4.223728e-005
1.169402e-003,1.549650e-005
9.846477e-004,-1.156841e-005
9.269523e-004,-3.279896e-005
1.030998e-003,-3.425755e-005
1.265021e-003,-1.010982e-005
1.567922e-003,3.121684e-005
1.880385e-003,7.546067e-005
2.155572e-003,1.086841e-004
2.366258e-003,1.242423e-004
2.501908e-003,1.193804e-004
2.568031e-003,9.280167e-005
2.580834e-003,4.839576e-005
2.563979e-003,-3.627206e-006
2.538859e-003,-4.884343e-005
2.518114e-003,-7.623246e-005
2.505473e-003,-8.757704e-005
2.504015e-003,-9.243900e-005
2.519573e-003,-9.924574e-005
2.546476e-003,-1.120489e-004
2.560413e-003,-1.305243e-004
2.525893e-003,-1.509446e-004
2.412933e-003,-1.690959e-004
2.209540e-003,-1.833576e-004
1.932246e-003,-1.955125e-004
1.629021e-003,-2.024813e-004
1.345406e-003,-2.015090e-004
1.101173e-003,-1.925954e-004
8.890290e-004,-1.801163e-004
6.893643e-004,-1.676373e-004
4.783552e-004,-1.569410e-004
2.276400e-004,-1.504584e-004
-8.109443e-005,-1.457585e-004
-4.413656e-004,-1.366828e-004
-8.124951e-004,-1.164247e-004
-1.129333e-003,-8.871149e-005
-1.341638e-003,-6.245691e-005
-1.451195e-003,-4.446767e-005
-1.508242e-003,-3.717473e-005
-1.578578e-003,-3.749886e-005
-1.699479e-003,-4.300908e-005
-1.862030e-003,-4.689865e-005
-2.027823e-003,-4.479180e-005
-2.133166e-003,-3.522994e-005
-2.118094e-003,-1.886135e-005
-1.973531e-003,1.396819e-006
-1.749719e-003,2.586868e-005
-1.533848e-003,5.439218e-005
-1.405978e-003,8.226741e-005
-1.388799e-003,1.070634e-004
-1.446657e-003,1.305629e-004
-1.520883e-003,1.551968e-004
-1.565126e-003,1.835583e-004
-1.559454e-003,2.127300e-004
-1.511807e-003,2.386605e-004
-1.443253e-003,2.566497e-004
-1.364814e-003,2.647530e-004
-1.269843e-003,2.624841e-004
-1.158342e-003,2.551911e-004
-1.047976e-003,2.485465e-004
-9.346923e-004,2.464396e-004
-7.945059e-004,2.475741e-004
-6.065101e-004,2.514636e-004
-3.613053e-004,2.605393e-004
-5.775702e-005,2.790148e-004
2.950592e-004,3.018659e-004
6.650545e-004,3.196932e-004
1.012199e-003,3.289309e-004
1.318665e-003,3.315239e-004
1.617514e-003,3.274723e-004
1.974707e-003,3.190449e-004
2.413257e-003,3.112658e-004
2.876605e-003,3.120761e-004
3.261351e-003,3.205035e-004
3.478034e-003,3.307136e-004
3.501534e-003,3.320101e-004
3.364263e-003,3.094830e-004
3.118246e-003,2.581083e-004
2.801730e-003,1.895547e-004
2.436757e-003,1.208390e-004
2.034023e-003,6.735741e-005
1.576187e-003,3.478228e-005
1.027109e-003,2.441009e-005
3.679886e-004,2.862379e-005
-3.783222e-004,3.867184e-005
-1.134681e-003,4.742337e-005
-1.791208e-003,5.212327e-005
-2.310627e-003,5.244739e-005
-2.808817e-003,4.726130e-005
-3.461456e-003,3.202716e-005
-4.336290e-003,2.693341e-006
-4.967702e-003,-4.689865e-005
-4.967378e-003,-1.220970e-004
-4.967540e-003,-2.180396e-004
-4.967702e-003,-3.209511e-004
-4.587817e-003,-4.168937e-004
-3.326293e-003,-4.964678e-004
-2.154883e-003,-5.546492e-004
-1.287508e-003,-5.925725e-004
-7.758683e-004,-6.091032e-004
-5.578905e-004,-5.980827e-004
-5.186707e-004,-5.504355e-004
-5.358497e-004,-4.619479e-004
-5.084606e-004,-3.387782e-004
-3.668155e-004,-1.977815e-004
-8.919769e-005,-5.565017e-005
3.117519e-004,7.643307e-005
8.063756e-004,1.903650e-004
1.343299e-003,2.845250e-004
1.852509e-003,3.629646e-004
2.261402e-003,4.308700e-004
2.520221e-003,4.914824e-004
2.616327e-003,5.370228e-004
2.581968e-003,5.498260e-004
2.475329e-003,5.076890e-004
2.336600e-003,3.995914e-004
2.180045e-003,2.334744e-004
2.005013e-003,3.543054e-005
1.780714e-003,-1.579134e-004
1.461769e-003,-3.117133e-004
1.031971e-003,-4.096008e-004
5.230852e-004,-4.493068e-004
-1.302700e-005,-4.457413e-004
-4.838267e-004,-4.141386e-004
-7.855922e-004,-3.627639e-004
-8.773212e-004,-2.977757e-004
-8.099020e-004,-2.280877e-004
-6.862463e-004,-1.608306e-004
-5.904656e-004,-1.015147e-004
-5.423322e-004,-5.127441e-005
-5.094330e-004,-8.165035e-006
-4.309934e-004,2.927205e-005
-2.465631e-004,5.941620e-005
7.076078e-005,8.275361e-005
4.961824e-004,1.012291e-004
9.814063e-004,1.200286e-004
1.469386e-003,1.420695e-004
1.894971e-003,1.726999e-004
2.169672e-003,2.068957e-004
2.181827e-003,2.438466e-004
1.871309e-003,2.786906e-004
1.309751e-003,3.077003e-004
6.695924e-004,3.273102e-004
1.342904e-004,3.355756e-004
-1.643960e-004,3.350894e-004
-1.635857e-004,3.282826e-004
1.232699e-004,3.200173e-004
5.874252e-004,3.117519e-004
1.038291e-003,3.028383e-004
1.249625e-003,2.958695e-004
1.055470e-003,2.945730e-004
4.524247e-004,3.055935e-004
-3.851289e-004,3.329825e-004
-1.131115e-003,3.692851e-004
-1.464646e-003,4.007258e-004
-1.247316e-003,4.140152e-004
-5.977586e-004,4.015361e-004
1.937684e-004,3.658818e-004
8.276062e-004,3.169380e-004
1.137313e-003,2.621599e-004
1.115759e-003,2.002510e-004
8.694191e-004,1.310491e-004
5.627912e-004,5.196120e-005
3.334687e-004,-3.798505e-005
2.240746e-004,-1.298761e-004
1.978200e-004,-2.102605e-004
1.940925e-004,-2.711970e-004
1.833962e-004,-3.164132e-004
1.680000e-004,-3.528779e-004
1.537382e-004,-3.846427e-004
1.240803e-004,-4.084663e-004
3.915804e-005,-4.190006e-004
-1.284175e-004,-4.139766e-004
-3.685983e-004,-3.903150e-004
-6.288751e-004,-3.491504e-004
-8.423151e-004,-2.935620e-004
-9.658089e-004,-2.306807e-004
-9.805568e-004,-1.639098e-004
-8.868831e-004,-9.519411e-005
-6.959701e-004,-2.210265e-005
-4.282383e-004,5.747142e-005
-1.094559e-004,1.438522e-004
2.362295e-004,2.354192e-004
5.817529e-004,3.269861e-004
8.929186e-004,4.075326e-004
1.125320e-003,4.532350e-004
1.257566e-003,4.449697e-004
1.306996e-003,3.790091e-004
1.298407e-003,2.652392e-004
1.237632e-003,1.211631e-004
1.118028e-003,-2.874733e-005
9.498035e-004,-1.598582e-004
7.517595e-004,-2.525595e-004
5.397780e-004,-3.047445e-004
3.248792e-004,-3.217614e-004
1.104668e-004,-3.128478e-004
-1.110765e-004,-2.859450e-004
-3.509331e-004,-2.502906e-004
-6.251476e-004,-2.104225e-004
-9.596504e-004,-1.682856e-004
-1.369351e-003,-1.290658e-004
-1.812600e-003,-9.162867e-005
-2.187296e-003,-5.727083e-005
-2.351630e-003,-3.312309e-005
-2.194426e-003,-2.583016e-005
-1.717954e-003,-3.766092e-005
-1.060455e-003,-6.553616e-005
-4.177041e-004,-9.940781e-005
5.471631e-005,-1.285796e-004
2.958695e-004,-1.412206e-004
3.368721e-004,-1.323071e-004
2.401191e-004,-1.034594e-004
3.932010e-005,-6.002594e-005
-2.664971e-004,-7.678839e-006
-6.821946e-004,4.855783e-005
-1.183787e-003,1.000946e-004
-1.692186e-003,1.370455e-004
-2.095080e-003,1.560072e-004
-2.285993e-003,1.623277e-004
-2.211443e-003,1.623277e-004
-1.879209e-003,1.644345e-004
-1.358331e-003,1.733481e-004
-7.598239e-004,1.877720e-004
-2.037779e-004,2.043026e-004
2.067336e-004,2.219677e-004
4.026706e-004,2.412535e-004
3.816021e-004,2.632944e-004
2.012234e-004,2.880904e-004
-4.803310e-005,3.111037e-004
-2.880518e-004,3.300653e-004
-4.822060e-004,3.448133e-004
-6.206098e-004,3.555096e-004
-7.476690e-004,3.576164e-004
-9.508989e-004,3.457857e-004
-1.259309e-003,3.229345e-004
-1.595108e-003,2.987867e-004
-1.824107e-003,2.790148e-004
-1.814869e-003,2.626462e-004
-1.492845e-003,2.464396e-004
-8.957966e-004,2.287745e-004
-1.645581e-004,2.111094e-004
5.216266e-004,1.929580e-004
1.030674e-003,1.712413e-004
1.334709e-003,1.375317e-004
1.495640e-003,9.101894e-005
1.606980e-003,3.915804e-005
1.726746e-003,-7.354709e-006
1.863206e-003,-4.187462e-005
1.989293e-003,-6.310517e-005
2.064653e-003,-6.683268e-005
2.071460e-003,-5.078821e-005
2.028513e-003,-1.205460e-005
1.980703e-003,4.936815e-005
1.950721e-003,1.203528e-004
1.916687e-003,1.751309e-004
1.846027e-003,1.926339e-004
1.736308e-003,1.652449e-004
1.633234e-003,1.017153e-004
1.602442e-003,2.311357e-005
1.679099e-003,-4.787104e-005
1.838085e-003,-9.811128e-005
2.010199e-003,-1.246900e-004
2.111329e-003,-1.316588e-004
2.084912e-003,-1.263107e-004
1.913446e-003,-1.240417e-004
1.618973e-003,-1.368449e-004
1.265021e-003,-1.707166e-004
9.546655e-004,-2.175534e-004
7.810934e-004,-2.590421e-004
7.446287e-004,-2.814071e-004
7.459252e-004,-2.801106e-004
6.781818e-004,-2.632558e-004
5.033132e-004,-2.412149e-004
2.302331e-004,-2.170672e-004
-8.012204e-005,-1.922712e-004
-3.368335e-004,-1.689338e-004
-4.943609e-004,-1.483515e-004
-5.864140e-004,-1.324691e-004
-7.079630e-004,-1.253383e-004
-9.564091e-004,-1.274451e-004
-1.319111e-003,-1.342519e-004
-1.663338e-003,-1.361966e-004
-1.831076e-003,-1.300382e-004
-1.766898e-003,-1.123730e-004
-1.620229e-003,-8.854943e-005
-1.655721e-003,-6.326724e-005
-2.054240e-003,-3.960571e-005
-2.722112e-003,-1.659243e-005
-3.343148e-003,3.341602e-006
-3.570365e-003,1.403791e-005
-3.220140e-003,1.630683e-005
-2.369944e-003,1.630683e-005
-1.295936e-003,1.825161e-005
-3.243544e-004,2.230325e-005
3.017039e-004,2.716521e-005
4.979651e-004,3.364782e-005
3.571303e-004,5.050261e-005
9.588091e-005,8.372601e-005
-6.974985e-005,1.333180e-004
-3.685060e-005,1.968476e-004
1.592484e-004,2.668598e-004
4.054258e-004,3.315239e-004
5.883976e-004,3.841952e-004
6.567892e-004,4.263322e-004
6.358828e-004,4.600418e-004
5.973112e-004,4.848378e-004
6.110868e-004,5.026649e-004
6.953608e-004,5.141716e-004
8.207994e-004,5.167646e-004
9.496415e-004,5.073649e-004
1.060170e-003,4.853240e-004
1.153034e-003,4.517764e-004
1.242656e-003,4.044533e-004
1.347350e-003,3.431926e-004
1.483324e-003,2.652392e-004
1.651224e-003,1.749688e-004
1.839544e-003,8.259155e-005
2.038075e-003,2.045080e-006
2.230285e-003,-5.840528e-005
2.371606e-003,-1.007043e-004
2.381330e-003,-1.264727e-004
2.176641e-003,-1.371690e-004
1.729663e-003,-1.366828e-004
1.114462e-003,-1.233935e-004
5.067165e-004,-9.130454e-005
8.534666e-005,-3.198864e-005
-9.454585e-005,4.790957e-005
-1.191798e-004,1.268354e-004
-1.389517e-004,1.829100e-004
-2.617972e-004,2.094887e-004
-4.763717e-004,2.111094e-004
-6.679329e-004,1.996027e-004
-7.266005e-004,1.897167e-004
-6.441093e-004,1.853410e-004
-5.018159e-004,1.835583e-004
-3.799429e-004,1.777239e-004
-3.078238e-004,1.534141e-004
-2.966413e-004,1.018773e-004
-3.810773e-004,2.894792e-005
-6.381128e-004,-5.338126e-005
-1.130305e-003,-1.300382e-004
-1.841934e-003,-1.891920e-004
-2.649993e-003,-2.222533e-004
-3.349144e-003,-2.196603e-004
-3.743775e-003,-1.818991e-004
-3.743613e-003,-1.199901e-004
-3.393226e-003,-5.419158e-005
-2.827130e-003,-3.951337e-006
-2.188754e-003,1.987227e-005
-1.569826e-003,1.517237e-005
-1.022208e-003,-1.092015e-005
-5.830107e-004,-5.046408e-005
-2.742763e-004,-9.892161e-005
-9.762509e-005,-1.569410e-004
-2.226472e-005,-2.199844e-004
8.041497e-006,-2.805968e-004
4.094075e-005,-3.298647e-004
1.114392e-004,-3.603330e-004
2.548670e-004,-3.689224e-004
5.072028e-004,-3.525538e-004
8.880566e-004,-3.113892e-004
1.370040e-003,-2.545043e-004
1.882005e-003,-1.985918e-004
2.346162e-003,-1.567789e-004
2.707246e-003,-1.350622e-004
2.936569e-003,-1.316588e-004
3.011930e-003,-1.339277e-004
2.909504e-003,-1.293899e-004
2.585372e-003,-1.088076e-004
1.999503e-003,-7.137051e-005
1.196143e-003,-2.275091e-005
3.136967e-004,2.667901e-005
-4.687546e-004,6.930219e-005
-9.886600e-004,9.928428e-005
-1.128522e-003,1.143563e-004
-8.269189e-004,1.206769e-004
-1.880575e-004,1.268354e-004
4.472386e-004,1.393144e-004
6.776956e-004,1.594105e-004
2.927903e-004,1.777239e-004
-6.651777e-004,1.902029e-004
-1.872402e-003,1.965235e-004
-2.880936e-003,1.965235e-004
-3.356113e-003,1.867996e-004
-3.201826e-003,1.697827e-004
-2.502513e-003,1.519555e-004
-1.398685e-003,1.336421e-004
-1.005423e-004,1.111150e-004
1.023543e-003,9.020862e-005
1.565491e-003,7.643307e-005
1.266318e-003,7.319176e-005
1.595726e-004,7.821578e-005
-1.354117e-003,9.377406e-005
-2.688402e-003,1.190562e-004
-3.395333e-003,1.508211e-004
-3.300849e-003,1.858272e-004
-2.520502e-003,2.250470e-004
-1.381668e-003,2.715597e-004
-2.682799e-004,3.219621e-004
5.281092e-004,3.666921e-004
9.233868e-004,3.921364e-004
1.006040e-003,3.880847e-004
9.258178e-004,3.631267e-004
8.206373e-004,3.271482e-004
7.729901e-004,2.846870e-004
7.911414e-004,2.370398e-004
8.266338e-004,1.833962e-004
8.295510e-004,1.261871e-004
7.856312e-004,7.076078e-005
7.039502e-004,2.262738e-005
6.086557e-004,-1.772689e-005
5.345919e-004,-5.095028e-005
5.157923e-004,-7.655660e-005
5.683015e-004,-1.015147e-004
6.823955e-004,-1.271210e-004
8.340888e-004,-1.498101e-004
1.008795e-003,-1.647201e-004
1.220777e-003,-1.689338e-004
1.498882e-003,-1.637477e-004
1.836951e-003,-1.538618e-004
2.161245e-003,-1.447861e-004
2.351672e-003,-1.392759e-004
2.336762e-003,-1.370070e-004
2.147631e-003,-1.350622e-004
1.901291e-003,-1.314967e-004
1.730474e-003,-1.238797e-004
1.705029e-003,-1.114006e-004
1.808914e-003,-9.908367e-005
1.954287e-003,-9.357346e-005
2.047474e-003,-9.746302e-005
2.039047e-003,-1.063766e-004
1.905505e-003,-1.120489e-004
1.637286e-003,-1.118868e-004
1.236984e-003,-1.047560e-004
7.042743e-004,-9.033215e-005
4.969229e-005,-7.282909e-005
-6.632329e-004,-6.002594e-005
-1.305822e-003,-5.759496e-005
-1.733188e-003,-6.683268e-005
-1.862354e-003,-9.130454e-005
-1.707096e-003,-1.290658e-004
-1.415378e-003,-1.710407e-004
-1.251692e-003,-2.053985e-004
-1.438067e-003,-2.186879e-004
-1.982121e-003,-2.075054e-004
-2.616283e-003,-1.739578e-004
-2.934094e-003,-1.253383e-004
-2.619687e-003,-7.153257e-005
-1.629628e-003,-2.226472e-005
-2.243602e-004,1.792748e-005
1.133262e-003,4.920609e-005
2.019113e-003,7.578480e-005
2.250705e-003,9.847395e-005
1.900643e-003,1.135460e-004
1.252866e-003,1.130598e-004
6.261588e-004,9.863601e-005
2.235884e-004,8.729144e-005
1.005808e-004,1.039842e-004
2.067336e-004,1.615174e-004
4.350837e-004,2.587566e-004
6.480376e-004,3.811159e-004
7.308531e-004,5.072028e-004
6.564650e-004,6.203245e-004
4.775448e-004,7.067053e-004
2.397949e-004,7.624559e-004
-5.435365e-005,7.866036e-004
-3.854531e-004,7.812555e-004
-7.022907e-004,7.493285e-004
-9.549505e-004,6.929298e-004
-1.090599e-003,6.162729e-004
-1.067910e-003,5.209784e-004
-9.009827e-004,4.052637e-004
-6.773326e-004,2.683184e-004
-5.154294e-004,1.226217e-004
-4.890127e-004,-1.837515e-005
-6.209339e-004,-1.442999e-004
-9.155686e-004,-2.472114e-004
-1.372593e-003,-3.168994e-004
-1.979690e-003,-3.421817e-004
-2.669441e-003,-3.199787e-004
-3.288694e-003,-2.556388e-004
-3.638270e-003,-1.574272e-004
-3.569392e-003,-3.539201e-005
-3.040247e-003,9.507057e-005
-2.125387e-003,2.208333e-004
-9.919014e-004,3.365480e-004
1.524417e-004,4.417284e-004
1.121107e-003,5.404262e-004
1.816206e-003,6.341000e-004
2.226719e-003,7.206430e-004
2.400778e-003,7.841726e-004
2.424116e-003,7.984344e-004
2.384734e-003,7.410632e-004
2.327038e-003,6.096281e-004
2.243088e-003,4.169324e-004
2.105980e-003,1.898788e-004
1.910043e-003,-4.122636e-005
1.675857e-003,-2.439701e-004
1.438593e-003,-3.971218e-004
1.233094e-003,-4.933886e-004
1.076377e-003,-5.397392e-004
9.596896e-004,-5.518941e-004
8.561297e-004,-5.460597e-004
7.394425e-004,-5.337428e-004
6.023352e-004,-5.199672e-004
4.375147e-004,-5.094330e-004
2.321778e-004,-5.023021e-004
-8.327101e-006,-4.959816e-004
-2.548284e-004,-4.833405e-004
-4.771820e-004,-4.645409e-004
-6.441093e-004,-4.420138e-004
-7.257902e-004,-4.193247e-004
-7.215765e-004,-3.992286e-004
-7.024527e-004,-3.831841e-004
-7.645238e-004,-3.752429e-004
-9.897945e-004,-3.773498e-004
-1.422185e-003,-3.878840e-004
-1.975476e-003,-3.972838e-004
-2.439145e-003,-3.972838e-004
-2.627790e-003,-3.857772e-004
-2.502027e-003,-3.650328e-004
-2.150021e-003,-3.392644e-004
-1.691213e-003,-3.076617e-004
-1.214093e-003,-2.671454e-004
-7.617687e-004,-2.180396e-004
-3.540124e-004,-1.673132e-004
-1.383732e-005,-1.235555e-004
2.412535e-004,-9.470791e-005
4.217943e-004,-8.174268e-005
5.543638e-004,-7.736692e-005
6.575995e-004,-6.569822e-005
7.439804e-004,-3.150244e-005
8.212856e-004,2.424803e-005
9.042631e-004,9.037068e-005
9.976128e-004,1.513072e-004
1.087235e-003,1.999268e-004
1.146551e-003,2.402811e-004
1.155789e-003,2.730183e-004
1.113328e-003,2.966799e-004
1.043639e-003,3.138588e-004
9.815684e-004,3.305515e-004
9.562862e-004,3.490270e-004
9.895095e-004,3.645853e-004
1.087721e-003,3.710679e-004
1.230015e-003,3.722023e-004
1.383167e-003,3.777126e-004
1.517681e-003,3.918123e-004
1.607304e-003,4.106118e-004
1.638744e-003,4.321665e-004
1.608114e-003,4.511282e-004
1.515899e-003,4.602039e-004
1.365340e-003,4.532350e-004
1.169402e-003,4.355699e-004
9.444554e-004,4.076947e-004
6.934160e-004,3.658818e-004
3.840331e-004,3.088348e-004
-4.997789e-005,2.438466e-004
-6.277406e-004,1.819376e-004
-1.256554e-003,1.307250e-004
-1.783915e-003,9.604298e-005
-2.069636e-003,8.550872e-005
-2.012751e-003,1.047945e-004
-1.571933e-003,1.529279e-004
-8.022850e-004,2.231022e-004
1.140322e-004,3.002453e-004
8.896773e-004,3.663680e-004
1.249625e-003,4.089912e-004
1.042829e-003,4.169324e-004
3.307136e-004,3.898674e-004
-6.232028e-004,3.422202e-004
-1.494466e-003,2.895490e-004
-1.996220e-003,2.396328e-004
-1.961700e-003,1.914995e-004
-1.419754e-003,1.436902e-004
-5.512458e-004,9.150514e-005
4.070464e-004,3.672706e-005
1.228394e-003,-1.464765e-005
1.763697e-003,-5.678463e-005
1.930949e-003,-9.179074e-005
1.722857e-003,-1.298761e-004
1.207002e-003,-1.754164e-004
5.028270e-004,-2.258187e-004
-2.357047e-004,-2.699005e-004
-8.342119e-004,-2.971275e-004
-1.150239e-003,-3.063652e-004
-1.118961e-003,-3.026377e-004
-7.878611e-004,-2.966413e-004
-2.993964e-004,-2.956689e-004
1.495245e-004,-3.039342e-004
3.527545e-004,-3.168994e-004
1.655690e-004,-3.287302e-004
-4.168937e-004,-3.394265e-004
-1.247478e-003,-3.434782e-004
-2.044192e-003,-3.365093e-004
-2.471072e-003,-3.139823e-004
-2.311438e-003,-2.791382e-004
-1.660421e-003,-2.399184e-004
-9.149204e-004,-2.063709e-004
-5.172121e-004,-1.812508e-004
-6.562641e-004,-1.626133e-004
-1.136788e-003,-1.460826e-004
-1.544220e-003,-1.255003e-004
-1.541141e-003,-9.940781e-005
-1.052190e-003,-6.586029e-005
-2.546664e-004,-2.923353e-005
5.610085e-004,4.313994e-006
1.161461e-003,3.462021e-005
1.470358e-003,6.233338e-005
1.535833e-003,8.761557e-005
1.475382e-003,1.088461e-004
1.409097e-003,1.263492e-004
1.377981e-003,1.430419e-004
1.317855e-003,1.621656e-004
1.141041e-003,1.850168e-004
8.128582e-004,2.122438e-004
3.326584e-004,2.420638e-004
-2.567732e-004,2.744769e-004
-8.710006e-004,3.067279e-004
-1.443415e-003,3.311998e-004
-1.928801e-003,3.410858e-004
-2.267680e-003,3.344411e-004
-2.381936e-003,3.143450e-004
-2.221329e-003,2.785285e-004
-1.791856e-003,2.213195e-004
-1.149753e-003,1.419075e-004
-3.867496e-004,4.434413e-005
3.814401e-004,-6.342931e-005
1.054822e-003,-1.697442e-004
1.586883e-003,-2.647144e-004
1.966928e-003,-3.408851e-004
2.204516e-003,-3.906392e-004
2.325904e-003,-4.131662e-004
2.361396e-003,-4.003631e-004
2.357183e-003,-3.394265e-004
2.338383e-003,-2.288980e-004
2.257836e-003,-7.898758e-005
2.032727e-003,9.166720e-005
1.622862e-003,2.668598e-004
1.062601e-003,4.295735e-004
4.530729e-004,5.676532e-004
-7.169464e-005,6.762370e-004
-3.950149e-004,7.588904e-004
-4.645409e-004,8.248511e-004
-3.131719e-004,8.783326e-004
-4.608832e-005,9.178767e-004
2.124059e-004,9.306798e-004
3.644232e-004,9.029666e-004
3.681507e-004,8.253373e-004
2.412535e-004,7.003848e-004
3.591673e-005,5.428572e-004
-1.809267e-004,3.744712e-004
-3.485022e-004,2.130541e-004
-4.439586e-004,6.703327e-005
-4.656754e-004,-6.261898e-005
-4.141386e-004,-1.707166e-004
-2.956689e-004,-2.543422e-004
-1.311726e-004,-3.100927e-004
4.839576e-005,-3.340784e-004
2.064095e-004,-3.292164e-004
3.132105e-004,-3.039342e-004
3.452995e-004,-2.720074e-004
2.846870e-004,-2.485079e-004
1.325077e-004,-2.423494e-004
-8.660465e-005,-2.527216e-004
-3.297026e-004,-2.721694e-004
-5.366600e-004,-2.878898e-004
-6.582089e-004,-2.899966e-004
-6.812222e-004,-2.794623e-004
-6.186650e-004,-2.616352e-004
-4.625961e-004,-2.421874e-004
-2.039399e-004,-2.269532e-004
1.310491e-004,-2.233878e-004
4.801379e-004,-2.324634e-004
7.658592e-004,-2.473734e-004
9.177146e-004,-2.605007e-004
8.976185e-004,-2.648765e-004
7.248566e-004,-2.585559e-004
4.692795e-004,-2.399184e-004
2.240746e-004,-2.086398e-004
7.481241e-005,-1.682856e-004
8.437427e-005,-1.263107e-004
2.913317e-004,-9.308726e-005
6.718613e-004,-7.850138e-005
1.101983e-003,-8.417367e-005
1.412339e-003,-1.031353e-004
1.497747e-003,-1.224211e-004
1.325310e-003,-1.263107e-004
8.948633e-004,-1.054042e-004
2.608634e-004,-6.375344e-005
-4.489826e-004,-1.383732e-005
-1.085899e-003,3.024445e-005
-1.574526e-003,6.087479e-005
-1.903519e-003,7.643307e-005
-2.081791e-003,8.356394e-005
-2.110801e-003,9.458438e-005
-1.962835e-003,1.180839e-004
-1.611801e-003,1.535762e-004
-1.103402e-003,1.958752e-004
-6.018102e-004,2.352571e-004
-3.172236e-004,2.641047e-004
-3.869116e-004,2.769079e-004
-7.977472e-004,2.728562e-004
-1.334994e-003,2.579462e-004
-1.675169e-003,2.389846e-004
-1.590571e-003,2.214815e-004
-1.075203e-003,2.033302e-004
-3.232200e-004,1.803169e-004
4.016982e-004,1.519555e-004
9.013460e-004,1.260251e-004
1.097445e-003,1.062531e-004
1.028243e-003,9.685330e-005
8.135065e-004,1.025256e-004
6.070351e-004,1.300767e-004
5.412365e-004,1.851789e-004
6.762370e-004,2.631324e-004
9.784892e-004,3.478926e-004
1.318179e-003,4.161220e-004
1.547339e-003,4.461041e-004
1.591097e-003,4.297355e-004
1.476679e-003,3.752816e-004
1.296300e-003,3.064038e-004
1.133910e-003,2.454672e-004
1.015116e-003,2.020337e-004
9.256558e-004,1.712413e-004
8.464058e-004,1.420695e-004
7.528940e-004,1.103047e-004
5.683015e-004,7.189524e-005
1.790204e-004,2.603075e-005
-4.462276e-004,-2.226472e-005
-1.189621e-003,-6.553616e-005
-1.851496e-003,-1.015147e-004
-2.238832e-003,-1.337657e-004
-2.211605e-003,-1.679614e-004
-1.753122e-003,-2.066950e-004
-1.005677e-003,-2.472114e-004
-2.084778e-004,-2.786520e-004
4.115842e-004,-2.888622e-004
7.298806e-004,-2.746004e-004
7.624559e-004,-2.446183e-004
6.365310e-004,-2.126914e-004
4.999099e-004,-1.849783e-004
4.345975e-004,-1.569410e-004
4.577728e-004,-1.263107e-004
5.365367e-004,-9.422172e-005
6.094660e-004,-6.521203e-005
5.971491e-004,-4.576419e-005
4.464283e-004,-3.522994e-005
1.603829e-004,-3.053005e-005
-1.976194e-004,-3.279896e-005
-5.334187e-004,-4.317115e-005
-7.556102e-004,-6.229485e-005
-8.087676e-004,-8.692878e-005
-6.937013e-004,-1.112386e-004
-4.530343e-004,-1.300382e-004
-1.493239e-004,-1.431655e-004
1.662173e-004,-1.499722e-004
4.788414e-004,-1.483515e-004
7.755831e-004,-1.353863e-004
1.015278e-003,-1.102662e-004
1.152223e-003,-7.412562e-005
1.176371e-003,-3.555408e-005
1.112517e-003,-2.330684e-006
9.937233e-004,2.230325e-005
8.235546e-004,3.769945e-005
5.880735e-004,4.612685e-005
2.709115e-004,4.871989e-005
-1.277692e-004,4.758544e-005
-5.753936e-004,4.709924e-005
-9.902808e-004,4.985435e-005
-1.252988e-003,5.990240e-005
-1.243751e-003,7.708133e-005
-8.990379e-004,9.977047e-005
-2.830278e-004,1.250527e-004
3.623164e-004,1.504969e-004
6.909850e-004,1.756171e-004
4.292493e-004,2.007372e-004
-3.961493e-004,2.224539e-004
-1.381020e-003,2.412535e-004
-1.983579e-003,2.542187e-004
-1.851982e-003,2.619979e-004
-9.998425e-004,2.678322e-004
2.055991e-004,2.735045e-004
1.261942e-003,2.799871e-004
1.841975e-003,2.850112e-004
1.910529e-003,2.845250e-004
1.637772e-003,2.773941e-004
1.261942e-003,2.705873e-004
9.797857e-004,2.681563e-004
8.935668e-004,2.710735e-004
9.454277e-004,2.754493e-004
9.520725e-004,2.751252e-004
7.374978e-004,2.688046e-004
2.538946e-004,2.587566e-004
-3.925839e-004,2.464396e-004
-9.909290e-004,2.334744e-004
-1.347635e-003,2.245608e-004
-1.379399e-003,2.182402e-004
-1.137112e-003,2.135403e-004
-7.483172e-004,2.091646e-004
-3.598467e-004,2.043026e-004
-1.457585e-004,1.992786e-004
-2.464010e-004,1.957132e-004
-6.873807e-004,1.940925e-004
-1.339045e-003,1.871237e-004
-1.936580e-003,1.670276e-004
-2.222626e-003,1.328318e-004
-2.083574e-003,8.972242e-005
-1.597215e-003,4.142696e-005
-9.474955e-004,-9.785688e-006
-3.128478e-004,-6.261898e-005
2.005751e-004,-1.139937e-004
5.755944e-004,-1.629374e-004
8.499712e-004,-2.091260e-004
1.067139e-003,-2.536940e-004
1.256594e-003,-2.924276e-004
1.437459e-003,-3.206269e-004
1.608600e-003,-3.386162e-004
1.754622e-003,-3.468815e-004
1.843758e-003,-3.449367e-004
1.821717e-003,-3.358611e-004
1.604386e-003,-3.219235e-004
1.106197e-003,-3.018274e-004
3.346032e-004,-2.746004e-004
-5.732867e-004,-2.412149e-004
-1.426885e-003,-2.036158e-004
-2.041436e-003,-1.639098e-004
-2.267518e-003,-1.253383e-004
-2.060074e-003,-9.535618e-005
-1.494304e-003,-8.190475e-005
-7.416725e-004,-8.547019e-005
-1.399939e-005,-9.859748e-005
5.282713e-004,-1.167488e-004
8.292268e-004,-1.306864e-004
9.157698e-004,-1.357104e-004
8.543470e-004,-1.329553e-004
7.003848e-004,-1.287416e-004
4.478869e-004,-1.233935e-004
3.154097e-005,-1.094559e-004
-5.922483e-004,-7.493595e-005
-1.367245e-003,-1.707863e-005
-2.103021e-003,5.406805e-005
-2.550808e-003,1.211631e-004
-2.549674e-003,1.686482e-004
-2.111287e-003,1.914995e-004
-1.413433e-003,1.931201e-004
-7.050458e-004,1.856651e-004
-1.908126e-004,1.782101e-004
5.406805e-005,1.726999e-004
6.589881e-005,1.733481e-004
-7.639453e-005,1.798307e-004
-2.865932e-004,1.897167e-004
-4.596790e-004,2.004130e-004
-4.922541e-004,2.146748e-004
-3.308371e-004,2.342847e-004
1.889987e-005,2.564877e-004
4.932652e-004,2.764217e-004
9.844856e-004,2.932765e-004
1.382519e-003,3.049452e-004
1.623186e-003,3.083486e-004
1.720101e-003,3.018659e-004
1.734850e-003,2.919800e-004
1.703085e-003,2.830664e-004
1.627724e-003,2.756114e-004
1.503744e-003,2.626462e-004
1.329037e-003,2.420638e-004
1.115434e-003,2.154851e-004
9.279247e-004,1.889064e-004
8.410576e-004,1.688103e-004
8.726604e-004,1.598967e-004
9.838373e-004,1.615174e-004
1.117379e-003,1.710792e-004
1.238280e-003,1.814514e-004
1.314937e-003,1.861513e-004
1.293545e-003,1.838824e-004
1.137475e-003,1.739964e-004
8.447851e-004,1.586002e-004
4.355699e-004,1.404489e-004
-4.365734e-005,1.210010e-004
-5.168880e-004,9.928428e-005
-8.849383e-004,7.789165e-005
-1.041817e-003,5.811968e-005
-8.849383e-004,4.353380e-005
-3.734602e-004,3.640293e-005
3.396272e-004,3.964424e-005
9.097734e-004,5.034055e-005
9.899958e-004,6.573675e-005
4.537212e-004,7.853991e-005
-4.870680e-004,8.388807e-005
-1.391717e-003,7.805372e-005
-1.868837e-003,5.876794e-005
-1.750205e-003,3.040651e-005
-1.122688e-003,3.179537e-006
-2.645523e-004,-1.059602e-005
5.023408e-004,-2.168618e-006
9.942095e-004,2.700314e-005
1.227422e-003,6.362991e-005
1.328875e-003,9.442231e-005
1.423035e-003,1.075496e-004
1.573594e-003,9.831188e-005
1.767749e-003,6.849186e-005
1.958176e-003,2.003433e-005
2.110842e-003,-4.851930e-005
2.196089e-003,-1.311726e-004
2.185069e-003,-2.154466e-004
2.042937e-003,-2.909690e-004
1.757377e-003,-3.481781e-004
1.342651e-003,-3.820497e-004
8.451093e-004,-3.948528e-004
3.581026e-004,-3.899909e-004
-2.015787e-005,-3.723258e-004
-2.736280e-004,-3.463953e-004
-4.736166e-004,-3.165753e-004
-7.300039e-004,-2.906449e-004
-1.128360e-003,-2.775176e-004
-1.640001e-003,-2.809209e-004
-2.125387e-003,-2.942103e-004
-2.446763e-003,-3.105789e-004
-2.521313e-003,-3.251648e-004
-2.355681e-003,-3.309991e-004
-2.042409e-003,-3.243544e-004
-1.701748e-003,-3.034480e-004
-1.399820e-003,-2.705488e-004
-1.130305e-003,-2.258187e-004
-8.581975e-004,-1.755785e-004
-5.645352e-004,-1.284175e-004
-2.530457e-004,-9.243900e-005
5.244739e-005,-6.586029e-005
3.201794e-004,-4.365734e-005
5.219508e-004,-1.772689e-005
6.394482e-004,1.452411e-005
6.673234e-004,5.536457e-005
6.128695e-004,1.036600e-004
4.929411e-004,1.534141e-004
3.286068e-004,2.018716e-004
1.530900e-004,2.425500e-004
3.179537e-006,2.679943e-004
-1.007043e-004,2.741528e-004
-1.551583e-004,2.649151e-004
-1.715269e-004,2.496809e-004
-1.656925e-004,2.380122e-004
-1.507825e-004,2.401191e-004
-1.282554e-004,2.566497e-004
-1.084835e-004,2.833905e-004
-1.212866e-004,3.149933e-004
-1.934057e-004,3.465960e-004
-3.198166e-004,3.757678e-004
-4.690787e-004,3.984569e-004
-5.954896e-004,4.106118e-004
-6.680949e-004,4.175806e-004
-6.797637e-004,4.247115e-004
-6.437852e-004,4.352458e-004
-5.820383e-004,4.461041e-004
-5.189948e-004,4.477248e-004
-4.694029e-004,4.350837e-004
-4.356933e-004,4.076947e-004
-4.074939e-004,3.700955e-004
-3.781601e-004,3.308757e-004
-3.361852e-004,2.919800e-004
-2.650386e-004,2.553532e-004
-1.498101e-004,2.227781e-004
3.017472e-006,1.934442e-004
1.654069e-004,1.620036e-004
3.018659e-004,1.282940e-004
3.995914e-004,9.474644e-005
4.738173e-004,6.427817e-005
5.493398e-004,3.818565e-005
6.397723e-004,1.663096e-005
7.353909e-004,-3.303076e-006
8.227442e-004,-2.356124e-005
9.018321e-004,-4.770897e-005
9.872407e-004,-7.655660e-005
1.080266e-003,-1.076731e-004
1.148496e-003,-1.378173e-004
1.158220e-003,-1.658546e-004
1.114138e-003,-1.924333e-004
1.032295e-003,-2.196603e-004
9.109079e-004,-2.483458e-004
7.400909e-004,-2.710350e-004
5.023408e-004,-2.822175e-004
1.949028e-004,-2.815692e-004
-1.566169e-004,-2.754107e-004
-4.912817e-004,-2.703867e-004
-7.351899e-004,-2.666592e-004
-8.168708e-004,-2.595283e-004
-6.823567e-004,-2.402425e-004
-3.167374e-004,-2.029675e-004
2.226160e-004,-1.520790e-004
8.113996e-004,-9.989401e-005
1.312506e-003,-6.213279e-005
1.609735e-003,-4.446767e-005
1.630641e-003,-4.787104e-005
1.362260e-003,-6.845333e-005
8.580745e-004,-9.730096e-005
2.328261e-004,-1.248521e-004
-3.776739e-004,-1.442999e-004
-8.523631e-004,-1.530514e-004
-1.097244e-003,-1.525652e-004
-1.048948e-003,-1.467309e-004
-7.395657e-004,-1.358725e-004
-3.019894e-004,-1.222590e-004
6.784360e-005,-1.063766e-004
1.227837e-004,-8.838737e-005
-3.211132e-004,-6.472583e-005
-1.223007e-003,-3.539201e-005
-2.351630e-003,-3.858999e-007
-3.423047e-003,3.883391e-005
-4.172440e-003,8.032264e-005
-4.446495e-003,1.203528e-004
-4.244236e-003,1.511452e-004
-3.664201e-003,1.738343e-004
-2.840582e-003,1.936063e-004
-1.927342e-003,2.154851e-004
-1.089627e-003,2.381743e-004
-4.630823e-004,2.576221e-004
-1.175591e-004,2.692908e-004
-2.761287e-005,2.718839e-004
-1.071869e-004,2.658874e-004
-3.152788e-004,2.598910e-004
-6.719845e-004,2.607014e-004
-1.159963e-003,2.710735e-004
-1.678734e-003,2.919800e-004
-2.041599e-003,3.239069e-004
-2.037871e-003,3.610198e-004
-1.572905e-003,3.940812e-004
-7.596618e-004,4.161220e-004
1.274836e-004,4.243874e-004
8.054032e-004,4.222805e-004
1.166647e-003,4.146635e-004
1.289493e-003,4.062361e-004
1.331792e-003,3.952156e-004
1.421576e-003,3.801436e-004
1.623186e-003,3.619922e-004
1.925601e-003,3.440029e-004
2.267722e-003,3.302274e-004
2.572731e-003,3.198552e-004
2.763321e-003,3.081865e-004
2.783417e-003,2.919800e-004
2.633019e-003,2.702632e-004
2.366906e-003,2.430362e-004
2.065140e-003,2.093267e-004
1.804700e-003,1.754550e-004
1.647172e-003,1.422316e-004
1.628048e-003,1.083599e-004
1.740360e-003,6.816773e-005
1.929328e-003,1.857574e-005
2.124780e-003,-3.328516e-005
2.279877e-003,-7.444975e-005
2.373065e-003,-9.859748e-005
2.398834e-003,-1.094559e-004
2.356210e-003,-1.182074e-004
2.241306e-003,-1.342519e-004
2.044719e-003,-1.611547e-004
1.759646e-003,-1.935677e-004
1.391756e-003,-2.254946e-004
9.802718e-004,-2.549905e-004
5.908285e-004,-2.797865e-004
2.796630e-004,-3.060411e-004
6.119892e-005,-3.386162e-004
-9.600444e-005,-3.804291e-004
-2.695764e-004,-4.274280e-004
-5.353634e-004,-4.679443e-004
-8.912588e-004,-4.953333e-004
-1.271302e-003,-5.076503e-004
-1.585223e-003,-5.060296e-004
-1.739995e-003,-4.875542e-004
-1.682462e-003,-4.457413e-004
-1.432395e-003,-3.718396e-004
-1.073258e-003,-2.705488e-004
-7.042355e-004,-1.588858e-004
-3.956632e-004,-6.748094e-005
-1.687718e-004,-1.740276e-005
5.772582e-006,-8.651231e-006
1.799928e-004,-2.469570e-005
3.858158e-004,-4.041603e-005
6.282657e-004,-3.668853e-005
8.814119e-004,-8.813297e-006
1.110897e-003,3.462021e-005
1.291276e-003,7.643307e-005
1.415256e-003,1.047945e-004
1.471169e-003,1.116012e-004
1.418497e-003,1.038221e-004
1.208460e-003,9.296373e-005
8.284165e-004,9.118101e-005
3.320101e-004,9.879808e-005
-1.694200e-004,1.130598e-004
-5.496252e-004,1.269974e-004
-7.137973e-004,1.334801e-004
-6.340612e-004,1.282940e-004
-3.726499e-004,1.182459e-004
-5.013995e-005,1.128978e-004
1.521176e-004,1.174356e-004
6.508849e-005,1.291043e-004
-3.366714e-004,1.441764e-004
-8.635456e-004,1.586002e-004
-1.196590e-003,1.714034e-004
-1.082982e-003,1.827479e-004
-5.138087e-004,1.934442e-004
2.697770e-004,2.052750e-004
9.360280e-004,2.206712e-004
1.235525e-003,2.383363e-004
1.051257e-003,2.572980e-004
4.162841e-004,2.736666e-004
-4.922541e-004,2.867939e-004
-1.439526e-003,2.958695e-004
-2.212902e-003,3.028383e-004
-2.605749e-003,3.091589e-004
-2.512075e-003,3.154794e-004
-2.027337e-003,3.203414e-004
-1.372107e-003,3.214759e-004
-8.079573e-004,3.119140e-004
-5.797693e-004,2.840388e-004
-8.030953e-004,2.386605e-004
-1.410678e-003,1.837203e-004
-2.213226e-003,1.292664e-004
-3.022420e-003,7.967438e-005
-3.702610e-003,3.818565e-005
-4.159961e-003,4.151929e-006
-4.303552e-003,-1.756482e-005
-4.049108e-003,-2.258885e-005
-3.368106e-003,-1.513384e-005
-2.358761e-003,-5.571990e-006
-1.271302e-003,-3.951337e-006
-4.139766e-004,-1.286493e-005
8.203562e-006,-2.404744e-005
-1.853722e-005,-3.101625e-005
-2.895104e-004,-2.826114e-005
-4.841508e-004,-1.643037e-005
-3.721637e-004,-5.409925e-006
7.691926e-005,-6.706447e-006
7.177258e-004,-2.258885e-005
1.360640e-003,-4.641245e-005
1.862719e-003,-6.991193e-005
2.151359e-003,-9.017008e-005
2.223316e-003,-1.102662e-004
2.128670e-003,-1.310105e-004
1.933218e-003,-1.485136e-004
1.692226e-003,-1.600202e-004
1.445724e-003,-1.632615e-004
1.218346e-003,-1.621271e-004
1.028892e-003,-1.640719e-004
9.084769e-004,-1.700683e-004
9.011839e-004,-1.759026e-004
1.028892e-003,-1.746061e-004
1.262266e-003,-1.593720e-004
1.536481e-003,-1.259865e-004
1.795138e-003,-7.866345e-005
2.022192e-003,-3.393342e-005
2.235309e-003,-8.720959e-007
2.438216e-003,2.197911e-005
2.593151e-003,3.462021e-005
2.628319e-003,3.543054e-005
2.486998e-003,2.392390e-005
2.174696e-003,2.855407e-006
1.766452e-003,-1.837515e-005
1.363395e-003,-3.344723e-005
1.036833e-003,-4.349527e-005
7.916276e-004,-5.111234e-005
5.799701e-004,-6.407757e-005
3.469201e-004,-8.368748e-005
6.038860e-005,-1.026491e-004
-2.831898e-004,-1.133454e-004
-6.598296e-004,-1.167488e-004
-1.033876e-003,-1.195039e-004
-1.379562e-003,-1.232314e-004
-1.690079e-003,-1.235555e-004
-1.972235e-003,-1.097800e-004
-2.215171e-003,-7.072225e-005
-2.367026e-003,-8.327101e-006
-2.352764e-003,6.298164e-005
-2.133166e-003,1.294284e-004
-1.734161e-003,1.825859e-004
-1.243751e-003,2.203471e-004
-7.774890e-004,2.427121e-004
-4.081422e-004,2.514636e-004
-1.282554e-004,2.511395e-004
1.127357e-004,2.409294e-004
3.626405e-004,2.208333e-004
6.483617e-004,1.918236e-004
9.841614e-004,1.587623e-004
1.362422e-003,1.299146e-004
1.743925e-003,1.094944e-004
2.072270e-003,9.620504e-005
2.323311e-003,8.210535e-005
2.513090e-003,6.314371e-005
2.670132e-003,4.094075e-005
2.779203e-003,2.570662e-005
2.769479e-003,2.813760e-005
2.587155e-003,5.341979e-005
2.261402e-003,1.012291e-004
1.864178e-003,1.678379e-004
1.433245e-003,2.466017e-004
9.423485e-004,3.243930e-004
3.269861e-004,3.903536e-004
-4.186764e-004,4.397836e-004
-1.207934e-003,4.781931e-004
-1.950356e-003,5.156302e-004
-2.547729e-003,5.572810e-004
-2.917239e-003,6.031455e-004
-2.991141e-003,6.444722e-004
-2.717412e-003,6.645683e-004
-2.096215e-003,6.423654e-004
-1.283943e-003,5.695980e-004
-6.058619e-004,4.517764e-004
-4.026320e-004,3.085106e-004
-7.956403e-004,1.662173e-004
-1.542599e-003,4.580272e-005
-2.180489e-003,-3.749886e-005
-2.307710e-003,-7.898758e-005
-1.795745e-003,-8.725291e-005
-8.411807e-004,-7.947377e-005
1.978200e-004,-7.363943e-005
9.912923e-004,-8.044617e-005
1.383491e-003,-1.092938e-004
1.373767e-003,-1.627754e-004
1.082697e-003,-2.295462e-004
7.020054e-004,-2.890242e-004
3.785229e-004,-3.261372e-004
1.018773e-004,-3.420196e-004
-2.379736e-004,-3.455850e-004
-7.105560e-004,-3.444506e-004
-1.258661e-003,-3.387782e-004
-1.706123e-003,-3.206269e-004
-1.843069e-003,-2.835140e-004
-1.568692e-003,-2.311669e-004
-9.831499e-004,-1.747682e-004
-3.287302e-004,-1.305243e-004
1.511452e-004,-1.086455e-004
3.279585e-004,-1.039456e-004
2.180782e-004,-1.008664e-004
-6.116039e-005,-9.503204e-005
-3.455850e-004,-8.822530e-005
-5.040849e-004,-8.984595e-005
-4.773441e-004,-1.104282e-004
-2.838381e-004,-1.579134e-004
-3.789272e-006,-2.238740e-004
2.704253e-004,-2.911311e-004
4.747897e-004,-3.382920e-004
5.866149e-004,-3.569296e-004
6.174073e-004,-3.532020e-004
5.935837e-004,-3.352128e-004
5.493398e-004,-3.086341e-004
5.295678e-004,-2.729798e-004
5.747841e-004,-2.224154e-004
7.076777e-004,-1.569410e-004
9.144733e-004,-8.660465e-005
1.148496e-003,-2.647842e-005
1.356102e-003,1.095867e-005
1.502933e-003,2.603075e-005
1.568732e-003,3.056858e-005
1.538750e-003,4.077869e-005
1.408935e-003,7.173317e-005
1.203274e-003,1.286181e-004
9.655239e-004,2.007372e-004
7.357151e-004,2.746390e-004
5.397780e-004,3.380065e-004
3.914881e-004,3.809539e-004
2.970040e-004,4.010500e-004
2.511395e-004,4.067223e-004
2.299089e-004,4.086671e-004
2.101370e-004,4.135290e-004
1.806411e-004,4.208219e-004
1.446626e-004,4.289252e-004
9.150514e-005,4.345975e-004
-1.626830e-005,4.303838e-004
-2.261429e-004,4.083429e-004
-5.355255e-004,3.611819e-004
-8.813728e-004,2.822560e-004
-1.175197e-003,1.749688e-004
-1.355252e-003,5.471631e-005
-1.399820e-003,-5.808115e-005
-1.294153e-003,-1.473791e-004
-1.034362e-003,-2.110708e-004
-6.744154e-004,-2.480217e-004
-2.998826e-004,-2.580697e-004
2.635488e-005,-2.426735e-004
2.850112e-004,-2.003745e-004
5.059062e-004,-1.285796e-004
7.339324e-004,-2.615429e-005
9.752478e-004,1.015532e-004
1.171347e-003,2.453052e-004
1.248166e-003,3.905157e-004
1.149630e-003,5.191956e-004
8.454334e-004,6.224313e-004
3.555096e-004,6.994124e-004
-2.750866e-004,7.538663e-004
-9.261029e-004,7.880622e-004
-1.430450e-003,7.992447e-004
-1.671765e-003,7.763935e-004
-1.663176e-003,7.091364e-004
-1.546813e-003,5.943940e-004
-1.490252e-003,4.371906e-004
-1.527365e-003,2.534084e-004
-1.550379e-003,6.541262e-005
-1.432071e-003,-9.989401e-005
-1.129009e-003,-2.238740e-004
-6.971046e-004,-2.995585e-004
-2.449425e-004,-3.316474e-004
1.281319e-004,-3.311612e-004
3.738230e-004,-3.134961e-004
4.948858e-004,-2.917793e-004
5.175750e-004,-2.716832e-004
4.862963e-004,-2.587180e-004
4.611762e-004,-2.559629e-004
4.848378e-004,-2.575835e-004
5.331332e-004,-2.608248e-004
5.248679e-004,-2.652006e-004
3.788470e-004,-2.744383e-004
7.335383e-005,-2.896725e-004
-3.402368e-004,-3.044204e-004
-7.415105e-004,-3.094444e-004
-1.001463e-003,-3.018274e-004
-1.043438e-003,-2.849726e-004
-8.658146e-004,-2.629317e-004
-5.389289e-004,-2.428356e-004
-1.804405e-004,-2.279256e-004
1.122495e-004,-2.211189e-004
3.007315e-004,-2.209568e-004
3.937570e-004,-2.269532e-004
4.157979e-004,-2.428356e-004
4.041292e-004,-2.671454e-004
4.012120e-004,-2.961551e-004
4.368664e-004,-3.264613e-004
5.140096e-004,-3.580640e-004
6.174073e-004,-3.839945e-004
7.261531e-004,-3.935563e-004
8.246890e-004,-3.755671e-004
9.196594e-004,-3.266234e-004
1.016737e-003,-2.517492e-004
1.101335e-003,-1.626133e-004
1.157410e-003,-7.120844e-005
1.183016e-003,1.338965e-005
1.193226e-003,8.599492e-005
1.205867e-003,1.487142e-004
1.219156e-003,2.064095e-004
1.199547e-003,2.568118e-004
1.099228e-003,2.926282e-004
8.998874e-004,3.102934e-004
6.331276e-004,3.211517e-004
3.645853e-004,3.397893e-004
1.707551e-004,3.775505e-004
1.109530e-004,4.344354e-004
2.030061e-004,5.033132e-004
4.234150e-004,5.689497e-004
6.974676e-004,6.198382e-004
9.032908e-004,6.436619e-004
9.230627e-004,6.347483e-004
7.104329e-004,5.934216e-004
2.940868e-004,5.284334e-004
-2.110708e-004,4.543695e-004
-6.468644e-004,3.850055e-004
-9.003344e-004,3.281205e-004
-9.150825e-004,2.856594e-004
-6.896496e-004,2.623220e-004
-2.797865e-004,2.590807e-004
2.171058e-004,2.684805e-004
7.067053e-004,2.773941e-004
1.130345e-003,2.762596e-004
1.455934e-003,2.569738e-004
1.673102e-003,2.216436e-004
1.773421e-003,1.791825e-004
1.740036e-003,1.422316e-004
1.549284e-003,1.133840e-004
1.199222e-003,9.085688e-005
7.174017e-004,6.784360e-005
1.595726e-004,4.158902e-005
-3.976080e-004,1.306552e-005
-8.935277e-004,-1.594417e-005
-1.302581e-003,-4.527799e-005
-1.608236e-003,-7.331530e-005
-1.798176e-003,-9.956988e-005
-1.864623e-003,-1.224211e-004
-1.783591e-003,-1.384655e-004
-1.516669e-003,-1.455964e-004
-1.047490e-003,-1.413827e-004
-4.305072e-004,-1.284175e-004
2.133783e-004,-1.125351e-004
7.488423e-004,-1.047560e-004
1.080753e-003,-1.079973e-004
1.193712e-003,-1.188556e-004
1.161461e-003,-1.345760e-004
1.106359e-003,-1.522411e-004
1.132775e-003,-1.755785e-004
1.239415e-003,-2.058847e-004
1.268100e-003,-2.444563e-004
1.000368e-003,-2.904828e-004
3.062417e-004,-3.339163e-004
-7.139594e-004,-3.682741e-004
-1.750043e-003,-3.880461e-004
-2.485172e-003,-3.911253e-004
-2.766842e-003,-3.820497e-004
-2.657286e-003,-3.695707e-004
-2.391498e-003,-3.598467e-004
-2.247098e-003,-3.591985e-004
-2.383071e-003,-3.697327e-004
-2.793907e-003,-3.862634e-004
-3.352548e-003,-4.042526e-004
-3.878776e-003,-4.112214e-004
-4.176168e-003,-3.993907e-004
-4.105021e-003,-3.713534e-004
-3.656584e-003,-3.313232e-004
-2.937497e-003,-2.746004e-004
-2.098808e-003,-2.005366e-004
-1.287833e-003,-1.128592e-004
-6.084549e-004,-2.194059e-005
-1.016767e-004,6.719535e-005
2.433604e-004,1.535762e-004
4.738173e-004,2.376881e-004
6.405826e-004,3.149933e-004
7.744487e-004,3.841952e-004
8.961599e-004,4.435111e-004
1.021437e-003,4.892136e-004
1.154330e-003,5.191956e-004
1.281066e-003,5.358884e-004
1.374578e-003,5.465847e-004
1.412825e-003,5.585775e-004
1.384463e-003,5.687877e-004
1.293220e-003,5.691118e-004
1.156275e-003,5.522569e-004
9.950198e-004,5.178991e-004
8.395990e-004,4.707381e-004
7.209671e-004,4.195254e-004
6.715371e-004,3.722023e-004
7.018434e-004,3.363859e-004
7.760693e-004,3.149933e-004
8.301992e-004,3.068900e-004
8.323060e-004,3.077003e-004
8.011895e-004,3.073762e-004
7.833623e-004,3.007315e-004
8.240407e-004,2.830664e-004
9.311661e-004,2.560015e-004
1.073460e-003,2.299089e-004
1.222560e-003,2.114335e-004
1.373929e-003,2.017096e-004
1.546529e-003,2.015475e-004
1.766128e-003,2.169437e-004
2.023327e-003,2.461155e-004
2.267884e-003,2.832284e-004
2.433192e-003,3.143450e-004
2.473708e-003,3.229345e-004
2.394620e-003,3.015418e-004
2.243412e-003,2.579462e-004
2.072595e-003,2.054371e-004
1.914256e-003,1.537382e-004
1.782335e-003,1.096565e-004
1.679909e-003,7.384002e-005
1.587370e-003,4.045456e-005
1.481217e-003,3.017472e-006
1.368581e-003,-4.155049e-005
1.267938e-003,-8.838737e-005
1.192902e-003,-1.266348e-004
1.136989e-003,-1.522411e-004
1.044936e-003,-1.648822e-004
8.242028e-004,-1.697442e-004
4.161220e-004,-1.757406e-004
-1.640719e-004,-1.857886e-004
-8.359946e-004,-2.023193e-004
-1.463187e-003,-2.261429e-004
-1.902709e-003,-2.559629e-004
-2.086005e-003,-2.883759e-004
-2.066719e-003,-3.159271e-004
-1.975800e-003,-3.368335e-004
-1.933501e-003,-3.541745e-004
-1.970128e-003,-3.723258e-004
-2.042895e-003,-3.958252e-004
-2.101725e-003,-4.149489e-004
-2.112583e-003,-4.206212e-004
-2.051809e-003,-4.076560e-004
-1.911298e-003,-3.755671e-004
-1.710013e-003,-3.335922e-004
-1.485228e-003,-2.916173e-004
-1.259309e-003,-2.558008e-004
-1.038414e-003,-2.311669e-004
-8.087676e-004,-2.175534e-004
-5.355255e-004,-2.149604e-004
-2.003745e-004,-2.172293e-004
1.751309e-004,-2.217671e-004
5.310264e-004,-2.274394e-004
7.791486e-004,-2.292221e-004
8.433265e-004,-2.193361e-004
7.133500e-004,-1.958367e-004
4.730070e-004,-1.558065e-004
2.498430e-004,-1.015147e-004
1.543865e-004,-4.025397e-005
2.349330e-004,1.711715e-005
4.603659e-004,6.298164e-005
7.598628e-004,9.555677e-005
1.071029e-003,1.177597e-004
1.355778e-003,1.357490e-004
1.585263e-003,1.526038e-004
1.733067e-003,1.743205e-004
1.780714e-003,2.013854e-004
1.738577e-003,2.289366e-004
1.638258e-003,2.509774e-004
1.499692e-003,2.624841e-004
1.335520e-003,2.686426e-004
1.146875e-003,2.767458e-004
9.110699e-004,2.936006e-004
5.861287e-004,3.158036e-004
1.432040e-004,3.341170e-004
-4.165696e-004,3.409237e-004
-1.054783e-003,3.370341e-004
-1.674196e-003,3.273102e-004
-2.151641e-003,3.158036e-004
-2.426342e-003,3.059176e-004
-2.550808e-003,3.008936e-004
-2.634597e-003,2.984626e-004
-2.750636e-003,2.957075e-004
-2.896981e-003,2.919800e-004
-2.995841e-003,2.872801e-004
-2.970721e-003,2.816078e-004
-2.820324e-003,2.762596e-004
-2.605749e-003,2.688046e-004
-2.389877e-003,2.615117e-004
-2.170117e-003,2.564877e-004
-1.888771e-003,2.529222e-004
-1.479394e-003,2.496809e-004
-9.035757e-004,2.438466e-004
-1.765509e-004,2.347709e-004
6.292380e-004,2.216436e-004
1.406342e-003,2.070577e-004
2.062709e-003,2.015475e-004
2.536590e-003,2.130541e-004
2.798651e-003,2.357433e-004
2.860074e-003,2.582704e-004
2.765914e-003,2.678322e-004
2.579700e-003,2.598910e-004
2.364313e-003,2.320158e-004
2.146011e-003,1.913374e-004
1.868068e-003,1.428799e-004
1.428869e-003,9.296373e-005
7.640765e-004,4.320967e-005
-1.126972e-004,-5.409925e-006
-1.034200e-003,-5.208474e-005
-1.730109e-003,-9.438378e-005
-2.001730e-003,-1.279313e-004
-1.835289e-003,-1.498101e-004
-1.376482e-003,-1.606685e-004
-8.392359e-004,-1.656925e-004
-4.079801e-004,-1.736337e-004
-1.668270e-004,-1.861127e-004
-1.045939e-004,-2.003745e-004
-1.459206e-004,-2.173914e-004
