-1.031121e-003,-6.382317e-006
-1.200479e-003,8.340187e-005
-1.253637e-003,1.506590e-004
-1.019452e-003,2.104611e-004
-4.883645e-004,2.835526e-004
2.070577e-004,3.919743e-004
8.723363e-004,5.444778e-004
1.369553e-003,7.323117e-004
1.651224e-003,9.402417e-004
1.720426e-003,1.158706e-003
1.633396e-003,1.372957e-003
1.481541e-003,1.543936e-003
1.356912e-003,1.614597e-003
1.311048e-003,1.551715e-003
1.338761e-003,1.375874e-003
1.400184e-003,1.143310e-003
1.440376e-003,9.154457e-004
1.418011e-003,7.219395e-004
1.311048e-003,5.694359e-004
1.097769e-003,4.490213e-004
7.642386e-004,3.456236e-004
3.030004e-004,2.495189e-004
-2.801106e-004,1.496866e-004
-9.538161e-004,2.052053e-005
-1.680355e-003,-1.626133e-004
-2.402032e-003,-4.104111e-004
-2.981741e-003,-7.021286e-004
-3.266815e-003,-9.972495e-004
-3.210902e-003,-1.249261e-003
-2.893415e-003,-1.426399e-003
-2.404301e-003,-1.518290e-003
-1.734161e-003,-1.533199e-003
-8.309705e-004,-1.491063e-003
2.605393e-004,-1.416675e-003
1.341192e-003,-1.324621e-003
2.175345e-003,-1.215227e-003
2.608871e-003,-1.087682e-003
2.623781e-003,-9.452265e-004
2.314235e-003,-7.961266e-004
1.819124e-003,-6.509160e-004
1.243628e-003,-5.144570e-004
6.490100e-004,-3.848048e-004
5.001642e-005,-2.619593e-004
-5.538389e-004,-1.574272e-004
-1.103564e-003,-8.482193e-005
-1.520558e-003,-4.219875e-005
-1.755715e-003,-8.813297e-006
-1.779701e-003,3.883391e-005
-1.569502e-003,1.062531e-004
-1.118474e-003,1.843686e-004
-4.501171e-004,2.592428e-004
3.918123e-004,3.242310e-004
1.322878e-003,3.796573e-004
2.181827e-003,4.354078e-004
2.729124e-003,4.994237e-004
2.733662e-003,5.655463e-004
2.138718e-003,6.102764e-004
1.130020e-003,6.096281e-004
3.283749e-005,5.522569e-004
-8.402083e-004,4.543695e-004
-1.391717e-003,3.487029e-004
-1.722816e-003,2.662116e-004
-1.953597e-003,2.297469e-004
-2.146617e-003,2.469258e-004
-2.292314e-003,3.104554e-004
-2.265249e-003,3.968363e-004
-1.901088e-003,4.790034e-004
-1.199021e-003,5.352402e-004
-3.664914e-004,5.567948e-004
2.853353e-004,5.457744e-004
5.636016e-004,5.156302e-004
5.726772e-004,4.804620e-004
6.154625e-004,4.553419e-004
9.545035e-004,4.548557e-004
1.616379e-003,4.884033e-004
2.393810e-003,5.499881e-004
3.040454e-003,6.161107e-004
3.399756e-003,6.598685e-004
3.384035e-003,6.652166e-004
2.944673e-003,6.371793e-004
2.117811e-003,5.981215e-004
1.069894e-003,5.717048e-004
6.589881e-005,5.665187e-004
-6.306578e-004,5.689497e-004
-8.859106e-004,5.567948e-004
-7.303280e-004,5.128751e-004
-3.212752e-004,4.373526e-004
1.503349e-004,3.461098e-004
5.454503e-004,2.676702e-004
8.314957e-004,2.263435e-004
1.053688e-003,2.269918e-004
1.284469e-003,2.558394e-004
1.611355e-003,2.809595e-004
2.079077e-003,2.786906e-004
2.628319e-003,2.470879e-004
3.102039e-003,2.065715e-004
3.307540e-003,1.814514e-004
3.114032e-003,1.825859e-004
2.484404e-003,2.158093e-004
1.492075e-003,2.713977e-004
3.005694e-004,3.336308e-004
-8.703524e-004,3.848434e-004
-1.778891e-003,4.076947e-004
-2.252608e-003,3.913261e-004
-2.252770e-003,3.255275e-004
-1.929287e-003,2.034923e-004
-1.546975e-003,2.878586e-005
-1.354603e-003,-1.757406e-004
-1.462377e-003,-3.726499e-004
-1.808873e-003,-5.240189e-004
-2.254067e-003,-6.134789e-004
-2.684026e-003,-6.515643e-004
-3.066340e-003,-6.658260e-004
-3.431636e-003,-6.836532e-004
-3.769382e-003,-7.270867e-004
-3.987037e-003,-8.069849e-004
-3.940848e-003,-9.288579e-004
-3.498569e-003,-1.092868e-003
-2.619200e-003,-1.286212e-003
-1.402413e-003,-1.475018e-003
-7.607040e-005,-1.615367e-003
1.068273e-003,-1.670469e-003
1.825768e-003,-1.627846e-003
2.163676e-003,-1.500787e-003
2.148279e-003,-1.318949e-003
1.864178e-003,-1.109237e-003
1.399374e-003,-8.910968e-004
8.389507e-004,-6.826808e-004
2.558394e-004,-4.948471e-004
-2.572594e-004,-3.298647e-004
-5.812279e-004,-1.822232e-004
-6.178547e-004,-4.398147e-005
-3.587123e-004,8.956036e-005
9.280167e-005,2.164575e-004
5.423710e-004,3.329825e-004
7.929241e-004,4.412422e-004
7.472217e-004,5.439916e-004
4.222805e-004,6.477135e-004
-8.190475e-005,7.477079e-004
-5.742591e-004,8.300372e-004
-8.252983e-004,8.707156e-004
-6.765223e-004,8.561297e-004
-1.008664e-004,7.835244e-004
7.519216e-004,6.585719e-004
1.612814e-003,5.007202e-004
2.268208e-003,3.422202e-004
2.641933e-003,2.119197e-004
2.814533e-003,1.292664e-004
2.959907e-003,9.766362e-005
3.232665e-003,1.039842e-004
3.674783e-003,1.137081e-004
4.202312e-003,9.296373e-005
4.694511e-003,4.288554e-005
4.958843e-003,-6.868513e-006
4.958843e-003,-1.869928e-005
4.958843e-003,2.716521e-005
4.959005e-003,1.226217e-004
4.958843e-003,2.393087e-004
4.958843e-003,3.521062e-004
4.930482e-003,4.529109e-004
4.401006e-003,5.504743e-004
3.401376e-003,6.507927e-004
1.952990e-003,7.520836e-004
1.511452e-004,8.454334e-004
-1.868351e-003,9.261420e-004
-3.954137e-003,9.977750e-004
-4.968025e-003,1.065518e-003
-4.967702e-003,1.122403e-003
-4.967702e-003,1.136179e-003
-4.967702e-003,1.074594e-003
-4.967702e-003,9.358659e-004
-4.967863e-003,7.511112e-004
-4.967863e-003,5.619809e-004
-4.967863e-003,4.005638e-004
-4.176492e-003,2.796630e-004
-2.572525e-003,1.885823e-004
-1.534172e-003,1.125736e-004
-1.055917e-003,4.774750e-005
-9.066550e-004,-9.461558e-006
-8.536596e-004,-6.099833e-005
-7.860785e-004,-1.126972e-004
-6.831670e-004,-1.661787e-004
-5.642111e-004,-2.241981e-004
-4.627582e-004,-2.848105e-004
-3.888564e-004,-3.394265e-004
-3.497987e-004,-3.812394e-004
-4.014975e-004,-4.094387e-004
-5.928966e-004,-4.267797e-004
-8.778074e-004,-4.386105e-004
-1.113612e-003,-4.499550e-004
-1.127550e-003,-4.624341e-004
-8.107124e-004,-4.753993e-004
-2.003745e-004,-4.890127e-004
5.287575e-004,-5.026262e-004
1.189823e-003,-5.126743e-004
1.664837e-003,-5.129984e-004
1.886543e-003,-5.047331e-004
1.831927e-003,-4.948471e-004
1.554794e-003,-4.912817e-004
1.171347e-003,-4.911196e-004
8.107513e-004,-4.865818e-004
5.692738e-004,-4.739407e-004
4.948858e-004,-4.551412e-004
5.397780e-004,-4.334244e-004
5.365367e-004,-4.107352e-004
3.154794e-004,-3.825359e-004
-1.452723e-004,-3.433161e-004
-6.949978e-004,-2.930758e-004
-1.104375e-003,-2.404046e-004
-1.169525e-003,-1.943781e-004
-8.094159e-004,-1.603444e-004
-1.349001e-004,-1.376552e-004
6.125454e-004,-1.253383e-004
1.200195e-003,-1.227452e-004
1.500827e-003,-1.290658e-004
1.536319e-003,-1.421931e-004
1.471655e-003,-1.585616e-004
1.536319e-003,-1.737958e-004
1.916849e-003,-1.830335e-004
2.680991e-003,-1.900023e-004
3.745444e-003,-1.959987e-004
4.847827e-003,-2.031296e-004
4.958681e-003,-2.133397e-004
4.958843e-003,-2.306807e-004
4.689973e-003,-2.549905e-004
3.033485e-003,-2.825416e-004
1.021274e-003,-3.032860e-004
-8.181673e-004,-3.128478e-004
-1.967535e-003,-3.094444e-004
-2.328455e-003,-2.964792e-004
-2.255849e-003,-2.768693e-004
-2.362326e-003,-2.473734e-004
-3.044299e-003,-2.000504e-004
-4.123496e-003,-1.251762e-004
-4.967702e-003,-1.724069e-005
-4.967702e-003,1.224596e-004
-4.070500e-003,2.803113e-004
-2.327158e-003,4.404318e-004
-3.288923e-004,5.856425e-004
1.303268e-003,7.062191e-004
2.181827e-003,7.943827e-004
2.310670e-003,8.519160e-004
1.940349e-003,8.934048e-004
1.448803e-003,9.370004e-004
1.145255e-003,9.966405e-004
1.148334e-003,1.067139e-003
1.392405e-003,1.127913e-003
1.725774e-003,1.153196e-003
2.012468e-003,1.127752e-003
2.171131e-003,1.050446e-003
2.180693e-003,9.293833e-004
2.055416e-003,7.773659e-004
1.830306e-003,6.102764e-004
1.544422e-003,4.454559e-004
1.218022e-003,2.955454e-004
8.686088e-004,1.705930e-004
5.292437e-004,7.221937e-005
2.545429e-004,-7.354709e-006
8.810177e-005,-8.239095e-005
3.818565e-005,-1.656925e-004
7.513654e-005,-2.673075e-004
1.526038e-004,-3.925839e-004
2.357433e-004,-5.321222e-004
3.149933e-004,-6.627468e-004
3.966742e-004,-7.557723e-004
4.914824e-004,-7.885094e-004
6.165970e-004,-7.609584e-004
7.830382e-004,-6.855980e-004
9.640653e-004,-5.849554e-004
1.103928e-003,-4.778303e-004
1.153358e-003,-3.762153e-004
1.099552e-003,-2.807589e-004
9.961543e-004,-1.898403e-004
9.277626e-004,-1.086455e-004
9.143112e-004,-4.544006e-005
8.684467e-004,-6.868513e-006
6.733199e-004,5.610517e-006
3.115899e-004,-9.623623e-006
-1.306864e-004,-4.236082e-005
-5.314739e-004,-8.968389e-005
-8.136295e-004,-1.501342e-004
-1.006811e-003,-2.193361e-004
-1.206962e-003,-2.852967e-004
-1.465294e-003,-3.297026e-004
-1.704503e-003,-3.517435e-004
-1.751177e-003,-3.687603e-004
-1.463025e-003,-3.976080e-004
-8.236776e-004,-4.337485e-004
4.337174e-005,-4.593548e-004
9.227386e-004,-4.514136e-004
1.604062e-003,-3.972838e-004
1.947966e-003,-2.922655e-004
1.919767e-003,-1.499722e-004
1.564356e-003,8.041497e-006
9.532070e-004,1.641104e-004
1.493625e-004,3.136967e-004
-7.682513e-004,4.674968e-004
-1.694617e-003,6.358828e-004
-2.576253e-003,8.199891e-004
-3.418995e-003,1.016575e-003
-4.208581e-003,1.215591e-003
-4.865761e-003,1.389812e-003
-4.968025e-003,1.500665e-003
-4.967863e-003,1.515250e-003
-4.967863e-003,1.429518e-003
-4.967863e-003,1.265993e-003
-4.300635e-003,1.062763e-003
-3.201826e-003,8.464058e-004
-2.161365e-003,6.308587e-004
-1.557347e-003,4.286011e-004
-1.533524e-003,2.514636e-004
-1.901898e-003,1.088461e-004
-2.239319e-003,4.638125e-006
-2.174168e-003,-5.953974e-005
-1.608074e-003,-8.417367e-005
-7.507482e-004,-7.639453e-005
7.108491e-005,-4.722278e-005
6.384758e-004,-7.030578e-006
9.570965e-004,3.737532e-005
1.195495e-003,7.853991e-005
1.509902e-003,1.031738e-004
1.909232e-003,1.025256e-004
2.275663e-003,9.733949e-005
2.496235e-003,1.187321e-004
2.540155e-003,1.866375e-004
2.422981e-003,2.995970e-004
2.146659e-003,4.316803e-004
1.677154e-003,5.430193e-004
9.895095e-004,5.973112e-004
1.692965e-004,5.794840e-004
-5.458977e-004,4.934272e-004
-9.160548e-004,3.602095e-004
-8.982276e-004,2.132162e-004
-6.924047e-004,8.388807e-005
-5.815520e-004,-7.354709e-006
-6.533470e-004,-5.808115e-005
-7.442656e-004,-7.931171e-005
-6.050515e-004,-7.785312e-005
-1.164247e-004,-5.370539e-005
6.337758e-004,-2.664048e-005
1.415580e-003,-3.571614e-005
2.010848e-003,-1.199901e-004
2.314721e-003,-2.799486e-004
2.351186e-003,-4.645409e-004
2.222668e-003,-6.008379e-004
2.049581e-003,-6.348715e-004
1.918470e-003,-5.527044e-004
1.864502e-003,-3.890185e-004
1.892702e-003,-2.031296e-004
1.978272e-003,-5.143648e-005
2.080050e-003,2.829966e-005
2.168862e-003,2.359977e-005
2.264481e-003,-5.354332e-005
2.400292e-003,-1.734716e-004
2.574999e-003,-3.010170e-004
2.751814e-003,-4.027940e-004
2.887950e-003,-4.502792e-004
2.949211e-003,-4.306693e-004
2.925873e-003,-3.476919e-004
2.833981e-003,-2.104225e-004
2.652629e-003,-3.636440e-005
2.319421e-003,1.268354e-004
1.817989e-003,2.005751e-004
1.204895e-003,1.213252e-004
5.232473e-004,-1.084835e-004
-2.707109e-004,-4.091146e-004
-1.219441e-003,-6.711741e-004
-2.269949e-003,-8.176812e-004
-3.289666e-003,-8.332395e-004
-4.126414e-003,-7.560964e-004
-4.622337e-003,-6.538332e-004
-4.627848e-003,-5.937069e-004
-4.090273e-003,-6.291993e-004
-3.148345e-003,-7.943438e-004
-2.075146e-003,-1.095623e-003
-1.142460e-003,-1.489280e-003
-5.189948e-004,-1.872726e-003
-1.880575e-004,-2.129600e-003
2.603075e-005,-2.188592e-003
2.958695e-004,-2.038682e-003
6.102764e-004,-1.732216e-003
7.900069e-004,-1.376158e-003
6.673234e-004,-1.092868e-003
2.508154e-004,-9.481438e-004
-2.562870e-004,-9.225374e-004
-5.961379e-004,-9.468472e-004
-6.167202e-004,-9.483058e-004
-3.352128e-004,-8.938519e-004
9.247754e-005,-7.755442e-004
4.704139e-004,-5.959758e-004
6.857989e-004,-3.661673e-004
7.480320e-004,-1.021629e-004
7.342565e-004,1.598967e-004
7.170775e-004,3.720403e-004
7.332841e-004,5.119027e-004
7.707212e-004,6.012007e-004
7.874139e-004,6.888782e-004
7.352289e-004,8.099410e-004
5.890459e-004,9.674687e-004
3.657197e-004,1.147199e-003
1.156529e-004,1.333737e-003
-1.096179e-004,1.524488e-003
-2.758969e-004,1.719129e-003
-3.754050e-004,1.910205e-003
-4.339106e-004,2.081184e-003
-5.053814e-004,2.207272e-003
-6.176926e-004,2.272584e-003
-7.290315e-004,2.277284e-003
-7.570688e-004,2.233202e-003
-6.455678e-004,2.164810e-003
-3.932322e-004,2.089449e-003
-4.268495e-005,2.008255e-003
3.483787e-004,1.907125e-003
7.084881e-004,1.759808e-003
9.710342e-004,1.550095e-003
1.082535e-003,1.283172e-003
1.033267e-003,9.891854e-004
8.702294e-004,7.084881e-004
6.890402e-004,4.743035e-004
5.883976e-004,3.057555e-004
6.131936e-004,1.961994e-004
7.118915e-004,1.291043e-004
7.488423e-004,8.810177e-005
5.546879e-004,6.103686e-005
5.698522e-005,3.850978e-005
-6.395715e-004,1.387585e-005
-1.299501e-003,-2.194059e-005
-1.702234e-003,-7.201877e-005
-1.786832e-003,-1.339277e-004
-1.672414e-003,-1.969711e-004
-1.542113e-003,-2.502906e-004
-1.461405e-003,-2.917793e-004
-1.348283e-003,-3.240303e-004
-1.108102e-003,-3.496366e-004
-7.238454e-004,-3.720016e-004
-2.511010e-004,-3.951770e-004
2.174299e-004,-4.214316e-004
6.057385e-004,-4.483344e-004
8.861118e-004,-4.737787e-004
1.056929e-003,-4.924161e-004
1.141203e-003,-5.024642e-004
1.178802e-003,-5.053814e-004
1.220129e-003,-5.035987e-004
1.315423e-003,-4.933886e-004
1.470682e-003,-4.723200e-004
1.631452e-003,-4.426621e-004
1.728043e-003,-4.102490e-004
1.732419e-003,-3.760533e-004
1.674237e-003,-3.436402e-004
1.593528e-003,-3.113892e-004
1.463551e-003,-2.747625e-004
1.188526e-003,-2.368392e-004
6.647304e-004,-2.031296e-004
-1.298761e-004,-1.825473e-004
-1.171632e-003,-1.838438e-004
-2.374805e-003,-2.130156e-004
-3.530334e-003,-2.676316e-004
-4.351038e-003,-3.334301e-004
-4.597541e-003,-3.942046e-004
-4.191240e-003,-4.415277e-004
-3.272649e-003,-4.802613e-004
-2.142241e-003,-5.144570e-004
-1.127064e-003,-5.403875e-004
-4.361795e-004,-5.501114e-004
-9.811128e-005,-5.424943e-004
-5.571990e-006,-5.162397e-004
-4.057810e-005,-4.637306e-004
-1.472171e-004,-3.692465e-004
-2.980999e-004,-2.237119e-004
-4.282383e-004,-3.749886e-005
-4.569239e-004,1.673517e-004
-3.254889e-004,3.699334e-004
1.419998e-005,5.554983e-004
5.898562e-004,7.138362e-004
1.317206e-003,8.498091e-004
1.969197e-003,9.747617e-004
2.301594e-003,1.090963e-003
2.229799e-003,1.184312e-003
1.903722e-003,1.243304e-003
1.580077e-003,1.269073e-003
1.419308e-003,1.263562e-003
1.417201e-003,1.218184e-003
1.444266e-003,1.116083e-003
1.360964e-003,9.556379e-004
1.087559e-003,7.584042e-004
6.050903e-004,5.614947e-004
-7.250496e-005,3.910019e-004
-8.531735e-004,2.605393e-004
-1.585223e-003,1.671896e-004
-2.183730e-003,9.782569e-005
-2.696506e-003,3.559260e-005
-3.208309e-003,-3.215070e-005
-3.722220e-003,-1.060525e-004
-4.163689e-003,-1.757406e-004
-4.464484e-003,-2.318152e-004
-4.584900e-003,-2.690902e-004
-4.470319e-003,-2.934000e-004
-4.051053e-003,-3.168994e-004
-3.296311e-003,-3.434782e-004
-2.258604e-003,-3.694086e-004
-1.075365e-003,-3.877220e-004
7.027458e-005,-3.925839e-004
1.000206e-003,-3.828600e-004
1.621890e-003,-3.643846e-004
1.941483e-003,-3.457471e-004
2.055416e-003,-3.331060e-004
2.104522e-003,-3.215994e-004
2.201275e-003,-3.078238e-004
2.386841e-003,-2.953447e-004
2.661057e-003,-2.908069e-004
2.992969e-003,-2.963172e-004
3.326664e-003,-3.062031e-004
3.586619e-003,-3.105789e-004
3.708817e-003,-3.053928e-004
3.677214e-003,-2.953447e-004
3.515471e-003,-2.934000e-004
3.242227e-003,-3.081479e-004
2.879522e-003,-3.429920e-004
2.492832e-003,-3.917736e-004
2.213916e-003,-4.460655e-004
2.154924e-003,-4.961436e-004
2.306294e-003,-5.361738e-004
2.541938e-003,-5.643732e-004
2.712107e-003,-5.792832e-004
2.703032e-003,-5.873864e-004
2.444212e-003,-5.961379e-004
1.899508e-003,-6.097514e-004
1.035374e-003,-6.298475e-004
-9.551824e-005,-6.531850e-004
-1.188973e-003,-6.774947e-004
-1.826376e-003,-6.966184e-004
-1.773705e-003,-6.919185e-004
-1.149753e-003,-6.512401e-004
-3.864254e-004,-5.745832e-004
-4.599598e-006,-4.734545e-004
-3.238683e-004,-3.679500e-004
-1.271302e-003,-2.851347e-004
-2.422777e-003,-2.447804e-004
-3.272649e-003,-2.491561e-004
-3.516397e-003,-2.893484e-004
-3.189996e-003,-3.475298e-004
-2.571553e-003,-4.011734e-004
-1.897685e-003,-4.429862e-004
-1.286536e-003,-4.826922e-004
-8.060125e-004,-5.369841e-004
-4.995471e-004,-6.019723e-004
-3.274337e-004,-6.470265e-004
-1.161005e-004,-6.408680e-004
3.376824e-004,-5.634008e-004
1.094528e-003,-4.207833e-004
2.018951e-003,-2.329496e-004
2.855374e-003,-1.610624e-005
3.371880e-003,2.252090e-004
3.436545e-003,4.926169e-004
2.997182e-003,7.812555e-004
2.055092e-003,1.068273e-003
7.313393e-004,1.335682e-003
-6.724707e-004,1.582994e-003
-1.748584e-003,1.825120e-003
-2.261035e-003,2.072270e-003
-2.220033e-003,2.310508e-003
-1.834479e-003,2.499963e-003
-1.370324e-003,2.597851e-003
-1.053162e-003,2.573055e-003
-9.888222e-004,2.429140e-003
-1.101782e-003,2.198358e-003
-1.201452e-003,1.922360e-003
-1.126578e-003,1.632586e-003
-8.416669e-004,1.347512e-003
-4.405553e-004,1.083670e-003
-7.558420e-005,8.567779e-004
1.535762e-004,6.731578e-004
2.180782e-004,5.276231e-004
1.660552e-004,4.106118e-004
1.122495e-004,3.128864e-004
1.798307e-004,2.265056e-004
4.185530e-004,1.430419e-004
7.760693e-004,5.406805e-005
1.126941e-003,-4.544006e-005
1.339247e-003,-1.502963e-004
1.327092e-003,-2.488320e-004
1.099714e-003,-3.387782e-004
7.577559e-004,-4.199730e-004
4.167703e-004,-4.941989e-004
1.451488e-004,-5.646973e-004
-5.597430e-005,-6.326026e-004
-2.170672e-004,-6.933771e-004
-3.504470e-004,-7.462104e-004
-4.395829e-004,-7.831613e-004
-4.634065e-004,-7.962886e-004
-4.204592e-004,-7.847819e-004
-3.306750e-004,-7.569068e-004
-2.279256e-004,-7.253040e-004
-1.344139e-004,-7.009942e-004
-5.192267e-005,-6.860842e-004
3.316162e-005,-6.740913e-004
1.399627e-004,-6.525366e-004
2.872801e-004,-6.126686e-004
4.715484e-004,-5.601594e-004
6.653786e-004,-5.138087e-004
8.279303e-004,-4.940368e-004
9.243593e-004,-5.034366e-004
9.345694e-004,-5.317981e-004
8.481885e-004,-5.663179e-004
6.553305e-004,-5.954896e-004
3.781987e-004,-6.147755e-004
7.821578e-005,-6.176926e-004
-1.755785e-004,-6.026206e-004
-3.768636e-004,-5.728005e-004
-5.875485e-004,-5.324463e-004
-9.029275e-004,-4.909576e-004
-1.388799e-003,-4.570859e-004
-2.018585e-003,-4.311555e-004
-2.648534e-003,-4.027940e-004
-3.083518e-003,-3.663294e-004
-3.171520e-003,-3.269475e-004
-2.859868e-003,-2.922655e-004
-2.203340e-003,-2.669833e-004
-1.344069e-003,-2.473734e-004
-4.574101e-004,-2.295462e-004
2.910076e-004,-2.081536e-004
8.042688e-004,-1.749302e-004
1.069408e-003,-1.237176e-004
1.112193e-003,-5.451572e-005
9.617964e-004,2.505836e-005
6.370172e-004,1.005808e-004
1.945787e-004,1.610312e-004
-2.358668e-004,1.974959e-004
-5.202913e-004,2.166196e-004
-6.319543e-004,2.289366e-004
-6.358439e-004,2.438466e-004
-5.917621e-004,2.684805e-004
-5.165638e-004,3.093210e-004
-4.125180e-004,3.736609e-004
-2.802727e-004,4.647417e-004
-1.105903e-004,5.731634e-004
1.331559e-004,6.804507e-004
4.629590e-004,7.673178e-004
8.023240e-004,8.258235e-004
1.040074e-003,8.491609e-004
1.096311e-003,8.342508e-004
9.428347e-004,7.893587e-004
6.115729e-004,7.263153e-004
2.030061e-004,6.541961e-004
-1.216107e-004,5.872631e-004
-2.193361e-004,5.405883e-004
-3.166451e-005,5.178991e-004
4.143393e-004,5.091476e-004
1.028405e-003,4.990995e-004
1.673589e-003,4.817585e-004
2.116515e-003,4.597176e-004
2.066760e-003,4.339493e-004
1.402939e-003,4.106118e-004
3.581026e-004,3.918123e-004
-5.324463e-004,3.689610e-004
-7.964507e-004,3.294171e-004
-3.292164e-004,2.668598e-004
6.047662e-004,1.824238e-004
1.533726e-003,9.118101e-005
2.070002e-003,1.744129e-005
2.053633e-003,-2.226472e-005
1.557388e-003,-2.745081e-005
8.034584e-004,-1.351319e-005
3.494434e-005,-5.085794e-006
-6.400577e-004,-1.643037e-005
-1.283781e-003,-4.495386e-005
-1.929287e-003,-8.141856e-005
-2.496517e-003,-1.143178e-004
-2.912377e-003,-1.368449e-004
-3.136028e-003,-1.455964e-004
-3.085625e-003,-1.460826e-004
-2.662634e-003,-1.447861e-004
-1.832534e-003,-1.392759e-004
-6.899738e-004,-1.258245e-004
5.144958e-004,-1.109144e-004
1.453017e-003,-1.136696e-004
1.914094e-003,-1.460826e-004
1.825120e-003,-2.057227e-004
1.303755e-003,-2.758969e-004
6.409068e-004,-3.434782e-004
1.385041e-004,-4.104111e-004
-3.782299e-005,-4.839888e-004
1.201907e-004,-5.624284e-004
4.553419e-004,-6.287131e-004
6.456067e-004,-6.671225e-004
3.352514e-004,-6.706879e-004
-6.105618e-004,-6.387612e-004
-1.886178e-003,-5.750695e-004
-2.941225e-003,-4.896610e-004
-3.342014e-003,-3.987424e-004
-2.971693e-003,-3.162512e-004
-2.029120e-003,-2.475355e-004
-8.862348e-004,-1.919471e-004
1.104668e-004,-1.446240e-004
7.741245e-004,-1.000561e-004
1.119972e-003,-5.289507e-005
1.257566e-003,-5.479652e-007
1.298245e-003,5.228533e-005
1.309103e-003,1.049566e-004
1.314289e-003,1.621656e-004
1.310400e-003,2.239125e-004
1.285279e-003,2.817699e-004
1.239415e-003,3.253654e-004
1.185609e-003,3.488649e-004
1.139582e-003,3.545372e-004
1.116569e-003,3.472443e-004
1.121107e-003,3.300653e-004
1.140879e-003,3.046211e-004
1.153844e-003,2.717218e-004
1.136989e-003,2.372019e-004
1.067301e-003,2.047888e-004
9.447795e-004,1.809652e-004
7.888725e-004,1.735102e-004
6.334517e-004,1.864754e-004
5.182233e-004,2.216436e-004
4.602039e-004,2.772320e-004
4.728449e-004,3.425444e-004
6.018490e-004,4.054258e-004
9.170663e-004,4.613383e-004
1.452369e-003,5.146578e-004
2.167566e-003,5.796460e-004
2.952614e-003,6.729957e-004
3.646907e-003,7.961654e-004
4.089837e-003,9.245213e-004
4.159202e-003,1.025488e-003
3.773806e-003,1.070380e-003
2.938676e-003,1.040074e-003
1.770666e-003,9.282488e-004
4.786793e-004,7.478700e-004
-7.222248e-004,5.323229e-004
-1.721520e-003,3.193690e-004
-2.531199e-003,1.363972e-004
-3.215440e-003,-4.761664e-006
-3.878938e-003,-1.065387e-004
-4.545356e-003,-1.783336e-004
-4.967702e-003,-2.297083e-004
-4.967702e-003,-2.708729e-004
-4.375510e-003,-3.168994e-004
-2.969586e-003,-3.929081e-004
-1.109075e-003,-5.228845e-004
7.593766e-004,-6.977529e-004
2.148766e-003,-8.682456e-004
2.850512e-003,-9.787740e-004
2.867043e-003,-9.962771e-004
2.347945e-003,-9.235098e-004
1.518330e-003,-7.959644e-004
5.845079e-004,-6.559400e-004
-3.052308e-004,-5.376324e-004
-1.070017e-003,-4.556273e-004
-1.666417e-003,-4.052250e-004
-2.036575e-003,-3.695707e-004
-2.112097e-003,-3.335922e-004
-1.847606e-003,-2.945344e-004
-1.239537e-003,-2.664971e-004
-3.849669e-004,-2.767073e-004
4.527488e-004,-3.497987e-004
9.412141e-004,-4.792889e-004
8.995633e-004,-6.227166e-004
4.251977e-004,-7.244936e-004
-1.626133e-004,-7.450759e-004
-5.452494e-004,-6.794395e-004
-5.755557e-004,-5.528665e-004
-3.196545e-004,-4.034423e-004
-2.145439e-005,-2.601766e-004
1.371378e-005,-1.412206e-004
-3.622777e-004,-5.338126e-005
-9.967634e-004,9.338019e-006
-1.545679e-003,6.168512e-005
-1.708716e-003,1.133840e-004
-1.404195e-003,1.670276e-004
-7.949921e-004,2.133783e-004
-1.590478e-004,2.419018e-004
2.665357e-004,2.478982e-004
3.644232e-004,2.376881e-004
1.425557e-004,2.196988e-004
-3.000446e-004,2.033302e-004
-8.061745e-004,1.934442e-004
-1.211662e-003,1.961994e-004
-1.408247e-003,2.075439e-004
-1.393823e-003,2.227781e-004
-1.238079e-003,2.410915e-004
-1.008756e-003,2.654013e-004
-7.186593e-004,2.937627e-004
-3.439643e-004,3.232586e-004
1.221355e-004,3.517821e-004
6.397723e-004,3.794953e-004
1.140879e-003,4.093153e-004
1.576025e-003,4.404318e-004
1.967090e-003,4.696036e-004
2.395430e-003,4.905101e-004
2.890704e-003,4.994237e-004
3.350487e-003,4.955341e-004
3.620815e-003,4.825689e-004
3.642856e-003,4.687933e-004
3.517740e-003,4.566384e-004
3.393759e-003,4.469145e-004
3.319533e-003,4.365423e-004
3.205114e-003,4.190393e-004
2.881629e-003,3.838710e-004
2.215861e-003,3.311998e-004
1.240063e-003,2.759355e-004
1.842065e-004,2.339606e-004
-6.919185e-004,2.080301e-004
-1.280864e-003,1.845306e-004
-1.627846e-003,1.422316e-004
-1.866406e-003,7.189524e-005
-2.185999e-003,-1.075808e-005
-2.728919e-003,-7.671866e-005
-3.452218e-003,-1.024871e-004
-4.122037e-003,-8.271508e-005
-4.448926e-003,-2.939559e-005
-4.245856e-003,3.510641e-005
-3.478311e-003,9.604298e-005
-2.206906e-003,1.571416e-004
-5.540010e-004,2.302331e-004
1.197278e-003,3.324963e-004
2.603523e-003,4.691174e-004
3.325043e-003,6.212969e-004
3.150497e-003,7.538663e-004
2.075674e-003,8.324682e-004
2.934386e-004,8.399231e-004
-1.760415e-003,7.853071e-004
-3.540220e-003,7.020054e-004
-4.707746e-003,6.174073e-004
-4.967863e-003,5.324850e-004
-4.967863e-003,4.302217e-004
-4.967863e-003,2.820940e-004
-4.932695e-003,7.465034e-005
-4.583117e-003,-1.846542e-004
-3.804064e-003,-4.847991e-004
-2.579170e-003,-8.186536e-004
-1.136950e-003,-1.176818e-003
1.749688e-004,-1.538710e-003
1.064222e-003,-1.841934e-003
1.464038e-003,-1.996706e-003
1.491589e-003,-1.940632e-003
1.344271e-003,-1.678734e-003
1.206029e-003,-1.289615e-003
1.194523e-003,-8.765109e-004
1.349295e-003,-5.168880e-004
1.631776e-003,-2.357047e-004
1.960121e-003,-1.237873e-005
2.250705e-003,2.031682e-004
2.443564e-003,4.564763e-004
2.521194e-003,7.538663e-004
2.495101e-003,1.065356e-003
2.386192e-003,1.344595e-003
2.218292e-003,1.549446e-003
2.021220e-003,1.651386e-003
1.828199e-003,1.649927e-003
1.671644e-003,1.568732e-003
1.573918e-003,1.449290e-003
1.535184e-003,1.333089e-003
1.544098e-003,1.244277e-003
1.586073e-003,1.176533e-003
1.631452e-003,1.097445e-003
1.647658e-003,9.634171e-004
1.620431e-003,7.457631e-004
1.560629e-003,4.499937e-004
1.486889e-003,1.132219e-004
1.402128e-003,-2.078295e-004
1.281066e-003,-4.591928e-004
1.085452e-003,-6.087790e-004
7.926000e-004,-6.573986e-004
4.300596e-004,-6.324406e-004
7.059871e-005,-5.732867e-004
-1.682856e-004,-5.134846e-004
-1.616409e-004,-4.739407e-004
1.067393e-004,-4.565997e-004
4.773828e-004,-4.544929e-004
7.287462e-004,-4.582204e-004
7.765555e-004,-4.609755e-004
7.305289e-004,-4.583824e-004
7.611593e-004,-4.501171e-004
9.327867e-004,-4.321279e-004
1.147523e-003,-4.010113e-004
1.221101e-003,-3.593606e-004
9.997197e-004,-3.087962e-004
4.559901e-004,-2.546664e-004
-2.771934e-004,-2.049123e-004
-9.778016e-004,-1.605064e-004
-1.458812e-003,-1.175591e-004
-1.616177e-003,-7.704279e-005
-1.450384e-003,-3.976777e-005
-1.051866e-003,-9.461558e-006
-5.494631e-004,7.069105e-006
-4.787104e-005,9.500085e-006
4.321665e-004,-8.720959e-007
9.368383e-004,-1.983374e-005
1.477975e-003,-4.252288e-005
1.975031e-003,-7.023606e-005
2.281174e-003,-1.008664e-004
2.238713e-003,-1.334415e-004
1.736632e-003,-1.712027e-004
7.699109e-004,-2.261429e-004
-4.627582e-004,-3.073376e-004
-1.615367e-003,-4.134903e-004
-2.484848e-003,-5.279084e-004
-3.026633e-003,-6.285510e-004
-3.253039e-003,-6.940254e-004
-3.133921e-003,-7.144455e-004
-2.644158e-003,-6.974287e-004
-1.898819e-003,-6.650157e-004
-1.178438e-003,-6.402197e-004
-8.146020e-004,-6.373025e-004
-1.031283e-003,-6.539953e-004
-1.789263e-003,-6.680949e-004
-2.746584e-003,-6.492953e-004
-3.459674e-003,-5.792832e-004
-3.642322e-003,-4.531963e-004
-3.278322e-003,-2.857829e-004
-2.579656e-003,-1.067007e-004
-1.853441e-003,5.666109e-005
-1.348607e-003,1.840444e-004
-1.127712e-003,2.691288e-004
-1.067424e-003,3.159656e-004
-9.755327e-004,3.352514e-004
-7.034251e-004,3.410858e-004
-2.091260e-004,3.371962e-004
4.521006e-004,3.185587e-004
1.167782e-003,2.782044e-004
1.825444e-003,2.128921e-004
2.338869e-003,1.180839e-004
2.643229e-003,-5.896120e-006
2.677750e-003,-1.502963e-004
2.401751e-003,-3.034480e-004
1.848782e-003,-4.536825e-004
1.164378e-003,-5.917621e-004
5.752703e-004,-6.988873e-004
2.906835e-004,-7.538275e-004
4.034809e-004,-7.449139e-004
8.613158e-004,-6.881910e-004
1.499692e-003,-6.163961e-004
2.095770e-003,-5.493010e-004
2.402399e-003,-4.799371e-004
2.248598e-003,-3.898288e-004
1.667916e-003,-2.664971e-004
9.058838e-004,-1.016767e-004
3.268240e-004,1.104668e-004
2.102990e-004,3.610198e-004
5.867769e-004,6.219451e-004
1.245249e-003,8.583986e-004
1.921225e-003,1.039264e-003
2.484404e-003,1.152385e-003
2.931545e-003,1.204895e-003
3.266537e-003,1.218346e-003
3.442541e-003,1.203760e-003
3.350649e-003,1.155627e-003
2.861209e-003,1.056767e-003
1.894322e-003,9.066941e-004
4.592314e-004,7.289083e-004
-1.290588e-003,5.532294e-004
-3.080763e-003,4.051016e-004
-4.682626e-003,3.025142e-004
-4.967863e-003,2.542187e-004
-4.967702e-003,2.530843e-004
-4.967863e-003,2.931144e-004
-4.968025e-003,3.751195e-004
-3.858842e-003,5.010443e-004
-2.101077e-003,6.726716e-004
-3.506090e-004,8.812498e-004
1.196143e-003,1.105386e-003
2.448588e-003,1.310237e-003
3.344167e-003,1.463227e-003
3.674459e-003,1.546205e-003
3.176266e-003,1.568570e-003
1.807617e-003,1.551553e-003
-1.070249e-004,1.501151e-003
-1.994924e-003,1.404884e-003
-3.457080e-003,1.243953e-003
-4.352496e-003,1.009444e-003
-4.644864e-003,7.177258e-004
-4.336614e-003,4.075326e-004
-3.506673e-003,1.281319e-004
-2.285993e-003,-8.222889e-005
-8.381014e-004,-2.076674e-004
5.480433e-004,-2.648765e-004
1.469872e-003,-2.823795e-004
1.718643e-003,-2.891863e-004
1.359343e-003,-3.055549e-004
6.694303e-004,-3.438023e-004
6.420843e-006,-4.066836e-004
-3.496366e-004,-4.797751e-004
-2.942103e-004,-5.481666e-004
1.566554e-004,-5.993792e-004
9.212800e-004,-6.277406e-004
1.824958e-003,-6.363301e-004
2.574189e-003,-6.324406e-004
2.868177e-003,-6.191512e-004
2.598013e-003,-5.995413e-004
1.989779e-003,-5.781487e-004
1.447993e-003,-5.591870e-004
1.230015e-003,-5.454115e-004
1.301324e-003,-5.402254e-004
1.451396e-003,-5.450874e-004
1.474086e-003,-5.580526e-004
1.289979e-003,-5.726385e-004
9.613102e-004,-5.865761e-004
5.812666e-004,-6.005137e-004
1.855030e-004,-6.139652e-004
-2.206326e-004,-6.232028e-004
-6.272545e-004,-6.291993e-004
-1.015563e-003,-6.358439e-004
-1.362545e-003,-6.447575e-004
-1.657828e-003,-6.577228e-004
-1.944359e-003,-6.749016e-004
-2.353413e-003,-6.904599e-004
-2.993896e-003,-6.893255e-004
-3.781537e-003,-6.517263e-004
-4.437581e-003,-5.684248e-004
-4.667878e-003,-4.478482e-004
-4.350228e-003,-3.141443e-004
-3.584626e-003,-1.922712e-004
-2.586625e-003,-9.859748e-005
-1.556213e-003,-3.604027e-005
-6.129927e-004,6.258778e-006
2.020337e-004,3.948217e-005
8.807636e-004,7.059871e-005
1.420442e-003,1.062531e-004
1.823500e-003,1.432040e-004
2.107277e-003,1.743205e-004
2.293166e-003,1.927960e-004
2.371283e-003,1.976579e-004
2.295111e-003,1.924718e-004
2.039857e-003,1.895547e-004
1.661920e-003,1.944166e-004
1.270045e-003,2.023578e-004
9.622826e-004,2.043026e-004
8.028102e-004,1.921477e-004
8.032963e-004,1.564933e-004
9.337591e-004,9.442231e-005
1.154330e-003,1.274139e-005
1.448966e-003,-7.299116e-005
1.844568e-003,-1.418689e-004
2.380520e-003,-1.768750e-004
3.053257e-003,-1.737958e-004
3.762461e-003,-1.444620e-004
4.267300e-003,-1.000561e-004
4.299228e-003,-4.414354e-005
3.773968e-003,2.538249e-005
2.903508e-003,1.114392e-004
2.053633e-003,2.091646e-004
1.482351e-003,2.968419e-004
1.154168e-003,3.493511e-004
8.613158e-004,3.498373e-004
4.266563e-004,3.094830e-004
-1.321450e-004,2.598910e-004
-6.285510e-004,2.318537e-004
-8.700282e-004,2.337985e-004
-7.591756e-004,2.540567e-004
-3.031239e-004,2.681563e-004
3.089969e-004,2.532463e-004
6.968193e-004,2.046267e-004
5.131993e-004,1.406109e-004
-2.733039e-004,9.555677e-005
-1.279567e-003,9.215340e-005
-2.017289e-003,1.380179e-004
-2.238994e-003,2.252090e-004
-1.989252e-003,3.362238e-004
-1.499976e-003,4.490213e-004
-1.009080e-003,5.459364e-004
-6.395715e-004,6.200004e-004
-3.891806e-004,6.775336e-004
-1.914609e-004,7.360392e-004
-7.354709e-006,8.068618e-004
1.553589e-004,8.875704e-004
2.686426e-004,9.525587e-004
2.936006e-004,9.705480e-004
1.887444e-004,9.399176e-004
-5.597430e-005,8.872462e-004
-4.167317e-004,8.235546e-004
-8.377773e-004,7.389564e-004
-1.238727e-003,6.172452e-004
-1.536603e-003,4.678209e-004
-1.679707e-003,3.239069e-004
-1.669497e-003,2.201850e-004
-1.551675e-003,1.739964e-004
-1.387341e-003,1.744826e-004
-1.228517e-003,1.871237e-004
-1.093840e-003,1.876099e-004
-9.758569e-004,1.913374e-004
-8.497701e-004,2.337985e-004
-6.932151e-004,3.222862e-004
-5.027883e-004,4.114222e-004
-2.877277e-004,4.441593e-004
-4.057810e-005,3.892192e-004
2.441707e-004,2.733424e-004
5.430193e-004,1.461212e-004
7.987585e-004,4.094075e-005
9.449415e-004,-4.462973e-005
9.402417e-004,-1.383035e-004
7.875760e-004,-2.747625e-004
5.269747e-004,-4.734545e-004
2.156472e-004,-7.325969e-004
-7.623246e-005,-1.028204e-003
-2.588801e-004,-1.314087e-003
-2.689281e-004,-1.540817e-003
-1.008664e-004,-1.676789e-003
1.918236e-004,-1.726219e-003
5.123889e-004,-1.718116e-003
7.514353e-004,-1.691861e-003
8.480264e-004,-1.671603e-003
8.472161e-004,-1.647942e-003
8.793051e-004,-1.592840e-003
1.053363e-003,-1.484418e-003
1.371174e-003,-1.329970e-003
1.668889e-003,-1.163691e-003
1.704867e-003,-1.026259e-003
1.323203e-003,-9.421473e-004
5.903424e-004,-9.014689e-004
-2.238740e-004,-8.620871e-004
-8.342119e-004,-7.758683e-004
-1.145377e-003,-6.196374e-004
-1.285239e-003,-4.083043e-004
-1.451356e-003,-1.802784e-004
-1.679220e-003,2.878586e-005
-1.790883e-003,2.067336e-004
-1.582305e-003,3.579406e-004
-9.987081e-004,4.986133e-004
-1.600202e-004,6.396103e-004
7.102708e-004,7.729901e-004
1.357398e-003,8.750914e-004
1.616379e-003,9.237110e-004
1.453017e-003,9.113940e-004
9.352177e-004,8.407335e-004
1.976579e-004,7.193465e-004
-6.146134e-004,5.600362e-004
-1.363031e-003,3.827366e-004
-1.927342e-003,2.091646e-004
-2.232188e-003,6.006447e-005
-2.278863e-003,-5.451572e-005
-2.114852e-003,-1.334415e-004
-1.817462e-003,-1.788198e-004
-1.492683e-003,-1.862748e-004
-1.264495e-003,-1.486757e-004
-1.224303e-003,-5.727083e-005
-1.441633e-003,9.150514e-005
-1.971262e-003,2.900352e-004
-2.792286e-003,5.201680e-004
-3.684783e-003,7.522457e-004
-4.194644e-003,9.514242e-004
-3.794016e-003,1.088370e-003
-2.255363e-003,1.152548e-003
1.216493e-004,1.150279e-003
2.493804e-003,1.106359e-003
4.069902e-003,1.045260e-003
4.552539e-003,9.812443e-004
4.058396e-003,9.178767e-004
3.034458e-003,8.511057e-004
1.983783e-003,7.767176e-004
1.214133e-003,6.942263e-004
7.846588e-004,6.161107e-004
6.334517e-004,5.658705e-004
7.114052e-004,5.574431e-004
9.441312e-004,5.845079e-004
1.135855e-003,6.225934e-004
1.082049e-003,6.375034e-004
7.668316e-004,6.044420e-004
4.041292e-004,5.182233e-004
2.634565e-004,3.924605e-004
4.443214e-004,2.495189e-004
8.360335e-004,1.140322e-004
1.225801e-003,5.286387e-006
1.444428e-003,-6.910160e-005
1.435838e-003,-1.104282e-004
1.242008e-003,-1.263107e-004
9.216042e-004,-1.271210e-004
5.034753e-004,-1.242038e-004
4.638125e-006,-1.272830e-004
-5.120260e-004,-1.379794e-004
-9.066550e-004,-1.556445e-004
-9.849326e-004,-1.765509e-004
-6.316302e-004,-1.937298e-004
6.849186e-005,-2.047502e-004
8.494850e-004,-2.131776e-004
1.418011e-003,-2.209568e-004
1.584128e-003,-2.272773e-004
1.309751e-003,-2.266291e-004
7.107570e-004,-2.113949e-004
1.209313e-005,-1.818991e-004
-5.593491e-004,-1.452723e-004
-8.902864e-004,-1.094559e-004
-9.978978e-004,-8.060823e-005
-9.620814e-004,-6.569822e-005
-8.680834e-004,-6.213279e-005
-7.554481e-004,-6.213279e-005
-5.953276e-004,-6.002594e-005
-3.326198e-004,-5.791909e-005
3.218923e-005,-6.083626e-005
4.295735e-004,-6.942573e-005
7.674799e-004,-8.141856e-005
9.950198e-004,-8.579432e-005
1.116569e-003,-7.671866e-005
1.155789e-003,-4.689865e-005
1.055470e-003,-1.196227e-006
6.841783e-004,4.612685e-005
1.387585e-005,7.853991e-005
-7.573929e-004,8.129502e-005
-1.322028e-003,4.580272e-005
-1.481501e-003,-2.339918e-005
-1.240347e-003,-1.133454e-004
-7.898060e-004,-2.096122e-004
-3.553089e-004,-2.927517e-004
-4.317115e-005,-3.436402e-004
2.021958e-004,-3.465574e-004
5.060683e-004,-3.055549e-004
9.543414e-004,-2.436459e-004
1.571811e-003,-1.859507e-004
2.303377e-003,-1.404103e-004
2.990538e-003,-9.649064e-005
3.410938e-003,-3.377136e-005
3.362480e-003,5.568870e-005
2.746142e-003,1.707551e-004
1.613138e-003,3.062417e-004
1.135460e-004,4.538833e-004
-1.453301e-003,5.977973e-004
-2.737832e-003,7.149707e-004
-3.499218e-003,7.812555e-004
-3.679597e-003,7.877381e-004
-3.439415e-003,7.430080e-004
-3.034089e-003,6.686199e-004
-2.651775e-003,5.853184e-004
-2.360381e-003,4.981271e-004
-2.147913e-003,3.950536e-004
-2.009023e-003,2.509774e-004
-1.982445e-003,4.693717e-005
-2.084060e-003,-2.113949e-004
-2.248880e-003,-4.836646e-004
-2.344823e-003,-7.123387e-004
-2.228622e-003,-8.547941e-004
-1.873375e-003,-8.956346e-004
-1.381992e-003,-8.492839e-004
-8.693800e-004,-7.488034e-004
-3.791325e-004,-6.287131e-004
1.200286e-004,-5.159156e-004
6.833679e-004,-4.243487e-004
1.327578e-003,-3.527159e-004
1.990265e-003,-2.906449e-004
2.568517e-003,-2.316531e-004
2.971576e-003,-1.783336e-004
3.163138e-003,-1.363587e-004
3.166542e-003,-1.078352e-004
2.970927e-003,-9.373552e-005
2.480353e-003,-9.713889e-005
1.635503e-003,-1.212866e-004
6.208107e-004,-1.676373e-004
-1.387897e-004,-2.335979e-004
-2.700626e-004,-3.070135e-004
2.843629e-004,-3.718396e-004
1.256432e-003,-4.141386e-004
2.238550e-003,-4.235384e-004
2.889732e-003,-3.998769e-004
3.053095e-003,-3.575778e-004
2.781472e-003,-3.138202e-004
2.261888e-003,-2.767073e-004
1.688337e-003,-2.483458e-004
1.146551e-003,-2.250084e-004
5.877494e-004,-2.052365e-004
-8.465986e-005,-1.864369e-004
-8.979035e-004,-1.677994e-004
-1.740643e-003,-1.431655e-004
-2.400574e-003,-1.104282e-004
-2.697964e-003,-7.558420e-005
-2.594891e-003,-3.911951e-005
-2.202530e-003,1.002961e-007
-1.705151e-003,4.337174e-005
-1.255095e-003,9.782569e-005
-9.061688e-004,1.652449e-004
-6.314681e-004,2.470879e-004
-3.737844e-004,3.412479e-004
-1.015147e-004,4.454559e-004
1.637863e-004,5.512846e-004
3.658818e-004,6.423654e-004
4.639314e-004,6.982779e-004
4.657141e-004,7.135121e-004
4.086671e-004,6.921195e-004
3.365480e-004,6.527375e-004
2.874421e-004,6.242140e-004
2.877662e-004,6.282657e-004
3.247172e-004,6.632718e-004
3.652335e-004,7.118915e-004
4.120704e-004,7.517595e-004
4.990995e-004,7.637524e-004
6.447964e-004,7.357151e-004
8.546711e-004,6.614891e-004
1.113976e-003,5.423710e-004
1.385112e-003,3.916502e-004
1.623186e-003,2.302331e-004
1.781848e-003,8.810177e-005
1.804052e-003,-5.896120e-006
1.640689e-003,-4.722278e-005
1.315586e-003,-5.273300e-005
8.972943e-004,-4.770897e-005
4.065602e-004,-4.706071e-005
-1.699062e-004,-4.900550e-005
-7.789475e-004,-4.949169e-005
-1.274543e-003,-4.446767e-005
-1.519262e-003,-3.004385e-005
-1.478584e-003,1.002961e-007
-1.227382e-003,4.871989e-005
-9.079515e-004,1.174356e-004
-6.402197e-004,2.023578e-004
-4.212695e-004,2.939248e-004
-1.660166e-004,3.794953e-004
1.339663e-004,4.525868e-004
3.503235e-004,5.096338e-004
3.506476e-004,5.438296e-004
1.195424e-004,5.365367e-004
-2.989102e-004,4.768966e-004
-8.975794e-004,3.639370e-004
-1.621201e-003,2.115956e-004
-2.288586e-003,3.462021e-005
-2.670089e-003,-1.515928e-004
-2.598132e-003,-3.285682e-004
-2.043057e-003,-4.784786e-004
-1.076337e-003,-5.917621e-004
1.916615e-004,-6.676087e-004
1.566787e-003,-7.134732e-004
2.815020e-003,-7.407002e-004
3.718541e-003,-7.577171e-004
4.096319e-003,-7.724650e-004
3.856298e-003,-7.881853e-004
3.002368e-003,-8.019609e-004
1.618810e-003,-8.032574e-004
-1.347380e-004,-7.864026e-004
-1.925722e-003,-7.465345e-004
-3.362758e-003,-6.836532e-004
-4.176816e-003,-5.998655e-004
-4.289452e-003,-4.954954e-004
-3.890607e-003,-3.690845e-004
-3.335369e-003,-2.305186e-004
-2.932473e-003,-9.697683e-005
-2.774945e-003,1.338965e-005
-2.679651e-003,8.777764e-005
-2.373833e-003,1.229458e-004
-1.731892e-003,1.197045e-004
-8.453943e-004,8.340187e-005
4.920609e-005,2.278944e-005
7.086502e-004,-4.787104e-005
1.052391e-003,-1.058904e-004
1.170375e-003,-1.267968e-004
1.172806e-003,-9.973194e-005
1.091125e-003,-3.798505e-005
8.859497e-004,4.110282e-005
4.978030e-004,1.213252e-004
-8.968389e-005,1.921477e-004
-7.928851e-004,2.427121e-004
-1.452167e-003,2.707494e-004
-1.899467e-003,2.796630e-004
-2.015830e-003,2.748010e-004
-1.794449e-003,2.581083e-004
-1.358007e-003,2.316917e-004
-8.852624e-004,2.020337e-004
-4.726442e-004,1.804790e-004
-8.255302e-005,1.754550e-004
3.606957e-004,1.953890e-004
8.823843e-004,2.303951e-004
1.440538e-003,2.530843e-004
1.943266e-003,2.336365e-004
2.296732e-003,1.509831e-004
2.443888e-003,5.610517e-006
2.378576e-003,-1.797922e-004
2.138393e-003,-3.695707e-004
1.803241e-003,-5.280706e-004
1.498234e-003,-6.238511e-004
1.341354e-003,-6.432990e-004
1.380574e-003,-5.896553e-004
1.567922e-003,-4.822060e-004
1.772125e-003,-3.361852e-004
1.846999e-003,-1.600202e-004
1.715239e-003,4.531652e-005
1.402939e-003,2.765838e-004
1.029864e-003,5.209784e-004
7.451148e-004,7.575939e-004
6.652166e-004,9.716824e-004
8.284165e-004,1.149468e-003
1.183502e-003,1.275555e-003
1.620917e-003,1.338599e-003
2.012630e-003,1.335195e-003
2.249247e-003,1.269559e-003
2.257836e-003,1.152710e-003
2.017330e-003,9.938853e-004
1.546043e-003,7.960034e-004
8.611537e-004,5.686256e-004
3.672706e-005,3.302274e-004
-7.578791e-004,1.004187e-004
-1.362707e-003,-9.697683e-005
-1.734161e-003,-2.420253e-004
-1.929773e-003,-3.180339e-004
-2.027985e-003,-3.165753e-004
-2.082601e-003,-2.350565e-004
-2.124576e-003,-9.098041e-005
-2.189727e-003,8.421220e-005
-2.290207e-003,2.621599e-004
-2.332830e-003,4.232529e-004
-2.138190e-003,5.533914e-004
-1.567557e-003,6.486859e-004
-6.063480e-004,7.120535e-004
6.221072e-004,7.481941e-004
1.866771e-003,7.546768e-004
2.869150e-003,7.169155e-004
3.443514e-003,6.159487e-004
3.543023e-003,4.402698e-004
3.251627e-003,1.961994e-004
2.727342e-003,-8.854943e-005
2.119108e-003,-3.737844e-004
1.555443e-003,-6.199615e-004
1.123700e-003,-7.974231e-004
7.648868e-004,-8.925553e-004
2.407673e-004,-9.128135e-004
-6.246614e-004,-8.766730e-004
-1.663662e-003,-8.001782e-004
-2.458917e-003,-6.974287e-004
-2.688402e-003,-5.846313e-004
-2.366054e-003,-4.770200e-004
-1.822972e-003,-3.817256e-004
-1.442443e-003,-2.982619e-004
-1.358169e-003,-2.203085e-004
-1.448926e-003,-1.489998e-004
-1.541627e-003,-9.049421e-005
-1.549082e-003,-5.370539e-005
-1.457191e-003,-3.863332e-005
-1.281674e-003,-3.490581e-005
-1.067586e-003,-3.458168e-005
-8.737558e-004,-3.231277e-005
-7.173628e-004,-2.453363e-005
-5.488148e-004,-8.002969e-006
-3.013411e-004,2.489629e-005
2.667901e-005,7.935024e-005
3.417340e-004,1.480659e-004
5.084993e-004,2.149989e-004
4.556660e-004,2.662116e-004
2.302331e-004,2.927903e-004
-3.506788e-005,2.895490e-004
-2.070192e-004,2.589186e-004
-2.097743e-004,2.161334e-004
-3.911951e-005,1.735102e-004
2.566497e-004,1.402868e-004
6.154625e-004,1.159770e-004
9.804339e-004,9.490851e-005
1.295327e-003,7.059871e-005
1.485106e-003,3.607880e-005
1.478786e-003,-7.354709e-006
1.267128e-003,-5.030202e-005
9.185249e-004,-7.477388e-005
5.412365e-004,-6.845333e-005
2.469258e-004,-3.847125e-005
1.067393e-004,-6.058186e-006
1.153287e-004,4.244267e-007
2.078681e-004,-2.485776e-005
3.320101e-004,-6.423963e-005
4.994237e-004,-9.243900e-005
6.823955e-004,-1.000561e-004
7.363633e-004,-9.470791e-005
5.073649e-004,-9.519411e-005
2.068259e-005,-1.212866e-004
-4.841508e-004,-1.904885e-004
-7.413484e-004,-3.147926e-004
-6.432990e-004,-4.924161e-004
-2.394322e-004,-7.100698e-004
3.363859e-004,-9.479817e-004
9.016701e-004,-1.178114e-003
1.268262e-003,-1.361734e-003
1.357236e-003,-1.459622e-003
1.274421e-003,-1.450708e-003
1.241522e-003,-1.339693e-003
1.396456e-003,-1.148456e-003
1.634531e-003,-8.953104e-004
1.688661e-003,-5.890070e-004
1.346540e-003,-2.352185e-004
5.569569e-004,1.487142e-004
-6.018102e-004,5.276231e-004
-1.957487e-003,8.627744e-004
-3.328724e-003,1.128886e-003
-4.471291e-003,1.319799e-003
-4.967863e-003,1.442807e-003
-4.967863e-003,1.504230e-003
-4.317652e-003,1.504392e-003
-3.198909e-003,1.446372e-003
-1.981148e-003,1.337140e-003
-9.189720e-004,1.193550e-003
-1.643960e-004,1.033916e-003
2.641047e-004,8.690950e-004
4.439973e-004,6.964952e-004
4.767345e-004,5.073649e-004
4.718725e-004,3.015418e-004
5.172509e-004,9.750156e-005
6.587339e-004,-7.218083e-005
9.282488e-004,-1.771992e-004
1.361450e-003,-2.083157e-004
1.944887e-003,-1.831956e-004
2.623781e-003,-1.272830e-004
3.325043e-003,-6.553616e-005
3.949811e-003,-1.659243e-005
4.390310e-003,1.144487e-005
4.540384e-003,1.776542e-005
4.326131e-003,1.371378e-005
3.730858e-003,5.448452e-006
2.812427e-003,-2.654814e-006
1.712484e-003,-8.327101e-006
6.404206e-004,-9.299493e-006
-2.541802e-004,-8.651231e-006
-1.021073e-003,-9.785688e-006
-1.910974e-003,-1.610624e-005
-3.087084e-003,-2.599222e-005
-4.424130e-003,-3.312309e-005
-4.967863e-003,-3.020592e-005
-4.967863e-003,-1.367526e-005
-4.967702e-003,1.630683e-005
-4.967702e-003,5.196120e-005
-4.967863e-003,8.356394e-005
-4.401602e-003,1.026876e-004
-3.418347e-003,1.103047e-004
-2.582412e-003,1.070634e-004
-1.885530e-003,9.701536e-005
-1.248775e-003,8.761557e-005
-6.290372e-004,8.016057e-005
-4.576419e-005,7.286763e-005
4.637693e-004,6.379197e-005
8.927565e-004,5.212327e-005
1.272476e-003,4.077869e-005
1.643606e-003,3.316162e-005
2.023975e-003,2.878586e-005
2.397375e-003,2.262738e-005
2.730097e-003,1.387585e-005
3.001558e-003,1.112074e-005
3.183397e-003,2.165498e-005
3.212893e-003,4.175109e-005
3.021168e-003,6.638502e-005
2.592827e-003,8.907416e-005
1.989941e-003,1.051186e-004
1.322392e-003,1.130598e-004
7.055709e-004,1.159770e-004
2.078681e-004,1.073875e-004
-2.216050e-004,7.335383e-005
-6.975908e-004,-1.196227e-006
-1.256878e-003,-1.222590e-004
-1.779377e-003,-2.820554e-004
-2.058940e-003,-4.684305e-004
-1.966562e-003,-6.757120e-004
-1.539520e-003,-9.026034e-004
-9.197823e-004,-1.141001e-003
-2.217671e-004,-1.369027e-003
5.230852e-004,-1.559130e-003
1.328065e-003,-1.682786e-003
2.180369e-003,-1.717306e-003
2.991996e-003,-1.638218e-003
3.627135e-003,-1.432557e-003
3.961966e-003,-1.113450e-003
3.927932e-003,-7.149318e-004
3.517902e-003,-2.708729e-004
2.793789e-003,1.937684e-004
1.868554e-003,6.603546e-004
8.464058e-004,1.111545e-003
-2.000504e-004,1.531457e-003
-1.157046e-003,1.891891e-003
-1.837882e-003,2.162379e-003
-2.071095e-003,2.317962e-003
-1.810007e-003,2.351672e-003
-1.170497e-003,2.273881e-003
-3.909633e-004,2.103873e-003
2.652392e-004,1.863854e-003
6.183797e-004,1.568408e-003
6.279415e-004,1.214781e-003
3.679886e-004,8.042688e-004
-1.173047e-005,3.629646e-004
-3.444506e-004,-5.775702e-005
-5.040849e-004,-4.074939e-004
-4.486585e-004,-6.630709e-004
-2.175534e-004,-8.282154e-004
1.098185e-004,-9.152445e-004
4.454559e-004,-9.356647e-004
7.224257e-004,-9.043861e-004
9.104217e-004,-8.384255e-004
1.001016e-003,-7.543136e-004
9.859442e-004,-6.658260e-004
8.627744e-004,-5.784728e-004
6.391241e-004,-4.862577e-004
3.478926e-004,-3.865875e-004
4.434413e-005,-2.818933e-004
-2.175534e-004,-1.752544e-004
-4.008493e-004,-7.299116e-005
-4.917679e-004,1.808955e-005
-5.035987e-004,9.150514e-005
-4.645409e-004,1.415833e-004
-3.966356e-004,1.680000e-004
-3.113892e-004,1.788584e-004
-2.107467e-004,1.877720e-004
-9.908367e-005,2.099749e-004
1.095867e-005,2.457913e-004
9.539470e-005,2.809595e-004
1.250527e-004,2.989488e-004
9.539470e-005,2.838767e-004
3.008238e-005,2.276400e-004
-3.490581e-005,1.383420e-004
-6.715681e-005,4.207521e-005
-4.511593e-005,-3.134038e-005
3.672706e-005,-5.986387e-005
1.709172e-004,-4.122636e-005
3.297412e-004,1.338965e-005
4.812723e-004,8.340187e-005
5.987698e-004,1.519555e-004
6.799645e-004,2.091646e-004
7.605111e-004,2.462775e-004
9.175525e-004,2.611876e-004
1.235039e-003,2.574601e-004
1.739225e-003,2.407673e-004
2.281984e-003,2.162954e-004
2.584886e-003,1.851789e-004
2.426061e-003,1.459591e-004
1.770504e-003,1.010670e-004
7.945448e-004,5.617490e-005
-2.086398e-004,1.971020e-005
-1.000653e-003,-6.176923e-008
-1.570637e-003,-1.196227e-006
-2.083411e-003,2.045080e-006
-2.669603e-003,-1.189254e-005
-3.227433e-003,-5.727083e-005
-3.503755e-003,-1.319829e-004
-3.354493e-003,-2.151224e-004
-2.871698e-003,-2.794623e-004
-2.275621e-003,-3.065273e-004
-1.723626e-003,-2.984240e-004
-1.264819e-003,-2.703867e-004
-9.322613e-004,-2.447804e-004
-7.844578e-004,-2.420253e-004
-8.504183e-004,-2.700626e-004
-1.084441e-003,-3.198166e-004
-1.387017e-003,-3.726499e-004
-1.616825e-003,-4.083043e-004
-1.658152e-003,-4.138145e-004
-1.576795e-003,-3.940425e-004
-1.618446e-003,-3.616295e-004
-1.947763e-003,-3.230579e-004
-2.435904e-003,-2.703867e-004
-2.743991e-003,-1.938919e-004
-2.560046e-003,-8.887356e-005
-1.790235e-003,3.559260e-005
-6.008379e-004,1.657311e-004
6.721854e-004,2.840388e-004
1.695305e-003,3.781987e-004
2.273070e-003,4.436732e-004
2.312290e-003,4.827309e-004
1.864340e-003,5.042856e-004
1.130507e-003,5.230852e-004
3.187208e-004,5.491778e-004
-4.397449e-004,5.807805e-004
-1.121067e-003,5.966629e-004
-1.752798e-003,5.694359e-004
-2.259415e-003,4.815964e-004
-2.465400e-003,3.381686e-004
-2.215009e-003,1.633001e-004
-1.461081e-003,-8.002969e-006
-3.027998e-004,-1.459206e-004
1.022085e-003,-2.405667e-004
2.232554e-003,-2.982619e-004
3.157790e-003,-3.321336e-004
3.719351e-003,-3.527159e-004
3.922584e-003,-3.681121e-004
3.873477e-003,-3.812394e-004
3.723241e-003,-3.903150e-004
3.574788e-003,-3.885323e-004
3.443027e-003,-3.673017e-004
3.321639e-003,-3.194925e-004
3.236230e-003,-2.475355e-004
3.220996e-003,-1.554824e-004
3.255354e-003,-5.824322e-005
3.276747e-003,3.267542e-005
3.214351e-003,1.103047e-004
2.986000e-003,1.751309e-004
2.539669e-003,2.399570e-004
1.903074e-003,3.132105e-004
1.195657e-003,3.919743e-004
5.558224e-004,4.683071e-004
5.423012e-005,5.285954e-004
-3.462333e-004,5.563086e-004
-7.395657e-004,5.423710e-004
-1.154615e-003,4.864584e-004
-1.554592e-003,3.971604e-004
-1.903033e-003,2.775562e-004
-2.205285e-003,1.221355e-004
-2.476583e-003,-7.282909e-005
-2.718546e-003,-2.971275e-004
-2.890336e-003,-5.227224e-004
-2.884177e-003,-7.108802e-004
-2.622442e-003,-8.274051e-004
-2.143376e-003,-8.585216e-004
-1.612125e-003,-8.152502e-004
-1.242940e-003,-7.219006e-004
-1.210689e-003,-6.029447e-004
-1.551675e-003,-4.612996e-004
-2.114690e-003,-2.843243e-004
-2.621145e-003,-5.224680e-005
-2.819838e-003,2.402811e-004
-2.620497e-003,5.700842e-004
-2.092649e-003,8.981046e-004
-1.397551e-003,1.178478e-003
-7.003459e-004,1.372957e-003
-1.092938e-004,1.472465e-003
3.363859e-004,1.499044e-003
6.405826e-004,1.484458e-003
8.284165e-004,1.441348e-003
9.305178e-004,1.358695e-003
9.739513e-004,1.218508e-003
9.758961e-004,1.014306e-003
9.473725e-004,7.603490e-004
9.011839e-004,4.942376e-004
8.455954e-004,2.602152e-004
7.893587e-004,8.972242e-005
7.457631e-004,-1.367526e-005
7.272876e-004,-6.910160e-005
7.412253e-004,-1.005423e-004
8.005413e-004,-1.269589e-004
9.160939e-004,-1.590478e-004
1.080590e-003,-2.047502e-004
1.264535e-003,-2.639041e-004
1.427411e-003,-3.331060e-004
1.524974e-003,-4.100870e-004
1.542477e-003,-4.904714e-004
1.517357e-003,-5.687489e-004
1.504230e-003,-6.356818e-004
1.530647e-003,-6.890013e-004
1.589152e-003,-7.340555e-004
1.642796e-003,-7.753822e-004
1.645227e-003,-8.175191e-004
1.572460e-003,-8.569010e-004
1.418821e-003,-8.825073e-004
1.188850e-003,-8.836418e-004
8.937289e-004,-8.581975e-004
5.742979e-004,-8.077952e-004
2.908455e-004,-7.324349e-004
2.505836e-005,-6.353577e-004
-3.809152e-004,-5.275843e-004
-1.117664e-003,-4.177041e-004
-2.184216e-003,-3.073376e-004
-3.329372e-003,-1.974573e-004
-4.192051e-003,-8.838737e-005
-4.518615e-003,1.873781e-005
-4.270167e-003,1.177597e-004
-3.582195e-003,1.984683e-004
-2.655017e-003,2.522740e-004
-1.674683e-003,2.780424e-004
-7.734374e-004,2.791768e-004
9.106227e-007,2.628082e-004
6.731578e-004,2.331503e-004
1.273935e-003,1.965235e-004
1.774393e-003,1.595726e-004
2.081670e-003,1.321835e-004
2.082481e-003,1.192183e-004
1.744735e-003,1.239182e-004
1.193064e-003,1.419075e-004
6.567892e-004,1.642725e-004
3.752816e-004,1.816135e-004
5.002340e-004,1.897167e-004
1.041857e-003,1.887444e-004
1.813938e-003,1.866375e-004
2.442105e-003,1.879340e-004
2.579375e-003,1.919856e-004
2.164972e-003,1.947408e-004
1.485268e-003,1.955511e-004
9.582310e-004,1.914995e-004
8.528884e-004,1.811273e-004
1.133910e-003,1.642725e-004
1.490130e-003,1.422316e-004
1.508606e-003,1.200286e-004
9.298695e-004,9.912221e-005
-1.536997e-004,8.615699e-005
-1.356710e-003,8.178122e-005
-2.273190e-003,8.696731e-005
-2.729891e-003,9.993253e-005
-2.799255e-003,1.140322e-004
-2.692778e-003,1.253768e-004
-2.610935e-003,1.334801e-004
-2.620335e-003,1.404489e-004
-2.631679e-003,1.470936e-004
-2.499110e-003,1.582761e-004
-2.143214e-003,1.691344e-004
-1.588626e-003,1.714034e-004
-9.325854e-004,1.573037e-004
-3.024756e-004,1.279698e-004
1.782101e-004,9.182927e-005
4.206599e-004,6.184718e-005
4.089912e-004,5.098881e-005
2.167816e-004,6.460230e-005
-1.902341e-005,9.717743e-005
-1.669890e-004,1.347766e-004
-1.648822e-004,1.680000e-004
-2.939559e-005,1.893926e-004
1.748067e-004,1.869616e-004
3.757678e-004,1.521176e-004
5.435055e-004,8.842590e-005
6.854748e-004,9.662150e-006
8.092928e-004,-6.278104e-005
9.029666e-004,-1.183694e-004
9.410520e-004,-1.592099e-004
9.071803e-004,-1.914609e-004
8.008654e-004,-2.186879e-004
6.409068e-004,-2.394322e-004
4.608521e-004,-2.535319e-004
3.010556e-004,-2.580697e-004
2.034923e-004,-2.476975e-004
1.846927e-004,-2.194982e-004
2.318537e-004,-1.788198e-004
3.159656e-004,-1.374932e-004
4.141773e-004,-1.036215e-004
5.217887e-004,-7.493595e-005
6.496583e-004,-4.527799e-005
8.036205e-004,-1.092015e-005
9.755720e-004,2.781346e-005
1.135693e-003,6.573675e-005
1.236984e-003,9.539470e-005
1.252866e-003,1.093323e-004
1.200681e-003,1.034980e-004
1.118190e-003,7.789165e-005
1.024192e-003,4.385793e-005
9.220903e-004,1.711715e-005
8.050791e-004,2.369211e-006
6.579236e-004,-2.168618e-006
4.640934e-004,2.693341e-006
2.030061e-004,1.371378e-005
-1.378173e-004,1.971020e-005
-5.400634e-004,2.149292e-005
-9.523575e-004,2.457216e-005
-1.311494e-003,3.251336e-005
-1.597864e-003,4.304761e-005
-1.851496e-003,5.536457e-005
-2.130897e-003,7.367795e-005
-2.404139e-003,1.009049e-004
-2.531847e-003,1.388282e-004
-2.372050e-003,1.859892e-004
-1.888123e-003,2.397949e-004
-1.167580e-003,2.986247e-004
-3.619536e-004,3.553475e-004
3.846814e-004,4.008879e-004
9.880509e-004,4.273046e-004
1.424332e-003,4.339493e-004
1.692550e-003,4.289252e-004
1.831927e-003,4.182289e-004
1.902426e-003,4.026706e-004
1.940835e-003,3.820883e-004
1.935487e-003,3.574544e-004
1.851861e-003,3.323342e-004
1.678289e-003,3.094830e-004
1.434542e-003,2.843629e-004
1.164865e-003,2.556773e-004
9.222524e-004,2.276400e-004
7.420356e-004,2.023578e-004
6.326414e-004,1.824238e-004
5.890459e-004,1.644345e-004
6.221072e-004,1.443384e-004
7.271256e-004,1.214872e-004
8.117238e-004,1.000946e-004
6.469032e-004,8.194328e-005
-4.761664e-006,6.897806e-005
-1.150887e-003,5.957827e-005
-2.541247e-003,5.179914e-005
-3.823350e-003,4.709924e-005
-4.715201e-003,5.131294e-005
-4.967702e-003,6.589881e-005
-4.967863e-003,8.275361e-005
-4.682464e-003,9.134307e-005
-4.257039e-003,8.210535e-005
-3.903735e-003,5.325772e-005
-3.639081e-003,1.063454e-005
-3.395333e-003,-3.749886e-005
-3.070553e-003,-8.822530e-005
-2.552591e-003,-1.428413e-004
-1.777270e-003,-2.021572e-004
-7.719788e-004,-2.617972e-004
3.430306e-004,-3.134961e-004
1.386084e-003,-3.504470e-004
2.220399e-003,-3.757291e-004
2.815506e-003,-3.927460e-004
3.217755e-003,-4.078181e-004
3.501534e-003,-4.249970e-004
3.722269e-003,-4.429862e-004
3.882067e-003,-4.506033e-004
3.924528e-003,-4.316416e-004
3.755979e-003,-3.848048e-004
3.322450e-003,-3.191683e-004
2.675319e-003,-2.528836e-004
1.975031e-003,-1.994021e-004
1.400346e-003,-1.559686e-004
1.055956e-003,-1.164247e-004
9.334349e-004,-7.428769e-005
9.323005e-004,-3.150244e-005
9.107458e-004,6.907040e-006
7.410632e-004,3.688912e-005
3.744712e-004,5.617490e-005
-1.394379e-004,6.006447e-005
-6.870566e-004,4.547859e-005
-1.124471e-003,2.003433e-005
-1.326890e-003,-1.335113e-005
-1.221062e-003,-6.521203e-005
-8.103882e-004,-1.512687e-004
-1.841680e-004,-2.827037e-004
5.128751e-004,-4.591928e-004
1.129048e-003,-6.632329e-004
1.561925e-003,-8.672731e-004
1.771152e-003,-1.032094e-003
1.788169e-003,-1.127874e-003
1.683475e-003,-1.147808e-003
1.517033e-003,-1.109399e-003
1.308779e-003,-1.043438e-003
1.063411e-003,-9.703467e-004
7.945448e-004,-8.769971e-004
5.488536e-004,-7.324349e-004
4.085050e-004,-5.142950e-004
4.474007e-004,-2.220912e-004
6.423654e-004,1.271595e-004
8.621261e-004,5.049339e-004
9.525587e-004,8.820602e-004
8.381404e-004,1.236984e-003
5.858046e-004,1.565653e-003
3.383307e-004,1.876981e-003
1.955511e-004,2.167079e-003
1.628139e-004,2.410178e-003
2.036544e-004,2.569976e-003
3.214759e-004,2.619243e-003
5.216266e-004,2.548907e-003
6.982779e-004,2.369013e-003
6.835299e-004,2.105008e-003
3.777126e-004,1.789628e-003
-2.081536e-004,1.454152e-003
-9.852567e-004,1.129534e-003
-1.827510e-003,8.417058e-004
-2.573822e-003,5.948802e-004
-3.080439e-003,3.799815e-004
-3.289342e-003,1.902029e-004
-3.219816e-003,2.829966e-005
-2.948032e-003,-9.341139e-005
-2.589056e-003,-1.686097e-004
-2.240939e-003,-2.047502e-004
-1.906274e-003,-2.198223e-004
-1.459622e-003,-2.374874e-004
-7.723029e-004,-2.686040e-004
1.120874e-004,-3.123616e-004
9.169042e-004,-3.647087e-004
1.310400e-003,-4.196489e-004
1.124996e-003,-4.668098e-004
4.765725e-004,-4.959816e-004
-2.859450e-004,-5.048952e-004
-8.168708e-004,-5.003574e-004
-9.815291e-004,-4.878783e-004
-8.577113e-004,-4.745890e-004
-6.235270e-004,-4.700511e-004
-4.264556e-004,-4.813957e-004
-3.165753e-004,-5.113778e-004
-2.718453e-004,-5.518941e-004
-2.504527e-004,-5.935449e-004
-2.162569e-004,-6.330888e-004
-1.413827e-004,-6.630709e-004
3.154097e-005,-6.820326e-004
3.647473e-004,-6.948357e-004
8.408955e-004,-7.092595e-004
1.335195e-003,-7.269246e-004
1.681368e-003,-7.419967e-004
1.758997e-003,-7.460483e-004
1.543774e-003,-7.351899e-004
1.100038e-003,-7.076389e-004
5.357263e-004,-6.617744e-004
-3.522994e-005,-5.987309e-004
-5.194810e-004,-5.266119e-004
-8.502563e-004,-4.535205e-004
-9.859049e-004,-3.839945e-004
-9.254546e-004,-3.149546e-004
-7.105560e-004,-2.428356e-004
-4.036044e-004,-1.658546e-004
-7.769106e-005,-8.757704e-005
1.934442e-004,-1.691656e-005
3.608578e-004,2.992031e-005
4.239012e-004,4.547859e-005
4.320045e-004,3.105477e-005
4.521006e-004,-2.978945e-006
5.255162e-004,-4.479180e-005
6.467411e-004,-9.227693e-005
7.580801e-004,-1.425172e-004
8.151271e-004,-1.927574e-004
8.348991e-004,-2.319772e-004
8.630985e-004,-2.494803e-004
9.216042e-004,-2.389460e-004
9.989094e-004,-2.057227e-004
1.054174e-003,-1.582375e-004
1.019978e-003,-1.034594e-004
8.621261e-004,-4.770897e-005
5.918010e-004,4.476060e-006
2.276400e-004,4.904402e-005
-2.016710e-004,8.696731e-005
-7.144455e-004,1.240803e-004
-1.405816e-003,1.597346e-004
-2.329265e-003,1.914995e-004
-3.321755e-003,2.222919e-004
-4.048946e-003,2.619979e-004
-4.222519e-003,3.162898e-004
-3.745882e-003,3.798194e-004
-2.757766e-003,4.344354e-004
-1.541303e-003,4.663623e-004
-3.849669e-004,4.757621e-004
5.015305e-004,4.777069e-004
1.031323e-003,4.796517e-004
1.235201e-003,4.858102e-004
1.226287e-003,4.966686e-004
1.164054e-003,5.086614e-004
1.183826e-003,5.119027e-004
1.321906e-003,4.880791e-004
1.509578e-003,4.195254e-004
1.631938e-003,3.057555e-004
1.592718e-003,1.621656e-004
1.347999e-003,5.934648e-006
9.214421e-004,-1.462447e-004
4.183910e-004,-2.838381e-004
-1.075808e-005,-3.930701e-004
-2.629317e-004,-4.671340e-004
-3.658432e-004,-5.170500e-004
-4.269418e-004,-5.505976e-004
-5.337428e-004,-5.642111e-004
-7.236833e-004,-5.384427e-004
-9.936841e-004,-4.531963e-004
-1.257040e-003,-2.979378e-004
-1.341476e-003,-8.012204e-005
-1.083468e-003,1.728619e-004
-4.647030e-004,4.318424e-004
3.457857e-004,6.669993e-004
1.089342e-003,8.483506e-004
1.581535e-003,9.658480e-004
1.782173e-003,1.033267e-003
1.767101e-003,1.064222e-003
1.656248e-003,1.062115e-003
1.551877e-003,1.019168e-003
1.503744e-003,9.313281e-004
1.495965e-003,8.097790e-004
1.466469e-003,6.734819e-004
1.350268e-003,5.441537e-004
1.129696e-003,4.376768e-004
8.342508e-004,3.537269e-004
4.963444e-004,2.799871e-004
1.351007e-004,2.020337e-004
-2.313290e-004,1.117633e-004
-5.656697e-004,9.500085e-006
-8.163847e-004,-9.827335e-005
-9.259408e-004,-1.974573e-004
-8.588458e-004,-2.757348e-004
-6.244993e-004,-3.284061e-004
-2.760590e-004,-3.593606e-004
1.213252e-004,-3.744326e-004
5.196818e-004,-3.755671e-004
8.937289e-004,-3.630881e-004
1.222074e-003,-3.376438e-004
1.477651e-003,-3.042584e-004
1.640041e-003,-2.737901e-004
1.706974e-003,-2.596904e-004
1.701464e-003,-2.640662e-004
1.651061e-003,-2.771934e-004
1.565491e-003,-2.805968e-004
1.443293e-003,-2.575835e-004
1.267776e-003,-1.997262e-004
1.011875e-003,-1.144799e-004
6.648925e-004,-2.177852e-005
2.480603e-004,5.844381e-005
-1.833576e-004,1.137081e-004
-5.726385e-004,1.441764e-004
-9.223754e-004,1.535762e-004
-1.303715e-003,1.534141e-004
-1.768681e-003,1.545486e-004
-2.270759e-003,1.618415e-004
-2.636541e-003,1.741585e-004
-2.669441e-003,1.867996e-004
-2.319865e-003,1.924718e-004
-1.735133e-003,1.833962e-004
-1.148619e-003,1.579519e-004
-7.325969e-004,1.193804e-004
-4.852853e-004,7.951231e-005
-2.911311e-004,5.001642e-005
-4.981582e-005,3.802358e-005
3.062417e-004,4.223728e-005
7.827141e-004,5.698522e-005
1.238442e-003,7.286763e-005
1.388839e-003,8.259155e-005
9.985853e-004,8.777764e-005
1.493625e-004,9.328786e-005
-7.196317e-004,9.993253e-005
-1.152994e-003,1.059290e-004
-9.951427e-004,1.099806e-004
-3.987424e-004,1.104668e-004
3.148312e-004,1.090082e-004
8.494850e-004,1.057669e-004
1.107655e-003,1.013911e-004
1.165837e-003,9.507057e-005
1.109762e-003,8.453633e-005
9.147974e-004,7.027458e-005
4.341113e-004,5.390598e-005
-4.570859e-004,4.029250e-005
-1.687648e-003,3.024445e-005
-3.005565e-003,2.700314e-005
-4.115231e-003,2.878586e-005
-4.807256e-003,3.510641e-005
-4.967863e-003,4.013043e-005
-4.766739e-003,3.964424e-005
-4.175358e-003,3.705119e-005
-3.366485e-003,3.543054e-005
-2.475610e-003,4.142696e-005
-1.632870e-003,5.941620e-005
-9.154066e-004,8.664318e-005
-3.350507e-004,1.145184e-004
1.393144e-004,1.323456e-004
5.532294e-004,1.297526e-004
9.546655e-004,1.018773e-004
1.383977e-003,5.017848e-005
1.858506e-003,-2.048200e-005
2.363989e-003,-1.029732e-004
2.862667e-003,-1.882196e-004
3.290847e-003,-2.629317e-004
3.554692e-003,-3.167374e-004
3.541888e-003,-3.476919e-004
3.173835e-003,-3.642225e-004
2.468522e-003,-3.825359e-004
1.575539e-003,-4.198109e-004
7.230740e-004,-4.823681e-004
1.221355e-004,-5.653456e-004
-1.177212e-004,-6.539953e-004
-1.562004e-005,-7.304901e-004
3.091589e-004,-7.804062e-004
6.807749e-004,-7.880232e-004
9.209559e-004,-7.496137e-004
9.261420e-004,-6.724707e-004
6.892023e-004,-5.672903e-004
3.021901e-004,-4.390967e-004
-1.020008e-004,-2.927517e-004
-4.569239e-004,-1.383035e-004
-8.039057e-004,7.069105e-006
-1.184759e-003,1.219734e-004
-1.526069e-003,1.971717e-004
-1.666255e-003,2.415777e-004
-1.467887e-003,2.710735e-004
-9.141100e-004,2.921420e-004
-1.204763e-004,3.007315e-004
7.216153e-004,2.908455e-004
1.437783e-003,2.595669e-004
1.935487e-003,2.041406e-004
2.184096e-003,1.253768e-004
2.197061e-003,3.624086e-005
2.009713e-003,-4.057810e-005
1.681206e-003,-8.595638e-005
1.301324e-003,-8.838737e-005
9.770306e-004,-4.625038e-005
8.045929e-004,3.137890e-005
8.339267e-004,1.274836e-004
1.039264e-003,2.273159e-004
1.324661e-003,3.235827e-004
1.584128e-003,4.161220e-004
1.753325e-003,4.969927e-004
1.830955e-003,5.614947e-004
1.855426e-003,6.128695e-004
1.876981e-003,6.575995e-004
1.930787e-003,6.979538e-004
2.013441e-003,7.292324e-004
2.072270e-003,7.355530e-004
2.022354e-003,6.979538e-004
1.781200e-003,5.990939e-004
1.318827e-003,4.459421e-004
7.029778e-004,2.666978e-004
5.406805e-005,9.879808e-005
-5.399013e-004,-2.761287e-005
-1.058186e-003,-1.045939e-004
-1.518452e-003,-1.404103e-004
-1.932042e-003,-1.457585e-004
-2.275621e-003,-1.233935e-004
-2.512723e-003,-6.942573e-005
-2.625683e-003,2.262738e-005
-2.614824e-003,1.577899e-004
-2.482741e-003,3.329825e-004
-2.234619e-003,5.298919e-004
-1.898495e-003,7.167534e-004
-1.531417e-003,8.598572e-004
-1.196428e-003,9.446174e-004
-9.367992e-004,9.744375e-004
-7.732753e-004,9.645515e-004
-6.972667e-004,9.331108e-004
-6.778188e-004,8.862739e-004
-6.805740e-004,8.144788e-004
-6.820326e-004,7.104329e-004
-6.685811e-004,5.781874e-004
-6.301716e-004,4.326527e-004
-5.653456e-004,2.953834e-004
-4.835025e-004,1.822617e-004
-3.985804e-004,1.004187e-004
-3.097686e-004,3.883391e-005
-1.963229e-004,-2.372331e-005
-4.268495e-005,-9.746302e-005
1.560072e-004,-1.801163e-004
3.931088e-004,-2.617972e-004
6.569512e-004,-3.282440e-004
9.164180e-004,-3.731361e-004
1.139906e-003,-4.021458e-004
1.309265e-003,-4.249970e-004
1.415418e-003,-4.463896e-004
1.436486e-003,-4.640547e-004
1.340219e-003,-4.763717e-004
1.084318e-003,-4.826922e-004
6.161107e-004,-4.847991e-004
-1.002181e-004,-4.820440e-004
-1.035173e-003,-4.723200e-004
-2.056347e-003,-4.575721e-004
-2.972665e-003,-4.413656e-004
-3.612502e-003,-4.261314e-004
-3.864677e-003,-4.131662e-004
-3.712659e-003,-4.058733e-004
-3.251743e-003,-4.105732e-004
-2.628924e-003,-4.300210e-004
-1.953273e-003,-4.614617e-004
-1.270978e-003,-5.018159e-004
-6.071584e-004,-5.509217e-004
-1.027188e-005,-6.076446e-004
4.410801e-004,-6.700397e-004
7.076777e-004,-7.432932e-004
8.624502e-004,-8.314567e-004
1.119000e-003,-9.340441e-004
1.619297e-003,-1.038576e-003
2.241306e-003,-1.127064e-003
2.670943e-003,-1.171470e-003
2.599796e-003,-1.148456e-003
1.890595e-003,-1.056890e-003
6.378276e-004,-9.197823e-004
-8.773212e-004,-7.661444e-004
-2.281942e-003,-6.178547e-004
-3.279618e-003,-4.791268e-004
-3.707472e-003,-3.371576e-004
-3.571985e-003,-1.750923e-004
-2.986441e-003,1.371378e-005
-2.115663e-003,2.231022e-004
-1.124795e-003,4.349216e-004
-1.746061e-004,6.303725e-004
6.024973e-004,7.990826e-004
1.129372e-003,9.468864e-004
1.386570e-003,1.084804e-003
1.401156e-003,1.220129e-003
1.256432e-003,1.339571e-003
1.067625e-003,1.411690e-003
9.324626e-004,1.404722e-003
9.034528e-004,1.307644e-003
9.752478e-004,1.141851e-003
1.110086e-003,9.425106e-004
1.255459e-003,7.470596e-004
1.352536e-003,5.859666e-004
1.361774e-003,4.768966e-004
1.288521e-003,4.224426e-004
1.146551e-003,4.145014e-004
9.295454e-004,4.342734e-004
6.318311e-004,4.585832e-004
2.783665e-004,4.702519e-004
-7.979791e-005,4.674968e-004
-3.679500e-004,4.563143e-004
-4.909576e-004,4.420525e-004
-3.673017e-004,4.284390e-004
4.476060e-006,4.151496e-004
5.277851e-004,3.948915e-004
1.062115e-003,3.610198e-004
1.498558e-003,3.130485e-004
1.789952e-003,2.569738e-004
1.938566e-003,2.030061e-004
1.979407e-003,1.615174e-004
1.949263e-003,1.389903e-004
1.877629e-003,1.310491e-004
1.780066e-003,1.237561e-004
1.667916e-003,1.007429e-004
1.552850e-003,5.520250e-005
1.438755e-003,-9.785688e-006
1.322392e-003,-9.017008e-005
1.195657e-003,-1.833576e-004
1.050932e-003,-2.909690e-004
8.887049e-004,-4.110594e-004
7.099467e-004,-5.363359e-004
5.167646e-004,-6.622606e-004
3.198552e-004,-7.852681e-004
1.449867e-004,-8.909347e-004
1.565857e-005,-9.581918e-004
-6.035007e-005,-9.734259e-004
-9.000802e-005,-9.458748e-004
-9.114248e-005,-8.975794e-004
-8.368748e-005,-8.428013e-004
-8.012204e-005,-7.771649e-004
-7.833932e-005,-6.836532e-004
-7.104638e-005,-5.491390e-004
-5.321920e-005,-3.732982e-004
-2.437157e-005,-1.708786e-004
1.841368e-005,4.110282e-005
8.210535e-005,2.480603e-004
1.704310e-004,4.336251e-004
2.796630e-004,5.866149e-004
3.906778e-004,7.068674e-004
4.712243e-004,7.971379e-004
5.002340e-004,8.640709e-004
4.911583e-004,9.172284e-004
4.837033e-004,9.512621e-004
5.229231e-004,9.392693e-004
6.180556e-004,8.462437e-004
7.185361e-004,6.624615e-004
7.374978e-004,4.146635e-004
5.968250e-004,1.561692e-004
2.613496e-004,-5.905355e-005
-2.726556e-004,-1.977815e-004
-9.572194e-004,-2.558008e-004
-1.661393e-003,-2.481838e-004
-2.221491e-003,-1.995642e-004
-2.557129e-003,-1.358725e-004
-2.711578e-003,-7.655660e-005
-2.776890e-003,-3.458168e-005
-2.793259e-003,-1.416145e-005
-2.698774e-003,-1.416145e-005
-2.399277e-003,-2.939559e-005
-1.869485e-003,-5.289507e-005
-1.160611e-003,-7.234290e-005
-3.426678e-004,-7.331530e-005
5.175750e-004,-4.851930e-005
1.346864e-003,-3.951337e-006
2.076322e-003,5.066468e-005
2.607575e-003,1.004187e-004
2.796544e-003,1.352628e-004
2.504987e-003,1.526038e-004
1.688985e-003,1.516314e-004
4.733311e-004,1.323456e-004
-8.115227e-004,1.002567e-004
-1.778242e-003,6.638502e-005
-2.233970e-003,3.672706e-005
-2.199613e-003,1.452411e-005
-1.863165e-003,2.855407e-006
-1.450546e-003,-1.844488e-006
-1.123498e-003,-1.844488e-006
-9.410129e-004,-1.034161e-006
-8.641939e-004,-5.479652e-007
-8.055263e-004,-1.358292e-006
-6.972667e-004,-5.571990e-006
-5.444391e-004,-1.270286e-005
-4.049009e-004,-2.161646e-005
-3.468815e-004,-2.388537e-005
-3.977700e-004,-1.659243e-005
-5.201293e-004,-5.409925e-006
-6.418404e-004,4.151929e-006
-6.954839e-004,1.031041e-005
-6.449196e-004,9.175954e-006
-4.800992e-004,1.720949e-006
-2.128535e-004,-1.010982e-005
1.289422e-004,-2.388537e-005
5.086614e-004,-3.571614e-005
8.734707e-004,-4.122636e-005
1.151089e-003,-4.106429e-005
1.260159e-003,-3.895745e-005
1.154006e-003,-4.009191e-005
8.502954e-004,-4.268495e-005
4.318424e-004,-4.009191e-005
1.614476e-005,-2.842320e-005
-2.715212e-004,-1.205460e-005
-3.392644e-004,5.124321e-006
-1.828714e-004,2.214118e-005
6.217132e-005,3.380988e-005
1.887444e-004,3.883391e-005
6.670914e-005,3.867184e-005
-2.569353e-004,4.045456e-005
-5.836589e-004,4.888196e-005
-7.066664e-004,6.038860e-005
-5.165638e-004,6.589881e-005
-4.981582e-005,5.163707e-005
5.507984e-004,-6.176923e-008
1.119000e-003,-1.016767e-004
1.530485e-003,-2.535319e-004
1.716698e-003,-4.439586e-004
1.646037e-003,-6.471885e-004
1.320772e-003,-8.358325e-004
7.840106e-004,-9.802326e-004
1.305629e-004,-1.061914e-003
-5.403875e-004,-1.074555e-003
-1.164339e-003,-1.027556e-003
-1.712282e-003,-9.393922e-004
-2.191671e-003,-8.254603e-004
-2.630221e-003,-6.878669e-004
-3.035385e-003,-5.118640e-004
-3.334883e-003,-2.903207e-004
-3.394037e-003,-3.377136e-005
-3.138297e-003,2.383363e-004
-2.605911e-003,5.029891e-004
-1.896064e-003,7.426839e-004
-1.130467e-003,9.562862e-004
-4.177041e-004,1.159030e-003
1.950649e-004,1.359343e-003
7.263153e-004,1.536967e-003
1.203760e-003,1.651872e-003
1.610221e-003,1.666620e-003
1.913608e-003,1.577160e-003
2.105170e-003,1.410394e-003
2.215861e-003,1.206515e-003
2.299487e-003,1.001989e-003
2.415364e-003,8.209614e-004
2.553931e-003,6.674855e-004
2.585210e-003,5.289196e-004
2.318611e-003,3.914881e-004
1.697412e-003,2.516257e-004
9.104217e-004,1.187321e-004
2.631324e-004,7.393236e-006
-3.377136e-005,-7.201877e-005
4.645098e-005,-1.149661e-004
3.903536e-004,-1.271210e-004
8.329543e-004,-1.173971e-004
1.196953e-003,-9.859748e-005
1.356912e-003,-7.607040e-005
1.305051e-003,-5.386745e-005
1.129534e-003,-3.458168e-005
9.332729e-004,-1.999580e-005
7.817416e-004,-9.137427e-006
6.997365e-004,2.045080e-006
6.945504e-004,1.193106e-005
7.770417e-004,1.711715e-005
9.506139e-004,1.452411e-005
1.190471e-003,-8.720959e-007
1.465334e-003,-2.696461e-005
1.770180e-003,-5.727083e-005
2.094149e-003,-8.660465e-005
2.390730e-003,-1.146419e-004
2.588289e-003,-1.387897e-004
2.619406e-003,-1.572651e-004
2.422333e-003,-1.713648e-004
1.970817e-003,-1.867610e-004
1.290627e-003,-2.086398e-004
4.650658e-004,-2.400805e-004
-3.710293e-004,-2.767073e-004
-1.093030e-003,-3.094444e-004
-1.666741e-003,-3.318095e-004
-2.128304e-003,-3.467195e-004
-2.550160e-003,-3.601709e-004
-2.986117e-003,-3.729740e-004
-3.377344e-003,-3.841565e-004
-3.545893e-003,-3.893426e-004
-3.317055e-003,-3.891806e-004
-2.653720e-003,-3.849669e-004
-1.695427e-003,-3.763774e-004
-6.739292e-004,-3.622777e-004
1.927960e-004,-3.413713e-004
7.763935e-004,-3.232200e-004
1.068273e-003,-3.206269e-004
1.129534e-003,-3.428299e-004
1.040236e-003,-3.929081e-004
8.671501e-004,-4.609755e-004
6.488480e-004,-5.300153e-004
4.044533e-004,-5.818762e-004
1.357490e-004,-6.008379e-004
-1.561307e-004,-5.823624e-004
-4.580583e-004,-5.305015e-004
-7.478310e-004,-4.488206e-004
-9.820154e-004,-3.397507e-004
-1.103402e-003,-1.985918e-004
-1.064182e-003,-2.145439e-005
-8.591699e-004,1.838824e-004
-5.342290e-004,3.986190e-004
-1.739578e-004,6.026593e-004
1.295905e-004,7.796348e-004
3.193690e-004,9.167422e-004
3.803056e-004,1.010254e-003
3.425444e-004,1.061143e-003
2.746390e-004,1.071839e-003
2.563256e-004,1.040398e-003
3.333067e-004,9.626067e-004
4.909963e-004,8.353853e-004
6.621373e-004,6.639201e-004
7.443045e-004,4.639314e-004
6.569512e-004,2.592428e-004
3.770643e-004,7.513654e-005
-5.775702e-005,-7.218083e-005
-5.698834e-004,-1.814128e-004
-1.056727e-003,-2.603387e-004
-1.414406e-003,-3.181960e-004
-1.563992e-003,-3.630881e-004
-1.459298e-003,-3.935563e-004
-1.122364e-003,-4.036044e-004
-6.750637e-004,-3.809152e-004
-2.519113e-004,-3.211132e-004
9.377406e-005,-2.314910e-004
4.214702e-004,-1.227452e-004
8.224201e-004,2.045080e-006
1.330820e-003,1.406109e-004
1.900643e-003,2.846870e-004
2.416175e-003,4.145014e-004
2.765751e-003,5.089855e-004
2.910963e-003,5.495019e-004
2.890543e-003,5.295678e-004
2.828795e-003,4.632831e-004
2.823933e-003,3.751195e-004
2.731231e-003,2.892249e-004
2.155086e-003,2.208333e-004
7.405770e-004,1.718896e-004
-1.463187e-003,1.396385e-004
-3.850415e-003,1.226217e-004
-4.967863e-003,1.197045e-004
-4.967702e-003,1.232699e-004
-4.967702e-003,1.273216e-004
-4.967702e-003,1.268354e-004
-4.967863e-003,1.180839e-004
-4.967863e-003,1.023635e-004
-3.532765e-003,8.129502e-005
-1.746315e-003,5.909208e-005
-7.639453e-005,3.316162e-005
1.192091e-003,-2.654814e-006
1.923170e-003,-5.208474e-005
2.169996e-003,-1.050801e-004
2.060602e-003,-1.478653e-004
1.733715e-003,-1.762268e-004
1.308617e-003,-1.938919e-004
8.968081e-004,-2.131776e-004
6.131936e-004,-2.439701e-004
5.094717e-004,-2.898345e-004
5.025029e-004,-3.491504e-004
4.162841e-004,-4.112214e-004
1.221355e-004,-4.614617e-004
-3.344025e-004,-4.894990e-004
-7.637134e-004,-5.042469e-004
-1.008918e-003,-5.175362e-004
-1.035659e-003,-5.418460e-004
-8.935277e-004,-5.783107e-004
-6.434610e-004,-6.065101e-004
-3.358611e-004,-5.961379e-004
-2.728874e-005,-5.264499e-004
2.135403e-004,-4.026320e-004
3.396272e-004,-2.585559e-004
3.503235e-004,-1.381414e-004
2.895490e-004,-6.018800e-005
2.208333e-004,-1.124428e-005
2.054371e-004,3.040651e-005
2.874421e-004,8.032264e-005
4.749518e-004,1.445005e-004
7.342565e-004,2.284504e-004
1.005392e-003,3.378445e-004
1.239739e-003,4.739794e-004
1.416066e-003,6.310208e-004
1.534212e-003,7.934103e-004
1.602766e-003,9.481829e-004
1.638907e-003,1.072649e-003
1.659975e-003,1.130182e-003
1.665971e-003,1.086749e-003
1.640527e-003,9.318143e-004
1.578942e-003,6.903367e-004
1.502609e-003,4.107739e-004
1.451883e-003,1.482280e-004
1.450586e-003,-6.132246e-005
1.488672e-003,-2.008607e-004
1.533240e-003,-2.677937e-004
1.542802e-003,-2.702246e-004
1.478948e-003,-2.253326e-004
1.317368e-003,-1.614788e-004
1.065680e-003,-1.042698e-004
7.785003e-004,-7.169464e-005
5.376711e-004,-6.748094e-005
4.119083e-004,-8.465986e-005
3.751195e-004,-1.146419e-004
2.807975e-004,-1.583996e-004
-3.263690e-005,-2.135018e-004
-5.382806e-004,-2.692523e-004
-9.745604e-004,-3.039342e-004
-1.042466e-003,-3.021515e-004
-6.173685e-004,-2.655248e-004
1.610312e-004,-2.037779e-004
9.841614e-004,-1.284175e-004
1.565329e-003,-4.560212e-005
1.760942e-003,4.466826e-005
1.569380e-003,1.383420e-004
1.115434e-003,2.299089e-004
5.851563e-004,3.127243e-004
1.469315e-004,3.817642e-004
-1.062146e-004,4.294114e-004
-1.645581e-004,4.529109e-004
-9.422172e-005,4.542074e-004
-6.544382e-006,4.355699e-004
-1.358292e-006,4.029947e-004
-1.324691e-004,3.639370e-004
-4.201350e-004,3.273102e-004
-8.303223e-004,2.983005e-004
-1.253151e-003,2.788527e-004
-1.553944e-003,2.626462e-004
-1.638704e-003,2.399570e-004
-1.475666e-003,2.073819e-004
-1.088168e-003,1.650828e-004
-5.530285e-004,1.156529e-004
8.041497e-006,6.136099e-005
4.822447e-004,1.241726e-005
8.363577e-004,-2.307504e-005
1.046233e-003,-4.689865e-005
9.985853e-004,-6.488790e-005
5.480433e-004,-8.498399e-005
-3.478539e-004,-1.101041e-004
-1.511645e-003,-1.384655e-004
-2.635731e-003,-1.705545e-004
-3.402950e-003,-2.062088e-004
-3.562423e-003,-2.412149e-004
-3.013344e-003,-2.681178e-004
-1.915836e-003,-2.843243e-004
-6.962943e-004,-2.875656e-004
1.446626e-004,-2.781658e-004
3.642611e-004,-2.624455e-004
1.025256e-004,-2.399184e-004
-2.909690e-004,-2.173914e-004
-5.162397e-004,-2.089640e-004
-4.732924e-004,-2.277635e-004
-2.405667e-004,-2.739521e-004
2.959619e-005,-3.358611e-004
1.978200e-004,-3.969597e-004
1.589243e-004,-4.437966e-004
-1.379794e-004,-4.653512e-004
-6.317923e-004,-4.629203e-004
-1.163366e-003,-4.467137e-004
-1.541789e-003,-4.207833e-004
-1.622660e-003,-3.859393e-004
-1.380372e-003,-3.369955e-004
-9.390680e-004,-2.739521e-004
-5.045711e-004,-1.989159e-004
-2.305186e-004,-1.216107e-004
-1.256624e-004,-5.435365e-005
-1.081593e-004,-6.544382e-006
-9.762509e-005,2.278944e-005
-4.511593e-005,3.656499e-005
7.302970e-005,4.855783e-005
2.594049e-004,6.962632e-005
4.939134e-004,1.026876e-004
7.475458e-004,1.427178e-004
9.893475e-004,1.762653e-004
1.180099e-003,1.934442e-004
1.260321e-003,1.984683e-004
1.143472e-003,2.012234e-004
7.647247e-004,2.107852e-004
1.822617e-004,2.337985e-004
-3.687603e-004,2.733424e-004
-6.105618e-004,3.297412e-004
-4.170558e-004,3.969983e-004
1.308870e-004,4.649037e-004
8.078342e-004,5.240576e-004
1.388029e-003,5.695980e-004
1.752191e-003,6.049282e-004
1.895295e-003,6.412309e-004
1.886381e-003,6.841783e-004
1.814100e-003,7.289083e-004
1.751218e-003,7.658592e-004
1.735822e-003,7.849830e-004
1.766452e-003,7.785003e-004
1.808265e-003,7.485182e-004
1.815396e-003,7.005468e-004
1.753811e-003,6.449584e-004
1.611680e-003,5.898562e-004
1.391756e-003,5.392918e-004
1.108790e-003,4.947237e-004
7.857933e-004,4.553419e-004
4.464283e-004,4.179048e-004
1.064152e-004,3.770643e-004
-2.272773e-004,3.277964e-004
-5.656697e-004,2.713977e-004
-8.975794e-004,2.122438e-004
-1.168715e-003,1.534141e-004
-1.307281e-003,9.604298e-005
-1.247154e-003,4.029250e-005
-9.624055e-004,-1.189254e-005
-5.303394e-004,-5.694670e-005
-9.162867e-005,-9.341139e-005
2.556773e-004,-1.183694e-004
4.978030e-004,-1.345760e-004
6.725095e-004,-1.525652e-004
8.254994e-004,-1.812508e-004
9.875648e-004,-2.272773e-004
1.177830e-003,-2.904828e-004
1.393377e-003,-3.703810e-004
1.595797e-003,-4.627582e-004
1.727881e-003,-5.580526e-004
1.742791e-003,-6.528608e-004
1.638258e-003,-7.473448e-004
1.463065e-003,-8.460426e-004
1.294355e-003,-9.476576e-004
1.139744e-003,-1.037766e-003
8.830326e-004,-1.098378e-003
3.770643e-004,-1.119285e-003
-4.601652e-004,-1.103078e-003
-1.599322e-003,-1.061427e-003
-2.871375e-003,-1.002760e-003
-3.968399e-003,-9.225374e-004
-4.552648e-003,-8.056884e-004
-4.436447e-003,-6.390853e-004
-3.702935e-003,-4.162455e-004
-2.672358e-003,-1.462447e-004
-1.739671e-003,1.433661e-004
-1.184273e-003,4.138531e-004
-1.043924e-003,6.289139e-004
-1.152994e-003,7.627800e-004
-1.306470e-003,8.086445e-004
-1.381344e-003,7.692626e-004
-1.355738e-003,6.585719e-004
-1.260444e-003,4.939134e-004
-1.135491e-003,2.908455e-004
-1.009891e-003,6.444023e-005
-8.946622e-004,-1.645581e-004
-7.857543e-004,-3.674638e-004
-6.750637e-004,-5.183466e-004
-5.470322e-004,-6.060239e-004
-3.882082e-004,-6.350336e-004
-1.947022e-004,-6.139652e-004
2.392390e-005,-5.491390e-004
2.500050e-004,-4.452552e-004
4.647417e-004,-3.099306e-004
6.524134e-004,-1.605064e-004
7.968137e-004,-1.367526e-005
8.739569e-004,1.273216e-004
8.652053e-004,2.621599e-004
7.656972e-004,3.895433e-004
5.963388e-004,5.047718e-004
4.028327e-004,6.086557e-004
2.482223e-004,6.998986e-004
1.812893e-004,7.708832e-004
2.112714e-004,8.148030e-004
3.141829e-004,8.379783e-004
4.521006e-004,8.598572e-004
5.822391e-004,9.034528e-004
6.512789e-004,9.726548e-004
6.148142e-004,1.058550e-003
4.616624e-004,1.149630e-003
2.258573e-004,1.240873e-003
-1.367526e-005,1.345081e-003
-1.697442e-004,1.471493e-003
-1.864369e-004,1.598714e-003
-5.694670e-005,1.676830e-003
1.806411e-004,1.651224e-003
4.606900e-004,1.493047e-003
7.123777e-004,1.222398e-003
8.736328e-004,9.023183e-004
9.094492e-004,6.054144e-004
8.203132e-004,3.752816e-004
6.392861e-004,2.227781e-004
4.324906e-004,1.253768e-004
2.738286e-004,5.244739e-005
2.114335e-004,-1.967167e-005
2.551911e-004,-1.008664e-004
3.752816e-004,-1.896782e-004
5.237334e-004,-2.770314e-004
6.718613e-004,-3.510952e-004
8.337647e-004,-4.026320e-004
1.037481e-003,-4.277521e-004
1.294193e-003,-4.316416e-004
1.587694e-003,-4.262935e-004
1.885409e-003,-4.275900e-004
2.137907e-003,-4.480103e-004
2.296408e-003,-4.907955e-004
2.328821e-003,-5.483287e-004
2.222830e-003,-6.035930e-004
1.991562e-003,-6.447575e-004
1.676668e-003,-6.672846e-004
1.312020e-003,-6.817085e-004
8.995633e-004,-7.009942e-004
4.268184e-004,-7.319486e-004
-7.963584e-005,-7.740856e-004
-5.264499e-004,-8.246500e-004
-8.154123e-004,-8.839659e-004
-9.635399e-004,-9.452265e-004
-1.110209e-003,-1.000653e-003
-1.401440e-003,-1.043600e-003
-1.868513e-003,-1.066289e-003
-2.423587e-003,-1.062886e-003
-2.931177e-003,-1.030959e-003
-3.294528e-003,-9.760190e-004
-3.486901e-003,-9.089239e-004
-3.501649e-003,-8.385876e-004
-3.324511e-003,-7.700340e-004
-2.956135e-003,-7.031010e-004
-2.431528e-003,-6.335750e-004
-1.830103e-003,-5.583767e-004
-1.251368e-003,-4.768579e-004
-7.658203e-004,-3.971218e-004
-3.920977e-004,-3.285682e-004
-1.055663e-004,-2.739521e-004
1.313732e-004,-2.238740e-004
3.397893e-004,-1.630995e-004
5.187094e-004,-8.352541e-005
6.571133e-004,4.962256e-006
7.480320e-004,8.518459e-005
7.880622e-004,1.500107e-004
7.814175e-004,1.976579e-004
7.363633e-004,2.336365e-004
6.613270e-004,2.649151e-004
5.796460e-004,2.965178e-004
5.148199e-004,3.290929e-004
4.824068e-004,3.615060e-004
4.948858e-004,3.922984e-004
5.584154e-004,4.164462e-004
6.621373e-004,4.326527e-004
7.828761e-004,4.388112e-004
9.041011e-004,4.320045e-004
1.022571e-003,4.180668e-004
1.152223e-003,4.101256e-004
1.307158e-003,4.135290e-004
1.477165e-003,4.251977e-004
1.620755e-003,4.399457e-004
1.682988e-003,4.516144e-004
1.612652e-003,4.576108e-004
1.392729e-003,4.611762e-004
1.072001e-003,4.649037e-004
7.430080e-004,4.725208e-004
4.775448e-004,4.882411e-004
2.919800e-004,5.096338e-004
1.649207e-004,5.272989e-004
6.946425e-005,5.292437e-004
8.041497e-006,5.120648e-004
-9.623623e-006,4.790034e-004
1.549650e-005,4.334631e-004
7.027458e-005,3.807918e-004
1.398006e-004,3.289309e-004
2.070577e-004,2.845250e-004
2.550291e-004,2.500050e-004
2.673460e-004,2.261814e-004
2.419018e-004,2.153231e-004
1.877720e-004,2.156472e-004
1.213252e-004,2.221298e-004
5.212327e-005,2.276400e-004
-1.270286e-005,2.268297e-004
-6.018800e-005,2.164575e-004
-7.963584e-005,1.960373e-004
-6.504996e-005,1.688103e-004
2.045080e-006,1.388282e-004
1.598967e-004,1.150046e-004
4.373526e-004,1.005808e-004
8.287407e-004,9.053275e-005
1.296948e-003,7.837785e-005
1.784766e-003,6.152305e-005
2.211485e-003,4.320967e-005
2.487646e-003,2.748934e-005
2.535455e-003,1.452411e-005
2.314883e-003,2.623614e-007
1.879574e-003,-1.740276e-005
1.369553e-003,-4.300908e-005
9.058838e-004,-7.979791e-005
4.556660e-004,-1.285796e-004
-1.759026e-004,-1.802784e-004
-1.181194e-003,-2.287359e-004
-2.520826e-003,-2.671454e-004
-3.853170e-003,-2.977757e-004
-4.704019e-003,-3.199787e-004
-4.746156e-003,-3.342404e-004
-3.921562e-003,-3.395886e-004
-2.428449e-003,-3.374817e-004
-7.337314e-004,-3.308371e-004
4.705760e-004,-3.212752e-004
6.644063e-004,-3.081479e-004
-6.035007e-005,-2.937241e-004
-1.105509e-003,-2.775176e-004
-1.838207e-003,-2.577456e-004
-2.004648e-003,-2.300324e-004
-1.774191e-003,-1.958367e-004
-1.509214e-003,-1.572651e-004
-1.452653e-003,-1.178833e-004
-1.648590e-003,-8.028410e-005
-2.046136e-003,-4.916756e-005
-2.524878e-003,-2.534396e-005
-2.905570e-003,-7.030578e-006
-3.021447e-003,1.031041e-005
-2.828589e-003,2.748934e-005
-2.441738e-003,4.531652e-005
-2.072877e-003,6.541262e-005
-1.887312e-003,8.891209e-005
-1.915998e-003,1.138702e-004
-2.052943e-003,1.360731e-004
-2.113718e-003,1.542244e-004
-1.922805e-003,1.738343e-004
-1.407761e-003,1.989545e-004
-6.661501e-004,2.303951e-004
9.361199e-005,2.660495e-004
6.916333e-004,3.015418e-004
1.084318e-003,3.334687e-004
1.359181e-003,3.499994e-004
1.642634e-003,3.462718e-004
2.005013e-003,3.248792e-004
2.429950e-003,2.916559e-004
2.848081e-003,2.457913e-004
3.176914e-003,1.876099e-004
3.353567e-003,1.197045e-004
3.354053e-003,4.790957e-005
3.201224e-003,-1.367526e-005
2.949211e-003,-4.900550e-005
2.664136e-003,-4.284701e-005
2.402237e-003,1.883015e-006
2.194306e-003,6.492643e-005
2.040344e-003,1.188942e-004
1.925601e-003,1.504969e-004
1.833548e-003,1.681620e-004
1.748949e-003,1.961994e-004
1.658030e-003,2.545429e-004
1.556415e-003,3.499994e-004
1.453990e-003,4.736553e-004
1.371174e-003,6.080075e-004
1.327740e-003,7.313393e-004
1.332440e-003,8.297130e-004
1.365502e-003,9.049114e-004
1.376522e-003,9.736272e-004
1.311210e-003,1.047205e-003
1.149468e-003,1.109438e-003
9.091251e-004,1.119324e-003
6.465791e-004,1.038778e-003
4.384871e-004,8.630985e-004
3.472443e-004,6.219451e-004
3.705817e-004,3.637749e-004
4.295735e-004,1.315353e-004
4.282770e-004,-4.803310e-005
3.300653e-004,-1.640719e-004
1.890685e-004,-2.220912e-004
9.604298e-005,-2.408908e-004
1.034980e-004,-2.412149e-004
1.809652e-004,-2.442942e-004
2.412535e-004,-2.640662e-004
2.321778e-004,-3.045825e-004
1.333180e-004,-3.591985e-004
-5.095028e-005,-4.177041e-004
-3.149546e-004,-4.677822e-004
-6.342233e-004,-5.055434e-004
-9.554367e-004,-5.335807e-004
-1.211014e-003,-5.564319e-004
-1.369676e-003,-5.752315e-004
-1.476152e-003,-5.883588e-004
-1.592678e-003,-5.956517e-004
-1.724275e-003,-6.001896e-004
-1.753608e-003,-6.039171e-004
-1.502569e-003,-6.087790e-004
-9.212409e-004,-6.176926e-004
-1.245279e-004,-6.313061e-004
7.117294e-004,-6.428128e-004
1.383329e-003,-6.455678e-004
1.719291e-003,-6.369784e-004
1.619297e-003,-6.167202e-004
1.100524e-003,-5.870623e-004
3.673404e-004,-5.489769e-004
-2.313290e-004,-5.001953e-004
-3.903150e-004,-4.395829e-004
-9.130454e-005,-3.684362e-004
2.919800e-004,-2.929138e-004
1.958752e-004,-2.162569e-004
-6.844635e-004,-1.434896e-004
-2.148238e-003,-7.363943e-005
-3.664525e-003,5.864920e-007
-4.717633e-003,8.583286e-005
-4.967863e-003,1.812893e-004
-4.676467e-003,2.759355e-004
-3.832588e-003,3.498373e-004
-2.781590e-003,3.864641e-004
-1.747936e-003,3.760919e-004
-8.894761e-004,3.295791e-004
-2.807589e-004,2.634565e-004
9.944634e-005,1.929580e-004
3.287688e-004,1.240803e-004
4.778690e-004,5.811968e-005
5.943940e-004,-9.137427e-006
7.008709e-004,-8.060823e-005
7.903311e-004,-1.515928e-004
8.444610e-004,-2.131776e-004
8.632605e-004,-2.596904e-004
8.583986e-004,-2.938862e-004
8.271200e-004,-3.172236e-004
7.491665e-004,-3.201407e-004
5.926113e-004,-2.917793e-004
3.323342e-004,-2.222533e-004
-3.085418e-005,-1.068628e-004
-4.507654e-004,5.504044e-005
-8.604664e-004,2.555152e-004
-1.178276e-003,4.728449e-004
-1.321542e-003,6.848265e-004
-1.241158e-003,8.778464e-004
-9.575436e-004,1.047529e-003
-5.442770e-004,1.191443e-003
-8.838737e-005,1.303755e-003
3.420582e-004,1.368743e-003
7.037881e-004,1.368419e-003
9.825408e-004,1.288845e-003
1.178964e-003,1.127752e-003
1.297920e-003,9.013460e-004
1.356102e-003,6.475514e-004
1.407477e-003,4.098015e-004
1.511523e-003,2.258573e-004
1.644903e-003,1.177597e-004
1.689633e-003,8.583286e-005
1.498720e-003,1.086841e-004
1.001016e-003,1.558451e-004
2.626462e-004,2.013854e-004
-5.335807e-004,2.282883e-004
-1.187028e-003,2.227781e-004
-1.569502e-003,1.824238e-004
-1.633356e-003,1.107909e-004
-1.404034e-003,1.906194e-005
-9.461989e-004,-7.574627e-005
-3.386162e-004,-1.582375e-004
3.443271e-004,-2.209568e-004
1.032943e-003,-2.645523e-004
1.658192e-003,-2.976137e-004
2.153303e-003,-3.232200e-004
2.459932e-003,-3.488263e-004
2.548421e-003,-3.812394e-004
2.421847e-003,-4.215936e-004
2.112949e-003,-4.755614e-004
1.690119e-003,-5.535148e-004
1.254487e-003,-6.642053e-004
9.057217e-004,-8.029332e-004
6.940642e-004,-9.455507e-004
5.922872e-004,-1.058186e-003
5.125510e-004,-1.117340e-003
3.508097e-004,-1.117826e-003
5.941620e-005,-1.065641e-003
-3.196545e-004,-9.747224e-004
-6.804119e-004,-8.572251e-004
-9.139480e-004,-7.295177e-004
-1.008432e-003,-6.047274e-004
-1.133384e-003,-4.901472e-004
-1.472587e-003,-3.870737e-004
-1.989414e-003,-2.958309e-004
-2.424884e-003,-2.135018e-004
-2.491006e-003,-1.376552e-004
-2.057157e-003,-6.861539e-005
-1.204531e-003,-7.354709e-006
-1.462447e-004,4.158902e-005
8.828705e-004,7.416415e-005
1.719129e-003,9.020862e-005
2.309049e-003,9.798775e-005
2.658464e-003,1.046324e-004
2.787631e-003,1.141943e-004
2.701411e-003,1.205148e-004
2.397375e-003,1.098185e-004
1.881033e-003,7.254349e-005
1.191443e-003,1.468618e-005
4.261701e-004,-4.851930e-005
-2.758969e-004,-1.146419e-004
-8.066607e-004,-1.895161e-004
-1.132088e-003,-2.746004e-004
-1.259147e-003,-3.606571e-004
-1.203883e-003,-4.331002e-004
-1.005191e-003,-4.732924e-004
-7.667927e-004,-4.658375e-004
-6.364922e-004,-4.036044e-004
-7.071526e-004,-2.885380e-004
-9.359888e-004,-1.233935e-004
-1.169039e-003,9.912221e-005
-1.249099e-003,3.900295e-004
-1.113450e-003,7.438183e-004
-8.055263e-004,1.131155e-003
-4.308313e-004,1.501961e-003
-9.308726e-005,1.805996e-003
1.446626e-004,2.007606e-003
2.723701e-004,2.095284e-003
3.169380e-004,2.085236e-003
3.200173e-004,2.010848e-003
3.159656e-004,1.899022e-003
3.190449e-004,1.754459e-003
3.292550e-004,1.571001e-003
3.467581e-004,1.343461e-003
3.720403e-004,1.079780e-003
3.997535e-004,8.068618e-004
4.198496e-004,5.569569e-004
4.161220e-004,3.592371e-004
3.709058e-004,2.235884e-004
2.825802e-004,1.464453e-004
1.686482e-004,1.085220e-004
5.925414e-005,8.793970e-005
-1.999580e-005,6.362991e-005
-4.884343e-005,2.781346e-005
-2.534396e-005,-1.740276e-005
3.348575e-005,-6.829127e-005
1.065772e-004,-1.229073e-004
1.715654e-004,-1.768750e-004
2.125679e-004,-2.238740e-004
2.303951e-004,-2.606628e-004
2.419018e-004,-2.857829e-004
2.688046e-004,-3.037722e-004
3.175863e-004,-3.211132e-004
3.867882e-004,-3.429920e-004
4.757621e-004,-3.677880e-004
5.721910e-004,-3.940425e-004
6.532237e-004,-4.225660e-004
6.989262e-004,-4.536825e-004
6.917953e-004,-4.894990e-004
6.185417e-004,-5.270981e-004
4.922928e-004,-5.604835e-004
3.412479e-004,-5.826865e-004
1.987924e-004,-5.870623e-004
9.896015e-005,-5.697213e-004
7.238143e-005,-5.317981e-004
1.179218e-004,-4.831784e-004
2.166196e-004,-4.397449e-004
3.467581e-004,-4.094387e-004
4.457800e-004,-4.018217e-004
4.029947e-004,-4.219178e-004
1.308870e-004,-4.687546e-004
-3.575778e-004,-5.321222e-004
-9.499265e-004,-5.990551e-004
-1.514238e-003,-6.643674e-004
-1.961052e-003,-7.403760e-004
-2.251798e-003,-8.381014e-004
-2.331210e-003,-9.520333e-004
-2.152289e-003,-1.066938e-003
-1.776784e-003,-1.178114e-003
-1.401927e-003,-1.285564e-003
-1.237592e-003,-1.383127e-003
-1.384586e-003,-1.437905e-003
-1.775811e-003,-1.402251e-003
-2.219222e-003,-1.242778e-003
-2.515802e-003,-9.552746e-004
-2.549836e-003,-5.603215e-004
-2.309331e-003,-9.292520e-005
-1.857979e-003,3.968363e-004
-1.289453e-003,8.498091e-004
-6.896496e-004,1.215753e-003
-1.071869e-004,1.464848e-003
4.488593e-004,1.594825e-003
9.977750e-004,1.639555e-003
1.550905e-003,1.647496e-003
2.079563e-003,1.649441e-003
2.538373e-003,1.634369e-003
2.900105e-003,1.564680e-003
3.148715e-003,1.413149e-003
3.275937e-003,1.185771e-003
3.265403e-003,9.201455e-004
3.059254e-003,6.744543e-004
2.601092e-003,4.932652e-004
1.913122e-003,3.927847e-004
1.118190e-003,3.658818e-004
3.937570e-004,3.885709e-004
-1.303623e-004,4.268184e-004
-4.588687e-004,4.530729e-004
-6.904599e-004,4.499937e-004
-8.831556e-004,4.143393e-004
-1.007946e-003,3.543751e-004
-1.001949e-003,2.861456e-004
-8.372911e-004,2.269918e-004
-5.595111e-004,1.874478e-004
-2.721694e-004,1.636242e-004
-8.725291e-005,1.420695e-004
-4.722278e-005,1.104668e-004
-1.170729e-004,7.238143e-005
-2.386219e-004,3.688912e-005
-3.575778e-004,7.231170e-006
-4.399070e-004,-1.869928e-005
-4.802613e-004,-5.013995e-005
-4.841508e-004,-9.081835e-005
-4.569239e-004,-1.365208e-004
-4.125180e-004,-1.746061e-004
-3.736223e-004,-1.961608e-004
-3.590364e-004,-2.002124e-004
-3.700569e-004,-1.971332e-004
-3.903150e-004,-2.071812e-004
-3.963114e-004,-2.431597e-004
-3.614674e-004,-3.011791e-004
-2.856209e-004,-3.687603e-004
-2.126914e-004,-4.335865e-004
-2.232257e-004,-4.794509e-004
-3.638984e-004,-5.001953e-004
-5.898174e-004,-5.008436e-004
-7.857543e-004,-4.875542e-004
-8.259465e-004,-4.611376e-004
-6.280648e-004,-4.224039e-004
-1.921092e-004,-3.726499e-004
3.931088e-004,-3.156029e-004
1.005554e-003,-2.614731e-004
1.546853e-003,-2.229016e-004
1.956556e-003,-2.096122e-004
2.193496e-003,-2.269532e-004
2.225747e-003,-2.700626e-004
2.025758e-003,-3.253268e-004
1.617838e-003,-3.734602e-004
1.081239e-003,-3.998769e-004
5.178991e-004,-4.071698e-004
4.272347e-005,-4.086284e-004
-2.323013e-004,-4.154351e-004
-2.251705e-004,-4.295348e-004
6.930219e-005,-4.442827e-004
4.767345e-004,-4.491447e-004
6.627856e-004,-4.345588e-004
3.572923e-004,-3.967976e-004
-3.972838e-004,-3.386162e-004
-1.257851e-003,-2.645523e-004
-1.874671e-003,-1.818991e-004
-2.097187e-003,-9.486997e-005
-1.970452e-003,-5.734056e-006
-1.616825e-003,8.826383e-005
-1.116043e-003,1.919856e-004
-5.125122e-004,3.008936e-004
1.477418e-004,3.965121e-004
7.882243e-004,4.615004e-004
1.313803e-003,4.853240e-004
1.635179e-003,4.689553e-004
1.702274e-003,4.276287e-004
1.542640e-003,3.778746e-004
1.272314e-003,3.337929e-004
1.057901e-003,3.049452e-004
1.031647e-003,2.965178e-004
1.249301e-003,3.132105e-004
1.638744e-003,3.509718e-004
2.025596e-003,3.905157e-004
2.223964e-003,4.125566e-004
2.105494e-003,4.063981e-004
1.669051e-003,3.645853e-004
1.034240e-003,2.804733e-004
3.318480e-004,1.464453e-004
-3.732982e-004,-2.712668e-005
-1.076662e-003,-2.092881e-004
-1.762522e-003,-3.601709e-004
-2.367188e-003,-4.525481e-004
-2.833451e-003,-4.849611e-004
-3.138783e-003,-4.771820e-004
-3.253039e-003,-4.483344e-004
-3.150938e-003,-4.023079e-004
-2.829886e-003,-3.248407e-004
-2.309493e-003,-1.953505e-004
-1.631735e-003,-3.303076e-006
-8.607905e-004,2.407673e-004
-8.854943e-005,5.086614e-004
5.859666e-004,7.744487e-004
1.083508e-003,1.017061e-003
1.371012e-003,1.226287e-003
1.461607e-003,1.406342e-003
1.412177e-003,1.560953e-003
1.298245e-003,1.682988e-003
1.171023e-003,1.739873e-003
1.049312e-003,1.688175e-003
9.408899e-004,1.496127e-003
8.434886e-004,1.177344e-003
7.334462e-004,7.913035e-004
5.824011e-004,4.148255e-004
3.548613e-004,1.093323e-004
-1.497178e-005,-9.843541e-005
-5.771763e-004,-2.157707e-004
-1.257851e-003,-2.650386e-004
-1.837882e-003,-2.728177e-004
-2.075470e-003,-2.605007e-004
-1.864785e-003,-2.413770e-004
-1.291398e-003,-2.237119e-004
-5.624284e-004,-2.097743e-004
1.161391e-004,-2.053985e-004
6.195141e-004,-2.089640e-004
9.301936e-004,-2.193361e-004
1.090152e-003,-2.368392e-004
1.161623e-003,-2.622834e-004
1.192578e-003,-2.982619e-004
1.204408e-003,-3.431540e-004
1.190795e-003,-3.891806e-004
1.139096e-003,-4.267797e-004
1.045584e-003,-4.509274e-004
9.308419e-004,-4.627582e-004
8.219338e-004,-4.655133e-004
7.389564e-004,-4.546549e-004
6.874196e-004,-4.264556e-004
6.632718e-004,-3.809152e-004
6.527375e-004,-3.203028e-004
6.363689e-004,-2.541802e-004
5.945560e-004,-1.955125e-004
5.067165e-004,-1.572651e-004
3.636129e-004,-1.454344e-004
1.809652e-004,-1.525652e-004
9.662150e-006,-1.626133e-004
-9.114248e-005,-1.663408e-004
-8.790117e-005,-1.592099e-004
4.476060e-006,-1.423551e-004
1.380179e-004,-1.193418e-004
2.725321e-004,-9.454585e-005
3.900295e-004,-7.396356e-005
4.851619e-004,-5.937768e-005
5.543638e-004,-5.613637e-005
5.952043e-004,-6.423963e-005
6.059006e-004,-7.720486e-005
5.752703e-004,-8.368748e-005
4.713863e-004,-8.060823e-005
2.843629e-004,-6.569822e-005
5.147500e-005,-4.074016e-005
-1.716889e-004,-1.351319e-005
-3.548227e-004,9.338019e-006
-5.087847e-004,2.457216e-005
-6.643674e-004,4.061663e-005
-8.523631e-004,6.622294e-005
-1.092868e-003,1.028497e-004
-1.413919e-003,1.443384e-004
-1.832858e-003,1.773998e-004
-2.281780e-003,1.960373e-004
-2.599428e-003,2.004130e-004
-2.614987e-003,1.887444e-004
-2.245477e-003,1.633001e-004
-1.498842e-003,1.307250e-004
-4.655133e-004,1.000946e-004
5.796460e-004,7.643307e-005
1.202140e-003,5.504044e-005
1.111869e-003,3.283749e-005
4.021844e-004,1.176900e-005
-4.898231e-004,-2.168618e-006
-1.104051e-003,-9.623623e-006
-1.246830e-003,-1.772689e-005
-9.996805e-004,-3.296103e-005
-6.019723e-004,-5.321920e-005
-2.857829e-004,-7.201877e-005
-1.656925e-004,-8.174268e-005
-2.310048e-004,-8.158062e-005
-3.896668e-004,-7.671866e-005
-5.301774e-004,-7.201877e-005
-5.753936e-004,-6.845333e-005
-5.037607e-004,-6.521203e-005
-3.473677e-004,-5.759496e-005
-1.642339e-004,-3.717473e-005
1.841368e-005,4.638125e-006
2.198609e-004,6.735741e-005
4.496696e-004,1.404489e-004
6.776956e-004,2.078681e-004
8.254994e-004,2.519498e-004
8.060515e-004,2.611876e-004
5.571189e-004,2.318537e-004
1.005808e-004,1.692965e-004
-4.139766e-004,8.891209e-005
-7.872129e-004,8.689758e-006
-8.765109e-004,-5.467778e-005
-6.390853e-004,-8.871149e-005
-1.415448e-004,-9.503204e-005
4.665244e-004,-8.692878e-005
1.031971e-003,-7.590833e-005
1.475058e-003,-6.634648e-005
1.769045e-003,-5.840528e-005
1.913608e-003,-5.224680e-005
1.923494e-003,-4.916756e-005
1.826255e-003,-5.451572e-005
1.666296e-003,-7.007399e-005
1.494020e-003,-9.422172e-005
1.349457e-003,-1.214487e-004
1.232122e-003,-1.446240e-004
1.106197e-003,-1.588858e-004
9.391072e-004,-1.601823e-004
7.443045e-004,-1.528894e-004
5.807805e-004,-1.413827e-004
5.336195e-004,-1.316588e-004
6.506307e-004,-1.302002e-004
8.807636e-004,-1.368449e-004
1.094204e-003,-1.470550e-004
1.103766e-003,-1.485136e-004
7.097846e-004,-1.305243e-004
-1.639098e-004,-9.470791e-005
-1.368055e-003,-4.949169e-005
-2.578684e-003,8.041497e-006
-3.454163e-003,8.145709e-005
-3.755120e-003,1.647587e-004
-3.427584e-003,2.456293e-004
-2.601859e-003,3.115899e-004
-1.529148e-003,3.459477e-004
-4.890127e-004,3.339549e-004
2.926282e-004,2.683184e-004
7.175637e-004,1.628139e-004
8.352232e-004,4.483033e-005
7.859553e-004,-6.261898e-005
7.146465e-004,-1.558065e-004
6.977918e-004,-2.442942e-004
7.396046e-004,-3.322956e-004
8.157754e-004,-4.063595e-004
8.919462e-004,-4.408794e-004
9.041011e-004,-4.204592e-004
7.686144e-004,-3.444506e-004
4.438352e-004,-2.220912e-004
-1.788895e-005,-5.953974e-005
-5.024642e-004,1.435281e-004
-9.197823e-004,3.879227e-004
-1.256392e-003,6.601926e-004
-1.530444e-003,9.329488e-004
-1.728488e-003,1.178640e-003
-1.800283e-003,1.363395e-003
-1.700289e-003,1.464362e-003
-1.421050e-003,1.479272e-003
-9.910910e-004,1.428383e-003
-4.632444e-004,1.343785e-003
8.437427e-005,1.250597e-003
5.554983e-004,1.147199e-003
8.807636e-004,1.014143e-003
1.037643e-003,8.332785e-004
1.048826e-003,6.070351e-004
9.661721e-004,3.675024e-004
8.517539e-004,1.534141e-004
7.661834e-004,-5.085794e-006
7.629421e-004,-1.024871e-004
8.596951e-004,-1.512687e-004
1.022247e-003,-1.721751e-004
1.175723e-003,-1.864369e-004
1.240225e-003,-2.112329e-004
1.169078e-003,-2.509389e-004
9.721686e-004,-3.063652e-004
7.143224e-004,-3.734602e-004
4.984512e-004,-4.428242e-004
4.098015e-004,-5.035987e-004
4.720346e-004,-5.457356e-004
6.378276e-004,-5.583767e-004
8.254994e-004,-5.386047e-004
9.686031e-004,-4.969540e-004
1.050122e-003,-4.475241e-004
1.100524e-003,-4.076560e-004
1.159354e-003,-3.883702e-004
1.232446e-003,-3.964735e-004
1.296138e-003,-4.308313e-004
1.331144e-003,-4.835025e-004
1.333251e-003,-5.408737e-004
1.302296e-003,-5.873864e-004
1.236497e-003,-6.115342e-004
1.121431e-003,-6.155858e-004
9.327867e-004,-6.097514e-004
6.772094e-004,-6.052136e-004
4.166082e-004,-6.024585e-004
2.064095e-004,-5.878726e-004
4.823370e-005,-5.436288e-004
-8.611845e-005,-4.565997e-004
-2.185258e-004,-3.272716e-004
-3.958252e-004,-1.736337e-004
-7.092595e-004,-2.226472e-005
-1.228355e-003,1.002567e-004
-1.918591e-003,1.824238e-004
-2.617904e-003,2.260194e-004
-3.127600e-003,2.420638e-004
-3.313166e-003,2.521119e-004
-3.140242e-003,2.718839e-004
-2.694885e-003,3.049452e-004
-2.175627e-003,3.397893e-004
-1.786670e-003,3.595612e-004
-1.609856e-003,3.469201e-004
-1.582792e-003,3.041349e-004
-1.553944e-003,2.419018e-004
-1.390906e-003,1.680000e-004
-1.080713e-003,8.826383e-005
-7.238454e-004,7.485573e-007
-4.454172e-004,-1.005423e-004
-2.948586e-004,-2.196603e-004
-2.319772e-004,-3.485022e-004
-1.950263e-004,-4.632444e-004
-1.524032e-004,-5.330946e-004
-1.079973e-004,-5.444391e-004
-7.218083e-005,-5.198052e-004
-4.851930e-005,-4.929024e-004
-2.388537e-005,-4.768579e-004
2.230325e-005,-4.557894e-004
1.094944e-004,-3.993907e-004
2.435224e-004,-2.781658e-004
4.135290e-004,-7.752899e-005
6.046041e-004,1.908512e-004
7.987585e-004,5.025029e-004
9.791374e-004,8.224201e-004
1.137800e-003,1.107818e-003
1.265183e-003,1.326768e-003
1.354643e-003,1.475058e-003
1.404884e-003,1.578294e-003
1.445400e-003,1.676668e-003
1.546367e-003,1.782497e-003
1.745708e-003,1.859964e-003
1.999665e-003,1.840841e-003
2.209540e-003,1.667592e-003
2.286036e-003,1.346864e-003
2.188148e-003,9.530449e-004
1.925601e-003,5.762426e-004
1.541019e-003,2.759355e-004
1.084642e-003,6.508849e-005
6.070351e-004,-7.072225e-005
1.618415e-004,-1.551583e-004
-1.930815e-004,-2.122053e-004
-4.125180e-004,-2.585559e-004
-4.870680e-004,-3.053928e-004
-4.493068e-004,-3.574158e-004
-3.634122e-004,-4.157593e-004
-2.891863e-004,-4.760476e-004
-2.606628e-004,-5.311498e-004
-2.909690e-004,-5.728005e-004
-3.718396e-004,-5.985689e-004
-4.815578e-004,-6.078067e-004
-6.304958e-004,-6.039171e-004
-8.794281e-004,-5.903036e-004
-1.249747e-003,-5.676145e-004
-1.629142e-003,-5.361738e-004
-1.768032e-003,-4.979264e-004
-1.461729e-003,-4.561135e-004
-7.808923e-004,-4.168937e-004
-9.162867e-005,-3.854531e-004
2.221298e-004,-3.642225e-004
4.191315e-005,-3.520676e-004
-4.638926e-004,-3.436402e-004
-1.013294e-003,-3.365093e-004
-1.381182e-003,-3.269475e-004
-1.495114e-003,-3.151167e-004
-1.421861e-003,-3.049066e-004
-1.271788e-003,-3.047445e-004
-1.188325e-003,-3.175477e-004
-1.327863e-003,-3.394265e-004
-1.744209e-003,-3.564434e-004
-2.288262e-003,-3.557951e-004
-2.674951e-003,-3.318095e-004
-2.669441e-003,-2.925897e-004
-2.242236e-003,-2.506147e-004
-1.559778e-003,-2.160948e-004
-8.614388e-004,-1.929195e-004
-3.426678e-004,-1.786577e-004
-7.526008e-005,-1.669890e-004
7.879432e-006,-1.522411e-004
3.089271e-005,-1.314967e-004
9.977047e-005,-1.042698e-004
2.654013e-004,-7.833932e-005
5.182233e-004,-6.294311e-005
8.115617e-004,-6.035007e-005
1.085452e-003,-5.662256e-005
1.290141e-003,-3.198864e-005
1.402777e-003,1.760335e-005
1.413635e-003,7.140904e-005
1.317530e-003,9.588091e-005
1.149955e-003,6.962632e-005
9.909682e-004,-3.627206e-006
9.233868e-004,-9.114248e-005
9.872407e-004,-1.592099e-004
1.179937e-003,-1.830335e-004
1.470844e-003,-1.559686e-004
1.802269e-003,-9.600444e-005
2.101280e-003,-2.793700e-005
2.282632e-003,3.348575e-005
2.269181e-003,9.166720e-005
2.022841e-003,1.616794e-004
1.585425e-003,2.645909e-004
1.077511e-003,4.187151e-004
6.704027e-004,6.274553e-004
5.180612e-004,8.733086e-004
6.725095e-004,1.121431e-003
1.053850e-003,1.327740e-003
1.508282e-003,1.466144e-003
1.883140e-003,1.536319e-003
2.088801e-003,1.547988e-003
2.104684e-003,1.493858e-003
1.957366e-003,1.346378e-003
1.685906e-003,1.098904e-003
1.333575e-003,7.887104e-004
9.583930e-004,4.851619e-004
6.279415e-004,2.480603e-004
3.971604e-004,1.030118e-004
2.895490e-004,3.964424e-005
2.827423e-004,1.971020e-005
3.162898e-004,6.582909e-006
3.104554e-004,-2.064406e-005
2.091646e-004,-6.488790e-005
3.089271e-005,-1.156143e-004
-1.556445e-004,-1.616409e-004
-2.794623e-004,-1.958367e-004
-3.096065e-004,-2.240360e-004
-2.546664e-004,-2.536940e-004
-1.336036e-004,-2.851347e-004
4.110282e-005,-3.147926e-004
2.417397e-004,-3.366714e-004
3.828986e-004,-3.444506e-004
3.517821e-004,-3.361852e-004
8.761557e-005,-3.183580e-004
-3.494746e-004,-3.018274e-004
-7.933713e-004,-2.950206e-004
-1.077310e-003,-3.037722e-004
-1.121716e-003,-3.300267e-004
-9.594883e-004,-3.645466e-004
-6.891634e-004,-3.993907e-004
-4.246728e-004,-4.259694e-004
-2.514251e-004,-4.423380e-004
-2.062088e-004,-4.546549e-004
-2.812451e-004,-4.674581e-004
-4.261314e-004,-4.807475e-004
-5.742591e-004,-4.929024e-004
-6.779809e-004,-4.969540e-004
-7.423208e-004,-4.899852e-004
-8.227052e-004,-4.739407e-004
-9.802326e-004,-4.504412e-004
-1.205179e-003,-4.241867e-004
-1.407599e-003,-3.969597e-004
-1.490414e-003,-3.673017e-004
-1.403547e-003,-3.340784e-004
-1.168877e-003,-2.993964e-004
-8.692179e-004,-2.677937e-004
-6.061860e-004,-2.431597e-004
-4.366657e-004,-2.261429e-004
-3.361852e-004,-2.096122e-004
-2.457528e-004,-1.854645e-004
-1.178833e-004,-1.501342e-004
4.823370e-005,-1.062146e-004
2.044647e-004,-6.051213e-005
2.833905e-004,-2.113026e-005
2.362295e-004,9.986281e-006
5.034055e-005,3.559260e-005
-2.502906e-004,5.763349e-005
-6.079687e-004,7.983644e-005
-9.468472e-004,1.059290e-004
-1.196266e-003,1.367214e-004
-1.307929e-003,1.697827e-004
-1.258499e-003,2.055991e-004
-1.067748e-003,2.443328e-004
-7.940196e-004,2.835526e-004
-5.035987e-004,3.209897e-004
-2.442942e-004,3.551855e-004
-3.960571e-005,3.837090e-004
1.130598e-004,4.015361e-004
2.444948e-004,4.047775e-004
3.691231e-004,3.969983e-004
4.796517e-004,3.872744e-004
5.726772e-004,3.825745e-004
6.595443e-004,3.835469e-004
7.864416e-004,3.887330e-004
1.012361e-003,3.992672e-004
1.338923e-003,4.172565e-004
1.676992e-003,4.428628e-004
1.926249e-003,4.718725e-004
2.026568e-003,4.995857e-004
1.901939e-003,5.256782e-004
1.454314e-003,5.503122e-004
6.221072e-004,5.739738e-004
-4.946851e-004,6.008766e-004
-1.601267e-003,6.363689e-004
-2.472045e-003,6.775336e-004
-3.153531e-003,7.122156e-004
-3.911676e-003,7.297186e-004
-4.922161e-003,7.266394e-004
-4.967863e-003,6.989262e-004
-4.968025e-003,6.433378e-004
-4.968025e-003,5.529052e-004
-4.967702e-003,4.237391e-004
-3.939389e-003,2.616738e-004
-1.757498e-003,7.708133e-005
2.574601e-004,-1.164247e-004
1.681044e-003,-3.042584e-004
2.448750e-003,-4.682684e-004
2.733176e-003,-5.925725e-004
2.749383e-003,-6.669604e-004
2.661705e-003,-6.813843e-004
2.558793e-003,-6.295234e-004
2.480515e-003,-5.154294e-004
2.449398e-003,-3.650328e-004
2.462850e-003,-2.099363e-004
2.473384e-003,-7.509801e-005
2.343893e-003,3.186510e-005
1.891891e-003,1.161391e-004
1.049150e-003,1.827479e-004
-2.761287e-005,2.308813e-004
-9.693743e-004,2.582704e-004
-1.411975e-003,2.611876e-004
-1.193673e-003,2.329882e-004
-4.284004e-004,1.710792e-004
5.695980e-004,8.437427e-005
1.454476e-003,-1.043395e-005
2.014413e-003,-9.422172e-005
2.187662e-003,-1.538618e-004
2.039209e-003,-1.891920e-004
1.716860e-003,-2.097743e-004
1.379601e-003,-2.280877e-004
1.144606e-003,-2.485079e-004
1.064870e-003,-2.695764e-004
1.131803e-003,-2.922655e-004
1.281714e-003,-3.160891e-004
1.419308e-003,-3.376438e-004
1.461769e-003,-3.517435e-004
1.387056e-003,-3.572537e-004
1.242818e-003,-3.535262e-004
1.110248e-003,-3.468815e-004
1.057901e-003,-3.415334e-004
1.112841e-003,-3.379679e-004
1.253676e-003,-3.309991e-004
1.423035e-003,-3.130099e-004
1.562412e-003,-2.791382e-004
1.649765e-003,-2.287359e-004
1.701140e-003,-1.663408e-004
1.738091e-003,-9.924574e-005
1.760780e-003,-3.587821e-005
1.749435e-003,1.873781e-005
1.685906e-003,6.184718e-005
1.571487e-003,8.923623e-005
1.430490e-003,1.009049e-004
1.286252e-003,9.782569e-005
1.151737e-003,8.534666e-005
1.032457e-003,6.573675e-005
9.224145e-004,4.142696e-005
7.963275e-004,1.468618e-005
6.195141e-004,-1.173047e-005
3.697714e-004,-3.279896e-005
3.121684e-005,-4.657452e-005
-4.081422e-004,-5.532604e-005
-9.233478e-004,-6.229485e-005
-1.429478e-003,-6.634648e-005
-1.779863e-003,-5.532604e-005
-1.828483e-003,-1.302700e-005
-1.553134e-003,7.011252e-005
-1.164825e-003,1.861513e-004
-1.036631e-003,3.171001e-004
-1.405006e-003,4.365423e-004
-2.160717e-003,5.222749e-004
-2.929070e-003,5.582534e-004
-3.334397e-003,5.418848e-004
-3.179299e-003,4.820827e-004
-2.513371e-003,4.007258e-004
-1.592029e-003,3.187208e-004
-7.436173e-004,2.511395e-004
-2.643903e-004,2.026820e-004
-3.306750e-004,1.660552e-004
-9.150825e-004,1.269974e-004
-1.784239e-003,8.194328e-005
-2.594242e-003,4.029250e-005
-3.039275e-003,2.651694e-005
-2.956135e-003,6.314371e-005
-2.362002e-003,1.607070e-004
-1.445360e-003,3.068900e-004
-5.332566e-004,4.717105e-004
-1.302700e-005,6.185417e-004
-1.496481e-004,7.196706e-004
-9.003344e-004,7.752590e-004
-1.874347e-003,8.060515e-004
-2.576253e-003,8.264717e-004
-2.708174e-003,8.297130e-004
-2.280969e-003,7.851450e-004
-1.541141e-003,6.582477e-004
-7.885094e-004,4.436732e-004
-2.146363e-004,1.699448e-004
1.556830e-004,-1.088076e-004
4.167703e-004,-3.384541e-004
6.807749e-004,-4.927403e-004
9.901578e-004,-5.749074e-004
1.305213e-003,-6.071584e-004
1.549446e-003,-6.197995e-004
1.664837e-003,-6.342233e-004
1.639231e-003,-6.561021e-004
1.512171e-003,-6.744154e-004
1.340868e-003,-6.758740e-004
1.182692e-003,-6.575607e-004
1.101173e-003,-6.304958e-004
1.146713e-003,-6.047274e-004
1.337464e-003,-5.847933e-004
1.651224e-003,-5.716661e-004
2.036778e-003,-5.596732e-004
2.416013e-003,-5.437909e-004
2.705301e-003,-5.178604e-004
2.857805e-003,-4.813957e-004
2.866881e-003,-4.392588e-004
2.739659e-003,-3.948528e-004
2.481811e-003,-3.502849e-004
2.106953e-003,-3.105789e-004
1.646362e-003,-2.786520e-004
1.146875e-003,-2.530457e-004
6.504686e-004,-2.381357e-004
1.793446e-004,-2.365151e-004
-2.438080e-004,-2.476975e-004
-5.643732e-004,-2.639041e-004
-6.993735e-004,-2.744383e-004
-6.217443e-004,-2.731418e-004
-4.601652e-004,-2.572594e-004
-4.536825e-004,-2.321393e-004
-7.351899e-004,-2.052365e-004
-1.172118e-003,-1.797922e-004
-1.476315e-003,-1.470550e-004
-1.430288e-003,-9.195280e-005
-1.024801e-003,-3.303076e-006
-4.335865e-004,1.214872e-004
1.216493e-004,2.790148e-004
4.875929e-004,4.545315e-004
6.290760e-004,6.324793e-004
6.081695e-004,7.943827e-004
5.204921e-004,9.327867e-004
4.391353e-004,1.050122e-003
3.900295e-004,1.143796e-003
3.569682e-004,1.195171e-003
3.179104e-004,1.180909e-003
2.726942e-004,1.088045e-003
2.397949e-004,9.344073e-004
2.333123e-004,7.609973e-004
2.457913e-004,6.115729e-004
2.396328e-004,5.110924e-004
1.749688e-004,4.652279e-004
3.316162e-005,4.640934e-004
-1.853024e-004,4.875929e-004
-4.752372e-004,5.084993e-004
-8.408565e-004,5.093097e-004
-1.266440e-003,4.820827e-004
-1.680841e-003,4.320045e-004
-1.981310e-003,3.715541e-004
-2.079684e-003,3.101313e-004
-1.947763e-003,2.490327e-004
-1.622498e-003,1.812893e-004
-1.181356e-003,1.009049e-004
-6.992114e-004,8.527692e-006
-2.361909e-004,-8.952183e-005
1.610312e-004,-1.844921e-004
4.687933e-004,-2.658489e-004
7.084881e-004,-3.279199e-004
9.387831e-004,-3.687603e-004
1.208460e-003,-3.945287e-004
1.531943e-003,-4.087905e-004
1.897726e-003,-4.108973e-004
2.258971e-003,-4.034423e-004
2.544531e-003,-3.920977e-004
2.704977e-003,-3.802670e-004
2.730907e-003,-3.758912e-004
2.633992e-003,-3.864254e-004
2.453288e-003,-4.042526e-004
2.252002e-003,-4.105732e-004
2.076809e-003,-3.912874e-004
1.922198e-003,-3.447747e-004
1.711674e-003,-2.830278e-004
1.321906e-003,-2.152845e-004
6.601926e-004,-1.457585e-004
-2.744383e-004,-7.218083e-005
-1.373241e-003,5.286387e-006
-2.434769e-003,7.562274e-005
-3.223219e-003,1.266733e-004
-3.589488e-003,1.483901e-004
-3.560641e-003,1.398006e-004
-3.295501e-003,1.052807e-004
-2.945763e-003,4.823370e-005
-2.584842e-003,-2.550602e-005
-2.188754e-003,-1.088076e-004
-1.692024e-003,-1.917850e-004
-1.075851e-003,-2.674695e-004
-4.308313e-004,-3.292164e-004
7.756752e-005,-3.728119e-004
3.205035e-004,-3.966356e-004
2.555152e-004,-4.013355e-004
-8.919769e-005,-3.961493e-004
-6.481609e-004,-3.917736e-004
-1.315708e-003,-3.924218e-004
-1.973207e-003,-3.929081e-004
-2.575929e-003,-3.875599e-004
-3.164389e-003,-3.664914e-004
-3.735024e-003,-3.219235e-004
-4.150237e-003,-2.535319e-004
-4.172440e-003,-1.660166e-004
-3.601157e-003,-7.007399e-005
-2.443683e-003,2.424803e-005
-1.000977e-003,1.106288e-004
2.365536e-004,1.837203e-004
8.554814e-004,2.402811e-004
7.773659e-004,2.786906e-004
2.624841e-004,3.007315e-004
-2.271153e-004,3.055935e-004
-3.214373e-004,2.965178e-004
6.427817e-005,2.861456e-004
7.622938e-004,2.921420e-004
1.498234e-003,3.149933e-004
2.049257e-003,3.427064e-004
2.307104e-003,3.568061e-004
2.271774e-003,3.435168e-004
2.024623e-003,2.968419e-004
1.678289e-003,2.177540e-004
1.330009e-003,1.085220e-004
1.041371e-003,-1.724069e-005
8.483506e-004,-1.434896e-004
7.726660e-004,-2.569353e-004
8.065377e-004,-3.392644e-004
9.117182e-004,-3.692465e-004
1.033916e-003,-3.366714e-004
1.128562e-003,-2.593663e-004
1.178802e-003,-1.616409e-004
1.191443e-003,-4.819517e-005
1.180099e-003,8.988449e-005
1.156761e-003,2.592428e-004
1.107655e-003,4.490213e-004
1.010740e-003,6.366931e-004
8.663398e-004,8.013516e-004
7.238843e-004,9.324626e-004
6.451205e-004,1.036184e-003
6.738061e-004,1.129696e-003
8.117238e-004,1.234553e-003
1.015278e-003,1.352861e-003
1.169726e-003,1.458527e-003
9.828649e-004,1.483972e-003
4.188772e-004,1.399374e-003
-4.398147e-005,1.263725e-003
-2.048200e-005,1.123052e-003
4.511282e-004,9.728169e-004
1.040398e-003,7.872519e-004
1.439404e-003,5.592257e-004
1.509578e-003,3.109416e-004
1.339733e-003,8.307774e-005
1.078808e-003,-1.005423e-004
7.982723e-004,-2.551526e-004
5.347540e-004,-4.058733e-004
2.974902e-004,-5.713420e-004
1.812893e-004,-7.470207e-004
2.628082e-004,-9.105446e-004
4.815964e-004,-1.037766e-003
7.094605e-004,-1.118312e-003
8.509436e-004,-1.160611e-003
8.809257e-004,-1.181356e-003
8.361956e-004,-1.194321e-003
7.734763e-004,-1.203559e-003
7.180499e-004,-1.206962e-003
6.180556e-004,-1.190918e-003
3.689610e-004,-1.134519e-003
-9.081835e-005,-1.021235e-003
-6.561021e-004,-8.489598e-004
-1.074068e-003,-6.279027e-004
-1.137112e-003,-3.736223e-004
-8.356704e-004,-1.018388e-004
-3.459091e-004,1.761032e-004
9.863601e-005,4.498317e-004
3.393030e-004,6.939021e-004
3.397893e-004,8.699053e-004
1.526038e-004,9.420244e-004
-1.287416e-004,9.066941e-004
-4.162455e-004,7.984344e-004
-6.415162e-004,6.668373e-004
-7.549619e-004,5.473950e-004
-7.291936e-004,4.516144e-004
-5.486528e-004,3.746333e-004
-2.049123e-004,3.042970e-004
2.900352e-004,2.226160e-004
8.527263e-004,1.193804e-004
1.264049e-003,-7.100305e-007
1.246221e-003,-1.199901e-004
6.691061e-004,-2.141500e-004
-2.809209e-004,-2.702246e-004
-1.177466e-003,-2.888622e-004
-1.678410e-003,-2.875656e-004
-1.701261e-003,-2.893484e-004
-1.420888e-003,-3.076617e-004
-1.134033e-003,-3.356990e-004
-1.088978e-003,-3.476919e-004
-1.332887e-003,-3.248407e-004
-1.717468e-003,-2.637420e-004
-2.025392e-003,-1.718510e-004
-2.100914e-003,-6.472583e-005
-1.914701e-003,3.380988e-005
-1.542275e-003,1.044704e-004
-1.086710e-003,1.427178e-004
-6.270924e-004,1.613553e-004
-2.159328e-004,1.795066e-004
1.180839e-004,2.041406e-004
3.655576e-004,2.352571e-004
5.315126e-004,2.689667e-004
6.180556e-004,3.049452e-004
6.366931e-004,3.441650e-004
6.047662e-004,3.872744e-004
5.388056e-004,4.302217e-004
4.469145e-004,4.660382e-004
3.349273e-004,4.825689e-004
2.119197e-004,4.679830e-004
9.085688e-005,4.216323e-004
-7.840905e-006,3.527545e-004
-6.067420e-005,2.765838e-004
-5.791909e-005,2.102990e-004
-1.520357e-006,1.688103e-004
9.571884e-005,1.555210e-004
2.135403e-004,1.621656e-004
3.299033e-004,1.731861e-004
4.329769e-004,1.790204e-004
5.313505e-004,1.739964e-004
6.352345e-004,1.569795e-004
7.470596e-004,1.276457e-004
8.540229e-004,8.178122e-005
9.345694e-004,2.003433e-005
9.626067e-004,-5.791909e-005
9.253316e-004,-1.465688e-004
8.211235e-004,-2.319772e-004
6.564650e-004,-3.002067e-004
4.533971e-004,-3.421817e-004
2.401191e-004,-3.595226e-004
2.424803e-005,-3.617915e-004
-1.924333e-004,-3.611433e-004
-4.058733e-004,-3.676259e-004
-6.014861e-004,-3.836704e-004
-7.554481e-004,-4.032803e-004
-8.512287e-004,-4.099249e-004
-8.923933e-004,-3.920977e-004
-8.990379e-004,-3.436402e-004
-9.011448e-004,-2.681178e-004
-8.998482e-004,-1.781716e-004
-8.682456e-004,-8.433573e-005
-7.776510e-004,1.079661e-005
-6.217443e-004,1.057669e-004
-4.130042e-004,1.893926e-004
-1.700683e-004,2.461155e-004
6.897806e-005,2.629703e-004
2.360674e-004,2.359054e-004
2.665357e-004,1.748067e-004
1.488763e-004,9.604298e-005
-7.704279e-005,1.679302e-005
-3.319715e-004,-5.095028e-005
-5.290429e-004,-9.924574e-005
-6.000275e-004,-1.232314e-004
-5.071641e-004,-1.238797e-004
-2.700626e-004,-1.086455e-004
5.811968e-005,-9.098041e-005
4.157979e-004,-7.963584e-005
7.584042e-004,-8.174268e-005
1.063736e-003,-1.079973e-004
1.322716e-003,-1.742820e-004
1.522543e-003,-2.872415e-004
1.636638e-003,-4.209454e-004
1.634855e-003,-5.317981e-004
1.498558e-003,-5.822003e-004
1.245573e-003,-5.587008e-004
9.295454e-004,-4.765338e-004
6.316690e-004,-3.690845e-004
4.096394e-004,-2.668213e-004
2.193747e-004,-1.853024e-004
-7.039812e-005,-1.233935e-004
-5.655076e-004,-7.088431e-005
-1.218631e-003,-1.772689e-005
-1.803687e-003,4.353380e-005
-2.075957e-003,1.103047e-004
-1.972397e-003,1.731861e-004
-1.626387e-003,2.235884e-004
-1.240510e-003,2.616738e-004
-9.486300e-004,2.936006e-004
-7.923990e-004,3.242310e-004
-7.714926e-004,3.568061e-004
-8.402083e-004,3.922984e-004
-9.329096e-004,4.253598e-004
-1.030797e-003,4.496696e-004
-1.179897e-003,4.572867e-004
-1.449250e-003,4.456179e-004
-1.845824e-003,4.185530e-004
-2.244181e-003,3.882468e-004
-2.426180e-003,3.722023e-004
-2.173034e-003,3.850055e-004
-1.393013e-003,4.302217e-004
-1.992400e-004,4.966686e-004
1.117217e-003,5.666808e-004
2.261402e-003,6.212969e-004
