-4.041603e-005,3.007315e-004
-4.803310e-005,2.733424e-004
-5.402952e-005,2.446569e-004
-6.018800e-005,2.164575e-004
-6.812920e-005,1.850168e-004
-7.526008e-005,1.509831e-004
-7.704279e-005,1.171115e-004
-6.958779e-005,8.502253e-005
-5.273300e-005,5.666109e-005
-2.971972e-005,3.202716e-005
-2.654814e-006,1.095867e-005
2.376183e-005,-1.124428e-005
4.272347e-005,-3.587821e-005
5.098881e-005,-6.035007e-005
4.790957e-005,-8.255302e-005
3.915804e-005,-1.013526e-004
3.170304e-005,-1.214487e-004
3.462021e-005,-1.455964e-004
4.645098e-005,-1.697442e-004
6.330578e-005,-1.929195e-004
7.756752e-005,-2.118811e-004
8.810177e-005,-2.301945e-004
9.733949e-005,-2.509389e-004
1.056048e-004,-2.723315e-004
1.109530e-004,-2.909690e-004
1.103047e-004,-3.062031e-004
9.879808e-005,-3.203028e-004
7.821578e-005,-3.339163e-004
5.196120e-005,-3.450988e-004
1.906194e-005,-3.509331e-004
-1.707863e-005,-3.476919e-004
-5.500191e-005,-3.373197e-004
-9.308726e-005,-3.220855e-004
-1.277692e-004,-3.049066e-004
-1.524032e-004,-2.872415e-004
-1.689338e-004,-2.713591e-004
-1.828714e-004,-2.626076e-004
-1.958367e-004,-2.572594e-004
-2.055606e-004,-2.473734e-004
-2.042641e-004,-2.290601e-004
-1.836818e-004,-2.052365e-004
-1.394379e-004,-1.784957e-004
-7.817725e-005,-1.475412e-004
-1.513384e-005,-1.138316e-004
4.045456e-005,-8.206682e-005
8.631905e-005,-5.565017e-005
1.227837e-004,-3.458168e-005
1.482280e-004,-1.805102e-005
1.584381e-004,-4.275467e-006
1.569795e-004,1.176900e-005
1.526038e-004,2.943412e-005
1.472556e-004,4.709924e-005
1.383420e-004,6.622294e-005
1.258630e-004,8.956036e-005
1.075496e-004,1.163011e-004
8.016057e-005,1.422316e-004
4.434413e-005,1.621656e-004
1.072688e-006,1.772377e-004
-4.398147e-005,1.856651e-004
-8.336335e-005,1.903650e-004
-1.130213e-004,1.966855e-004
-1.331174e-004,2.065715e-004
-1.431655e-004,2.190506e-004
-1.421931e-004,2.349330e-004
-1.357104e-004,2.542187e-004
-1.324691e-004,2.739907e-004
-1.378173e-004,2.947351e-004
-1.478653e-004,3.167760e-004
-1.585616e-004,3.388169e-004
-1.718510e-004,3.581026e-004
-1.806025e-004,3.734989e-004
-1.786577e-004,3.819262e-004
-1.590478e-004,3.846814e-004
-1.216107e-004,3.811159e-004
-7.023606e-005,3.709058e-004
-1.189254e-005,3.550234e-004
4.774750e-005,3.363859e-004
1.064152e-004,3.159656e-004
1.644345e-004,2.965178e-004
2.232643e-004,2.775562e-004
2.769079e-004,2.590807e-004
3.146691e-004,2.406053e-004
3.323342e-004,2.187264e-004
3.295791e-004,1.937684e-004
3.128864e-004,1.722137e-004
2.947351e-004,1.550348e-004
2.895490e-004,1.388282e-004
3.064038e-004,1.195424e-004
3.464339e-004,9.458438e-005
4.057499e-004,6.541262e-005
4.741415e-004,3.575467e-005
5.334574e-004,1.063454e-005
5.644119e-004,-6.544382e-006
5.542018e-004,-2.031993e-005
4.994237e-004,-3.312309e-005
4.085050e-004,-4.365734e-005
2.995970e-004,-5.159854e-005
1.940925e-004,-6.213279e-005
1.073875e-004,-8.125649e-005
4.256141e-005,-1.107524e-004
-4.113403e-006,-1.493239e-004
-3.685060e-005,-1.906506e-004
-6.099833e-005,-2.279256e-004
-7.979791e-005,-2.566112e-004
-9.162867e-005,-2.718453e-004
-9.324933e-005,-2.723315e-004
-8.611845e-005,-2.613110e-004
-7.444975e-005,-2.444563e-004
-6.602235e-005,-2.272773e-004
-6.326724e-005,-2.130156e-004
-6.683268e-005,-2.036158e-004
-8.028410e-005,-1.977815e-004
-1.081593e-004,-1.943781e-004
-1.538618e-004,-1.924333e-004
-2.133397e-004,-1.903264e-004
-2.726556e-004,-1.843300e-004
-3.109030e-004,-1.734716e-004
-3.162512e-004,-1.569410e-004
-2.875656e-004,-1.386276e-004
-2.395943e-004,-1.217728e-004
-1.924333e-004,-1.102662e-004
-1.606685e-004,-1.054042e-004
-1.442999e-004,-1.008664e-004
-1.413827e-004,-9.081835e-005
-1.413827e-004,-7.023606e-005
-1.355484e-004,-4.041603e-005
-1.208004e-004,-7.516774e-006
-9.859748e-005,1.727922e-005
-7.542214e-005,2.797553e-005
-5.386745e-005,2.603075e-005
-3.263690e-005,2.149292e-005
-3.627206e-006,2.165498e-005
3.753739e-005,3.397195e-005
8.712937e-005,6.233338e-005
1.360731e-004,1.054428e-004
1.738343e-004,1.582761e-004
1.900409e-004,2.128921e-004
1.835583e-004,2.592428e-004
1.589243e-004,2.919800e-004
1.213252e-004,3.111037e-004
7.886404e-005,3.175863e-004
3.753739e-005,3.119140e-004
2.693341e-006,3.008936e-004
-2.210265e-005,2.936006e-004
-3.960571e-005,2.953834e-004
-5.759496e-005,3.052694e-004
-7.866345e-005,3.216380e-004
-9.486997e-005,3.452995e-004
-1.002181e-004,3.777126e-004
-9.260107e-005,4.109360e-004
-7.542214e-005,4.311941e-004
-4.803310e-005,4.320045e-004
1.002961e-007,4.203358e-004
8.129502e-005,4.054258e-004
1.981441e-004,3.958639e-004
3.357376e-004,4.008879e-004
4.684692e-004,4.240633e-004
5.720290e-004,4.585832e-004
6.295622e-004,4.908342e-004
6.331276e-004,5.042856e-004
5.848321e-004,4.896998e-004
4.906721e-004,4.478869e-004
3.600474e-004,3.817642e-004
2.064095e-004,3.020280e-004
4.256141e-005,2.195368e-004
-1.209625e-004,1.432040e-004
-2.690902e-004,7.627100e-005
-3.867496e-004,1.582063e-005
-4.627582e-004,-4.300908e-005
-4.953333e-004,-1.031353e-004
-4.956574e-004,-1.613168e-004
-4.796130e-004,-2.169052e-004
-4.635685e-004,-2.724935e-004
-4.491447e-004,-3.311612e-004
-4.332623e-004,-3.888564e-004
-4.151110e-004,-4.412035e-004
-3.854531e-004,-4.856094e-004
-3.298647e-004,-5.233706e-004
-2.460769e-004,-5.603215e-004
-1.485136e-004,-6.008379e-004
-5.808115e-005,-6.432990e-004
1.160693e-005,-6.804119e-004
6.184718e-005,-7.035872e-004
9.928428e-005,-7.052079e-004
1.316974e-004,-6.787913e-004
1.569795e-004,-6.191512e-004
1.791825e-004,-5.248293e-004
2.090025e-004,-4.042526e-004
2.572980e-004,-2.747625e-004
3.248792e-004,-1.624512e-004
3.979707e-004,-8.401160e-005
4.649037e-004,-3.928157e-005
5.266506e-004,-1.902341e-005
5.932595e-004,-1.189254e-005
6.632718e-004,-1.140634e-005
7.196706e-004,-9.623623e-006
7.323117e-004,2.045080e-006
6.747784e-004,2.619281e-005
5.417228e-004,6.346784e-005
3.410858e-004,1.127357e-004
9.037068e-005,1.709172e-004
-1.715269e-004,2.294227e-004
-3.825359e-004,2.783665e-004
-4.888507e-004,3.117519e-004
-4.843129e-004,3.321722e-004
-4.047388e-004,3.428685e-004
-3.002067e-004,3.456236e-004
-2.120432e-004,3.397893e-004
-1.637477e-004,3.307136e-004
-1.496481e-004,3.195311e-004
-1.543479e-004,3.067279e-004
-1.558065e-004,2.916559e-004
-1.387897e-004,2.752873e-004
-1.041077e-004,2.569738e-004
-6.018800e-005,2.346088e-004
-1.318906e-005,2.073819e-004
3.737532e-005,1.739964e-004
9.555677e-005,1.391524e-004
1.623277e-004,1.103047e-004
2.329882e-004,9.118101e-005
2.968419e-004,8.064677e-005
3.386548e-004,7.157111e-005
3.454615e-004,5.730935e-005
3.065659e-004,3.640293e-005
2.278021e-004,1.306552e-005
1.287802e-004,-7.516774e-006
2.862379e-005,-2.583016e-005
-5.759496e-005,-4.106429e-005
-1.193418e-004,-4.803310e-005
-1.579134e-004,-4.268495e-005
-1.802784e-004,-2.194059e-005
-1.947022e-004,1.014835e-005
-2.037779e-004,4.839576e-005
-1.951884e-004,8.842590e-005
-1.551583e-004,1.240803e-004
-7.509801e-005,1.527658e-004
3.834771e-005,1.696206e-004
1.624898e-004,1.749688e-004
2.694529e-004,1.772377e-004
3.339549e-004,1.835583e-004
3.498373e-004,1.940925e-004
3.292550e-004,2.041406e-004
2.867939e-004,2.151610e-004
2.342847e-004,2.365536e-004
1.748067e-004,2.655633e-004
1.111150e-004,2.885766e-004
4.839576e-005,2.854973e-004
-2.816880e-006,2.462775e-004
-3.134038e-005,1.822617e-004
-3.198864e-005,1.163011e-004
-9.137427e-006,6.881599e-005
3.121684e-005,4.920609e-005
8.178122e-005,5.390598e-005
1.342904e-004,7.432621e-005
1.846927e-004,9.750156e-005
2.281262e-004,1.146805e-004
2.608634e-004,1.169494e-004
2.795009e-004,1.000946e-004
2.845250e-004,6.589881e-005
2.756114e-004,2.311357e-005
2.506533e-004,-1.675450e-005
2.133783e-004,-4.527799e-005
1.726999e-004,-6.083626e-005
1.331559e-004,-6.764301e-005
9.361199e-005,-6.861539e-005
5.358185e-005,-6.796714e-005
1.112074e-005,-6.683268e-005
-4.203669e-005,-7.234290e-005
-1.198280e-004,-9.324933e-005
-2.300324e-004,-1.319829e-004
-3.616295e-004,-1.780095e-004
-4.799371e-004,-2.144742e-004
-5.347152e-004,-2.327876e-004
-4.907955e-004,-2.292221e-004
-3.551469e-004,-2.086398e-004
-1.676373e-004,-1.786577e-004
2.408596e-005,-1.462447e-004
1.723757e-004,-1.159385e-004
2.550291e-004,-8.871149e-005
2.877662e-004,-6.423963e-005
3.122381e-004,-4.754691e-005
3.642611e-004,-4.398147e-005
4.568005e-004,-6.116039e-005
5.746220e-004,-1.005423e-004
6.741302e-004,-1.600202e-004
7.050846e-004,-2.395943e-004
6.490100e-004,-3.332680e-004
5.349160e-004,-4.248349e-004
4.219564e-004,-5.018159e-004
3.678266e-004,-5.512458e-004
3.942432e-004,-5.690731e-004
4.793275e-004,-5.634008e-004
5.783495e-004,-5.400634e-004
6.550064e-004,-4.997091e-004
6.904988e-004,-4.390967e-004
6.804507e-004,-3.509331e-004
6.285898e-004,-2.303566e-004
5.371849e-004,-8.255302e-005
4.073705e-004,7.935024e-005
2.454672e-004,2.386605e-004
6.589881e-005,3.817642e-004
-1.023250e-004,4.919686e-004
-2.337599e-004,5.598741e-004
-3.394265e-004,5.824011e-004
-4.723200e-004,5.697600e-004
-7.021286e-004,5.386435e-004
-1.064993e-003,5.091476e-004
-1.544544e-003,4.859722e-004
-2.078225e-003,4.551798e-004
-2.582249e-003,3.900295e-004
-2.978014e-003,2.731804e-004
-3.208471e-003,1.135460e-004
-3.240074e-003,-4.884343e-005
-3.081250e-003,-1.692580e-004
-2.794231e-003,-2.237119e-004
-2.459890e-003,-2.170672e-004
-2.125873e-003,-1.687718e-004
-1.790883e-003,-9.341139e-005
-1.419430e-003,2.045080e-006
-9.919014e-004,1.117633e-004
-5.214258e-004,2.347709e-004
-5.013995e-005,3.759298e-004
3.697714e-004,5.352402e-004
7.050846e-004,6.943883e-004
9.528828e-004,8.290648e-004
1.132614e-003,9.245213e-004
1.269559e-003,9.831890e-004
1.377495e-003,1.019168e-003
1.456421e-003,1.049312e-003
1.490941e-003,1.086101e-003
1.460634e-003,1.126941e-003
1.354805e-003,1.159840e-003
1.178154e-003,1.165999e-003
9.532070e-004,1.120134e-003
7.332841e-004,1.005068e-003
5.801322e-004,8.290648e-004
5.355643e-004,6.161107e-004
5.981215e-004,3.885709e-004
7.256670e-004,1.618415e-004
8.606675e-004,-5.937768e-005
9.642274e-004,-2.721694e-004
1.014792e-003,-4.630823e-004
1.007337e-003,-6.214201e-004
9.468864e-004,-7.455621e-004
8.541849e-004,-8.381014e-004
7.532181e-004,-9.085998e-004
6.666752e-004,-9.646744e-004
6.117350e-004,-1.010863e-003
5.971491e-004,-1.039062e-003
6.386379e-004,-1.037280e-003
7.387943e-004,-1.000653e-003
8.831946e-004,-9.402025e-004
1.042343e-003,-8.671111e-004
1.176533e-003,-7.833233e-004
1.255783e-003,-6.833291e-004
1.259997e-003,-5.604835e-004
1.186905e-003,-4.136524e-004
1.053850e-003,-2.553146e-004
8.854635e-004,-1.094559e-004
7.007089e-004,-1.844488e-006
5.054200e-004,5.617490e-005
2.992729e-004,7.205730e-005
9.458438e-005,6.768154e-005
-7.850138e-005,7.043665e-005
-1.937298e-004,1.023635e-004
-2.455907e-004,1.628139e-004
-2.421874e-004,2.347709e-004
-2.018331e-004,2.940868e-004
-1.491618e-004,3.182346e-004
-1.047560e-004,3.044590e-004
-8.125649e-005,2.657254e-004
-8.158062e-005,2.328261e-004
-9.470791e-005,2.367157e-004
-1.057284e-004,2.910076e-004
-1.133454e-004,3.796573e-004
-1.303623e-004,4.752759e-004
-1.831956e-004,5.554983e-004
-3.021515e-004,6.042800e-004
-4.932265e-004,6.178935e-004
-7.316245e-004,5.966629e-004
-9.612711e-004,5.402642e-004
-1.115881e-003,4.438352e-004
-1.155911e-003,3.094830e-004
-1.073744e-003,1.522796e-004
-8.906106e-004,-7.192643e-006
-6.432990e-004,-1.420310e-004
-3.792946e-004,-2.300324e-004
-1.605064e-004,-2.629317e-004
-3.215070e-005,-2.485079e-004
-1.010982e-005,-2.013469e-004
-6.326724e-005,-1.447861e-004
-1.326312e-004,-9.875954e-005
-1.619650e-004,-7.299116e-005
-1.258245e-004,-6.359137e-005
-4.365734e-005,-6.634648e-005
4.790957e-005,-7.898758e-005
1.253768e-004,-9.989401e-005
1.769136e-004,-1.148040e-004
2.059233e-004,-1.097800e-004
2.239125e-004,-8.028410e-005
2.454672e-004,-2.680255e-005
2.822560e-004,5.293359e-005
3.344411e-004,1.545486e-004
3.963501e-004,2.615117e-004
4.572867e-004,3.488649e-004
5.075270e-004,3.944053e-004
5.435055e-004,3.974845e-004
5.708945e-004,3.798194e-004
5.918010e-004,3.611819e-004
6.024973e-004,3.488649e-004
5.901803e-004,3.358997e-004
5.345919e-004,3.068900e-004
4.268184e-004,2.459534e-004
2.782044e-004,1.456350e-004
1.182459e-004,1.241726e-005
-2.129233e-005,-1.277692e-004
-1.180453e-004,-2.535319e-004
-1.541859e-004,-3.598467e-004
-1.261486e-004,-4.562756e-004
-4.819517e-005,-5.522182e-004
6.476436e-005,-6.515643e-004
2.018716e-004,-7.481552e-004
3.423823e-004,-8.257844e-004
4.533971e-004,-8.721352e-004
4.978030e-004,-8.834797e-004
4.477248e-004,-8.622491e-004
3.070520e-004,-8.158985e-004
1.133840e-004,-7.531792e-004
-8.239095e-005,-6.844635e-004
-2.429977e-004,-6.120203e-004
-3.566054e-004,-5.311498e-004
-4.319658e-004,-4.390967e-004
-4.799371e-004,-3.340784e-004
-5.048952e-004,-2.246843e-004
-4.954954e-004,-1.224211e-004
-4.356933e-004,-3.279896e-005
-3.374817e-004,4.823370e-005
-2.447804e-004,1.308870e-004
-2.045882e-004,2.111094e-004
-2.483458e-004,2.730183e-004
-3.737844e-004,3.028383e-004
-5.509217e-004,2.994350e-004
-7.290315e-004,2.728562e-004
-8.781315e-004,2.367157e-004
-1.004218e-003,2.031682e-004
-1.132088e-003,1.811273e-004
-1.279729e-003,1.689724e-004
-1.444712e-003,1.628139e-004
-1.591705e-003,1.621656e-004
-1.641297e-003,1.718896e-004
-1.512779e-003,1.953890e-004
-1.185245e-003,2.289366e-004
-7.137973e-004,2.615117e-004
-2.068571e-004,2.871180e-004
2.164575e-004,3.101313e-004
4.802999e-004,3.300653e-004
5.697600e-004,3.422202e-004
5.175750e-004,3.457857e-004
3.874365e-004,3.509718e-004
2.530843e-004,3.671783e-004
1.725378e-004,3.961880e-004
1.621656e-004,4.282770e-004
2.067336e-004,4.524247e-004
2.683184e-004,4.621486e-004
3.128864e-004,4.538833e-004
3.214759e-004,4.255218e-004
2.901973e-004,3.777126e-004
2.307193e-004,3.135347e-004
1.607070e-004,2.482223e-004
9.733949e-005,2.091646e-004
5.779555e-005,2.229401e-004
4.709924e-005,2.944109e-004
6.719535e-005,4.012120e-004
1.137081e-004,5.136854e-004
1.819376e-004,6.110868e-004
2.775562e-004,6.785059e-004
4.266563e-004,7.010330e-004
6.396103e-004,6.699165e-004
8.925945e-004,5.893700e-004
1.139096e-003,4.824068e-004
1.326120e-003,3.786850e-004
1.410880e-003,2.963557e-004
1.372957e-003,2.303951e-004
1.222398e-003,1.569795e-004
9.930751e-004,6.217132e-005
7.209671e-004,-3.895745e-005
4.333010e-004,-1.208004e-004
1.480659e-004,-1.702304e-004
-1.264727e-004,-1.934057e-004
-3.854531e-004,-2.031296e-004
-6.129927e-004,-2.188499e-004
-7.859163e-004,-2.507768e-004
-8.794281e-004,-3.047445e-004
-8.816970e-004,-3.711913e-004
-8.047160e-004,-4.287245e-004
-6.778188e-004,-4.582204e-004
-5.353634e-004,-4.569239e-004
-4.011734e-004,-4.348830e-004
-2.909690e-004,-4.160834e-004
-2.159328e-004,-4.319658e-004
-1.789819e-004,-4.933886e-004
-1.686097e-004,-5.773384e-004
-1.713648e-004,-6.457299e-004
-1.862748e-004,-6.752257e-004
-2.081536e-004,-6.630709e-004
-2.118811e-004,-6.160720e-004
-1.666649e-004,-5.384427e-004
-5.483985e-005,-4.282383e-004
1.164632e-004,-2.888622e-004
3.159656e-004,-1.319829e-004
5.072028e-004,2.100672e-005
6.686199e-004,1.545486e-004
7.987585e-004,2.555152e-004
9.062079e-004,3.159656e-004
9.997197e-004,3.384927e-004
1.072811e-003,3.399513e-004
1.097607e-003,3.431926e-004
1.053688e-003,3.589129e-004
9.434830e-004,3.790091e-004
7.961654e-004,3.807918e-004
6.517651e-004,3.482167e-004
5.420469e-004,2.838767e-004
4.733311e-004,2.005751e-004
4.328148e-004,1.158149e-004
4.039671e-004,4.077869e-005
3.749574e-004,-1.189254e-005
3.461098e-004,-2.680255e-005
3.235827e-004,4.313994e-006
3.088348e-004,7.335383e-005
2.978143e-004,1.568175e-004
2.851732e-004,2.290986e-004
2.713977e-004,2.756114e-004
2.637806e-004,2.905214e-004
2.668598e-004,2.799871e-004
2.795009e-004,2.545429e-004
2.963557e-004,2.219677e-004
3.106175e-004,1.913374e-004
3.128864e-004,1.730240e-004
2.978143e-004,1.764274e-004
2.602152e-004,2.038164e-004
1.955511e-004,2.534084e-004
1.025256e-004,3.203414e-004
-1.756482e-005,3.880847e-004
-1.655305e-004,4.313562e-004
-3.335922e-004,4.222805e-004
-5.048952e-004,3.478926e-004
-6.582089e-004,2.221298e-004
-7.834854e-004,8.405014e-005
-8.826694e-004,-1.999580e-005
-9.632158e-004,-5.921561e-005
-1.028204e-003,-3.604027e-005
-1.062076e-003,1.792748e-005
-1.047328e-003,7.319176e-005
-9.748845e-004,1.182459e-004
-8.453943e-004,1.474177e-004
-6.666363e-004,1.522796e-004
-4.578962e-004,1.231079e-004
-2.460769e-004,5.893001e-005
-5.354332e-005,-2.194059e-005
1.107909e-004,-9.892161e-005
2.456293e-004,-1.583996e-004
3.563199e-004,-2.044261e-004
4.537212e-004,-2.543422e-004
5.460985e-004,-3.285682e-004
6.404206e-004,-4.337485e-004
7.370116e-004,-5.572423e-004
8.175581e-004,-6.766844e-004
8.548332e-004,-7.697099e-004
8.344129e-004,-8.252983e-004
7.512733e-004,-8.392359e-004
6.037938e-004,-8.123330e-004
3.905157e-004,-7.444277e-004
1.291043e-004,-6.392473e-004
-1.405724e-004,-5.018159e-004
-3.891806e-004,-3.376438e-004
-5.977586e-004,-1.506204e-004
-7.460483e-004,6.152305e-005
-8.265948e-004,2.897111e-004
-8.648421e-004,5.068787e-004
-9.123273e-004,6.776956e-004
-1.005515e-003,7.750969e-004
-1.129333e-003,7.960034e-004
-1.214741e-003,7.631041e-004
-1.190107e-003,7.182120e-004
-1.029825e-003,7.000606e-004
-7.674409e-004,7.136742e-004
-4.726442e-004,7.321496e-004
-2.112329e-004,7.186982e-004
-1.707863e-005,6.535479e-004
1.078737e-004,5.428572e-004
1.790204e-004,4.145014e-004
2.209954e-004,2.976523e-004
2.689667e-004,2.070577e-004
3.556717e-004,1.425557e-004
4.908342e-004,9.604298e-005
6.431757e-004,5.455425e-005
7.554871e-004,8.203562e-006
7.874139e-004,-4.527799e-005
7.425218e-004,-9.859748e-005
6.545202e-004,-1.358725e-004
5.585775e-004,-1.405724e-004
4.563143e-004,-1.092938e-004
3.201794e-004,-5.321920e-005
1.257009e-004,6.420843e-006
-1.350622e-004,4.790957e-005
-4.564377e-004,5.795762e-005
-8.175191e-004,3.802358e-005
-1.180383e-003,-3.465141e-006
-1.496411e-003,-5.240886e-005
-1.700937e-003,-9.843541e-005
-1.721195e-003,-1.329553e-004
-1.506135e-003,-1.420310e-004
-1.057538e-003,-1.152902e-004
-4.343968e-004,-5.500191e-005
2.594049e-004,2.165498e-005
9.013460e-004,9.037068e-005
1.397591e-003,1.410971e-004
1.693199e-003,1.798307e-004
1.770666e-003,2.148369e-004
1.643282e-003,2.513016e-004
1.341678e-003,2.884145e-004
9.086389e-004,3.177483e-004
4.166082e-004,3.299033e-004
-4.041603e-005,3.214759e-004
-3.948528e-004,3.023522e-004
-6.398956e-004,2.833905e-004
-8.095779e-004,2.670219e-004
-9.225374e-004,2.540567e-004
-9.625676e-004,2.478982e-004
-8.933656e-004,2.540567e-004
-6.885151e-004,2.611876e-004
-3.616295e-004,2.472499e-004
2.230325e-005,1.983062e-004
3.574544e-004,1.182459e-004
5.460985e-004,3.008238e-005
5.504743e-004,-4.754691e-005
3.957018e-004,-1.050801e-004
1.513072e-004,-1.470550e-004
-9.892161e-005,-1.827094e-004
-2.684419e-004,-2.185258e-004
-3.042584e-004,-2.574215e-004
-2.104225e-004,-3.013411e-004
-3.879538e-005,-3.488263e-004
1.438522e-004,-3.917736e-004
2.833905e-004,-4.178661e-004
3.563199e-004,-4.212695e-004
3.694472e-004,-4.014975e-004
3.472443e-004,-3.645466e-004
3.153174e-004,-3.203028e-004
2.919800e-004,-2.771934e-004
2.796630e-004,-2.400805e-004
2.730183e-004,-2.135018e-004
2.592428e-004,-1.953505e-004
2.120818e-004,-1.793060e-004
9.717743e-005,-1.596961e-004
-9.778715e-005,-1.326312e-004
-3.459091e-004,-9.956988e-005
-5.894933e-004,-7.234290e-005
-7.614446e-004,-7.104638e-005
-8.154123e-004,-1.091317e-004
-7.397278e-004,-1.801163e-004
-5.557837e-004,-2.622834e-004
-3.003688e-004,-3.363473e-004
-8.651231e-006,-3.935563e-004
2.893870e-004,-4.303451e-004
5.661946e-004,-4.429862e-004
8.028102e-004,-4.290486e-004
9.872407e-004,-3.980942e-004
1.120297e-003,-3.645466e-004
1.216563e-003,-3.382920e-004
1.291276e-003,-3.194925e-004
1.354157e-003,-2.956689e-004
1.412177e-003,-2.506147e-004
1.476192e-003,-1.804405e-004
1.555443e-003,-9.324933e-005
1.654789e-003,-4.275467e-006
1.764183e-003,6.784360e-005
1.858182e-003,1.072255e-004
1.898536e-003,1.023635e-004
1.848458e-003,6.362991e-005
1.701626e-003,1.403791e-005
1.479596e-003,-2.664048e-005
1.211864e-003,-4.706071e-005
9.185249e-004,-5.078821e-005
6.122212e-004,-4.949169e-005
2.942489e-004,-5.143648e-005
-4.495386e-005,-5.402952e-005
-4.160834e-004,-4.949169e-005
-8.184915e-004,-2.761287e-005
-1.233703e-003,8.689758e-006
-1.626063e-003,5.374392e-005
-1.942739e-003,1.064152e-004
-2.127493e-003,1.730240e-004
-2.144348e-003,2.566497e-004
-1.986983e-003,3.462718e-004
-1.686838e-003,4.141773e-004
-1.304363e-003,4.410801e-004
-9.116791e-004,4.164462e-004
-5.601594e-004,3.444891e-004
-2.629317e-004,2.491947e-004
-2.858527e-005,1.615174e-004
1.242423e-004,1.026876e-004
1.893926e-004,8.080883e-005
1.895547e-004,9.020862e-005
1.683241e-004,1.188942e-004
1.773998e-004,1.472556e-004
2.560015e-004,1.634622e-004
4.239012e-004,1.712413e-004
6.666752e-004,1.953890e-004
9.498035e-004,2.650771e-004
1.240711e-003,3.871123e-004
1.515737e-003,5.446399e-004
1.751218e-003,6.998986e-004
1.919280e-003,8.212856e-004
1.988158e-003,8.891911e-004
1.936621e-003,9.049114e-004
1.771638e-003,8.825464e-004
1.528540e-003,8.405714e-004
1.257890e-003,7.916276e-004
1.018357e-003,7.415494e-004
8.400852e-004,6.951987e-004
6.948746e-004,6.610029e-004
5.130371e-004,6.533858e-004
2.305572e-004,6.768853e-004
-1.814128e-004,7.188602e-004
-6.962943e-004,7.481941e-004
-1.243589e-003,7.353909e-004
-1.750367e-003,6.786680e-004
-2.188106e-003,6.024973e-004
-2.544974e-003,5.297299e-004
-2.788721e-003,4.649037e-004
-2.868943e-003,4.021844e-004
-2.750798e-003,3.318480e-004
-2.450328e-003,2.462775e-004
-2.025230e-003,1.432040e-004
-1.540006e-003,3.850978e-005
-1.061914e-003,-4.041603e-005
-6.697156e-004,-6.731888e-005
-4.282383e-004,-4.333321e-005
-3.450988e-004,-1.034161e-006
-3.697327e-004,1.825161e-005
-4.389346e-004,-5.896120e-006
-5.052193e-004,-6.942573e-005
-5.373082e-004,-1.502963e-004
-5.108916e-004,-2.214430e-004
-4.235384e-004,-2.716832e-004
-3.146305e-004,-3.011791e-004
-2.413770e-004,-3.086341e-004
-2.334358e-004,-2.966413e-004
-2.836761e-004,-2.864312e-004
-3.708672e-004,-3.063652e-004
-4.682684e-004,-3.669776e-004
-5.467080e-004,-4.611376e-004
-5.796073e-004,-5.749074e-004
-5.627525e-004,-6.949978e-004
-5.220741e-004,-8.053642e-004
-4.951713e-004,-8.891520e-004
-4.998712e-004,-9.256167e-004
-5.186707e-004,-9.014689e-004
-5.100812e-004,-8.252983e-004
-4.335865e-004,-7.257902e-004
-2.767073e-004,-6.321164e-004
-6.294311e-005,-5.642111e-004
1.586002e-004,-5.149432e-004
3.448133e-004,-4.634065e-004
4.843516e-004,-3.922598e-004
5.853184e-004,-2.968033e-004
6.519272e-004,-1.844921e-004
6.810990e-004,-6.634648e-005
6.708889e-004,4.920609e-005
6.302104e-004,1.642725e-004
5.775391e-004,2.848491e-004
5.425331e-004,4.182289e-004
5.477191e-004,5.695980e-004
5.916389e-004,7.211292e-004
6.575995e-004,8.376542e-004
7.170775e-004,8.898393e-004
7.501388e-004,8.744431e-004
7.517595e-004,8.050791e-004
7.203188e-004,7.000606e-004
6.339379e-004,5.686256e-004
4.590694e-004,4.156358e-004
1.775618e-004,2.443328e-004
-1.922712e-004,6.573675e-005
-5.890070e-004,-9.778715e-005
-9.066550e-004,-2.250084e-004
-1.030797e-003,-3.060411e-004
-9.006586e-004,-3.425058e-004
-5.497872e-004,-3.384541e-004
-8.190475e-005,-2.977757e-004
3.801436e-004,-2.357047e-004
7.575939e-004,-1.674752e-004
1.034726e-003,-1.008664e-004
1.237794e-003,-3.506788e-005
1.393215e-003,2.732727e-005
1.520599e-003,8.388807e-005
1.627886e-003,1.321835e-004
1.709081e-003,1.641104e-004
1.751542e-003,1.722137e-004
1.746194e-003,1.514693e-004
1.686392e-003,1.031738e-004
1.574729e-003,3.737532e-005
1.424656e-003,-4.057810e-005
1.245087e-003,-1.327933e-004
1.037481e-003,-2.441321e-004
7.917897e-004,-3.561192e-004
4.924549e-004,-4.332623e-004
1.294284e-004,-4.471999e-004
-2.810830e-004,-4.036044e-004
-6.954839e-004,-3.433161e-004
-1.063210e-003,-3.185201e-004
-1.326080e-003,-3.596847e-004
-1.427371e-003,-4.588687e-004
-1.337749e-003,-5.742591e-004
-1.077958e-003,-6.611261e-004
-7.170386e-004,-6.993735e-004
-3.493125e-004,-6.953219e-004
-5.321920e-005,-6.711741e-004
1.445005e-004,-6.455678e-004
2.843629e-004,-6.282268e-004
4.321665e-004,-6.175305e-004
6.172452e-004,-6.029447e-004
8.172340e-004,-5.645352e-004
9.827028e-004,-4.933886e-004
1.066815e-003,-3.961493e-004
1.046719e-003,-2.987481e-004
9.321384e-004,-2.272773e-004
7.447907e-004,-2.000504e-004
5.026649e-004,-2.217671e-004
2.206712e-004,-2.710350e-004
-7.850138e-005,-3.027998e-004
-3.669776e-004,-2.637420e-004
-6.257959e-004,-1.248521e-004
-8.457185e-004,9.263960e-005
-1.017346e-003,3.271482e-004
-1.134357e-003,5.170888e-004
-1.195780e-003,6.285898e-004
-1.207448e-003,6.608408e-004
-1.172280e-003,6.331276e-004
-1.084279e-003,5.780254e-004
-9.405267e-004,5.269747e-004
-7.502620e-004,4.947237e-004
-5.411978e-004,4.730070e-004
-3.575778e-004,4.452938e-004
-2.400805e-004,4.047775e-004
-2.117191e-004,3.519442e-004
-2.643903e-004,2.986247e-004
-3.606571e-004,2.584324e-004
-4.478482e-004,2.402811e-004
-4.849611e-004,2.417397e-004
-4.632444e-004,2.540567e-004
-3.885323e-004,2.709115e-004
-2.781658e-004,2.851732e-004
-1.562927e-004,2.942489e-004
-5.111234e-005,3.031625e-004
1.290346e-005,3.198552e-004
2.959619e-005,3.530786e-004
9.500085e-006,3.984569e-004
-2.728874e-005,4.412422e-004
-5.581224e-005,4.700898e-004
-5.467778e-005,4.815964e-004
-3.303076e-006,4.801379e-004
1.177597e-004,4.692795e-004
3.099692e-004,4.564763e-004
5.514466e-004,4.474007e-004
7.992447e-004,4.448076e-004
9.971267e-004,4.486972e-004
1.089666e-003,4.574487e-004
1.042829e-003,4.684692e-004
8.744431e-004,4.731691e-004
6.462549e-004,4.697657e-004
4.287631e-004,4.587452e-004
2.649151e-004,4.418904e-004
1.644345e-004,4.200116e-004
1.179218e-004,3.979707e-004
1.088461e-004,3.801436e-004
1.154908e-004,3.624784e-004
1.159770e-004,3.420582e-004
9.652917e-005,3.158036e-004
5.147500e-005,2.798251e-004
-2.599222e-005,2.389846e-004
-1.399241e-004,2.099749e-004
-2.650386e-004,2.146748e-004
-3.423437e-004,2.654013e-004
-2.979378e-004,3.524304e-004
-8.449780e-005,4.475628e-004
2.829043e-004,5.209784e-004
7.250187e-004,5.483674e-004
1.141203e-003,5.162785e-004
1.463876e-003,4.273046e-004
1.679747e-003,3.002453e-004
1.798866e-003,1.586002e-004
1.831603e-003,2.327564e-005
1.776176e-003,-8.919769e-005
1.620755e-003,-1.712027e-004
1.358695e-003,-2.267911e-004
9.987473e-004,-2.695764e-004
5.598741e-004,-3.110651e-004
6.525056e-005,-3.494746e-004
-4.523860e-004,-3.770257e-004
-9.320992e-004,-3.914495e-004
-1.311008e-003,-4.026320e-004
-1.550216e-003,-4.193247e-004
-1.666417e-003,-4.386105e-004
-1.731081e-003,-4.567618e-004
-1.807900e-003,-4.719959e-004
-1.898981e-003,-4.852853e-004
-1.949221e-003,-4.972781e-004
-1.918753e-003,-5.079744e-004
-1.815842e-003,-5.214258e-004
-1.670631e-003,-5.447632e-004
-1.499976e-003,-5.757177e-004
-1.299663e-003,-6.016482e-004
-1.066613e-003,-5.990551e-004
-8.037436e-004,-5.552975e-004
-5.356876e-004,-4.784786e-004
-3.087962e-004,-3.901529e-004
-1.797922e-004,-3.151167e-004
-1.841680e-004,-2.619593e-004
-2.990722e-004,-2.259808e-004
-4.449310e-004,-2.037779e-004
-5.251534e-004,-1.945401e-004
-4.719959e-004,-1.909747e-004
-2.835140e-004,-1.867610e-004
-2.485776e-005,-1.783336e-004
2.057612e-004,-1.656925e-004
3.205035e-004,-1.515928e-004
2.842008e-004,-1.370070e-004
1.394765e-004,-1.242038e-004
-2.113026e-005,-1.089697e-004
-1.311726e-004,-8.368748e-005
-1.854645e-004,-4.381940e-005
-2.180396e-004,4.476060e-006
-2.630937e-004,5.244739e-005
-3.386162e-004,9.393612e-005
-4.154351e-004,1.320215e-004
-4.428242e-004,1.725378e-004
-3.906392e-004,2.166196e-004
-2.598524e-004,2.589186e-004
-7.039812e-005,2.892249e-004
1.456350e-004,2.976523e-004
3.710679e-004,2.845250e-004
6.387999e-004,2.657254e-004
1.000692e-003,2.628082e-004
1.476031e-003,2.921420e-004
2.015548e-003,3.631267e-004
2.511146e-003,4.744656e-004
2.839816e-003,6.114109e-004
2.910963e-003,7.486803e-004
2.712107e-003,8.616399e-004
2.324283e-003,9.295454e-004
1.882653e-003,9.467243e-004
1.514440e-003,9.212800e-004
1.284793e-003,8.655295e-004
1.178964e-003,7.859553e-004
1.122565e-003,6.828817e-004
1.000692e-003,5.527431e-004
7.225877e-004,3.995914e-004
2.730183e-004,2.440086e-004
-2.682799e-004,1.128978e-004
-7.619307e-004,2.278944e-005
-1.088816e-003,-2.680255e-005
-1.188162e-003,-4.706071e-005
-1.064020e-003,-4.770897e-005
-7.685754e-004,-3.604027e-005
-3.677880e-004,-1.999580e-005
8.226741e-005,-4.599598e-006
5.389676e-004,1.971020e-005
9.609861e-004,7.400208e-005
1.307644e-003,1.676758e-004
1.550743e-003,2.850112e-004
1.681044e-003,3.976466e-004
1.699357e-003,4.770586e-004
1.602766e-003,5.073649e-004
1.387867e-003,4.956961e-004
1.051094e-003,4.619866e-004
5.942319e-004,4.286011e-004
3.056858e-005,4.005638e-004
-6.013241e-004,3.634508e-004
-1.215065e-003,2.999212e-004
-1.720709e-003,2.054371e-004
-2.066557e-003,8.550872e-005
-2.215819e-003,-4.706071e-005
-2.134624e-003,-1.810887e-004
-1.834317e-003,-3.123616e-004
-1.399172e-003,-4.374760e-004
-9.752086e-004,-5.441150e-004
-7.078009e-004,-6.201236e-004
-6.736051e-004,-6.608020e-004
-8.729455e-004,-6.786292e-004
-1.235648e-003,-6.937013e-004
-1.672090e-003,-7.210903e-004
-2.100914e-003,-7.690616e-004
-2.422615e-003,-8.335636e-004
-2.530550e-003,-9.026034e-004
-2.349847e-003,-9.564091e-004
-1.875157e-003,-9.799085e-004
-1.174063e-003,-9.714811e-004
-3.775118e-004,-9.376095e-004
3.615060e-004,-8.875313e-004
9.024804e-004,-8.246500e-004
1.175399e-003,-7.483172e-004
1.189012e-003,-6.646916e-004
1.005554e-003,-5.807417e-004
7.094605e-004,-5.018159e-004
3.924605e-004,-4.337485e-004
1.415833e-004,-3.783222e-004
1.630683e-005,-3.324577e-004
4.207521e-005,-2.895104e-004
2.090025e-004,-2.423494e-004
4.780310e-004,-1.835197e-004
7.819037e-004,-1.141558e-004
1.050446e-003,-3.798505e-005
1.235039e-003,4.320967e-005
1.317855e-003,1.321835e-004
1.306510e-003,2.290986e-004
1.222398e-003,3.294171e-004
1.092259e-003,4.195254e-004
9.400796e-004,4.892136e-004
7.854691e-004,5.409124e-004
6.452826e-004,5.887217e-004
5.253541e-004,6.413930e-004
4.166082e-004,6.986021e-004
2.929524e-004,7.499768e-004
1.221355e-004,7.806072e-004
-1.021629e-004,7.807693e-004
-3.525538e-004,7.535422e-004
-5.703696e-004,7.101087e-004
-6.891634e-004,6.600305e-004
-6.718224e-004,6.093040e-004
-5.369841e-004,5.569569e-004
-3.447747e-004,5.003960e-004
-1.528894e-004,4.342734e-004
2.693341e-006,3.608578e-004
1.057669e-004,2.887387e-004
1.506590e-004,2.190506e-004
1.300767e-004,1.500107e-004
4.013043e-005,8.502253e-005
-1.070249e-004,3.202716e-005
-2.720074e-004,-1.358292e-006
-3.885323e-004,-1.805102e-005
-3.920977e-004,-2.566809e-005
-2.679557e-004,-2.793700e-005
-5.532604e-005,-2.664048e-005
1.728619e-004,-2.323711e-005
3.514580e-004,-1.626830e-005
4.511282e-004,-3.627206e-006
4.751139e-004,1.646890e-005
4.397836e-004,4.402000e-005
3.535648e-004,8.064677e-005
2.064095e-004,1.271595e-004
1.558884e-006,1.793446e-004
-2.182017e-004,2.258573e-004
-3.831841e-004,2.535705e-004
-4.373140e-004,2.568118e-004
-3.638984e-004,2.378501e-004
-1.955125e-004,2.073819e-004
1.338965e-005,1.757791e-004
2.117576e-004,1.579519e-004
3.699334e-004,1.654069e-004
4.786793e-004,2.036544e-004
5.396159e-004,2.603772e-004
5.587396e-004,3.145071e-004
5.404262e-004,3.394651e-004
4.955341e-004,3.182346e-004
4.399457e-004,2.519498e-004
3.927847e-004,1.537382e-004
3.619922e-004,3.721326e-005
3.410858e-004,-8.644259e-005
3.130485e-004,-2.092881e-004
2.671840e-004,-3.258130e-004
2.096508e-004,-4.352071e-004
1.475797e-004,-5.340669e-004
8.016057e-005,-6.139652e-004
-2.492749e-006,-6.624226e-004
-1.156143e-004,-6.711741e-004
-2.687660e-004,-6.432990e-004
-4.577342e-004,-5.966241e-004
-6.603158e-004,-5.531906e-004
-8.376152e-004,-5.305015e-004
-9.377715e-004,-5.343911e-004
-9.215650e-004,-5.556216e-004
-7.815406e-004,-5.789590e-004
-5.476804e-004,-5.907898e-004
-2.700626e-004,-5.820383e-004
-2.330684e-006,-5.452494e-004
2.187264e-004,-4.737787e-004
3.756057e-004,-3.640605e-004
4.694416e-004,-2.326255e-004
5.128751e-004,-1.023250e-004
5.200059e-004,5.772582e-006
4.956961e-004,8.064677e-005
4.503179e-004,1.260251e-004
4.052637e-004,1.516314e-004
3.880847e-004,1.722137e-004
4.049396e-004,1.936063e-004
4.456179e-004,2.141886e-004
4.864584e-004,2.289366e-004
4.979651e-004,2.368777e-004
4.645796e-004,2.440086e-004
3.957018e-004,2.542187e-004
3.135347e-004,2.713977e-004
2.357433e-004,2.948972e-004
1.670276e-004,3.235827e-004
9.426025e-005,3.550234e-004
1.072688e-006,3.887330e-004
-1.044318e-004,4.287631e-004
-1.925954e-004,4.736553e-004
-2.413770e-004,5.230852e-004
-2.517492e-004,5.749461e-004
-2.308428e-004,6.235657e-004
-1.661787e-004,6.632718e-004
-4.236082e-005,6.851507e-004
1.205148e-004,6.783439e-004
2.498430e-004,6.405826e-004
2.731804e-004,5.788357e-004
1.707551e-004,5.013684e-004
-4.761664e-006,4.141773e-004
-1.656925e-004,3.264999e-004
-2.494803e-004,2.456293e-004
-2.626076e-004,1.751309e-004
-2.629317e-004,1.175977e-004
-3.066893e-004,8.064677e-005
-4.146248e-004,6.978839e-005
-5.671282e-004,8.567078e-005
-7.193076e-004,1.205148e-004
-8.201121e-004,1.613553e-004
-8.141157e-004,1.973338e-004
-6.716604e-004,2.219677e-004
-4.011734e-004,2.326641e-004
-5.629844e-005,2.305572e-004
3.031625e-004,2.174299e-004
6.389620e-004,1.997648e-004
9.331108e-004,1.804790e-004
1.161137e-003,1.587623e-004
1.286738e-003,1.305629e-004
1.294841e-003,9.652917e-005
1.205705e-003,6.184718e-005
1.047529e-003,3.769945e-005
8.386266e-004,3.218923e-005
5.929354e-004,4.158902e-005
3.268240e-004,5.617490e-005
3.802358e-005,6.379197e-005
-2.968033e-004,6.071273e-005
-6.890013e-004,5.034055e-005
-1.107454e-003,3.397195e-005
-1.489442e-003,1.338965e-005
-1.770463e-003,-6.706447e-006
-1.907571e-003,-2.194059e-005
-1.890068e-003,-3.393342e-005
-1.749719e-003,-4.803310e-005
-1.548758e-003,-7.007399e-005
-1.352335e-003,-1.007043e-004
-1.188000e-003,-1.384655e-004
-1.041007e-003,-1.846542e-004
-8.812108e-004,-2.374874e-004
-6.815463e-004,-2.922655e-004
-4.483344e-004,-3.434782e-004
-2.086398e-004,-3.888564e-004
1.582063e-005,-4.224039e-004
2.106232e-004,-4.369898e-004
3.624784e-004,-4.290486e-004
4.517764e-004,-3.972838e-004
4.699278e-004,-3.494746e-004
4.381629e-004,-2.985861e-004
3.966742e-004,-2.587180e-004
3.879227e-004,-2.379736e-004
4.214702e-004,-2.306807e-004
4.820827e-004,-2.211189e-004
5.478812e-004,-1.984297e-004
5.930975e-004,-1.640719e-004
5.973112e-004,-1.258245e-004
5.576051e-004,-9.065628e-005
4.804620e-004,-6.067420e-005
3.718782e-004,-3.344723e-005
2.454672e-004,-6.868513e-006
1.245665e-004,2.197911e-005
3.202716e-005,4.985435e-005
-1.302700e-005,7.643307e-005
5.610517e-006,1.022015e-004
9.831188e-005,1.240803e-004
2.569738e-004,1.401247e-004
4.618245e-004,1.551968e-004
6.898505e-004,1.731861e-004
9.149595e-004,1.968476e-004
1.119810e-003,2.289366e-004
1.294517e-003,2.647530e-004
1.425790e-003,2.995970e-004
1.489644e-003,3.310377e-004
1.467765e-003,3.637749e-004
1.366636e-003,3.978086e-004
1.219967e-003,4.341113e-004
1.054660e-003,4.720346e-004
8.869221e-004,5.101200e-004
7.188602e-004,5.430193e-004
5.514466e-004,5.687877e-004
3.814401e-004,5.877494e-004
2.161334e-004,5.971491e-004
7.951231e-005,5.812666e-004
3.341602e-006,5.274609e-004
2.197911e-005,4.381629e-004
1.389903e-004,3.271482e-004
2.973281e-004,2.078681e-004
4.140152e-004,8.793970e-005
4.261701e-004,-3.166451e-005
3.273102e-004,-1.536997e-004
1.240803e-004,-2.741142e-004
-1.724993e-004,-3.839945e-004
-5.107295e-004,-4.719959e-004
-7.998540e-004,-5.311498e-004
-9.755327e-004,-5.604835e-004
-1.033876e-003,-5.569181e-004
-1.017021e-003,-5.245051e-004
-9.925497e-004,-4.766958e-004
-1.017184e-003,-4.214316e-004
-1.111181e-003,-3.674638e-004
-1.246182e-003,-3.217614e-004
-1.362545e-003,-2.899966e-004
-1.402251e-003,-2.776796e-004
-1.332076e-003,-2.945344e-004
-1.158991e-003,-3.386162e-004
-9.374474e-004,-3.950149e-004
-7.442656e-004,-4.426621e-004
-6.319543e-004,-4.591928e-004
-6.079687e-004,-4.219178e-004
-6.491333e-004,-3.275957e-004
-7.165525e-004,-2.010227e-004
-7.724650e-004,-7.655660e-005
-7.867267e-004,1.808955e-005
-7.405381e-004,7.367795e-005
-6.240131e-004,9.766362e-005
-4.275900e-004,1.046324e-004
-1.478653e-004,1.088461e-004
1.997648e-004,1.187321e-004
5.660325e-004,1.320215e-004
8.985908e-004,1.474177e-004
1.170537e-003,1.618415e-004
1.370202e-003,1.733481e-004
1.498720e-003,1.840444e-004
1.573756e-003,1.859892e-004
1.604711e-003,1.707551e-004
1.564194e-003,1.346145e-004
1.404073e-003,8.259155e-005
1.108790e-003,2.230325e-005
7.383081e-004,-3.604027e-005
3.872744e-004,-8.790117e-005
1.148425e-004,-1.324691e-004
-5.953974e-005,-1.681235e-004
-1.292278e-004,-1.903264e-004
-1.115627e-004,-1.903264e-004
-5.289507e-005,-1.551583e-004
3.017472e-006,-8.125649e-005
3.640293e-005,1.873781e-005
5.309566e-005,1.252147e-004
7.853991e-005,2.174299e-004
1.564933e-004,2.861456e-004
3.263378e-004,3.337929e-004
5.918010e-004,3.702575e-004
9.075044e-004,4.085050e-004
1.191443e-003,4.551798e-004
1.367122e-003,5.049339e-004
1.385274e-003,5.428572e-004
1.249139e-003,5.577672e-004
9.992336e-004,5.460985e-004
6.927677e-004,5.148199e-004
3.890571e-004,4.692795e-004
1.197045e-004,4.088291e-004
-1.063766e-004,3.318480e-004
-2.898345e-004,2.407673e-004
-4.381243e-004,1.466074e-004
-5.690731e-004,6.654708e-005
-7.184973e-004,1.274139e-005
-9.280476e-004,-1.124428e-005
-1.224951e-003,-8.165035e-006
-1.608236e-003,9.824215e-006
-2.007889e-003,2.894792e-005
-2.281456e-003,4.110282e-005
-2.294421e-003,4.450620e-005
-2.010158e-003,4.256141e-005
-1.497059e-003,3.802358e-005
-8.901244e-004,3.656499e-005
-3.297026e-004,4.888196e-005
9.166720e-005,8.826383e-005
3.456236e-004,1.539003e-004
4.623107e-004,2.316917e-004
5.039615e-004,3.055935e-004
5.216266e-004,3.615060e-004
5.368608e-004,3.957018e-004
5.524190e-004,4.140152e-004
5.634395e-004,4.243874e-004
5.642498e-004,4.321665e-004
5.567948e-004,4.315182e-004
5.514466e-004,4.065602e-004
5.631154e-004,3.440029e-004
5.862907e-004,2.440086e-004
6.078454e-004,1.201907e-004
6.148142e-004,-8.327101e-006
6.118971e-004,-1.248521e-004
6.055765e-004,-2.159328e-004
5.990939e-004,-2.771934e-004
5.919630e-004,-3.094444e-004
5.713807e-004,-3.220855e-004
5.157923e-004,-3.275957e-004
4.145014e-004,-3.309991e-004
2.786906e-004,-3.340784e-004
1.532520e-004,-3.345645e-004
8.388807e-005,-3.324577e-004
9.150514e-005,-3.201407e-004
1.629760e-004,-2.908069e-004
2.655633e-004,-2.436459e-004
3.673404e-004,-1.851404e-004
4.430249e-004,-1.240417e-004
4.728449e-004,-6.245691e-005
4.428628e-004,1.234753e-006
3.582647e-004,6.184718e-005
2.451431e-004,1.088461e-004
1.334801e-004,1.347766e-004
4.466826e-005,1.385041e-004
-1.351319e-005,1.141943e-004
-4.009191e-005,5.325772e-005
-3.911951e-005,-4.835724e-005
-6.058186e-006,-1.857886e-004
6.719535e-005,-3.468815e-004
1.838824e-004,-5.110537e-004
3.192070e-004,-6.505919e-004
4.261701e-004,-7.351899e-004
4.561522e-004,-7.429690e-004
3.851676e-004,-6.761982e-004
2.276400e-004,-5.630766e-004
2.473423e-005,-4.387725e-004
-1.656925e-004,-3.248407e-004
-2.880518e-004,-2.246843e-004
-3.123616e-004,-1.313347e-004
-2.504527e-004,-4.074016e-005
-1.421931e-004,4.337174e-005
-3.911951e-005,1.185701e-004
7.231170e-006,1.910133e-004
-3.539201e-005,2.710735e-004
-1.543479e-004,3.634508e-004
-2.968033e-004,4.673347e-004
-4.141386e-004,5.785116e-004
-5.107295e-004,6.882299e-004
-6.517263e-004,7.866036e-004
-9.179996e-004,8.532125e-004
-1.340990e-003,8.621261e-004
-1.872726e-003,8.008654e-004
-2.407867e-003,6.757508e-004
-2.819189e-003,5.062304e-004
-2.995355e-003,3.200173e-004
-2.876723e-003,1.529279e-004
-2.473665e-003,3.867184e-005
-1.870458e-003,-3.627206e-006
-1.172766e-003,2.165498e-005
-4.752372e-004,9.426025e-005
1.495245e-004,1.827479e-004
6.480376e-004,2.576221e-004
1.012523e-003,3.068900e-004
1.264373e-003,3.342791e-004
1.432435e-003,3.519442e-004
1.534050e-003,3.662059e-004
1.570029e-003,3.772264e-004
1.534050e-003,3.747954e-004
1.415418e-003,3.506476e-004
1.209108e-003,2.957075e-004
9.374866e-004,2.158093e-004
6.653786e-004,1.263492e-004
4.561522e-004,4.320967e-005
3.344411e-004,-2.177852e-005
2.660495e-004,-6.650855e-005
1.825859e-004,-9.940781e-005
4.402000e-005,-1.337657e-004
-1.041077e-004,-1.810887e-004
-1.671511e-004,-2.395943e-004
-8.741498e-005,-3.013411e-004
1.266733e-004,-3.553089e-004
4.115842e-004,-3.932322e-004
6.934160e-004,-4.089525e-004
9.194973e-004,-3.908012e-004
1.072325e-003,-3.301888e-004
1.160327e-003,-2.373254e-004
1.197602e-003,-1.381414e-004
1.195819e-003,-5.872941e-005
1.149630e-003,-1.221667e-005
1.059036e-003,3.017472e-006
9.355418e-004,-3.141010e-006
7.848209e-004,-1.821308e-005
6.054144e-004,-3.749886e-005
4.052637e-004,-5.824322e-005
2.085163e-004,-8.174268e-005
4.077869e-005,-1.089697e-004
-8.806324e-005,-1.371690e-004
-1.818991e-004,-1.653684e-004
-2.468872e-004,-1.927574e-004
-2.872415e-004,-2.224154e-004
-3.146305e-004,-2.566112e-004
-3.379679e-004,-2.921034e-004
-3.559572e-004,-3.230579e-004
-3.629260e-004,-3.421817e-004
-3.713534e-004,-3.460712e-004
-4.152731e-004,-3.373197e-004
-5.201293e-004,-3.173856e-004
-6.826808e-004,-2.862691e-004
-8.666249e-004,-2.405667e-004
-1.014590e-003,-1.802784e-004
-1.054783e-003,-1.107524e-004
-9.298304e-004,-3.960571e-005
-6.387612e-004,2.813760e-005
-2.486699e-004,8.502253e-005
1.422316e-004,1.224596e-004
4.467524e-004,1.349386e-004
6.157866e-004,1.239182e-004
6.417171e-004,1.023635e-004
5.451261e-004,8.956036e-005
3.687990e-004,9.669123e-005
1.684862e-004,1.235941e-004
-1.358292e-006,1.590864e-004
-1.120489e-004,1.879340e-004
-1.621271e-004,2.033302e-004
-1.671511e-004,2.030061e-004
-1.558065e-004,1.924718e-004
-1.585616e-004,1.843686e-004
-1.955125e-004,1.838824e-004
-2.650386e-004,1.926339e-004
-3.439643e-004,2.081922e-004
-4.073319e-004,2.247229e-004
-4.352071e-004,2.384984e-004
-4.167317e-004,2.462775e-004
-3.512573e-004,2.448189e-004
-2.545043e-004,2.350950e-004
-1.407345e-004,2.240746e-004
-2.307504e-005,2.172679e-004
8.891209e-005,2.180782e-004
1.885823e-004,2.312055e-004
2.689667e-004,2.594049e-004
3.315239e-004,3.086727e-004
3.838710e-004,3.764160e-004
4.310321e-004,4.475628e-004
4.689553e-004,5.050959e-004
4.937514e-004,5.371849e-004
4.948858e-004,5.375090e-004
4.673347e-004,5.067165e-004
4.157979e-004,4.516144e-004
3.461098e-004,3.872744e-004
2.501671e-004,3.303894e-004
1.090082e-004,2.889007e-004
-9.324933e-005,2.569738e-004
-3.446126e-004,2.261814e-004
-5.959758e-004,1.902029e-004
-7.817027e-004,1.461212e-004
-8.471771e-004,9.377406e-005
-7.755442e-004,3.380988e-005
-5.901415e-004,-2.518189e-005
-3.433161e-004,-7.704279e-005
-9.033215e-005,-1.295519e-004
1.234320e-004,-1.961608e-004
2.726942e-004,-2.838381e-004
3.577785e-004,-3.846427e-004
3.944053e-004,-4.702132e-004
3.966742e-004,-5.078124e-004
3.819262e-004,-4.781544e-004
3.739850e-004,-3.937184e-004
4.007258e-004,-2.862691e-004
4.751139e-004,-1.922712e-004
5.929354e-004,-1.342519e-004
7.410632e-004,-1.115627e-004
9.021563e-004,-1.065387e-004
1.049960e-003,-9.470791e-005
1.155951e-003,-6.699475e-005
1.198412e-003,-2.988179e-005
1.173454e-003,-4.437533e-006
1.093394e-003,-5.247859e-006
9.809202e-004,-2.923353e-005
8.562917e-004,-5.646050e-005
7.357151e-004,-6.180866e-005
6.159487e-004,-3.539201e-005
4.874308e-004,1.241726e-005
3.418961e-004,5.860588e-005
1.845306e-004,8.016057e-005
3.510641e-005,6.168512e-005
-9.892161e-005,5.286387e-006
-2.457528e-004,-7.558420e-005
-4.352071e-004,-1.606685e-004
-6.552918e-004,-2.277635e-004
-8.821832e-004,-2.608248e-004
-1.110695e-003,-2.645523e-004
-1.332725e-003,-2.538560e-004
-1.527365e-003,-2.442942e-004
-1.681165e-003,-2.431597e-004
-1.785859e-003,-2.412149e-004
-1.817462e-003,-2.212809e-004
-1.743074e-003,-1.699062e-004
-1.542761e-003,-8.871149e-005
-1.245209e-003,8.365628e-006
-9.207547e-004,1.057669e-004
-6.303337e-004,1.900409e-004
-4.108973e-004,2.485465e-004
-2.655248e-004,2.780424e-004
-1.614788e-004,2.846870e-004
-5.467778e-005,2.819319e-004
7.546067e-005,2.819319e-004
2.154851e-004,2.840388e-004
3.391410e-004,2.829043e-004
4.324906e-004,2.749631e-004
5.088235e-004,2.644289e-004
5.924492e-004,2.616738e-004
6.987641e-004,2.689667e-004
8.258235e-004,2.842008e-004
9.577448e-004,3.059176e-004
1.074918e-003,3.305515e-004
1.162271e-003,3.509718e-004
1.211701e-003,3.613439e-004
1.222074e-003,3.605336e-004
1.193874e-003,3.522683e-004
1.127913e-003,3.415720e-004
1.024354e-003,3.305515e-004
8.922703e-004,3.195311e-004
7.468975e-004,3.093210e-004
6.070351e-004,2.984626e-004
4.802999e-004,2.893870e-004
3.496752e-004,2.830664e-004
1.825859e-004,2.816078e-004
-5.467778e-005,2.833905e-004
-3.848048e-004,2.809595e-004
-7.961266e-004,2.639427e-004
-1.232893e-003,2.258573e-004
-1.612125e-003,1.688103e-004
-1.861868e-003,1.039842e-004
-1.924101e-003,4.515445e-005
-1.761874e-003,4.800190e-006
-1.381668e-003,-1.286493e-005
-8.379394e-004,-1.626830e-005
-2.243602e-004,-2.372331e-005
3.553475e-004,-4.835724e-005
8.156133e-004,-9.260107e-005
1.121755e-003,-1.454344e-004
1.279445e-003,-1.968091e-004
1.313965e-003,-2.389460e-004
1.259187e-003,-2.710350e-004
1.156599e-003,-2.946965e-004
1.038615e-003,-3.083100e-004
9.230627e-004,-3.110651e-004
7.929241e-004,-3.006929e-004
5.989318e-004,-2.817312e-004
3.033245e-004,-2.596904e-004
-7.299116e-005,-2.405667e-004
-4.279142e-004,-2.274394e-004
-6.347094e-004,-2.230636e-004
-6.168823e-004,-2.282497e-004
-3.906392e-004,-2.352185e-004
-5.597430e-005,-2.347323e-004
2.600531e-004,-2.256567e-004
4.597176e-004,-2.156086e-004
4.969927e-004,-2.143121e-004
3.781987e-004,-2.274394e-004
1.540623e-004,-2.509389e-004
-1.021629e-004,-2.783279e-004
-3.264613e-004,-3.045825e-004
-4.925782e-004,-3.185201e-004
-6.154237e-004,-3.027998e-004
-7.382692e-004,-2.468872e-004
-8.930415e-004,-1.553203e-004
-1.073906e-003,-5.046408e-005
-1.226248e-003,4.369587e-005
-1.268385e-003,1.098185e-004
-1.136788e-003,1.472556e-004
-8.193018e-004,1.683241e-004
-3.548227e-004,1.825859e-004
1.845306e-004,1.902029e-004
7.167534e-004,1.892305e-004
1.173454e-003,1.811273e-004
1.512819e-003,1.707551e-004
1.728367e-003,1.642725e-004
1.842299e-003,1.642725e-004
1.884760e-003,1.694586e-004
1.877467e-003,1.739964e-004
1.839058e-003,1.769136e-004
1.770990e-003,1.775618e-004
1.660623e-003,1.764274e-004
1.483972e-003,1.709172e-004
1.202626e-003,1.500107e-004
7.763935e-004,1.015532e-004
2.075439e-004,2.829966e-005
-4.494688e-004,-4.900550e-005
-1.105671e-003,-1.073490e-004
-1.672738e-003,-1.255003e-004
-2.089408e-003,-9.049421e-005
-2.340448e-003,-4.275467e-006
-2.437849e-003,1.098185e-004
-2.382261e-003,2.208333e-004
-2.193130e-003,3.046211e-004
-1.933663e-003,3.477304e-004
-1.688944e-003,3.563199e-004
-1.517479e-003,3.444891e-004
-1.430288e-003,3.274723e-004
-1.397713e-003,3.162898e-004
-1.378265e-003,3.180725e-004
-1.334345e-003,3.342791e-004
-1.218144e-003,3.644232e-004
-9.872015e-004,4.049396e-004
-6.317923e-004,4.517764e-004
-1.836818e-004,5.002340e-004
2.889007e-004,5.407503e-004
7.175637e-004,5.627912e-004
1.058225e-003,5.571189e-004
1.295489e-003,5.238955e-004
1.447507e-003,4.666864e-004
1.550905e-003,3.884089e-004
1.632100e-003,2.958695e-004
1.699195e-003,1.992786e-004
1.739225e-003,1.122495e-004
1.730798e-003,4.272347e-005
1.644093e-003,-9.785688e-006
1.461769e-003,-5.078821e-005
1.195981e-003,-8.709085e-005
8.955116e-004,-1.209625e-004
6.183797e-004,-1.504584e-004
4.063981e-004,-1.713648e-004
2.830664e-004,-1.825473e-004
2.519498e-004,-1.872472e-004
2.960316e-004,-1.932436e-004
3.731747e-004,-2.073433e-004
4.242253e-004,-2.332737e-004
3.830607e-004,-2.653627e-004
2.007372e-004,-3.000446e-004
-1.235555e-004,-3.311612e-004
-5.259637e-004,-3.486642e-004
-8.936898e-004,-3.502849e-004
-1.115719e-003,-3.489884e-004
-1.121067e-003,-3.638984e-004
-9.094102e-004,-4.057112e-004
-5.497872e-004,-4.737787e-004
-1.528894e-004,-5.577285e-004
1.790204e-004,-6.403818e-004
3.869503e-004,-7.035872e-004
4.756001e-004,-7.337314e-004
4.804620e-004,-7.256281e-004
4.448076e-004,-6.821946e-004
3.973225e-004,-6.081308e-004
3.535648e-004,-5.097571e-004
3.203414e-004,-3.966356e-004
2.994350e-004,-2.789762e-004
2.832284e-004,-1.684476e-004
2.663737e-004,-6.942573e-005
2.467637e-004,2.149292e-005
2.287745e-004,1.101427e-004
2.154851e-004,1.961994e-004
2.156472e-004,2.788527e-004
2.362295e-004,3.628026e-004
2.830664e-004,4.516144e-004
3.602095e-004,5.422090e-004
4.624728e-004,6.315070e-004
5.772150e-004,7.238843e-004
6.778577e-004,8.225822e-004
7.353909e-004,9.149595e-004
7.272876e-004,9.716824e-004
6.365310e-004,9.609861e-004
4.665244e-004,8.728224e-004
2.483844e-004,7.233981e-004
2.992031e-005,5.496639e-004
-1.524032e-004,3.929467e-004
-2.919414e-004,2.757735e-004
-3.933943e-004,2.028440e-004
-4.413656e-004,1.629760e-004
-4.147869e-004,1.393144e-004
-3.079858e-004,1.166253e-004
-1.472171e-004,9.004655e-005
1.517237e-005,5.941620e-005
1.211631e-004,2.829966e-005
1.304008e-004,-2.978945e-006
4.645098e-005,-3.036798e-005
-8.336335e-005,-4.398147e-005
-1.985918e-004,-3.701266e-005
-2.588801e-004,-1.286493e-005
-2.617972e-004,1.906194e-005
-2.327876e-004,5.487838e-005
-2.006986e-004,1.018773e-004
-1.906506e-004,1.650828e-004
-2.207947e-004,2.386605e-004
-2.972895e-004,3.138588e-004
-4.164075e-004,3.898674e-004
-5.805797e-004,4.556660e-004
-7.880232e-004,4.913204e-004
-1.005353e-003,4.825689e-004
-1.175845e-003,4.268184e-004
-1.255420e-003,3.354135e-004
-1.233703e-003,2.315296e-004
-1.123174e-003,1.326697e-004
-9.447403e-004,4.531652e-005
-7.170386e-004,-3.409549e-005
-4.580583e-004,-1.172350e-004
-1.733096e-004,-2.191741e-004
1.464453e-004,-3.441264e-004
5.013684e-004,-4.847991e-004
8.643950e-004,-6.199615e-004
1.188202e-003,-7.231971e-004
1.418497e-003,-7.745718e-004
1.524812e-003,-7.620928e-004
1.500340e-003,-6.893255e-004
1.347837e-003,-5.749074e-004
1.076863e-003,-4.489826e-004
7.211292e-004,-3.352128e-004
3.232586e-004,-2.473734e-004
-7.769106e-005,-1.864369e-004
-4.433104e-004,-1.509446e-004
-7.267626e-004,-1.425172e-004
-8.829935e-004,-1.590478e-004
-9.004966e-004,-1.921092e-004
-8.089297e-004,-2.332737e-004
-6.656639e-004,-2.754107e-004
-5.243430e-004,-3.170615e-004
-4.139766e-004,-3.546606e-004
-3.442885e-004,-3.831841e-004
-3.167374e-004,-3.997148e-004
-3.366714e-004,-4.047388e-004
-4.107352e-004,-4.079801e-004
-5.518941e-004,-4.241867e-004
-7.523688e-004,-4.538446e-004
-9.667812e-004,-4.786406e-004
-1.127712e-003,-4.747511e-004
-1.173739e-003,-4.230522e-004
-1.076986e-003,-3.136581e-004
-8.569010e-004,-1.585616e-004
-5.805797e-004,1.711715e-005
-3.275957e-004,1.871237e-004
-1.417068e-004,3.316860e-004
-1.821308e-005,4.452938e-004
7.789165e-005,5.308643e-004
1.741585e-004,5.989318e-004
2.770700e-004,6.610029e-004
3.731747e-004,7.211292e-004
4.446456e-004,7.661834e-004
4.765725e-004,7.738004e-004
4.610142e-004,7.269635e-004
4.068843e-004,6.261588e-004
3.355756e-004,4.858102e-004
2.665357e-004,3.386548e-004
2.117576e-004,2.146748e-004
1.863134e-004,1.318594e-004
2.044647e-004,9.490851e-005
2.760976e-004,1.028497e-004
3.939191e-004,1.381800e-004
5.376711e-004,1.842065e-004
6.739681e-004,2.279642e-004
7.728280e-004,2.652392e-004
8.178822e-004,2.957075e-004
8.105893e-004,3.224483e-004
7.658592e-004,3.451374e-004
7.021675e-004,3.623164e-004
6.355586e-004,3.699334e-004
5.862907e-004,3.707437e-004
5.731634e-004,3.687990e-004
5.989318e-004,3.681507e-004
6.490100e-004,3.715541e-004
6.963331e-004,3.710679e-004
7.256670e-004,3.595612e-004
7.413874e-004,3.350894e-004
7.509492e-004,3.046211e-004
7.519216e-004,2.765838e-004
7.360392e-004,2.532463e-004
6.867713e-004,2.307193e-004
5.632775e-004,2.039785e-004
3.171001e-004,1.704310e-004
-5.143648e-005,1.333180e-004
-4.489826e-004,9.831188e-005
-7.397278e-004,6.557468e-005
-8.316188e-004,3.283749e-005
-7.335693e-004,-1.682422e-006
-5.264499e-004,-3.976777e-005
-3.099306e-004,-7.752899e-005
-1.608306e-004,-1.075111e-004
-1.076731e-004,-1.289037e-004
-1.209625e-004,-1.454344e-004
-1.459206e-004,-1.583996e-004
-1.421931e-004,-1.677994e-004
-9.114248e-005,-1.715269e-004
7.555301e-006,-1.666649e-004
1.430419e-004,-1.493239e-004
2.965178e-004,-1.183694e-004
4.512903e-004,-7.850138e-005
5.859666e-004,-4.122636e-005
6.738061e-004,-1.999580e-005
7.028158e-004,-2.194059e-005
6.911471e-004,-4.916756e-005
6.653786e-004,-9.681477e-005
6.439860e-004,-1.603444e-004
6.355586e-004,-2.285739e-004
6.347483e-004,-2.862691e-004
6.222692e-004,-3.259751e-004
5.692738e-004,-3.491504e-004
4.563143e-004,-3.609812e-004
2.887387e-004,-3.673017e-004
9.912221e-005,-3.697327e-004
-6.926366e-005,-3.660052e-004
-1.901644e-004,-3.572537e-004
-2.504527e-004,-3.497987e-004
-2.566112e-004,-3.423437e-004
-2.285739e-004,-3.264613e-004
-1.888679e-004,-2.987481e-004
-1.608306e-004,-2.570974e-004
-1.614788e-004,-2.055606e-004
-1.908126e-004,-1.545100e-004
-2.410529e-004,-1.092938e-004
-3.105789e-004,-7.493595e-005
-4.065215e-004,-5.467778e-005
-5.283947e-004,-4.900550e-005
-6.643674e-004,-5.370539e-005
-7.831613e-004,-5.791909e-005
-8.483115e-004,-5.597430e-005
-8.368049e-004,-3.960571e-005
-7.405381e-004,-7.516774e-006
-5.684248e-004,3.607880e-005
-3.561192e-004,8.356394e-005
-1.486757e-004,1.326697e-004
1.776542e-005,1.827479e-004
1.169494e-004,2.384984e-004
1.430419e-004,2.970040e-004
1.120874e-004,3.522683e-004
4.855783e-005,3.989431e-004
-3.036798e-005,4.308700e-004
-1.125351e-004,4.480489e-004
-1.953505e-004,4.532350e-004
-2.739521e-004,4.551798e-004
-3.285682e-004,4.623107e-004
-3.382920e-004,4.820827e-004
-2.904828e-004,5.102821e-004
-1.865989e-004,5.357263e-004
-4.511593e-005,5.477191e-004
1.138702e-004,5.431813e-004
2.743149e-004,5.200059e-004
4.307079e-004,4.819206e-004
5.678153e-004,4.383250e-004
6.669993e-004,4.008879e-004
7.161052e-004,3.705817e-004
7.138362e-004,3.430306e-004
6.541961e-004,3.146691e-004
5.376711e-004,2.820940e-004
3.754436e-004,2.516257e-004
1.892305e-004,2.269918e-004
1.014835e-005,2.085163e-004
-1.261486e-004,1.885823e-004
-1.995642e-004,1.616794e-004
-2.050744e-004,1.278078e-004
-1.524032e-004,9.150514e-005
-6.116039e-005,5.747142e-005
5.001642e-005,2.619281e-005
1.641104e-004,-3.465141e-006
2.655633e-004,-3.490581e-005
3.472443e-004,-7.234290e-005
4.075326e-004,-1.146419e-004
4.378388e-004,-1.564548e-004
4.101256e-004,-1.940539e-004
2.806354e-004,-2.232257e-004
1.857574e-005,-2.389460e-004
-3.757291e-004,-2.327876e-004
-8.632215e-004,-2.005366e-004
-1.355900e-003,-1.480274e-004
-1.724599e-003,-8.806324e-005
-1.860410e-003,-3.393342e-005
-1.731243e-003,6.420843e-006
-1.395282e-003,3.137890e-005
-9.708329e-004,3.980630e-005
-5.752315e-004,2.878586e-005
-2.822175e-004,-3.465141e-006
-1.141558e-004,-5.581224e-005
-3.944364e-005,-1.227452e-004
6.582909e-006,-1.966470e-004
8.875003e-005,-2.668213e-004
2.384984e-004,-3.259751e-004
4.427008e-004,-3.763774e-004
6.559788e-004,-4.206212e-004
8.237166e-004,-4.559515e-004
9.006977e-004,-4.736166e-004
8.668260e-004,-4.612996e-004
7.292324e-004,-4.164075e-004
5.225990e-004,-3.501228e-004
3.007315e-004,-2.872415e-004
1.248906e-004,-2.491561e-004
4.077869e-005,-2.417012e-004
5.941620e-005,-2.530457e-004
1.488763e-004,-2.679557e-004
2.538946e-004,-2.737901e-004
3.355756e-004,-2.689281e-004
3.820883e-004,-2.562870e-004
3.947294e-004,-2.379736e-004
3.759298e-004,-2.118811e-004
3.258516e-004,-1.747682e-004
2.500050e-004,-1.289037e-004
1.728619e-004,-8.028410e-005
1.329939e-004,-3.474375e-005
1.539003e-004,6.420843e-006
2.245608e-004,4.758544e-005
3.034866e-004,9.344993e-005
3.444891e-004,1.457970e-004
3.240689e-004,2.020337e-004
2.504913e-004,2.527602e-004
1.487142e-004,2.874421e-004
2.667901e-005,3.033245e-004
-1.193418e-004,3.059176e-004
-2.783279e-004,3.028383e-004
-4.057112e-004,3.018659e-004
-4.463896e-004,3.028383e-004
-3.778360e-004,3.034866e-004
-2.321393e-004,3.025142e-004
-7.655660e-005,3.049452e-004
1.274139e-005,3.166139e-004
-1.173047e-005,3.375204e-004
-1.501342e-004,3.647473e-004
-3.626019e-004,3.890571e-004
-5.810658e-004,3.965121e-004
-7.424829e-004,3.734989e-004
-8.160605e-004,3.138588e-004
-7.977472e-004,2.174299e-004
-6.877048e-004,9.328786e-005
-5.003574e-004,-4.495386e-005
-2.600145e-004,-1.736337e-004
-1.529591e-005,-2.658489e-004
1.603829e-004,-3.073376e-004
1.994406e-004,-2.979378e-004
7.853991e-005,-2.439701e-004
-1.788198e-004,-1.515928e-004
-5.178604e-004,-3.231277e-005
-8.478253e-004,9.928428e-005
-1.039711e-003,2.276400e-004
-9.745604e-004,3.404375e-004
-6.094273e-004,4.294114e-004
-1.092015e-005,4.935893e-004
6.840162e-004,5.396159e-004
1.334871e-003,5.734875e-004
1.850402e-003,5.955285e-004
2.171779e-003,6.018490e-004
2.268046e-003,5.887217e-004
2.141311e-003,5.587396e-004
1.806321e-003,5.115786e-004
1.294517e-003,4.456179e-004
6.715371e-004,3.647473e-004
5.196120e-005,2.676702e-004
-4.437966e-004,1.613553e-004
-7.476690e-004,5.536457e-005
-8.753765e-004,-4.722278e-005
-8.966069e-004,-1.439758e-004
-8.768350e-004,-2.261429e-004
-8.533355e-004,-2.833519e-004
-8.257844e-004,-3.130099e-004
-7.742477e-004,-3.224097e-004
-6.783050e-004,-3.285682e-004
-5.343911e-004,-3.444506e-004
-3.582261e-004,-3.724878e-004
-1.577513e-004,-4.099249e-004
7.497447e-005,-4.494688e-004
3.441650e-004,-4.812336e-004
6.409068e-004,-4.976023e-004
9.436450e-004,-4.909576e-004
1.230015e-003,-4.546549e-004
1.480730e-003,-3.856151e-004
1.682016e-003,-2.887001e-004
1.820906e-003,-1.801163e-004
1.889460e-003,-8.303922e-005
1.889136e-003,-1.075808e-005
1.824310e-003,3.802358e-005
1.699195e-003,8.016057e-005
1.526595e-003,1.318594e-004
1.326282e-003,2.051129e-004
1.114786e-003,2.995970e-004
8.870842e-004,3.976466e-004
6.259967e-004,4.743035e-004
3.355756e-004,5.086614e-004
4.045456e-005,4.877550e-004
-2.331117e-004,4.122325e-004
-4.802613e-004,2.945730e-004
-7.123387e-004,1.584381e-004
-9.327476e-004,4.094075e-005
-1.150887e-003,-2.988179e-005
-1.370324e-003,-4.706071e-005
-1.566261e-003,-2.631635e-005
-1.703206e-003,3.341602e-006
-1.745505e-003,1.371378e-005
-1.680517e-003,-9.299493e-006
-1.523638e-003,-6.180866e-005
-1.311332e-003,-1.366828e-004
-1.099513e-003,-2.272773e-004
-9.455507e-004,-3.240303e-004
-8.773212e-004,-4.081422e-004
-8.726213e-004,-4.572480e-004
-8.690559e-004,-4.598410e-004
-8.016367e-004,-4.225660e-004
-6.275786e-004,-3.640605e-004
-3.557951e-004,-2.990722e-004
-4.803310e-005,-2.314910e-004
1.979821e-004,-1.530514e-004
2.991108e-004,-5.581224e-005
2.529222e-004,6.557468e-005
1.488763e-004,2.104611e-004
9.944634e-005,3.705817e-004
1.704310e-004,5.247059e-004
3.546993e-004,6.548444e-004
5.995801e-004,7.488423e-004
8.428403e-004,8.023240e-004
1.044288e-003,8.195029e-004
1.189823e-003,8.125341e-004
1.284793e-003,7.913035e-004
1.335195e-003,7.545147e-004
1.332278e-003,6.901747e-004
1.253676e-003,5.885597e-004
1.094366e-003,4.506420e-004
8.752534e-004,2.890628e-004
6.096281e-004,1.287802e-004
2.906835e-004,-1.844488e-006
-9.762509e-005,-8.206682e-005
-5.436288e-004,-1.094559e-004
-9.849326e-004,-1.011905e-004
-1.319597e-003,-8.384954e-005
-1.463349e-003,-8.158062e-005
-1.411326e-003,-1.042698e-004
-1.232893e-003,-1.415448e-004
-1.014753e-003,-1.765509e-004
-8.144398e-004,-1.984297e-004
-6.499436e-004,-2.050744e-004
-5.040849e-004,-1.921092e-004
-3.410472e-004,-1.618029e-004
-1.447861e-004,-1.256624e-004
6.346784e-005,-9.616651e-005
2.355812e-004,-8.547019e-005
3.308757e-004,-9.276313e-005
3.239069e-004,-1.007043e-004
2.088404e-004,-7.639453e-005
1.095867e-005,4.962256e-006
-2.246843e-004,1.344524e-004
-4.429862e-004,2.628082e-004
-5.966241e-004,3.263378e-004
-6.452437e-004,2.890628e-004
-5.697213e-004,1.595726e-004
-3.784843e-004,-1.675450e-005
-1.110765e-004,-1.835197e-004
1.741585e-004,-3.024756e-004
4.174185e-004,-3.611433e-004
5.749461e-004,-3.747568e-004
6.379896e-004,-3.658432e-004
6.269692e-004,-3.551469e-004
5.811046e-004,-3.499608e-004
5.350781e-004,-3.450988e-004
5.062304e-004,-3.287302e-004
4.956961e-004,-2.914552e-004
4.935893e-004,-2.394322e-004
4.896998e-004,-1.857886e-004
4.786793e-004,-1.464067e-004
4.605280e-004,-1.274451e-004
4.384871e-004,-1.277692e-004
4.146635e-004,-1.439758e-004
3.819262e-004,-1.697442e-004
3.323342e-004,-1.874093e-004
2.681563e-004,-1.762268e-004
2.030061e-004,-1.295519e-004
1.543865e-004,-6.018800e-005
1.310491e-004,8.365628e-006
1.331559e-004,5.811968e-005
1.542244e-004,7.918817e-005
1.910133e-004,7.205730e-005
2.404432e-004,4.612685e-005
2.889007e-004,1.825161e-005
3.208276e-004,3.989864e-006
3.268240e-004,1.209313e-005
3.055935e-004,4.175109e-005
2.663737e-004,8.567078e-005
2.300710e-004,1.363972e-004
2.072198e-004,1.837203e-004
1.911753e-004,2.206712e-004
1.692965e-004,2.487085e-004
1.312112e-004,2.814457e-004
8.064677e-005,3.315239e-004
2.765140e-005,4.062361e-004
-2.307504e-005,4.950479e-004
-7.266703e-005,5.741358e-004
-1.271210e-004,6.219451e-004
-1.875713e-004,6.266450e-004
-2.473734e-004,5.932595e-004
-2.992343e-004,5.321609e-004
-3.311612e-004,4.598797e-004
-3.344025e-004,3.903536e-004
-3.049066e-004,3.350894e-004
-2.486699e-004,2.958695e-004
-1.810887e-004,2.692908e-004
-1.211246e-004,2.454672e-004
-7.655660e-005,2.057612e-004
-3.636440e-005,1.440143e-004
1.808955e-005,6.314371e-005
1.009049e-004,-2.501983e-005
2.057612e-004,-1.110765e-004
3.086727e-004,-1.789819e-004
3.807918e-004,-2.131776e-004
3.922984e-004,-2.118811e-004
3.247172e-004,-1.859507e-004
1.798307e-004,-1.527273e-004
-1.918548e-005,-1.293899e-004
-2.288980e-004,-1.267968e-004
-4.061974e-004,-1.477033e-004
-5.204534e-004,-1.865989e-004
-5.483287e-004,-2.308428e-004
-4.846370e-004,-2.666592e-004
-3.463953e-004,-2.870794e-004
-1.434896e-004,-2.895104e-004
1.326697e-004,-2.741142e-004
4.723587e-004,-2.457528e-004
8.253373e-004,-2.139880e-004
1.117541e-003,-1.900023e-004
1.276204e-003,-1.794681e-004
1.268262e-003,-1.796301e-004
1.135693e-003,-1.831956e-004
9.776788e-004,-1.836818e-004
8.961599e-004,-1.747682e-004
9.274385e-004,-1.485136e-004
1.013495e-003,-1.026491e-004
1.026623e-003,-4.219875e-005
8.522401e-004,1.663096e-005
4.430249e-004,6.087479e-005
-1.624512e-004,8.210535e-005
-8.541459e-004,8.437427e-005
-1.510835e-003,7.724339e-005
-2.036412e-003,7.092284e-005
-2.373833e-003,6.768154e-005
-2.512561e-003,6.460230e-005
-2.489224e-003,5.876794e-005
-2.361678e-003,4.839576e-005
-2.165741e-003,3.445814e-005
-1.919563e-003,2.214118e-005
-1.649887e-003,1.663096e-005
-1.396092e-003,2.181705e-005
-1.200317e-003,3.559260e-005
-1.094003e-003,5.163707e-005
-1.086710e-003,6.168512e-005
-1.155425e-003,6.055066e-005
-1.241968e-003,5.098881e-005
-1.267412e-003,4.223728e-005
-1.170335e-003,4.110282e-005
-9.427955e-004,5.244739e-005
-6.303337e-004,7.513654e-005
-3.023136e-004,1.004187e-004
-2.064406e-005,1.242423e-004
1.790204e-004,1.534141e-004
3.023522e-004,2.004130e-004
3.869503e-004,2.725321e-004
4.723587e-004,3.649094e-004
5.778633e-004,4.556660e-004
7.031399e-004,5.183853e-004
8.292268e-004,5.379952e-004
9.323005e-004,5.154681e-004
9.953440e-004,4.611762e-004
1.020950e-003,3.879227e-004
1.024192e-003,3.106175e-004
1.015116e-003,2.453052e-004
1.006040e-003,2.012234e-004
1.001502e-003,1.808031e-004
1.004096e-003,1.722137e-004
1.009768e-003,1.644345e-004
1.011713e-003,1.581140e-004
1.006527e-003,1.576278e-004
1.002151e-003,1.628139e-004
1.007985e-003,1.655690e-004
1.017871e-003,1.555210e-004
1.016088e-003,1.261871e-004
9.861062e-004,8.129502e-005
9.183628e-004,3.137890e-005
8.175581e-004,-1.205460e-005
7.023296e-004,-3.555408e-005
6.007145e-004,-2.291298e-005
5.394538e-004,3.024445e-005
5.276231e-004,1.185701e-004
5.533914e-004,2.234263e-004
6.010387e-004,3.245551e-004
6.554927e-004,4.093153e-004
7.031399e-004,4.704139e-004
7.324737e-004,5.026649e-004
7.410632e-004,5.033132e-004
7.313393e-004,4.686312e-004
7.122156e-004,3.948915e-004
6.973055e-004,2.832284e-004
6.973055e-004,1.436902e-004
7.135121e-004,-6.382317e-006
7.434942e-004,-1.496481e-004
7.759072e-004,-2.760590e-004
8.011895e-004,-3.810773e-004
8.177201e-004,-4.611376e-004
8.303613e-004,-5.092709e-004
8.454334e-004,-5.193190e-004
8.622882e-004,-4.935506e-004
8.759017e-004,-4.395829e-004
8.731466e-004,-3.728119e-004
8.387887e-004,-3.107410e-004
7.548388e-004,-2.652006e-004
6.008766e-004,-2.454286e-004
3.559958e-004,-2.533699e-004
1.257933e-005,-2.794623e-004
-4.084663e-004,-3.074997e-004
-8.515528e-004,-3.290543e-004
-1.237430e-003,-3.446126e-004
-1.474208e-003,-3.564434e-004
-1.507431e-003,-3.692465e-004
-1.358655e-003,-3.809152e-004
-1.127550e-003,-3.830221e-004
-9.449024e-004,-3.695707e-004
-9.058447e-004,-3.431540e-004
-1.054783e-003,-3.070135e-004
-1.392041e-003,-2.666592e-004
-1.856682e-003,-2.227395e-004
-2.332182e-003,-1.744440e-004
-2.679002e-003,-1.209625e-004
-2.767328e-003,-6.569822e-005
-2.528443e-003,-1.302700e-005
-1.991520e-003,3.008238e-005
-1.274543e-003,5.844381e-005
-5.352014e-004,7.108491e-005
8.907416e-005,7.432621e-005
5.271368e-004,7.351589e-005
7.770417e-004,7.270556e-005
8.653674e-004,7.708133e-005
8.126961e-004,9.020862e-005
6.412309e-004,1.049566e-004
3.820883e-004,1.130598e-004
8.583286e-005,1.094944e-004
-1.788198e-004,9.377406e-005
-3.391024e-004,7.351589e-005
-3.632501e-004,5.730935e-005
-2.749245e-004,5.034055e-005
-1.292278e-004,5.633696e-005
2.116879e-005,7.853991e-005
1.469315e-004,1.184080e-004
2.469258e-004,1.736723e-004
3.363859e-004,2.372019e-004
4.300596e-004,3.015418e-004
5.324850e-004,3.606957e-004
6.400964e-004,4.065602e-004
7.378219e-004,4.239012e-004
8.052412e-004,3.995914e-004
8.251752e-004,3.367100e-004
8.010275e-004,2.569738e-004
7.540284e-004,1.876099e-004
7.146465e-004,1.513072e-004
7.088122e-004,1.550348e-004
7.503009e-004,1.861513e-004
8.368439e-004,2.234263e-004
9.386210e-004,2.521119e-004
1.013819e-003,2.688046e-004
1.035050e-003,2.838767e-004
9.993956e-004,3.064038e-004
9.178767e-004,3.373583e-004
8.039447e-004,3.757678e-004
6.699165e-004,4.102877e-004
5.285954e-004,4.300596e-004
3.987811e-004,4.248736e-004
2.961937e-004,3.890571e-004
2.206712e-004,3.250413e-004
1.594105e-004,2.444948e-004
9.750156e-005,1.701068e-004
2.084466e-005,1.271595e-004
-7.088431e-005,1.276457e-004
-1.629374e-004,1.611932e-004
-2.348944e-004,2.017096e-004
-2.741142e-004,2.198609e-004
-2.801106e-004,2.012234e-004
-2.621213e-004,1.519555e-004
-2.282497e-004,8.875003e-005
-1.820611e-004,2.538249e-005
-1.331174e-004,-3.328516e-005
-1.010285e-004,-8.822530e-005
-1.224211e-004,-1.464067e-004
-2.224154e-004,-2.097743e-004
-3.979321e-004,-2.720074e-004
-6.116962e-004,-3.224097e-004
-7.995299e-004,-3.580640e-004
-9.030896e-004,-3.773498e-004
-8.906106e-004,-3.797808e-004
-7.695478e-004,-3.660052e-004
-5.810658e-004,-3.371576e-004
-3.843186e-004,-2.951827e-004
-2.323013e-004,-2.402425e-004
-1.611547e-004,-1.757406e-004
-1.791439e-004,-1.123730e-004
-2.760590e-004,-6.229485e-005
-4.311555e-004,-3.474375e-005
-6.152617e-004,-3.247483e-005
-8.014747e-004,-5.208474e-005
-9.734259e-004,-8.514606e-005
-1.112964e-003,-1.243659e-004
-1.188649e-003,-1.647201e-004
-1.169849e-003,-2.037779e-004
-1.045869e-003,-2.387840e-004
-8.416669e-004,-2.600145e-004
-5.954896e-004,-2.600145e-004
-3.446126e-004,-2.376495e-004
-1.151281e-004,-2.024813e-004
7.400208e-005,-1.695821e-004
2.098128e-004,-1.507825e-004
3.021901e-004,-1.473791e-004
3.777126e-004,-1.493239e-004
4.663623e-004,-1.421931e-004
5.843459e-004,-1.169109e-004
7.279359e-004,-7.331530e-005
8.870842e-004,-1.643037e-005
1.045260e-003,4.774750e-005
1.180261e-003,1.124116e-004
1.265345e-003,1.725378e-004
1.277662e-003,2.198609e-004
1.208460e-003,2.529222e-004
1.057577e-003,2.777182e-004
8.355473e-004,2.961937e-004
5.670050e-004,3.083486e-004
2.877662e-004,3.140208e-004
5.552663e-005,3.085106e-004
-6.667062e-005,2.871180e-004
-5.565017e-005,2.498430e-004
5.876794e-005,2.064095e-004
2.109473e-004,1.598967e-004
3.441650e-004,1.133840e-004
4.253598e-004,7.189524e-005
4.355699e-004,4.531652e-005
3.642611e-004,4.142696e-005
2.331503e-004,6.006447e-005
9.004655e-005,9.701536e-005
-3.858999e-007,1.412592e-004
9.824215e-006,1.838824e-004
1.245665e-004,2.268297e-004
2.923041e-004,2.748010e-004
4.367043e-004,3.260137e-004
4.965065e-004,3.767402e-004
4.420525e-004,4.161220e-004
2.845250e-004,4.307079e-004
8.145709e-005,4.187151e-004
-8.773911e-005,3.950536e-004
-1.590478e-004,3.822504e-004
-1.180453e-004,3.981328e-004
-8.651231e-006,4.423766e-004
8.826383e-005,5.036374e-004
1.000946e-004,5.634395e-004
-1.124428e-005,5.990939e-004
-2.339220e-004,5.947181e-004
-5.102433e-004,5.478812e-004
-7.661444e-004,4.657141e-004
-9.504127e-004,3.543751e-004
-1.054459e-003,2.209954e-004
-1.092868e-003,7.189524e-005
-1.083468e-003,-8.109443e-005
-1.045383e-003,-2.253326e-004
-9.888222e-004,-3.410472e-004
-9.189720e-004,-4.152731e-004
-8.445840e-004,-4.420138e-004
-7.838095e-004,-4.301831e-004
-7.371347e-004,-4.024699e-004
-6.779809e-004,-3.797808e-004
-5.815520e-004,-3.716775e-004
-4.423380e-004,-3.744326e-004
-2.747625e-004,-3.762153e-004
-9.389759e-005,-3.669776e-004
8.648112e-005,-3.538503e-004
2.534084e-004,-3.499608e-004
4.046154e-004,-3.601709e-004
5.388056e-004,-3.779981e-004
6.511169e-004,-3.955011e-004
7.459252e-004,-4.027940e-004
8.326302e-004,-3.891806e-004
9.220903e-004,-3.491504e-004
1.023057e-003,-2.904828e-004
1.128400e-003,-2.326255e-004
1.219319e-003,-1.940539e-004
1.277824e-003,-1.836818e-004
1.295813e-003,-1.927574e-004
1.276204e-003,-2.060468e-004
1.232122e-003,-2.123673e-004
1.168106e-003,-2.152845e-004
1.077835e-003,-2.253326e-004
9.476967e-004,-2.462390e-004
7.627800e-004,-2.767073e-004
5.191956e-004,-3.120375e-004
2.281262e-004,-3.489884e-004
-8.255302e-005,-3.794566e-004
-3.731361e-004,-3.846427e-004
-6.120203e-004,-3.454229e-004
-7.928851e-004,-2.598524e-004
-9.358267e-004,-1.423551e-004
-1.077634e-003,-1.156841e-005
-1.244723e-003,1.159770e-004
-1.419754e-003,2.237505e-004
-1.540330e-003,3.008936e-004
-1.539520e-003,3.474063e-004
-1.394310e-003,3.700955e-004
-1.143432e-003,3.799815e-004
-8.604664e-004,3.893813e-004
-6.228787e-004,4.085050e-004
-4.724821e-004,4.410801e-004
-4.040906e-004,4.817585e-004
-3.763774e-004,5.177371e-004
-3.410472e-004,5.459364e-004
-2.668213e-004,5.708945e-004
-1.472171e-004,5.934216e-004
2.855407e-006,6.117350e-004
1.598967e-004,6.216210e-004
3.039728e-004,6.211348e-004
4.219564e-004,6.169211e-004
5.073649e-004,6.136798e-004
5.668429e-004,6.148142e-004
6.128695e-004,6.144901e-004
6.517651e-004,6.057385e-004
6.802886e-004,5.859666e-004
6.880678e-004,5.561466e-004
6.653786e-004,5.229231e-004
6.073592e-004,4.978030e-004
5.182233e-004,4.869446e-004
4.072085e-004,4.903480e-004
2.958695e-004,4.952099e-004
2.263435e-004,4.846757e-004
2.307193e-004,4.467524e-004
3.174242e-004,3.731747e-004
4.705760e-004,2.654013e-004
6.486859e-004,1.331559e-004
7.937344e-004,-1.513384e-005
8.613158e-004,-1.729855e-004
8.475402e-004,-3.407231e-004
7.797969e-004,-5.188328e-004
7.010330e-004,-6.912703e-004
6.493342e-004,-8.312946e-004
6.533858e-004,-9.098963e-004
7.141604e-004,-9.170272e-004
8.034584e-004,-8.680834e-004
8.807636e-004,-7.980713e-004
9.160939e-004,-7.309763e-004
8.935668e-004,-6.721465e-004
8.088066e-004,-6.159099e-004
6.545202e-004,-5.470322e-004
4.177427e-004,-4.543308e-004
9.474644e-005,-3.386162e-004
-2.780038e-004,-2.128535e-004
-6.149375e-004,-9.341139e-005
-8.295119e-004,7.879432e-006
-8.828315e-004,8.421220e-005
-7.841337e-004,1.360731e-004
-5.768522e-004,1.692965e-004
-3.206269e-004,1.944166e-004
-7.509801e-005,2.158093e-004
1.185701e-004,2.297469e-004
2.360674e-004,2.276400e-004
2.713977e-004,1.991165e-004
2.423880e-004,1.459591e-004
1.775618e-004,7.319176e-005
1.023635e-004,-8.165035e-006
3.721326e-005,-8.271508e-005
-6.544382e-006,-1.324691e-004
-3.620233e-005,-1.489998e-004
-8.320128e-005,-1.347380e-004
-1.817370e-004,-9.811128e-005
-3.361852e-004,-5.467778e-005
-5.060296e-004,-1.983374e-005
-6.390853e-004,-5.479652e-007
-6.883531e-004,4.800190e-006
-6.376266e-004,1.234753e-006
-5.125122e-004,-5.896120e-006
-3.700569e-004,-8.489166e-006
-2.726556e-004,-2.238346e-007
-2.564491e-004,1.663096e-005
-3.143064e-004,3.867184e-005
-3.985804e-004,6.768154e-005
-4.580583e-004,1.004187e-004
-4.676201e-004,1.346145e-004
-4.274280e-004,1.667035e-004
-3.425058e-004,1.950649e-004
-2.219292e-004,2.193747e-004
-9.146661e-005,2.446569e-004
1.614476e-005,2.777182e-004
8.372601e-005,3.146691e-004
1.049566e-004,3.475684e-004
7.627100e-005,3.689610e-004
1.387585e-005,3.741471e-004
-4.770897e-005,3.628026e-004
-7.574627e-005,3.404375e-004
-5.889148e-005,3.141829e-004
-2.307504e-005,2.916559e-004
-1.092015e-005,2.751252e-004
-4.187462e-005,2.611876e-004
-1.002181e-004,2.461155e-004
-1.522411e-004,2.260194e-004
-1.728234e-004,2.018716e-004
-1.559686e-004,1.751309e-004
-1.186936e-004,1.470936e-004
-1.020008e-004,1.171115e-004
-1.425172e-004,8.032264e-005
-2.491561e-004,4.029250e-005
-3.878840e-004,4.638125e-006
-4.977643e-004,-1.545797e-005
-5.186707e-004,-9.623623e-006
-4.147869e-004,2.846173e-005
-2.002124e-004,9.588091e-005
5.909208e-005,1.772377e-004
2.650771e-004,2.503292e-004
3.226103e-004,2.955454e-004
1.856651e-004,3.025142e-004
-1.323071e-004,2.704253e-004
-5.640491e-004,2.098128e-004
-1.012484e-003,1.325077e-004
-1.374700e-003,4.758544e-005
-1.554916e-003,-3.830919e-005
-1.508890e-003,-1.191798e-004
-1.258013e-003,-1.883817e-004
-8.758627e-004,-2.499665e-004
-4.488206e-004,-3.089583e-004
-5.305713e-005,-3.668155e-004
2.650771e-004,-4.167317e-004
4.908342e-004,-4.433104e-004
6.433378e-004,-4.395829e-004
7.619697e-004,-4.121938e-004
8.833567e-004,-3.778360e-004
1.024840e-003,-3.575778e-004
1.181719e-003,-3.650328e-004
1.336330e-003,-3.963114e-004
1.461769e-003,-4.356933e-004
1.528540e-003,-4.634065e-004
1.503582e-003,-4.695649e-004
1.354157e-003,-4.535205e-004
1.075566e-003,-4.193247e-004
7.159431e-004,-3.687603e-004
3.728506e-004,-3.031239e-004
1.427178e-004,-2.173914e-004
7.400208e-005,-1.112386e-004
1.516314e-004,3.341602e-006
3.122381e-004,1.049566e-004
4.843516e-004,1.770756e-004
6.195141e-004,2.138645e-004
7.013571e-004,2.271538e-004
7.462493e-004,2.342847e-004
7.875760e-004,2.535705e-004
8.528884e-004,2.910076e-004
9.489932e-004,3.367100e-004
1.072001e-003,3.754436e-004
1.209757e-003,3.955397e-004
1.344271e-003,3.960259e-004
1.445886e-003,3.819262e-004
1.487699e-003,3.616681e-004
1.452207e-003,3.474063e-004
1.330658e-003,3.475684e-004
1.120459e-003,3.574544e-004
8.361956e-004,3.616681e-004
5.143337e-004,3.446512e-004
1.944166e-004,2.955454e-004
-1.010285e-004,2.192126e-004
-3.677880e-004,1.386662e-004
-6.071584e-004,8.534666e-005
-8.277292e-004,7.870197e-005
-1.053000e-003,1.145184e-004
-1.293829e-003,1.730240e-004
-1.534010e-003,2.321778e-004
-1.747612e-003,2.793389e-004
-1.906922e-003,3.109416e-004
-1.991034e-003,3.274723e-004
-2.004972e-003,3.239069e-004
-1.983093e-003,3.010556e-004
-1.960890e-003,2.639427e-004
-1.929936e-003,2.171058e-004
-1.832696e-003,1.722137e-004
-1.598998e-003,1.394765e-004
-1.207610e-003,1.250527e-004
-7.146077e-004,1.255389e-004
-2.157707e-004,1.287802e-004
1.949028e-004,1.279698e-004
4.451317e-004,1.257009e-004
5.018546e-004,1.291043e-004
3.890571e-004,1.474177e-004
1.945787e-004,1.772377e-004
2.862379e-005,2.062474e-004
-2.404744e-005,2.208333e-004
6.411610e-005,2.075439e-004
2.572980e-004,1.616794e-004
4.827309e-004,9.620504e-005
6.749405e-004,3.591673e-005
7.947069e-004,2.855407e-006
8.350612e-004,7.069105e-006
8.138306e-004,4.758544e-005
7.575939e-004,1.041462e-004
6.875816e-004,1.490383e-004
6.086557e-004,1.607070e-004
5.146578e-004,1.297526e-004
3.984569e-004,6.200925e-005
2.639427e-004,-2.210265e-005
1.235941e-004,-9.762509e-005
-9.299493e-006,-1.533756e-004
-1.261486e-004,-1.921092e-004
-2.217671e-004,-2.263049e-004
-2.791382e-004,-2.686040e-004
-2.867553e-004,-3.209511e-004
-2.499665e-004,-3.705430e-004
-1.887058e-004,-4.014975e-004
-1.360346e-004,-4.065215e-004
-1.105903e-004,-3.893426e-004
-1.055663e-004,-3.621157e-004
-1.032974e-004,-3.408851e-004
-8.514606e-005,-3.331060e-004
-4.544006e-005,-3.405610e-004
1.014835e-005,-3.609812e-004
6.881599e-005,-3.888564e-004
1.205148e-004,-4.186764e-004
1.571416e-004,-4.444448e-004
1.806411e-004,-4.632444e-004
1.931201e-004,-4.698891e-004
1.947408e-004,-4.648651e-004
1.811273e-004,-4.446069e-004
1.500107e-004,-3.998769e-004
1.009049e-004,-3.259751e-004
4.385793e-005,-2.284118e-004
-3.951337e-006,-1.126972e-004
-3.344723e-005,1.225520e-005
-4.381940e-005,1.320215e-004
-4.106429e-005,2.289366e-004
-3.296103e-005,2.901973e-004
-1.967167e-005,3.124002e-004
6.744974e-006,3.034866e-004
5.358185e-005,2.767458e-004
1.201907e-004,2.431983e-004
1.991165e-004,2.128921e-004
2.816078e-004,1.913374e-004
3.600474e-004,1.799928e-004
4.239012e-004,1.785342e-004
4.613383e-004,1.840444e-004
4.636072e-004,1.963614e-004
4.311941e-004,2.219677e-004
3.754436e-004,2.572980e-004
3.039728e-004,2.854973e-004
2.287745e-004,2.858215e-004
1.602208e-004,2.464396e-004
9.750156e-005,1.689724e-004
3.607880e-005,7.043665e-005
-2.923353e-005,-1.821308e-005
-9.551824e-005,-6.634648e-005
-1.561307e-004,-5.500191e-005
-1.925954e-004,1.225520e-005
-1.797922e-004,1.216493e-004
-9.778715e-005,2.498430e-004
5.212327e-005,3.722023e-004
2.401191e-004,4.683071e-004
4.180668e-004,5.292437e-004
5.357263e-004,5.519328e-004
5.614947e-004,5.425331e-004
5.013684e-004,5.110924e-004
3.806297e-004,4.689553e-004
2.221298e-004,4.264942e-004
3.769945e-005,3.918123e-004
-1.546721e-004,3.623164e-004
-3.238683e-004,3.355756e-004
-4.384484e-004,3.077003e-004
-4.802613e-004,2.767458e-004
-4.549791e-004,2.470879e-004
-3.925839e-004,2.219677e-004
-3.228959e-004,2.020337e-004
-2.593663e-004,1.788584e-004
-2.044261e-004,1.448246e-004
-1.611547e-004,9.669123e-005
-1.337657e-004,3.462021e-005
-1.219349e-004,-3.409549e-005
-1.094559e-004,-9.924574e-005
-7.785312e-005,-1.527273e-004
-2.258885e-005,-1.922712e-004
5.811968e-005,-2.183637e-004
1.618415e-004,-2.344082e-004
2.735045e-004,-2.460769e-004
3.746333e-004,-2.559629e-004
4.483731e-004,-2.650386e-004
4.895377e-004,-2.768693e-004
5.169268e-004,-2.963172e-004
5.511225e-004,-3.235441e-004
5.905044e-004,-3.491504e-004
6.013628e-004,-3.642225e-004
5.407503e-004,-3.629260e-004
3.702575e-004,-3.510952e-004
7.513654e-005,-3.391024e-004
-3.086341e-004,-3.344025e-004
-7.040734e-004,-3.387782e-004
-1.013780e-003,-3.465574e-004
-1.136626e-003,-3.483401e-004
-9.993564e-004,-3.387782e-004
-6.197995e-004,-3.177098e-004
-1.264727e-004,-2.844864e-004
3.059176e-004,-2.417012e-004
5.456123e-004,-1.929195e-004
5.407503e-004,-1.387897e-004
3.004074e-004,-8.028410e-005
-1.055663e-004,-2.599222e-005
-5.629146e-004,1.727922e-005
-9.583539e-004,3.964424e-005
-1.216686e-003,4.013043e-005
-1.316680e-003,2.522042e-005
-1.286536e-003,4.313994e-006
-1.182490e-003,-2.129233e-005
-1.072610e-003,-5.516398e-005
-9.841222e-004,-9.649064e-005
-9.029275e-004,-1.334415e-004
-7.941817e-004,-1.485136e-004
-6.300096e-004,-1.267968e-004
-4.091146e-004,-6.148453e-005
-1.562927e-004,4.758544e-005
1.015532e-004,1.914995e-004
3.428685e-004,3.503235e-004
5.553362e-004,4.926169e-004
7.454390e-004,5.888838e-004
9.225765e-004,6.306967e-004
1.078484e-003,6.274553e-004
1.185933e-003,5.982835e-004
1.209595e-003,5.587396e-004
1.109438e-003,5.170888e-004
8.694191e-004,4.815964e-004
5.423710e-004,4.582590e-004
2.506533e-004,4.522626e-004
1.138702e-004,4.665244e-004
1.793446e-004,4.948858e-004
3.986190e-004,5.260024e-004
6.700786e-004,5.477191e-004
8.997253e-004,5.538776e-004
1.039750e-003,5.433434e-004
1.095662e-003,5.203301e-004
1.100687e-003,4.926169e-004
1.090152e-003,4.655520e-004
1.085290e-003,4.433490e-004
1.091125e-003,4.282770e-004
1.098580e-003,4.164462e-004
1.094690e-003,3.974845e-004
1.066329e-003,3.616681e-004
1.021274e-003,3.052694e-004
9.760582e-004,2.333123e-004
9.382969e-004,1.569795e-004
9.081527e-004,8.388807e-005
8.716880e-004,2.246531e-005
7.966516e-004,-1.869928e-005
6.533858e-004,-3.344723e-005
4.427008e-004,-2.518189e-005
1.864754e-004,-8.327101e-006
-8.968389e-005,-3.303076e-006
-3.519055e-004,-2.194059e-005
-5.671282e-004,-6.310517e-005
-7.262764e-004,-1.177212e-004
-8.601423e-004,-1.781716e-004
-9.991943e-004,-2.404046e-004
-1.138895e-003,-3.079858e-004
-1.268223e-003,-3.852910e-004
-1.374213e-003,-4.739407e-004
-1.434178e-003,-5.627525e-004
-1.426561e-003,-6.387612e-004
-1.358493e-003,-6.920806e-004
-1.260282e-003,-7.180111e-004
-1.142136e-003,-7.112043e-004
-9.969254e-004,-6.729569e-004
-8.374532e-004,-6.078067e-004
-7.006701e-004,-5.275843e-004
-6.330888e-004,-4.471999e-004
-6.661501e-004,-3.791325e-004
-7.969369e-004,-3.321336e-004
-9.831499e-004,-3.002067e-004
-1.149105e-003,-2.702246e-004
-1.226086e-003,-2.292221e-004
-1.185569e-003,-1.736337e-004
-1.053486e-003,-1.123730e-004
-8.881796e-004,-5.548811e-005
-7.471828e-004,-7.516774e-006
-6.432990e-004,3.316162e-005
-5.353634e-004,7.335383e-005
-3.622777e-004,1.226217e-004
-1.041077e-004,1.842065e-004
1.751309e-004,2.496809e-004
3.772264e-004,2.994350e-004
4.469145e-004,3.117519e-004
4.007258e-004,2.770700e-004
3.140208e-004,1.965235e-004
2.731804e-004,8.502253e-005
3.295791e-004,-3.474375e-005
4.819206e-004,-1.389517e-004
6.896885e-004,-2.066950e-004
8.972943e-004,-2.288980e-004
1.062925e-003,-2.081536e-004
1.168754e-003,-1.571031e-004
1.207164e-003,-9.081835e-005
1.180747e-003,-2.307504e-005
1.089666e-003,3.867184e-005
9.311661e-004,9.393612e-005
7.131880e-004,1.423936e-004
4.822447e-004,1.835583e-004
3.093210e-004,2.221298e-004
2.487085e-004,2.707494e-004
3.060797e-004,3.381686e-004
4.407560e-004,4.102877e-004
5.960147e-004,4.634451e-004
7.331221e-004,4.817585e-004
8.465679e-004,4.624728e-004
9.506139e-004,4.115842e-004
1.046395e-003,3.386548e-004
1.116731e-003,2.480603e-004
1.133424e-003,1.425557e-004
1.072649e-003,2.522042e-005
9.311661e-004,-8.790117e-005
7.290703e-004,-1.765509e-004
5.012064e-004,-2.301945e-004
2.782044e-004,-2.502906e-004
8.486046e-005,-2.412149e-004
-6.488790e-005,-2.071812e-004
-1.679614e-004,-1.502963e-004
-2.292221e-004,-7.412562e-005
-2.428356e-004,1.387585e-005
-1.942160e-004,1.064152e-004
-8.158062e-005,1.937684e-004
7.983644e-005,2.681563e-004
2.585945e-004,3.302274e-004
4.209840e-004,3.926226e-004
5.365367e-004,4.697657e-004
5.811046e-004,5.674912e-004
5.430193e-004,6.763991e-004
4.294114e-004,7.793107e-004
2.663737e-004,8.519160e-004
9.150514e-005,8.660157e-004
-5.694670e-005,8.000550e-004
-1.632615e-004,6.499824e-004
-2.253326e-004,4.367043e-004
-2.515871e-004,2.007372e-004
-2.590421e-004,-1.043395e-005
-2.661730e-004,-1.593720e-004
-2.789762e-004,-2.290601e-004
-2.950206e-004,-2.363530e-004
-3.107410e-004,-2.178775e-004
-3.222476e-004,-2.073433e-004
-3.342404e-004,-2.149604e-004
-3.541745e-004,-2.323013e-004
-3.924218e-004,-2.431597e-004
-4.478482e-004,-2.355427e-004
-5.099192e-004,-2.104225e-004
-5.622663e-004,-1.771992e-004
-5.888450e-004,-1.525652e-004
-5.851175e-004,-1.501342e-004
-5.535148e-004,-1.781716e-004
-4.972781e-004,-2.280877e-004
-4.217557e-004,-2.840002e-004
-3.321336e-004,-3.264613e-004
-2.300324e-004,-3.395886e-004
-1.175591e-004,-3.237062e-004
-3.303076e-006,-2.864312e-004
1.000946e-004,-2.421874e-004
1.840444e-004,-2.049123e-004
2.509774e-004,-1.791439e-004
3.132105e-004,-1.580754e-004
3.733368e-004,-1.370070e-004
4.107739e-004,-1.170729e-004
3.921364e-004,-1.060525e-004
2.978143e-004,-1.088076e-004
1.380179e-004,-1.261486e-004
-5.613637e-005,-1.496481e-004
-2.489941e-004,-1.715269e-004
-4.136524e-004,-1.857886e-004
-5.277464e-004,-1.898403e-004
-5.698834e-004,-1.775233e-004
-5.337428e-004,-1.486757e-004
-4.233763e-004,-1.123730e-004
-2.538560e-004,-7.882551e-005
-5.905355e-005,-5.159854e-005
1.148425e-004,-3.377136e-005
2.334744e-004,-2.469570e-005
2.783665e-004,-1.934754e-005
2.532463e-004,-1.562004e-005
1.723757e-004,-1.351319e-005
5.309566e-005,-1.254080e-005
-8.012204e-005,-1.837515e-005
-2.053985e-004,-2.874733e-005
-3.149546e-004,-3.279896e-005
-4.133283e-004,-2.161646e-005
-5.149432e-004,6.420843e-006
-6.279027e-004,5.601284e-005
-7.350279e-004,1.334801e-004
-7.987196e-004,2.401191e-004
-7.867267e-004,3.717161e-004
-6.975908e-004,5.136854e-004
-5.606457e-004,6.404206e-004
-4.193247e-004,7.258290e-004
-3.178718e-004,7.545147e-004
-2.997205e-004,7.295565e-004
-3.828600e-004,6.652166e-004
-5.415219e-004,5.809425e-004
-7.066664e-004,4.984512e-004
-7.930472e-004,4.302217e-004
-7.363244e-004,3.835469e-004
-5.139708e-004,3.561579e-004
-1.634236e-004,3.380065e-004
2.269918e-004,3.203414e-004
5.537156e-004,3.017039e-004
7.196706e-004,2.782044e-004
6.627856e-004,2.493568e-004
3.913261e-004,2.231022e-004
-2.080613e-005,2.067336e-004
-4.669719e-004,2.015475e-004
-8.366429e-004,2.039785e-004
-1.041169e-003,2.062474e-004
-1.033714e-003,2.030061e-004
-8.154123e-004,1.929580e-004
-4.442827e-004,1.765894e-004
-7.030578e-006,1.521176e-004
4.162841e-004,1.128978e-004
7.763935e-004,5.617490e-005
1.054660e-003,-1.513384e-005
1.239739e-003,-9.438378e-005
1.312344e-003,-1.716889e-004
1.250597e-003,-2.378116e-004
1.044936e-003,-2.833519e-004
7.076777e-004,-3.074997e-004
2.897111e-004,-3.178718e-004
-1.047560e-004,-3.280820e-004
-3.530400e-004,-3.421817e-004
-4.016596e-004,-3.559572e-004
-2.919414e-004,-3.622777e-004
-1.261486e-004,-3.544986e-004
-5.896120e-006,-3.352128e-004
1.987227e-005,-3.215994e-004
-3.701266e-005,-3.272716e-004
-1.302002e-004,-3.480160e-004
-2.154466e-004,-3.681121e-004
-2.585559e-004,-3.734602e-004
-2.264670e-004,-3.579019e-004
-9.811128e-005,-3.262992e-004
1.210010e-004,-2.877277e-004
3.971604e-004,-2.501286e-004
6.869333e-004,-2.222533e-004
9.574206e-004,-2.063709e-004
1.191119e-003,-1.998883e-004
1.385436e-003,-1.984297e-004
1.552364e-003,-2.019951e-004
1.717346e-003,-2.089640e-004
1.904208e-003,-2.131776e-004
2.122349e-003,-2.131776e-004
2.356534e-003,-2.029675e-004
2.561872e-003,-1.728234e-004
2.679046e-003,-1.185315e-004
2.657167e-003,-4.398147e-005
2.469981e-003,3.672706e-005
2.130938e-003,1.036600e-004
1.681854e-003,1.457970e-004
1.179288e-003,1.645966e-004
6.713751e-004,1.678379e-004
1.958752e-004,1.634622e-004
-2.164190e-004,1.577899e-004
-5.557837e-004,1.566554e-004
-8.379394e-004,1.610312e-004
-1.088816e-003,1.689724e-004
-1.324621e-003,1.778860e-004
-1.557347e-003,1.902029e-004
-1.791208e-003,2.094887e-004
-2.007403e-003,2.321778e-004
-2.180489e-003,2.503292e-004
-2.302362e-003,2.540567e-004
-2.384691e-003,2.399570e-004
-2.425370e-003,2.130541e-004
-2.391336e-003,1.874478e-004
-2.240129e-003,1.785342e-004
-1.951814e-003,1.960373e-004
-1.545192e-003,2.388225e-004
-1.065965e-003,2.983005e-004
-5.786349e-004,3.626405e-004
-1.481895e-004,4.188772e-004
1.722137e-004,4.564763e-004
3.712299e-004,4.718725e-004
4.778690e-004,4.683071e-004
5.493398e-004,4.546936e-004
6.365310e-004,4.397836e-004
7.632662e-004,4.311941e-004
9.267902e-004,4.300596e-004
1.100524e-003,4.324906e-004
1.248004e-003,4.310321e-004
1.335358e-003,4.154738e-004
1.345406e-003,3.840331e-004
1.277014e-003,3.423823e-004
1.144606e-003,3.010556e-004
9.682790e-004,2.649151e-004
7.652109e-004,2.388225e-004
5.462606e-004,2.294227e-004
3.136967e-004,2.339606e-004
6.800567e-005,2.397949e-004
-1.755785e-004,2.325020e-004
-3.825359e-004,2.094887e-004
-5.214258e-004,1.783722e-004
-5.817142e-004,1.508211e-004
-5.736109e-004,1.308870e-004
-5.327704e-004,1.182459e-004
-5.264499e-004,1.064152e-004
-6.290372e-004,8.437427e-005
-8.526873e-004,4.126489e-005
-1.109075e-003,-2.275091e-005
-1.266602e-003,-9.519411e-005
-1.237754e-003,-1.629374e-004
-1.019128e-003,-2.196603e-004
-6.739292e-004,-2.637420e-004
-2.982619e-004,-2.969654e-004
1.614476e-005,-3.254889e-004
2.213195e-004,-3.543365e-004
3.247172e-004,-3.817256e-004
3.670162e-004,-4.070078e-004
3.914881e-004,-4.327761e-004
4.195254e-004,-4.612996e-004
4.595556e-004,-4.924161e-004
5.088235e-004,-5.245051e-004
5.621430e-004,-5.535148e-004
6.115729e-004,-5.706937e-004
6.433378e-004,-5.637249e-004
6.477135e-004,-5.199672e-004
6.294001e-004,-4.421759e-004
5.939078e-004,-3.489884e-004
5.449640e-004,-2.660110e-004
4.768966e-004,-2.128535e-004
3.777126e-004,-1.977815e-004
2.396328e-004,-2.131776e-004
6.444023e-005,-2.438080e-004
-1.287416e-004,-2.702246e-004
-3.141443e-004,-2.771934e-004
-4.648651e-004,-2.629317e-004
-5.599973e-004,-2.326255e-004
-5.964621e-004,-1.914609e-004
-5.890070e-004,-1.400862e-004
-5.527044e-004,-7.769106e-005
-4.941989e-004,-9.623623e-006
-3.993907e-004,5.115087e-005
-2.514251e-004,8.891209e-005
-4.997789e-005,9.409818e-005
1.788584e-004,6.962632e-005
3.910019e-004,3.056858e-005
5.405883e-004,-6.176923e-008
6.034696e-004,-2.816880e-006
5.827253e-004,3.202716e-005
4.971547e-004,1.018773e-004
3.747954e-004,1.966855e-004
2.346088e-004,3.033245e-004
8.631905e-005,4.094774e-004
-5.662256e-005,5.075270e-004
-1.734716e-004,5.898562e-004
-2.387840e-004,6.459308e-004
-2.386219e-004,6.661890e-004
-1.707166e-004,6.454446e-004
-4.495386e-005,5.921251e-004
1.052807e-004,5.206542e-004
2.248849e-004,4.491834e-004
2.647530e-004,4.000776e-004
2.012234e-004,3.884089e-004
2.586868e-005,4.125566e-004
-2.525595e-004,4.545315e-004
-5.854416e-004,4.908342e-004
-8.815349e-004,5.037994e-004
-1.034362e-003,4.893756e-004
-9.719674e-004,4.559901e-004
-6.834911e-004,4.200116e-004
-2.125294e-004,3.830607e-004
3.546993e-004,3.425444e-004
9.104217e-004,2.978143e-004
1.366312e-003,2.501671e-004
1.687202e-003,2.059233e-004
1.873740e-003,1.670276e-004
1.939539e-003,1.347766e-004
1.889136e-003,1.043083e-004
1.718481e-003,7.124698e-005
1.432759e-003,2.943412e-005
1.060980e-003,-2.809907e-005
6.657028e-004,-1.016767e-004
3.245551e-004,-1.825473e-004
9.701536e-005,-2.601766e-004
-4.599598e-006,-3.237062e-004
-1.270286e-005,-3.674638e-004
2.068259e-005,-3.908012e-004
5.471631e-005,-3.997148e-004
5.860588e-005,-4.037664e-004
-5.479652e-007,-4.143007e-004
-1.571031e-004,-4.332623e-004
-4.309934e-004,-4.543308e-004
-8.040677e-004,-4.659995e-004
-1.197562e-003,-4.617858e-004
-1.505486e-003,-4.395829e-004
-1.636273e-003,-3.984183e-004
-1.553458e-003,-3.420196e-004
-1.296260e-003,-2.784900e-004
-9.645124e-004,-2.201465e-004
-6.620985e-004,-1.843300e-004
-4.444448e-004,-1.781716e-004
-3.107410e-004,-1.938919e-004
-2.269532e-004,-2.169052e-004
-1.608306e-004,-2.344082e-004
-1.016767e-004,-2.379736e-004
-5.354332e-005,-2.207947e-004
-3.150244e-005,-1.857886e-004
-5.062615e-005,-1.402483e-004
-1.161005e-004,-8.628052e-005
-2.188499e-004,-2.226472e-005
-3.421817e-004,4.709924e-005
-4.564377e-004,1.083599e-004
-5.204534e-004,1.500107e-004
-5.157535e-004,1.702689e-004
-4.718339e-004,1.780480e-004
-4.446069e-004,1.845306e-004
-4.776682e-004,1.939304e-004
-6.052136e-004,1.991165e-004
-8.295119e-004,1.905271e-004
-1.103564e-003,1.645966e-004
-1.344069e-003,1.312112e-004
-1.453301e-003,1.067393e-004
-1.369676e-003,1.036600e-004
-1.097406e-003,1.235941e-004
-6.982391e-004,1.631380e-004
-2.616352e-004,2.109473e-004
1.334801e-004,2.466017e-004
4.363802e-004,2.566497e-004
6.303725e-004,2.430362e-004
7.151327e-004,2.240746e-004
7.036261e-004,2.227781e-004
6.198382e-004,2.542187e-004
5.062304e-004,3.127243e-004
4.088291e-004,3.788470e-004
3.527545e-004,4.316803e-004
3.375204e-004,4.558281e-004
3.503235e-004,4.486972e-004
3.767402e-004,4.188772e-004
4.021844e-004,3.743092e-004
4.217943e-004,3.269861e-004
4.464283e-004,2.908455e-004
4.932652e-004,2.683184e-004
5.720290e-004,2.521119e-004
6.799645e-004,2.357433e-004
7.968137e-004,2.187264e-004
8.940530e-004,2.065715e-004
9.532070e-004,2.080301e-004
9.671446e-004,2.258573e-004
9.473725e-004,2.532463e-004
9.105837e-004,2.782044e-004
8.736328e-004,2.898731e-004
8.397611e-004,2.773941e-004
8.034584e-004,2.412535e-004
7.546768e-004,1.889064e-004
6.982779e-004,1.342904e-004
6.545202e-004,8.453633e-005
6.491721e-004,4.337174e-005
6.964952e-004,1.257933e-005
7.932483e-004,-5.571990e-006
9.214421e-004,-1.464765e-005
1.046557e-003,-1.837515e-005
1.127427e-003,-1.869928e-005
1.124186e-003,-1.999580e-005
1.027919e-003,-3.020592e-005
8.559676e-004,-5.597430e-005
6.490100e-004,-9.859748e-005
4.553419e-004,-1.559686e-004
3.183966e-004,-2.178775e-004
2.589186e-004,-2.765452e-004
2.621599e-004,-3.335922e-004
2.906835e-004,-3.955011e-004
3.140208e-004,-4.621100e-004
3.162898e-004,-5.285567e-004
2.898731e-004,-5.878726e-004
2.360674e-004,-6.317923e-004
1.598967e-004,-6.580469e-004
6.508849e-005,-6.703638e-004
-5.338126e-005,-6.758740e-004
-2.235498e-004,-6.761982e-004
-4.946851e-004,-6.710121e-004
-8.854245e-004,-6.588572e-004
-1.328997e-003,-6.356818e-004
-1.694293e-003,-5.891691e-004
-1.849713e-003,-5.034366e-004
-1.728650e-003,-3.679500e-004
-1.360924e-003,-1.912988e-004
-8.577113e-004,-6.058186e-006
-3.538503e-004,1.493625e-004
5.730935e-005,2.500050e-004
3.427064e-004,2.978143e-004
5.078511e-004,3.145071e-004
5.723531e-004,3.245551e-004
5.629533e-004,3.307136e-004
5.131993e-004,3.158036e-004
4.595556e-004,2.613496e-004
4.294114e-004,1.623277e-004
4.342734e-004,3.445814e-005
4.626348e-004,-9.632857e-005
4.862963e-004,-2.099363e-004
4.634451e-004,-2.890242e-004
3.559958e-004,-3.091203e-004
1.357490e-004,-2.480217e-004
-2.002124e-004,-9.568031e-005
-6.262821e-004,1.359110e-004
-1.087520e-003,4.107739e-004
-1.505000e-003,6.807749e-004
-1.788615e-003,9.002115e-004
-1.868027e-003,1.043964e-003
-1.735295e-003,1.113814e-003
-1.454436e-003,1.133100e-003
-1.116854e-003,1.130831e-003
-7.961266e-004,1.131317e-003
-5.442770e-004,1.142662e-003
-3.771877e-004,1.151251e-003
-2.535319e-004,1.131641e-003
-1.149661e-004,1.061305e-003
6.978839e-005,9.319764e-004
2.890628e-004,7.490044e-004
5.000719e-004,5.384815e-004
6.559788e-004,3.357376e-004
7.302048e-004,1.733481e-004
7.269635e-004,6.962632e-005
6.658648e-004,2.278944e-005
5.744600e-004,2.003433e-005
4.783552e-004,4.077869e-005
3.927847e-004,6.103686e-005
3.281205e-004,5.990240e-005
2.863077e-004,2.846173e-005
2.621599e-004,-2.728874e-005
2.457913e-004,-8.806324e-005
2.174299e-004,-1.363587e-004
1.566554e-004,-1.643960e-004
4.904402e-005,-1.692580e-004
-1.092938e-004,-1.553203e-004
-3.047445e-004,-1.311726e-004
-5.035987e-004,-1.097800e-004
-6.479988e-004,-1.081593e-004
-6.899738e-004,-1.302002e-004
-6.201236e-004,-1.676373e-004
-4.723200e-004,-2.066950e-004
-3.071755e-004,-2.350565e-004
-1.793060e-004,-2.417012e-004
-1.076731e-004,-2.279256e-004
-8.077030e-005,-2.094502e-004
-7.282909e-005,-2.055606e-004
-6.018800e-005,-2.287359e-004
-2.161646e-005,-2.799486e-004
5.131294e-005,-3.476919e-004
1.496866e-004,-4.123559e-004
2.655633e-004,-4.574101e-004
3.926226e-004,-4.796130e-004
5.263265e-004,-4.835025e-004
6.660269e-004,-4.817198e-004
8.120479e-004,-4.833405e-004
9.506139e-004,-4.920920e-004
1.058387e-003,-5.117019e-004
1.123538e-003,-5.392530e-004
1.148172e-003,-5.651835e-004
1.143148e-003,-5.813900e-004
1.117217e-003,-5.831727e-004
1.081401e-003,-5.719902e-004
1.049798e-003,-5.557837e-004
1.012847e-003,-5.416840e-004
9.261420e-004,-5.283947e-004
7.295565e-004,-5.102433e-004
3.820883e-004,-4.820440e-004
-1.016767e-004,-4.454172e-004
-6.481609e-004,-4.053871e-004
-1.167580e-003,-3.671397e-004
-1.598188e-003,-3.293785e-004
-1.930746e-003,-2.848105e-004
-2.192968e-003,-2.245222e-004
-2.407867e-003,-1.477033e-004
-2.568150e-003,-5.856735e-005
-2.626169e-003,3.251336e-005
-2.524230e-003,1.120874e-004
-2.237212e-003,1.725378e-004
-1.810655e-003,2.175920e-004
-1.340828e-003,2.550291e-004
-9.461989e-004,2.905214e-004
-7.178490e-004,3.240689e-004
-6.760361e-004,3.498373e-004
-7.500999e-004,3.592371e-004
-8.327533e-004,3.569682e-004
-8.418289e-004,3.576164e-004
-7.505861e-004,3.770643e-004
-5.682627e-004,4.196875e-004
-3.277578e-004,4.781931e-004
-6.504996e-005,5.290816e-004
1.876099e-004,5.488536e-004
4.187151e-004,5.266506e-004
6.324793e-004,4.689553e-004
8.363577e-004,3.911640e-004
1.022247e-003,3.151553e-004
1.180423e-003,2.611876e-004
1.309427e-003,2.487085e-004
1.413149e-003,2.840388e-004
1.491913e-003,3.600474e-004
1.545881e-003,4.572867e-004
1.582670e-003,5.486915e-004
1.617838e-003,6.094660e-004
1.666782e-003,6.251864e-004
1.731932e-003,5.913147e-004
1.788493e-003,5.141716e-004
1.801459e-003,4.102877e-004
1.742953e-003,3.010556e-004
1.606493e-003,2.078681e-004
1.405532e-003,1.475797e-004
1.172806e-003,1.291043e-004
9.441312e-004,1.433661e-004
7.554871e-004,1.667035e-004
6.297242e-004,1.795066e-004
5.686256e-004,1.736723e-004
5.535535e-004,1.524417e-004
5.587396e-004,1.218114e-004
5.623050e-004,8.486046e-005
5.554983e-004,4.369587e-005
5.375090e-004,4.244267e-007
5.101200e-004,-3.798505e-005
4.796517e-004,-6.407757e-005
4.525868e-004,-7.866345e-005
4.235771e-004,-9.000802e-005
3.814401e-004,-1.089697e-004
3.198552e-004,-1.405724e-004
2.483844e-004,-1.830335e-004
1.927960e-004,-2.259808e-004
1.704310e-004,-2.548284e-004
1.882582e-004,-2.642282e-004
2.316917e-004,-2.608248e-004
2.759355e-004,-2.545043e-004
2.944109e-004,-2.457528e-004
2.752873e-004,-2.352185e-004
2.190506e-004,-2.190120e-004
1.517934e-004,-1.951884e-004
1.190562e-004,-1.606685e-004
1.579519e-004,-1.191798e-004
2.709115e-004,-7.444975e-005
4.240633e-004,-3.020592e-005
5.757565e-004,1.176900e-005
7.033019e-004,5.082674e-005
8.049170e-004,8.534666e-005
8.921082e-004,1.128978e-004
9.801098e-004,1.334801e-004
1.074108e-003,1.475797e-004
1.159030e-003,1.535762e-004
1.209432e-003,1.480659e-004
1.207326e-003,1.232699e-004
1.140231e-003,7.951231e-005
9.945336e-004,2.894792e-005
7.632662e-004,-4.113403e-006
4.537212e-004,6.258778e-006
7.643307e-005,6.703327e-005
-3.737844e-004,1.623277e-004
-9.131377e-004,2.597290e-004
-1.531255e-003,3.308757e-004
-2.162175e-003,3.585888e-004
-2.710605e-003,3.389789e-004
-3.107667e-003,2.858215e-004
-3.324673e-003,2.206712e-004
-3.355951e-003,1.644345e-004
-3.226298e-003,1.263492e-004
-2.980607e-003,1.073875e-004
-2.666685e-003,9.685330e-005
-2.323106e-003,8.972242e-005
-1.971748e-003,8.129502e-005
-1.606615e-003,6.962632e-005
-1.215551e-003,5.147500e-005
-8.035815e-004,3.056858e-005
-3.908012e-004,1.209313e-005
-1.464765e-005,1.720949e-006
2.958695e-004,-4.113403e-006
5.263265e-004,-1.010982e-005
6.660269e-004,-9.785688e-006
7.237222e-004,2.369211e-006
7.271256e-004,2.603075e-005
7.107570e-004,5.876794e-005
6.942263e-004,1.015532e-004
6.799645e-004,1.539003e-004
6.415551e-004,2.161334e-004
5.203301e-004,2.807975e-004
2.508154e-004,3.383307e-004
-1.974573e-004,3.908399e-004
-7.912645e-004,4.517764e-004
-1.446494e-003,5.266506e-004
-2.067853e-003,6.007145e-004
-2.568960e-003,6.507927e-004
-2.884015e-003,6.592202e-004
-2.974286e-003,6.222692e-004
-2.839285e-003,5.413986e-004
-2.549512e-003,4.192013e-004
-2.238832e-003,2.678322e-004
-2.020044e-003,1.036600e-004
-1.935122e-003,-5.176061e-005
-1.971586e-003,-1.747682e-004
-2.048892e-003,-2.501286e-004
-2.017451e-003,-2.739521e-004
-1.737726e-003,-2.577456e-004
-1.166932e-003,-2.269532e-004
-3.883702e-004,-2.141500e-004
4.420525e-004,-2.425115e-004
1.173778e-003,-3.141443e-004
1.736470e-003,-4.136524e-004
2.128345e-003,-5.126743e-004
2.386192e-003,-5.875485e-004
2.556362e-003,-6.210960e-004
2.669484e-003,-6.050515e-004
2.733338e-003,-5.431426e-004
2.739173e-003,-4.553032e-004
2.681963e-003,-3.732982e-004
2.568031e-003,-3.258130e-004
2.417309e-003,-3.203028e-004
2.254919e-003,-3.473677e-004
2.097229e-003,-3.857772e-004
1.961255e-003,-4.157593e-004
1.874388e-003,-4.245108e-004
1.849592e-003,-4.100870e-004
1.859316e-003,-3.754050e-004
1.853806e-003,-3.308371e-004
1.789952e-003,-2.857829e-004
1.641500e-003,-2.517492e-004
1.409584e-003,-2.376495e-004
1.144606e-003,-2.348944e-004
9.183628e-004,-2.288980e-004
7.622938e-004,-2.039399e-004
6.746164e-004,-1.536997e-004
6.415551e-004,-8.530812e-005
6.358828e-004,-1.707863e-005
6.225934e-004,3.656499e-005
5.791598e-004,7.643307e-005
5.047718e-004,1.154908e-004
4.164462e-004,1.736723e-004
3.402755e-004,2.600531e-004
2.924662e-004,3.681507e-004
2.723701e-004,4.751139e-004
2.702632e-004,5.493398e-004
2.788527e-004,5.642498e-004
2.877662e-004,5.096338e-004
2.846870e-004,3.997535e-004
2.576221e-004,2.670219e-004
2.128921e-004,1.448246e-004
1.689724e-004,5.601284e-005
1.380179e-004,5.124321e-006
1.187321e-004,-1.675450e-005
1.122495e-004,-2.242678e-005
1.114392e-004,-2.275091e-005
9.166720e-005,-2.372331e-005
3.575467e-005,-2.339918e-005
-4.851930e-005,-1.983374e-005
-1.256624e-004,-1.886135e-005
-1.596961e-004,-1.918548e-005
-1.408965e-004,-1.724069e-005
-9.697683e-005,-6.544382e-006
-6.974985e-005,1.776542e-005
-8.158062e-005,5.341979e-005
-1.318209e-004,9.507057e-005
-2.105846e-004,1.357490e-004
-3.105789e-004,1.704310e-004
-4.308313e-004,1.947408e-004
-5.627525e-004,2.060853e-004
-6.928909e-004,2.109473e-004
-8.133054e-004,2.252090e-004
-9.241581e-004,2.590807e-004
-1.023018e-003,3.062417e-004
-1.089789e-003,3.534027e-004
-1.094651e-003,3.866261e-004
-1.026259e-003,4.004017e-004
-8.876934e-004,3.952156e-004
-6.854360e-004,3.715541e-004
-4.284004e-004,3.375204e-004
-1.280934e-004,3.093210e-004
1.905271e-004,2.961937e-004
4.880791e-004,2.936006e-004
7.290703e-004,2.916559e-004
8.742810e-004,2.754493e-004
8.921082e-004,2.368777e-004
7.789865e-004,1.796687e-004
5.717048e-004,1.094944e-004
3.132105e-004,3.332369e-005
2.489629e-005,-4.333321e-005
-2.938862e-004,-1.149661e-004
-6.186650e-004,-1.767130e-004
-8.740799e-004,-2.227395e-004
-9.747224e-004,-2.483458e-004
-8.923933e-004,-2.545043e-004
-6.890013e-004,-2.535319e-004
-4.859335e-004,-2.527216e-004
-4.180282e-004,-2.499665e-004
-5.710179e-004,-2.352185e-004
-9.269132e-004,-1.956746e-004
-1.380048e-003,-1.279313e-004
-1.799311e-003,-4.090223e-005
-2.091839e-003,4.175109e-005
-2.230729e-003,1.009049e-004
-2.236401e-003,1.244044e-004
-2.143376e-003,1.086841e-004
-1.980014e-003,6.703327e-005
-1.770463e-003,2.133085e-005
-1.527527e-003,-1.124428e-005
-1.255582e-003,-2.339918e-005
-9.530057e-004,-1.886135e-005
-6.214201e-004,-6.544382e-006
-2.648765e-004,-2.238346e-007
1.284560e-004,-6.544382e-006
5.670050e-004,-2.842320e-005
1.047367e-003,-6.164659e-005
1.533726e-003,-9.859748e-005
1.954935e-003,-1.331174e-004
2.228178e-003,-1.653684e-004
2.276312e-003,-1.958367e-004
2.066436e-003,-2.222533e-004
1.635827e-003,-2.378116e-004
1.100687e-003,-2.373254e-004
6.101143e-004,-2.126914e-004
2.861456e-004,-1.562927e-004
1.743205e-004,-7.250496e-005
2.461155e-004,1.987227e-005
4.229288e-004,9.717743e-005
6.191900e-004,1.445005e-004
7.734763e-004,1.600588e-004
8.575883e-004,1.553589e-004
8.681226e-004,1.466074e-004
8.146409e-004,1.475797e-004
7.201568e-004,1.636242e-004
6.135177e-004,1.884202e-004
5.208163e-004,2.125679e-004
4.577728e-004,2.276400e-004
4.256839e-004,2.266676e-004
4.243874e-004,2.114335e-004
4.443214e-004,1.897167e-004
4.731691e-004,1.761032e-004
4.927790e-004,1.765894e-004
4.909963e-004,1.843686e-004
4.640934e-004,1.833962e-004
4.047775e-004,1.602208e-004
3.059176e-004,1.132219e-004
1.610312e-004,5.455425e-005
-1.578211e-005,8.851824e-006
-1.883817e-004,1.720949e-006
-3.165753e-004,3.964424e-005
-3.710293e-004,1.211631e-004
-3.415334e-004,2.252090e-004
-2.483458e-004,3.224483e-004
-1.199901e-004,3.864641e-004
1.403791e-005,4.065602e-004
1.346145e-004,3.890571e-004
2.412535e-004,3.508097e-004
3.310377e-004,3.008936e-004
3.940812e-004,2.490327e-004
4.159600e-004,2.062474e-004
3.861400e-004,1.788584e-004
3.094830e-004,1.686482e-004
1.960373e-004,1.723757e-004
5.649903e-005,1.851789e-004
-9.697683e-005,2.017096e-004
-2.408908e-004,2.115956e-004
-3.446126e-004,2.088404e-004
-3.857772e-004,1.880961e-004
-3.668155e-004,1.542244e-004
-3.118754e-004,1.187321e-004
-2.527216e-004,8.842590e-005
-2.147983e-004,6.362991e-005
-2.125294e-004,4.288554e-005
-2.718453e-004,2.246531e-005
-4.215936e-004,-7.100305e-007
-6.705259e-004,-2.615429e-005
-9.910910e-004,-5.240886e-005
-1.324297e-003,-7.120844e-005
-1.586033e-003,-8.012204e-005
-1.671765e-003,-8.514606e-005
-1.501435e-003,-9.405965e-005
-1.068396e-003,-1.131834e-004
-4.437966e-004,-1.415448e-004
2.514636e-004,-1.759026e-004
8.796292e-004,-2.159328e-004
1.336330e-003,-2.559629e-004
1.581373e-003,-2.908069e-004
1.632586e-003,-3.133340e-004
1.539236e-003,-3.227338e-004
1.352050e-003,-3.237062e-004
1.089504e-003,-3.232200e-004
7.467355e-004,-3.256510e-004
3.227724e-004,-3.316474e-004
-1.613168e-004,-3.412093e-004
-6.632329e-004,-3.506090e-004
-1.141326e-003,-3.554710e-004
-1.556861e-003,-3.517435e-004
-1.863165e-003,-3.389403e-004
-2.034144e-003,-3.160891e-004
-2.070284e-003,-2.864312e-004
-1.968831e-003,-2.536940e-004
-1.738698e-003,-2.238740e-004
-1.426074e-003,-1.989159e-004
-1.093840e-003,-1.752544e-004
-7.996919e-004,-1.478653e-004
-5.723144e-004,-1.110765e-004
-3.992286e-004,-5.905355e-005
-2.382978e-004,7.555301e-006
-3.506788e-005,8.097089e-005
2.433604e-004,1.522796e-004
5.922872e-004,2.135403e-004
9.666584e-004,2.618358e-004
1.290789e-003,2.974902e-004
1.475868e-003,3.221241e-004
1.456258e-003,3.378445e-004
1.240711e-003,3.478926e-004
9.117182e-004,3.556717e-004
6.046041e-004,3.673404e-004
4.550177e-004,3.888950e-004
5.272989e-004,4.193634e-004
7.789865e-004,4.451317e-004
1.098904e-003,4.522626e-004
1.378629e-003,4.373526e-004
1.557225e-003,4.088291e-004
1.636476e-003,3.754436e-004
1.656896e-003,3.457857e-004
1.667754e-003,3.211517e-004
1.702598e-003,3.012177e-004
1.768721e-003,2.851732e-004
1.843596e-003,2.705873e-004
1.900643e-003,2.560015e-004
1.911987e-003,2.391467e-004
1.853482e-003,2.256952e-004
1.711026e-003,2.201850e-004
1.488996e-003,2.205092e-004
1.199384e-003,2.243987e-004
8.598572e-004,2.286124e-004
4.874308e-004,2.263435e-004
9.879808e-005,2.153231e-004
-2.930758e-004,1.979821e-004
-6.820326e-004,1.761032e-004
-1.073582e-003,1.530900e-004
-1.480852e-003,1.292664e-004
-1.896388e-003,1.012291e-004
-2.271732e-003,6.606088e-005
-2.538654e-003,3.073064e-005
-2.653558e-003,3.827799e-006
-2.612718e-003,-9.299493e-006
-2.453245e-003,-9.947754e-006
-2.223922e-003,-1.034161e-006
-1.958783e-003,1.079661e-005
-1.664310e-003,1.452411e-005
-1.332887e-003,3.341602e-006
-9.735880e-004,-1.983374e-005
-6.215822e-004,-4.997789e-005
-3.225718e-004,-8.611845e-005
-1.016767e-004,-1.300382e-004
4.839576e-005,-1.833576e-004
1.584381e-004,-2.429977e-004
2.525981e-004,-2.995585e-004
3.394651e-004,-3.369955e-004
4.112601e-004,-3.394265e-004
4.373526e-004,-3.068514e-004
3.577785e-004,-2.559629e-004
1.153287e-004,-2.112329e-004
-2.760590e-004,-1.888679e-004
-7.068285e-004,-1.935677e-004
-1.020911e-003,-2.276015e-004
-1.102916e-003,-2.870794e-004
-9.353406e-004,-3.642225e-004
-5.958138e-004,-4.493068e-004
-2.052365e-004,-5.283947e-004
1.313732e-004,-5.847933e-004
3.584268e-004,-6.014861e-004
4.764104e-004,-5.708557e-004
5.324850e-004,-5.065158e-004
5.824011e-004,-4.358554e-004
6.527375e-004,-3.760533e-004
7.371737e-004,-3.287302e-004
8.156133e-004,-2.791382e-004
8.707156e-004,-2.169052e-004
9.024804e-004,-1.460826e-004
9.240351e-004,-7.882551e-005
9.483449e-004,-2.534396e-005
9.742755e-004,1.128280e-005
9.966405e-004,3.834771e-005
1.012685e-003,6.622294e-005
1.022571e-003,1.098185e-004
1.017385e-003,1.885823e-004
9.909682e-004,3.120761e-004
9.476967e-004,4.637693e-004
9.006977e-004,6.070351e-004
8.643950e-004,6.956849e-004
8.355473e-004,6.956849e-004
7.916276e-004,6.073592e-004
7.149707e-004,4.645796e-004
6.044420e-004,3.085106e-004
4.686312e-004,1.697827e-004
3.218000e-004,6.038860e-005
1.791825e-004,-2.064406e-005
5.957827e-005,-7.201877e-005
-2.955766e-005,-8.871149e-005
-9.843541e-005,-6.974985e-005
-1.822232e-004,-2.518189e-005
-2.955068e-004,2.424803e-005
-4.144627e-004,6.573675e-005
-4.891749e-004,9.814982e-005
-4.758855e-004,1.326697e-004
-3.591985e-004,1.853410e-004
-1.658546e-004,2.678322e-004
4.855783e-005,3.769022e-004
2.224539e-004,4.971547e-004
3.171001e-004,6.130316e-004
3.260137e-004,7.180499e-004
2.467637e-004,8.175581e-004
5.763349e-005,9.151215e-004
-2.522354e-004,1.008633e-003
-6.421645e-004,1.088045e-003
-1.019777e-003,1.142986e-003
-1.280702e-003,1.159030e-003
-1.354117e-003,1.118352e-003
-1.215065e-003,1.011226e-003
-8.982276e-004,8.421920e-004
-4.856094e-004,6.297242e-004
-7.250496e-005,3.968363e-004
2.543808e-004,1.726999e-004
4.425387e-004,-1.448558e-005
4.807861e-004,-1.519170e-004
3.957018e-004,-2.439701e-004
2.506533e-004,-3.050687e-004
1.219734e-004,-3.506090e-004
6.735741e-005,-3.880461e-004
1.133840e-004,-4.146248e-004
2.537325e-004,-4.241867e-004
4.590694e-004,-4.211074e-004
6.848265e-004,-4.117076e-004
8.848152e-004,-4.061974e-004
1.015602e-003,-4.100870e-004
1.038453e-003,-4.251591e-004
9.358659e-004,-4.502792e-004
7.340944e-004,-4.831784e-004
4.880791e-004,-5.157535e-004
2.491947e-004,-5.399013e-004
2.862379e-005,-5.535148e-004
-1.994021e-004,-5.596732e-004
-4.715097e-004,-5.596732e-004
-8.090917e-004,-5.575664e-004
-1.196590e-003,-5.546492e-004
-1.579388e-003,-5.454115e-004
-1.881316e-003,-5.288809e-004
-2.028958e-003,-5.050572e-004
-1.978069e-003,-4.724821e-004
-1.737564e-003,-4.249970e-004
-1.375024e-003,-3.527159e-004
-1.007946e-003,-2.580697e-004
-7.426449e-004,-1.541859e-004
-6.061860e-004,-6.456377e-005
-5.588629e-004,-8.002969e-006
-5.313118e-004,8.041497e-006
-4.587066e-004,-8.813297e-006
-3.029619e-004,-4.527799e-005
-5.743289e-005,-9.568031e-005
2.568118e-004,-1.514308e-004
5.973112e-004,-2.045882e-004
9.125285e-004,-2.410529e-004
1.152872e-003,-2.483458e-004
1.294679e-003,-2.209568e-004
1.350268e-003,-1.630995e-004
1.356750e-003,-8.709085e-005
1.351726e-003,-1.189254e-005
1.362585e-003,4.223728e-005
1.401642e-003,6.298164e-005
1.443293e-003,5.455425e-005
1.428383e-003,2.716521e-005
1.297920e-003,-5.571990e-006
1.026461e-003,-3.004385e-005
6.334517e-004,-3.506788e-005
1.950649e-004,-1.270286e-005
-1.833576e-004,3.397195e-005
-4.360174e-004,9.555677e-005
-5.737729e-004,1.697827e-004
-6.481609e-004,2.535705e-004
-7.089354e-004,3.423823e-004
-7.899680e-004,4.308700e-004
-8.948243e-004,5.188715e-004
-9.998425e-004,6.034696e-004
-1.058348e-003,6.783439e-004
-1.016373e-003,7.370116e-004
-8.457185e-004,7.785003e-004
-5.784728e-004,8.018378e-004
-3.074997e-004,8.019998e-004
-1.308485e-004,7.776900e-004
-9.746302e-005,7.400909e-004
-1.904885e-004,7.058950e-004
-3.382920e-004,6.859610e-004
-4.408794e-004,6.702406e-004
-4.076560e-004,6.360448e-004
-1.995642e-004,5.653843e-004
1.482280e-004,4.603659e-004
5.425331e-004,3.376824e-004
8.799533e-004,2.239125e-004
1.095987e-003,1.422316e-004
1.185933e-003,9.539470e-005
1.180747e-003,7.448828e-005
1.119162e-003,6.638502e-005
1.036184e-003,6.200925e-005
9.564483e-004,5.828175e-005
8.969702e-004,5.504044e-005
8.669881e-004,5.034055e-005
8.533746e-004,3.591673e-005
8.165857e-004,2.045080e-006
6.987641e-004,-5.808115e-005
4.546936e-004,-1.470550e-004
7.740546e-005,-2.603387e-004
-3.849669e-004,-3.862634e-004
-8.346980e-004,-5.045711e-004
-1.156560e-003,-5.872243e-004
-1.268385e-003,-6.110480e-004
-1.167094e-003,-5.786349e-004
-9.235098e-004,-5.151053e-004
-6.424887e-004,-4.570859e-004
-4.108973e-004,-4.261314e-004
-2.697385e-004,-4.237005e-004
-2.143121e-004,-4.343968e-004
-2.303566e-004,-4.334244e-004
-3.097686e-004,-4.071698e-004
-4.450931e-004,-3.541745e-004
-6.152617e-004,-2.825416e-004
-7.795958e-004,-2.055606e-004
-8.888278e-004,-1.394379e-004
-9.042240e-004,-9.535618e-005
-8.050401e-004,-7.185670e-005
-5.979206e-004,-5.970181e-005
-3.279199e-004,-5.273300e-005
-6.731888e-005,-5.257093e-005
1.057669e-004,-6.278104e-005
1.378558e-004,-7.995997e-005
4.256141e-005,-1.008664e-004
-9.519411e-005,-1.217728e-004
-1.710407e-004,-1.394379e-004
-1.240417e-004,-1.454344e-004
4.402000e-005,-1.297140e-004
2.880904e-004,-8.644259e-005
5.477191e-004,-2.177852e-005
7.765555e-004,5.293359e-005
9.697376e-004,1.226217e-004
1.152385e-003,1.728619e-004
1.337626e-003,1.991165e-004
1.515737e-003,2.012234e-004
1.661596e-003,1.840444e-004
1.744249e-003,1.563313e-004
1.740684e-003,1.253768e-004
1.640365e-003,9.685330e-005
1.447507e-003,8.080883e-005
1.194685e-003,8.502253e-005
9.233868e-004,1.146805e-004
6.575995e-004,1.686482e-004
3.906778e-004,2.359054e-004
9.134307e-005,3.017039e-004
-2.583939e-004,3.550234e-004
-6.270924e-004,3.871123e-004
-9.387439e-004,3.982949e-004
-1.112478e-003,3.942432e-004
-1.113937e-003,3.863020e-004
-9.859049e-004,3.850055e-004
-8.100641e-004,3.939191e-004
-6.541573e-004,4.145014e-004
-5.489769e-004,4.402698e-004
-4.815578e-004,4.613383e-004
-4.113835e-004,4.697657e-004
-2.927517e-004,4.668485e-004
-1.075111e-004,4.597176e-004
1.211631e-004,4.555039e-004
3.329825e-004,4.524247e-004
4.597176e-004,4.397836e-004
4.610142e-004,4.102877e-004
3.404375e-004,3.639370e-004
1.376938e-004,3.070520e-004
-8.482193e-005,2.478982e-004
-2.570974e-004,1.961994e-004
-3.194925e-004,1.475797e-004
-2.520733e-004,9.831188e-005
-8.368748e-005,4.450620e-005
1.292664e-004,-1.221667e-005
3.308757e-004,-6.180866e-005
4.940755e-004,-9.260107e-005
6.242140e-004,-9.924574e-005
7.454390e-004,-8.741498e-005
8.682846e-004,-7.072225e-005
9.801098e-004,-6.245691e-005
1.064222e-003,-6.764301e-005
1.106521e-003,-8.465986e-005
1.091935e-003,-1.055663e-004
1.010578e-003,-1.263107e-004
8.619640e-004,-1.449482e-004
6.598685e-004,-1.567789e-004
4.367043e-004,-1.548341e-004
2.354192e-004,-1.337657e-004
9.636710e-005,-9.568031e-005
5.293359e-005,-4.997789e-005
1.326697e-004,-1.318906e-005
3.302274e-004,2.623614e-007
5.746220e-004,-1.010982e-005
7.585663e-004,-3.830919e-005
7.972999e-004,-7.396356e-005
6.669993e-004,-1.052422e-004
4.046154e-004,-1.327933e-004
8.680524e-005,-1.647201e-004
-2.130156e-004,-2.071812e-004
-4.468758e-004,-2.587180e-004
-6.024585e-004,-3.188442e-004
-7.063423e-004,-3.831841e-004
-7.998540e-004,-4.423380e-004
-9.145963e-004,-4.901472e-004
-1.073096e-003,-5.262878e-004
-1.295126e-003,-5.556216e-004
-1.603698e-003,-5.775004e-004
-2.019720e-003,-5.757177e-004
-2.550322e-003,-5.300153e-004
-3.161148e-003,-4.361795e-004
-3.740210e-003,-3.076617e-004
-4.128196e-003,-1.669890e-004
-4.208095e-003,-3.296103e-005
-3.944251e-003,7.837785e-005
-3.374427e-003,1.633001e-004
-2.591163e-003,2.284504e-004
-1.717468e-003,2.833905e-004
-8.789418e-004,3.402755e-004
-1.768750e-004,4.060740e-004
3.320101e-004,4.756001e-004
6.399344e-004,5.344298e-004
7.796348e-004,5.640878e-004
7.995688e-004,5.548500e-004
7.423597e-004,5.097958e-004
6.436619e-004,4.422146e-004
5.415607e-004,3.713920e-004
4.790034e-004,3.130485e-004
4.877550e-004,2.704253e-004
5.742979e-004,2.397949e-004
7.250187e-004,2.143507e-004
9.230627e-004,1.936063e-004
1.149468e-003,1.761032e-004
1.368257e-003,1.558451e-004
1.534374e-003,1.321835e-004
1.603900e-003,1.101427e-004
1.554957e-003,9.312580e-005
1.401967e-003,8.080883e-005
1.193388e-003,6.719535e-005
9.846477e-004,5.098881e-005
8.195029e-004,3.753739e-005
7.195085e-004,3.948217e-005
6.820714e-004,5.666109e-005
6.820714e-004,8.194328e-005
6.760749e-004,1.116012e-004
6.096281e-004,1.495245e-004
4.456179e-004,1.960373e-004
1.846927e-004,2.443328e-004
-1.308485e-004,2.892249e-004
-4.207833e-004,3.264999e-004
-5.873864e-004,3.525924e-004
-5.444391e-004,3.626405e-004
-2.635799e-004,3.589129e-004
1.923098e-004,3.444891e-004
6.995744e-004,3.196932e-004
1.136503e-003,2.830664e-004
1.418659e-003,2.333123e-004
1.511685e-003,1.741585e-004
1.432759e-003,1.112771e-004
1.233094e-003,4.904402e-005
9.872407e-004,-1.108221e-005
7.666696e-004,-7.266703e-005
5.851563e-004,-1.480274e-004
4.151496e-004,-2.517492e-004
2.336365e-004,-3.864254e-004
4.499239e-005,-5.423322e-004
-1.203142e-004,-6.943495e-004
-2.264670e-004,-8.042298e-004
-2.442942e-004,-8.343739e-004
-1.567789e-004,-7.735994e-004
3.089271e-005,-6.421645e-004
2.889007e-004,-4.805854e-004
5.736496e-004,-3.327818e-004
8.421920e-004,-2.279256e-004
1.072487e-003,-1.720131e-004
1.270207e-003,-1.593720e-004
1.434866e-003,-1.677994e-004
1.531133e-003,-1.749302e-004
1.496127e-003,-1.724993e-004
1.269559e-003,-1.715269e-004
8.506195e-004,-1.908126e-004
2.885766e-004,-2.425115e-004
-3.593606e-004,-3.173856e-004
-1.002598e-003,-3.890185e-004
-1.522665e-003,-4.254832e-004
-1.832858e-003,-4.078181e-004
-1.952787e-003,-3.347266e-004
-1.965914e-003,-2.245222e-004
-1.947925e-003,-1.071869e-004
-1.930908e-003,-1.075808e-005
-1.921670e-003,5.504044e-005
-1.897523e-003,9.247754e-005
-1.782942e-003,1.094944e-004
-1.511159e-003,1.166253e-004
-1.087682e-003,1.216493e-004
-5.950035e-004,1.281319e-004
-1.425172e-004,1.347766e-004
1.974959e-004,1.406109e-004
4.157979e-004,1.402868e-004
5.587396e-004,1.253768e-004
6.885540e-004,9.766362e-005
8.384645e-004,6.654708e-005
1.007661e-003,4.807163e-005
1.184150e-003,5.309566e-005
1.351888e-003,8.242948e-005
1.497423e-003,1.304008e-004
1.610383e-003,1.903650e-004
1.681854e-003,2.569738e-004
1.700492e-003,3.237448e-004
1.652034e-003,3.778746e-004
1.519626e-003,4.080188e-004
1.297758e-003,4.148255e-004
9.938853e-004,4.110980e-004
6.229175e-004,4.093153e-004
2.156472e-004,4.104497e-004
-1.817370e-004,4.091532e-004
-5.175362e-004,4.051016e-004
-7.441035e-004,4.085050e-004
-8.217328e-004,4.339493e-004
-7.379451e-004,4.880791e-004
-5.280706e-004,5.636016e-004
-2.614731e-004,6.418792e-004
-1.221667e-005,7.013571e-004
1.681620e-004,7.230740e-004
2.595669e-004,7.023296e-004
2.733424e-004,6.546823e-004
2.352571e-004,5.960147e-004
1.731861e-004,5.402642e-004
1.167873e-004,4.887274e-004
7.756752e-005,4.378388e-004
5.666109e-005,3.875985e-004
5.390598e-005,3.368721e-004
6.136099e-005,2.752873e-004
6.670914e-005,1.916615e-004
5.974033e-005,8.567078e-005
4.045456e-005,-2.777494e-005
1.533444e-005,-1.271210e-004
-7.840905e-006,-1.938919e-004
-2.534396e-005,-2.245222e-004
-3.134038e-005,-2.288980e-004
-1.724069e-005,-2.271153e-004
1.387585e-005,-2.374874e-004
4.790957e-005,-2.663351e-004
