1.829100e-004,-2.113949e-004
1.150046e-004,-1.865989e-004
9.280167e-005,-1.669890e-004
1.354248e-004,-1.596961e-004
2.389846e-004,-1.643960e-004
3.756057e-004,-1.694200e-004
5.107683e-004,-1.660166e-004
6.195141e-004,-1.434896e-004
6.956849e-004,-1.037836e-004
7.434942e-004,-5.629844e-005
7.647247e-004,-1.205460e-005
7.648868e-004,2.343770e-005
7.543526e-004,5.633696e-005
7.394425e-004,9.523264e-005
7.128638e-004,1.440143e-004
6.614891e-004,1.947408e-004
5.728393e-004,2.320158e-004
4.427008e-004,2.407673e-004
2.840388e-004,2.148369e-004
1.255389e-004,1.637863e-004
-7.100305e-007,1.064152e-004
-8.465986e-005,5.941620e-005
-1.465688e-004,3.429608e-005
-2.224154e-004,2.943412e-005
-3.319715e-004,4.175109e-005
-4.634065e-004,6.152305e-005
-5.948414e-004,7.708133e-005
-7.157421e-004,7.821578e-005
-8.385876e-004,6.832980e-005
-9.797465e-004,5.893001e-005
-1.132088e-003,6.071273e-005
-1.275678e-003,7.546067e-005
-1.391554e-003,1.064152e-004
-1.477611e-003,1.568175e-004
-1.541141e-003,2.237505e-004
-1.585223e-003,3.064038e-004
-1.603536e-003,3.969983e-004
-1.581819e-003,4.869446e-004
-1.496735e-003,5.647360e-004
-1.336776e-003,6.198382e-004
-1.121392e-003,6.454446e-004
-8.933656e-004,6.370172e-004
-6.933771e-004,5.976353e-004
-5.429805e-004,5.375090e-004
-4.392588e-004,4.738173e-004
-3.695707e-004,4.266563e-004
-3.180339e-004,4.073705e-004
-2.682799e-004,4.185530e-004
-2.063709e-004,4.483731e-004
-1.243659e-004,4.749518e-004
-2.988179e-005,4.655520e-004
5.552663e-005,3.976466e-004
1.122495e-004,2.704253e-004
1.391524e-004,1.030118e-004
1.470936e-004,-7.444975e-005
1.579519e-004,-2.251705e-004
1.910133e-004,-3.201407e-004
2.500050e-004,-3.480160e-004
3.227724e-004,-3.181960e-004
3.869503e-004,-2.532078e-004
4.289252e-004,-1.702304e-004
4.480489e-004,-7.299116e-005
4.598797e-004,5.325772e-005
4.822447e-004,2.151610e-004
5.230852e-004,3.898674e-004
5.788357e-004,5.373470e-004
6.321552e-004,6.256726e-004
6.610029e-004,6.394482e-004
6.572754e-004,5.982835e-004
6.289139e-004,5.396159e-004
5.851563e-004,4.950479e-004
5.329712e-004,4.807861e-004
4.739794e-004,4.937514e-004
4.143393e-004,5.237334e-004
3.726885e-004,5.540397e-004
3.658818e-004,5.670050e-004
3.947294e-004,5.467468e-004
4.394595e-004,4.749518e-004
4.733311e-004,3.423823e-004
4.728449e-004,1.582761e-004
4.269804e-004,-4.689865e-005
3.422202e-004,-2.387840e-004
2.316917e-004,-3.856151e-004
1.124116e-004,-4.716718e-004
-4.113403e-006,-5.031124e-004
-1.112386e-004,-4.946851e-004
-1.990780e-004,-4.609755e-004
-2.605007e-004,-4.128421e-004
-3.070135e-004,-3.611433e-004
-3.645466e-004,-3.157650e-004
-4.544929e-004,-2.836761e-004
-5.799314e-004,-2.694143e-004
-7.270867e-004,-2.694143e-004
-8.726213e-004,-2.836761e-004
-9.888222e-004,-3.097686e-004
-1.037118e-003,-3.384541e-004
-9.880118e-004,-3.590364e-004
-8.428013e-004,-3.613053e-004
-6.204477e-004,-3.433161e-004
-3.567675e-004,-3.168994e-004
-9.324933e-005,-2.976137e-004
1.292664e-004,-2.961551e-004
2.833905e-004,-3.136581e-004
3.733368e-004,-3.449367e-004
4.282770e-004,-3.791325e-004
4.780310e-004,-4.055492e-004
5.473950e-004,-4.147869e-004
6.418792e-004,-4.040906e-004
7.428459e-004,-3.710293e-004
8.151271e-004,-3.180339e-004
8.269579e-004,-2.481838e-004
7.645627e-004,-1.705545e-004
6.282657e-004,-9.665270e-005
4.475628e-004,-3.198864e-005
2.618358e-004,1.825161e-005
9.507057e-005,4.888196e-005
-4.138842e-005,6.119892e-005
-1.473791e-004,6.573675e-005
-2.297083e-004,7.691926e-005
-2.990722e-004,1.034980e-004
-3.687603e-004,1.485521e-004
-4.569239e-004,2.080301e-004
-5.881967e-004,2.704253e-004
-7.810544e-004,3.198552e-004
-1.028204e-003,3.436788e-004
-1.301284e-003,3.383307e-004
-1.561723e-003,3.098072e-004
-1.755715e-003,2.736666e-004
-1.831562e-003,2.487085e-004
-1.756201e-003,2.453052e-004
-1.514562e-003,2.621599e-004
-1.113288e-003,2.944109e-004
-5.928966e-004,3.337929e-004
-2.404744e-005,3.790091e-004
5.084993e-004,4.303838e-004
9.305178e-004,4.801379e-004
1.201491e-003,5.157923e-004
1.314451e-003,5.298919e-004
1.284793e-003,5.208163e-004
1.148820e-003,4.853240e-004
9.558000e-004,4.216323e-004
7.598628e-004,3.393030e-004
6.099523e-004,2.453052e-004
5.295678e-004,1.467694e-004
5.007202e-004,5.131294e-005
4.841895e-004,-3.117831e-005
4.394595e-004,-9.308726e-005
3.363859e-004,-1.324691e-004
1.680000e-004,-1.512687e-004
-4.041603e-005,-1.593720e-004
-2.465631e-004,-1.666649e-004
-3.932322e-004,-1.867610e-004
-4.271038e-004,-2.256567e-004
-3.186821e-004,-2.820554e-004
-7.623246e-005,-3.493125e-004
2.585945e-004,-4.232143e-004
6.209727e-004,-4.977643e-004
9.378107e-004,-5.656697e-004
1.147199e-003,-6.214201e-004
1.226125e-003,-6.520505e-004
1.190795e-003,-6.462161e-004
1.073135e-003,-6.047274e-004
9.073424e-004,-5.399013e-004
7.161052e-004,-4.664857e-004
5.107683e-004,-3.969597e-004
3.098072e-004,-3.387782e-004
1.474177e-004,-2.955068e-004
7.043665e-005,-2.648765e-004
1.052807e-004,-2.402425e-004
2.384984e-004,-2.112329e-004
4.180668e-004,-1.665028e-004
5.679773e-004,-1.021629e-004
6.300483e-004,-2.501983e-005
6.012007e-004,5.277153e-005
5.232473e-004,1.242423e-004
4.404318e-004,1.882582e-004
3.858158e-004,2.506533e-004
3.749574e-004,3.192070e-004
4.059119e-004,3.957018e-004
4.593935e-004,4.718725e-004
5.016926e-004,5.321609e-004
5.075270e-004,5.566327e-004
4.705760e-004,5.282713e-004
4.138531e-004,4.490213e-004
3.709058e-004,3.402755e-004
3.579406e-004,2.282883e-004
3.697714e-004,1.381800e-004
3.932708e-004,8.340187e-005
4.117463e-004,5.844381e-005
4.068843e-004,4.969229e-005
3.600474e-004,5.034055e-005
2.561635e-004,5.941620e-005
8.891209e-005,7.886404e-005
-1.331174e-004,1.088461e-004
-3.779981e-004,1.474177e-004
-5.731247e-004,1.905271e-004
-6.266062e-004,2.329882e-004
-4.958195e-004,2.715597e-004
-2.229016e-004,3.044590e-004
8.145709e-005,3.323342e-004
2.890628e-004,3.568061e-004
3.172622e-004,3.754436e-004
1.553589e-004,3.861400e-004
-1.374932e-004,3.866261e-004
-4.611376e-004,3.801436e-004
-7.206041e-004,3.752816e-004
-8.419910e-004,3.723644e-004
-7.774890e-004,3.662059e-004
-5.335807e-004,3.501615e-004
-1.799543e-004,3.187208e-004
1.876099e-004,2.697770e-004
4.788414e-004,2.091646e-004
6.391241e-004,1.487142e-004
6.524134e-004,9.814982e-005
5.292437e-004,6.022653e-005
2.927903e-004,3.591673e-005
-2.031993e-005,2.667901e-005
-3.403989e-004,3.656499e-005
-5.815520e-004,6.865393e-005
-6.755499e-004,1.148425e-004
-6.157478e-004,1.652449e-004
-4.540067e-004,2.070577e-004
-2.663351e-004,2.302331e-004
-1.136696e-004,2.355812e-004
-1.967167e-005,2.266676e-004
2.019640e-005,2.127300e-004
2.262738e-005,1.960373e-004
9.500085e-006,1.725378e-004
9.338019e-006,1.344524e-004
3.899597e-005,7.351589e-005
9.750156e-005,-1.092015e-005
1.663793e-004,-1.055663e-004
2.229401e-004,-1.898403e-004
2.501671e-004,-2.459149e-004
2.459534e-004,-2.707109e-004
2.158093e-004,-2.737901e-004
1.722137e-004,-2.660110e-004
1.271595e-004,-2.535319e-004
8.599492e-005,-2.392702e-004
5.179914e-005,-2.227395e-004
2.262738e-005,-2.068571e-004
-1.513384e-005,-1.964849e-004
-8.692878e-005,-1.937298e-004
-2.089640e-004,-2.024813e-004
-3.724878e-004,-2.188499e-004
-5.535148e-004,-2.382978e-004
-7.311383e-004,-2.579077e-004
-8.938519e-004,-2.757348e-004
-1.027718e-003,-2.870794e-004
-1.115071e-003,-2.882139e-004
-1.146512e-003,-2.794623e-004
-1.128360e-003,-2.632558e-004
-1.087196e-003,-2.464010e-004
-1.066613e-003,-2.353806e-004
-1.110533e-003,-2.269532e-004
-1.238403e-003,-2.154466e-004
-1.421537e-003,-1.990780e-004
-1.604995e-003,-1.776853e-004
-1.731892e-003,-1.517549e-004
-1.757174e-003,-1.242038e-004
-1.645511e-003,-9.470791e-005
-1.389286e-003,-6.683268e-005
-1.017021e-003,-4.171256e-005
-5.820383e-004,-1.562004e-005
-1.374932e-004,1.274139e-005
2.786906e-004,4.110282e-005
6.431757e-004,6.476436e-005
9.436450e-004,8.615699e-005
1.173616e-003,1.073875e-004
1.322230e-003,1.299146e-004
1.365340e-003,1.514693e-004
1.268586e-003,1.704310e-004
1.017385e-003,1.884202e-004
6.436619e-004,2.052750e-004
2.389846e-004,2.206712e-004
-7.866345e-005,2.372019e-004
-2.229016e-004,2.561635e-004
-1.780095e-004,2.757735e-004
7.231170e-006,2.893870e-004
2.464396e-004,2.916559e-004
4.600418e-004,2.840388e-004
6.016869e-004,2.681563e-004
6.653786e-004,2.451431e-004
6.726716e-004,2.193747e-004
6.645683e-004,1.942546e-004
6.945504e-004,1.680000e-004
8.023240e-004,1.399627e-004
9.899958e-004,1.104668e-004
1.218022e-003,8.469840e-005
1.431787e-003,7.027458e-005
1.581373e-003,7.497447e-005
1.632586e-003,1.022015e-004
1.568894e-003,1.526038e-004
1.396456e-003,2.219677e-004
1.141041e-003,2.981384e-004
8.447851e-004,3.619922e-004
5.527431e-004,3.992672e-004
3.030004e-004,3.995914e-004
1.237561e-004,3.619922e-004
2.068259e-005,2.984626e-004
-3.555408e-005,2.279642e-004
-9.486997e-005,1.668655e-004
-2.045882e-004,1.208390e-004
-3.980942e-004,8.356394e-005
-6.810602e-004,4.807163e-005
-1.004218e-003,1.533444e-005
-1.293829e-003,-7.840905e-006
-1.484094e-003,-1.740276e-005
-1.532227e-003,-1.643037e-005
-1.436771e-003,-1.594417e-005
-1.244561e-003,-2.745081e-005
-1.028690e-003,-5.824322e-005
-8.432875e-004,-1.073490e-004
-6.995356e-004,-1.723372e-004
-5.875485e-004,-2.556388e-004
-4.906334e-004,-3.557951e-004
-3.878840e-004,-4.713477e-004
-2.613110e-004,-5.920863e-004
-1.037836e-004,-7.021286e-004
7.740546e-005,-7.851060e-004
2.679943e-004,-8.303223e-004
4.597176e-004,-8.324291e-004
6.551685e-004,-7.983954e-004
8.580745e-004,-7.481552e-004
1.058874e-003,-6.988873e-004
1.236335e-003,-6.533470e-004
1.365340e-003,-5.954896e-004
1.414446e-003,-5.094330e-004
1.356750e-003,-3.875599e-004
1.180099e-003,-2.412149e-004
8.940530e-004,-8.887356e-005
5.516087e-004,5.957827e-005
2.393087e-004,1.996027e-004
4.077869e-005,3.305515e-004
-3.303076e-006,4.521006e-004
9.652917e-005,5.687877e-004
2.947351e-004,6.921195e-004
5.354022e-004,8.308475e-004
7.750969e-004,9.755720e-004
9.757340e-004,1.090152e-003
1.098742e-003,1.126455e-003
1.105062e-003,1.060494e-003
9.684411e-004,9.088010e-004
6.759129e-004,7.185361e-004
2.446569e-004,5.388056e-004
-2.533699e-004,3.953777e-004
-6.909461e-004,2.843629e-004
-9.593263e-004,1.848548e-004
-1.031769e-003,7.708133e-005
-9.654847e-004,-4.868137e-005
-8.596561e-004,-1.882196e-004
-8.165467e-004,-3.219235e-004
-8.951484e-004,-4.181903e-004
-1.087520e-003,-4.517378e-004
-1.337100e-003,-4.073319e-004
-1.581171e-003,-2.844864e-004
-1.781808e-003,-1.016767e-004
-1.927180e-003,1.069013e-004
-2.006917e-003,3.065659e-004
-1.998813e-003,4.754380e-004
-1.877751e-003,6.107626e-004
-1.630601e-003,7.219395e-004
-1.270654e-003,8.178822e-004
-8.410186e-004,9.018321e-004
-4.039285e-004,9.713583e-004
-1.724069e-005,1.014954e-003
2.864697e-004,1.015440e-003
5.143337e-004,9.569344e-004
6.939021e-004,8.366818e-004
8.501333e-004,6.692683e-004
1.001502e-003,4.926169e-004
1.144444e-003,3.470822e-004
1.266156e-003,2.548670e-004
1.350268e-003,2.122438e-004
1.393053e-003,1.976579e-004
1.397267e-003,1.898788e-004
1.372795e-003,1.714034e-004
1.326120e-003,1.347766e-004
1.254973e-003,8.291568e-005
1.159354e-003,2.003433e-005
1.032457e-003,-5.078821e-005
8.723363e-004,-1.290658e-004
6.827196e-004,-2.139880e-004
4.777069e-004,-3.003688e-004
2.884145e-004,-3.838324e-004
1.490383e-004,-4.567618e-004
8.129502e-005,-5.144570e-004
8.437427e-005,-5.556216e-004
1.401247e-004,-5.849554e-004
2.193747e-004,-6.047274e-004
2.958695e-004,-6.186650e-004
3.430306e-004,-6.298475e-004
3.472443e-004,-6.413542e-004
3.119140e-004,-6.514022e-004
2.631324e-004,-6.562641e-004
2.250470e-004,-6.559400e-004
2.098128e-004,-6.483230e-004
2.099749e-004,-6.326026e-004
2.057612e-004,-6.108859e-004
1.824238e-004,-5.907898e-004
1.415833e-004,-5.799314e-004
9.490851e-005,-5.872243e-004
5.390598e-005,-6.167202e-004
2.603075e-005,-6.685811e-004
1.403791e-005,-7.437794e-004
1.679302e-005,-8.494460e-004
3.089271e-005,-9.834740e-004
5.066468e-005,-1.116043e-003
6.930219e-005,-1.207610e-003
7.302970e-005,-1.225438e-003
5.309566e-005,-1.158180e-003
9.500085e-006,-1.018156e-003
-4.187462e-005,-8.390738e-004
-8.660465e-005,-6.535091e-004
-1.191798e-004,-4.728062e-004
-1.413827e-004,-2.912931e-004
-1.582375e-004,-9.584238e-005
-1.686097e-004,1.235941e-004
-1.673132e-004,3.590750e-004
-1.554824e-004,5.919630e-004
-1.420310e-004,8.011895e-004
-1.353863e-004,9.754099e-004
-1.300382e-004,1.104576e-003
-1.161005e-004,1.185933e-003
-8.222889e-005,1.227098e-003
-2.323711e-005,1.239415e-003
5.244739e-005,1.224181e-003
1.239182e-004,1.167296e-003
1.691344e-004,1.053850e-003
1.722137e-004,8.849773e-004
1.286181e-004,6.817472e-004
3.591673e-005,4.765725e-004
-9.730096e-005,3.038107e-004
-2.415391e-004,1.898788e-004
-3.640605e-004,1.430419e-004
-4.491447e-004,1.564933e-004
-5.107295e-004,2.055991e-004
-5.671282e-004,2.678322e-004
-6.129927e-004,3.226103e-004
-6.298475e-004,3.543751e-004
-6.008379e-004,3.537269e-004
-5.225603e-004,3.268240e-004
-4.087905e-004,2.970040e-004
-2.786520e-004,2.854973e-004
-1.434896e-004,3.002453e-004
-1.351319e-005,3.368721e-004
1.077117e-004,3.798194e-004
2.172679e-004,4.099636e-004
3.145071e-004,4.157979e-004
4.008879e-004,3.957018e-004
4.794896e-004,3.593992e-004
5.558224e-004,3.190449e-004
6.465791e-004,2.731804e-004
7.572698e-004,2.125679e-004
8.677984e-004,1.279698e-004
9.379727e-004,1.274139e-005
9.371624e-004,-1.313347e-004
8.538608e-004,-2.904828e-004
6.882299e-004,-4.342347e-004
4.503179e-004,-5.254775e-004
1.663793e-004,-5.339049e-004
-1.365208e-004,-4.564377e-004
-4.376381e-004,-3.212752e-004
-7.244936e-004,-1.755785e-004
-9.821774e-004,-5.321920e-005
-1.176980e-003,4.207521e-005
-1.263523e-003,1.289422e-004
-1.211986e-003,2.325020e-004
-1.035983e-003,3.532407e-004
-7.857543e-004,4.632831e-004
-5.288809e-004,5.282713e-004
-3.186821e-004,5.264886e-004
-1.781716e-004,4.621486e-004
-1.003802e-004,3.542131e-004
-5.840528e-005,2.323399e-004
-2.826114e-005,1.159770e-004
6.096713e-006,1.338965e-005
5.666109e-005,-6.974985e-005
1.276457e-004,-1.357104e-004
2.111094e-004,-1.890299e-004
2.864697e-004,-2.350565e-004
3.253654e-004,-2.754107e-004
3.049452e-004,-3.036101e-004
2.208333e-004,-3.186821e-004
8.599492e-005,-3.170615e-004
-7.979791e-005,-2.964792e-004
-2.541802e-004,-2.617972e-004
-4.083043e-004,-2.219292e-004
-5.097571e-004,-1.875713e-004
-5.329325e-004,-1.637477e-004
-4.716718e-004,-1.462447e-004
-3.459091e-004,-1.280934e-004
-1.861127e-004,-1.068628e-004
-1.659243e-005,-8.741498e-005
1.391524e-004,-8.222889e-005
2.705873e-004,-9.778715e-005
3.754436e-004,-1.306864e-004
4.564763e-004,-1.686097e-004
5.131993e-004,-1.955125e-004
5.423710e-004,-1.961608e-004
5.426951e-004,-1.681235e-004
5.305402e-004,-1.186936e-004
5.240576e-004,-6.391550e-005
5.253541e-004,-2.177852e-005
5.133613e-004,1.072688e-006
4.587452e-004,5.286387e-006
3.367100e-004,1.002961e-007
1.407730e-004,-8.327101e-006
-1.016767e-004,-1.934754e-005
-3.475298e-004,-3.506788e-005
-5.562698e-004,-5.678463e-005
-7.005080e-004,-7.639453e-005
-7.641996e-004,-7.769106e-005
-7.454000e-004,-4.722278e-005
-6.651777e-004,1.274139e-005
-5.690731e-004,8.988449e-005
-5.142950e-004,1.626518e-004
-5.439529e-004,2.185644e-004
-6.559400e-004,2.566497e-004
-8.094159e-004,2.820940e-004
-9.429576e-004,2.986247e-004
-9.724535e-004,3.086727e-004
-8.293499e-004,3.179104e-004
-5.026262e-004,3.294171e-004
-5.143648e-005,3.401134e-004
4.213082e-004,3.487029e-004
8.115617e-004,3.571303e-004
1.053363e-003,3.652335e-004
1.132289e-003,3.700955e-004
1.089018e-003,3.705817e-004
1.000206e-003,3.691231e-004
9.426727e-004,3.665301e-004
9.579068e-004,3.615060e-004
1.040884e-003,3.511338e-004
1.149144e-003,3.370341e-004
1.226125e-003,3.229345e-004
1.228394e-003,3.064038e-004
1.136341e-003,2.838767e-004
9.604999e-004,2.529222e-004
7.274497e-004,2.133783e-004
4.673347e-004,1.667035e-004
2.080301e-004,1.151667e-004
-3.441962e-005,6.379197e-005
-2.720074e-004,1.825161e-005
-5.217500e-004,-1.805102e-005
-7.612825e-004,-4.495386e-005
-9.577056e-004,-6.002594e-005
-1.107778e-003,-6.942573e-005
-1.228517e-003,-7.866345e-005
-1.324459e-003,-9.713889e-005
-1.384261e-003,-1.302002e-004
-1.385558e-003,-1.794681e-004
-1.317004e-003,-2.368392e-004
-1.184921e-003,-2.899966e-004
-1.017021e-003,-3.293785e-004
-8.335636e-004,-3.520676e-004
-6.403818e-004,-3.582261e-004
-4.266177e-004,-3.528779e-004
-1.887058e-004,-3.429920e-004
4.709924e-005,-3.306750e-004
2.376881e-004,-3.164132e-004
3.504856e-004,-3.023136e-004
3.848434e-004,-2.887001e-004
3.752816e-004,-2.757348e-004
3.678266e-004,-2.601766e-004
3.921364e-004,-2.370013e-004
4.589073e-004,-2.021572e-004
5.715428e-004,-1.600202e-004
7.279359e-004,-1.209625e-004
9.123664e-004,-9.243900e-005
1.109276e-003,-7.088431e-005
1.300027e-003,-4.770897e-005
1.461607e-003,-1.869928e-005
1.570515e-003,1.403791e-005
1.617838e-003,4.466826e-005
1.625131e-003,6.735741e-005
1.625617e-003,7.967438e-005
1.638582e-003,8.810177e-005
1.663703e-003,9.896015e-005
1.680071e-003,1.133840e-004
1.656248e-003,1.263492e-004
1.568084e-003,1.368834e-004
1.409260e-003,1.485521e-004
1.191767e-003,1.626518e-004
9.305178e-004,1.799928e-004
6.282657e-004,2.000889e-004
2.739907e-004,2.240746e-004
-1.196660e-004,2.478982e-004
-4.880404e-004,2.644289e-004
-7.462104e-004,2.696149e-004
-8.500942e-004,2.654013e-004
-8.086055e-004,2.563256e-004
-6.684191e-004,2.440086e-004
-5.013297e-004,2.294227e-004
-3.807532e-004,2.090025e-004
-3.510952e-004,1.824238e-004
-4.352071e-004,1.564933e-004
-6.377887e-004,1.412592e-004
-9.455507e-004,1.383420e-004
-1.319922e-003,1.414213e-004
-1.704827e-003,1.492004e-004
-2.020854e-003,1.637863e-004
-2.189889e-003,1.858272e-004
-2.168010e-003,2.102990e-004
-1.961538e-003,2.383363e-004
-1.618608e-003,2.657254e-004
-1.194807e-003,2.876042e-004
-7.442656e-004,3.021901e-004
-3.207890e-004,3.154794e-004
3.056858e-005,3.315239e-004
2.906835e-004,3.454615e-004
4.691174e-004,3.478926e-004
5.952043e-004,3.380065e-004
6.990883e-004,3.148312e-004
7.963275e-004,2.793389e-004
8.768741e-004,2.315296e-004
9.105837e-004,1.773998e-004
8.676364e-004,1.210010e-004
7.436562e-004,6.525056e-005
5.725152e-004,7.555301e-006
4.054258e-004,-5.224680e-005
2.859836e-004,-1.092938e-004
2.333123e-004,-1.528894e-004
2.406053e-004,-1.783336e-004
2.838767e-004,-1.921092e-004
3.420582e-004,-2.055606e-004
3.926226e-004,-2.227395e-004
4.156358e-004,-2.408908e-004
3.965121e-004,-2.493182e-004
3.321722e-004,-2.436459e-004
2.362295e-004,-2.314910e-004
1.425557e-004,-2.259808e-004
8.145709e-005,-2.326255e-004
7.043665e-005,-2.438080e-004
1.091703e-004,-2.507768e-004
1.876099e-004,-2.540181e-004
2.900352e-004,-2.551526e-004
3.991052e-004,-2.541802e-004
4.978030e-004,-2.455907e-004
5.731634e-004,-2.253326e-004
6.234037e-004,-1.968091e-004
6.493342e-004,-1.656925e-004
6.415551e-004,-1.430034e-004
5.879114e-004,-1.366828e-004
4.796517e-004,-1.444620e-004
3.205035e-004,-1.600202e-004
1.313732e-004,-1.721751e-004
-5.192267e-005,-1.702304e-004
-1.987538e-004,-1.498101e-004
-2.950206e-004,-1.224211e-004
-3.387782e-004,-1.159385e-004
-3.301888e-004,-1.485136e-004
-2.817312e-004,-2.083157e-004
-2.154466e-004,-2.664971e-004
-1.548341e-004,-2.953447e-004
-1.172350e-004,-2.838381e-004
-1.152902e-004,-2.400805e-004
-1.524032e-004,-1.822232e-004
-2.096122e-004,-1.319829e-004
-2.559629e-004,-1.003802e-004
-2.639041e-004,-9.308726e-005
-2.206326e-004,-1.075111e-004
-1.394379e-004,-1.331174e-004
-5.321920e-005,-1.574272e-004
-4.113403e-006,-1.731475e-004
-3.377136e-005,-1.773612e-004
-1.598582e-004,-1.687718e-004
-3.609812e-004,-1.468929e-004
-5.870623e-004,-1.203142e-004
-7.745718e-004,-9.649064e-005
-8.773212e-004,-7.380149e-005
-8.786177e-004,-4.252288e-005
-7.930472e-004,8.527692e-006
-6.651777e-004,8.194328e-005
-5.489769e-004,1.746447e-004
-4.873921e-004,2.775562e-004
-5.104054e-004,3.790091e-004
-6.219063e-004,4.736553e-004
-7.964507e-004,5.665187e-004
-9.891463e-004,6.580857e-004
-1.147160e-003,7.409012e-004
-1.219603e-003,8.021619e-004
-1.174063e-003,8.344129e-004
-1.011997e-003,8.431645e-004
-7.679272e-004,8.357094e-004
-4.917679e-004,8.156133e-004
-2.361909e-004,7.888725e-004
-3.668853e-005,7.644006e-004
8.648112e-005,7.470596e-004
1.213252e-004,7.371737e-004
6.946425e-005,7.336082e-004
-4.041603e-005,7.331221e-004
-1.522411e-004,7.280980e-004
-2.089640e-004,7.081639e-004
-1.746061e-004,6.611650e-004
-5.030202e-005,5.849942e-004
1.187321e-004,4.884033e-004
2.683184e-004,3.856538e-004
3.546993e-004,2.864697e-004
3.778746e-004,1.949028e-004
3.744712e-004,1.122495e-004
3.880847e-004,3.267542e-005
4.427008e-004,-4.381940e-005
5.413986e-004,-1.086455e-004
6.768853e-004,-1.499722e-004
8.415438e-004,-1.621271e-004
1.020950e-003,-1.457585e-004
1.199060e-003,-1.118868e-004
1.367122e-003,-7.655660e-005
1.524488e-003,-6.099833e-005
1.674723e-003,-8.206682e-005
1.827227e-003,-1.470550e-004
1.980217e-003,-2.498044e-004
2.112139e-003,-3.796187e-004
2.188472e-003,-5.290429e-004
2.178100e-003,-6.928909e-004
2.062547e-003,-8.585216e-004
1.834682e-003,-1.001463e-003
1.498882e-003,-1.097406e-003
1.076215e-003,-1.135653e-003
6.018490e-004,-1.122850e-003
1.333180e-004,-1.072286e-003
-2.613110e-004,-9.930359e-004
-5.347152e-004,-8.878555e-004
-7.060182e-004,-7.551240e-004
-8.836418e-004,-5.920863e-004
-1.190269e-003,-3.985804e-004
-1.654587e-003,-1.833576e-004
-2.164444e-003,3.283749e-005
-2.550971e-003,2.334744e-004
-2.699099e-003,4.049396e-004
-2.575118e-003,5.412365e-004
-2.214847e-003,6.409068e-004
-1.711958e-003,7.159431e-004
-1.186542e-003,7.780141e-004
-7.424829e-004,8.220959e-004
-4.548170e-004,8.183684e-004
-3.598467e-004,7.399287e-004
-4.442827e-004,5.786736e-004
-6.421645e-004,3.532407e-004
-8.534976e-004,1.012291e-004
-9.810430e-004,-1.400862e-004
-9.577056e-004,-3.386162e-004
-7.705202e-004,-4.805854e-004
-4.556273e-004,-5.656697e-004
-8.692878e-005,-6.008379e-004
2.598910e-004,-5.937069e-004
5.319988e-004,-5.476804e-004
7.185361e-004,-4.690787e-004
8.420300e-004,-3.710293e-004
9.371624e-004,-2.715212e-004
1.019005e-003,-1.857886e-004
1.063574e-003,-1.222590e-004
1.025812e-003,-7.752899e-005
8.676364e-004,-4.349527e-005
5.924492e-004,-1.043395e-005
2.629703e-004,3.089271e-005
-1.999580e-005,8.194328e-005
-1.661787e-004,1.386662e-004
-1.501342e-004,1.931201e-004
-7.840905e-006,2.396328e-004
1.872858e-004,2.765838e-004
3.647473e-004,3.059176e-004
4.841895e-004,3.282826e-004
5.467468e-004,3.508097e-004
5.708945e-004,3.793332e-004
5.772150e-004,4.162841e-004
5.901803e-004,4.634451e-004
6.305345e-004,5.195198e-004
6.956849e-004,5.762426e-004
7.597008e-004,6.256726e-004
8.031343e-004,6.663511e-004
8.154513e-004,7.015193e-004
7.964896e-004,7.258290e-004
7.423597e-004,7.268014e-004
6.631098e-004,6.932539e-004
5.832114e-004,6.261588e-004
5.216266e-004,5.349160e-004
4.731691e-004,4.316803e-004
4.143393e-004,3.269861e-004
3.281205e-004,2.321778e-004
2.248849e-004,1.551968e-004
1.333180e-004,9.474644e-005
7.400208e-005,4.515445e-005
4.726130e-005,4.962256e-006
3.883391e-005,-2.258885e-005
2.408596e-005,-3.960571e-005
-3.150244e-005,-5.305713e-005
-1.494860e-004,-7.120844e-005
-3.178718e-004,-9.276313e-005
-4.988988e-004,-1.101041e-004
-6.389232e-004,-1.209625e-004
-7.039114e-004,-1.306864e-004
-6.878669e-004,-1.472171e-004
-6.100755e-004,-1.734716e-004
-4.933886e-004,-2.089640e-004
-3.590364e-004,-2.491561e-004
-2.335979e-004,-2.857829e-004
-1.345760e-004,-3.154408e-004
-5.678463e-005,-3.369955e-004
1.841368e-005,-3.525538e-004
9.847395e-005,-3.650328e-004
1.733481e-004,-3.757291e-004
2.282883e-004,-3.870737e-004
2.587566e-004,-4.019837e-004
2.738286e-004,-4.181903e-004
2.854973e-004,-4.345588e-004
3.030004e-004,-4.481723e-004
3.328204e-004,-4.564377e-004
3.793332e-004,-4.554653e-004
4.430249e-004,-4.465517e-004
5.277851e-004,-4.262935e-004
6.405826e-004,-3.935563e-004
7.757452e-004,-3.454229e-004
9.068561e-004,-2.852967e-004
1.000044e-003,-2.243602e-004
1.036022e-003,-1.728234e-004
1.012685e-003,-1.282554e-004
9.488311e-004,-7.785312e-005
8.684467e-004,-1.286493e-005
7.832003e-004,6.249545e-005
6.762370e-004,1.349386e-004
5.204921e-004,1.950649e-004
3.002453e-004,2.347709e-004
3.494434e-005,2.530843e-004
-2.254946e-004,2.534084e-004
-4.321279e-004,2.394708e-004
-5.587008e-004,2.141886e-004
-6.110480e-004,1.791825e-004
-6.230408e-004,1.385041e-004
-6.285510e-004,9.831188e-005
-6.413542e-004,6.573675e-005
-6.570745e-004,5.179914e-005
-6.679329e-004,5.957827e-005
-6.755499e-004,8.599492e-005
-6.967805e-004,1.247285e-004
-7.455621e-004,1.683241e-004
-8.197880e-004,2.064095e-004
-8.996862e-004,2.302331e-004
-9.585159e-004,2.401191e-004
-9.792603e-004,2.431983e-004
-9.625676e-004,2.485465e-004
-9.186479e-004,2.584324e-004
-8.641939e-004,2.728562e-004
-8.217328e-004,2.898731e-004
-8.074710e-004,3.094830e-004
-8.193018e-004,3.274723e-004
-8.338877e-004,3.438409e-004
-8.225431e-004,3.653956e-004
-7.666306e-004,4.020224e-004
-6.614503e-004,4.556660e-004
-5.141329e-004,5.157923e-004
-3.428299e-004,5.632775e-004
-1.716889e-004,5.789978e-004
-2.356124e-005,5.545259e-004
8.842590e-005,4.958582e-004
1.660552e-004,4.213082e-004
2.166196e-004,3.480546e-004
2.553532e-004,2.911697e-004
2.934386e-004,2.524360e-004
3.375204e-004,2.290986e-004
3.910019e-004,2.148369e-004
4.504799e-004,2.059233e-004
5.094717e-004,1.947408e-004
5.634395e-004,1.801549e-004
6.109247e-004,1.634622e-004
6.519272e-004,1.490383e-004
6.819093e-004,1.368834e-004
6.872575e-004,1.216493e-004
6.486859e-004,9.717743e-005
5.545259e-004,5.811968e-005
4.237391e-004,3.503668e-006
3.038107e-004,-5.921561e-005
2.430362e-004,-1.225832e-004
2.710735e-004,-1.804405e-004
3.900295e-004,-2.310048e-004
5.733255e-004,-2.699005e-004
7.883863e-004,-2.998826e-004
9.997197e-004,-3.215994e-004
1.179775e-003,-3.322956e-004
1.307320e-003,-3.295405e-004
1.369391e-003,-3.181960e-004
1.355616e-003,-3.049066e-004
1.255459e-003,-2.951827e-004
1.069732e-003,-2.919414e-004
8.146409e-004,-2.929138e-004
5.198439e-004,-2.919414e-004
2.162954e-004,-2.815692e-004
-6.440170e-005,-2.639041e-004
-3.151167e-004,-2.470493e-004
-5.634008e-004,-2.335979e-004
-8.447461e-004,-2.225774e-004
-1.165797e-003,-2.115570e-004
-1.500300e-003,-1.956746e-004
-1.797528e-003,-1.686097e-004
-2.011779e-003,-1.327933e-004
-2.130735e-003,-9.260107e-005
-2.173034e-003,-5.386745e-005
-2.168496e-003,-2.031993e-005
-2.140297e-003,4.800190e-006
-2.104804e-003,1.760335e-005
-2.054240e-003,1.063454e-005
-1.952138e-003,-1.529591e-005
-1.764305e-003,-5.791909e-005
-1.485552e-003,-1.128592e-004
-1.134195e-003,-1.666649e-004
-7.497758e-004,-2.019951e-004
-3.716775e-004,-2.100984e-004
-3.425755e-005,-1.922712e-004
2.397949e-004,-1.533756e-004
4.401077e-004,-1.060525e-004
5.702463e-004,-6.731888e-005
6.550064e-004,-4.851930e-005
7.358771e-004,-5.662256e-005
8.431645e-004,-8.595638e-005
9.796236e-004,-1.248521e-004
1.135044e-003,-1.613168e-004
1.289007e-003,-1.838438e-004
1.429518e-003,-1.806025e-004
1.551067e-003,-1.378173e-004
1.637286e-003,-5.127441e-005
1.660299e-003,6.654708e-005
1.587532e-003,1.973338e-004
1.394673e-003,3.239069e-004
1.086425e-003,4.316803e-004
7.088122e-004,5.143337e-004
3.532407e-004,5.611706e-004
1.169494e-004,5.697600e-004
4.774750e-005,5.433434e-004
1.375317e-004,4.903480e-004
3.362238e-004,4.221185e-004
5.715428e-004,3.545372e-004
7.775280e-004,3.111037e-004
9.113940e-004,3.169380e-004
9.627688e-004,3.793332e-004
9.425106e-004,4.807861e-004
8.668260e-004,5.882355e-004
7.454390e-004,6.741302e-004
5.935837e-004,7.204809e-004
4.226047e-004,7.180499e-004
2.412535e-004,6.739681e-004
6.589881e-005,6.089798e-004
-7.785312e-005,5.417228e-004
-1.635857e-004,4.772207e-004
-1.809267e-004,4.136911e-004
-1.389517e-004,3.452995e-004
-7.396356e-005,2.645909e-004
-3.668853e-005,1.689724e-004
-5.646050e-005,6.346784e-005
-1.287416e-004,-4.300908e-005
-2.204706e-004,-1.379794e-004
-2.893484e-004,-2.203085e-004
-3.018274e-004,-2.959930e-004
-2.514251e-004,-3.731361e-004
-1.561307e-004,-4.562756e-004
-3.620233e-005,-5.387668e-004
8.648112e-005,-6.078067e-004
1.889064e-004,-6.531850e-004
2.603772e-004,-6.669604e-004
3.054314e-004,-6.489712e-004
3.350894e-004,-6.031067e-004
3.534027e-004,-5.358497e-004
3.581026e-004,-4.596790e-004
3.527545e-004,-3.901529e-004
3.459477e-004,-3.392644e-004
3.467581e-004,-3.146305e-004
3.519442e-004,-3.078238e-004
3.516200e-004,-3.130099e-004
3.294171e-004,-3.220855e-004
2.817699e-004,-3.305129e-004
2.201850e-004,-3.326198e-004
1.571416e-004,-3.211132e-004
9.960841e-005,-2.908069e-004
5.277153e-005,-2.444563e-004
2.116879e-005,-1.890299e-004
2.376183e-005,-1.316588e-004
7.983644e-005,-7.850138e-005
1.866375e-004,-3.441962e-005
3.141829e-004,-3.951337e-006
4.159600e-004,2.116879e-005
4.464283e-004,4.807163e-005
3.718782e-004,7.999851e-005
1.913374e-004,1.112771e-004
-6.780507e-005,1.414213e-004
-3.609812e-004,1.667035e-004
-6.504298e-004,1.830721e-004
-9.175134e-004,1.937684e-004
-1.167742e-003,2.018716e-004
-1.424940e-003,2.115956e-004
-1.696886e-003,2.247229e-004
-1.936094e-003,2.384984e-004
-2.068502e-003,2.527602e-004
-2.048081e-003,2.684805e-004
-1.882613e-003,2.846870e-004
-1.630763e-003,2.963557e-004
-1.390744e-003,2.986247e-004
-1.255258e-003,2.923041e-004
-1.258823e-003,2.806354e-004
-1.360114e-003,2.739907e-004
-1.467563e-003,2.777182e-004
-1.484256e-003,2.911697e-004
-1.348769e-003,3.124002e-004
-1.058348e-003,3.371962e-004
-6.517263e-004,3.610198e-004
-1.888679e-004,3.764160e-004
2.704253e-004,3.817642e-004
6.887161e-004,3.806297e-004
1.048177e-003,3.793332e-004
1.341030e-003,3.806297e-004
1.562412e-003,3.843572e-004
1.705678e-003,3.916502e-004
1.755108e-003,4.028327e-004
1.705678e-003,4.167703e-004
1.565491e-003,4.266563e-004
1.359667e-003,4.251977e-004
1.121593e-003,4.076947e-004
8.950254e-004,3.751195e-004
7.222636e-004,3.339549e-004
6.290760e-004,2.895490e-004
6.118971e-004,2.415777e-004
6.496583e-004,1.846927e-004
7.201568e-004,1.195424e-004
8.002172e-004,5.504044e-005
8.665019e-004,7.717366e-006
9.071803e-004,-1.173047e-005
9.088010e-004,-6.058186e-006
8.660157e-004,1.630683e-005
7.849830e-004,4.515445e-005
6.869333e-004,7.238143e-005
5.888838e-004,8.793970e-005
5.031512e-004,8.761557e-005
4.392974e-004,7.157111e-005
3.984569e-004,4.272347e-005
3.647473e-004,6.907040e-006
3.205035e-004,-3.296103e-005
2.608634e-004,-7.542214e-005
1.884202e-004,-1.245279e-004
1.094944e-004,-1.793060e-004
4.045456e-005,-2.326255e-004
5.124321e-006,-2.768693e-004
1.193106e-005,-3.078238e-004
4.061663e-005,-3.246786e-004
4.742337e-005,-3.287302e-004
-3.951337e-006,-3.259751e-004
-1.206384e-004,-3.219235e-004
-2.723315e-004,-3.271096e-004
-3.956632e-004,-3.497987e-004
-4.348830e-004,-3.967976e-004
-3.660052e-004,-4.708614e-004
-2.078295e-004,-5.692351e-004
-8.002969e-006,-6.770085e-004
1.835583e-004,-7.693857e-004
3.318480e-004,-8.254603e-004
4.211461e-004,-8.361567e-004
4.527488e-004,-8.032574e-004
4.311941e-004,-7.347037e-004
3.631267e-004,-6.413542e-004
2.553532e-004,-5.322842e-004
1.232699e-004,-4.108973e-004
-1.027188e-005,-2.754107e-004
-1.277692e-004,-1.243659e-004
-2.248464e-004,3.299956e-005
-3.076617e-004,1.809652e-004
-3.956632e-004,3.086727e-004
-5.146191e-004,4.156358e-004
-6.776568e-004,5.044477e-004
-8.603043e-004,5.781874e-004
-1.004543e-003,6.400964e-004
-1.059483e-003,6.888782e-004
-1.028528e-003,7.086502e-004
-9.594883e-004,6.754267e-004
-9.108688e-004,5.681394e-004
-9.309648e-004,3.841952e-004
-1.032418e-003,1.409351e-004
-1.176494e-003,-1.308485e-004
-1.302743e-003,-3.919357e-004
-1.352983e-003,-6.073205e-004
-1.294964e-003,-7.486413e-004
-1.135491e-003,-7.995299e-004
-9.097343e-004,-7.598239e-004
-6.616123e-004,-6.439472e-004
-4.254832e-004,-4.797751e-004
-2.196603e-004,-2.998826e-004
-4.511593e-005,-1.224211e-004
1.041462e-004,4.596478e-005
2.303951e-004,2.049509e-004
3.342791e-004,3.514580e-004
4.229288e-004,4.862963e-004
5.110924e-004,6.187038e-004
6.138419e-004,7.535422e-004
7.298806e-004,8.898393e-004
8.504574e-004,1.016412e-003
9.724927e-004,1.117379e-003
1.089180e-003,1.185447e-003
1.190633e-003,1.228880e-003
1.267614e-003,1.265507e-003
1.316396e-003,1.307482e-003
1.342326e-003,1.347512e-003
1.350592e-003,1.351726e-003
1.338761e-003,1.283983e-003
1.306024e-003,1.123538e-003
1.254001e-003,8.812498e-004
1.185123e-003,5.940699e-004
1.092907e-003,3.115899e-004
9.637412e-004,7.448828e-005
7.634282e-004,-9.341139e-005
4.574487e-004,-1.896782e-004
4.272347e-005,-2.254946e-004
-4.311555e-004,-2.172293e-004
-8.679214e-004,-1.882196e-004
-1.184273e-003,-1.595340e-004
-1.355414e-003,-1.420310e-004
-1.406302e-003,-1.373311e-004
-1.386044e-003,-1.421931e-004
-1.344555e-003,-1.541859e-004
-1.302905e-003,-1.695821e-004
-1.244561e-003,-1.895161e-004
-1.135977e-003,-2.094502e-004
-9.552746e-004,-2.227395e-004
-7.032631e-004,-2.306807e-004
-4.083043e-004,-2.402425e-004
-1.289037e-004,-2.562870e-004
7.367795e-005,-2.776796e-004
1.709172e-004,-3.005308e-004
1.723757e-004,-3.188442e-004
1.128978e-004,-3.301888e-004
4.013043e-005,-3.348887e-004
-7.100305e-007,-3.399127e-004
1.549650e-005,-3.528779e-004
9.263960e-005,-3.801049e-004
2.235884e-004,-4.191627e-004
4.026706e-004,-4.625961e-004
6.243761e-004,-5.076503e-004
8.768741e-004,-5.583767e-004
1.130507e-003,-6.193133e-004
1.347350e-003,-6.890013e-004
1.492237e-003,-7.556102e-004
1.519140e-003,-8.024471e-004
1.376360e-003,-8.167088e-004
1.048501e-003,-7.904542e-004
5.755944e-004,-7.223868e-004
3.413401e-005,-6.207718e-004
-4.750752e-004,-5.040849e-004
-8.590078e-004,-3.886944e-004
-1.061427e-003,-2.849726e-004
-1.089951e-003,-1.959987e-004
-1.001139e-003,-1.266348e-004
-8.552803e-004,-8.093236e-005
-6.885151e-004,-5.581224e-005
-5.104054e-004,-4.219875e-005
-3.167374e-004,-3.166451e-005
-1.032974e-004,-1.335113e-005
1.211631e-004,1.906194e-005
3.349273e-004,6.152305e-005
5.213025e-004,1.085220e-004
6.830437e-004,1.571416e-004
8.348991e-004,2.041406e-004
9.771927e-004,2.470879e-004
1.092583e-003,2.773941e-004
1.160003e-003,2.863077e-004
1.165837e-003,2.726942e-004
1.098094e-003,2.415777e-004
9.522345e-004,2.020337e-004
7.407391e-004,1.663793e-004
4.956961e-004,1.414213e-004
2.639427e-004,1.315353e-004
8.777764e-005,1.396385e-004
-1.707863e-005,1.684862e-004
-6.683268e-005,2.172679e-004
-9.389759e-005,2.746390e-004
-1.256624e-004,3.274723e-004
-1.885437e-004,3.679886e-004
-3.091203e-004,3.968363e-004
-4.998712e-004,4.221185e-004
-7.491275e-004,4.537212e-004
-1.019615e-003,4.943996e-004
-1.263685e-003,5.397780e-004
-1.429802e-003,5.833735e-004
-1.482311e-003,6.185417e-004
-1.421698e-003,6.362069e-004
-1.278757e-003,6.357207e-004
-1.087682e-003,6.253485e-004
-8.718110e-004,6.099523e-004
-6.432990e-004,5.883976e-004
-4.298589e-004,5.514466e-004
-2.802727e-004,4.971547e-004
-2.459149e-004,4.298976e-004
-3.512573e-004,3.605336e-004
-5.700454e-004,2.953834e-004
-7.977472e-004,2.347709e-004
-8.970932e-004,1.731861e-004
-7.838095e-004,1.104668e-004
-4.674581e-004,5.196120e-005
-3.830919e-005,3.017472e-006
3.910019e-004,-3.782299e-005
7.415494e-004,-7.574627e-005
9.982612e-004,-1.101041e-004
1.195333e-003,-1.365208e-004
1.366312e-003,-1.566169e-004
1.523840e-003,-1.755785e-004
1.656086e-003,-1.964849e-004
1.733229e-003,-2.172293e-004
1.723505e-003,-2.345703e-004
1.619621e-003,-2.488320e-004
1.444428e-003,-2.619593e-004
1.228070e-003,-2.794623e-004
1.000692e-003,-2.998826e-004
7.691005e-004,-3.165753e-004
5.159543e-004,-3.222476e-004
2.062474e-004,-3.133340e-004
-1.703924e-004,-2.942103e-004
-5.766901e-004,-2.749245e-004
-9.351785e-004,-2.642282e-004
-1.163529e-003,-2.648765e-004
-1.212796e-003,-2.716832e-004
-1.095299e-003,-2.762210e-004
-8.740799e-004,-2.663351e-004
-6.115342e-004,-2.334358e-004
-3.363473e-004,-1.759026e-004
-6.877746e-005,-1.016767e-004
1.699448e-004,-2.420950e-005
3.535648e-004,4.094075e-005
4.712243e-004,8.080883e-005
5.297299e-004,9.101894e-005
5.465847e-004,7.708133e-005
5.303781e-004,5.115087e-005
4.872688e-004,2.829966e-005
4.251977e-004,1.760335e-005
3.537269e-004,3.105477e-005
2.827423e-004,7.432621e-005
2.162954e-004,1.407730e-004
1.482280e-004,2.179161e-004
7.027458e-005,2.916559e-004
-2.372331e-005,3.487029e-004
-1.413827e-004,3.767402e-004
-2.814071e-004,3.702575e-004
-4.373140e-004,3.315239e-004
-6.006758e-004,2.730183e-004
-7.625790e-004,2.077060e-004
-9.066550e-004,1.466074e-004
-1.004056e-003,9.361199e-005
-1.015725e-003,4.807163e-005
-9.144342e-004,1.079661e-005
-7.018045e-004,-1.059602e-005
-4.152731e-004,-5.896120e-006
-1.079973e-004,3.056858e-005
1.743205e-004,9.458438e-005
4.015361e-004,1.748067e-004
5.647360e-004,2.595669e-004
6.684579e-004,3.346032e-004
7.180499e-004,3.869503e-004
7.152948e-004,4.083429e-004
6.666752e-004,4.028327e-004
5.751082e-004,3.769022e-004
4.444835e-004,3.407616e-004
2.783665e-004,3.017039e-004
8.956036e-005,2.639427e-004
-9.843541e-005,2.294227e-004
-2.441321e-004,2.007372e-004
-3.002067e-004,1.751309e-004
-2.426735e-004,1.487142e-004
-8.336335e-005,1.141943e-004
1.329939e-004,6.622294e-005
3.360618e-004,5.286387e-006
4.420525e-004,-5.808115e-005
4.010500e-004,-1.089697e-004
2.203471e-004,-1.316588e-004
-4.365734e-005,-1.196660e-004
-3.160891e-004,-8.044617e-005
-5.334187e-004,-2.566809e-005
-6.708500e-004,3.397195e-005
-7.363244e-004,8.583286e-005
-7.479931e-004,1.213252e-004
-7.206041e-004,1.352628e-004
-6.583710e-004,1.257009e-004
-5.646973e-004,9.652917e-005
-4.506033e-004,5.277153e-005
-3.267854e-004,2.855407e-006
-2.015090e-004,-4.495386e-005
-7.947377e-005,-8.222889e-005
3.964424e-005,-1.034594e-004
1.509831e-004,-1.107524e-004
2.401191e-004,-1.105903e-004
3.039728e-004,-1.136696e-004
3.542131e-004,-1.264727e-004
4.091532e-004,-1.496481e-004
4.806241e-004,-1.815749e-004
5.699221e-004,-2.206326e-004
6.692683e-004,-2.619593e-004
7.584042e-004,-3.024756e-004
8.207994e-004,-3.382920e-004
8.514298e-004,-3.656811e-004
8.470541e-004,-3.862634e-004
8.094548e-004,-4.016596e-004
7.405770e-004,-4.086284e-004
6.470652e-004,-3.998769e-004
5.415607e-004,-3.698948e-004
4.448076e-004,-3.272716e-004
3.702575e-004,-2.810830e-004
3.190449e-004,-2.420253e-004
2.744769e-004,-2.125294e-004
2.226160e-004,-1.912988e-004
1.555210e-004,-1.760647e-004
7.902610e-005,-1.618029e-004
5.286387e-006,-1.459206e-004
-4.738484e-005,-1.266348e-004
-7.088431e-005,-1.032974e-004
-6.974985e-005,-7.428769e-005
-6.796714e-005,-3.911951e-005
-9.341139e-005,1.072688e-006
-1.574272e-004,4.239934e-005
-2.569353e-004,8.388807e-005
-3.676259e-004,1.255389e-004
-4.661616e-004,1.645966e-004
-5.518941e-004,1.996027e-004
-6.470265e-004,2.312055e-004
-7.708443e-004,2.615117e-004
-9.167031e-004,2.923041e-004
-1.048300e-003,3.226103e-004
-1.118312e-003,3.512959e-004
-1.093192e-003,3.722023e-004
-9.620814e-004,3.816021e-004
-7.340555e-004,3.803056e-004
-4.340726e-004,3.733368e-004
-9.924574e-005,3.657197e-004
2.190506e-004,3.582647e-004
4.700898e-004,3.446512e-004
6.324793e-004,3.214759e-004
7.285841e-004,2.929524e-004
8.008654e-004,2.639427e-004
8.804395e-004,2.378501e-004
9.833511e-004,2.171058e-004
1.097445e-003,2.073819e-004
1.188364e-003,2.083542e-004
1.227422e-003,2.164575e-004
1.216239e-003,2.274780e-004
1.174264e-003,2.386605e-004
1.127752e-003,2.449810e-004
1.090801e-003,2.422259e-004
1.064222e-003,2.337985e-004
1.039588e-003,2.250470e-004
1.000206e-003,2.164575e-004
9.245213e-004,2.030061e-004
8.071859e-004,1.822617e-004
6.713751e-004,1.524417e-004
5.519328e-004,1.184080e-004
4.712243e-004,8.534666e-005
4.204978e-004,5.455425e-005
3.543751e-004,2.327564e-005
2.023578e-004,-7.678839e-006
-9.000802e-005,-3.522994e-005
-4.933886e-004,-5.856735e-005
-9.016310e-004,-7.493595e-005
-1.196914e-003,-8.125649e-005
-1.296908e-003,-7.882551e-005
-1.198373e-003,-7.866345e-005
-9.941703e-004,-9.162867e-005
-8.334015e-004,-1.216107e-004
-8.374532e-004,-1.609926e-004
-1.042304e-003,-1.942160e-004
-1.383451e-003,-2.092881e-004
-1.717306e-003,-1.982676e-004
-1.897360e-003,-1.630995e-004
-1.842906e-003,-1.199901e-004
-1.570150e-003,-8.725291e-005
-1.163529e-003,-7.720486e-005
-7.308142e-004,-9.616651e-005
-3.757291e-004,-1.400862e-004
-1.770371e-004,-2.042641e-004
-1.634236e-004,-2.867553e-004
-3.178718e-004,-3.861013e-004
-5.909518e-004,-4.966299e-004
-9.021172e-004,-6.032689e-004
-1.147484e-003,-6.843015e-004
-1.239375e-003,-7.241695e-004
-1.137436e-003,-7.181731e-004
-8.672731e-004,-6.729569e-004
-4.979264e-004,-6.021344e-004
-1.139937e-004,-5.157535e-004
2.120818e-004,-4.175420e-004
4.334631e-004,-3.060411e-004
5.428572e-004,-1.793060e-004
5.657084e-004,-4.300908e-005
5.388056e-004,8.469840e-005
4.824068e-004,1.934442e-004
4.072085e-004,2.765838e-004
3.436788e-004,3.388169e-004
3.252034e-004,3.926226e-004
3.634508e-004,4.553419e-004
4.449697e-004,5.365367e-004
5.417228e-004,6.295622e-004
6.214589e-004,7.159431e-004
6.574374e-004,7.757452e-004
6.412309e-004,7.963275e-004
5.908285e-004,7.768797e-004
5.431813e-004,7.191843e-004
5.264886e-004,6.332897e-004
5.580913e-004,5.358884e-004
6.387999e-004,4.469145e-004
7.608352e-004,3.718782e-004
8.994011e-004,3.094830e-004
1.009282e-003,2.537325e-004
1.038453e-003,2.023578e-004
9.707100e-004,1.571416e-004
8.433265e-004,1.255389e-004
7.208050e-004,1.116012e-004
6.444722e-004,1.112771e-004
6.127074e-004,1.151667e-004
6.020110e-004,1.137081e-004
5.862907e-004,1.038221e-004
5.512846e-004,8.793970e-005
4.971547e-004,7.416415e-005
4.376768e-004,7.027458e-005
3.871123e-004,8.486046e-005
3.454615e-004,1.227837e-004
2.963557e-004,1.767515e-004
2.235884e-004,2.349330e-004
1.174356e-004,2.905214e-004
-1.918548e-005,3.438409e-004
-1.707166e-004,3.939191e-004
-3.151167e-004,4.375147e-004
-4.271038e-004,4.721967e-004
-4.894990e-004,4.914824e-004
-4.963057e-004,4.888894e-004
-4.394208e-004,4.582590e-004
-3.123616e-004,3.960259e-004
-1.209625e-004,3.051073e-004
1.005808e-004,1.916615e-004
3.049452e-004,6.865393e-005
4.485351e-004,-4.770897e-005
5.036374e-004,-1.428413e-004
4.699278e-004,-2.105846e-004
3.744712e-004,-2.494803e-004
2.623220e-004,-2.673075e-004
1.782101e-004,-2.723315e-004
1.456350e-004,-2.758969e-004
1.592484e-004,-2.852967e-004
1.936063e-004,-3.027998e-004
2.245608e-004,-3.256510e-004
2.342847e-004,-3.514194e-004
2.044647e-004,-3.792946e-004
1.182459e-004,-4.083043e-004
-4.057810e-005,-4.381243e-004
-2.767073e-004,-4.647030e-004
-5.812279e-004,-4.810716e-004
-9.196203e-004,-4.797751e-004
-1.226572e-003,-4.604893e-004
-1.428830e-003,-4.303451e-004
-1.487821e-003,-4.000390e-004
-1.418295e-003,-3.726499e-004
-1.259795e-003,-3.449367e-004
-1.041655e-003,-3.209511e-004
-7.800820e-004,-3.027998e-004
-4.925782e-004,-2.880518e-004
-2.066950e-004,-2.736280e-004
5.277153e-005,-2.577456e-004
2.710735e-004,-2.420253e-004
4.397836e-004,-2.250084e-004
5.597120e-004,-2.086398e-004
6.277795e-004,-1.937298e-004
6.289139e-004,-1.741199e-004
5.496639e-004,-1.464067e-004
3.910019e-004,-1.096179e-004
1.778860e-004,-6.845333e-005
-3.409549e-005,-2.680255e-005
-1.757406e-004,1.079661e-005
-2.073433e-004,4.045456e-005
-1.287416e-004,6.152305e-005
2.149292e-005,7.659513e-005
1.934442e-004,8.777764e-005
3.469201e-004,9.620504e-005
4.603659e-004,1.025256e-004
5.253541e-004,1.057669e-004
5.407503e-004,1.034980e-004
5.102821e-004,9.344993e-005
4.525868e-004,8.323981e-005
3.833848e-004,8.567078e-005
3.171001e-004,1.060910e-004
2.649151e-004,1.334801e-004
2.333123e-004,1.508211e-004
2.185644e-004,1.558451e-004
2.146748e-004,1.576278e-004
2.111094e-004,1.723757e-004
1.973338e-004,2.093267e-004
1.647587e-004,2.658874e-004
1.130598e-004,3.300653e-004
4.742337e-005,3.953777e-004
-1.983374e-005,4.671726e-004
-7.866345e-005,5.540397e-004
-1.389517e-004,6.506307e-004
-2.147983e-004,7.444666e-004
-2.985861e-004,8.242028e-004
-3.655190e-004,8.812498e-004
-3.885323e-004,9.130147e-004
-3.541745e-004,9.173905e-004
-2.686040e-004,8.893532e-004
-1.543479e-004,8.220959e-004
-4.074016e-005,7.256670e-004
5.293359e-005,6.123833e-004
1.216493e-004,4.968306e-004
1.618415e-004,3.898674e-004
1.752929e-004,2.952213e-004
1.655690e-004,2.128921e-004
1.414213e-004,1.399627e-004
1.109530e-004,7.384002e-005
8.356394e-005,1.274139e-005
7.157111e-005,-4.268495e-005
8.388807e-005,-9.130454e-005
1.195424e-004,-1.374932e-004
1.752929e-004,-1.856265e-004
2.491947e-004,-2.334358e-004
3.341170e-004,-2.754107e-004
4.214702e-004,-3.040963e-004
5.029891e-004,-3.096065e-004
5.708945e-004,-2.870794e-004
6.221072e-004,-2.412149e-004
6.595443e-004,-1.945401e-004
6.828817e-004,-1.724993e-004
6.838542e-004,-1.874093e-004
6.572754e-004,-2.314910e-004
5.961767e-004,-2.896725e-004
4.929411e-004,-3.460712e-004
3.384927e-004,-3.938804e-004
1.373696e-004,-4.311555e-004
-9.811128e-005,-4.622720e-004
-3.467195e-004,-4.922541e-004
-5.739350e-004,-5.220741e-004
-7.484793e-004,-5.424943e-004
-8.609526e-004,-5.442770e-004
-9.189720e-004,-5.300153e-004
-9.335579e-004,-5.039228e-004
-9.110308e-004,-4.731304e-004
-8.541459e-004,-4.459034e-004
-7.718167e-004,-4.262935e-004
-6.802498e-004,-4.079801e-004
-5.972724e-004,-3.836704e-004
-5.441150e-004,-3.509331e-004
-5.416840e-004,-3.173856e-004
-6.034309e-004,-2.935620e-004
-7.112043e-004,-2.877277e-004
-8.181673e-004,-2.950206e-004
-8.782936e-004,-3.058790e-004
-8.645180e-004,-3.073376e-004
-7.739235e-004,-2.870794e-004
-6.236890e-004,-2.408908e-004
-4.565997e-004,-1.789819e-004
-3.321336e-004,-1.125351e-004
-2.921034e-004,-4.754691e-005
-3.191683e-004,1.695509e-005
-3.324577e-004,8.583286e-005
-2.241981e-004,1.550348e-004
7.724339e-005,2.151610e-004
5.512846e-004,2.566497e-004
1.082697e-003,2.736666e-004
1.521895e-003,2.692908e-004
1.738901e-003,2.542187e-004
1.680719e-003,2.430362e-004
1.416390e-003,2.509774e-004
1.107655e-003,2.848491e-004
9.055596e-004,3.380065e-004
8.661778e-004,3.989431e-004
9.457519e-004,4.568005e-004
1.052553e-003,5.060683e-004
1.109276e-003,5.431813e-004
1.083670e-003,5.678153e-004
9.899958e-004,5.778633e-004
8.601813e-004,5.710566e-004
7.028158e-004,5.520949e-004
4.958582e-004,5.290816e-004
1.983062e-004,5.067165e-004
-2.147983e-004,4.898618e-004
-7.309763e-004,4.765725e-004
-1.296260e-003,4.636072e-004
-1.819083e-003,4.504799e-004
-2.223598e-003,4.360561e-004
-2.457297e-003,4.180668e-004
-2.493599e-003,3.944053e-004
-2.348227e-003,3.673404e-004
-2.060723e-003,3.414099e-004
-1.685541e-003,3.195311e-004
-1.277298e-003,3.028383e-004
-8.781315e-004,2.923041e-004
-5.181845e-004,2.889007e-004
-2.193361e-004,2.882525e-004
7.717366e-006,2.846870e-004
1.652449e-004,2.767458e-004
2.660495e-004,2.678322e-004
3.273102e-004,2.598910e-004
3.694472e-004,2.490327e-004
4.203358e-004,2.279642e-004
5.041235e-004,1.926339e-004
6.326414e-004,1.459591e-004
8.007033e-004,9.280167e-005
9.827028e-004,3.932010e-005
1.139096e-003,-1.059602e-005
1.234877e-003,-5.435365e-005
1.251408e-003,-9.243900e-005
1.191119e-003,-1.274451e-004
1.076053e-003,-1.613168e-004
9.467243e-004,-1.861127e-004
8.384645e-004,-1.911368e-004
7.728280e-004,-1.690959e-004
7.558112e-004,-1.227452e-004
7.752590e-004,-6.002594e-005
7.989206e-004,8.203562e-006
7.953551e-004,6.184718e-005
7.417115e-004,7.999851e-005
6.117350e-004,5.066468e-005
3.918123e-004,-2.485776e-005
1.004187e-004,-1.220970e-004
-1.981056e-004,-2.126914e-004
-4.264556e-004,-2.783279e-004
-5.405495e-004,-3.151167e-004
-5.544871e-004,-3.293785e-004
-5.206155e-004,-3.347266e-004
-4.912817e-004,-3.412093e-004
-4.882024e-004,-3.527159e-004
-4.972781e-004,-3.655190e-004
-4.883645e-004,-3.750809e-004
-4.348830e-004,-3.807532e-004
-3.207890e-004,-3.888564e-004
-1.504584e-004,-4.063595e-004
5.374392e-005,-4.442827e-004
2.605393e-004,-5.151053e-004
4.423766e-004,-6.207718e-004
5.846701e-004,-7.379451e-004
6.778577e-004,-8.295119e-004
7.162672e-004,-8.533355e-004
7.073536e-004,-7.946679e-004
6.686199e-004,-6.724707e-004
6.097901e-004,-5.227224e-004
5.289196e-004,-3.767015e-004
4.239012e-004,-2.438080e-004
2.932765e-004,-1.198280e-004
1.482280e-004,7.393236e-006
1.144487e-005,1.420695e-004
-9.211487e-005,2.816078e-004
-1.444620e-004,4.206599e-004
-1.365208e-004,5.551741e-004
-7.201877e-005,6.828817e-004
3.705119e-005,7.969757e-004
1.722137e-004,8.945392e-004
3.093210e-004,9.773547e-004
4.242253e-004,1.042343e-003
5.130371e-004,1.078970e-003
5.811046e-004,1.066167e-003
6.310208e-004,9.899958e-004
6.606788e-004,8.585607e-004
6.728336e-004,7.026537e-004
6.611650e-004,5.642498e-004
6.031455e-004,4.734932e-004
4.652279e-004,4.392974e-004
2.318537e-004,4.499937e-004
-6.407757e-005,4.858102e-004
-3.309991e-004,5.282713e-004
-4.697270e-004,5.556603e-004
-4.360174e-004,5.503122e-004
-2.570974e-004,5.013684e-004
-1.189254e-005,4.141773e-004
2.091646e-004,3.005694e-004
3.464339e-004,1.714034e-004
3.781987e-004,4.029250e-005
3.112658e-004,-7.736692e-005
1.723757e-004,-1.699062e-004
-6.382317e-006,-2.306807e-004
-2.013469e-004,-2.609869e-004
-3.946908e-004,-2.669833e-004
-5.695592e-004,-2.580697e-004
-7.139594e-004,-2.457528e-004
-8.238396e-004,-2.355427e-004
-8.964449e-004,-2.306807e-004
-9.235098e-004,-2.326255e-004
-8.980656e-004,-2.428356e-004
-8.186536e-004,-2.600145e-004
-7.019666e-004,-2.758969e-004
-5.715040e-004,-2.924276e-004
-4.459034e-004,-3.102548e-004
-3.344025e-004,-3.384541e-004
-2.352185e-004,-3.773498e-004
-1.329553e-004,-4.190006e-004
-1.432352e-005,-4.517378e-004
1.323456e-004,-4.753993e-004
3.102934e-004,-4.875542e-004
5.018546e-004,-4.859335e-004
6.762370e-004,-4.716718e-004
8.073480e-004,-4.502792e-004
8.780085e-004,-4.275900e-004
8.762258e-004,-4.065215e-004
8.002172e-004,-3.898288e-004
6.588960e-004,-3.762153e-004
4.631210e-004,-3.627639e-004
2.133783e-004,-3.501228e-004
-8.935975e-005,-3.429920e-004
-4.214316e-004,-3.412093e-004
-7.303280e-004,-3.335922e-004
-9.500885e-004,-3.130099e-004
-1.029987e-003,-2.754107e-004
-9.487920e-004,-2.310048e-004
-7.316245e-004,-1.963229e-004
-4.369898e-004,-1.773612e-004
-1.279313e-004,-1.707166e-004
1.386662e-004,-1.705545e-004
3.182346e-004,-1.695821e-004
3.906778e-004,-1.616409e-004
3.574544e-004,-1.457585e-004
2.346088e-004,-1.220970e-004
4.564065e-005,-8.854943e-005
-1.726613e-004,-4.479180e-005
-3.724878e-004,3.179537e-006
-5.128364e-004,5.552663e-005
-5.719902e-004,1.112771e-004
-5.556216e-004,1.649207e-004
-4.909576e-004,2.130541e-004
-4.045768e-004,2.525981e-004
-3.185201e-004,2.848491e-004
-2.470493e-004,3.138588e-004
-1.912988e-004,3.436788e-004
-1.478653e-004,3.723644e-004
-1.107524e-004,3.995914e-004
-7.234290e-005,4.232529e-004
-2.015787e-005,4.423766e-004
5.212327e-005,4.593935e-004
1.372076e-004,4.822447e-004
2.162954e-004,5.117406e-004
2.811216e-004,5.428572e-004
3.310377e-004,5.681394e-004
3.746333e-004,5.798081e-004
4.148255e-004,5.741358e-004
4.485351e-004,5.564707e-004
4.783552e-004,5.313505e-004
5.182233e-004,4.976409e-004
5.768909e-004,4.469145e-004
6.546823e-004,3.679886e-004
7.360392e-004,2.535705e-004
7.846588e-004,1.175977e-004
7.554871e-004,-2.145439e-005
6.075213e-004,-1.420310e-004
3.243930e-004,-2.267911e-004
-6.731888e-005,-2.668213e-004
-5.000332e-004,-2.655248e-004
-8.838038e-004,-2.426735e-004
-1.144729e-003,-2.135018e-004
-1.246344e-003,-1.815749e-004
-1.200966e-003,-1.376552e-004
-1.064831e-003,-7.218083e-005
-9.079515e-004,1.403791e-005
-7.902921e-004,1.174356e-004
-7.685754e-004,2.299089e-004
-8.781315e-004,3.370341e-004
-1.100971e-003,4.279528e-004
-1.353631e-003,4.958582e-004
-1.529634e-003,5.402642e-004
-1.538061e-003,5.691118e-004
-1.336290e-003,5.986077e-004
-9.405267e-004,6.443101e-004
-4.185144e-004,7.114052e-004
1.524417e-004,7.789865e-004
7.039502e-004,8.029722e-004
1.184312e-003,7.480320e-004
1.567273e-003,6.109247e-004
1.836789e-003,4.209840e-004
1.986376e-003,2.281262e-004
2.017006e-003,7.870197e-005
1.940997e-003,-6.382317e-006
1.777959e-003,-4.462973e-005
1.539884e-003,-6.845333e-005
1.222560e-003,-1.039456e-004
8.183684e-004,-1.632615e-004
3.487029e-004,-2.462390e-004
-1.276072e-004,-3.392644e-004
-5.471942e-004,-4.284004e-004
-8.839659e-004,-4.992229e-004
-1.139543e-003,-5.407116e-004
-1.325918e-003,-5.478425e-004
-1.463511e-003,-5.254775e-004
-1.583602e-003,-4.857715e-004
-1.705961e-003,-4.360174e-004
-1.818110e-003,-3.826980e-004
-1.892985e-003,-3.329439e-004
-1.896550e-003,-2.914552e-004
-1.795421e-003,-2.621213e-004
-1.578578e-003,-2.429977e-004
-1.258013e-003,-2.306807e-004
-8.680834e-004,-2.217671e-004
-4.497930e-004,-2.135018e-004
-3.652646e-005,-2.036158e-004
3.436788e-004,-1.950263e-004
6.684579e-004,-1.864369e-004
9.196594e-004,-1.715269e-004
1.080915e-003,-1.413827e-004
1.146875e-003,-9.503204e-005
1.132289e-003,-3.733679e-005
1.074108e-003,1.987227e-005
1.028243e-003,6.638502e-005
1.037967e-003,1.005808e-004
1.114300e-003,1.222976e-004
1.240063e-003,1.325077e-004
1.386732e-003,1.381800e-004
1.529188e-003,1.448246e-004
1.654789e-003,1.514693e-004
1.758673e-003,1.573037e-004
1.829820e-003,1.577899e-004
1.856561e-003,1.540623e-004
1.832089e-003,1.522796e-004
1.756890e-003,1.584381e-004
1.642958e-003,1.767515e-004
1.506823e-003,2.060853e-004
1.361936e-003,2.389846e-004
1.212512e-003,2.645909e-004
1.039102e-003,2.728562e-004
8.019998e-004,2.615117e-004
4.764104e-004,2.336365e-004
8.226741e-005,1.936063e-004
-2.987481e-004,1.467694e-004
-5.501114e-004,1.004187e-004
-5.917621e-004,6.379197e-005
-4.267797e-004,3.964424e-005
-1.378173e-004,2.181705e-005
1.634622e-004,5.124321e-006
3.921364e-004,-1.027188e-005
5.191956e-004,-2.258885e-005
5.519328e-004,-3.134038e-005
5.319988e-004,-3.766092e-005
5.076890e-004,-3.944364e-005
5.084993e-004,-3.312309e-005
5.298919e-004,-1.772689e-005
5.358884e-004,2.855407e-006
4.874308e-004,2.084466e-005
3.653956e-004,3.056858e-005
1.895547e-004,3.251336e-005
1.387585e-005,3.753739e-005
-9.908367e-005,6.379197e-005
-1.183694e-004,1.307250e-004
-5.386745e-005,2.383363e-004
6.168512e-005,3.631267e-004
1.893926e-004,4.678209e-004
2.960316e-004,5.174129e-004
3.548613e-004,4.895377e-004
3.422202e-004,3.901916e-004
2.457913e-004,2.451431e-004
7.643307e-005,8.518459e-005
-1.410586e-004,-6.067420e-005
-3.794566e-004,-1.712027e-004
-6.120203e-004,-2.423494e-004
-8.131433e-004,-2.812451e-004
-9.583539e-004,-2.995585e-004
-1.034362e-003,-3.110651e-004
-1.048462e-003,-3.274337e-004
-1.020749e-003,-3.499608e-004
-9.799085e-004,-3.716775e-004
-9.468472e-004,-3.861013e-004
-9.158928e-004,-3.925839e-004
-8.575493e-004,-3.956632e-004
-7.468587e-004,-3.985804e-004
-6.018102e-004,-4.034423e-004
-4.744269e-004,-4.091146e-004
-4.194868e-004,-4.084663e-004
-4.668098e-004,-3.966356e-004
-5.954896e-004,-3.752429e-004
-7.450759e-004,-3.497987e-004
-8.543079e-004,-3.245165e-004
-8.852624e-004,-2.946965e-004
-8.299981e-004,-2.499665e-004
-7.110422e-004,-1.840059e-004
-5.635628e-004,-9.762509e-005
-4.178661e-004,-3.465141e-006
-3.006929e-004,7.935024e-005
-2.361909e-004,1.383420e-004
-2.348944e-004,1.704310e-004
-2.788141e-004,1.853410e-004
-3.381300e-004,1.895547e-004
-3.963114e-004,1.864754e-004
-4.536825e-004,1.799928e-004
-5.198052e-004,1.746447e-004
-5.961379e-004,1.717275e-004
-6.732810e-004,1.709172e-004
-7.387554e-004,1.694586e-004
-7.680892e-004,1.678379e-004
-7.325969e-004,1.769136e-004
-6.227166e-004,2.114335e-004
-4.682684e-004,2.736666e-004
-3.186821e-004,3.498373e-004
-2.094502e-004,4.217943e-004
-1.412206e-004,4.728449e-004
-8.611845e-005,4.982892e-004
-8.651231e-006,5.015305e-004
1.043083e-004,4.882411e-004
2.423880e-004,4.611762e-004
3.837090e-004,4.229288e-004
5.059062e-004,3.788470e-004
5.914768e-004,3.339549e-004
6.376655e-004,3.007315e-004
6.488480e-004,2.906835e-004
6.345862e-004,3.065659e-004
6.096281e-004,3.409237e-004
5.898562e-004,3.767402e-004
5.875872e-004,3.989431e-004
6.065489e-004,3.976466e-004
6.433378e-004,3.683128e-004
6.830437e-004,3.042970e-004
7.044364e-004,2.023578e-004
6.869333e-004,7.627100e-005
6.229175e-004,-4.576419e-005
5.253541e-004,-1.264727e-004
4.235771e-004,-1.392759e-004
3.493511e-004,-8.158062e-005
3.151553e-004,1.857574e-005
3.158036e-004,1.195424e-004
3.368721e-004,1.863134e-004
3.632887e-004,2.017096e-004
3.817642e-004,1.634622e-004
3.846814e-004,8.664318e-005
3.731747e-004,-2.978945e-006
3.524304e-004,-8.336335e-005
3.357376e-004,-1.400862e-004
3.381686e-004,-1.718510e-004
3.676645e-004,-1.833576e-004
4.204978e-004,-1.861127e-004
4.781931e-004,-1.870851e-004
5.203301e-004,-1.878955e-004
5.339436e-004,-1.874093e-004
5.208163e-004,-1.835197e-004
4.973168e-004,-1.786577e-004
4.895377e-004,-1.754164e-004
5.088235e-004,-1.765509e-004
5.477191e-004,-1.822232e-004
5.947181e-004,-1.930815e-004
6.379896e-004,-2.060468e-004
6.645683e-004,-2.220912e-004
6.563030e-004,-2.404046e-004
5.945560e-004,-2.567732e-004
4.710622e-004,-2.658489e-004
2.822560e-004,-2.656868e-004
4.094075e-005,-2.569353e-004
-2.263049e-004,-2.452666e-004
-4.775062e-004,-2.337599e-004
-6.690673e-004,-2.237119e-004
-7.705202e-004,-2.172293e-004
-7.664686e-004,-2.149604e-004
-6.599916e-004,-2.115570e-004
-4.737787e-004,-2.019951e-004
-2.564491e-004,-1.773612e-004
-8.222889e-005,-1.370070e-004
-2.761287e-005,-8.822530e-005
-1.402483e-004,-4.138842e-005
-4.177041e-004,-3.303076e-006
-8.043919e-004,2.667901e-005
-1.209231e-003,5.455425e-005
-1.516507e-003,8.421220e-005
-1.624280e-003,1.180839e-004
-1.497221e-003,1.517934e-004
-1.172118e-003,1.814514e-004
-7.387554e-004,2.043026e-004
-2.982619e-004,2.195368e-004
6.622294e-005,2.209954e-004
3.072141e-004,2.039785e-004
4.119083e-004,1.649207e-004
3.926226e-004,1.069013e-004
2.765838e-004,4.612685e-005
9.555677e-005,7.485573e-007
-1.193418e-004,-1.724069e-005
-3.496366e-004,-9.947754e-006
-5.710179e-004,1.582063e-005
-7.376209e-004,5.730935e-005
-8.146020e-004,1.141943e-004
-7.943438e-004,1.882582e-004
-6.917564e-004,2.799871e-004
-5.416840e-004,3.882468e-004
-3.917736e-004,5.055821e-004
-2.776796e-004,6.185417e-004
-2.063709e-004,7.136742e-004
-1.613168e-004,7.846588e-004
-1.075111e-004,8.292268e-004
-2.226472e-005,8.545090e-004
9.814982e-005,8.684467e-004
2.350950e-004,8.786568e-004
3.535648e-004,8.836808e-004
4.153117e-004,8.694191e-004
3.963501e-004,8.165857e-004
2.997591e-004,7.151327e-004
1.543865e-004,5.700842e-004
3.179537e-006,3.960259e-004
-1.177212e-004,2.192126e-004
-1.995642e-004,6.492643e-005
-2.650386e-004,-5.111234e-005
-3.463953e-004,-1.243659e-004
-4.643789e-004,-1.585616e-004
-5.969483e-004,-1.655305e-004
-6.695535e-004,-1.614788e-004
-5.873864e-004,-1.558065e-004
-2.838381e-004,-1.567789e-004
2.329882e-004,-1.707166e-004
8.720121e-004,-1.995642e-004
1.509254e-003,-2.371633e-004
2.042288e-003,-2.741142e-004
2.412771e-003,-3.060411e-004
2.614868e-003,-3.368335e-004
2.678884e-003,-3.668155e-004
2.634964e-003,-3.966356e-004
2.486025e-003,-4.245108e-004
2.208082e-003,-4.486585e-004
1.786386e-003,-4.663236e-004
1.261780e-003,-4.789647e-004
7.284221e-004,-4.888507e-004
2.807975e-004,-4.977643e-004
-5.467778e-005,-5.039228e-004
-3.160891e-004,-5.027883e-004
-5.693972e-004,-4.924161e-004
-8.432875e-004,-4.779923e-004
-1.123823e-003,-4.638926e-004
-1.366272e-003,-4.484965e-004
-1.508242e-003,-4.264556e-004
-1.489442e-003,-3.956632e-004
-1.291722e-003,-3.575778e-004
-9.555988e-004,-3.220855e-004
-5.676145e-004,-2.972895e-004
-2.386219e-004,-2.861070e-004
-6.035007e-005,-2.793003e-004
-4.057810e-005,-2.658489e-004
-1.054042e-004,-2.417012e-004
-1.541859e-004,-2.117191e-004
-1.277692e-004,-1.836818e-004
-3.344723e-005,-1.609926e-004
7.935024e-005,-1.384655e-004
1.587623e-004,-1.159385e-004
1.756171e-004,-9.179074e-005
1.274836e-004,-6.699475e-005
3.040651e-005,-4.074016e-005
-9.227693e-005,-1.464765e-005
-2.203085e-004,1.128280e-005
-3.347266e-004,4.175109e-005
-4.269418e-004,7.805372e-005
-4.901472e-004,1.171115e-004
-5.212637e-004,1.576278e-004
-5.196431e-004,1.960373e-004
-4.860956e-004,2.281262e-004
-4.209454e-004,2.477361e-004
-3.225718e-004,2.558394e-004
-1.935677e-004,2.629703e-004
-4.495386e-005,2.762596e-004
1.140322e-004,3.002453e-004
2.785285e-004,3.328204e-004
4.451317e-004,3.676645e-004
6.086557e-004,3.952156e-004
7.556491e-004,4.133669e-004
8.700673e-004,4.277907e-004
9.441312e-004,4.417284e-004
9.791374e-004,4.608521e-004
9.801098e-004,4.853240e-004
9.630929e-004,5.135234e-004
9.525587e-004,5.384815e-004
9.695755e-004,5.493398e-004
1.014630e-003,5.409124e-004
1.072811e-003,5.131993e-004
1.124024e-003,4.879170e-004
1.149792e-003,4.909963e-004
1.137800e-003,5.282713e-004
1.088208e-003,5.846701e-004
9.976128e-004,6.302104e-004
8.603434e-004,6.413930e-004
6.747784e-004,6.109247e-004
4.475628e-004,5.460985e-004
1.989545e-004,4.564763e-004
-5.159854e-005,3.509718e-004
-2.968033e-004,2.363916e-004
-5.361738e-004,1.167873e-004
-7.622549e-004,1.072688e-006
-9.656468e-004,-1.050801e-004
-1.141488e-003,-1.968091e-004
-1.273571e-003,-2.673075e-004
-1.339369e-003,-3.100927e-004
-1.337911e-003,-3.241924e-004
-1.288481e-003,-3.160891e-004
-1.203883e-003,-2.974516e-004
-1.076013e-003,-2.788141e-004
-9.024413e-004,-2.653627e-004
-7.050458e-004,-2.570974e-004
-5.139708e-004,-2.536940e-004
-3.502849e-004,-2.528836e-004
-2.253326e-004,-2.519113e-004
-1.425172e-004,-2.522354e-004
-1.005423e-004,-2.564491e-004
-9.049421e-005,-2.658489e-004
-1.021629e-004,-2.775176e-004
-1.266348e-004,-2.867553e-004
-1.648822e-004,-2.898345e-004
-2.211189e-004,-2.859450e-004
-2.857829e-004,-2.765452e-004
-3.378059e-004,-2.650386e-004
-3.580640e-004,-2.551526e-004
-3.345645e-004,-2.442942e-004
-2.716832e-004,-2.319772e-004
-1.872472e-004,-2.198223e-004
-1.021629e-004,-2.109087e-004
-3.069211e-005,-2.071812e-004
1.776542e-005,-2.032917e-004
4.175109e-005,-1.925954e-004
5.277153e-005,-1.724993e-004
6.460230e-005,-1.433275e-004
8.583286e-005,-1.107524e-004
1.148425e-004,-8.287715e-005
1.432040e-004,-6.683268e-005
1.660552e-004,-6.440170e-005
1.820997e-004,-7.607040e-005
1.911753e-004,-9.875954e-005
1.970097e-004,-1.274451e-004
2.132162e-004,-1.583996e-004
2.530843e-004,-1.903264e-004
3.172622e-004,-2.229016e-004
3.900295e-004,-2.483458e-004
4.490213e-004,-2.583939e-004
4.744656e-004,-2.473734e-004
4.610142e-004,-2.159328e-004
4.224426e-004,-1.731475e-004
3.806297e-004,-1.259865e-004
3.499994e-004,-7.736692e-005
3.425444e-004,-2.518189e-005
3.568061e-004,3.478228e-005
3.819262e-004,1.022015e-004
4.054258e-004,1.722137e-004
4.208219e-004,2.414156e-004
4.273046e-004,3.107795e-004
4.250357e-004,3.837090e-004
4.298976e-004,4.626348e-004
4.671726e-004,5.491778e-004
5.553362e-004,6.485239e-004
6.926056e-004,7.660213e-004
8.383025e-004,8.972943e-004
9.238730e-004,1.024516e-003
8.945392e-004,1.120621e-003
7.439804e-004,1.157085e-003
5.196818e-004,1.122403e-003
3.026763e-004,1.025164e-003
1.563313e-004,8.921082e-004
9.814982e-005,7.559733e-004
9.588091e-005,6.400964e-004
1.030118e-004,5.469088e-004
7.902610e-005,4.718725e-004
1.234753e-006,4.052637e-004
-1.336036e-004,3.435168e-004
-3.125237e-004,2.869559e-004
-5.164018e-004,2.336365e-004
-7.317866e-004,1.765894e-004
-9.492782e-004,1.159770e-004
-1.160935e-003,5.066468e-005
-1.365624e-003,-1.902341e-005
-1.563344e-003,-8.903562e-005
-1.743398e-003,-1.572651e-004
-1.886178e-003,-2.211189e-004
-1.975476e-003,-2.786520e-004
-2.005458e-003,-3.232200e-004
-1.962511e-003,-3.478539e-004
-1.821676e-003,-3.515814e-004
-1.579388e-003,-3.421817e-004
-1.270330e-003,-3.350507e-004
-9.520333e-004,-3.403989e-004
-6.868945e-004,-3.595226e-004
-5.151053e-004,-3.904771e-004
-4.292107e-004,-4.253211e-004
-3.930701e-004,-4.575721e-004
-3.596847e-004,-4.788027e-004
-2.771934e-004,-4.846370e-004
-1.125351e-004,-4.753993e-004
1.302388e-004,-4.483344e-004
4.151496e-004,-4.024699e-004
6.823955e-004,-3.444506e-004
8.700673e-004,-2.836761e-004
9.334349e-004,-2.311669e-004
8.553194e-004,-1.955125e-004
6.574374e-004,-1.755785e-004
4.016982e-004,-1.652063e-004
1.748067e-004,-1.600202e-004
5.374392e-005,-1.619650e-004
6.865393e-005,-1.726613e-004
1.961994e-004,-1.976194e-004
3.816021e-004,-2.339220e-004
5.566327e-004,-2.705488e-004
6.770474e-004,-2.985861e-004
7.386322e-004,-3.086341e-004
7.647247e-004,-2.987481e-004
7.911414e-004,-2.708729e-004
8.363577e-004,-2.274394e-004
8.979426e-004,-1.754164e-004
9.681169e-004,-1.248521e-004
1.047853e-003,-8.806324e-005
1.136827e-003,-7.137051e-005
1.231798e-003,-6.456377e-005
1.325958e-003,-5.354332e-005
1.410880e-003,-2.420950e-005
1.479434e-003,2.554455e-005
1.516061e-003,8.842590e-005
1.492399e-003,1.530900e-004
1.374578e-003,2.153231e-004
1.139258e-003,2.731804e-004
8.050791e-004,3.281205e-004
4.264942e-004,3.817642e-004
5.974033e-005,4.333010e-004
-2.522354e-004,4.760863e-004
-4.809095e-004,5.005581e-004
-6.225546e-004,4.916445e-004
-6.984011e-004,4.462662e-004
-7.458862e-004,3.767402e-004
-8.016367e-004,3.020280e-004
-8.860728e-004,2.444948e-004
-9.870394e-004,2.179161e-004
-1.069207e-003,2.237505e-004
-1.103240e-003,2.532463e-004
-1.078930e-003,2.923041e-004
-9.985460e-004,3.373583e-004
-8.661387e-004,3.901916e-004
-6.849497e-004,4.457800e-004
-4.608134e-004,4.966686e-004
-2.037779e-004,5.337815e-004
7.627100e-005,5.443158e-004
3.644232e-004,5.206542e-004
6.418792e-004,4.619866e-004
8.906497e-004,3.790091e-004
1.097769e-003,2.906835e-004
1.253676e-003,2.146748e-004
1.355940e-003,1.564933e-004
1.404235e-003,1.158149e-004
1.401804e-003,8.988449e-005
1.364205e-003,7.675720e-005
1.307968e-003,6.816773e-005
1.233094e-003,5.941620e-005
1.128724e-003,4.953022e-005
9.671446e-004,3.494434e-005
7.135121e-004,1.241726e-005
3.367100e-004,-1.918548e-005
-1.498101e-004,-5.970181e-005
-6.885151e-004,-1.042698e-004
-1.201776e-003,-1.472171e-004
-1.599160e-003,-1.846542e-004
-1.790397e-003,-2.147983e-004
-1.737888e-003,-2.360289e-004
-1.471939e-003,-2.489941e-004
-1.068558e-003,-2.543422e-004
-6.163961e-004,-2.509389e-004
-1.982676e-004,-2.391081e-004
1.286181e-004,-2.214430e-004
3.420582e-004,-2.021572e-004
4.533971e-004,-1.838438e-004
4.950479e-004,-1.677994e-004
5.070407e-004,-1.525652e-004
5.170888e-004,-1.373311e-004
5.318367e-004,-1.261486e-004
5.444778e-004,-1.255003e-004
5.449640e-004,-1.379794e-004
5.242196e-004,-1.629374e-004
4.747897e-004,-1.943781e-004
3.937570e-004,-2.258187e-004
2.880904e-004,-2.499665e-004
1.707551e-004,-2.627696e-004
5.374392e-005,-2.650386e-004
-5.435365e-005,-2.593663e-004
-1.541859e-004,-2.441321e-004
-2.421874e-004,-2.154466e-004
-3.113892e-004,-1.708786e-004
-3.664914e-004,-1.120489e-004
-4.282383e-004,-4.851930e-005
-5.217500e-004,5.934648e-006
-6.536711e-004,4.612685e-005
-8.141157e-004,7.076078e-005
-9.677536e-004,7.351589e-005
-1.056079e-003,5.196120e-005
-1.028852e-003,5.610517e-006
-8.786177e-004,-5.532604e-005
-6.429748e-004,-1.146419e-004
-3.810773e-004,-1.608306e-004
-1.488377e-004,-1.869231e-004
1.598270e-005,-1.932436e-004
9.798775e-005,-1.872472e-004
1.018773e-004,-1.733096e-004
5.779555e-005,-1.511067e-004
7.555301e-006,-1.178833e-004
-1.562004e-005,-7.380149e-005
-2.654814e-006,-2.599222e-005
3.413401e-005,2.295151e-005
8.113296e-005,7.465034e-005
1.346145e-004,1.281319e-004
2.047888e-004,1.748067e-004
3.036487e-004,2.102990e-004
4.311941e-004,2.391467e-004
5.624671e-004,2.652392e-004
6.569512e-004,2.968419e-004
6.686199e-004,3.341170e-004
5.679773e-004,3.786850e-004
3.634508e-004,4.235771e-004
9.199134e-005,4.629590e-004
-1.831956e-004,4.943996e-004
-4.011734e-004,5.204921e-004
-5.131605e-004,5.423710e-004
-5.016539e-004,5.593878e-004
-3.870737e-004,5.695980e-004
-2.122053e-004,5.755944e-004
-3.150244e-005,5.793219e-004
1.221355e-004,5.777013e-004
2.357433e-004,5.660325e-004
3.007315e-004,5.425331e-004
3.085106e-004,5.086614e-004
2.537325e-004,4.615004e-004
1.375317e-004,4.018603e-004
-1.886135e-005,3.362238e-004
-1.781716e-004,2.723701e-004
-3.055549e-004,2.200230e-004
-3.760533e-004,1.851789e-004
-3.817256e-004,1.670276e-004
-3.319715e-004,1.615174e-004
-2.480217e-004,1.618415e-004
-1.454344e-004,1.654069e-004
-3.166451e-005,1.654069e-004
9.134307e-005,1.553589e-004
2.237505e-004,1.325077e-004
3.649094e-004,1.002567e-004
5.119027e-004,5.763349e-005
6.574374e-004,-7.100305e-007
7.917897e-004,-7.363943e-005
8.958358e-004,-1.553203e-004
9.533690e-004,-2.335979e-004
9.613102e-004,-2.964792e-004
9.263040e-004,-3.353749e-004
8.609917e-004,-3.557951e-004
7.697488e-004,-3.655190e-004
6.506307e-004,-3.702189e-004
5.029891e-004,-3.653570e-004
3.268240e-004,-3.488263e-004
1.260251e-004,-3.240303e-004
-7.558420e-005,-3.013411e-004
-2.421874e-004,-2.914552e-004
-3.583881e-004,-2.982619e-004
-4.412035e-004,-3.211132e-004
-5.207775e-004,-3.535262e-004
-6.188271e-004,-3.823738e-004
-7.313004e-004,-3.998769e-004
-8.215707e-004,-4.013355e-004
-8.486357e-004,-3.839945e-004
-7.842957e-004,-3.530400e-004
-6.329267e-004,-3.177098e-004
-4.253211e-004,-2.849726e-004
-2.021572e-004,-2.527216e-004
-2.210265e-005,-2.139880e-004
3.932010e-005,-1.661787e-004
-7.477388e-005,-1.128592e-004
-3.591985e-004,-6.375344e-005
-7.353520e-004,-2.664048e-005
-1.074231e-003,-3.141010e-006
-1.257689e-003,1.095867e-005
-1.227544e-003,2.133085e-005
-9.996805e-004,3.397195e-005
-6.515643e-004,5.034055e-005
-2.757348e-004,6.557468e-005
5.131294e-005,7.157111e-005
2.948972e-004,6.622294e-005
4.580970e-004,5.212327e-005
5.645740e-004,2.927205e-005
6.365310e-004,-4.275467e-006
6.883920e-004,-5.921561e-005
7.255049e-004,-1.365208e-004
7.491665e-004,-2.233878e-004
7.551629e-004,-3.027998e-004
7.400909e-004,-3.579019e-004
7.036261e-004,-3.755671e-004
6.488480e-004,-3.543365e-004
5.888838e-004,-2.987481e-004
5.366987e-004,-2.136638e-004
4.982892e-004,-1.034594e-004
4.780310e-004,3.056858e-005
4.752759e-004,1.866375e-004
4.817585e-004,3.527545e-004
4.840274e-004,5.162785e-004
4.636072e-004,6.657028e-004
4.106118e-004,7.938966e-004
3.303894e-004,8.929186e-004
2.378501e-004,9.619584e-004
1.521176e-004,1.006527e-003
8.550872e-005,1.032457e-003
3.397195e-005,1.033429e-003
-1.740276e-005,9.935612e-004
-8.757704e-005,9.060458e-004
-1.929195e-004,7.763935e-004
-3.361852e-004,6.212969e-004
-4.940368e-004,4.645796e-004
-6.185030e-004,3.302274e-004
-6.562641e-004,2.321778e-004
-5.854416e-004,1.726999e-004
-4.235384e-004,1.422316e-004
-2.118811e-004,1.278078e-004
5.934648e-006,1.213252e-004
1.981441e-004,1.151667e-004
3.474063e-004,9.636710e-005
4.548557e-004,6.055066e-005
5.308643e-004,1.095867e-005
5.874252e-004,-4.365734e-005
6.289139e-004,-9.486997e-005
6.574374e-004,-1.378173e-004
6.776956e-004,-1.767130e-004
7.000606e-004,-2.152845e-004
7.240463e-004,-2.522354e-004
7.381460e-004,-2.844864e-004
7.204809e-004,-3.097686e-004
6.441481e-004,-3.287302e-004
4.947237e-004,-3.436402e-004
2.772320e-004,-3.569296e-004
2.693341e-006,-3.677880e-004
-3.071755e-004,-3.715154e-004
-6.186650e-004,-3.731361e-004
-8.983897e-004,-3.801049e-004
-1.127226e-003,-3.984183e-004
-1.304039e-003,-4.261314e-004
-1.435474e-003,-4.634065e-004
-1.517155e-003,-5.073262e-004
-1.537737e-003,-5.467080e-004
-1.482149e-003,-5.690731e-004
-1.334021e-003,-5.643732e-004
-1.087358e-003,-5.361738e-004
-7.716547e-004,-4.964678e-004
-4.408794e-004,-4.538446e-004
-1.558065e-004,-4.091146e-004
3.137890e-005,-3.590364e-004
8.550872e-005,-3.032860e-004
5.934648e-006,-2.405667e-004
-1.626133e-004,-1.710407e-004
-3.523917e-004,-1.024871e-004
-5.008436e-004,-4.544006e-005
-5.619422e-004,-8.002969e-006
-5.287188e-004,1.338965e-005
-4.311555e-004,3.186510e-005
-3.083100e-004,5.698522e-005
-1.806025e-004,9.312580e-005
-4.576419e-005,1.346145e-004
1.083599e-004,1.761032e-004
2.871180e-004,2.143507e-004
4.824068e-004,2.495189e-004
6.694303e-004,2.803113e-004
8.164236e-004,3.036487e-004
9.081527e-004,3.175863e-004
9.546655e-004,3.227724e-004
9.737893e-004,3.247172e-004
9.796236e-004,3.269861e-004
9.733030e-004,3.287688e-004
9.483449e-004,3.277964e-004
8.898393e-004,3.253654e-004
7.916276e-004,3.284447e-004
6.681338e-004,3.475684e-004
5.548500e-004,3.806297e-004
4.890515e-004,4.157979e-004
4.888894e-004,4.420525e-004
5.433434e-004,4.595556e-004
6.203245e-004,4.713863e-004
6.895264e-004,4.777069e-004
7.329599e-004,4.798138e-004
7.462493e-004,4.751139e-004
7.311772e-004,4.639314e-004
6.932539e-004,4.422146e-004
6.456067e-004,4.038051e-004
5.958526e-004,3.401134e-004
5.451261e-004,2.456293e-004
4.950479e-004,1.172735e-004
4.433490e-004,-3.992984e-005
3.935950e-004,-2.092881e-004
3.488649e-004,-3.674638e-004
3.119140e-004,-4.903093e-004
2.858215e-004,-5.587008e-004
2.770700e-004,-5.632387e-004
2.840388e-004,-5.089468e-004
2.832284e-004,-4.183523e-004
2.491947e-004,-3.096065e-004
1.610312e-004,-1.864369e-004
7.069105e-006,-3.652646e-005
-2.011848e-004,1.432040e-004
-4.230522e-004,3.435168e-004
-5.987309e-004,5.441537e-004
-6.700397e-004,7.208050e-004
-6.074825e-004,8.522401e-004
-4.337485e-004,9.316522e-004
-2.031296e-004,9.664963e-004
2.035846e-005,9.707100e-004
1.889064e-004,9.545035e-004
2.791768e-004,9.269523e-004
2.911697e-004,8.927565e-004
2.341226e-004,8.457575e-004
1.210010e-004,7.631041e-004
-3.150244e-005,6.247002e-004
-2.039399e-004,4.247115e-004
-3.805911e-004,1.817755e-004
-5.572423e-004,-6.213279e-005
-7.264384e-004,-2.608248e-004
-8.765109e-004,-3.869116e-004
-9.977358e-004,-4.384484e-004
-1.076013e-003,-4.390967e-004
-1.091572e-003,-4.222419e-004
-1.043438e-003,-4.209454e-004
-9.628917e-004,-4.460655e-004
-8.729455e-004,-4.896610e-004
-7.667927e-004,-5.329325e-004
-6.381128e-004,-5.569181e-004
-5.042469e-004,-5.549733e-004
-4.039285e-004,-5.282326e-004
-3.671397e-004,-4.864197e-004
-4.058733e-004,-4.387725e-004
-4.997091e-004,-3.920977e-004
-6.014861e-004,-3.501228e-004
-6.692294e-004,-3.193304e-004
-6.904599e-004,-2.956689e-004
-6.763602e-004,-2.794623e-004
-6.445955e-004,-2.762210e-004
-6.066722e-004,-2.909690e-004
-5.689110e-004,-3.198166e-004
-5.214258e-004,-3.556330e-004
-4.473620e-004,-3.974459e-004
-3.382920e-004,-4.447690e-004
-1.994021e-004,-4.938748e-004
-4.025397e-005,-5.300153e-004
1.244044e-004,-5.376324e-004
2.812837e-004,-5.029504e-004
4.226047e-004,-4.279142e-004
5.524190e-004,-3.264613e-004
6.830437e-004,-2.147983e-004
8.227442e-004,-1.044318e-004
9.588792e-004,-4.113403e-006
1.062439e-003,7.983644e-005
1.112679e-003,1.527658e-004
1.106035e-003,2.221298e-004
1.051905e-003,2.916559e-004
9.668204e-004,3.631267e-004
8.778464e-004,4.350837e-004
8.071859e-004,5.046097e-004
7.585663e-004,5.704083e-004
7.316634e-004,6.290760e-004
7.212912e-004,6.785059e-004
7.237222e-004,7.154569e-004
7.339324e-004,7.339324e-004
7.456010e-004,7.219395e-004
7.483562e-004,6.704027e-004
7.289083e-004,5.819149e-004
6.802886e-004,4.702519e-004
6.127074e-004,3.558337e-004
5.365367e-004,2.551911e-004
4.545315e-004,1.744826e-004
3.634508e-004,1.125736e-004
2.611876e-004,6.589881e-005
1.376938e-004,3.170304e-005
-2.907146e-005,7.393236e-006
-2.616352e-004,-9.137427e-006
-5.507597e-004,-1.967167e-005
-8.635456e-004,-2.793700e-005
-1.149591e-003,-3.166451e-005
-1.350390e-003,-3.166451e-005
-1.416026e-003,-3.085418e-005
-1.331104e-003,-3.182657e-005
-1.131926e-003,-3.296103e-005
-8.839659e-004,-3.036798e-005
-6.562641e-004,-2.356124e-005
-5.023021e-004,-1.902341e-005
-4.266177e-004,-2.031993e-005
-3.830221e-004,-2.728874e-005
-3.139823e-004,-4.138842e-005
-1.934057e-004,-6.213279e-005
-4.738484e-005,-8.547019e-005
8.486046e-005,-1.065387e-004
2.000889e-004,-1.233935e-004
3.331446e-004,-1.349001e-004
5.256782e-004,-1.457585e-004
7.911414e-004,-1.592099e-004
1.102307e-003,-1.799543e-004
1.397753e-003,-2.125294e-004
1.617028e-003,-2.520733e-004
1.717184e-003,-2.864312e-004
1.681530e-003,-3.063652e-004
1.513792e-003,-3.104168e-004
1.227422e-003,-2.985861e-004
8.358715e-004,-2.804347e-004
3.662059e-004,-2.663351e-004
-1.340898e-004,-2.635799e-004
-6.066722e-004,-2.710350e-004
-9.875257e-004,-2.814071e-004
-1.240023e-003,-2.836761e-004
-1.378265e-003,-2.747625e-004
-1.464970e-003,-2.567732e-004
-1.562047e-003,-2.334358e-004
-1.674196e-003,-2.068571e-004
-1.742912e-003,-1.802784e-004
-1.688134e-003,-1.583996e-004
-1.465780e-003,-1.407345e-004
-1.098054e-003,-1.206384e-004
-6.617744e-004,-9.535618e-005
-2.460769e-004,-6.683268e-005
9.085688e-005,-3.749886e-005
3.393030e-004,-8.489166e-006
5.268127e-004,2.359977e-005
6.832058e-004,5.909208e-005
8.105893e-004,9.669123e-005
8.966461e-004,1.349386e-004
9.259799e-004,1.749688e-004
8.914600e-004,2.159713e-004
8.045929e-004,2.504913e-004
6.932539e-004,2.735045e-004
5.838597e-004,2.838767e-004
4.942376e-004,2.858215e-004
4.342734e-004,2.848491e-004
4.101256e-004,2.866318e-004
4.183910e-004,2.966799e-004
4.537212e-004,3.180725e-004
5.018546e-004,3.503235e-004
5.452881e-004,3.888950e-004
5.681394e-004,4.286011e-004
5.554983e-004,4.652279e-004
4.986133e-004,4.942376e-004
4.021844e-004,5.146578e-004
2.772320e-004,5.268127e-004
1.378558e-004,5.303781e-004
-6.706447e-006,5.261644e-004
-1.431655e-004,5.140096e-004
-2.562870e-004,4.945617e-004
-3.241924e-004,4.717105e-004
-3.344025e-004,4.449697e-004
-2.946965e-004,4.149876e-004
-2.246843e-004,3.820883e-004
-1.425172e-004,3.488649e-004
-5.710876e-005,3.174242e-004
2.797553e-005,2.885766e-004
1.117633e-004,2.605393e-004
1.882582e-004,2.363916e-004
2.581083e-004,2.185644e-004
3.214759e-004,2.125679e-004
3.733368e-004,2.237505e-004
4.021844e-004,2.524360e-004
3.963501e-004,2.859836e-004
3.548613e-004,3.065659e-004
2.906835e-004,3.051073e-004
2.310434e-004,2.759355e-004
2.013854e-004,2.226160e-004
2.222919e-004,1.517934e-004
3.094830e-004,6.865393e-005
4.563143e-004,-1.999580e-005
6.203245e-004,-1.075111e-004
7.331221e-004,-1.883817e-004
7.316634e-004,-2.567732e-004
5.903424e-004,-3.123616e-004
3.436788e-004,-3.575778e-004
6.217132e-005,-3.966356e-004
-1.796301e-004,-4.308313e-004
-3.339163e-004,-4.578962e-004
-3.895047e-004,-4.760476e-004
-3.655190e-004,-4.849611e-004
-3.031239e-004,-4.872300e-004
-2.582318e-004,-4.862577e-004
-2.908069e-004,-4.794509e-004
-4.275900e-004,-4.638926e-004
-6.301716e-004,-4.403932e-004
-8.165467e-004,-4.063595e-004
-9.113550e-004,-3.645466e-004
-8.718110e-004,-3.267854e-004
-7.068285e-004,-2.987481e-004
-4.645409e-004,-2.796244e-004
-2.047502e-004,-2.642282e-004
1.176900e-005,-2.446183e-004
1.355869e-004,-2.115570e-004
1.542244e-004,-1.596961e-004
1.046324e-004,-9.632857e-005
4.807163e-005,-3.604027e-005
3.397195e-005,5.124321e-006
8.583286e-005,2.181705e-005
1.921477e-004,2.359977e-005
3.182346e-004,2.068259e-005
4.166082e-004,2.343770e-005
4.521006e-004,3.316162e-005
4.099636e-004,4.936815e-005
2.987867e-004,7.384002e-005
1.396385e-004,1.060910e-004
-4.090223e-005,1.435281e-004
-2.297083e-004,1.806411e-004
-4.319658e-004,2.122438e-004
-6.608020e-004,2.360674e-004
-9.108688e-004,2.532463e-004
-1.156074e-003,2.637806e-004
-1.358817e-003,2.723701e-004
-1.483770e-003,2.832284e-004
-1.500948e-003,2.913317e-004
-1.407437e-003,2.931144e-004
-1.231272e-003,2.903593e-004
-1.000815e-003,2.854973e-004
-7.287074e-004,2.814457e-004
-4.280762e-004,2.783665e-004
-1.183694e-004,2.733424e-004
1.712413e-004,2.657254e-004
4.213082e-004,2.618358e-004
6.183797e-004,2.705873e-004
7.459252e-004,2.936006e-004
7.883863e-004,3.289309e-004
7.383081e-004,3.671783e-004
6.102764e-004,3.957018e-004
4.307079e-004,4.101256e-004
2.401191e-004,4.085050e-004
9.928428e-005,3.945674e-004
6.314371e-005,3.744712e-004
1.539003e-004,3.472443e-004
3.490270e-004,3.060797e-004
5.882355e-004,2.498430e-004
8.034584e-004,1.837203e-004
9.446174e-004,1.163011e-004
9.864303e-004,5.341979e-005
9.418624e-004,-2.006553e-006
8.603434e-004,-5.078821e-005
7.937344e-004,-9.762509e-005
7.712074e-004,-1.459206e-004
7.898449e-004,-1.867610e-004
8.131823e-004,-2.018331e-004
8.026481e-004,-1.786577e-004
7.318255e-004,-1.263107e-004
5.973112e-004,-6.991193e-005
4.133669e-004,-3.279896e-005
2.060853e-004,-2.583016e-005
1.002961e-007,-5.078821e-005
-1.836818e-004,-9.892161e-005
-3.275957e-004,-1.533756e-004
-4.442827e-004,-2.019951e-004
-5.689110e-004,-2.444563e-004
-7.428070e-004,-2.862691e-004
-9.876877e-004,-3.353749e-004
-1.289777e-003,-3.972838e-004
-1.583440e-003,-4.728062e-004
-1.788453e-003,-5.587008e-004
-1.847606e-003,-6.465403e-004
-1.747936e-003,-7.201179e-004
-1.510835e-003,-7.604721e-004
-1.177304e-003,-7.567446e-004
-7.938576e-004,-7.141214e-004
-3.953390e-004,-6.488092e-004
-6.058186e-006,-5.747453e-004
3.534027e-004,-4.971161e-004
6.673234e-004,-4.134903e-004
9.263040e-004,-3.144685e-004
1.133424e-003,-1.964849e-004
1.302458e-003,-6.423963e-005
1.449452e-003,7.092284e-005
1.580401e-003,1.953890e-004
1.690930e-003,3.025142e-004
1.764345e-003,3.961880e-004
1.774232e-003,4.848378e-004
1.694495e-003,5.770530e-004
1.511037e-003,6.768853e-004
1.222074e-003,7.736384e-004
8.488368e-004,8.430023e-004
4.414042e-004,8.619640e-004
6.217132e-005,8.169098e-004
-2.288980e-004,7.039502e-004
-3.956632e-004,5.405883e-004
-4.420138e-004,3.671783e-004
-4.019837e-004,2.266676e-004
-3.138202e-004,1.526038e-004
-2.092881e-004,1.550348e-004
-1.044318e-004,2.154851e-004
-5.085794e-006,2.984626e-004
7.416415e-005,3.683128e-004
9.944634e-005,3.992672e-004
2.278944e-005,3.863020e-004
-1.948643e-004,3.388169e-004
-5.280706e-004,2.717218e-004
-8.716490e-004,1.955511e-004
-1.096109e-003,1.164632e-004
-1.118961e-003,3.932010e-005
-9.502506e-004,-2.615429e-005
-6.760361e-004,-6.764301e-005
-4.000390e-004,-8.012204e-005
-1.948643e-004,-6.942573e-005
-7.882551e-005,-5.111234e-005
-2.566809e-005,-4.576419e-005
4.962256e-006,-6.586029e-005
4.239934e-005,-1.068628e-004
9.474644e-005,-1.582375e-004
1.446626e-004,-2.021572e-004
1.688103e-004,-2.217671e-004
1.545486e-004,-2.058847e-004
9.993253e-005,-1.546721e-004
1.517237e-005,-7.963584e-005
-8.709085e-005,4.638125e-006
-1.974573e-004,8.923623e-005
-3.053928e-004,1.723757e-004
-3.938804e-004,2.524360e-004
-4.444448e-004,3.208276e-004
-4.374760e-004,3.658818e-004
-3.616295e-004,3.778746e-004
-2.238740e-004,3.540510e-004
-4.090223e-005,2.961937e-004
1.587623e-004,2.124059e-004
3.407616e-004,1.164632e-004
4.778690e-004,2.538249e-005
5.592257e-004,-4.689865e-005
5.895320e-004,-9.762509e-005
5.861287e-004,-1.308485e-004
5.681394e-004,-1.509446e-004
5.475571e-004,-1.666649e-004
5.324850e-004,-1.791439e-004
5.344298e-004,-1.870851e-004
5.551741e-004,-1.880575e-004
5.911527e-004,-1.865989e-004
6.334517e-004,-1.856265e-004
6.642442e-004,-1.865989e-004
6.669993e-004,-1.909747e-004
6.353966e-004,-1.977815e-004
5.681394e-004,-2.053985e-004
4.658761e-004,-2.156086e-004
3.252034e-004,-2.308428e-004
1.573037e-004,-2.476975e-004
-1.448558e-005,-2.598524e-004
-1.645581e-004,-2.653627e-004
-2.632558e-004,-2.609869e-004
-2.929138e-004,-2.472114e-004
-2.548284e-004,-2.274394e-004
-1.640719e-004,-2.034537e-004
-5.402952e-005,-1.797922e-004
3.818565e-005,-1.598582e-004
8.615699e-005,-1.478653e-004
7.951231e-005,-1.438137e-004
2.376183e-005,-1.472171e-004
-7.023606e-005,-1.571031e-004
-1.797922e-004,-1.750923e-004
-2.760590e-004,-2.039399e-004
-3.501228e-004,-2.434839e-004
-4.181903e-004,-2.883759e-004
-4.979264e-004,-3.277578e-004
-6.159099e-004,-3.549848e-004
-7.770028e-004,-3.638984e-004
-9.286959e-004,-3.535262e-004
-9.769914e-004,-3.266234e-004
-8.518770e-004,-2.875656e-004
-5.585388e-004,-2.415391e-004
-1.752544e-004,-1.870851e-004
1.970097e-004,-1.217728e-004
4.814344e-004,-3.960571e-005
6.431757e-004,6.379197e-005
6.917953e-004,1.869616e-004
6.725095e-004,3.180725e-004
6.387999e-004,4.446456e-004
6.297242e-004,5.540397e-004
6.498204e-004,6.407447e-004
6.710509e-004,7.058950e-004
6.610029e-004,7.580801e-004
6.057385e-004,8.066997e-004
5.180612e-004,8.507816e-004
4.185530e-004,8.755776e-004
3.219621e-004,8.616399e-004
2.329882e-004,7.997309e-004
1.516314e-004,6.958470e-004
7.400208e-005,5.736496e-004
-5.571990e-006,4.616624e-004
-9.357346e-005,3.770643e-004
-1.888679e-004,3.205035e-004
-2.812451e-004,2.790148e-004
-3.698948e-004,2.444948e-004
-4.600031e-004,2.179161e-004
-5.499493e-004,2.078681e-004
-6.303337e-004,2.190506e-004
-6.941874e-004,2.431983e-004
-7.351899e-004,2.652392e-004
-7.523688e-004,2.736666e-004
-7.547998e-004,2.705873e-004
-7.473448e-004,2.654013e-004
-7.212523e-004,2.692908e-004
-6.515643e-004,2.882525e-004
-5.225603e-004,3.226103e-004
-3.517435e-004,3.632887e-004
-1.799543e-004,3.927847e-004
-4.608832e-005,3.905157e-004
3.299956e-005,3.420582e-004
5.763349e-005,2.485465e-004
4.418206e-005,1.258630e-004
1.922400e-005,1.396819e-006
1.322759e-005,-1.031353e-004
4.888196e-005,-1.776853e-004
1.269974e-004,-2.245222e-004
2.289366e-004,-2.502906e-004
3.224483e-004,-2.681178e-004
3.723644e-004,-2.867553e-004
3.670162e-004,-3.099306e-004
3.226103e-004,-3.371576e-004
2.701012e-004,-3.609812e-004
2.367157e-004,-3.728119e-004
2.329882e-004,-3.648708e-004
2.577842e-004,-3.400748e-004
2.939248e-004,-3.079858e-004
3.245551e-004,-2.778417e-004
3.454615e-004,-2.528836e-004
3.584268e-004,-2.345703e-004
3.637749e-004,-2.264670e-004
3.606957e-004,-2.279256e-004
3.530786e-004,-2.363530e-004
3.496752e-004,-2.447804e-004
3.637749e-004,-2.493182e-004
4.073705e-004,-2.478596e-004
4.845136e-004,-2.429977e-004
5.866149e-004,-2.334358e-004
6.986021e-004,-2.141500e-004
7.951931e-004,-1.830335e-004
8.540229e-004,-1.417068e-004
8.627744e-004,-9.681477e-005
8.123720e-004,-5.435365e-005
6.963331e-004,-2.242678e-005
5.138475e-004,-6.868513e-006
2.723701e-004,-6.706447e-006
-1.432352e-005,-1.756482e-005
-3.342404e-004,-3.555408e-005
-6.742534e-004,-5.824322e-005
-1.007946e-003,-8.239095e-005
-1.292695e-003,-1.034594e-004
-1.490901e-003,-1.227452e-004
-1.590733e-003,-1.378173e-004
-1.602077e-003,-1.426792e-004
-1.548110e-003,-1.311726e-004
-1.459946e-003,-1.029732e-004
-1.358493e-003,-6.521203e-005
-1.233217e-003,-2.712668e-005
-1.053486e-003,7.555301e-006
-8.060125e-004,4.142696e-005
-5.155915e-004,7.562274e-005
-2.284118e-004,1.154908e-004
1.873781e-005,1.595726e-004
2.077060e-004,2.043026e-004
3.449753e-004,2.389846e-004
4.488593e-004,2.535705e-004
5.422090e-004,2.483844e-004
6.431757e-004,2.342847e-004
7.554871e-004,2.193747e-004
8.715259e-004,2.111094e-004
9.733030e-004,2.149989e-004
1.050770e-003,2.388225e-004
1.091611e-003,2.858215e-004
1.081887e-003,3.483787e-004
1.015764e-003,4.102877e-004
8.924323e-004,4.569625e-004
7.246946e-004,4.812723e-004
5.308643e-004,4.807861e-004
3.380065e-004,4.652279e-004
1.780480e-004,4.457800e-004
7.837785e-005,4.271425e-004
4.483033e-005,4.080188e-004
5.309566e-005,3.851676e-004
6.444023e-005,3.546993e-004
3.834771e-005,3.162898e-004
-5.727083e-005,2.694529e-004
-2.342462e-004,2.169437e-004
-4.684305e-004,1.639484e-004
-6.932151e-004,1.198666e-004
-8.293499e-004,9.037068e-005
-8.183295e-004,7.011252e-005
-6.369784e-004,5.082674e-005
-3.141443e-004,1.792748e-005
8.113296e-005,-3.766092e-005
4.655520e-004,-1.114006e-004
7.686144e-004,-1.872472e-004
9.554758e-004,-2.459149e-004
1.025488e-003,-2.724935e-004
1.008957e-003,-2.634179e-004
9.423485e-004,-2.290601e-004
8.477023e-004,-1.888679e-004
7.243705e-004,-1.596961e-004
5.683015e-004,-1.511067e-004
3.879227e-004,-1.643960e-004
1.924718e-004,-1.924333e-004
-2.258885e-005,-2.277635e-004
-2.598524e-004,-2.613110e-004
-4.972781e-004,-2.882139e-004
-7.097457e-004,-3.062031e-004
-8.962828e-004,-3.134961e-004
-1.070665e-003,-3.105789e-004
-1.230299e-003,-3.002067e-004
-1.357359e-003,-2.856209e-004
-1.426723e-003,-2.742763e-004
-1.397227e-003,-2.711970e-004
-1.239861e-003,-2.791382e-004
-9.526816e-004,-2.969654e-004
-5.706937e-004,-3.177098e-004
-1.496481e-004,-3.309991e-004
2.509774e-004,-3.329439e-004
5.901803e-004,-3.284061e-004
8.501333e-004,-3.269475e-004
1.030998e-003,-3.356990e-004
1.139906e-003,-3.502849e-004
1.180423e-003,-3.564434e-004
1.155627e-003,-3.423437e-004
1.074756e-003,-3.016653e-004
9.522345e-004,-2.340841e-004
8.032963e-004,-1.475412e-004
6.384758e-004,-5.419158e-005
4.744656e-004,3.137890e-005
3.393030e-004,9.896015e-005
2.608634e-004,1.462832e-004
2.537325e-004,1.785342e-004
2.940868e-004,2.008992e-004
3.219621e-004,2.135403e-004
2.806354e-004,2.075439e-004
1.419075e-004,1.741585e-004
-8.644259e-005,1.101427e-004
-3.452609e-004,3.105477e-005
-5.599973e-004,-3.766092e-005
-6.737672e-004,-7.363943e-005
-6.663122e-004,-6.245691e-005
-5.536768e-004,-5.571990e-006
-3.768636e-004,8.534666e-005
-1.833576e-004,1.976579e-004
-8.975362e-006,3.245551e-004
1.321835e-004,4.650658e-004
2.406053e-004,6.211348e-004
3.227724e-004,7.851450e-004
3.840331e-004,9.412141e-004
4.224426e-004,1.076215e-003
4.367043e-004,1.181233e-003
4.316803e-004,1.253028e-003
4.206599e-004,1.294841e-003
4.089912e-004,1.313154e-003
3.979707e-004,1.319313e-003
3.791712e-004,1.314613e-003
3.446512e-004,1.286738e-003
2.986247e-004,1.224667e-003
2.611876e-004,1.117217e-003
2.538946e-004,9.668204e-004
2.829043e-004,7.856312e-004
3.329825e-004,5.895320e-004
3.796573e-004,3.992672e-004
3.976466e-004,2.372019e-004
3.752816e-004,1.130598e-004
3.222862e-004,2.392390e-005
2.592428e-004,-4.398147e-005
2.010613e-004,-1.045939e-004
1.419075e-004,-1.682856e-004
7.124698e-005,-2.323013e-004
-1.416145e-005,-2.908069e-004
-1.149661e-004,-3.425058e-004
-2.266291e-004,-3.861013e-004
-3.429920e-004,-4.215936e-004
-4.561135e-004,-4.496309e-004
-5.569181e-004,-4.744269e-004
-6.408680e-004,-5.032745e-004
-7.009942e-004,-5.395772e-004
-7.334072e-004,-5.849554e-004
-7.327590e-004,-6.350336e-004
-6.972667e-004,-6.781430e-004
-6.376266e-004,-7.061802e-004
-5.700454e-004,-7.154180e-004
-5.095950e-004,-7.065044e-004
-4.575721e-004,-6.808981e-004
-4.047388e-004,-6.418404e-004
-3.378059e-004,-5.909518e-004
-2.558008e-004,-5.352014e-004
-1.668270e-004,-4.825302e-004
-8.239095e-005,-4.408794e-004
-7.192643e-006,-4.155972e-004
5.358185e-005,-4.094387e-004
9.863601e-005,-4.199730e-004
1.271595e-004,-4.371519e-004
1.414213e-004,-4.499550e-004
1.445005e-004,-4.496309e-004
1.380179e-004,-4.355313e-004
1.237561e-004,-4.202971e-004
9.669123e-005,-4.151110e-004
5.990240e-005,-4.228902e-004
1.744129e-005,-4.416897e-004
-2.275091e-005,-4.622720e-004
-5.208474e-005,-4.684305e-004
-6.440170e-005,-4.462276e-004
-6.893953e-005,-3.893426e-004
-7.526008e-005,-3.016653e-004
-8.255302e-005,-1.979435e-004
-8.709085e-005,-9.551824e-005
-8.530812e-005,-6.706447e-006
-8.028410e-005,6.460230e-005
-7.509801e-005,1.201907e-004
-6.650855e-005,1.705930e-004
-5.030202e-005,2.206712e-004
-2.826114e-005,2.673460e-004
-5.247859e-006,3.067279e-004
1.873781e-005,3.367100e-004
4.466826e-005,3.576164e-004
7.157111e-005,3.747954e-004
9.539470e-005,3.973225e-004
1.180839e-004,4.326527e-004
1.404489e-004,4.764104e-004
1.647587e-004,5.153061e-004
1.859892e-004,5.329712e-004
1.984683e-004,5.180612e-004
1.929580e-004,4.731691e-004
1.709172e-004,4.104497e-004
1.406109e-004,3.465960e-004
1.062531e-004,2.937627e-004
6.670914e-005,2.579462e-004
2.262738e-005,2.414156e-004
-1.497178e-005,2.393087e-004
-2.826114e-005,2.477361e-004
-2.168618e-006,2.610255e-004
6.589881e-005,2.751252e-004
1.652449e-004,2.890628e-004
2.780424e-004,3.049452e-004
3.901916e-004,3.222862e-004
4.884033e-004,3.365480e-004
5.601982e-004,3.423823e-004
6.012007e-004,3.388169e-004
6.172452e-004,3.279585e-004
6.185417e-004,3.106175e-004
6.146522e-004,2.900352e-004
6.021731e-004,2.715597e-004
5.707325e-004,2.582704e-004
5.106062e-004,2.480603e-004
4.271425e-004,2.389846e-004
3.415720e-004,2.247229e-004
2.816078e-004,2.021958e-004
2.662116e-004,1.736723e-004
2.910076e-004,1.446626e-004
3.264999e-004,1.166253e-004
3.307136e-004,8.664318e-005
2.668598e-004,5.325772e-005
1.106288e-004,2.035846e-005
-1.465688e-004,-7.030578e-006
-4.781544e-004,-2.696461e-005
-8.338877e-004,-3.830919e-005
-1.148294e-003,-4.673658e-005
-1.360600e-003,-5.856735e-005
-1.435960e-003,-7.542214e-005
-1.370324e-003,-9.924574e-005
-1.188000e-003,-1.282554e-004
-9.487920e-004,-1.587237e-004
-7.319486e-004,-1.844921e-004
-6.013241e-004,-2.019951e-004
-5.672903e-004,-2.094502e-004
-5.836589e-004,-2.084778e-004
-5.773384e-004,-2.041020e-004
-4.872300e-004,-2.031296e-004
-2.937241e-004,-2.100984e-004
-2.761287e-005,-2.267911e-004
2.440086e-004,-2.496423e-004
4.553419e-004,-2.739521e-004
5.697600e-004,-2.924276e-004
5.814288e-004,-2.993964e-004
5.201680e-004,-2.938862e-004
4.320045e-004,-2.791382e-004
3.512959e-004,-2.627696e-004
2.861456e-004,-2.439701e-004
2.190506e-004,-2.160948e-004
1.154908e-004,-1.823853e-004
-5.143648e-005,-1.454344e-004
-2.867553e-004,-1.083214e-004
-5.668041e-004,-7.590833e-005
-8.541459e-004,-4.965376e-005
-1.119447e-003,-3.036798e-005
-1.349580e-003,-1.886135e-005
-1.541951e-003,-1.092015e-005
-1.687324e-003,3.341602e-006
-1.762036e-003,2.700314e-005
-1.718764e-003,6.055066e-005
-1.491387e-003,1.012291e-004
-1.050245e-003,1.470936e-004
-4.483344e-004,1.994406e-004
1.947408e-004,2.566497e-004
7.514353e-004,3.080245e-004
1.139258e-003,3.464339e-004
1.344919e-003,3.683128e-004
1.406991e-003,3.804677e-004
1.371336e-003,3.880847e-004
1.274259e-003,3.937570e-004
1.136665e-003,3.960259e-004
9.818925e-004,3.939191e-004
8.460816e-004,3.859779e-004
7.639144e-004,3.760919e-004
7.507871e-004,3.655576e-004
7.997309e-004,3.529166e-004
8.835187e-004,3.409237e-004
9.694134e-004,3.363859e-004
1.031323e-003,3.376824e-004
1.058550e-003,3.405996e-004
1.059360e-003,3.383307e-004
1.046070e-003,3.289309e-004
1.027595e-003,3.256896e-004
1.001665e-003,3.412479e-004
9.590413e-004,3.756057e-004
8.853014e-004,4.115842e-004
7.561353e-004,4.307079e-004
5.634395e-004,4.170944e-004
3.397893e-004,3.626405e-004
1.464453e-004,2.694529e-004
3.283749e-005,1.482280e-004
1.744129e-005,1.711715e-005
9.620504e-005,-1.015147e-004
2.399570e-004,-1.893541e-004
4.004017e-004,-2.391081e-004
5.287575e-004,-2.520733e-004
5.887217e-004,-2.371633e-004
5.767288e-004,-2.092881e-004
5.091476e-004,-1.885437e-004
4.115842e-004,-1.882196e-004
3.049452e-004,-2.136638e-004
2.049509e-004,-2.617972e-004
1.056048e-004,-3.248407e-004
-1.173047e-005,-3.891806e-004
-1.593720e-004,-4.402311e-004
-3.358611e-004,-4.692408e-004
-5.117019e-004,-4.768579e-004
-6.473506e-004,-4.651892e-004
-7.202800e-004,-4.384484e-004
-7.267626e-004,-3.980942e-004
-6.752257e-004,-3.420196e-004
-5.807417e-004,-2.689281e-004
-4.533584e-004,-1.857886e-004
-2.987481e-004,-1.073490e-004
-1.313347e-004,-4.835724e-005
1.954813e-005,-1.578211e-005
1.221355e-004,-4.923729e-006
1.594105e-004,-5.479652e-007
1.328318e-004,1.808955e-005
6.492643e-005,6.152305e-005
-9.785688e-006,1.214872e-004
-5.402952e-005,1.762653e-004
-4.219875e-005,2.020337e-004
3.073064e-005,1.866375e-004
1.576278e-004,1.295905e-004
3.140208e-004,4.337174e-005
4.610142e-004,-5.548811e-005
5.626292e-004,-1.517549e-004
5.960147e-004,-2.311669e-004
5.561466e-004,-2.877277e-004
4.597176e-004,-3.238683e-004
3.282826e-004,-3.441264e-004
1.983062e-004,-3.512573e-004
1.146805e-004,-3.446126e-004
1.072255e-004,-3.259751e-004
1.723757e-004,-3.011791e-004
2.793389e-004,-2.718453e-004
3.806297e-004,-2.407288e-004
4.302217e-004,-2.047502e-004
3.978086e-004,-1.583996e-004
2.850112e-004,-9.811128e-005
1.391524e-004,-2.323711e-005
2.473423e-005,6.379197e-005
-2.080613e-005,1.584381e-004
9.106227e-007,2.568118e-004
5.341979e-005,3.519442e-004
9.004655e-005,4.375147e-004
8.016057e-005,5.117406e-004
1.744129e-005,5.796460e-004
-8.044617e-005,6.431757e-004
-1.906506e-004,6.968193e-004
-3.120375e-004,7.287462e-004
-4.617858e-004,7.271256e-004
-6.572366e-004,6.892023e-004
-9.009827e-004,6.170832e-004
-1.162070e-003,5.264886e-004
-1.380696e-003,4.407560e-004
-1.496573e-003,3.777126e-004
-1.472749e-003,3.417340e-004
-1.310684e-003,3.268240e-004
-1.048786e-003,3.201794e-004
-7.475069e-004,3.052694e-004
-4.661616e-004,2.769079e-004
-2.447804e-004,2.433604e-004
-9.665270e-005,2.130541e-004
-1.059602e-005,1.859892e-004
3.397195e-005,1.573037e-004
5.909208e-005,1.180839e-004
8.129502e-005,7.092284e-005
1.083599e-004,1.987227e-005
1.354248e-004,-2.501983e-005
1.480659e-004,-5.694670e-005
1.373696e-004,-7.380149e-005
1.009049e-004,-8.012204e-005
4.596478e-005,-8.482193e-005
-1.659243e-005,-8.952183e-005
-7.299116e-005,-9.243900e-005
-1.062146e-004,-9.308726e-005
-1.091317e-004,-9.017008e-005
-8.806324e-005,-8.158062e-005
-5.581224e-005,-6.926366e-005
-3.117831e-005,-5.370539e-005
-2.469570e-005,-3.960571e-005
-3.425755e-005,-2.745081e-005
-4.657452e-005,-2.161646e-005
-5.419158e-005,-2.372331e-005
-5.338126e-005,-3.522994e-005
-5.338126e-005,-5.127441e-005
-5.824322e-005,-7.039812e-005
-6.877746e-005,-9.292520e-005
-8.482193e-005,-1.178833e-004
-1.028112e-004,-1.434896e-004
-1.135075e-004,-1.692580e-004
-9.940781e-005,-1.942160e-004
-5.046408e-005,-2.167431e-004
3.948217e-005,-2.339220e-004
1.694586e-004,-2.457528e-004
3.342791e-004,-2.523975e-004
5.217887e-004,-2.558008e-004
7.062191e-004,-2.585559e-004
8.546711e-004,-2.595283e-004
9.397555e-004,-2.575835e-004
9.485070e-004,-2.523975e-004
8.840049e-004,-2.476975e-004
7.605111e-004,-2.459149e-004
5.935837e-004,-2.451045e-004
4.073705e-004,-2.373254e-004
2.214815e-004,-2.214430e-004
5.115087e-005,-2.013469e-004
-9.276313e-005,-1.856265e-004
-1.997262e-004,-1.773612e-004
-2.682799e-004,-1.713648e-004
-3.050687e-004,-1.647201e-004
-3.228959e-004,-1.527273e-004
-3.329439e-004,-1.313347e-004
-3.486642e-004,-1.031353e-004
-3.809152e-004,-7.477388e-005
-4.382863e-004,-4.997789e-005
-5.258016e-004,-3.182657e-005
-6.470265e-004,-1.707863e-005
-8.040677e-004,-2.168618e-006
-9.829877e-004,2.133085e-005
-1.148456e-003,5.649903e-005
-1.257202e-003,1.057669e-004
-1.278757e-003,1.631380e-004
-1.208583e-003,2.205092e-004
-1.065641e-003,2.707494e-004
-8.760247e-004,3.088348e-004
-6.590193e-004,3.347652e-004
-4.269418e-004,3.506476e-004
-1.953505e-004,3.626405e-004
2.133085e-005,3.749574e-004
2.171058e-004,3.884089e-004
3.900295e-004,3.992672e-004
5.496639e-004,4.033189e-004
6.998986e-004,3.958639e-004
8.383025e-004,3.786850e-004
9.661721e-004,3.592371e-004
1.081563e-003,3.420582e-004
1.179775e-003,3.297412e-004
1.256594e-003,3.221241e-004
1.308455e-003,3.192070e-004
1.328875e-003,3.182346e-004
1.319475e-003,3.140208e-004
1.300513e-003,3.036487e-004
1.290465e-003,2.895490e-004
1.290789e-003,2.736666e-004
1.280255e-003,2.584324e-004
1.232932e-003,2.446569e-004
1.133424e-003,2.312055e-004
9.780029e-004,2.151610e-004
7.741245e-004,1.986303e-004
5.444778e-004,1.817755e-004
3.273102e-004,1.582761e-004
1.368834e-004,1.287802e-004
-4.138842e-005,9.831188e-005
-2.295462e-004,7.627100e-005
-4.499550e-004,7.011252e-005
-7.400519e-004,8.097089e-005
-1.115233e-003,9.782569e-005
-1.557509e-003,1.085220e-004
-2.011941e-003,1.064152e-004
-2.383719e-003,9.555677e-005
-2.552753e-003,7.902610e-005
-2.450328e-003,5.730935e-005
-2.100591e-003,3.218923e-005
-1.600781e-003,7.231170e-006
-1.065479e-003,-1.643037e-005
-5.924104e-004,-3.539201e-005
-2.408908e-004,-4.706071e-005
-1.399939e-005,-5.305713e-005
1.245665e-004,-5.678463e-005
2.221298e-004,-6.683268e-005
3.187208e-004,-9.130454e-005
4.311941e-004,-1.310105e-004
5.516087e-004,-1.812508e-004
6.592202e-004,-2.457528e-004
7.365254e-004,-3.285682e-004
7.754210e-004,-4.337485e-004
7.859553e-004,-5.540010e-004
7.815796e-004,-6.684191e-004
7.762314e-004,-7.505861e-004
7.763935e-004,-7.842957e-004
7.775280e-004,-7.708443e-004
7.723419e-004,-7.261143e-004
7.551629e-004,-6.648536e-004
7.253428e-004,-5.911139e-004
6.862851e-004,-5.003574e-004
6.516031e-004,-3.857772e-004
6.404206e-004,-2.460769e-004
6.577615e-004,-8.611845e-005
6.953608e-004,7.643307e-005
7.404150e-004,2.273159e-004
7.739625e-004,3.579406e-004
7.812555e-004,4.662003e-004
7.585663e-004,5.566327e-004
7.109190e-004,6.302104e-004
6.541961e-004,6.893643e-004
6.012007e-004,7.290703e-004
5.503122e-004,7.321496e-004
4.854860e-004,6.827196e-004
3.785229e-004,5.806184e-004
1.970097e-004,4.407560e-004
-6.391550e-005,2.918179e-004
-3.661673e-004,1.639484e-004
-6.308199e-004,7.400208e-005
-7.766787e-004,2.992031e-005
-7.698719e-004,2.748934e-005
-6.311440e-004,5.406805e-005
-4.084663e-004,9.069481e-005
-1.572651e-004,1.226217e-004
7.627100e-005,1.433661e-004
2.663737e-004,1.509831e-004
3.989431e-004,1.477418e-004
4.671726e-004,1.341283e-004
4.798138e-004,1.141943e-004
4.533971e-004,9.636710e-005
4.033189e-004,9.231547e-005
3.393030e-004,1.023635e-004
2.629703e-004,1.195424e-004
1.769136e-004,1.376938e-004
9.393612e-005,1.513072e-004
3.818565e-005,1.564933e-004
2.295151e-005,1.540623e-004
4.612685e-005,1.495245e-004
9.085688e-005,1.459591e-004
1.438522e-004,1.420695e-004
2.030061e-004,1.355869e-004
2.665357e-004,1.244044e-004
3.221241e-004,1.091703e-004
3.558337e-004,9.053275e-005
3.495132e-004,7.254349e-005
2.848491e-004,5.811968e-005
1.519555e-004,4.985435e-005
-4.106429e-005,4.596478e-005
-2.658489e-004,4.483033e-005
-4.817198e-004,4.742337e-005
-6.431369e-004,5.390598e-005
-7.180111e-004,6.411610e-005
-7.021286e-004,7.448828e-005
-6.157478e-004,8.275361e-005
-4.969540e-004,8.275361e-005
-3.736223e-004,6.930219e-005
-2.561249e-004,3.996837e-005
-1.431655e-004,-2.168618e-006
-3.166451e-005,-5.451572e-005
8.145709e-005,-1.144799e-004
1.944166e-004,-1.815749e-004
2.958695e-004,-2.546664e-004
3.681507e-004,-3.311612e-004
3.900295e-004,-4.014975e-004
3.469201e-004,-4.540067e-004
2.478982e-004,-4.760476e-004
1.394765e-004,-4.648651e-004
7.594687e-005,-4.256453e-004
8.469840e-005,-3.739464e-004
1.445005e-004,-3.243544e-004
1.991165e-004,-2.857829e-004
1.906891e-004,-2.598524e-004
7.384002e-005,-2.491561e-004
-1.692580e-004,-2.483458e-004
-5.198052e-004,-2.491561e-004
-9.129756e-004,-2.472114e-004
-1.252502e-003,-2.429977e-004
-1.454598e-003,-2.394322e-004
-1.477773e-003,-2.366771e-004
-1.328025e-003,-2.290601e-004
-1.044248e-003,-2.159328e-004
-6.881910e-004,-1.990780e-004
-3.250027e-004,-1.802784e-004
-5.409925e-006,-1.614788e-004
2.389846e-004,-1.442999e-004
3.934329e-004,-1.269589e-004
4.495075e-004,-1.097800e-004
4.025085e-004,-8.903562e-005
2.704253e-004,-6.180866e-005
9.928428e-005,-2.696461e-005
-6.051213e-005,1.630683e-005
-1.835197e-004,6.865393e-005
-2.674695e-004,1.282940e-004
-3.128478e-004,1.937684e-004
-3.220855e-004,2.603772e-004
-3.023136e-004,3.180725e-004
-2.695764e-004,3.618301e-004
-2.413770e-004,3.898674e-004
-2.261429e-004,4.083429e-004
-2.182017e-004,4.261701e-004
-2.047502e-004,4.516144e-004
-1.724993e-004,4.840274e-004
-1.216107e-004,5.136854e-004
-5.483985e-005,5.302161e-004
1.841368e-005,5.253541e-004
8.388807e-005,4.921307e-004
1.352628e-004,4.376768e-004
1.699448e-004,3.786850e-004
1.889064e-004,3.321722e-004
1.918236e-004,3.078624e-004
1.808031e-004,3.018659e-004
1.589243e-004,3.078624e-004
1.308870e-004,3.208276e-004
9.912221e-005,3.375204e-004
6.638502e-005,3.527545e-004
3.672706e-005,3.587509e-004
1.274139e-005,3.498373e-004
-3.303076e-006,3.258516e-004
-7.840905e-006,2.921420e-004
3.827799e-006,2.543808e-004
2.975825e-005,2.167816e-004
6.525056e-005,1.851789e-004
1.020394e-004,1.633001e-004
1.318594e-004,1.495245e-004
1.501728e-004,1.380179e-004
1.665414e-004,1.253768e-004
1.905271e-004,1.128978e-004
2.313675e-004,1.007429e-004
2.853353e-004,8.939829e-005
3.342791e-004,8.097089e-005
3.499994e-004,7.610894e-005
3.122381e-004,7.513654e-005
2.195368e-004,7.400208e-005
9.393612e-005,6.670914e-005
-3.053005e-005,4.807163e-005
-1.219349e-004,2.003433e-005
-1.548341e-004,-9.137427e-006
-1.063766e-004,-3.134038e-005
3.899597e-005,-4.333321e-005
2.814457e-004,-5.159854e-005
5.922872e-004,-5.986387e-005
9.173905e-004,-6.634648e-005
1.190309e-003,-7.120844e-005
1.351564e-003,-7.704279e-005
1.378143e-003,-8.822530e-005
1.301648e-003,-1.063766e-004
1.176533e-003,-1.310105e-004
1.059360e-003,-1.618029e-004
1.005716e-003,-1.969711e-004
1.043639e-003,-2.370013e-004
1.157410e-003,-2.815692e-004
1.298569e-003,-3.285682e-004
1.413635e-003,-3.768636e-004
1.469386e-003,-4.198109e-004
1.447345e-003,-4.463896e-004
1.342975e-003,-4.546549e-004
1.166485e-003,-4.475241e-004
9.332729e-004,-4.267797e-004
6.520892e-004,-3.964735e-004
3.193690e-004,-3.619536e-004
-6.294311e-005,-3.261372e-004
-4.813957e-004,-2.875656e-004
-9.264270e-004,-2.507768e-004
-1.414730e-003,-2.250084e-004
-1.961538e-003,-2.198223e-004
-2.550485e-003,-2.345703e-004
-3.119497e-003,-2.572594e-004
-3.572309e-003,-2.697385e-004
-3.815408e-003,-2.570974e-004
-3.798878e-003,-2.169052e-004
-3.535358e-003,-1.608306e-004
-3.084005e-003,-1.029732e-004
-2.521475e-003,-4.851930e-005
-1.914215e-003,2.623614e-007
-1.309549e-003,4.256141e-005
-7.436173e-004,8.226741e-005
-2.532078e-004,1.229458e-004
1.195424e-004,1.645966e-004
3.454615e-004,2.039785e-004
4.185530e-004,2.436845e-004
3.739850e-004,2.816078e-004
2.743149e-004,3.156415e-004
1.667035e-004,3.483787e-004
7.740546e-005,3.898674e-004
2.359977e-005,4.438352e-004
7.717366e-006,5.049339e-004
2.214118e-005,5.618189e-004
5.082674e-005,6.024973e-004
8.729144e-005,6.227554e-004
1.425557e-004,6.238899e-004
2.303951e-004,6.102764e-004
3.524304e-004,5.937457e-004
4.968306e-004,5.864528e-004
6.506307e-004,5.942319e-004
7.989206e-004,6.136798e-004
9.250075e-004,6.337758e-004
1.013657e-003,6.417171e-004
1.060008e-003,6.250244e-004
1.072811e-003,5.741358e-004
1.065842e-003,4.914824e-004
1.054498e-003,3.914881e-004
1.049798e-003,2.897111e-004
1.059846e-003,1.942546e-004
1.082535e-003,1.091703e-004
1.112031e-003,3.364782e-005
1.138124e-003,-3.733679e-005
1.152061e-003,-1.013526e-004
1.149306e-003,-1.511067e-004
1.125645e-003,-1.783336e-004
1.076701e-003,-1.757406e-004
1.006689e-003,-1.499722e-004
9.269523e-004,-1.175591e-004
8.519160e-004,-9.794922e-005
7.919518e-004,-1.023250e-004
7.571077e-004,-1.326312e-004
7.447907e-004,-1.830335e-004
7.430080e-004,-2.426735e-004
7.339324e-004,-2.992343e-004
7.080019e-004,-3.473677e-004
6.637580e-004,-3.877220e-004
6.086557e-004,-4.183523e-004
5.486915e-004,-4.433104e-004
4.853240e-004,-4.647030e-004
4.138531e-004,-4.758855e-004
3.208276e-004,-4.710235e-004
1.908512e-004,-4.502792e-004
1.808955e-005,-4.113835e-004
-2.018331e-004,-3.543365e-004
-4.625961e-004,-2.830278e-004
-7.488034e-004,-2.084778e-004
-1.024152e-003,-1.452723e-004
-1.236620e-003,-9.794922e-005
-1.352821e-003,-6.423963e-005
-1.368865e-003,-3.830919e-005
-1.291722e-003,-1.416145e-005
-1.143270e-003,1.533444e-005
-9.567332e-004,4.758544e-005
-7.692237e-004,7.367795e-005
-5.985689e-004,8.437427e-005
-4.433104e-004,7.578480e-005
-2.917793e-004,4.466826e-005
-1.361966e-004,-4.599598e-006
2.538249e-005,-6.278104e-005
1.978200e-004,-1.149661e-004
3.820883e-004,-1.489998e-004
5.697600e-004,-1.595340e-004
7.421977e-004,-1.478653e-004
8.778464e-004,-1.212866e-004
9.567724e-004,-9.114248e-005
9.564483e-004,-6.116039e-005
8.682846e-004,-3.425755e-005
7.039502e-004,-1.286493e-005
4.973168e-004,6.096713e-006
2.903593e-004,2.635488e-005
1.156529e-004,5.001642e-005
-1.999580e-005,7.756752e-005
-1.238797e-004,1.056048e-004
-2.003745e-004,1.349386e-004
-2.535319e-004,1.613553e-004
-2.950206e-004,1.889064e-004
-3.431540e-004,2.141886e-004
-3.997148e-004,2.342847e-004
-4.533584e-004,2.461155e-004
-4.781544e-004,2.501671e-004
-4.536825e-004,2.500050e-004
-3.818876e-004,2.513016e-004
-2.809209e-004,2.525981e-004
-1.806025e-004,2.543808e-004
-1.047560e-004,2.585945e-004
-6.893953e-005,2.629703e-004
-7.363943e-005,2.657254e-004
-1.011905e-004,2.676702e-004
-1.293899e-004,2.717218e-004
-1.430034e-004,2.803113e-004
-1.436516e-004,2.948972e-004
-1.402483e-004,3.141829e-004
-1.397621e-004,3.355756e-004
-1.400862e-004,3.516200e-004
-1.342519e-004,3.553475e-004
-1.164247e-004,3.495132e-004
-8.287715e-005,3.380065e-004
-3.247483e-005,3.206656e-004
2.343770e-005,2.965178e-004
6.622294e-005,2.629703e-004
8.810177e-005,2.247229e-004
9.199134e-005,1.871237e-004
9.426025e-005,1.532520e-004
1.138702e-004,1.248906e-004
1.488763e-004,1.043083e-004
1.751309e-004,8.907416e-005
1.628139e-004,7.221937e-005
9.393612e-005,4.871989e-005
-2.420950e-005,1.517237e-005
-1.499722e-004,-2.534396e-005
-2.301945e-004,-7.137051e-005
-2.316531e-004,-1.190177e-004
-1.647201e-004,-1.601823e-004
-6.699475e-005,-1.851404e-004
2.003433e-005,-1.887058e-004
6.249545e-005,-1.741199e-004
4.402000e-005,-1.502963e-004
-2.971972e-005,-1.233935e-004
-1.305243e-004,-1.037836e-004
-2.194982e-004,-1.013526e-004
-2.619593e-004,-1.185315e-004
-2.428356e-004,-1.504584e-004
-1.712027e-004,-1.891920e-004
-7.137051e-005,-2.271153e-004
2.603075e-005,-2.582318e-004
9.814982e-005,-2.823795e-004
1.357490e-004,-3.008550e-004
1.436902e-004,-3.159271e-004
1.250527e-004,-3.292164e-004
9.474644e-005,-3.400748e-004
6.606088e-005,-3.447747e-004
4.337174e-005,-3.408851e-004
2.100672e-005,-3.288923e-004
-1.318906e-005,-3.097686e-004
-7.218083e-005,-2.852967e-004
-1.627754e-004,-2.593663e-004
-2.867553e-004,-2.310048e-004
-4.285624e-004,-2.026434e-004
-5.465460e-004,-1.784957e-004
-5.852795e-004,-1.608306e-004
-5.021401e-004,-1.444620e-004
-2.946965e-004,-1.289037e-004
3.179537e-006,-1.128592e-004
3.326584e-004,-9.373552e-005
6.381517e-004,-7.088431e-005
8.843291e-004,-4.576419e-005
1.054174e-003,-1.659243e-005
1.137962e-003,1.922400e-005
1.138124e-003,6.687121e-005
1.070056e-003,1.291043e-004
9.545035e-004,1.997648e-004
8.088066e-004,2.663737e-004
6.386379e-004,3.172622e-004
4.427008e-004,3.456236e-004
2.200230e-004,3.551855e-004
-2.647842e-005,3.517821e-004
-2.943724e-004,3.428685e-004
-5.713420e-004,3.368721e-004
-8.416669e-004,3.399513e-004
-1.088006e-003,3.522683e-004
-1.296908e-003,3.676645e-004
-1.450222e-003,3.822504e-004
-1.530120e-003,3.916502e-004
-1.520396e-003,3.973225e-004
-1.412623e-003,4.026706e-004
-1.215389e-003,4.085050e-004
-9.559229e-004,4.140152e-004
-6.804119e-004,4.128807e-004
-4.361795e-004,4.007258e-004
-2.525595e-004,3.728506e-004
-1.295519e-004,3.224483e-004
-4.252288e-005,2.475741e-004
3.478228e-005,1.498487e-004
1.153287e-004,4.337174e-005
1.976579e-004,-5.013995e-005
2.748010e-004,-1.133454e-004
3.354135e-004,-1.384655e-004
3.741471e-004,-1.342519e-004
3.921364e-004,-1.118868e-004
3.992672e-004,-7.817725e-005
4.065602e-004,-2.728874e-005
4.239012e-004,4.758544e-005
4.582590e-004,1.446626e-004
5.101200e-004,2.574601e-004
5.661946e-004,3.777126e-004
6.140039e-004,4.947237e-004
6.548444e-004,6.031455e-004
6.964952e-004,6.916333e-004
7.538663e-004,7.483562e-004
8.397611e-004,7.712074e-004
9.509380e-004,7.653730e-004
1.058874e-003,7.342565e-004
1.117704e-003,6.760749e-004
1.080104e-003,5.836976e-004
9.237110e-004,4.548557e-004
6.564650e-004,2.934386e-004
3.106175e-004,1.090082e-004
-7.769106e-005,-7.769106e-005
-4.614617e-004,-2.459149e-004
-7.797579e-004,-3.723258e-004
-9.825015e-004,-4.476861e-004
-1.053324e-003,-4.745890e-004
-1.004867e-003,-4.676201e-004
-8.659766e-004,-4.446069e-004
-6.758740e-004,-4.233763e-004
-4.789647e-004,-4.134903e-004
-3.177098e-004,-4.152731e-004
-2.287359e-004,-4.258073e-004
-2.246843e-004,-4.412035e-004
-2.852967e-004,-4.546549e-004
-3.653570e-004,-4.611376e-004
-4.130042e-004,-4.596790e-004
-3.865875e-004,-4.522240e-004
-2.780038e-004,-4.421759e-004
-1.114006e-004,-4.326141e-004
7.108491e-005,-4.290486e-004
2.337985e-004,-4.347209e-004
3.535648e-004,-4.493068e-004
4.255218e-004,-4.705373e-004
4.616624e-004,-4.901472e-004
4.767345e-004,-4.954954e-004
4.854860e-004,-4.786406e-004
4.893756e-004,-4.386105e-004
4.799758e-004,-3.838324e-004
4.477248e-004,-3.225718e-004
3.916502e-004,-2.600145e-004
3.216380e-004,-1.987538e-004
2.589186e-004,-1.446240e-004
2.260194e-004,-9.811128e-005
2.363916e-004,-5.710876e-005
2.869559e-004,-2.291298e-005
3.631267e-004,1.063454e-005
4.431870e-004,4.693717e-005
5.086614e-004,8.696731e-005
5.533914e-004,1.274836e-004
5.836976e-004,1.647587e-004
6.073592e-004,1.958752e-004
6.319932e-004,2.206712e-004
6.694303e-004,2.427121e-004
7.221015e-004,2.642668e-004
7.861174e-004,2.842008e-004
8.585607e-004,3.000832e-004
9.318143e-004,3.162898e-004
9.963163e-004,3.368721e-004
1.035212e-003,3.608578e-004
1.024516e-003,3.781987e-004
9.313281e-004,3.867882e-004
7.302048e-004,3.854917e-004
4.120704e-004,3.893813e-004
-6.382317e-006,4.140152e-004
-4.715097e-004,4.600418e-004
-9.030896e-004,5.112545e-004
-1.234027e-003,5.451261e-004
-1.429802e-003,5.490156e-004
-1.479232e-003,5.175750e-004
-1.393337e-003,4.566384e-004
-1.205666e-003,3.807918e-004
-9.671054e-004,3.068900e-004
-7.259523e-004,2.412535e-004
-5.170500e-004,1.822617e-004
-3.536883e-004,1.261871e-004
-2.308428e-004,7.205730e-005
-1.363587e-004,2.214118e-005
-5.759496e-005,-2.031993e-005
2.424803e-005,-5.646050e-005
1.352628e-004,-8.676672e-005
2.965178e-004,-1.136696e-004
5.005581e-004,-1.324691e-004
7.172396e-004,-1.408965e-004
9.097734e-004,-1.376552e-004
1.050932e-003,-1.284175e-004
1.120459e-003,-1.157764e-004
1.119000e-003,-1.060525e-004
1.066329e-003,-1.047560e-004
9.917786e-004,-1.126972e-004
9.277626e-004,-1.255003e-004
8.959978e-004,-1.399241e-004
9.002115e-004,-1.533756e-004
9.274385e-004,-1.626133e-004
9.556379e-004,-1.689338e-004
9.582310e-004,-1.760647e-004
9.164180e-004,-1.874093e-004
8.125341e-004,-1.995642e-004
6.305345e-004,-2.099363e-004
3.679886e-004,-2.149604e-004
4.807163e-005,-2.167431e-004
-2.895104e-004,-2.177155e-004
-6.056998e-004,-2.204706e-004
-8.834797e-004,-2.216050e-004
-1.120905e-003,-2.203085e-004
-1.331266e-003,-2.151224e-004
-1.525096e-003,-2.071812e-004
-1.705799e-003,-1.998883e-004
-1.882126e-003,-1.917850e-004
-2.062667e-003,-1.801163e-004
-2.251798e-003,-1.618029e-004
-2.443845e-003,-1.353863e-004
-2.637190e-003,-1.000561e-004
-2.819675e-003,-5.743289e-005
-2.960511e-003,-7.030578e-006
-3.012372e-003,5.082674e-005
-2.918374e-003,1.099806e-004
-2.629410e-003,1.598967e-004
-2.151479e-003,1.942546e-004
-1.553296e-003,2.135403e-004
-9.361509e-004,2.175920e-004
-3.861013e-004,2.083542e-004
5.811968e-005,1.937684e-004
4.000776e-004,1.819376e-004
6.635960e-004,1.782101e-004
8.669881e-004,1.903650e-004
1.019978e-003,2.195368e-004
1.121107e-003,2.607014e-004
1.174102e-003,3.017039e-004
1.189498e-003,3.357376e-004
1.174913e-003,3.553475e-004
1.136341e-003,3.569682e-004
1.083183e-003,3.457857e-004
1.030188e-003,3.302274e-004
9.883752e-004,3.187208e-004
9.598516e-004,3.161277e-004
9.392693e-004,3.234207e-004
9.271143e-004,3.358997e-004
9.267902e-004,3.464339e-004
9.381349e-004,3.499994e-004
9.532070e-004,3.470822e-004
9.583930e-004,3.405996e-004
9.433209e-004,3.311998e-004
9.120423e-004,3.154794e-004
8.755776e-004,2.924662e-004
8.478644e-004,2.641047e-004
8.340888e-004,2.360674e-004
8.279303e-004,2.115956e-004
8.115617e-004,1.867996e-004
7.681281e-004,1.589243e-004
6.947125e-004,1.258630e-004
6.078454e-004,9.069481e-005
5.425331e-004,6.136099e-005
5.229231e-004,4.353380e-005
5.520949e-004,3.899597e-005
6.080075e-004,4.790957e-005
6.627856e-004,6.038860e-005
7.033019e-004,6.897806e-005
7.376599e-004,7.205730e-005
7.770417e-004,7.238143e-005
8.207994e-004,6.914012e-005
8.588848e-004,6.476436e-005
8.750914e-004,5.941620e-005
8.535367e-004,5.196120e-005
7.835244e-004,4.029250e-005
6.635960e-004,1.889987e-005
5.072028e-004,-1.886135e-005
3.282826e-004,-7.104638e-005
1.402868e-004,-1.302002e-004
-4.657452e-005,-1.891920e-004
-2.183637e-004,-2.397564e-004
-3.648708e-004,-2.750866e-004
-4.822060e-004,-2.916173e-004
-5.698834e-004,-2.909690e-004
-6.251476e-004,-2.737901e-004
-6.411921e-004,-2.428356e-004
-6.149375e-004,-2.075054e-004
-5.514079e-004,-1.767130e-004
-4.617858e-004,-1.562927e-004
-3.651949e-004,-1.480274e-004
-2.883759e-004,-1.475412e-004
-2.567732e-004,-1.498101e-004
-2.807589e-004,-1.468929e-004
-3.491504e-004,-1.342519e-004
-4.352071e-004,-1.149661e-004
-5.167259e-004,-8.935975e-005
-5.776625e-004,-5.013995e-005
-6.022964e-004,5.772582e-006
-5.812279e-004,7.238143e-005
-5.170500e-004,1.367214e-004
-4.337485e-004,1.874478e-004
-3.609812e-004,2.190506e-004
-3.138202e-004,2.276400e-004
-2.812451e-004,2.051129e-004
-2.357047e-004,1.456350e-004
-1.566169e-004,5.666109e-005
-4.138842e-005,-4.479180e-005
9.588091e-005,-1.391138e-004
2.359054e-004,-2.104225e-004
3.650715e-004,-2.538560e-004
4.741415e-004,-2.723315e-004
5.574431e-004,-2.703867e-004
6.086557e-004,-2.543422e-004
6.174073e-004,-2.279256e-004
5.806184e-004,-1.912988e-004
5.008822e-004,-1.446240e-004
3.916502e-004,-8.595638e-005
2.760976e-004,-2.404744e-005
1.746447e-004,2.376183e-005
9.750156e-005,4.531652e-005
4.288554e-005,4.320967e-005
1.720949e-006,3.462021e-005
-3.636440e-005,3.948217e-005
-8.935975e-005,6.800567e-005
-1.721751e-004,1.208390e-004
-2.869174e-004,1.889064e-004
-4.240246e-004,2.600531e-004
-5.622663e-004,3.177483e-004
-6.799257e-004,3.472443e-004
-7.557723e-004,3.451374e-004
-7.782993e-004,3.187208e-004
-7.436173e-004,2.785285e-004
-6.539953e-004,2.329882e-004
-5.133225e-004,1.853410e-004
-3.415334e-004,1.391524e-004
-1.862748e-004,1.022015e-004
-1.047560e-004,7.740546e-005
-1.477033e-004,6.395404e-005
-3.275957e-004,5.730935e-005
-5.998655e-004,5.325772e-005
-8.935277e-004,4.742337e-005
-1.150401e-003,3.721326e-005
-1.338721e-003,2.424803e-005
-1.444712e-003,1.257933e-005
-1.464322e-003,6.258778e-006
-1.393337e-003,1.160693e-005
-1.226896e-003,3.575467e-005
-9.773155e-004,8.323981e-005
-6.680949e-004,1.503349e-004
-3.381300e-004,2.263435e-004
-4.106429e-005,2.986247e-004
1.757791e-004,3.556717e-004
2.814457e-004,3.945674e-004
2.816078e-004,4.120704e-004
2.216436e-004,3.999155e-004
1.650828e-004,3.498373e-004
1.582761e-004,2.634565e-004
2.081922e-004,1.540623e-004
2.966799e-004,3.769945e-005
3.979707e-004,-6.974985e-005
4.971547e-004,-1.509446e-004
5.862907e-004,-2.015090e-004
6.619753e-004,-2.267911e-004
7.219395e-004,-2.348944e-004
7.715315e-004,-2.293842e-004
8.107513e-004,-2.167431e-004
8.381404e-004,-2.062088e-004
8.519160e-004,-2.003745e-004
8.558056e-004,-1.979435e-004
8.595330e-004,-1.981056e-004
8.771982e-004,-2.019951e-004
9.151215e-004,-2.079916e-004
9.729789e-004,-2.115570e-004
1.033916e-003,-2.107467e-004
1.060980e-003,-2.117191e-004
