1.689724e-004,-1.087358e-003
3.086727e-004,-1.327052e-003
4.213082e-004,-1.496411e-003
4.955341e-004,-1.540493e-003
5.260024e-004,-1.408895e-003
5.070407e-004,-1.072448e-003
4.383250e-004,-5.413599e-004
3.365480e-004,1.355869e-004
2.211574e-004,8.752534e-004
1.013911e-004,1.579428e-003
-2.161646e-005,2.146659e-003
-1.444620e-004,2.488942e-003
-2.361909e-004,2.555065e-003
-2.457528e-004,2.348269e-003
-1.391138e-004,1.934028e-003
8.210535e-005,1.433731e-003
3.806297e-004,9.799477e-004
6.916333e-004,6.770474e-004
9.567724e-004,5.699221e-004
1.134072e-003,6.355586e-004
1.201978e-003,8.013516e-004
1.165351e-003,9.788133e-004
1.056767e-003,1.094366e-003
9.358659e-004,1.108628e-003
8.580745e-004,1.017061e-003
8.177201e-004,8.178822e-004
7.397667e-004,4.866205e-004
5.383193e-004,3.786152e-005
1.908512e-004,-4.434724e-004
-2.348944e-004,-8.491218e-004
-6.136410e-004,-1.091896e-003
-8.236776e-004,-1.132088e-003
-8.077952e-004,-9.823395e-004
-5.954896e-004,-7.042355e-004
-2.799486e-004,-3.770257e-004
2.910999e-005,-6.553616e-005
2.506533e-004,1.819376e-004
3.574544e-004,3.211517e-004
3.658818e-004,3.200173e-004
3.109416e-004,1.846927e-004
2.184023e-004,-2.890940e-005
1.025256e-004,-2.404046e-004
-2.518189e-005,-3.812394e-004
-1.459206e-004,-4.141386e-004
-2.413770e-004,-3.389403e-004
-2.856209e-004,-1.932436e-004
-2.583939e-004,-3.814712e-005
-1.658546e-004,6.395404e-005
-4.041603e-005,7.497447e-005
8.405014e-005,-2.238346e-007
1.914995e-004,-1.274451e-004
2.686426e-004,-2.598524e-004
3.072141e-004,-3.643846e-004
3.114278e-004,-4.292107e-004
2.918179e-004,-4.637306e-004
2.443328e-004,-4.967919e-004
1.668655e-004,-5.630766e-004
6.087479e-005,-6.831670e-004
-6.586029e-005,-8.338877e-004
-1.840059e-004,-9.508989e-004
-2.595283e-004,-9.778016e-004
-2.601766e-004,-8.985517e-004
-1.922712e-004,-7.441035e-004
-1.068628e-004,-5.648594e-004
-8.028410e-005,-4.092767e-004
-1.796301e-004,-3.078238e-004
-4.031182e-004,-2.689281e-004
-6.522125e-004,-2.805968e-004
-7.974231e-004,-3.230579e-004
-7.473448e-004,-3.831841e-004
-4.578962e-004,-4.507654e-004
5.828175e-005,-5.198052e-004
6.942263e-004,-5.813900e-004
1.265021e-003,-6.238511e-004
1.591583e-003,-6.353577e-004
1.572622e-003,-6.089411e-004
1.245087e-003,-5.426564e-004
7.597008e-004,-4.399070e-004
2.736666e-004,-3.123616e-004
-1.235555e-004,-1.724993e-004
-4.019837e-004,-3.409549e-005
-5.656697e-004,9.263960e-005
-6.287131e-004,2.041406e-004
-6.215822e-004,2.984626e-004
-5.864140e-004,3.718782e-004
-5.750695e-004,4.174185e-004
-6.233649e-004,4.490213e-004
-7.293556e-004,4.950479e-004
-8.620871e-004,5.780254e-004
-9.779637e-004,7.152948e-004
-1.043438e-003,9.196594e-004
-1.042790e-003,1.181881e-003
-9.790981e-004,1.459176e-003
-8.569010e-004,1.687688e-003
-6.786292e-004,1.827065e-003
-4.501171e-004,1.862071e-003
-1.752544e-004,1.785738e-003
1.284560e-004,1.601793e-003
4.154738e-004,1.338437e-003
6.292380e-004,1.060494e-003
7.152948e-004,8.493229e-004
6.373413e-004,7.669937e-004
3.838710e-004,8.151271e-004
-2.113026e-005,9.169042e-004
-5.102433e-004,9.451036e-004
-9.713190e-004,7.776900e-004
-1.278595e-003,3.391410e-004
-1.362707e-003,-3.254889e-004
-1.265792e-003,-1.015077e-003
-1.134843e-003,-1.482959e-003
-1.104375e-003,-1.592191e-003
-1.186056e-003,-1.373403e-003
-1.269357e-003,-9.802326e-004
-1.233865e-003,-5.971103e-004
-1.049921e-003,-3.298647e-004
-8.011505e-004,-1.512687e-004
-6.449196e-004,3.040651e-005
-7.123387e-004,3.098072e-004
-1.007298e-003,7.418735e-004
-1.394958e-003,1.306024e-003
-1.693968e-003,1.894484e-003
-1.770787e-003,2.347135e-003
-1.582467e-003,2.518114e-003
-1.164015e-003,2.333845e-003
-5.883588e-004,1.821879e-003
3.526847e-005,1.106197e-003
5.783495e-004,3.589129e-004
9.564483e-004,-2.596904e-004
1.163244e-003,-6.501057e-004
1.270207e-003,-7.998540e-004
1.387056e-003,-7.864026e-004
1.584939e-003,-7.612825e-004
1.835654e-003,-8.966069e-004
2.028999e-003,-1.294153e-003
2.040830e-003,-1.908381e-003
1.796596e-003,-2.552267e-003
1.328713e-003,-3.004754e-003
7.875760e-004,-3.121604e-003
3.378445e-004,-2.900060e-003
4.661304e-005,-2.465724e-003
-1.365208e-004,-1.985200e-003
-2.963172e-004,-1.546975e-003
-4.609755e-004,-1.125767e-003
-5.966241e-004,-6.643674e-004
-6.655019e-004,-1.971332e-004
-6.724707e-004,1.845306e-004
-6.661501e-004,4.320045e-004
-7.000218e-004,5.535535e-004
-7.752200e-004,5.657084e-004
-8.202742e-004,4.388112e-004
-7.244936e-004,1.302388e-004
-4.112214e-004,-3.387782e-004
1.078737e-004,-8.656525e-004
7.272876e-004,-1.313763e-003
1.323365e-003,-1.577443e-003
1.833548e-003,-1.627035e-003
2.258809e-003,-1.501921e-003
2.622647e-003,-1.280702e-003
2.945645e-003,-1.055431e-003
3.213217e-003,-9.320992e-004
3.364101e-003,-9.962771e-004
3.336064e-003,-1.229489e-003
3.092477e-003,-1.483607e-003
2.650036e-003,-1.563830e-003
2.095770e-003,-1.333859e-003
1.551877e-003,-7.737615e-004
1.129372e-003,1.322759e-005
8.925945e-004,8.413817e-004
8.368439e-004,1.537777e-003
8.934048e-004,2.025920e-003
9.574206e-004,2.321852e-003
9.350556e-004,2.468198e-003
7.796348e-004,2.470143e-003
4.828930e-004,2.272422e-003
7.967438e-005,1.839058e-003
-3.475298e-004,1.255783e-003
-7.439415e-004,7.036261e-004
-1.105995e-003,3.726885e-004
-1.438391e-003,3.822504e-004
-1.726381e-003,7.144845e-004
-1.934311e-003,1.217374e-003
-2.034144e-003,1.687202e-003
-2.025392e-003,1.982648e-003
-1.927180e-003,2.079240e-003
-1.786670e-003,2.043747e-003
-1.651993e-003,1.972762e-003
-1.541789e-003,1.938728e-003
-1.442281e-003,1.967090e-003
-1.322352e-003,2.034347e-003
-1.153318e-003,2.094312e-003
-9.235098e-004,2.118621e-003
-6.364922e-004,2.118621e-003
-3.198166e-004,2.120080e-003
-2.728874e-005,2.133694e-003
1.968476e-004,2.145524e-003
3.352514e-004,2.113111e-003
3.905157e-004,1.996586e-003
3.707437e-004,1.784280e-003
2.864697e-004,1.495802e-003
1.581140e-004,1.174751e-003
2.716521e-005,8.648812e-004
-6.148453e-005,5.877494e-004
-7.914964e-005,3.394651e-004
-2.048200e-005,1.015532e-004
9.847395e-005,-1.399241e-004
2.508154e-004,-3.877220e-004
4.117463e-004,-6.351956e-004
5.616568e-004,-8.672731e-004
6.679717e-004,-1.064020e-003
6.845024e-004,-1.211824e-003
5.880735e-004,-1.306308e-003
3.947294e-004,-1.357845e-003
1.472556e-004,-1.386693e-003
-8.498399e-005,-1.412137e-003
-2.018331e-004,-1.439039e-003
-1.075111e-004,-1.456219e-003
2.265056e-004,-1.443415e-003
7.057329e-004,-1.383289e-003
1.147037e-003,-1.279243e-003
1.368257e-003,-1.149267e-003
1.260321e-003,-1.014915e-003
8.340888e-004,-8.961208e-004
2.114335e-004,-7.993678e-004
-4.233763e-004,-7.244936e-004
-9.066550e-004,-6.638812e-004
-1.158667e-003,-6.092652e-004
-1.203397e-003,-5.637249e-004
-1.113774e-003,-5.279084e-004
-9.385819e-004,-5.044090e-004
-7.008321e-004,-4.912817e-004
-4.587066e-004,-4.841508e-004
-3.374817e-004,-4.669719e-004
-4.724821e-004,-4.324520e-004
-8.987138e-004,-3.911253e-004
-1.493169e-003,-3.634122e-004
-2.021178e-003,-3.520676e-004
-2.245801e-003,-3.444506e-004
-1.995572e-003,-3.183580e-004
-1.223979e-003,-2.540181e-004
-4.803310e-005,-1.541859e-004
1.270855e-003,-4.932962e-005
2.459608e-003,1.160693e-005
3.357456e-003,-6.706447e-006
3.874936e-003,-1.110765e-004
3.956617e-003,-2.794623e-004
3.541402e-003,-4.703753e-004
2.603685e-003,-6.374646e-004
1.229691e-003,-7.395657e-004
-3.355370e-004,-7.594998e-004
-1.676789e-003,-7.385933e-004
-2.497975e-003,-7.768407e-004
-2.701530e-003,-9.609469e-004
-2.362326e-003,-1.280864e-003
-1.756688e-003,-1.619256e-003
-1.258499e-003,-1.819407e-003
-1.129981e-003,-1.780025e-003
-1.408895e-003,-1.504676e-003
-1.923615e-003,-1.094975e-003
-2.406894e-003,-6.912703e-004
-2.643672e-003,-3.951770e-004
-2.569770e-003,-2.264670e-004
-2.255039e-003,-1.459206e-004
-1.818759e-003,-9.940781e-005
-1.348607e-003,-4.219875e-005
-8.640318e-004,3.462021e-005
-3.378059e-004,1.064152e-004
2.153231e-004,1.367214e-004
6.854748e-004,1.030118e-004
8.927565e-004,2.862379e-005
6.848265e-004,-3.134038e-005
1.410971e-004,-2.826114e-005
-4.228902e-004,5.260946e-005
-6.830050e-004,1.973338e-004
-5.212637e-004,3.794953e-004
-4.900550e-005,5.728393e-004
5.140096e-004,7.572698e-004
9.818925e-004,9.217662e-004
1.277014e-003,1.057415e-003
1.418011e-003,1.145417e-003
1.482999e-003,1.162109e-003
1.553984e-003,1.100849e-003
1.664837e-003,9.755720e-004
1.791735e-003,8.164236e-004
1.883302e-003,6.593822e-004
1.901129e-003,5.285954e-004
1.831927e-003,4.378388e-004
1.689795e-003,3.984569e-004
1.506013e-003,4.083429e-004
1.313154e-003,4.514523e-004
1.142500e-003,5.157923e-004
1.022409e-003,6.062248e-004
9.741134e-004,7.430080e-004
1.008471e-003,9.327867e-004
1.113004e-003,1.148010e-003
1.246546e-003,1.332278e-003
1.358695e-003,1.389325e-003
1.411042e-003,1.228070e-003
1.373443e-003,8.729845e-004
1.226287e-003,4.721967e-004
9.914545e-004,2.033302e-004
7.399287e-004,1.880961e-004
5.433434e-004,4.417284e-004
4.276287e-004,8.603434e-004
3.790091e-004,1.265183e-003
3.699334e-004,1.488834e-003
3.754436e-004,1.429031e-003
3.718782e-004,1.086425e-003
3.224483e-004,5.723531e-004
2.159713e-004,4.385793e-005
1.179218e-004,-3.666535e-004
1.464453e-004,-6.037550e-004
3.822504e-004,-6.914323e-004
8.018378e-004,-7.223868e-004
1.277014e-003,-8.272430e-004
1.653817e-003,-1.075365e-003
1.820096e-003,-1.400954e-003
1.746518e-003,-1.665931e-003
1.455610e-003,-1.786184e-003
9.689272e-004,-1.758146e-003
2.882525e-004,-1.616501e-003
-5.715040e-004,-1.402899e-003
-1.541303e-003,-1.160611e-003
-2.505916e-003,-9.204306e-004
-3.332290e-003,-6.949978e-004
-3.931610e-003,-4.836646e-004
-4.272111e-003,-2.758969e-004
-4.319110e-003,-5.808115e-005
-4.008429e-003,1.819376e-004
-3.304252e-003,4.464283e-004
-2.274163e-003,7.167534e-004
-1.106482e-003,9.412141e-004
-7.266703e-005,1.061629e-003
5.814288e-004,1.041371e-003
7.796348e-004,8.468920e-004
6.114109e-004,4.282770e-004
2.451431e-004,-1.950263e-004
-1.345760e-004,-8.797522e-004
-3.925839e-004,-1.429640e-003
-5.094330e-004,-1.686838e-003
-5.888450e-004,-1.563020e-003
-7.804062e-004,-1.030473e-003
-1.146998e-003,-1.532135e-004
-1.589274e-003,9.078286e-004
-1.933339e-003,1.929491e-003
-2.079522e-003,2.715511e-003
-2.027337e-003,3.115167e-003
-1.802390e-003,3.060388e-003
-1.408247e-003,2.589423e-003
-8.466908e-004,1.852185e-003
-1.590478e-004,1.063087e-003
5.579292e-004,4.250357e-004
1.164702e-003,6.751948e-005
1.536319e-003,9.338019e-006
1.606007e-003,1.707551e-004
1.412015e-003,4.166082e-004
1.105549e-003,6.318311e-004
8.640709e-004,7.682902e-004
8.036205e-004,8.224201e-004
9.512621e-004,8.037825e-004
1.228880e-003,7.259911e-004
1.464362e-003,6.052523e-004
1.458690e-003,4.593935e-004
1.078484e-003,3.115899e-004
2.971661e-004,1.636242e-004
-7.706822e-004,-2.210265e-005
-1.856682e-003,-2.771934e-004
-2.668792e-003,-5.674524e-004
-3.008806e-003,-7.899680e-004
-2.844147e-003,-8.353463e-004
-2.288100e-003,-6.350336e-004
-1.537575e-003,-1.862748e-004
-7.867267e-004,4.170944e-004
-1.663408e-004,9.937233e-004
2.882525e-004,1.347999e-003
6.345862e-004,1.340868e-003
9.736272e-004,9.433209e-004
1.372957e-003,2.433604e-004
1.834844e-003,-5.943552e-004
2.304187e-003,-1.380048e-003
2.711945e-003,-1.970614e-003
3.003503e-003,-2.299121e-003
3.159087e-003,-2.377074e-003
3.198955e-003,-2.302038e-003
3.164759e-003,-2.252446e-003
3.091343e-003,-2.420346e-003
2.979679e-003,-2.862299e-003
2.800110e-003,-3.417050e-003
2.514711e-003,-3.784778e-003
2.103549e-003,-3.701152e-003
1.580725e-003,-3.082060e-003
1.005230e-003,-2.062991e-003
4.696036e-004,-9.131377e-004
5.520250e-005,8.486046e-005
-2.402425e-004,7.527319e-004
-5.149432e-004,1.110248e-003
-8.979035e-004,1.332278e-003
-1.441633e-003,1.648468e-003
-2.031713e-003,2.183934e-003
-2.433959e-003,2.880657e-003
-2.466210e-003,3.566360e-003
-2.097511e-003,4.075575e-003
-1.452977e-003,4.311383e-003
-7.317866e-004,4.233914e-003
-1.212866e-004,3.853543e-003
2.498430e-004,3.227803e-003
3.282826e-004,2.442592e-003
1.357490e-004,1.597418e-003
-2.326255e-004,7.713694e-004
-6.437852e-004,9.824215e-006
-9.656468e-004,-6.689052e-004
-1.113288e-003,-1.269519e-003
-1.109075e-003,-1.804011e-003
-1.046193e-003,-2.305441e-003
-1.010539e-003,-2.817569e-003
-9.980599e-004,-3.335693e-003
-9.145963e-004,-3.806819e-003
-6.603158e-004,-4.146348e-003
-2.326255e-004,-4.250070e-003
2.713977e-004,-4.040356e-003
6.997365e-004,-3.522393e-003
9.250075e-004,-2.798931e-003
9.010218e-004,-2.024258e-003
6.752646e-004,-1.317815e-003
3.585888e-004,-7.113663e-004
9.150514e-005,-1.776853e-004
-1.059602e-005,3.158036e-004
4.985435e-005,7.794728e-004
1.313732e-004,1.195657e-003
1.873781e-005,1.538264e-003
-3.908012e-004,1.793193e-003
-9.528436e-004,1.960931e-003
-1.378913e-003,2.047312e-003
-1.442767e-003,2.061088e-003
-1.104375e-003,1.994965e-003
-5.029504e-004,1.843271e-003
1.312112e-004,1.628859e-003
5.942319e-004,1.398077e-003
8.073480e-004,1.190957e-003
8.089686e-004,1.043964e-003
6.921195e-004,9.932371e-004
5.514466e-004,1.044936e-003
4.454559e-004,1.163892e-003
3.931088e-004,1.284793e-003
3.913261e-004,1.347512e-003
4.282770e-004,1.312993e-003
4.922928e-004,1.179937e-003
5.676532e-004,9.865924e-004
6.433378e-004,7.827141e-004
7.264773e-004,6.037938e-004
8.331164e-004,4.555039e-004
9.673066e-004,3.162898e-004
1.112193e-003,1.495245e-004
1.224505e-003,-8.935975e-005
1.250759e-003,-4.491447e-004
1.160651e-003,-9.322613e-004
9.841614e-004,-1.452167e-003
7.819037e-004,-1.859923e-003
5.934216e-004,-2.027985e-003
4.161220e-004,-1.924101e-003
2.359054e-004,-1.619904e-003
4.758544e-005,-1.249747e-003
-1.326312e-004,-9.346923e-004
-2.849726e-004,-7.217386e-004
-3.989045e-004,-5.914380e-004
-4.656754e-004,-4.924161e-004
-4.804233e-004,-3.792946e-004
-4.480103e-004,-2.337599e-004
-3.836704e-004,-5.986387e-005
-2.966413e-004,1.137081e-004
-1.854645e-004,2.279642e-004
-4.641245e-005,2.300710e-004
1.145184e-004,1.200286e-004
2.705873e-004,-2.566809e-005
3.764160e-004,-1.058904e-004
3.822504e-004,-6.180866e-005
2.443328e-004,1.091703e-004
-6.504996e-005,3.657197e-004
-5.789590e-004,6.700786e-004
-1.271788e-003,1.018033e-003
-1.991196e-003,1.415580e-003
-2.509482e-003,1.811182e-003
-2.642213e-003,2.049905e-003
-2.337692e-003,1.953800e-003
-1.699154e-003,1.479434e-003
-9.299924e-004,7.551629e-004
-2.408908e-004,1.176900e-005
2.467637e-004,-5.092709e-004
5.389676e-004,-6.632329e-004
7.196706e-004,-4.954954e-004
8.669881e-004,-2.292221e-004
9.851338e-004,-8.757704e-005
9.968026e-004,-1.314967e-004
8.193408e-004,-2.540181e-004
4.486972e-004,-3.034480e-004
-3.441962e-005,-2.154466e-004
-5.251534e-004,-2.988179e-005
-9.382577e-004,1.449867e-004
-1.230786e-003,2.033302e-004
-1.417161e-003,8.907416e-005
-1.526717e-003,-1.726613e-004
-1.565613e-003,-4.371519e-004
-1.532551e-003,-4.956574e-004
-1.443253e-003,-2.259808e-004
-1.315222e-003,3.213138e-004
-1.134843e-003,9.828649e-004
-8.564148e-004,1.602604e-003
-4.553032e-004,2.077943e-003
3.705119e-005,2.361720e-003
5.553362e-004,2.453126e-003
1.049474e-003,2.386841e-003
1.454152e-003,2.217482e-003
1.677154e-003,2.012793e-003
1.641662e-003,1.813127e-003
1.364205e-003,1.617028e-003
9.961543e-004,1.395322e-003
7.493285e-004,1.112679e-003
7.606731e-004,7.691005e-004
1.017385e-003,4.080188e-004
1.391270e-003,8.080883e-005
1.725774e-003,-1.979435e-004
1.896915e-003,-4.374760e-004
1.851375e-003,-6.556159e-004
1.624483e-003,-8.526873e-004
1.338275e-003,-1.018966e-003
1.133748e-003,-1.146512e-003
1.097769e-003,-1.242130e-003
1.220129e-003,-1.326566e-003
1.393053e-003,-1.418944e-003
1.467441e-003,-1.520396e-003
1.335195e-003,-1.608722e-003
9.731410e-004,-1.651345e-003
4.253598e-004,-1.636759e-003
-2.243602e-004,-1.579712e-003
-8.799143e-004,-1.505973e-003
-1.453788e-003,-1.432395e-003
-1.892336e-003,-1.350390e-003
-2.193940e-003,-1.241968e-003
-2.383881e-003,-1.095461e-003
-2.471396e-003,-9.189720e-004
-2.437525e-003,-7.360002e-004
-2.253418e-003,-5.775004e-004
-1.899791e-003,-4.663236e-004
-1.392851e-003,-3.883702e-004
-7.975851e-004,-2.987481e-004
-2.104225e-004,-1.708786e-004
2.663737e-004,-1.480971e-005
5.799701e-004,1.398006e-004
7.374978e-004,2.671840e-004
7.608352e-004,3.610198e-004
6.684579e-004,4.209840e-004
4.903480e-004,4.490213e-004
2.615117e-004,4.362182e-004
1.396819e-006,3.709058e-004
-2.640662e-004,2.440086e-004
-4.342347e-004,5.779555e-005
-3.839945e-004,-1.684476e-004
-1.002181e-004,-4.010113e-004
2.897111e-004,-6.053757e-004
6.266450e-004,-7.633893e-004
8.251752e-004,-8.752144e-004
8.953495e-004,-9.465230e-004
9.049114e-004,-9.884980e-004
9.107458e-004,-1.016697e-003
9.199835e-004,-1.042628e-003
8.674743e-004,-1.058186e-003
6.574374e-004,-1.047814e-003
2.414156e-004,-9.954668e-004
-3.814014e-004,-8.951484e-004
-1.180383e-003,-7.588515e-004
-1.991520e-003,-6.071584e-004
-2.510940e-003,-4.512515e-004
-2.449356e-003,-2.903207e-004
-1.724113e-003,-1.081593e-004
-5.337428e-004,1.432040e-004
7.381460e-004,5.114165e-004
1.729177e-003,9.943716e-004
2.306132e-003,1.561115e-003
2.510821e-003,2.164324e-003
2.475167e-003,2.726207e-003
2.340652e-003,3.136235e-003
2.195603e-003,3.294412e-003
2.060926e-003,3.149849e-003
1.919443e-003,2.727990e-003
1.759483e-003,2.125428e-003
1.565977e-003,1.475706e-003
1.324013e-003,9.065320e-004
1.033267e-003,4.968306e-004
7.211292e-004,2.631324e-004
4.302217e-004,1.535762e-004
1.902029e-004,4.628891e-005
-1.254080e-005,-2.211189e-004
-2.731418e-004,-7.405381e-004
-6.938633e-004,-1.435474e-003
-1.276002e-003,-2.079846e-003
-1.870133e-003,-2.428611e-003
-2.248556e-003,-2.353251e-003
-2.255039e-003,-1.907409e-003
-1.916646e-003,-1.281350e-003
-1.423643e-003,-7.102319e-004
-9.868774e-004,-3.789705e-004
-7.152559e-004,-3.570916e-004
-5.984068e-004,-5.750695e-004
-5.760419e-004,-8.726213e-004
-6.295234e-004,-1.088006e-003
-8.008264e-004,-1.133060e-003
-1.092868e-003,-1.016049e-003
-1.380534e-003,-7.970989e-004
-1.469508e-003,-5.368221e-004
-1.209393e-003,-2.684419e-004
-5.940311e-004,-3.951337e-006
2.135403e-004,2.547049e-004
9.626067e-004,5.007202e-004
1.459986e-003,7.167534e-004
1.638744e-003,8.828705e-004
1.511523e-003,9.844856e-004
1.107979e-003,1.024192e-003
4.828930e-004,1.019816e-003
-2.562870e-004,9.908061e-004
-9.602986e-004,9.465622e-004
-1.485877e-003,8.870842e-004
-1.714064e-003,8.105893e-004
-1.612774e-003,7.201568e-004
-1.282160e-003,6.130316e-004
-9.068170e-004,4.830550e-004
-6.086170e-004,3.277964e-004
-3.859393e-004,1.623277e-004
-1.741199e-004,5.286387e-006
7.594687e-005,-1.222590e-004
3.508097e-004,-2.068571e-004
5.932595e-004,-2.494803e-004
7.470596e-004,-2.655248e-004
7.943827e-004,-2.700626e-004
7.528940e-004,-2.711970e-004
6.704027e-004,-2.744383e-004
5.976353e-004,-2.780038e-004
5.678153e-004,-2.729798e-004
5.900182e-004,-2.554767e-004
6.525755e-004,-2.224154e-004
7.311772e-004,-1.702304e-004
8.097790e-004,-1.028112e-004
8.893532e-004,-3.701266e-005
9.857821e-004,1.841368e-005
1.093880e-003,6.670914e-005
1.181071e-003,1.125736e-004
1.217050e-003,1.440143e-004
1.206839e-003,1.321835e-004
1.190795e-003,5.876794e-005
1.206353e-003,-5.808115e-005
1.251408e-003,-1.836818e-004
1.285279e-003,-2.925897e-004
1.264859e-003,-3.664914e-004
1.180909e-003,-4.087905e-004
1.060818e-003,-4.480103e-004
9.457519e-004,-5.065158e-004
8.665019e-004,-5.672903e-004
8.507816e-004,-5.729626e-004
9.154457e-004,-4.543308e-004
1.030998e-003,-1.686097e-004
1.128886e-003,2.790148e-004
1.142013e-003,8.229063e-004
1.037157e-003,1.336168e-003
8.263097e-004,1.656896e-003
5.488536e-004,1.691740e-003
2.506533e-004,1.482675e-003
-5.791909e-005,1.177181e-003
-4.389346e-004,9.540173e-004
-1.002111e-003,9.352177e-004
-1.786832e-003,1.130831e-003
-2.686295e-003,1.470034e-003
-3.508942e-003,1.884436e-003
-4.045542e-003,2.345352e-003
-4.121876e-003,2.852457e-003
-3.682838e-003,3.386952e-003
-2.842203e-003,3.914156e-003
-1.820055e-003,4.384799e-003
-8.551183e-004,4.744752e-003
-1.298761e-004,4.958843e-003
2.607014e-004,4.958843e-003
3.198552e-004,4.958843e-003
1.302388e-004,4.709097e-003
-1.825473e-004,4.118685e-003
-4.966299e-004,3.090371e-003
-7.144455e-004,1.602604e-003
-7.842957e-004,-1.791439e-004
-7.353520e-004,-1.888771e-003
-6.687432e-004,-3.208633e-003
-6.891634e-004,-3.978285e-003
-8.030953e-004,-4.196588e-003
-8.979035e-004,-4.037277e-003
-8.167088e-004,-3.789154e-003
-4.661616e-004,-3.733079e-003
1.227837e-004,-3.984605e-003
8.170719e-004,-4.411650e-003
1.460958e-003,-4.732704e-003
1.947966e-003,-4.712932e-003
2.217968e-003,-4.287670e-003
2.246815e-003,-3.582195e-003
2.030133e-003,-2.820162e-003
1.601145e-003,-2.185189e-003
1.048501e-003,-1.742264e-003
4.879170e-004,-1.455570e-003
9.500085e-006,-1.257040e-003
-3.585502e-004,-1.097892e-003
-6.421645e-004,-9.575436e-004
-8.711627e-004,-8.368049e-004
-1.043114e-003,-7.337314e-004
-1.145863e-003,-6.395715e-004
-1.176656e-003,-5.478425e-004
-1.137436e-003,-4.580583e-004
-1.034525e-003,-3.810773e-004
-8.852624e-004,-3.358611e-004
-7.018045e-004,-3.305129e-004
-4.856094e-004,-3.580640e-004
-2.413770e-004,-4.060354e-004
1.396819e-006,-4.653512e-004
2.101370e-004,-5.287188e-004
4.025085e-004,-5.938690e-004
6.485239e-004,-6.573986e-004
9.990715e-004,-7.102319e-004
1.431462e-003,-7.267626e-004
1.844892e-003,-6.818705e-004
2.107763e-003,-5.664800e-004
2.125590e-003,-3.852910e-004
1.872281e-003,-1.579134e-004
1.409422e-003,8.842590e-005
8.969702e-004,3.237448e-004
5.287575e-004,5.193577e-004
3.731747e-004,6.528996e-004
2.775562e-004,7.096225e-004
-4.365734e-005,6.840162e-004
-7.236833e-004,5.892079e-004
-1.584898e-003,4.610142e-004
-2.247746e-003,3.414099e-004
-2.365244e-003,2.621599e-004
-1.806442e-003,2.422259e-004
-7.353520e-004,2.832284e-004
4.652279e-004,3.504856e-004
1.391432e-003,3.777126e-004
1.864340e-003,2.987867e-004
1.923656e-003,9.669123e-005
1.759970e-003,-1.747682e-004
1.576997e-003,-4.196489e-004
1.438269e-003,-5.484907e-004
1.247032e-003,-5.236948e-004
8.470541e-004,-3.728119e-004
2.127300e-004,-1.587237e-004
-4.522240e-004,5.601284e-005
-8.778074e-004,2.372019e-004
-9.578677e-004,3.819262e-004
-7.808923e-004,5.101200e-004
-5.176983e-004,6.389620e-004
-3.527159e-004,7.642386e-004
-4.045768e-004,8.723363e-004
-6.710121e-004,9.569344e-004
-1.034687e-003,1.014630e-003
-1.326404e-003,1.037967e-003
-1.414730e-003,1.024516e-003
-1.261416e-003,9.807581e-004
-9.192961e-004,9.256558e-004
-5.120260e-004,8.741189e-004
-1.864369e-004,8.342508e-004
-3.782299e-005,8.164236e-004
-9.389759e-005,8.235546e-004
-3.100927e-004,8.481885e-004
-5.645352e-004,8.801154e-004
-7.209282e-004,9.078286e-004
-7.040734e-004,9.261420e-004
-5.249913e-004,9.366762e-004
-2.532078e-004,9.444554e-004
3.267542e-005,9.468864e-004
2.717218e-004,9.399176e-004
4.300596e-004,9.224145e-004
4.955341e-004,8.953495e-004
4.927790e-004,8.660157e-004
5.018546e-004,8.334405e-004
6.261588e-004,7.846588e-004
9.117182e-004,7.127018e-004
1.299541e-003,6.287518e-004
1.668565e-003,5.569569e-004
1.894322e-003,5.441537e-004
1.904370e-003,6.328035e-004
1.704543e-003,7.995688e-004
1.355616e-003,1.001502e-003
9.418624e-004,1.226774e-003
5.323229e-004,1.453179e-003
1.636242e-004,1.644255e-003
-1.400862e-004,1.768883e-003
-3.580640e-004,1.788169e-003
-4.687546e-004,1.665161e-003
-4.598410e-004,1.407153e-003
-3.489884e-004,1.079780e-003
-1.846542e-004,7.669937e-004
-3.685060e-005,5.260024e-004
5.341979e-005,3.556717e-004
8.372601e-005,1.900409e-004
7.043665e-005,-8.757704e-005
2.797553e-005,-5.998655e-004
-3.458168e-005,-1.402413e-003
-1.105903e-004,-2.440766e-003
-1.841680e-004,-3.569716e-003
-2.306807e-004,-4.586034e-003
-2.282497e-004,-4.967702e-003
-1.665028e-004,-4.967702e-003
-3.198864e-005,-4.967863e-003
1.710792e-004,-4.967702e-003
3.931088e-004,-4.150724e-003
5.590637e-004,-3.051592e-003
6.112488e-004,-1.825890e-003
5.352402e-004,-6.082929e-004
3.559958e-004,4.504799e-004
1.258630e-004,1.223046e-003
-9.470791e-005,1.693361e-003
-2.648765e-004,1.935163e-003
-3.661673e-004,2.042288e-003
-4.052250e-004,2.070326e-003
-4.096008e-004,2.041316e-003
-4.023079e-004,1.967576e-003
-3.867496e-004,1.853320e-003
-3.570916e-004,1.675696e-003
-3.065273e-004,1.399211e-003
-2.276015e-004,1.006364e-003
-1.054042e-004,5.287575e-004
8.648112e-005,4.628891e-005
3.696093e-004,-3.533641e-004
7.394425e-004,-6.116962e-004
1.166161e-003,-7.100698e-004
1.591097e-003,-6.559400e-004
1.907288e-003,-4.514136e-004
1.990589e-003,-9.811128e-005
1.769045e-003,3.605336e-004
1.268911e-003,8.216097e-004
5.999042e-004,1.203922e-003
-6.812920e-005,1.501799e-003
-5.293671e-004,1.770666e-003
-6.674466e-004,2.063519e-003
-5.630766e-004,2.378089e-003
-4.350450e-004,2.654250e-003
-4.595169e-004,2.800434e-003
-6.441093e-004,2.742414e-003
-8.598181e-004,2.465118e-003
-9.850947e-004,2.034995e-003
-9.966013e-004,1.572622e-003
-9.505748e-004,1.187878e-003
-9.029275e-004,9.139871e-004
-8.598181e-004,6.707268e-004
-7.967748e-004,3.347652e-004
-7.014804e-004,-1.799543e-004
-5.878726e-004,-9.189720e-004
-4.830164e-004,-1.827510e-003
-4.097628e-004,-2.683216e-003
-3.820497e-004,-3.188537e-003
-4.029561e-004,-3.168441e-003
-4.574101e-004,-2.681271e-003
-5.198052e-004,-1.966400e-003
-5.700454e-004,-1.306470e-003
-5.945173e-004,-9.034137e-004
-5.964621e-004,-8.129813e-004
-5.886829e-004,-9.646744e-004
-5.763660e-004,-1.223493e-003
-5.544871e-004,-1.449898e-003
-5.094330e-004,-1.580361e-003
-4.420138e-004,-1.701423e-003
-3.888564e-004,-1.999948e-003
-4.152731e-004,-2.544326e-003
-5.483287e-004,-3.196802e-003
-7.348658e-004,-3.700342e-003
-8.807246e-004,-3.828860e-003
-9.145963e-004,-3.484145e-003
-8.103882e-004,-2.741236e-003
-5.903036e-004,-1.794935e-003
-3.094444e-004,-8.554424e-004
-3.020592e-005,-8.012204e-005
2.034923e-004,4.710622e-004
3.704196e-004,8.350612e-004
4.700898e-004,1.088208e-003
5.193577e-004,1.286252e-003
5.418848e-004,1.454800e-003
5.520949e-004,1.597904e-003
5.389676e-004,1.717508e-003
4.772207e-004,1.813776e-003
3.448133e-004,1.881357e-003
1.566554e-004,1.910691e-003
-2.566809e-005,1.888326e-003
-1.237176e-004,1.812803e-003
-8.595638e-005,1.697250e-003
6.735741e-005,1.562574e-003
2.441707e-004,1.429680e-003
3.355756e-004,1.301324e-003
2.848491e-004,1.159678e-003
1.137081e-004,9.953440e-004
-6.504996e-005,8.212856e-004
-1.032974e-004,6.653786e-004
1.069013e-004,5.545259e-004
5.683015e-004,5.078511e-004
1.150927e-003,5.225990e-004
1.672616e-003,5.665187e-004
2.010361e-003,5.992560e-004
2.169024e-003,6.073592e-004
2.275663e-003,6.052523e-004
2.496073e-003,6.123833e-004
2.885681e-003,6.371793e-004
3.295871e-003,6.673234e-004
3.410938e-003,6.851507e-004
2.962014e-003,6.762370e-004
1.983134e-003,6.324793e-004
7.896828e-004,5.540397e-004
-2.522354e-004,4.499937e-004
-9.264270e-004,3.363859e-004
-1.286212e-003,2.524360e-004
-1.554916e-003,2.615117e-004
-1.971424e-003,3.707437e-004
-2.616769e-003,5.180612e-004
-3.367134e-003,6.138419e-004
-3.996436e-003,5.956905e-004
-4.298366e-003,4.558281e-004
-4.170334e-003,2.360674e-004
-3.643780e-003,-5.085794e-006
-2.859868e-003,-2.366771e-004
-1.985686e-003,-5.005194e-004
-1.122688e-003,-9.110308e-004
-3.136581e-004,-1.509376e-003
3.777126e-004,-2.183082e-003
8.504574e-004,-2.712874e-003
1.045260e-003,-2.874940e-003
1.020950e-003,-2.546595e-003
9.365142e-004,-1.742426e-003
9.635791e-004,-5.826865e-004
1.207974e-003,6.780197e-004
1.659975e-003,1.696440e-003
2.146659e-003,2.272584e-003
2.365124e-003,2.368365e-003
2.070488e-003,2.095122e-003
1.253676e-003,1.670509e-003
1.764274e-004,1.309265e-003
-7.559343e-004,1.110735e-003
-1.249261e-003,1.036184e-003
-1.261254e-003,9.686031e-004
-9.606228e-004,7.966516e-004
-6.052136e-004,4.459421e-004
-3.937184e-004,-1.297140e-004
-3.779981e-004,-9.038999e-004
-4.890127e-004,-1.736105e-003
-6.042412e-004,-2.422777e-003
-6.235270e-004,-2.778349e-003
-5.065158e-004,-2.713847e-003
-2.737901e-004,-2.276432e-003
1.971020e-005,-1.616663e-003
3.156415e-004,-9.089239e-004
5.692738e-004,-2.791382e-004
7.627800e-004,2.234263e-004
9.016701e-004,6.227554e-004
1.004744e-003,1.004096e-003
1.088370e-003,1.447183e-003
1.172157e-003,1.953962e-003
1.272152e-003,2.430113e-003
1.392405e-003,2.715187e-003
1.526757e-003,2.661219e-003
1.645065e-003,2.216671e-003
1.715239e-003,1.456745e-003
1.719453e-003,5.475571e-004
1.667916e-003,-3.024756e-004
1.586721e-003,-9.184858e-004
1.498234e-003,-1.252340e-003
1.412177e-003,-1.376320e-003
1.340057e-003,-1.436933e-003
1.251894e-003,-1.591381e-003
1.058550e-003,-1.924912e-003
6.629477e-004,-2.368485e-003
6.055066e-005,-2.729891e-003
-6.026206e-004,-2.827779e-003
-1.113450e-003,-2.598294e-003
-1.358979e-003,-2.099780e-003
-1.377617e-003,-1.461243e-003
-1.271140e-003,-8.186536e-004
-1.124309e-003,-2.677937e-004
-9.867153e-004,1.509831e-004
-8.635456e-004,4.465904e-004
-7.335693e-004,6.571133e-004
-5.612939e-004,8.214476e-004
-3.308371e-004,9.677928e-004
-8.611845e-005,1.107655e-003
6.541262e-005,1.244277e-003
-2.048200e-005,1.366312e-003
-4.337485e-004,1.451072e-003
-1.117502e-003,1.467441e-003
-1.882775e-003,1.397753e-003
-2.521799e-003,1.255945e-003
-2.884502e-003,1.078484e-003
-2.885150e-003,9.029666e-004
-2.527633e-003,7.532181e-004
-1.888123e-003,6.407447e-004
-1.085413e-003,5.629533e-004
-2.569353e-004,5.055821e-004
4.741415e-004,4.517764e-004
1.043964e-003,3.927847e-004
1.451396e-003,3.302274e-004
1.732094e-003,2.686426e-004
1.949425e-003,2.156472e-004
2.147631e-003,1.754550e-004
2.337086e-003,1.479039e-004
2.503204e-003,1.308870e-004
2.620540e-003,1.213252e-004
2.636423e-003,1.164632e-004
2.491049e-003,1.119254e-004
2.159300e-003,1.010670e-004
1.691092e-003,7.756752e-005
1.191119e-003,4.434413e-005
7.368495e-004,7.393236e-006
3.091589e-004,-2.566809e-005
-1.501342e-004,-4.835724e-005
-6.697156e-004,-5.483985e-005
-1.224789e-003,-4.414354e-005
-1.740805e-003,-2.291298e-005
-2.130411e-003,-1.844488e-006
-2.341906e-003,1.873781e-005
-2.379991e-003,5.974033e-005
-2.271246e-003,1.406109e-004
-2.020044e-003,2.579462e-004
-1.625577e-003,4.073705e-004
-1.133709e-003,5.843459e-004
-6.530228e-004,7.614834e-004
-3.275957e-004,8.966461e-004
-2.679557e-004,9.528828e-004
-4.815578e-004,9.105837e-004
-8.475012e-004,7.736384e-004
-1.179897e-003,5.686256e-004
-1.307118e-003,3.341170e-004
-1.141650e-003,1.086841e-004
-7.052079e-004,-8.044617e-005
-1.118868e-004,-2.225774e-004
4.846757e-004,-3.337542e-004
9.567724e-004,-4.604893e-004
1.239090e-003,-6.737672e-004
1.322068e-003,-1.022046e-003
1.214619e-003,-1.466429e-003
9.357039e-004,-1.847606e-003
5.342677e-004,-1.963807e-003
1.161391e-004,-1.720061e-003
-1.741199e-004,-1.184759e-003
-1.942160e-004,-5.350393e-004
9.636710e-005,4.774750e-005
5.653843e-004,4.247115e-004
9.776788e-004,5.072028e-004
1.152548e-003,2.344468e-004
1.073622e-003,-4.141386e-004
8.498091e-004,-1.311494e-003
5.909906e-004,-2.209012e-003
3.323342e-004,-2.876561e-003
7.659513e-005,-3.215764e-003
-1.410586e-004,-3.252067e-003
-2.444563e-004,-3.040733e-003
-1.295519e-004,-2.652748e-003
2.514636e-004,-2.172386e-003
7.843347e-004,-1.643404e-003
1.188688e-003,-1.056565e-003
1.169726e-003,-3.880461e-004
6.780197e-004,3.662059e-004
-1.724069e-005,1.162758e-003
-5.282326e-004,1.915391e-003
-6.152617e-004,2.531566e-003
-2.838381e-004,2.956666e-003
2.670219e-004,3.186962e-003
7.692626e-004,3.255030e-003
1.021274e-003,3.199441e-003
9.715204e-004,3.056337e-003
7.117294e-004,2.858129e-003
4.216323e-004,2.633343e-003
2.833905e-004,2.412609e-003
3.662059e-004,2.211323e-003
5.942319e-004,2.019113e-003
8.003792e-004,1.819448e-003
8.347370e-004,1.612490e-003
6.431757e-004,1.422549e-003
2.503292e-004,1.282686e-003
-2.867553e-004,1.204084e-003
-8.808867e-004,1.164378e-003
-1.419430e-003,1.099552e-003
-1.796718e-003,9.357039e-004
-1.948249e-003,6.329655e-004
-1.858303e-003,2.205092e-004
-1.568368e-003,-2.227395e-004
-1.153480e-003,-5.992171e-004
-6.742534e-004,-8.265948e-004
-1.679614e-004,-8.549562e-004
3.046211e-004,-7.055320e-004
6.485239e-004,-4.903093e-004
7.953551e-004,-3.703810e-004
7.562974e-004,-4.611376e-004
6.370172e-004,-7.603101e-004
6.002283e-004,-1.150401e-003
7.632662e-004,-1.469508e-003
1.100200e-003,-1.610181e-003
1.471006e-003,-1.564478e-003
1.705840e-003,-1.399982e-003
1.704705e-003,-1.212148e-003
1.512171e-003,-1.076824e-003
1.266966e-003,-1.049921e-003
1.094690e-003,-1.159639e-003
1.037319e-003,-1.396903e-003
1.044936e-003,-1.697858e-003
9.841614e-004,-1.974990e-003
6.611650e-004,-2.179030e-003
-9.162867e-005,-2.324565e-003
-1.243913e-003,-2.423425e-003
-2.539626e-003,-2.437849e-003
-3.659015e-003,-2.315489e-003
-4.383127e-003,-2.031064e-003
-4.650861e-003,-1.589436e-003
-4.517642e-003,-1.001949e-003
-4.123010e-003,-3.045825e-004
-3.672466e-003,4.558281e-004
-3.373454e-003,1.234067e-003
-3.309762e-003,1.985889e-003
-3.338124e-003,2.646957e-003
-3.171844e-003,3.131859e-003
-2.608342e-003,3.365235e-003
-1.646969e-003,3.318884e-003
-4.465517e-004,3.053095e-003
7.614834e-004,2.680505e-003
1.766452e-003,2.316180e-003
2.474518e-003,2.038237e-003
2.857805e-003,1.869040e-003
2.934462e-003,1.774556e-003
2.734149e-003,1.666134e-003
2.305159e-003,1.428383e-003
1.750894e-003,9.737893e-004
1.224829e-003,3.052694e-004
8.754155e-004,-4.501171e-004
7.940586e-004,-1.082334e-003
9.619584e-004,-1.413595e-003
1.216563e-003,-1.369027e-003
1.343137e-003,-1.018642e-003
1.250435e-003,-5.468701e-004
1.044612e-003,-1.605064e-004
8.859497e-004,-1.043395e-005
8.055653e-004,-1.624512e-004
7.237222e-004,-5.932208e-004
5.908285e-004,-1.163204e-003
4.666864e-004,-1.646645e-003
4.606900e-004,-1.861868e-003
6.360448e-004,-1.768843e-003
9.426727e-004,-1.455894e-003
1.255945e-003,-1.065641e-003
1.457393e-003,-7.230351e-004
1.500665e-003,-4.982505e-004
1.424332e-003,-3.959873e-004
1.289331e-003,-3.823738e-004
1.131479e-003,-4.162455e-004
9.592033e-004,-4.658375e-004
7.739625e-004,-5.121881e-004
5.893700e-004,-5.463839e-004
4.363802e-004,-5.570802e-004
3.467581e-004,-5.272602e-004
3.446512e-004,-4.463896e-004
4.328148e-004,-3.245165e-004
5.796460e-004,-1.864369e-004
7.161052e-004,-5.386745e-005
7.593766e-004,6.444023e-005
6.548444e-004,1.780480e-004
4.073705e-004,3.062417e-004
8.777764e-005,4.606900e-004
-2.186879e-004,6.337758e-004
-4.387725e-004,8.000550e-004
-5.259637e-004,9.269523e-004
-4.682684e-004,9.921027e-004
-2.898345e-004,9.917786e-004
-4.625038e-005,9.391072e-004
1.887444e-004,8.447851e-004
3.475684e-004,6.862851e-004
4.033189e-004,4.420525e-004
3.790091e-004,1.407730e-004
3.585888e-004,-1.517549e-004
4.443214e-004,-3.807532e-004
6.417171e-004,-5.228845e-004
7.713694e-004,-5.715040e-004
5.423710e-004,-5.300153e-004
-1.977815e-004,-4.284004e-004
-1.255095e-003,-3.491504e-004
-2.220843e-003,-4.249970e-004
-2.760522e-003,-7.105560e-004
-2.794879e-003,-1.094327e-003
-2.493924e-003,-1.381020e-003
-2.109990e-003,-1.402413e-003
-1.794773e-003,-1.073096e-003
-1.535631e-003,-4.243487e-004
-1.213445e-003,4.021844e-004
-7.199558e-004,1.215429e-003
-4.689865e-005,1.877305e-003
7.018434e-004,2.342110e-003
1.387543e-003,2.632857e-003
1.913284e-003,2.802865e-003
2.248598e-003,2.889084e-003
2.382951e-003,2.891677e-003
2.282956e-003,2.780500e-003
1.912149e-003,2.519087e-003
1.287224e-003,2.107277e-003
5.000719e-004,1.612004e-003
-2.950206e-004,1.148496e-003
-9.781258e-004,8.206373e-004
-1.536927e-003,6.666752e-004
-2.015344e-003,6.410689e-004
-2.420184e-003,6.425274e-004
-2.682568e-003,5.730013e-004
-2.696668e-003,3.918123e-004
-2.395063e-003,1.380179e-004
-1.798663e-003,-1.117248e-004
-1.023342e-003,-2.935620e-004
-2.473734e-004,-3.883702e-004
3.475684e-004,-4.186764e-004
6.546823e-004,-4.246728e-004
6.734819e-004,-4.360174e-004
4.733311e-004,-4.651892e-004
1.637863e-004,-5.110537e-004
-1.396000e-004,-5.740970e-004
-3.582261e-004,-6.567503e-004
-4.698891e-004,-7.654962e-004
-5.039228e-004,-8.975794e-004
-5.044090e-004,-1.029338e-003
-5.081365e-004,-1.078120e-003
-5.308256e-004,-9.402025e-004
-5.656697e-004,-5.948414e-004
-5.953276e-004,-1.183694e-004
-6.102377e-004,3.838710e-004
-6.217443e-004,8.097790e-004
-6.454058e-004,1.036347e-003
-6.766844e-004,9.013460e-004
-6.812222e-004,3.243930e-004
-6.086170e-004,-5.629146e-004
-4.227281e-004,-1.468536e-003
-1.165867e-004,-2.134462e-003
2.856594e-004,-2.415970e-003
7.355530e-004,-2.284859e-003
1.168106e-003,-1.829455e-003
1.527405e-003,-1.219603e-003
1.772611e-003,-6.744154e-004
1.879088e-003,-3.715154e-004
1.828362e-003,-3.413713e-004
1.621241e-003,-4.622720e-004
1.304565e-003,-5.716661e-004
9.677928e-004,-5.601594e-004
7.131880e-004,-4.021458e-004
6.044420e-004,-1.363587e-004
6.214589e-004,1.842065e-004
6.506307e-004,5.172509e-004
5.657084e-004,8.381404e-004
3.185587e-004,1.133748e-003
-2.258885e-005,1.385598e-003
-3.120375e-004,1.558198e-003
-4.384484e-004,1.606980e-003
-3.993907e-004,1.503420e-003
-2.600145e-004,1.251245e-003
-6.861539e-005,8.998874e-004
1.752929e-004,5.214646e-004
5.049339e-004,1.945787e-004
9.436450e-004,-9.137427e-006
1.467765e-003,-6.310517e-005
2.004203e-003,-1.043395e-005
2.448102e-003,5.455425e-005
2.697197e-003,4.013043e-005
2.670619e-003,-9.746302e-005
2.336600e-003,-3.475298e-004
1.741332e-003,-6.761982e-004
1.014630e-003,-1.043600e-003
3.248792e-004,-1.408733e-003
-2.219292e-004,-1.732216e-003
-6.220684e-004,-1.974666e-003
-8.970932e-004,-2.101239e-003
-1.059969e-003,-2.094432e-003
-1.153318e-003,-1.957163e-003
-1.250234e-003,-1.695103e-003
-1.402899e-003,-1.324297e-003
-1.577605e-003,-8.891520e-004
-1.676465e-003,-4.684305e-004
-1.623794e-003,-1.353863e-004
-1.455732e-003,7.238143e-005
-1.307281e-003,1.550348e-004
-1.298529e-003,1.406109e-004
-1.424616e-003,8.421220e-005
-1.542275e-003,6.411610e-005
-1.484580e-003,1.385041e-004
-1.181194e-003,3.248792e-004
-6.834911e-004,6.295622e-004
-1.041077e-004,1.041695e-003
4.294114e-004,1.510551e-003
8.058894e-004,1.954611e-003
9.558000e-004,2.283605e-003
8.627744e-004,2.432706e-003
5.918010e-004,2.384410e-003
2.926282e-004,2.162866e-003
1.260251e-004,1.817017e-003
1.835583e-004,1.405370e-003
4.615004e-004,9.882130e-004
8.830326e-004,6.093040e-004
1.319475e-003,2.568118e-004
1.616541e-003,-1.747682e-004
1.651386e-003,-8.244879e-004
1.381546e-003,-1.715037e-003
8.726604e-004,-2.689861e-003
2.649151e-004,-3.487711e-003
-2.869174e-004,-3.854304e-003
-6.556159e-004,-3.645887e-003
-7.987196e-004,-2.951273e-003
-7.915886e-004,-2.091839e-003
-7.954782e-004,-1.396579e-003
-9.491161e-004,-1.005677e-003
-1.238403e-003,-8.476633e-004
-1.470642e-003,-7.215765e-004
-1.398361e-003,-4.300210e-004
-9.094102e-004,1.122495e-004
-1.029732e-004,8.613158e-004
8.175581e-004,1.683799e-003
1.679423e-003,2.420875e-003
2.385220e-003,2.911449e-003
2.866881e-003,3.007068e-003
3.058767e-003,2.649874e-003
2.896863e-003,1.945697e-003
2.343569e-003,1.132127e-003
1.483161e-003,4.686312e-004
5.413986e-004,1.185701e-004
-2.545043e-004,9.166720e-005
-7.745718e-004,2.877662e-004
-9.993564e-004,5.686256e-004
-1.029338e-003,8.237166e-004
-1.072772e-003,1.002961e-003
-1.354279e-003,1.109276e-003
-1.910164e-003,1.176533e-003
-2.523419e-003,1.232284e-003
-2.896657e-003,1.283983e-003
-2.879802e-003,1.315586e-003
-2.557129e-003,1.301810e-003
-2.122307e-003,1.219156e-003
-1.724599e-003,1.061467e-003
-1.412137e-003,8.442989e-004
-1.177628e-003,5.786736e-004
-1.025449e-003,2.707494e-004
-9.790981e-004,-6.278104e-005
-1.062238e-003,-3.854531e-004
-1.257689e-003,-6.410300e-004
-1.475018e-003,-7.664686e-004
-1.589112e-003,-6.817085e-004
-1.484256e-003,-3.193304e-004
-1.113450e-003,3.158036e-004
-5.382806e-004,1.108952e-003
1.138702e-004,1.893188e-003
7.136742e-004,2.504339e-003
1.185771e-003,2.802216e-003
1.515088e-003,2.706273e-003
1.722695e-003,2.241468e-003
1.842299e-003,1.477813e-003
1.902101e-003,4.414042e-004
1.929815e-003,-8.171950e-004
1.939539e-003,-2.109504e-003
1.926573e-003,-3.233754e-003
1.873416e-003,-4.044732e-003
1.752515e-003,-4.510673e-003
1.548798e-003,-4.702236e-003
1.275231e-003,-4.696240e-003
9.744375e-004,-4.491549e-003
6.939021e-004,-4.024636e-003
4.718725e-004,-3.257091e-003
3.252034e-004,-2.249043e-003
2.506533e-004,-1.169849e-003
2.234263e-004,-2.227395e-004
2.013854e-004,4.540453e-004
1.362352e-004,8.567779e-004
-7.840905e-006,1.081563e-003
-2.154466e-004,1.233904e-003
-3.959873e-004,1.370202e-003
-4.329382e-004,1.480730e-003
-2.472114e-004,1.531133e-003
1.667035e-004,1.503744e-003
7.485182e-004,1.409260e-003
1.414608e-003,1.282038e-003
2.067895e-003,1.182206e-003
2.610492e-003,1.168106e-003
2.970766e-003,1.237470e-003
3.118570e-003,1.314613e-003
3.063467e-003,1.298082e-003
2.824744e-003,1.122241e-003
2.434650e-003,7.895208e-004
1.960121e-003,3.532407e-004
1.485754e-003,-1.076731e-004
1.050122e-003,-5.121881e-004
6.336138e-004,-8.013126e-004
1.906891e-004,-9.457127e-004
-3.092824e-004,-9.455507e-004
-8.612768e-004,-8.167088e-004
-1.435150e-003,-5.920863e-004
-1.965104e-003,-3.209511e-004
-2.370105e-003,-6.861539e-005
-2.577711e-003,1.009049e-004
-2.533143e-003,1.658931e-004
-2.237212e-003,1.466074e-004
-1.765763e-003,7.189524e-005
-1.234189e-003,-3.652646e-005
-7.635514e-004,-1.502963e-004
-4.418518e-004,-2.397564e-004
-3.173856e-004,-2.840002e-004
-3.985804e-004,-2.733039e-004
-6.596675e-004,-2.060468e-004
-1.042628e-003,-8.530812e-005
-1.471939e-003,7.351589e-005
-1.877426e-003,2.440086e-004
-2.220033e-003,3.794953e-004
-2.499596e-003,4.204978e-004
-2.729243e-003,3.292550e-004
-2.911891e-003,1.213252e-004
-2.978338e-003,-1.196660e-004
-2.766680e-003,-2.890242e-004
-2.141917e-003,-3.233821e-004
-1.131278e-003,-2.251705e-004
7.189524e-005,-4.057810e-005
1.203274e-003,1.667035e-004
2.081995e-003,3.496752e-004
2.636261e-003,4.973168e-004
2.831551e-003,6.230795e-004
2.665919e-003,7.363633e-004
2.160921e-003,8.430023e-004
1.365664e-003,9.588792e-004
4.253598e-004,1.104252e-003
-3.911253e-004,1.243466e-003
-8.231914e-004,1.242008e-003
-7.620928e-004,9.681169e-004
-2.750866e-004,4.674968e-004
4.060740e-004,-2.923353e-005
9.639032e-004,-2.703867e-004
1.140393e-003,-1.381414e-004
8.613158e-004,3.070520e-004
2.937627e-004,8.925945e-004
-2.566112e-004,1.447831e-003
-5.554595e-004,1.867095e-003
-5.640491e-004,2.130128e-003
-3.888564e-004,2.263346e-003
-1.663408e-004,2.286360e-003
4.313994e-006,2.184582e-003
7.691926e-005,1.918146e-003
5.228533e-005,1.427087e-003
-3.749886e-005,6.741302e-004
-1.350622e-004,-2.648765e-004
-1.778474e-004,-1.157694e-003
-1.287416e-004,-1.761550e-003
6.582909e-006,-1.952625e-003
1.908512e-004,-1.759605e-003
3.786850e-004,-1.323811e-003
5.451261e-004,-8.099020e-004
6.755888e-004,-3.318095e-004
7.514353e-004,5.131294e-005
7.426839e-004,3.391410e-004
6.281036e-004,5.661946e-004
4.153117e-004,7.438183e-004
1.467694e-004,8.360335e-004
-1.172350e-004,7.773659e-004
-3.246786e-004,5.075270e-004
-4.399070e-004,-3.951337e-006
-4.596790e-004,-7.149318e-004
-4.141386e-004,-1.514562e-003
-3.394265e-004,-2.251960e-003
-2.504527e-004,-2.774783e-003
-1.585616e-004,-2.996003e-003
-8.384954e-005,-2.941063e-003
-3.328516e-005,-2.754849e-003
1.079661e-005,-2.635569e-003
8.534666e-005,-2.709633e-003
2.245608e-004,-2.931663e-003
4.485351e-004,-3.117876e-003
7.488423e-004,-3.063584e-003
1.064222e-003,-2.666361e-003
1.275069e-003,-1.972559e-003
1.261456e-003,-1.149267e-003
9.592033e-004,-4.034423e-004
4.120704e-004,1.266733e-004
-1.948643e-004,4.371906e-004
-6.066722e-004,6.342620e-004
-6.189891e-004,8.418679e-004
-1.462447e-004,1.129858e-003
6.895264e-004,1.478948e-003
1.536319e-003,1.817665e-003
1.916039e-003,2.084101e-003
1.467603e-003,2.257998e-003
2.433604e-004,2.357993e-003
-1.234513e-003,2.417957e-003
-2.326348e-003,2.452316e-003
-2.695695e-003,2.457988e-003
-2.334289e-003,2.425413e-003
-1.480042e-003,2.347135e-003
-4.766958e-004,2.209216e-003
3.193690e-004,1.989131e-003
6.611650e-004,1.675857e-003
5.308643e-004,1.278148e-003
1.287802e-004,8.254994e-004
-2.554767e-004,3.665301e-004
-4.112214e-004,-4.495386e-005
-2.830278e-004,-3.677880e-004
4.547859e-005,-5.885208e-004
4.274666e-004,-7.184973e-004
7.269635e-004,-7.862405e-004
8.763879e-004,-8.236776e-004
8.865980e-004,-8.504183e-004
8.245269e-004,-8.675972e-004
7.645627e-004,-8.697041e-004
7.413874e-004,-8.509046e-004
7.381460e-004,-8.115227e-004
7.141604e-004,-7.616066e-004
6.370172e-004,-7.142835e-004
5.049339e-004,-6.794395e-004
3.438409e-004,-6.583710e-004
1.793446e-004,-6.458920e-004
1.176900e-005,-6.361681e-004
-2.044261e-004,-6.241752e-004
-5.082985e-004,-6.040792e-004
-8.622491e-004,-5.723144e-004
-1.144567e-003,-5.277464e-004
-1.195942e-003,-4.692408e-004
-8.972552e-004,-3.959873e-004
-2.373254e-004,-3.097686e-004
6.712130e-004,-2.186879e-004
1.622376e-003,-1.392759e-004
2.432381e-003,-8.368748e-005
2.981300e-003,-5.889148e-005
3.204141e-003,-6.359137e-005
3.106739e-003,-9.308726e-005
2.753597e-003,-1.329553e-004
2.273232e-003,-1.596961e-004
1.814586e-003,-1.566169e-004
1.429680e-003,-1.208004e-004
9.721686e-004,-6.602235e-005
1.874478e-004,-1.869928e-005
-9.977358e-004,-3.627206e-006
-2.304955e-003,-3.604027e-005
-3.277511e-003,-1.148040e-004
-3.564530e-003,-2.224154e-004
-3.166172e-003,-3.259751e-004
-2.451786e-003,-3.878840e-004
-1.920212e-003,-3.828600e-004
-1.851334e-003,-3.076617e-004
-2.157151e-003,-1.775233e-004
-2.528606e-003,-1.092015e-005
-2.686133e-003,1.726999e-004
-2.537195e-003,3.568061e-004
-2.188592e-003,5.162785e-004
-1.872402e-003,6.269692e-004
-1.786994e-003,6.773715e-004
-1.949545e-003,6.770474e-004
-2.189889e-003,6.485239e-004
-2.286966e-003,6.201624e-004
-2.094594e-003,6.174073e-004
-1.589760e-003,6.480376e-004
-8.473391e-004,7.023296e-004
1.371378e-005,7.635903e-004
8.418679e-004,8.353853e-004
1.485430e-003,9.277626e-004
1.828037e-003,1.011713e-003
1.824148e-003,1.045908e-003
1.525461e-003,1.053363e-003
1.058712e-003,1.121593e-003
6.005525e-004,1.307320e-003
3.062417e-004,1.593366e-003
2.490327e-004,1.916039e-003
4.029947e-004,2.215375e-003
6.600305e-004,2.417309e-003
8.937289e-004,2.388299e-003
1.018357e-003,1.946183e-003
1.033105e-003,9.726548e-004
1.016899e-003,-4.374760e-004
1.069732e-003,-1.911460e-003
1.248490e-003,-3.032144e-003
1.541991e-003,-3.502459e-003
1.882978e-003,-3.246233e-003
2.188958e-003,-2.472207e-003
2.388623e-003,-1.589436e-003
2.432381e-003,-9.502506e-004
2.306132e-003,-6.559400e-004
2.025109e-003,-5.541630e-004
1.628696e-003,-3.937184e-004
1.181071e-003,-2.145439e-005
7.692626e-004,5.216266e-004
4.893756e-004,1.048988e-003
4.230909e-004,1.372146e-003
5.610085e-004,1.433407e-003
7.634282e-004,1.320609e-003
8.023240e-004,1.174588e-003
5.096338e-004,1.094690e-003
-2.874733e-005,1.095987e-003
-4.984126e-004,1.124186e-003
-6.157478e-004,1.111221e-003
-3.055549e-004,1.010092e-003
3.091589e-004,8.029722e-004
1.012523e-003,4.911583e-004
1.644255e-003,1.096565e-004
2.142121e-003,-2.799486e-004
2.437405e-003,-6.209339e-004
2.357831e-003,-8.761868e-004
1.691254e-003,-1.016535e-003
4.550177e-004,-1.017832e-003
-9.799085e-004,-8.727834e-004
-2.080008e-003,-6.102377e-004
-2.534602e-003,-3.018274e-004
-2.366054e-003,-5.095028e-005
-1.894767e-003,5.017848e-005
-1.525420e-003,-2.113026e-005
-1.506297e-003,-2.005366e-004
-1.806766e-003,-3.778360e-004
-2.189889e-003,-4.647030e-004
-2.390202e-003,-4.462276e-004
-2.263466e-003,-3.851289e-004
-1.825241e-003,-3.920977e-004
-1.203397e-003,-5.825245e-004
-5.663179e-004,-1.024639e-003
-5.402952e-005,-1.667714e-003
2.602152e-004,-2.317596e-003
3.722023e-004,-2.736049e-003
3.240689e-004,-2.790342e-003
2.064095e-004,-2.491817e-003
1.399627e-004,-1.961214e-003
2.033302e-004,-1.361897e-003
4.060740e-004,-8.392359e-004
6.995744e-004,-4.781544e-004
9.836752e-004,-2.822175e-004
1.112679e-003,-1.888679e-004
9.548276e-004,-1.269589e-004
4.619866e-004,-5.872941e-005
-3.002067e-004,1.695509e-005
-1.137274e-003,9.231547e-005
-1.810655e-003,1.639484e-004
-2.151317e-003,2.274780e-004
-2.134948e-003,2.715597e-004
-1.859113e-003,2.906835e-004
-1.463674e-003,3.402755e-004
-1.057700e-003,5.012064e-004
-6.984011e-004,7.948689e-004
-4.014975e-004,1.198412e-003
-1.538618e-004,1.665647e-003
6.800567e-005,2.111815e-003
2.773941e-004,2.436919e-003
4.647417e-004,2.554255e-003
6.003904e-004,2.401102e-003
6.522514e-004,1.975193e-003
6.146522e-004,1.360640e-003
5.292437e-004,7.237222e-004
4.427008e-004,2.401191e-004
3.477304e-004,-1.034161e-006
2.025199e-004,-3.749886e-005
-7.840905e-006,1.558884e-006
-2.535319e-004,-4.187462e-005
-4.651892e-004,-2.814071e-004
-5.377944e-004,-6.943495e-004
-3.660052e-004,-1.103240e-003
8.729144e-005,-1.270492e-003
7.409012e-004,-1.043924e-003
1.412501e-003,-4.535205e-004
1.900481e-003,3.039728e-004
2.072757e-003,9.755720e-004
1.927546e-003,1.400346e-003
1.586721e-003,1.558846e-003
1.211539e-003,1.544422e-003
9.251696e-004,1.480082e-003
7.750969e-004,1.434056e-003
7.327979e-004,1.388839e-003
7.413874e-004,1.270693e-003
7.473837e-004,1.031809e-003
6.950366e-004,6.990883e-004
5.076890e-004,3.579406e-004
1.342904e-004,1.049566e-004
-4.000390e-004,-9.137427e-006
-9.868774e-004,-3.465141e-006
-1.482473e-003,5.779555e-005
-1.756688e-003,1.247285e-004
-1.743236e-003,1.932822e-004
-1.476315e-003,2.786906e-004
-1.089789e-003,3.825745e-004
-7.115284e-004,4.918066e-004
-3.728119e-004,5.858046e-004
-4.673658e-005,6.447964e-004
2.728562e-004,6.528996e-004
5.245438e-004,5.999042e-004
5.953664e-004,4.760863e-004
4.141773e-004,2.728562e-004
1.792748e-005,-1.010982e-005
-4.632444e-004,-3.528779e-004
-8.653284e-004,-7.120146e-004
-1.055107e-003,-1.039062e-003
-1.008270e-003,-1.309874e-003
-8.348601e-004,-1.507593e-003
-7.162283e-004,-1.602401e-003
-7.460483e-004,-1.589598e-003
-8.534976e-004,-1.512779e-003
-8.799143e-004,-1.420402e-003
-7.463724e-004,-1.319273e-003
-4.802613e-004,-1.184921e-003
-1.676373e-004,-1.017508e-003
9.134307e-005,-9.097343e-004
2.159713e-004,-1.075527e-003
1.765894e-004,-1.669983e-003
4.313994e-006,-2.569284e-003
-2.455907e-004,-3.456918e-003
-5.309877e-004,-3.993519e-003
-7.808923e-004,-3.908434e-003
-8.449082e-004,-3.070715e-003
-5.713420e-004,-1.579874e-003
8.307774e-005,3.028383e-004
1.001178e-003,2.204516e-003
1.954287e-003,3.842684e-003
2.727666e-003,4.959005e-003
3.217431e-003,4.958843e-003
3.472037e-003,4.958843e-003
3.604446e-003,4.958681e-003
3.702172e-003,4.958681e-003
3.785961e-003,4.958681e-003
3.807030e-003,4.361138e-003
3.676241e-003,3.683534e-003
3.297005e-003,3.010796e-003
2.620216e-003,2.412123e-003
1.696116e-003,1.826741e-003
6.872575e-004,1.110735e-003
-1.669890e-004,1.633001e-004
-6.875428e-004,-1.000653e-003
-8.862348e-004,-2.238508e-003
-9.544643e-004,-3.336503e-003
-1.190269e-003,-4.063370e-003
-1.790883e-003,-4.281997e-003
-2.681920e-003,-4.007133e-003
-3.577009e-003,-3.364379e-003
-4.161420e-003,-2.529416e-003
-4.241480e-003,-1.682462e-003
-3.800984e-003,-9.753707e-004
-2.971693e-003,-5.010056e-004
-1.973207e-003,-2.903207e-004
-1.023180e-003,-3.092824e-004
-2.746004e-004,-4.750752e-004
2.179161e-004,-6.854360e-004
4.767345e-004,-8.460426e-004
5.509604e-004,-9.100584e-004
5.016926e-004,-8.852624e-004
3.841952e-004,-8.084435e-004
2.448189e-004,-7.248178e-004
1.192183e-004,-6.608020e-004
2.765140e-005,-6.217443e-004
-1.302700e-005,-6.147755e-004
5.772582e-006,-6.408680e-004
7.675720e-005,-6.855980e-004
1.808031e-004,-7.272488e-004
3.073762e-004,-7.483172e-004
4.686312e-004,-7.418346e-004
6.856368e-004,-7.068285e-004
9.493173e-004,-6.408680e-004
1.224343e-003,-5.314739e-004
1.460796e-003,-3.857772e-004
1.612490e-003,-2.193361e-004
1.656410e-003,-3.474375e-005
1.581859e-003,1.621656e-004
1.388515e-003,3.461098e-004
1.107331e-003,4.835413e-004
8.057273e-004,5.574431e-004
5.553362e-004,5.726772e-004
3.997535e-004,5.648981e-004
2.819319e-004,5.752703e-004
4.304761e-005,6.294001e-004
-5.243430e-004,7.240463e-004
-1.491549e-003,8.303613e-004
-2.594404e-003,9.073424e-004
-3.387230e-003,9.045873e-004
-3.561127e-003,7.449528e-004
-3.099401e-003,3.394651e-004
-2.219709e-003,-3.227338e-004
-1.205828e-003,-1.102916e-003
-2.959930e-004,-1.781646e-003
3.785229e-004,-2.181137e-003
8.173960e-004,-2.245639e-003
1.099714e-003,-2.048081e-003
1.304727e-003,-1.712768e-003
1.472465e-003,-1.342935e-003
1.594014e-003,-9.936841e-004
1.608924e-003,-6.958081e-004
1.427735e-003,-4.700511e-004
1.000530e-003,-3.151167e-004
3.783608e-004,-1.935677e-004
-2.934000e-004,-4.884343e-005
-8.510666e-004,1.667035e-004
-1.204855e-003,4.741415e-004
-1.353307e-003,8.818981e-004
-1.386368e-003,1.368095e-003
-1.430612e-003,1.888650e-003
-1.559778e-003,2.415202e-003
-1.753771e-003,2.915015e-003
-1.947925e-003,3.322612e-003
-2.069960e-003,3.549992e-003
-2.059426e-003,3.527950e-003
-1.873699e-003,3.245792e-003
-1.496897e-003,2.770451e-003
-9.340441e-004,2.224613e-003
-2.363530e-004,1.727232e-003
4.974789e-004,1.353995e-003
1.147361e-003,1.098418e-003
1.635665e-003,8.841670e-004
1.940997e-003,5.853184e-004
2.081995e-003,5.747142e-005
2.101280e-003,-7.656582e-004
2.038399e-003,-1.761874e-003
1.916363e-003,-2.678030e-003
1.734525e-003,-3.269084e-003
1.491265e-003,-3.398251e-003
1.202464e-003,-3.067312e-003
9.055596e-004,-2.402681e-003
6.535479e-004,-1.598026e-003
4.867825e-004,-8.230293e-004
4.183910e-004,-1.645581e-004
4.394595e-004,3.734989e-004
5.235714e-004,8.264717e-004
6.310208e-004,1.217536e-003
7.107570e-004,1.534374e-003
7.259911e-004,1.750408e-003
6.676476e-004,1.843758e-003
5.619809e-004,1.812965e-003
4.462662e-004,1.681206e-003
3.527545e-004,1.477975e-003
2.965178e-004,1.218508e-003
2.713977e-004,9.110699e-004
2.506533e-004,5.879114e-004
2.182402e-004,3.030004e-004
1.817755e-004,1.025256e-004
1.628139e-004,1.031041e-005
1.790204e-004,5.585077e-005
2.435224e-004,2.537325e-004
3.537269e-004,5.449640e-004
4.791655e-004,7.558112e-004
5.746220e-004,6.368551e-004
5.856425e-004,7.108491e-005
4.653899e-004,-8.019609e-004
1.918236e-004,-1.698182e-003
-2.086398e-004,-2.356654e-003
-6.531850e-004,-2.605749e-003
-1.029338e-003,-2.404301e-003
-1.237592e-003,-1.830103e-003
-1.214741e-003,-1.046841e-003
-9.763431e-004,-2.545043e-004
-6.392473e-004,3.482167e-004
-3.828600e-004,6.268070e-004
-3.222476e-004,5.684635e-004
-4.214316e-004,3.013798e-004
-5.548113e-004,4.434413e-005
-6.112100e-004,-7.840905e-006
-5.578905e-004,2.232643e-004
-4.308313e-004,6.716992e-004
-2.760590e-004,1.172806e-003
-1.071869e-004,1.564518e-003
5.714729e-005,1.755756e-003
1.509831e-004,1.760132e-003
8.226741e-005,1.651548e-003
-1.841680e-004,1.509254e-003
-5.634008e-004,1.365988e-003
-8.857486e-004,1.200033e-003
-1.012808e-003,9.345694e-004
-9.223754e-004,4.647417e-004
-6.969426e-004,-2.146363e-004
-4.497930e-004,-9.573814e-004
-2.545043e-004,-1.559292e-003
-1.277692e-004,-1.868513e-003
-4.949169e-005,-1.829617e-003
1.079661e-005,-1.479394e-003
6.930219e-005,-9.252926e-004
1.291043e-004,-2.909690e-004
1.992786e-004,3.161277e-004
3.060797e-004,8.242028e-004
4.707381e-004,1.198736e-003
6.984400e-004,1.430490e-003
9.697376e-004,1.521895e-003
1.230501e-003,1.480893e-003
1.412177e-003,1.330820e-003
1.459338e-003,1.112031e-003
1.343785e-003,8.747673e-004
1.052391e-003,6.590580e-004
5.744600e-004,4.739794e-004
-8.401160e-005,2.965178e-004
-8.661387e-004,9.814982e-005
-1.639190e-003,-1.246900e-004
-2.212902e-003,-3.449367e-004
-2.426828e-003,-4.927403e-004
-2.246612e-003,-4.668098e-004
-1.742750e-003,-2.284118e-004
-1.011673e-003,1.571416e-004
-1.575893e-004,5.704083e-004
6.942263e-004,9.000494e-004
1.428383e-003,1.079780e-003
1.986862e-003,1.084642e-003
2.352159e-003,9.130147e-004
2.515197e-003,6.071971e-004
2.466739e-003,2.598910e-004
2.229799e-003,-3.134038e-005
1.893188e-003,-1.985918e-004
1.586559e-003,-2.032917e-004
1.410556e-003,-5.127441e-005
1.392729e-003,1.551968e-004
1.474086e-003,2.132162e-004
1.524326e-003,-5.921561e-005
1.391756e-003,-6.679329e-004
9.689272e-004,-1.427047e-003
2.568118e-004,-2.081953e-003
-6.123445e-004,-2.449842e-003
-1.439526e-003,-2.508834e-003
-2.090056e-003,-2.401870e-003
-2.519692e-003,-2.359571e-003
-2.738156e-003,-2.572201e-003
-2.786776e-003,-3.067636e-003
-2.758415e-003,-3.664525e-003
-2.787100e-003,-4.082493e-003
-2.979310e-003,-4.112800e-003
-3.284966e-003,-3.717358e-003
-3.500190e-003,-3.028578e-003
-3.413647e-003,-2.279997e-003
-2.935390e-003,-1.693806e-003
-2.130573e-003,-1.373727e-003
-1.173577e-003,-1.266116e-003
-2.562870e-004,-1.224627e-003
4.837033e-004,-1.135167e-003
9.992336e-004,-9.825015e-004
1.321420e-003,-8.103882e-004
1.507633e-003,-6.690673e-004
1.610221e-003,-5.980827e-004
1.664027e-003,-6.061860e-004
1.673427e-003,-6.561021e-004
1.615569e-003,-6.745775e-004
1.471817e-003,-5.823624e-004
1.252056e-003,-3.400748e-004
9.634171e-004,3.769945e-005
5.856425e-004,4.927790e-004
1.114392e-004,9.582310e-004
-3.903150e-004,1.388029e-003
-7.768407e-004,1.756080e-003
-9.105446e-004,2.047150e-003
-7.264384e-004,2.253623e-003
-2.593663e-004,2.386192e-003
3.616681e-004,2.489104e-003
9.642274e-004,2.614057e-003
1.421901e-003,2.778717e-003
1.694981e-003,2.951804e-003
1.814910e-003,3.071895e-003
1.831765e-003,3.076919e-003
1.800000e-003,2.945159e-003
1.751866e-003,2.718428e-003
1.663541e-003,2.479380e-003
1.480730e-003,2.295111e-003
1.157734e-003,2.186851e-003
7.037881e-004,2.117001e-003
1.453108e-004,2.024137e-003
-5.086227e-004,1.868878e-003
-1.153967e-003,1.647496e-003
-1.608236e-003,1.380088e-003
-1.733188e-003,1.083346e-003
-1.513428e-003,7.553250e-004
-1.053972e-003,3.807918e-004
-5.253154e-004,-4.544006e-005
-6.893953e-005,-4.784786e-004
2.522740e-004,-8.314567e-004
4.409181e-004,-1.022370e-003
5.290816e-004,-1.023018e-003
5.718669e-004,-8.675972e-004
6.438239e-004,-6.298475e-004
8.084825e-004,-3.875599e-004
1.094042e-003,-1.921092e-004
1.498396e-003,-5.759496e-005
1.962876e-003,2.619281e-005
2.346486e-003,7.740546e-005
2.466901e-003,1.067393e-004
2.201113e-003,1.218114e-004
1.571325e-003,1.218114e-004
7.003848e-004,1.052807e-004
-2.358668e-004,6.768154e-005
-1.043762e-003,-8.489166e-006
-1.592840e-003,-1.934057e-004
-1.813897e-003,-5.928966e-004
-1.684569e-003,-1.201290e-003
-1.264333e-003,-1.860410e-003
-7.317866e-004,-2.357951e-003
-3.180339e-004,-2.525526e-003
-1.598582e-004,-2.282428e-003
-2.068571e-004,-1.635301e-003
-2.739521e-004,-6.580469e-004
-2.018331e-004,5.042856e-004
2.943412e-005,1.662244e-003
3.297412e-004,2.670456e-003
5.772150e-004,3.416935e-003
6.478756e-004,3.812864e-003
4.347596e-004,3.806706e-003
-7.266703e-005,3.389059e-003
-7.283832e-004,2.629778e-003
-1.301284e-003,1.689633e-003
-1.605805e-003,7.699109e-004
-1.600457e-003,2.975825e-005
-1.376644e-003,-4.684305e-004
-1.091247e-003,-7.572309e-004
-8.852624e-004,-9.355026e-004
-8.376152e-004,-1.141488e-003
-9.531678e-004,-1.492359e-003
-1.153480e-003,-1.995248e-003
-1.300150e-003,-2.510292e-003
-1.253151e-003,-2.825186e-003
-9.520333e-004,-2.785804e-003
-4.496309e-004,-2.396522e-003
1.234320e-004,-1.807252e-003
6.177314e-004,-1.215551e-003
9.378107e-004,-7.684134e-004
1.056767e-003,-5.031124e-004
1.005392e-003,-3.566054e-004
8.480264e-004,-2.284118e-004
6.496583e-004,-4.219875e-005
4.568005e-004,2.190506e-004
2.979764e-004,5.195198e-004
1.835583e-004,8.084825e-004
1.188942e-004,1.051581e-003
1.135460e-004,1.243628e-003
1.683241e-004,1.388839e-003
2.611876e-004,1.478786e-003
3.521062e-004,1.492399e-003
4.125566e-004,1.413473e-003
4.470765e-004,1.248490e-003
4.892136e-004,1.019492e-003
5.749461e-004,7.548388e-004
7.227498e-004,4.837033e-004
9.246834e-004,2.258573e-004
1.131965e-003,-5.734056e-006
1.272638e-003,-2.053985e-004
1.306186e-003,-3.638984e-004
1.245735e-003,-4.698891e-004
1.134234e-003,-5.113778e-004
1.019654e-003,-4.946851e-004
9.355418e-004,-4.361795e-004
8.846532e-004,-3.514194e-004
8.491609e-004,-2.523975e-004
8.039447e-004,-1.408965e-004
7.235601e-004,-3.303076e-006
6.018490e-004,1.861513e-004
4.687933e-004,4.399457e-004
3.452995e-004,7.486803e-004
2.278021e-004,1.068598e-003
1.175977e-004,1.327903e-003
4.434413e-005,1.451883e-003
4.936815e-005,1.414770e-003
1.391524e-004,1.254487e-003
2.835526e-004,1.053363e-003
4.094774e-004,8.987529e-004
4.081808e-004,8.324682e-004
1.811273e-004,8.136685e-004
-2.891863e-004,7.029778e-004
-9.121653e-004,3.222862e-004
-1.516021e-003,-4.251591e-004
-1.893147e-003,-1.428505e-003
-1.889257e-003,-2.409650e-003
-1.496573e-003,-3.086112e-003
-8.526873e-004,-3.335693e-003
-1.794681e-004,-3.270380e-003
3.086727e-004,-3.135218e-003
4.939134e-004,-3.111070e-003
3.879227e-004,-3.239264e-003
1.000946e-004,-3.462591e-003
-2.434839e-004,-3.657880e-003
-6.022964e-004,-3.656422e-003
-1.025125e-003,-3.301173e-003
-1.552161e-003,-2.490034e-003
-2.112583e-003,-1.259471e-003
-2.518557e-003,1.902029e-004
-2.588084e-003,1.538264e-003
-2.291666e-003,2.535455e-003
-1.793477e-003,3.076433e-003
-1.333535e-003,3.151794e-003
-1.054783e-003,2.839654e-003
-9.170272e-004,2.299649e-003
-7.951541e-004,1.710540e-003
-6.334129e-004,1.190471e-003
-4.781544e-004,7.572698e-004
-4.120317e-004,3.741471e-004
-4.702132e-004,1.112074e-005
-6.003517e-004,-3.246786e-004
-6.604778e-004,-6.311440e-004
-5.676145e-004,-9.376095e-004
-4.353692e-004,-1.243589e-003
-4.906334e-004,-1.489118e-003
-8.735937e-004,-1.589274e-003
-1.447467e-003,-1.492197e-003
-1.876130e-003,-1.225275e-003
-1.871268e-003,-8.967691e-004
-1.363031e-003,-6.304958e-004
-4.950092e-004,-4.888507e-004
4.796517e-004,-4.403932e-004
1.324013e-003,-3.984183e-004
1.911177e-003,-2.924276e-004
2.217482e-003,-1.063766e-004
2.293491e-003,1.263492e-004
2.220723e-003,3.556717e-004
2.086208e-003,5.448020e-004
1.976165e-003,6.786680e-004
1.977786e-003,7.562974e-004
2.142769e-003,7.867657e-004
2.419578e-003,7.820658e-004
2.621188e-003,7.538663e-004
2.506121e-003,7.209671e-004
2.011982e-003,6.935780e-004
1.350106e-003,6.650545e-004
8.488368e-004,6.290760e-004
6.900126e-004,5.845079e-004
8.209614e-004,5.423710e-004
1.032943e-003,5.125510e-004
1.111221e-003,4.465904e-004
9.434830e-004,2.193747e-004
5.268127e-004,-2.404046e-004
-6.764301e-005,-8.329154e-004
-7.282211e-004,-1.349580e-003
-1.343583e-003,-1.594622e-003
-1.831886e-003,-1.449250e-003
-2.139162e-003,-9.107067e-004
-2.232836e-003,-6.375344e-005
-2.112421e-003,9.848097e-004
-1.833021e-003,2.109060e-003
-1.506783e-003,3.172862e-003
-1.234675e-003,4.046565e-003
-1.040359e-003,4.650104e-003
-8.682456e-004,4.958843e-003
-6.483230e-004,4.958681e-003
-3.638984e-004,4.914761e-003
-5.257093e-005,4.652211e-003
2.355812e-004,4.282535e-003
4.726828e-004,3.833608e-003
6.739681e-004,3.341250e-003
8.750914e-004,2.807240e-003
1.105873e-003,2.182476e-003
1.366798e-003,1.398239e-003
1.621403e-003,4.401077e-004
1.802107e-003,-5.877105e-004
1.831603e-003,-1.502731e-003
1.665971e-003,-2.166875e-003
1.332278e-003,-2.514506e-003
9.263040e-004,-2.548053e-003
5.710566e-004,-2.324079e-003
3.477304e-004,-1.908867e-003
2.678322e-004,-1.361086e-003
2.872801e-004,-7.329211e-004
3.401134e-004,-5.921561e-005
3.786850e-004,6.109247e-004
3.892192e-004,1.185609e-003
3.832228e-004,1.556415e-003
3.730126e-004,1.641175e-003
3.673404e-004,1.433245e-003
3.608578e-004,1.020950e-003
3.443271e-004,5.446399e-004
3.167760e-004,1.299146e-004
2.861456e-004,-1.684476e-004
2.592428e-004,-3.732982e-004
2.446569e-004,-5.611319e-004
2.547049e-004,-8.392359e-004
3.041349e-004,-1.320408e-003
3.960259e-004,-2.040950e-003
5.128751e-004,-2.901357e-003
6.362069e-004,-3.677976e-003
7.546768e-004,-4.135165e-003
8.561297e-004,-4.139055e-003
9.211180e-004,-3.726434e-003
9.323005e-004,-3.080277e-003
8.921082e-004,-2.435580e-003
8.185305e-004,-1.969479e-003
7.293945e-004,-1.734161e-003
6.276174e-004,-1.670631e-003
4.979651e-004,-1.663014e-003
3.206656e-004,-1.616825e-003
9.409818e-005,-1.500462e-003
-1.567789e-004,-1.331590e-003
-3.883702e-004,-1.141326e-003
-5.612939e-004,-9.580297e-004
-6.526987e-004,-8.071469e-004
-6.804119e-004,-7.134732e-004
-7.099077e-004,-6.995356e-004
-8.097400e-004,-7.484793e-004
-1.001139e-003,-7.912645e-004
-1.228517e-003,-7.522068e-004
-1.395930e-003,-5.911139e-004
-1.428505e-003,-3.128478e-004
-1.307281e-003,5.990240e-005
-1.074231e-003,5.166026e-004
-8.131433e-004,1.047205e-003
-5.975965e-004,1.614921e-003
-4.546549e-004,2.141959e-003
-3.643846e-004,2.524759e-003
-3.036101e-004,2.686177e-003
-2.917793e-004,2.620702e-003
-3.820497e-004,2.396565e-003
-6.006758e-004,2.092691e-003
-8.975794e-004,1.759159e-003
-1.199993e-003,1.416876e-003
-1.453625e-003,1.060818e-003
-1.621687e-003,6.516031e-004
-1.682300e-003,1.380179e-004
-1.615853e-003,-4.575721e-004
-1.414243e-003,-9.904428e-004
-1.104861e-003,-1.285239e-003
-7.389174e-004,-1.253637e-003
-3.600088e-004,-9.355026e-004
1.257933e-005,-4.507654e-004
3.793332e-004,7.205730e-005
7.319876e-004,5.307022e-004
1.046395e-003,8.348991e-004
1.291276e-003,8.663398e-004
1.441024e-003,5.213025e-004
1.479596e-003,-1.569410e-004
1.399535e-003,-9.581918e-004
1.197926e-003,-1.619904e-003
9.068561e-004,-1.949708e-003
6.016869e-004,-1.874023e-003
3.817642e-004,-1.438878e-003
3.075383e-004,-7.718167e-004
3.624784e-004,-2.161646e-005
4.645796e-004,6.786680e-004
5.055821e-004,1.237308e-003
4.041292e-004,1.610545e-003
1.279698e-004,1.788655e-003
-2.950206e-004,1.791410e-003
-7.833233e-004,1.667754e-003
-1.212472e-003,1.489482e-003
-1.476152e-003,1.322878e-003
-1.561561e-003,1.199871e-003
-1.555565e-003,1.108952e-003
-1.569016e-003,1.010740e-003
-1.649238e-003,8.692570e-004
-1.727678e-003,6.762370e-004
-1.664797e-003,4.780310e-004
-1.349093e-003,3.624784e-004
-8.097400e-004,3.713920e-004
-2.515871e-004,4.811103e-004
7.124698e-005,6.485239e-004
8.016057e-005,8.339267e-004
-8.239095e-005,9.841614e-004
-2.008607e-004,1.030998e-003
-1.386276e-004,9.250075e-004
9.636710e-005,6.616511e-004
3.922984e-004,2.730183e-004
6.292380e-004,-1.809267e-004
7.434942e-004,-6.139652e-004
7.415494e-004,-9.607848e-004
6.799645e-004,-1.252340e-003
6.209727e-004,-1.612450e-003
6.088178e-004,-2.136245e-003
6.665131e-004,-2.785642e-003
7.849830e-004,-3.384961e-003
9.089631e-004,-3.715900e-003
9.778409e-004,-3.604398e-003
9.673066e-004,-3.007348e-003
8.878945e-004,-2.026203e-003
7.590525e-004,-8.536596e-004
6.010387e-004,2.889007e-004
4.538833e-004,1.219481e-003
3.908399e-004,1.871147e-003
4.676588e-004,2.259133e-003
6.780197e-004,2.436757e-003
9.480208e-004,2.445833e-003
1.176533e-003,2.295922e-003
1.296624e-003,1.986700e-003
1.279607e-003,1.542153e-003
1.117055e-003,1.018195e-003
8.384645e-004,4.929411e-004
5.274609e-004,5.277153e-005
2.947351e-004,-2.538560e-004
2.299089e-004,-4.371519e-004
3.532407e-004,-5.199672e-004
5.966629e-004,-4.922541e-004
8.530504e-004,-3.262992e-004
1.033591e-003,-2.793700e-005
1.099552e-003,3.396272e-004
1.055956e-003,6.828817e-004
9.212800e-004,9.303557e-004
7.002227e-004,1.066977e-003
3.786850e-004,1.121431e-003
-6.213279e-005,1.133100e-003
-6.045654e-004,1.124186e-003
-1.165311e-003,1.094690e-003
-1.633842e-003,1.027757e-003
-1.930746e-003,8.959978e-004
-2.023285e-003,6.712130e-004
-1.924749e-003,3.632887e-004
-1.681976e-003,4.385793e-005
-1.344880e-003,-1.862748e-004
-9.457127e-004,-2.593663e-004
-5.094330e-004,-1.737958e-004
-6.488790e-005,6.096713e-006
3.417340e-004,2.012234e-004
6.694303e-004,3.781987e-004
9.005356e-004,5.666808e-004
1.028567e-003,7.935724e-004
1.057739e-003,1.035698e-003
1.000530e-003,1.214294e-003
8.891911e-004,1.244277e-003
7.660213e-004,1.091287e-003
6.684579e-004,7.741245e-004
6.412309e-004,3.425444e-004
7.353909e-004,-1.431655e-004
9.809202e-004,-6.183409e-004
1.357723e-003,-1.022856e-003
1.799514e-003,-1.318463e-003
2.203220e-003,-1.487659e-003
2.474032e-003,-1.534010e-003
2.566734e-003,-1.477287e-003
2.498828e-003,-1.354442e-003
2.334169e-003,-1.204531e-003
2.153790e-003,-1.063534e-003
1.960121e-003,-9.573814e-004
1.640689e-003,-8.925553e-004
1.055956e-003,-8.580354e-004
2.090025e-004,-8.393980e-004
-6.904599e-004,-8.361567e-004
-1.457839e-003,-8.698662e-004
-2.180489e-003,-9.497644e-004
-3.086436e-003,-1.044086e-003
-4.232567e-003,-1.092868e-003
-4.967702e-003,-1.013780e-003
-4.967863e-003,-7.442656e-004
-4.967863e-003,-2.810830e-004
-4.967702e-003,3.394651e-004
-4.967702e-003,1.039426e-003
-4.967863e-003,1.699033e-003
-4.583117e-003,2.184744e-003
-3.732917e-003,2.403858e-003
-2.920804e-003,2.335790e-003
-2.176275e-003,2.027540e-003
-1.514724e-003,1.574566e-003
-9.280476e-004,1.077835e-003
-3.961493e-004,6.120591e-004
9.296373e-005,2.101370e-004
5.198439e-004,-1.314967e-004
8.430023e-004,-4.481723e-004
1.037157e-003,-8.022850e-004
1.118676e-003,-1.247640e-003
1.136665e-003,-1.758470e-003
1.157247e-003,-2.212092e-003
1.238766e-003,-2.447897e-003
1.404235e-003,-2.381288e-003
1.636314e-003,-2.070770e-003
1.895295e-003,-1.691699e-003
2.141959e-003,-1.403061e-003
2.338545e-003,-1.242292e-003
2.456691e-003,-1.129981e-003
2.474194e-003,-9.403646e-004
2.385544e-003,-5.841451e-004
2.212944e-003,-7.769106e-005
2.000799e-003,4.104497e-004
1.791248e-003,6.031455e-004
1.606980e-003,3.334687e-004
1.449938e-003,-3.309991e-004
1.320285e-003,-1.130953e-003
1.232608e-003,-1.776784e-003
1.200519e-003,-2.054888e-003
1.213484e-003,-1.894767e-003
1.225639e-003,-1.381020e-003
1.185609e-003,-7.202800e-004
1.062925e-003,-1.720131e-004
8.815739e-004,1.010670e-004
7.156190e-004,1.501728e-004
6.423654e-004,1.718896e-004
6.945504e-004,3.482167e-004
8.507816e-004,7.540284e-004
1.054822e-003,1.349295e-003
1.234715e-003,2.016520e-003
1.342813e-003,2.622809e-003
1.370526e-003,3.059902e-003
1.332602e-003,3.276423e-003
1.241522e-003,3.281447e-003
1.106359e-003,3.124891e-003
9.548276e-004,2.872067e-003
8.404093e-004,2.574837e-003
8.117238e-004,2.268857e-003
9.047493e-004,1.976003e-003
1.124348e-003,1.712646e-003
1.388839e-003,1.485754e-003
1.520599e-003,1.295327e-003
1.344757e-003,1.152223e-003
8.308475e-004,1.063736e-003
1.354248e-004,1.011064e-003
-5.019780e-004,9.554758e-004
-8.902864e-004,8.561297e-004
-9.633779e-004,6.934160e-004
-7.883473e-004,4.585832e-004
-5.395772e-004,1.023635e-004
-4.475241e-004,-4.668098e-004
-7.144455e-004,-1.249423e-003
-1.399496e-003,-2.096539e-003
-2.361678e-003,-2.791476e-003
-3.323052e-003,-3.168765e-003
-3.983957e-003,-3.157745e-003
-4.154775e-003,-2.786128e-003
-3.811357e-003,-2.151803e-003
-3.078170e-003,-1.385072e-003
-2.154234e-003,-6.172064e-004
-1.242616e-003,3.364782e-005
-4.907955e-004,4.644175e-004
6.136099e-005,6.227554e-004
4.736553e-004,5.324850e-004
8.233925e-004,2.786906e-004
1.148496e-003,-2.469570e-005
1.452045e-003,-2.710350e-004
1.703247e-003,-4.050630e-004
1.862395e-003,-4.258073e-004
1.922198e-003,-3.681121e-004
1.912474e-003,-2.746004e-004
1.872281e-003,-1.712027e-004
1.817341e-003,-6.553616e-005
1.707622e-003,4.612685e-005
1.445886e-003,1.665414e-004
9.376486e-004,2.885766e-004
1.615174e-004,3.966742e-004
-7.564205e-004,4.814344e-004
-1.582792e-003,5.342677e-004
-2.123604e-003,5.514466e-004
-2.317434e-003,5.349160e-004
-2.226191e-003,4.961824e-004
-1.965266e-003,4.461041e-004
-1.650859e-003,3.913261e-004
-1.364814e-003,3.218000e-004
-1.133222e-003,2.206712e-004
-9.345302e-004,8.599492e-005
-7.287074e-004,-5.565017e-005
-4.784786e-004,-1.577513e-004
-1.673132e-004,-1.601823e-004
2.000889e-004,1.014835e-005
5.918010e-004,3.744712e-004
9.423485e-004,8.598572e-004
1.172644e-003,1.347350e-003
1.226125e-003,1.747653e-003
1.084642e-003,2.005823e-003
8.036205e-004,2.076646e-003
4.835413e-004,1.923008e-003
1.989545e-004,1.547502e-003
-6.294311e-005,1.012685e-003
-3.909633e-004,4.096394e-004
-8.244879e-004,-1.699062e-004
-1.261254e-003,-6.407059e-004
-1.511321e-003,-9.568953e-004
-1.459136e-003,-1.121878e-003
-1.168715e-003,-1.209231e-003
-8.248120e-004,-1.327377e-003
-5.766901e-004,-1.526231e-003
-4.647030e-004,-1.753284e-003
-4.442827e-004,-1.900926e-003
-4.442827e-004,-1.885530e-003
-4.267797e-004,-1.697696e-003
-4.232143e-004,-1.406789e-003
-4.974402e-004,-1.107454e-003
-6.749016e-004,-8.603043e-004
-8.909347e-004,-6.740913e-004
-1.025449e-003,-5.238568e-004
-9.836360e-004,-3.878840e-004
-7.428070e-004,-2.572594e-004
-3.425058e-004,-1.303623e-004
1.469315e-004,-4.599598e-006
6.593822e-004,1.094944e-004
1.158706e-003,1.918236e-004
1.626103e-003,2.303951e-004
2.021868e-003,2.281262e-004
2.288791e-003,1.940925e-004
2.387327e-003,1.406109e-004
2.325742e-003,7.627100e-005
2.130776e-003,9.175954e-006
1.843109e-003,-5.273300e-005
1.533240e-003,-1.131834e-004
1.271990e-003,-1.961608e-004
1.067625e-003,-3.131719e-004
8.791430e-004,-4.390967e-004
6.528996e-004,-5.303394e-004
3.286068e-004,-5.421702e-004
-1.319829e-004,-4.449310e-004
-6.924047e-004,-2.464010e-004
-1.188973e-003,6.744974e-006
-1.386206e-003,2.509774e-004
-1.158991e-003,4.290873e-004
-5.927345e-004,5.115786e-004
8.648112e-005,5.175750e-004
6.563030e-004,5.086614e-004
1.001502e-003,5.574431e-004
1.133100e-003,6.906608e-004
1.148334e-003,8.637467e-004
1.103766e-003,9.896717e-004
9.185249e-004,1.003933e-003
4.145014e-004,8.840049e-004
-4.324520e-004,6.302104e-004
-1.371458e-003,2.527602e-004
-2.049054e-003,-2.279256e-004
-2.250501e-003,-7.601480e-004
-1.996869e-003,-1.275516e-003
-1.482635e-003,-1.695103e-003
-9.108688e-004,-1.931880e-003
-3.920977e-004,-1.917943e-003
3.867184e-005,-1.623632e-003
3.666921e-004,-1.098054e-003
5.486915e-004,-4.753993e-004
5.391297e-004,9.701536e-005
3.542131e-004,5.495019e-004
7.286763e-005,9.086389e-004
-2.036158e-004,1.219156e-003
-4.036044e-004,1.491265e-003
-5.233706e-004,1.712484e-003
-6.196374e-004,1.908260e-003
-7.492896e-004,2.128345e-003
-9.317751e-004,2.417309e-003
-1.145215e-003,2.787144e-003
-1.329321e-003,3.162166e-003
-1.395120e-003,3.386628e-003
-1.254609e-003,3.312077e-003
-8.761868e-004,2.849864e-003
-3.224097e-004,1.958500e-003
2.735045e-004,6.857989e-004
7.608352e-004,-7.458862e-004
1.048177e-003,-1.992817e-003
1.121269e-003,-2.851440e-003
1.035212e-003,-3.286101e-003
8.838429e-004,-3.382854e-003
7.642386e-004,-3.244288e-003
7.480320e-004,-2.950787e-003
8.507816e-004,-2.568474e-003
1.028729e-003,-2.125387e-003
1.211215e-003,-1.587653e-003
1.333413e-003,-9.089239e-004
1.353833e-003,-1.000561e-004
1.259673e-003,7.219395e-004
1.062439e-003,1.360478e-003
7.909794e-004,1.617838e-003
4.874308e-004,1.421739e-003
2.094887e-004,9.113940e-004
1.484824e-005,3.595612e-004
-6.359137e-005,2.019640e-005
-2.728874e-005,2.392390e-005
9.750156e-005,3.563199e-004
2.801492e-004,9.058838e-004
4.849998e-004,1.527405e-003
6.694303e-004,2.088801e-003
8.011895e-004,2.504339e-003
8.627744e-004,2.736580e-003
8.540229e-004,2.781958e-003
8.044308e-004,2.657167e-003
7.650489e-004,2.394134e-003
7.564594e-004,2.034347e-003
7.512733e-004,1.614921e-003
6.911471e-004,1.165675e-003
5.410745e-004,7.081639e-004
3.568061e-004,2.513016e-004
2.623220e-004,-1.984297e-004
3.545372e-004,-6.157478e-004
6.363689e-004,-9.615952e-004
1.030512e-003,-1.208096e-003
1.471979e-003,-1.350714e-003
1.925439e-003,-1.401927e-003
2.347297e-003,-1.390906e-003
2.671753e-003,-1.354442e-003
2.821826e-003,-1.324297e-003
2.726207e-003,-1.317004e-003
2.321852e-003,-1.340666e-003
1.560629e-003,-1.392203e-003
4.537212e-004,-1.456543e-003
-8.902864e-004,-1.514400e-003
-2.307386e-003,-1.544058e-003
-3.669063e-003,-1.525745e-003
-4.844531e-003,-1.445684e-003
-4.967702e-003,-1.284105e-003
-4.967540e-003,-1.034362e-003
-4.967702e-003,-7.115284e-004
-4.967702e-003,-3.365093e-004
-4.298366e-003,5.795762e-005
-3.068933e-003,4.190393e-004
-1.846148e-003,6.898505e-004
-7.653341e-004,8.348991e-004
1.116012e-004,8.502954e-004
7.467355e-004,7.710453e-004
1.097769e-003,6.587339e-004
1.122403e-003,5.754323e-004
8.336026e-004,5.503122e-004
3.475684e-004,5.670050e-004
-1.637477e-004,5.755944e-004
-5.578905e-004,5.195198e-004
-7.742477e-004,3.420582e-004
-8.214086e-004,8.203562e-006
-7.432932e-004,-4.483344e-004
-6.027826e-004,-9.132997e-004
-4.553032e-004,-1.239861e-003
-3.261372e-004,-1.332076e-003
-2.473734e-004,-1.199669e-003
-2.786520e-004,-9.481438e-004
-4.624341e-004,-7.031010e-004
-7.360002e-004,-5.433047e-004
-9.466851e-004,-4.742648e-004
-9.601366e-004,-4.517378e-004
-7.423208e-004,-4.322899e-004
-3.626019e-004,-3.987424e-004
5.147500e-005,-3.527159e-004
3.944053e-004,-3.002067e-004
6.266450e-004,-2.415391e-004
7.694247e-004,-1.784957e-004
8.724983e-004,-1.204763e-004
9.755720e-004,-7.720486e-005
1.087721e-003,-5.727083e-005
1.187392e-003,-6.407757e-005
1.248328e-003,-8.579432e-005
1.257566e-003,-9.179074e-005
1.221912e-003,-4.835724e-005
1.166161e-003,6.638502e-005
1.123052e-003,2.566497e-004
1.114300e-003,5.072028e-004
1.148496e-003,7.924379e-004
1.214133e-003,1.129372e-003
1.284145e-003,1.571973e-003
1.326120e-003,2.112463e-003
1.318341e-003,2.665108e-003
1.261456e-003,3.099932e-003
1.173940e-003,3.299274e-003
1.077025e-003,3.190042e-003
9.963163e-004,2.748410e-003
9.520725e-004,2.015386e-003
9.447795e-004,1.095176e-003
9.549896e-004,1.210010e-004
9.483449e-004,-7.852681e-004
8.938910e-004,-1.525096e-003
7.835244e-004,-2.046299e-003
6.324793e-004,-2.338503e-003
4.747897e-004,-2.446114e-003
3.407616e-004,-2.447087e-003
2.433604e-004,-2.395550e-003
1.887444e-004,-2.299607e-003
1.696206e-004,-2.135759e-003
1.633001e-004,-1.871916e-003
1.404489e-004,-1.496735e-003
7.772959e-005,-1.048624e-003
-2.258885e-005,-6.084549e-004
-1.332795e-004,-2.549905e-004
-2.130156e-004,-2.599222e-005
-2.175534e-004,7.853991e-005
-1.154523e-004,7.643307e-005
8.777764e-005,-7.030578e-006
3.401134e-004,-1.455964e-004
5.668429e-004,-3.191683e-004
7.029778e-004,-5.011677e-004
7.109190e-004,-6.656639e-004
5.789978e-004,-7.831613e-004
3.230965e-004,-8.204363e-004
-1.108221e-005,-7.692237e-004
-3.509331e-004,-6.580469e-004
-6.201236e-004,-5.280706e-004
-7.616066e-004,-4.102490e-004
-7.838095e-004,-3.117133e-004
-7.627411e-004,-2.280877e-004
-8.019609e-004,-1.538618e-004
-9.714811e-004,-8.028410e-005
-1.241806e-003,7.717366e-006
-1.508403e-003,1.242423e-004
-1.673386e-003,2.759355e-004
-1.695265e-003,4.449697e-004
-1.578254e-003,5.969870e-004
-1.353145e-003,7.161052e-004
-1.103888e-003,8.280924e-004
-9.474955e-004,9.720065e-004
-9.555988e-004,1.164702e-003
-1.080551e-003,1.392405e-003
-1.181842e-003,1.610869e-003
-1.119771e-003,1.780714e-003
-8.397221e-004,1.886057e-003
-3.778360e-004,1.920901e-003
1.527658e-004,1.866123e-003
6.123833e-004,1.685906e-003
9.016701e-004,1.336006e-003
1.005230e-003,7.543526e-004
9.883752e-004,-7.704279e-005
9.541793e-004,-1.013456e-003
9.765443e-004,-1.816490e-003
1.050446e-003,-2.308358e-003
1.092745e-003,-2.434608e-003
9.956681e-004,-2.268814e-003
7.031399e-004,-1.948897e-003
2.699391e-004,-1.542923e-003
-1.642339e-004,-1.003570e-003
-4.595169e-004,-2.598524e-004
-5.301774e-004,6.739681e-004
-3.728119e-004,1.669051e-003
-6.586029e-005,2.562845e-003
2.735045e-004,3.217431e-003
5.535535e-004,3.562309e-003
7.327979e-004,3.613522e-003
8.199891e-004,3.441245e-003
8.564538e-004,3.085833e-003
8.830326e-004,2.531242e-003
9.190111e-004,1.795948e-003
9.417002e-004,9.924268e-004
8.588848e-004,2.838767e-004
5.640878e-004,-1.843300e-004
9.662150e-006,-3.331060e-004
-6.891634e-004,-1.663408e-004
-1.263847e-003,2.399570e-004
-1.472263e-003,7.669937e-004
-1.251692e-003,1.289331e-003
-7.173628e-004,1.700978e-003
-6.164659e-005,1.935973e-003
5.255162e-004,1.990103e-003
9.050734e-004,1.935001e-003
1.012037e-003,1.868878e-003
8.551573e-004,1.872443e-003
5.180612e-004,1.993345e-003
1.367214e-004,2.210189e-003
-1.609926e-004,2.417309e-003
-3.143064e-004,2.463984e-003
-3.416954e-004,2.234013e-003
-3.008550e-004,1.702112e-003
-2.585559e-004,9.593654e-004
-2.663351e-004,1.587623e-004
-3.494746e-004,-5.407116e-004
-4.909576e-004,-1.050407e-003
-6.350336e-004,-1.385072e-003
-7.202800e-004,-1.641297e-003
-7.068285e-004,-1.964293e-003
-5.927345e-004,-2.489710e-003
-4.027940e-004,-3.265356e-003
-1.707166e-004,-4.200802e-003
7.384002e-005,-4.967702e-003
3.140208e-004,-4.967540e-003
5.318367e-004,-4.967863e-003
7.156190e-004,-4.871110e-003
8.614778e-004,-4.050566e-003
9.600137e-004,-3.230350e-003
9.890234e-004,-2.530064e-003
9.258178e-004,-1.905140e-003
7.695867e-004,-1.268709e-003
5.634395e-004,-6.138030e-004
3.707437e-004,1.128280e-005
2.438466e-004,5.934216e-004
1.827479e-004,1.143958e-003
1.342904e-004,1.637448e-003
2.538249e-005,2.032240e-003
-1.548341e-004,2.323149e-003
-3.185201e-004,2.545990e-003
-3.395886e-004,2.663001e-003
-1.383035e-004,2.450533e-003
2.621599e-004,1.661758e-003
7.229118e-004,2.992729e-004
1.056605e-003,-1.331104e-003
1.120945e-003,-2.812220e-003
8.754155e-004,-3.867918e-003
3.947294e-004,-4.366272e-003
-1.624512e-004,-4.324945e-003
-6.300096e-004,-3.896604e-003
-8.902864e-004,-3.313652e-003
-8.708386e-004,-2.750473e-003
-6.086170e-004,-2.229108e-003
-3.353749e-004,-1.644538e-003
-4.126800e-004,-8.752144e-004
-1.048948e-003,9.555677e-005
-2.050188e-003,1.123376e-003
-2.964238e-003,2.011982e-003
-3.387554e-003,2.637233e-003
-3.165038e-003,2.968983e-003
-2.395063e-003,3.036726e-003
-1.315060e-003,2.891515e-003
-1.891920e-004,2.600768e-003
7.313393e-004,2.249085e-003
1.275717e-003,1.918956e-003
1.394025e-003,1.662730e-003
1.165675e-003,1.504878e-003
7.870898e-004,1.445562e-003
4.574487e-004,1.444752e-003
2.833905e-004,1.426925e-003
2.741528e-004,1.318016e-003
3.613439e-004,1.074918e-003
4.159600e-004,6.979538e-004
3.109416e-004,2.336365e-004
-8.002969e-006,-2.397564e-004
-4.946851e-004,-6.439472e-004
-1.032742e-003,-9.296683e-004
-1.494628e-003,-1.089303e-003
-1.802876e-003,-1.149915e-003
-1.946952e-003,-1.169849e-003
-1.940794e-003,-1.232244e-003
-1.822972e-003,-1.402575e-003
-1.653452e-003,-1.662528e-003
-1.467887e-003,-1.906274e-003
-1.242940e-003,-2.003837e-003
-9.298304e-004,-1.880992e-003
-5.129984e-004,-1.564478e-003
-1.318906e-005,-1.152832e-003
5.200059e-004,-7.460483e-004
1.008309e-003,-4.032803e-004
1.372146e-003,-1.324691e-004
1.559494e-003,7.967438e-005
1.574729e-003,2.381743e-004
1.464038e-003,3.397893e-004
1.269235e-003,3.825745e-004
1.016737e-003,3.764160e-004
7.417115e-004,3.440029e-004
4.987754e-004,3.109416e-004
3.605336e-004,2.984626e-004
3.947294e-004,3.153174e-004
6.109247e-004,3.566440e-004
9.506139e-004,4.089912e-004
1.320123e-003,4.611762e-004
1.621728e-003,5.029891e-004
1.773097e-003,5.287575e-004
1.730798e-003,5.402642e-004
1.509416e-003,5.566327e-004
1.183178e-003,6.023352e-004
8.583986e-004,6.888782e-004
6.196762e-004,8.065377e-004
5.125510e-004,9.303557e-004
5.383193e-004,1.032943e-003
6.494962e-004,1.094366e-003
7.739625e-004,1.107169e-003
8.580745e-004,1.073622e-003
8.853014e-004,1.007661e-003
8.669881e-004,9.233868e-004
8.185305e-004,8.318199e-004
7.650489e-004,7.457631e-004
7.473837e-004,6.734819e-004
8.044308e-004,6.131936e-004
9.507760e-004,5.587396e-004
1.196629e-003,5.031512e-004
1.565815e-003,4.478869e-004
2.078591e-003,4.000776e-004
2.703842e-003,3.624784e-004
3.341574e-003,3.284447e-004
3.847546e-003,2.911697e-004
4.092754e-003,2.551911e-004
4.004266e-003,2.302331e-004
3.579974e-003,2.252090e-004
2.887625e-003,2.517878e-004
2.024137e-003,3.193690e-004
1.070380e-003,4.206599e-004
1.023635e-004,5.449640e-004
-7.855922e-004,6.935780e-004
-1.535631e-003,8.712018e-004
-2.162337e-003,1.080753e-003
-2.689375e-003,1.313803e-003
-3.074281e-003,1.537291e-003
-3.225975e-003,1.685906e-003
-3.077684e-003,1.680557e-003
-2.678840e-003,1.483648e-003
-2.181623e-003,1.127265e-003
-1.724437e-003,7.097846e-004
-1.361248e-003,3.472443e-004
-1.084927e-003,1.022015e-004
-8.779695e-004,-5.532604e-005
-7.282211e-004,-2.277635e-004
-6.244993e-004,-5.436288e-004
-5.745832e-004,-1.082982e-003
-6.332509e-004,-1.787966e-003
-8.510666e-004,-2.483065e-003
-1.186380e-003,-2.986603e-003
-1.524610e-003,-3.188537e-003
-1.707906e-003,-3.069905e-003
-1.592029e-003,-2.705581e-003
-1.145863e-003,-2.215333e-003
-5.564319e-004,-1.707906e-003
-1.734716e-004,-1.243265e-003
-2.840002e-004,-8.411807e-004
-8.734317e-004,-5.095950e-004
-1.649725e-003,-2.467252e-004
-2.275621e-003,-4.025397e-005
-2.549188e-003,1.184080e-004
-2.444332e-003,2.337985e-004
-2.049378e-003,3.102934e-004
-1.495276e-003,3.542131e-004
-9.006586e-004,3.692851e-004
-3.640605e-004,3.668542e-004
5.196120e-005,3.780367e-004
3.221241e-004,4.380009e-004
4.394595e-004,5.519328e-004
4.067223e-004,6.945504e-004
2.482223e-004,8.261476e-004
1.160693e-005,9.130147e-004
-2.480217e-004,9.485070e-004
-4.799371e-004,9.506139e-004
-6.426507e-004,9.663342e-004
-7.149318e-004,1.070380e-003
-6.878669e-004,1.293059e-003
-5.659938e-004,1.580077e-003
-3.742705e-004,1.825282e-003
-1.773612e-004,1.931435e-003
-6.018800e-005,1.829334e-003
-5.808115e-005,1.488185e-003
-1.209625e-004,9.238730e-004
-1.637477e-004,1.926339e-004
-1.376552e-004,-6.608020e-004
-4.673658e-005,-1.584736e-003
9.620504e-005,-2.466859e-003
2.916559e-004,-3.162769e-003
5.449640e-004,-3.558210e-003
8.318199e-004,-3.592892e-003
1.100524e-003,-3.262601e-003
1.295976e-003,-2.635245e-003
1.404073e-003,-1.849713e-003
1.458041e-003,-1.082658e-003
1.494344e-003,-4.904714e-004
1.532105e-003,-1.349001e-004
1.580725e-003,5.179914e-005
1.650899e-003,2.167816e-004
1.757377e-003,4.845136e-004
1.897077e-003,8.728224e-004
2.052012e-003,1.334709e-003
2.188310e-003,1.837437e-003
2.254271e-003,2.344217e-003
2.192848e-003,2.747762e-003
1.961580e-003,2.828633e-003
1.553660e-003,2.354752e-003
9.771927e-004,1.315099e-003
2.799871e-004,-2.330684e-006
-4.340726e-004,-1.142784e-003
-1.041655e-003,-1.788290e-003
-1.471939e-003,-1.866892e-003
-1.728488e-003,-1.474856e-003
-1.905464e-003,-8.111986e-004
-2.168496e-003,-1.216107e-004
-2.589704e-003,3.545372e-004
-3.039923e-003,4.856481e-004
-3.291287e-003,3.028383e-004
-3.186754e-003,-2.339918e-005
-2.764411e-003,-2.820554e-004
-2.236726e-003,-3.331060e-004
-1.875644e-003,-1.535376e-004
-1.776298e-003,1.893926e-004
-1.742102e-003,5.986077e-004
-1.481987e-003,9.927510e-004
-8.954725e-004,1.330820e-003
-1.583996e-004,1.600659e-003
4.540453e-004,1.803403e-003
8.026481e-004,1.941159e-003
9.470484e-004,2.002907e-003
1.038129e-003,1.976814e-003
1.202626e-003,1.863368e-003
1.475058e-003,1.684123e-003
1.809076e-003,1.465010e-003
2.132883e-003,1.227908e-003
2.394134e-003,9.852959e-004
2.585210e-003,7.381460e-004
2.725721e-003,4.762483e-004
2.833495e-003,1.879340e-004
2.894594e-003,-1.292278e-004
2.850836e-003,-4.702132e-004
2.624106e-003,-8.120089e-004
2.169672e-003,-1.123660e-003
1.540371e-003,-1.363679e-003
8.548332e-004,-1.503704e-003
2.208333e-004,-1.537575e-003
-3.018274e-004,-1.481339e-003
-6.996976e-004,-1.364328e-003
-9.789361e-004,-1.204369e-003
-1.146350e-003,-9.922255e-004
-1.205990e-003,-6.907841e-004
-1.164987e-003,-3.015032e-004
-1.041007e-003,1.060910e-004
-8.541459e-004,4.435111e-004
-6.288751e-004,6.470652e-004
-3.990665e-004,6.770474e-004
-2.042641e-004,5.080132e-004
-5.743289e-005,1.500107e-004
6.460230e-005,-3.168994e-004
1.955511e-004,-7.778131e-004
3.302274e-004,-1.146512e-003
4.242253e-004,-1.383127e-003
4.397836e-004,-1.479556e-003
3.824125e-004,-1.460918e-003
3.088348e-004,-1.389123e-003
2.867939e-004,-1.368703e-003
3.548613e-004,-1.481987e-003
4.919686e-004,-1.711309e-003
6.387999e-004,-1.952463e-003
7.331221e-004,-2.081467e-003
7.449528e-004,-2.017613e-003
6.707268e-004,-1.765115e-003
5.274609e-004,-1.404195e-003
3.461098e-004,-1.031283e-003
1.530900e-004,-7.034251e-004
-3.360929e-005,-4.225660e-004
-1.878955e-004,-1.718510e-004
-2.700626e-004,5.131294e-005
-2.491561e-004,2.550291e-004
-1.109144e-004,4.760863e-004
1.281319e-004,7.499768e-004
4.250357e-004,1.082211e-003
7.243705e-004,1.438917e-003
9.556379e-004,1.756728e-003
1.051094e-003,1.961904e-003
9.528828e-004,2.010523e-003
6.472273e-004,1.916039e-003
1.882582e-004,1.736632e-003
-3.055549e-004,1.551067e-003
-6.894876e-004,1.423035e-003
-8.675972e-004,1.352374e-003
-8.180053e-004,1.266642e-003
-5.740970e-004,1.067463e-003
-2.310048e-004,6.702406e-004
4.466826e-005,8.696731e-005
8.907416e-005,-5.366600e-004
-1.313347e-004,-1.017508e-003
-4.885266e-004,-1.250071e-003
-8.016367e-004,-1.211338e-003
-9.504127e-004,-9.408508e-004
-9.139480e-004,-5.206155e-004
-7.517206e-004,-5.970181e-005
-5.426564e-004,3.200173e-004
-3.527159e-004,5.099580e-004
-2.131776e-004,4.527488e-004
-1.267968e-004,1.574657e-004
-7.412562e-005,-2.856209e-004
-4.430560e-005,-7.377830e-004
-4.090223e-005,-1.075527e-003
-7.137051e-005,-1.238889e-003
-1.381414e-004,-1.239537e-003
-2.241981e-004,-1.136302e-003
-2.895104e-004,-9.993564e-004
-2.974516e-004,-8.646801e-004
-2.327876e-004,-7.272488e-004
-1.079973e-004,-5.640491e-004
4.288554e-005,-3.608192e-004
1.887444e-004,-1.175591e-004
3.021901e-004,1.595726e-004
3.435168e-004,4.530729e-004
2.477361e-004,7.443045e-004
-3.830919e-005,1.033753e-003
-5.086227e-004,1.317530e-003
-1.068072e-003,1.562898e-003
-1.550216e-003,1.719939e-003
-1.808549e-003,1.757701e-003
-1.818273e-003,1.659813e-003
-1.689917e-003,1.418173e-003
-1.571447e-003,1.016250e-003
-1.516021e-003,4.806241e-004
-1.450222e-003,-8.806324e-005
-1.257689e-003,-5.833348e-004
-9.022792e-004,-9.983840e-004
-4.470379e-004,-1.399820e-003
-7.678839e-006,-1.827348e-003
3.158036e-004,-2.250339e-003
4.819206e-004,-2.557129e-003
5.203301e-004,-2.588408e-003
4.877550e-004,-2.206906e-003
4.295735e-004,-1.395444e-003
3.632887e-004,-2.789762e-004
2.864697e-004,9.196594e-004
1.897167e-004,1.978921e-003
7.659513e-005,2.798975e-003
-4.057810e-005,3.376418e-003
-1.355484e-004,3.752737e-003
-1.765509e-004,3.965855e-003
-1.452723e-004,4.039758e-003
-4.803310e-005,3.999241e-003
8.842590e-005,3.866508e-003
2.380122e-004,3.651932e-003
3.697714e-004,3.359077e-003
4.655520e-004,2.999127e-003
5.200059e-004,2.600768e-003
5.399400e-004,2.211161e-003
5.219508e-004,1.870823e-003
4.459421e-004,1.621566e-003
2.961937e-004,1.482027e-003
7.513654e-005,1.392243e-003
-1.828714e-004,1.258538e-003
-4.159214e-004,1.022409e-003
-5.577285e-004,6.950366e-004
-5.593491e-004,3.433547e-004
-4.053871e-004,2.538249e-005
-1.125351e-004,-2.476975e-004
2.736666e-004,-5.100812e-004
6.930918e-004,-8.034194e-004
1.088208e-003,-1.159315e-003
1.421090e-003,-1.597053e-003
1.689795e-003,-2.092973e-003
1.905505e-003,-2.573660e-003
2.074864e-003,-2.942521e-003
2.186203e-003,-3.125007e-003
2.224289e-003,-3.088057e-003
2.183286e-003,-2.853871e-003
2.054767e-003,-2.484524e-003
1.825768e-003,-2.058940e-003
1.514602e-003,-1.641135e-003
1.164378e-003,-1.271788e-003
8.047550e-004,-9.826636e-004
4.498317e-004,-8.055263e-004
1.143563e-004,-7.557723e-004
-2.002124e-004,-8.111986e-004
-5.258016e-004,-9.058447e-004
-8.896381e-004,-9.568953e-004
-1.273895e-003,-8.774833e-004
-1.631411e-003,-6.118583e-004
-1.891202e-003,-1.739578e-004
-1.966400e-003,4.093153e-004
-1.805793e-003,1.118514e-003
-1.433205e-003,1.872281e-003
-9.505748e-004,2.512442e-003
-4.859335e-004,2.869636e-003
-1.323071e-004,2.841761e-003
8.259155e-005,2.440485e-003
1.879340e-004,1.778607e-003
2.446569e-004,1.001502e-003
3.109416e-004,2.415777e-004
4.096394e-004,-4.147869e-004
5.321609e-004,-9.504127e-004
6.506307e-004,-1.416512e-003
7.396046e-004,-1.904005e-003
7.832003e-004,-2.493599e-003
7.726660e-004,-3.194047e-003
7.076777e-004,-3.920265e-003
5.977973e-004,-4.528014e-003
4.580970e-004,-4.881806e-003
3.107795e-004,-4.915030e-003
1.869616e-004,-4.647620e-003
1.128978e-004,-4.165147e-003
1.120874e-004,-3.569554e-003
1.932822e-004,-2.942035e-003
3.425444e-004,-2.330561e-003
5.439916e-004,-1.750853e-003
7.822278e-004,-1.202100e-003
1.036184e-003,-6.826808e-004
1.265345e-003,-2.073433e-004
1.409097e-003,1.853410e-004
1.406342e-003,4.636072e-004
1.205867e-003,6.402585e-004
8.003792e-004,7.595387e-004
2.320158e-004,8.642329e-004
-4.502792e-004,9.700617e-004
-1.188973e-003,1.062763e-003
-1.888771e-003,1.114462e-003
-2.432825e-003,1.111059e-003
-2.736212e-003,1.075890e-003
-2.796824e-003,1.046233e-003
-2.663606e-003,1.049312e-003
-2.387933e-003,1.089342e-003
-2.007727e-003,1.156113e-003
-1.554754e-003,1.229691e-003
-1.071637e-003,1.287386e-003
-6.235270e-004,1.320772e-003
-2.762210e-004,1.343785e-003
-4.965376e-005,1.374253e-003
8.550872e-005,1.417201e-003
1.598967e-004,1.462417e-003
1.780480e-004,1.504878e-003
1.359110e-004,1.547015e-003
6.265751e-005,1.586235e-003
8.851824e-006,1.621403e-003
2.424803e-005,1.660623e-003
1.341283e-004,1.710702e-003
3.300653e-004,1.778607e-003
5.775391e-004,1.867743e-003
8.340888e-004,1.978758e-003
1.068435e-003,2.114732e-003
1.259835e-003,2.283118e-003
1.394998e-003,2.470467e-003
1.475220e-003,2.626213e-003
1.503095e-003,2.671429e-003
1.469062e-003,2.544369e-003
1.361612e-003,2.249085e-003
1.194847e-003,1.854778e-003
1.014143e-003,1.449290e-003
8.616399e-004,1.080266e-003
7.575939e-004,7.292324e-004
7.044364e-004,3.242310e-004
6.520892e-004,-2.073433e-004
4.851619e-004,-8.581975e-004
8.875003e-005,-1.494466e-003
-5.238568e-004,-1.938525e-003
-1.209393e-003,-2.078063e-003
-1.803525e-003,-1.899629e-003
-2.209336e-003,-1.453788e-003
-2.418563e-003,-8.416669e-004
-2.451786e-003,-2.128535e-004
-2.307386e-003,2.827423e-004
-1.976934e-003,5.679773e-004
-1.495925e-003,6.451205e-004
-9.685640e-004,5.579292e-004
-5.251534e-004,3.760919e-004
-2.689281e-004,1.688103e-004
-2.269532e-004,-2.923353e-005
-3.399127e-004,-2.491561e-004
-5.045711e-004,-5.719902e-004
-6.186650e-004,-1.036631e-003
-5.972724e-004,-1.583278e-003
-3.770257e-004,-2.090380e-003
8.097089e-005,-2.428611e-003
7.700729e-004,-2.534440e-003
1.590773e-003,-2.455838e-003
2.350700e-003,-2.333154e-003
2.840788e-003,-2.276756e-003
2.942080e-003,-2.287776e-003
2.666891e-003,-2.285021e-003
2.137907e-003,-2.179679e-003
1.503258e-003,-1.924425e-003
8.624502e-004,-1.567071e-003
2.485465e-004,-1.301284e-003
-3.211132e-004,-1.401116e-003
-7.974231e-004,-1.949221e-003
-1.061265e-003,-2.722112e-003
-1.005029e-003,-3.352062e-003
-6.736051e-004,-3.528065e-003
-3.271096e-004,-3.074767e-003
-3.074997e-004,-2.000272e-003
-7.342176e-004,-4.731304e-004
-1.387827e-003,1.219643e-003
-1.904005e-003,2.739335e-003
-2.037385e-003,3.878501e-003
-1.781808e-003,4.541195e-003
-1.322677e-003,4.754152e-003
-8.870451e-004,4.634708e-003
-6.021344e-004,4.334721e-003
-4.478482e-004,4.001348e-003
-3.222476e-004,3.748199e-003
-1.378173e-004,3.626973e-003
1.380179e-004,3.625029e-003
4.861343e-004,3.678673e-003
8.515919e-004,3.706872e-003
1.168754e-003,3.645449e-003
1.394025e-003,3.461503e-003
1.526271e-003,3.153577e-003
1.600011e-003,2.746304e-003
1.655923e-003,2.281822e-003
1.699843e-003,1.791410e-003
1.699033e-003,1.294355e-003
1.616541e-003,7.906552e-004
1.458690e-003,2.679943e-004
1.264535e-003,-2.830278e-004
1.068760e-003,-8.387497e-004
8.763879e-004,-1.344880e-003
6.798024e-004,-1.747288e-003
4.926169e-004,-2.024420e-003
3.835469e-004,-2.191509e-003
4.360561e-004,-2.264115e-003
6.746164e-004,-2.219871e-003
1.005554e-003,-2.025230e-003
1.256756e-003,-1.691213e-003
1.302296e-003,-1.283457e-003
1.123862e-003,-8.917450e-004
8.044308e-004,-5.916001e-004
4.592314e-004,-4.178661e-004
1.783722e-004,-3.614674e-004
5.124321e-006,-3.891806e-004
-5.548811e-005,-4.695649e-004
-9.947754e-006,-5.901415e-004
8.891209e-005,-7.638755e-004
1.161391e-004,-1.001625e-003
-5.321920e-005,-1.282322e-003
-4.397449e-004,-1.550216e-003
-8.988759e-004,-1.747288e-003
-1.203072e-003,-1.828645e-003
-1.206314e-003,-1.780511e-003
-9.340441e-004,-1.616663e-003
-5.264499e-004,-1.370486e-003
-9.794922e-005,-1.081848e-003
3.226103e-004,-7.716547e-004
7.326358e-004,-4.462276e-004
1.101173e-003,-1.339277e-004
1.359505e-003,1.135460e-004
1.436324e-003,2.493568e-004
1.297758e-003,2.444948e-004
9.705480e-004,9.993253e-005
5.099580e-004,-1.415448e-004
-5.921561e-005,-4.130042e-004
-7.389174e-004,-6.473506e-004
-1.491711e-003,-7.883473e-004
-2.220195e-003,-8.071469e-004
-2.821620e-003,-7.095836e-004
-3.257739e-003,-5.267740e-004
-3.557561e-003,-2.980999e-004
-3.742479e-003,-6.407757e-005
-3.784940e-003,1.394765e-004
-3.634867e-003,2.829043e-004
-3.266815e-003,3.401134e-004
-2.725353e-003,3.004074e-004
-2.129438e-003,1.885823e-004
-1.601915e-003,6.849186e-005
-1.195455e-003,7.069105e-006
-8.833176e-004,2.149292e-005
-5.830107e-004,6.119892e-005
-2.222533e-004,5.876794e-005
1.709172e-004,-1.034161e-006
4.713863e-004,-7.461182e-005
5.752703e-004,-1.049180e-004
5.146578e-004,-5.953974e-005
4.503179e-004,5.909208e-005
5.352402e-004,2.263435e-004
8.160995e-004,4.164462e-004
1.231474e-003,6.144901e-004
1.676344e-003,8.011895e-004
2.049905e-003,9.515863e-004
2.304835e-003,1.035698e-003
2.424764e-003,1.033267e-003
2.383437e-003,9.370004e-004
2.157680e-003,7.496527e-004
1.776662e-003,4.896998e-004
1.316072e-003,2.018716e-004
8.624502e-004,-4.365734e-005
4.781931e-004,-1.807646e-004
1.683241e-004,-1.891920e-004
-1.264727e-004,-1.021629e-004
-4.564377e-004,2.700314e-005
-8.076332e-004,1.503349e-004
-1.101782e-003,2.401191e-004
-1.250071e-003,2.950592e-004
-1.210852e-003,3.277964e-004
-1.014428e-003,3.769022e-004
-7.300039e-004,5.055821e-004
-4.277521e-004,7.449528e-004
-1.692580e-004,1.091773e-003
2.084466e-005,1.512819e-003
1.759412e-004,1.931111e-003
3.431926e-004,2.237578e-003
5.307022e-004,2.329469e-003
7.216153e-004,2.150386e-003
8.990770e-004,1.723505e-003
1.045908e-003,1.159840e-003
1.130020e-003,6.075213e-004
1.130182e-003,1.798307e-004
1.064222e-003,-8.433573e-005
9.758961e-004,-2.243602e-004
9.044252e-004,-3.335922e-004
8.652053e-004,-5.160777e-004
8.442989e-004,-8.374532e-004
8.230684e-004,-1.292695e-003
8.015137e-004,-1.751988e-003
7.893587e-004,-2.004810e-003
7.859553e-004,-1.894605e-003
7.846588e-004,-1.425102e-003
7.822278e-004,-7.562584e-004
7.874139e-004,-1.384655e-004
8.032963e-004,1.556830e-004
8.182063e-004,-6.829127e-005
8.109135e-004,-7.703581e-004
7.632662e-004,-1.664797e-003
6.781818e-004,-2.399926e-003
5.655463e-004,-2.733781e-003
4.354078e-004,-2.588570e-003
2.861456e-004,-2.038357e-003
1.171115e-004,-1.264981e-003
-5.386745e-005,-4.744269e-004
-2.015090e-004,1.939304e-004
-3.099306e-004,7.089743e-004
-3.723258e-004,1.116569e-003
-3.823738e-004,1.456907e-003
-3.397507e-004,1.724315e-003
-2.606628e-004,1.870336e-003
-1.720131e-004,1.854292e-003
-1.131834e-004,1.673427e-003
-1.126972e-004,1.363881e-003
-1.656925e-004,1.010254e-003
-2.288980e-004,7.058950e-004
-2.676316e-004,5.007202e-004
-2.767073e-004,3.824125e-004
-2.575835e-004,2.772320e-004
-2.128535e-004,8.178122e-005
-1.571031e-004,-2.815692e-004
-1.248521e-004,-8.254603e-004
-1.575893e-004,-1.474856e-003
-2.648765e-004,-2.060236e-003
-4.102490e-004,-2.398143e-003
-5.235327e-004,-2.397981e-003
-5.238568e-004,-2.103832e-003
-3.687603e-004,-1.650049e-003
-6.893953e-005,-1.182490e-003
3.205035e-004,-7.974231e-004
7.157810e-004,-5.207775e-004
1.036671e-003,-3.245165e-004
1.234715e-003,-1.535376e-004
1.297596e-003,4.839576e-005
1.236497e-003,3.145071e-004
1.076377e-003,6.156246e-004
8.515919e-004,8.619640e-004
6.203245e-004,9.588792e-004
4.446456e-004,8.700673e-004
3.205035e-004,6.383138e-004
1.584381e-004,3.559958e-004
-1.754164e-004,1.503349e-004
-7.360002e-004,1.600588e-004
-1.370000e-003,4.114222e-004
-1.794125e-003,7.574318e-004
-1.826862e-003,1.005068e-003
-1.574202e-003,1.073622e-003
-1.324621e-003,9.985853e-004
-1.258823e-003,8.524022e-004
-1.321218e-003,7.211292e-004
-1.347797e-003,6.904988e-004
-1.258499e-003,8.076721e-004
-1.106644e-003,1.061143e-003
-1.003246e-003,1.407801e-003
-1.043924e-003,1.790438e-003
-1.260119e-003,2.126076e-003
-1.605481e-003,2.308076e-003
-1.976124e-003,2.221371e-003
-2.255039e-003,1.825444e-003
-2.358599e-003,1.215429e-003
-2.254715e-003,5.846701e-004
-1.972235e-003,1.273216e-004
-1.609208e-003,-6.213279e-005
-1.304363e-003,-1.821308e-005
-1.172442e-003,1.375317e-004
-1.233703e-003,2.889007e-004
-1.414243e-003,3.939191e-004
-1.575337e-003,4.707381e-004
-1.569016e-003,5.388056e-004
-1.316194e-003,5.927734e-004
-8.423151e-004,6.078454e-004
-2.438080e-004,5.475571e-004
3.720403e-004,3.838710e-004
9.280868e-004,1.120874e-004
1.405046e-003,-2.434839e-004
1.813451e-003,-6.353577e-004
2.154114e-003,-9.982219e-004
2.410502e-003,-1.277136e-003
2.556200e-003,-1.445684e-003
2.569976e-003,-1.516507e-003
2.444860e-003,-1.526879e-003
2.194792e-003,-1.505000e-003
1.867257e-003,-1.458974e-003
1.525461e-003,-1.382479e-003
1.232770e-003,-1.283619e-003
1.046395e-003,-1.191566e-003
9.681169e-004,-1.134033e-003
8.870842e-004,-1.124147e-003
6.227554e-004,-1.155425e-003
6.055066e-005,-1.184759e-003
-7.005080e-004,-1.158667e-003
-1.408895e-003,-1.036793e-003
-1.841286e-003,-8.045539e-004
-1.907733e-003,-4.778303e-004
-1.649887e-003,-1.015147e-004
-1.169849e-003,2.720459e-004
-5.779866e-004,5.977973e-004
2.975825e-005,8.499712e-004
5.785116e-004,1.030836e-003
1.030350e-003,1.158706e-003
1.364529e-003,1.258700e-003
1.569705e-003,1.344757e-003
1.641500e-003,1.413473e-003
1.587694e-003,1.447507e-003
1.436162e-003,1.428059e-003
1.232446e-003,1.353347e-003
1.035860e-003,1.231149e-003
8.891911e-004,1.059360e-003
8.073480e-004,8.254994e-004
7.851450e-004,5.428572e-004
8.039447e-004,2.739907e-004
8.361956e-004,9.199134e-005
8.524022e-004,3.397195e-005
8.326302e-004,8.745350e-005
7.728280e-004,2.098128e-004
6.880678e-004,3.645853e-004
5.950422e-004,5.187094e-004
5.047718e-004,6.409068e-004
4.341113e-004,7.096225e-004
4.091532e-004,7.118915e-004
4.569625e-004,6.386379e-004
5.906665e-004,4.743035e-004
8.016757e-004,2.140265e-004
1.056929e-003,-1.208004e-004
1.306186e-003,-4.825302e-004
1.497909e-003,-8.120089e-004
1.585263e-003,-1.068558e-003
1.523840e-003,-1.250234e-003
1.271017e-003,-1.381668e-003
8.204753e-004,-1.503541e-003
2.300710e-004,-1.643728e-003
-3.687603e-004,-1.784887e-003
-8.295119e-004,-1.870295e-003
-1.059321e-003,-1.841610e-003
-1.049272e-003,-1.685379e-003
-8.637077e-004,-1.436771e-003
-6.099135e-004,-1.147484e-003
-3.951770e-004,-8.575493e-004
-2.922655e-004,-5.732867e-004
-3.230579e-004,-2.788141e-004
-4.522240e-004,4.239934e-005
-5.964621e-004,3.932708e-004
-6.666363e-004,7.512733e-004
-6.082929e-004,1.069408e-003
-4.261314e-004,1.308941e-003
-1.724993e-004,1.461769e-003
8.567078e-005,1.537291e-003
2.961937e-004,1.541343e-003
4.310321e-004,1.436486e-003
4.901859e-004,1.133910e-003
5.007202e-004,6.251864e-004
4.916445e-004,5.260946e-005
4.749518e-004,-3.770257e-004
4.474007e-004,-5.279084e-004
4.080188e-004,-3.872358e-004
3.631267e-004,-3.749886e-005
3.182346e-004,4.170944e-004
2.845250e-004,9.044252e-004
2.657254e-004,1.373119e-003
2.487085e-004,1.764994e-003
2.012234e-004,2.001124e-003
8.145709e-005,1.988158e-003
-1.272830e-004,1.647820e-003
-3.919357e-004,9.752478e-004
-6.612882e-004,1.017153e-004
-9.162169e-004,-6.881910e-004
-1.152184e-003,-1.098378e-003
-1.352173e-003,-9.972495e-004
-1.483932e-003,-4.494688e-004
-1.502569e-003,3.514580e-004
-1.387017e-003,1.161299e-003
-1.163853e-003,1.773421e-003
-8.881796e-004,2.051526e-003
-6.180168e-004,1.941321e-003
-4.002010e-004,1.470844e-003
-2.582318e-004,7.425218e-004
-1.919471e-004,-9.730096e-005
-1.823853e-004,-8.954725e-004
-2.185258e-004,-1.546327e-003
-3.100927e-004,-1.993465e-003
-4.611376e-004,-2.237050e-003
-6.541573e-004,-2.373995e-003
-8.457185e-004,-2.594242e-003
-9.826636e-004,-3.064395e-003
-1.016049e-003,-3.775378e-003
-9.168651e-004,-4.522018e-003
-6.773326e-004,-4.967378e-003
-3.214373e-004,-4.967540e-003
1.025256e-004,-4.852796e-003
5.344298e-004,-4.265629e-003
9.135009e-004,-3.555940e-003
1.188202e-003,-2.842689e-003
1.320772e-003,-2.164930e-003
1.301000e-003,-1.497707e-003
1.151737e-003,-8.079573e-004
9.075044e-004,-9.632857e-005
5.992560e-004,5.824011e-004
2.535705e-004,1.159840e-003
-1.010285e-004,1.588180e-003
-4.284004e-004,1.856237e-003
-6.839773e-004,1.996099e-003
-8.191398e-004,2.064329e-003
-8.196260e-004,2.106142e-003
-7.246558e-004,2.148604e-003
-6.082929e-004,2.203058e-003
-5.494631e-004,2.272908e-003
-5.833348e-004,2.358479e-003
-6.680949e-004,2.454746e-003
-7.222248e-004,2.540804e-003
-6.813843e-004,2.588289e-003
-5.236948e-004,2.579051e-003
-2.765452e-004,2.511794e-003
-9.137427e-006,2.388461e-003
2.046267e-004,2.212296e-003
3.104554e-004,1.988969e-003
2.872801e-004,1.727881e-003
1.597346e-004,1.437297e-003
-2.096820e-005,1.111059e-003
-1.921092e-004,7.447907e-004
-3.130099e-004,3.506476e-004
-3.967976e-004,-3.069211e-005
-5.136467e-004,-3.348887e-004
-7.243316e-004,-5.144570e-004
-1.015725e-003,-5.630766e-004
-1.313763e-003,-5.081365e-004
-1.538224e-003,-3.886944e-004
-1.645997e-003,-2.399184e-004
-1.630925e-003,-8.352541e-005
-1.499976e-003,6.784360e-005
-1.264009e-003,2.047888e-004
-9.361509e-004,3.200173e-004
-5.446012e-004,4.085050e-004
-1.287416e-004,4.694416e-004
2.712356e-004,5.054200e-004
6.222692e-004,5.206542e-004
9.115561e-004,5.164405e-004
1.144768e-003,4.955341e-004
1.333575e-003,4.645796e-004
1.489968e-003,4.266563e-004
1.617190e-003,3.840331e-004
1.706488e-003,3.380065e-004
1.745060e-003,2.947351e-004
1.727232e-003,2.568118e-004
1.655599e-003,2.196988e-004
1.541667e-003,1.749688e-004
1.404884e-003,1.078737e-004
1.263076e-003,-1.270286e-005
1.111383e-003,-2.190120e-004
9.198214e-004,-4.907955e-004
6.747784e-004,-7.530171e-004
4.214702e-004,-9.178375e-004
2.491947e-004,-9.322613e-004
2.320158e-004,-7.954782e-004
3.853296e-004,-5.499493e-004
6.665131e-004,-2.540181e-004
9.950198e-004,3.380988e-005
1.293545e-003,2.525981e-004
1.499530e-003,3.143450e-004
1.588828e-003,1.435281e-004
1.579590e-003,-2.199844e-004
1.501961e-003,-6.330888e-004
1.370202e-003,-9.366371e-004
1.191281e-003,-1.021559e-003
9.911302e-004,-8.428013e-004
8.024860e-004,-4.157593e-004
6.465791e-004,1.851789e-004
5.324850e-004,8.446231e-004
4.556660e-004,1.446535e-003
3.608578e-004,1.912149e-003
1.235941e-004,2.195765e-003
-3.587123e-004,2.272908e-003
-1.023504e-003,2.136449e-003
-1.636921e-003,1.809562e-003
-1.951004e-003,1.358857e-003
-1.863489e-003,8.744431e-004
-1.464322e-003,4.530729e-004
-9.748845e-004,1.788584e-004
-6.103997e-004,9.053275e-005
-4.689167e-004,1.357490e-004
-5.245051e-004,2.201850e-004
-6.911082e-004,2.785285e-004
-8.839659e-004,2.746390e-004
-1.060293e-003,1.633001e-004
-1.224627e-003,-1.172350e-004
-1.395120e-003,-5.739350e-004
-1.570799e-003,-1.109399e-003
-1.720709e-003,-1.581657e-003
-1.801580e-003,-1.883585e-003
-1.770139e-003,-1.982283e-003
-1.598512e-003,-1.917943e-003
-1.288643e-003,-1.759119e-003
-8.810487e-004,-1.583440e-003
-4.387725e-004,-1.480204e-003
-3.150244e-005,-1.508079e-003
2.807975e-004,-1.625739e-003
4.499937e-004,-1.720385e-003
4.728449e-004,-1.679220e-003
3.978086e-004,-1.446008e-003
3.013798e-004,-1.045059e-003
2.495189e-004,-5.642111e-004
2.681563e-004,-9.713889e-005
3.300653e-004,3.104554e-004
3.816021e-004,6.540340e-004
3.901916e-004,9.160939e-004
3.600474e-004,1.032133e-003
3.125623e-004,9.386210e-004
2.775562e-004,6.532237e-004
2.748010e-004,2.979764e-004
2.835526e-004,2.165498e-005
2.584324e-004,-1.028112e-004
1.963614e-004,-1.138316e-004
1.731861e-004,-1.045939e-004
2.999212e-004,-1.428413e-004
6.418792e-004,-2.339220e-004
1.166161e-003,-3.361852e-004
1.765480e-003,-4.151110e-004
2.298839e-003,-4.603272e-004
2.623457e-003,-4.836646e-004
2.650684e-003,-5.032745e-004
2.387975e-003,-5.434667e-004
1.927059e-003,-6.740913e-004
1.393053e-003,-9.988702e-004
9.379727e-004,-1.530606e-003
6.885540e-004,-2.131383e-003
6.483617e-004,-2.590839e-003
6.789921e-004,-2.734267e-003
5.883976e-004,-2.471721e-003
2.650771e-004,-1.824755e-003
-2.567732e-004,-9.071412e-004
-8.299981e-004,1.125736e-004
-1.287184e-003,1.040398e-003
-1.502893e-003,1.737605e-003
-1.421537e-003,2.156383e-003
-1.041655e-003,2.322176e-003
-4.180282e-004,2.310345e-003
3.190449e-004,2.207272e-003
9.788133e-004,2.082967e-003
1.395646e-003,1.981189e-003
1.472465e-003,1.916363e-003
1.203760e-003,1.873092e-003
6.661890e-004,1.818962e-003
-2.168618e-006,1.734363e-003
-6.548056e-004,1.628372e-003
-1.187028e-003,1.530647e-003
-1.554592e-003,1.466307e-003
-1.747612e-003,1.439080e-003
-1.773542e-003,1.443455e-003
-1.648752e-003,1.461607e-003
-1.405006e-003,1.463551e-003
-1.099027e-003,1.436324e-003
-8.236776e-004,1.386894e-003
-6.667984e-004,1.319475e-003
-6.272545e-004,1.206029e-003
-6.047274e-004,1.004420e-003
-4.839888e-004,6.961711e-004
-1.964849e-004,3.132105e-004
2.619979e-004,-7.234290e-005
8.410576e-004,-3.893426e-004
1.467117e-003,-6.129927e-004
2.070650e-003,-7.829992e-004
2.608385e-003,-9.917393e-004
3.032837e-003,-1.345366e-003
3.285661e-003,-1.883747e-003
3.326988e-003,-2.496355e-003
3.138342e-003,-2.967479e-003
2.714214e-003,-3.104587e-003
2.067571e-003,-2.839447e-003
1.254325e-003,-2.251473e-003
4.182289e-004,-1.509862e-003
-2.515871e-004,-7.920748e-004
-6.502678e-004,-2.292221e-004
-8.556045e-004,1.257009e-004
-1.182490e-003,2.876042e-004
-1.993951e-003,3.136967e-004
-3.376858e-003,2.634565e-004
-4.967702e-003,1.898788e-004
-4.967702e-003,1.576278e-004
-4.967702e-003,2.143507e-004
-4.967702e-003,3.608578e-004
-4.967702e-003,5.321609e-004
-4.967863e-003,6.287518e-004
-3.881045e-003,5.686256e-004
-2.371888e-003,3.172622e-004
-1.150401e-003,-1.075111e-004
-2.930758e-004,-6.009999e-004
2.608634e-004,-9.821774e-004
6.438239e-004,-1.078120e-003
9.839993e-004,-7.977472e-004
1.368095e-003,-1.906506e-004
1.828523e-003,5.533914e-004
2.332711e-003,1.206839e-003
2.806430e-003,1.632586e-003
3.178535e-003,1.799190e-003
3.392949e-003,1.762239e-003
3.409804e-003,1.613300e-003
3.211596e-003,1.439242e-003
2.801730e-003,1.292734e-003
2.196899e-003,1.172644e-003
1.432597e-003,1.038453e-003
5.858046e-004,8.267959e-004
-1.836818e-004,4.574487e-004
-6.612882e-004,-1.151281e-004
-6.969426e-004,-8.227052e-004
-2.673075e-004,-1.497545e-003
4.999099e-004,-1.958459e-003
1.383167e-003,-2.088435e-003
2.166431e-003,-1.879857e-003
2.677425e-003,-1.435960e-003
2.818423e-003,-9.338820e-004
2.592341e-003,-5.407116e-004
2.077457e-003,-3.306750e-004
1.376522e-003,-2.588801e-004
5.856425e-004,-2.141500e-004
-1.831956e-004,-8.709085e-005
-8.184915e-004,1.667035e-004
-1.263199e-003,5.101200e-004
-1.528824e-003,8.541849e-004
-1.640487e-003,1.104414e-003
-1.590409e-003,1.202788e-003
-1.344718e-003,1.133586e-003
-9.230236e-004,9.230627e-004
-4.376381e-004,6.316690e-004
-5.581224e-005,3.294171e-004
1.054428e-004,6.978839e-005
3.915804e-005,-1.112386e-004
-1.690959e-004,-1.909747e-004
-4.102490e-004,-1.648822e-004
-6.091032e-004,-5.467778e-005
-7.322728e-004,9.879808e-005
-7.765166e-004,2.595669e-004
-7.402140e-004,4.055878e-004
-6.445955e-004,5.245438e-004
-5.397392e-004,6.093040e-004
-4.580583e-004,6.451205e-004
-3.684362e-004,6.177314e-004
-1.731475e-004,5.221128e-004
2.219677e-004,3.663680e-004
8.212856e-004,1.756171e-004
1.531295e-003,-2.583016e-005
2.184906e-003,-2.190120e-004
2.605792e-003,-3.854531e-004
2.674508e-003,-4.904714e-004
2.369175e-003,-5.261258e-004
1.773421e-003,-5.309877e-004
1.059684e-003,-5.548113e-004
4.226047e-004,-6.202856e-004
-3.312309e-005,-7.144455e-004
-3.450988e-004,-8.079573e-004
-6.159099e-004,-8.744040e-004
-9.108688e-004,-9.029275e-004
-1.241158e-003,-9.251304e-004
-1.572744e-003,-1.042790e-003
-1.840475e-003,-1.345204e-003
-1.953111e-003,-1.793152e-003
-1.819893e-003,-2.243694e-003
-1.413595e-003,-2.537519e-003
-8.086055e-004,-2.596835e-003
-1.603444e-004,-2.483713e-003
3.715541e-004,-2.312896e-003
6.906608e-004,-2.115014e-003
7.867657e-004,-1.824431e-003
6.986021e-004,-1.347635e-003
4.746277e-004,-6.283889e-004
1.456350e-004,3.136967e-004
-2.548284e-004,1.370202e-003
-6.595054e-004,2.408558e-003
-9.949806e-004,3.326664e-003
-1.202748e-003,4.063096e-003
-1.246506e-003,4.592408e-003
-1.118312e-003,4.902768e-003
-8.413427e-004,4.958519e-003
-4.700511e-004,4.894016e-003
-7.607040e-005,4.639894e-003
2.631324e-004,4.297121e-003
4.948858e-004,3.921287e-003
6.151384e-004,3.535892e-003
6.624615e-004,3.127808e-003
6.898505e-004,2.662353e-003
7.316634e-004,2.116677e-003
7.681281e-004,1.499530e-003
7.261531e-004,8.475402e-004
5.399400e-004,2.201850e-004
2.208333e-004,-3.102548e-004
-1.423551e-004,-6.967805e-004
-4.233763e-004,-9.434438e-004
-5.321222e-004,-1.097082e-003
-4.583824e-004,-1.222520e-003
-2.486699e-004,-1.378103e-003
3.332369e-005,-1.588464e-003
3.383307e-004,-1.830589e-003
6.153004e-004,-2.053429e-003
8.139926e-004,-2.205933e-003
8.911358e-004,-2.252932e-003
8.227442e-004,-2.153100e-003
6.037938e-004,-1.841286e-003
2.741528e-004,-1.299015e-003
-8.854943e-005,-5.961379e-004
-4.074939e-004,1.428799e-004
-6.356818e-004,7.762314e-004
-7.280591e-004,1.198736e-003
-6.608020e-004,1.342975e-003
-4.852853e-004,1.195981e-003
-3.126857e-004,8.245269e-004
-2.089640e-004,3.694472e-004
-1.212866e-004,-8.002969e-006
6.508849e-005,-2.135018e-004
4.198496e-004,-2.386219e-004
9.256558e-004,-1.686097e-004
1.500178e-003,-1.413827e-004
2.037751e-003,-2.984240e-004
2.435623e-003,-7.150938e-004
2.601254e-003,-1.333859e-003
2.468360e-003,-1.980176e-003
2.027216e-003,-2.445142e-003
1.345244e-003,-2.595539e-003
5.499881e-004,-2.434121e-003
-2.274394e-004,-2.084222e-003
-8.789418e-004,-1.692996e-003
-1.333859e-003,-1.340666e-003
-1.546813e-003,-1.032904e-003
-1.490901e-003,-7.551240e-004
-1.220900e-003,-5.384427e-004
-9.189720e-004,-4.789647e-004
-8.343739e-004,-6.974287e-004
-1.122040e-003,-1.250558e-003
-1.662690e-003,-2.019720e-003
-2.131383e-003,-2.731350e-003
-2.235753e-003,-3.109935e-003
-1.870458e-003,-3.028740e-003
-1.139705e-003,-2.536871e-003
-2.553146e-004,-1.811466e-003
5.710566e-004,-1.048138e-003
1.197116e-003,-3.814014e-004
1.575539e-003,1.312112e-004
1.728043e-003,4.874308e-004
1.709891e-003,7.097846e-004
1.594663e-003,8.360335e-004
1.454314e-003,9.055596e-004
1.331468e-003,9.538552e-004
1.210243e-003,1.000530e-003
1.013333e-003,1.048339e-003
6.639201e-004,1.084480e-003
1.566554e-004,1.092421e-003
-4.092767e-004,1.061791e-003
-8.808867e-004,9.935612e-004
-1.158342e-003,9.003736e-004
-1.241806e-003,8.018378e-004
-1.203397e-003,7.182120e-004
-1.139867e-003,6.634339e-004
-1.123174e-003,6.391241e-004
-1.169201e-003,6.339379e-004
-1.231596e-003,6.219451e-004
-1.243913e-003,5.660325e-004
-1.172442e-003,4.530729e-004
-1.020911e-003,3.124002e-004
-8.113607e-004,2.036544e-004
-5.809038e-004,1.752929e-004
-3.718396e-004,2.318537e-004
-2.175534e-004,3.389789e-004
-1.306864e-004,4.297355e-004
-9.519411e-005,4.247115e-004
-7.299116e-005,2.913317e-004
-1.837515e-005,8.016057e-005
1.009049e-004,-1.120489e-004
2.914938e-004,-2.070192e-004
5.248679e-004,-1.690959e-004
7.517595e-004,1.727922e-005
9.214421e-004,3.417340e-004
9.989094e-004,7.504630e-004
9.697376e-004,1.165351e-003
8.506195e-004,1.509254e-003
6.843403e-004,1.728043e-003
5.255162e-004,1.800324e-003
4.133669e-004,1.730960e-003
3.444891e-004,1.541667e-003
2.717218e-004,1.266480e-003
1.315353e-004,9.596896e-004
-1.088076e-004,6.768853e-004
-4.157593e-004,4.448076e-004
-6.987253e-004,2.318537e-004
-8.680834e-004,-2.599222e-005
-8.896381e-004,-3.394265e-004
-7.804062e-004,-6.283889e-004
-5.984068e-004,-7.690616e-004
-4.159214e-004,-6.778188e-004
-2.935620e-004,-3.721637e-004
-2.501286e-004,4.207521e-005
-2.611490e-004,4.391353e-004
-2.736280e-004,7.428459e-004
-2.387840e-004,9.407279e-004
-1.483515e-004,1.059684e-003
-4.819517e-005,1.152548e-003
6.582909e-006,1.266318e-003
9.986281e-006,1.409746e-003
3.827799e-006,1.552364e-003
5.163707e-005,1.646199e-003
1.963614e-004,1.656734e-003
4.389733e-004,1.575053e-003
7.409012e-004,1.408287e-003
1.050932e-003,1.161137e-003
1.329037e-003,8.418679e-004
1.568894e-003,4.728449e-004
1.801459e-003,8.518459e-005
2.060116e-003,-2.932379e-004
2.337249e-003,-6.424887e-004
2.591044e-003,-9.496023e-004
2.759917e-003,-1.201290e-003
2.778879e-003,-1.384748e-003
2.580024e-003,-1.492359e-003
2.128994e-003,-1.527689e-003
1.471817e-003,-1.507755e-003
7.409012e-004,-1.449574e-003
1.031738e-004,-1.368379e-003
-3.201407e-004,-1.272112e-003
-5.183466e-004,-1.158505e-003
-5.689110e-004,-1.025611e-003
-5.669662e-004,-8.766730e-004
-5.515700e-004,-7.266005e-004
-5.144570e-004,-5.745832e-004
-4.450931e-004,-3.822118e-004
-3.603330e-004,-1.047560e-004
-3.092824e-004,2.713977e-004
-3.449367e-004,7.227498e-004
-4.959816e-004,1.186743e-003
-7.676030e-004,1.554632e-003
-1.139867e-003,1.705029e-003
-1.563182e-003,1.551067e-003
-1.961052e-003,1.075566e-003
-2.253580e-003,3.700955e-004
-2.365892e-003,-3.797808e-004
-2.236563e-003,-9.839601e-004
-1.846796e-003,-1.327701e-003
-1.249099e-003,-1.392527e-003
-5.562698e-004,-1.258985e-003
8.599492e-005,-1.063858e-003
5.344298e-004,-9.646744e-004
7.133500e-004,-1.074068e-003
6.381517e-004,-1.372269e-003
4.031568e-004,-1.706123e-003
1.404489e-004,-1.935122e-003
-3.182657e-005,-2.094756e-003
-4.268495e-005,-2.319379e-003
1.534141e-004,-2.631193e-003
5.576051e-004,-2.886284e-003
1.060332e-003,-2.866999e-003
1.422711e-003,-2.390202e-003
1.368581e-003,-1.399820e-003
7.964896e-004,2.369211e-006
-1.052422e-004,1.558522e-003
-9.748845e-004,2.968334e-003
-1.542923e-003,4.035868e-003
-1.737078e-003,4.673118e-003
-1.636273e-003,4.894665e-003
-1.371296e-003,4.815737e-003
-1.058672e-003,4.588518e-003
-7.718167e-004,4.304900e-003
-5.266119e-004,3.984655e-003
-2.972895e-004,3.625353e-003
-3.782299e-005,3.232827e-003
2.678322e-004,2.830902e-003
5.848321e-004,2.428492e-003
8.572642e-004,1.998693e-003
1.030674e-003,1.489644e-003
1.074756e-003,8.828705e-004
9.898337e-004,2.143507e-004
8.089686e-004,-4.541688e-004
5.694359e-004,-1.082820e-003
2.785285e-004,-1.670145e-003
-7.461182e-005,-2.227164e-003
-4.719959e-004,-2.747232e-003
-8.356704e-004,-3.179299e-003
-1.055269e-003,-3.447681e-003
-1.064507e-003,-3.485766e-003
-8.719731e-004,-3.278808e-003
-5.634008e-004,-2.885798e-003
-2.673075e-004,-2.419536e-003
-9.098041e-005,-1.986334e-003
-5.808115e-005,-1.638218e-003
-1.191798e-004,-1.355900e-003
-1.705545e-004,-1.092058e-003
-1.068628e-004,-8.178432e-004
5.682316e-005,-5.489769e-004
1.814514e-004,-3.318095e-004
1.263492e-004,-2.073433e-004
-1.151281e-004,-1.799543e-004
-4.023079e-004,-2.219292e-004
-5.658317e-004,-2.906449e-004
