-3.587123e-004,-1.110765e-004
-7.095836e-004,-7.250496e-005
-1.125443e-003,-4.057810e-005
-1.599808e-003,-1.464765e-005
-2.100428e-003,7.393236e-006
-2.579332e-003,2.667901e-005
-2.980283e-003,4.272347e-005
-3.262115e-003,5.504044e-005
-3.434067e-003,6.071273e-005
-3.504890e-003,5.974033e-005
-3.455946e-003,5.844381e-005
-3.243964e-003,6.525056e-005
-2.838151e-003,8.356394e-005
-2.260549e-003,1.128978e-004
-1.581981e-003,1.511452e-004
-8.943381e-004,1.940925e-004
-2.906449e-004,2.402811e-004
1.592484e-004,2.861456e-004
4.195254e-004,3.260137e-004
5.057442e-004,3.592371e-004
4.709002e-004,3.863020e-004
3.754436e-004,4.047775e-004
2.556773e-004,4.135290e-004
1.338042e-004,4.115842e-004
4.239934e-005,4.005638e-004
9.662150e-006,3.853296e-004
3.478228e-005,3.717161e-004
7.918817e-005,3.636129e-004
9.393612e-005,3.626405e-004
4.434413e-005,3.663680e-004
-6.602235e-005,3.694472e-004
-1.997262e-004,3.639370e-004
-3.006929e-004,3.506476e-004
-3.175477e-004,3.326584e-004
-2.267911e-004,3.122381e-004
-4.252288e-005,2.872801e-004
1.884202e-004,2.584324e-004
4.086671e-004,2.300710e-004
5.840218e-004,2.067336e-004
7.016813e-004,1.963614e-004
7.590525e-004,1.981441e-004
7.700729e-004,2.015475e-004
7.684522e-004,1.952270e-004
7.906552e-004,1.694586e-004
8.519160e-004,1.143563e-004
9.365142e-004,2.765140e-005
1.020302e-003,-7.866345e-005
1.087559e-003,-1.814128e-004
1.124510e-003,-2.621213e-004
1.120945e-003,-3.107410e-004
1.074918e-003,-3.311612e-004
1.010416e-003,-3.327818e-004
9.551517e-004,-3.217614e-004
9.131767e-004,-3.066893e-004
8.699053e-004,-2.904828e-004
8.138306e-004,-2.692523e-004
7.475458e-004,-2.395943e-004
6.793162e-004,-1.982676e-004
6.188659e-004,-1.464067e-004
5.755944e-004,-8.887356e-005
5.431813e-004,-3.992984e-005
4.961824e-004,-1.480971e-005
4.138531e-004,-2.275091e-005
2.995970e-004,-6.245691e-005
1.931201e-004,-1.208004e-004
1.448246e-004,-1.802784e-004
1.790204e-004,-2.271153e-004
2.903593e-004,-2.549905e-004
4.469145e-004,-2.674695e-004
5.895320e-004,-2.695764e-004
6.571133e-004,-2.666592e-004
6.046041e-004,-2.609869e-004
4.240633e-004,-2.512630e-004
1.279698e-004,-2.431597e-004
-2.626076e-004,-2.438080e-004
-6.849497e-004,-2.588801e-004
-1.027880e-003,-2.895104e-004
-1.177466e-003,-3.261372e-004
-1.079417e-003,-3.557951e-004
-7.685754e-004,-3.655190e-004
-3.585502e-004,-3.506090e-004
8.689758e-006,-3.173856e-004
2.232643e-004,-2.754107e-004
2.389846e-004,-2.276015e-004
7.319176e-005,-1.723372e-004
-1.984297e-004,-1.042698e-004
-4.726442e-004,-2.080613e-005
-6.698776e-004,7.059871e-005
-7.360002e-004,1.590864e-004
-6.225546e-004,2.326641e-004
-3.050687e-004,2.833905e-004
1.833962e-004,3.101313e-004
7.537043e-004,3.174242e-004
1.308455e-003,3.124002e-004
1.773097e-003,3.005694e-004
2.110194e-003,2.845250e-004
2.323797e-003,2.618358e-004
2.434974e-003,2.290986e-004
2.468684e-003,1.791825e-004
2.447616e-003,1.091703e-004
2.408882e-003,2.457216e-005
2.382951e-003,-5.856735e-005
2.373551e-003,-1.220970e-004
2.345352e-003,-1.473791e-004
2.222019e-003,-1.227452e-004
1.888488e-003,-5.192267e-005
1.256594e-003,5.131294e-005
3.388169e-004,1.702689e-004
-7.275729e-004,2.963557e-004
-1.729299e-003,4.282770e-004
-2.517099e-003,5.640878e-004
-3.028578e-003,6.995744e-004
-3.253850e-003,8.227442e-004
-3.236185e-003,9.209559e-004
-3.101508e-003,9.804339e-004
-3.048026e-003,9.843234e-004
-3.259846e-003,9.235489e-004
-3.786237e-003,8.045929e-004
-4.501760e-003,6.478756e-004
-4.968350e-003,4.812723e-004
-4.968350e-003,3.328204e-004
-4.968350e-003,2.227781e-004
-4.120579e-003,1.582761e-004
-2.867161e-003,1.354248e-004
-1.585547e-003,1.367214e-004
-5.405495e-004,1.422316e-004
1.133840e-004,1.396385e-004
3.652335e-004,1.281319e-004
3.287688e-004,1.111150e-004
1.667035e-004,8.648112e-005
3.786152e-005,5.082674e-005
4.450620e-005,3.989864e-006
1.979821e-004,-4.527799e-005
4.347596e-004,-8.676672e-005
6.720233e-004,-1.185315e-004
8.558056e-004,-1.447861e-004
9.886993e-004,-1.736337e-004
1.104738e-003,-2.109087e-004
1.240873e-003,-2.592042e-004
1.406504e-003,-3.133340e-004
1.581859e-003,-3.692465e-004
1.737118e-003,-4.288866e-004
1.842623e-003,-4.898231e-004
1.880709e-003,-5.488148e-004
1.849106e-003,-6.058619e-004
1.758835e-003,-6.561021e-004
1.623834e-003,-6.914323e-004
1.470682e-003,-7.055320e-004
1.331306e-003,-6.922426e-004
1.234877e-003,-6.520505e-004
1.200519e-003,-5.880346e-004
1.237632e-003,-5.073262e-004
1.346216e-003,-4.183523e-004
1.501799e-003,-3.253268e-004
1.666944e-003,-2.316531e-004
1.809400e-003,-1.368449e-004
1.914580e-003,-4.187462e-005
1.997396e-003,4.920609e-005
2.082481e-003,1.221355e-004
2.176641e-003,1.631380e-004
2.254271e-003,1.686482e-004
2.276636e-003,1.469315e-004
2.202248e-003,1.088461e-004
1.989779e-003,6.265751e-005
1.594176e-003,1.387585e-005
1.003609e-003,-2.955766e-005
2.843629e-004,-6.213279e-005
-4.418518e-004,-8.206682e-005
-1.076986e-003,-8.806324e-005
-1.590247e-003,-8.352541e-005
-1.969479e-003,-6.877746e-005
-2.219547e-003,-4.787104e-005
-2.368809e-003,-2.242678e-005
-2.420508e-003,8.041497e-006
-2.307386e-003,4.239934e-005
-1.966400e-003,8.226741e-005
-1.419430e-003,1.286181e-004
-7.611204e-004,1.746447e-004
-1.323071e-004,2.124059e-004
3.188828e-004,2.378501e-004
5.096338e-004,2.519498e-004
4.334631e-004,2.582704e-004
1.278078e-004,2.619979e-004
-3.624398e-004,2.673460e-004
-9.492782e-004,2.788527e-004
-1.463187e-003,2.963557e-004
-1.700775e-003,3.167760e-004
-1.545192e-003,3.333067e-004
-1.035497e-003,3.456236e-004
-3.462333e-004,3.503235e-004
2.743149e-004,3.448133e-004
5.963388e-004,3.308757e-004
5.224369e-004,3.127243e-004
1.033359e-004,2.937627e-004
-5.151053e-004,2.773941e-004
-1.129495e-003,2.637806e-004
-1.549244e-003,2.542187e-004
-1.662690e-003,2.472499e-004
-1.492035e-003,2.397949e-004
-1.181194e-003,2.274780e-004
-9.293442e-004,2.086784e-004
-8.863969e-004,1.861513e-004
-1.082010e-003,1.611932e-004
-1.422347e-003,1.334801e-004
-1.765439e-003,1.057669e-004
-1.991034e-003,7.967438e-005
-2.030092e-003,5.698522e-005
-1.853117e-003,4.029250e-005
-1.463187e-003,3.040651e-005
-9.149204e-004,2.635488e-005
-3.246786e-004,2.424803e-005
1.811273e-004,1.987227e-005
5.542018e-004,8.689758e-006
8.436506e-004,-1.367526e-005
1.113976e-003,-4.835724e-005
1.380574e-003,-8.806324e-005
1.613300e-003,-1.240417e-004
1.777311e-003,-1.536997e-004
1.876819e-003,-1.773612e-004
1.977624e-003,-1.948643e-004
2.177289e-003,-2.053985e-004
2.515845e-003,-2.141500e-004
2.907560e-003,-2.209568e-004
3.212244e-003,-2.246843e-004
3.336064e-003,-2.250084e-004
3.279988e-003,-2.261429e-004
3.114518e-003,-2.345703e-004
2.897187e-003,-2.504527e-004
2.619730e-003,-2.720074e-004
2.226233e-003,-2.976137e-004
1.697088e-003,-3.254889e-004
1.117865e-003,-3.514194e-004
6.399344e-004,-3.697327e-004
3.546993e-004,-3.771877e-004
2.221298e-004,-3.747568e-004
1.571416e-004,-3.651949e-004
1.023635e-004,-3.535262e-004
3.341602e-006,-3.486642e-004
-2.156086e-004,-3.462333e-004
-6.849497e-004,-3.331060e-004
-1.488470e-003,-3.000446e-004
-2.494572e-003,-2.444563e-004
-3.432284e-003,-1.733096e-004
-4.083304e-003,-9.568031e-005
-4.317004e-003,-2.275091e-005
-4.078442e-003,4.045456e-005
-3.432770e-003,9.507057e-005
-2.572849e-003,1.409351e-004
-1.732540e-003,1.739964e-004
-1.082820e-003,1.890685e-004
-6.830050e-004,1.924718e-004
-4.933886e-004,1.947408e-004
-4.057112e-004,2.043026e-004
-3.070135e-004,2.190506e-004
-1.486757e-004,2.321778e-004
5.066468e-005,2.349330e-004
2.404432e-004,2.252090e-004
3.733368e-004,2.085163e-004
4.235771e-004,2.018716e-004
3.781987e-004,2.154851e-004
2.453052e-004,2.525981e-004
7.756752e-005,3.080245e-004
-4.009191e-005,3.691231e-004
-3.296103e-005,4.260080e-004
1.321835e-004,4.738173e-004
4.456179e-004,5.080132e-004
8.400852e-004,5.272989e-004
1.214457e-003,5.354022e-004
1.504554e-003,5.363746e-004
1.707622e-003,5.358884e-004
1.859316e-003,5.365367e-004
1.991886e-003,5.352402e-004
2.104036e-003,5.256782e-004
2.168862e-003,5.005581e-004
2.154600e-003,4.579349e-004
2.031592e-003,4.042913e-004
1.776176e-003,3.504856e-004
1.379764e-003,3.010556e-004
8.660157e-004,2.534084e-004
3.017039e-004,2.060853e-004
-2.034537e-004,1.576278e-004
-5.460597e-004,1.091703e-004
-7.176869e-004,6.557468e-005
-8.358325e-004,3.413401e-005
-1.085575e-003,1.760335e-005
-1.585547e-003,1.338965e-005
-2.297500e-003,1.614476e-005
-3.000055e-003,2.133085e-005
-3.387878e-003,2.586868e-005
-3.244774e-003,2.538249e-005
-2.566691e-003,1.954813e-005
-1.541951e-003,3.503668e-006
-4.228902e-004,-2.761287e-005
5.618189e-004,-7.072225e-005
1.259673e-003,-1.167488e-004
1.635503e-003,-1.567789e-004
1.699843e-003,-1.862748e-004
1.519788e-003,-2.034537e-004
1.227260e-003,-2.104225e-004
9.729789e-004,-2.070192e-004
8.582365e-004,-2.003745e-004
9.075044e-004,-1.953505e-004
1.061791e-003,-2.000504e-004
1.190795e-003,-2.182017e-004
1.154006e-003,-2.483458e-004
8.830326e-004,-2.851347e-004
4.132049e-004,-3.191683e-004
-1.144799e-004,-3.480160e-004
-5.082985e-004,-3.731361e-004
-6.674466e-004,-3.925839e-004
-6.441093e-004,-4.039285e-004
-5.771763e-004,-4.049009e-004
-5.763660e-004,-3.917736e-004
-6.867325e-004,-3.642225e-004
-8.857486e-004,-3.279199e-004
-1.096596e-003,-2.914552e-004
-1.221872e-003,-2.630937e-004
-1.198697e-003,-2.433218e-004
-1.038738e-003,-2.297083e-004
-8.149261e-004,-2.165810e-004
-6.091032e-004,-1.932436e-004
-4.719959e-004,-1.535376e-004
-4.032803e-004,-1.020008e-004
-3.595226e-004,-5.775702e-005
-2.802727e-004,-3.555408e-005
-1.413827e-004,-3.474375e-005
8.689758e-006,-4.868137e-005
1.018773e-004,-7.104638e-005
1.030118e-004,-9.632857e-005
2.829966e-005,-1.152902e-004
-4.219875e-005,-1.183694e-004
9.986281e-006,-9.892161e-005
2.811216e-004,-5.759496e-005
7.854691e-004,-2.816880e-006
1.455610e-003,5.471631e-005
2.177775e-003,1.101427e-004
2.821826e-003,1.594105e-004
3.246765e-003,2.004130e-004
3.299274e-003,2.355812e-004
2.866233e-003,2.675081e-004
1.985403e-003,2.945730e-004
8.405714e-004,3.133726e-004
-3.117133e-004,3.229345e-004
-1.216686e-003,3.235827e-004
-1.768681e-003,3.190449e-004
-1.945818e-003,3.133726e-004
-1.752312e-003,3.059176e-004
-1.246830e-003,2.981384e-004
-5.528665e-004,2.880904e-004
1.902029e-004,2.762596e-004
8.611537e-004,2.671840e-004
1.408935e-003,2.639427e-004
1.830306e-003,2.730183e-004
2.118459e-003,2.927903e-004
2.229961e-003,3.128864e-004
2.083129e-003,3.209897e-004
1.622214e-003,3.132105e-004
8.374922e-004,2.939248e-004
-1.916230e-004,2.712356e-004
-1.223655e-003,2.525981e-004
-1.994113e-003,2.386605e-004
-2.345309e-003,2.274780e-004
-2.273352e-003,2.154851e-004
-1.898009e-003,2.018716e-004
-1.384910e-003,1.893926e-004
-8.922312e-004,1.780480e-004
-5.663179e-004,1.670276e-004
-5.196431e-004,1.509831e-004
-7.505861e-004,1.240803e-004
-1.145215e-003,8.664318e-005
-1.545841e-003,4.839576e-005
-1.782294e-003,2.149292e-005
-1.710985e-003,8.689758e-006
-1.279891e-003,2.207145e-006
-5.488148e-004,-5.247859e-006
3.428685e-004,-1.480971e-005
1.225963e-003,-2.469570e-005
2.006634e-003,-3.490581e-005
2.649874e-003,-5.159854e-005
3.132670e-003,-7.833932e-005
3.424714e-003,-1.123730e-004
3.495699e-003,-1.517549e-004
3.331525e-003,-1.953505e-004
2.953424e-003,-2.413770e-004
2.400778e-003,-2.864312e-004
1.709405e-003,-3.280820e-004
8.937289e-004,-3.617915e-004
-3.604027e-005,-3.823738e-004
-1.039549e-003,-3.869116e-004
-2.009834e-003,-3.749188e-004
-2.791152e-003,-3.480160e-004
-3.247691e-003,-3.092824e-004
-3.348010e-003,-2.661730e-004
-3.198747e-003,-2.292221e-004
-3.025337e-003,-2.045882e-004
-3.062774e-003,-1.938919e-004
-3.412350e-003,-1.934057e-004
-3.951058e-003,-1.968091e-004
-4.435961e-003,-1.959987e-004
-4.652968e-003,-1.861127e-004
-4.526231e-003,-1.682856e-004
-4.124631e-003,-1.502963e-004
-3.565503e-003,-1.353863e-004
-2.945114e-003,-1.267968e-004
-2.324403e-003,-1.282554e-004
-1.721520e-003,-1.387897e-004
-1.112478e-003,-1.517549e-004
-4.809095e-004,-1.549962e-004
1.323456e-004,-1.412206e-004
6.431757e-004,-1.107524e-004
9.891854e-004,-7.104638e-005
1.170051e-003,-3.215070e-005
1.257242e-003,-3.789272e-006
1.352536e-003,1.241726e-005
1.530971e-003,2.181705e-005
1.804700e-003,3.429608e-005
2.124294e-003,5.811968e-005
2.413095e-003,9.069481e-005
2.602065e-003,1.255389e-004
2.651495e-003,1.542244e-004
2.561872e-003,1.741585e-004
2.373551e-003,1.869616e-004
2.146983e-003,1.950649e-004
1.936297e-003,2.010613e-004
1.779255e-003,2.077060e-004
1.689957e-003,2.179161e-004
1.659813e-003,2.328261e-004
1.673913e-003,2.521119e-004
1.708433e-003,2.817699e-004
1.741656e-003,3.247172e-004
1.760942e-003,3.775505e-004
1.762887e-003,4.333010e-004
1.760618e-003,4.875929e-004
1.790600e-003,5.407503e-004
1.879574e-003,5.887217e-004
1.998368e-003,6.258347e-004
2.066598e-003,6.422033e-004
2.003879e-003,6.313449e-004
1.780228e-003,5.895320e-004
1.450586e-003,5.209784e-004
1.129048e-003,4.375147e-004
9.135009e-004,3.551855e-004
8.269579e-004,2.861456e-004
7.960034e-004,2.354192e-004
6.887161e-004,2.012234e-004
4.169324e-004,1.775618e-004
2.100672e-005,1.569795e-004
-3.540124e-004,1.355869e-004
-5.784728e-004,1.085220e-004
-6.149375e-004,7.335383e-005
-4.976023e-004,2.408596e-005
-2.865932e-004,-3.944364e-005
-2.031993e-005,-1.052422e-004
3.015418e-004,-1.603444e-004
6.757508e-004,-1.971332e-004
1.032943e-003,-2.118811e-004
1.254973e-003,-2.062088e-004
1.258863e-003,-1.872472e-004
1.040236e-003,-1.639098e-004
6.639201e-004,-1.455964e-004
2.200230e-004,-1.415448e-004
-1.916230e-004,-1.520790e-004
-4.836646e-004,-1.668270e-004
-6.091032e-004,-1.799543e-004
-5.872243e-004,-1.890299e-004
-4.914437e-004,-1.953505e-004
-4.191627e-004,-1.995642e-004
-4.408794e-004,-2.034537e-004
-5.859278e-004,-2.096122e-004
-8.671111e-004,-2.211189e-004
-1.278433e-003,-2.370013e-004
-1.797042e-003,-2.520733e-004
-2.419373e-003,-2.656868e-004
-3.146238e-003,-2.802727e-004
-3.883476e-003,-2.998826e-004
-4.430126e-003,-3.228959e-004
-4.558969e-003,-3.438023e-004
-4.170496e-003,-3.561192e-004
-3.381395e-003,-3.536883e-004
-2.469452e-003,-3.360231e-004
-1.726057e-003,-3.018274e-004
-1.356224e-003,-2.567732e-004
-1.430288e-003,-2.063709e-004
-1.791694e-003,-1.569410e-004
-2.131059e-003,-1.131834e-004
-2.187620e-003,-7.979791e-005
-1.868837e-003,-5.808115e-005
-1.238565e-003,-4.479180e-005
-4.447690e-004,-3.604027e-005
3.529166e-004,-2.550602e-005
1.028729e-003,-1.075808e-005
1.527081e-003,6.744974e-006
1.785738e-003,2.651694e-005
1.711998e-003,4.726130e-005
1.256594e-003,7.011252e-005
4.811103e-004,9.231547e-005
-4.452552e-004,1.078737e-004
-1.227220e-003,1.130598e-004
-1.581819e-003,1.122495e-004
-1.363517e-003,1.184080e-004
-6.564262e-004,1.406109e-004
2.869559e-004,1.842065e-004
1.160003e-003,2.428742e-004
1.774556e-003,3.015418e-004
2.078267e-003,3.477304e-004
2.131749e-003,3.757678e-004
2.047312e-003,3.850055e-004
1.923170e-003,3.866261e-004
1.819934e-003,3.957018e-004
1.764021e-003,4.188772e-004
1.754135e-003,4.546936e-004
1.759970e-003,4.906721e-004
1.751704e-003,5.104441e-004
1.705029e-003,5.013684e-004
1.582994e-003,4.593935e-004
1.355616e-003,3.884089e-004
1.044774e-003,3.028383e-004
7.016813e-004,2.182402e-004
3.454615e-004,1.540623e-004
-3.296103e-005,1.201907e-004
-4.407173e-004,1.169494e-004
-8.517149e-004,1.381800e-004
-1.202262e-003,1.754550e-004
-1.404844e-003,2.195368e-004
-1.363841e-003,2.607014e-004
-1.016859e-003,2.863077e-004
-4.444448e-004,2.924662e-004
7.886404e-005,2.820940e-004
2.023578e-004,2.560015e-004
-2.851347e-004,2.205092e-004
-1.307281e-003,1.788584e-004
-2.484686e-003,1.357490e-004
-3.307980e-003,9.247754e-005
-3.404571e-003,4.515445e-005
-2.715305e-003,-7.678839e-006
-1.477773e-003,-6.488790e-005
-6.764301e-005,-1.220970e-004
1.108628e-003,-1.749302e-004
1.814748e-003,-2.194982e-004
2.054930e-003,-2.532078e-004
1.972600e-003,-2.817312e-004
1.753811e-003,-3.076617e-004
1.558036e-003,-3.324577e-004
1.503906e-003,-3.546606e-004
1.632586e-003,-3.739464e-004
1.872930e-003,-3.899909e-004
2.078915e-003,-4.086284e-004
2.108898e-003,-4.282383e-004
1.859478e-003,-4.426621e-004
1.331954e-003,-4.475241e-004
6.485239e-004,-4.449310e-004
-5.085794e-006,-4.390967e-004
-4.262935e-004,-4.318037e-004
-4.961436e-004,-4.212695e-004
-2.279256e-004,-4.032803e-004
2.647530e-004,-3.773498e-004
8.209614e-004,-3.475298e-004
1.293059e-003,-3.168994e-004
1.574080e-003,-2.877277e-004
1.620593e-003,-2.668213e-004
1.436811e-003,-2.556388e-004
1.068435e-003,-2.506147e-004
6.104385e-004,-2.447804e-004
2.188885e-004,-2.324634e-004
3.202716e-005,-2.123673e-004
7.059871e-005,-1.867610e-004
2.456293e-004,-1.567789e-004
4.373526e-004,-1.224211e-004
5.717048e-004,-7.850138e-005
6.384758e-004,-2.631635e-005
6.791542e-004,3.202716e-005
7.357151e-004,9.296373e-005
8.233925e-004,1.516314e-004
9.360280e-004,2.015475e-004
1.061305e-003,2.378501e-004
1.186419e-003,2.683184e-004
1.292248e-003,3.042970e-004
1.378305e-003,3.488649e-004
1.507309e-003,3.939191e-004
1.776338e-003,4.305459e-004
2.233688e-003,4.517764e-004
2.804972e-003,4.553419e-004
3.293926e-003,4.464283e-004
3.478520e-003,4.298976e-004
3.220024e-003,4.106118e-004
2.524273e-003,3.880847e-004
1.448641e-003,3.589129e-004
9.766362e-005,3.242310e-004
-1.278271e-003,2.929524e-004
-2.388581e-003,2.710735e-004
-3.084491e-003,2.611876e-004
-3.348658e-003,2.623220e-004
-3.260981e-003,2.705873e-004
-2.936687e-003,2.829043e-004
-2.470748e-003,2.950592e-004
-1.912595e-003,3.023522e-004
-1.276164e-003,3.046211e-004
-6.565883e-004,3.047831e-004
-3.329439e-004,3.007315e-004
-6.395715e-004,2.861456e-004
-1.713092e-003,2.615117e-004
-3.424505e-003,2.346088e-004
-4.968350e-003,2.104611e-004
-4.968188e-003,1.869616e-004
-4.968512e-003,1.613553e-004
-4.968350e-003,1.307250e-004
-4.968350e-003,9.020862e-005
-4.826379e-003,4.337174e-005
-2.867647e-003,-2.816880e-006
-1.191728e-003,-3.895745e-005
5.471631e-005,-6.035007e-005
9.488311e-004,-6.440170e-005
1.685582e-003,-5.791909e-005
2.394296e-003,-5.030202e-005
3.040292e-003,-5.078821e-005
3.459882e-003,-6.294311e-005
3.475279e-003,-8.514606e-005
3.038833e-003,-1.161005e-004
2.289439e-003,-1.446240e-004
1.454152e-003,-1.648822e-004
7.404150e-004,-1.797922e-004
2.634565e-004,-2.006986e-004
3.640293e-005,-2.350565e-004
-8.720959e-007,-2.728177e-004
5.179914e-005,-2.980999e-004
7.837785e-005,-3.013411e-004
-7.030578e-006,-2.809209e-004
-2.558008e-004,-2.457528e-004
-7.227109e-004,-2.084778e-004
-1.451032e-003,-1.820611e-004
-2.406570e-003,-1.689338e-004
-3.436336e-003,-1.656925e-004
-4.263522e-003,-1.694200e-004
-4.578579e-003,-1.768750e-004
-4.163851e-003,-1.888679e-004
-3.000865e-003,-2.055606e-004
-1.289615e-003,-2.212809e-004
6.094660e-004,-2.237119e-004
2.206137e-003,-2.044261e-004
3.261351e-003,-1.634236e-004
3.757437e-003,-1.088076e-004
3.841550e-003,-5.759496e-005
3.729075e-003,-1.756482e-005
3.608336e-003,9.338019e-006
3.571871e-003,2.862379e-005
3.575436e-003,4.758544e-005
3.408669e-003,7.043665e-005
2.783417e-003,8.972242e-005
1.525461e-003,9.280167e-005
-2.934000e-004,7.400208e-005
-2.224084e-003,3.688912e-005
-3.732917e-003,-8.813297e-006
-4.439688e-003,-4.851930e-005
-4.234512e-003,-7.299116e-005
-3.319648e-003,-8.028410e-005
-2.061046e-003,-7.363943e-005
-7.842957e-004,-5.791909e-005
3.075383e-004,-3.539201e-005
1.120783e-003,-7.030578e-006
1.651710e-003,2.100672e-005
1.896267e-003,4.256141e-005
1.860613e-003,5.909208e-005
1.602442e-003,8.032264e-005
1.243466e-003,1.161391e-004
9.348936e-004,1.702689e-004
7.924379e-004,2.380122e-004
8.520781e-004,3.146691e-004
1.076701e-003,3.934329e-004
1.389487e-003,4.655520e-004
1.704867e-003,5.240576e-004
1.953800e-003,5.708945e-004
2.104846e-003,6.086557e-004
2.153790e-003,6.342620e-004
2.103549e-003,6.415551e-004
1.960607e-003,6.253485e-004
1.756728e-003,5.864528e-004
1.550743e-003,5.318367e-004
1.409908e-003,4.733311e-004
1.369553e-003,4.167703e-004
1.405532e-003,3.650715e-004
1.426925e-003,3.177483e-004
1.320285e-003,2.705873e-004
1.010902e-003,2.232643e-004
4.832171e-004,1.799928e-004
-1.959987e-004,1.506590e-004
-8.551183e-004,1.398006e-004
-1.285239e-003,1.404489e-004
-1.361410e-003,1.399627e-004
-1.115395e-003,1.286181e-004
-7.027769e-004,1.000946e-004
-2.987481e-004,5.536457e-005
-4.689865e-005,-1.520357e-006
-1.075808e-005,-6.310517e-005
-1.439758e-004,-1.230693e-004
-3.506090e-004,-1.755785e-004
-5.543251e-004,-2.177155e-004
-6.940254e-004,-2.486699e-004
-7.003459e-004,-2.702246e-004
-5.428185e-004,-2.861070e-004
-2.699005e-004,-3.008550e-004
5.610517e-006,-3.181960e-004
1.673517e-004,-3.416954e-004
1.482280e-004,-3.702189e-004
-4.544006e-005,-4.029561e-004
-3.241924e-004,-4.365036e-004
-5.721523e-004,-4.651892e-004
-7.262764e-004,-4.870680e-004
-7.838095e-004,-5.027883e-004
-7.483172e-004,-5.089468e-004
-5.875485e-004,-5.024642e-004
-2.626076e-004,-4.800992e-004
2.482223e-004,-4.441207e-004
9.446174e-004,-3.951770e-004
1.768073e-003,-3.353749e-004
2.602227e-003,-2.689281e-004
3.306729e-003,-2.031296e-004
3.765055e-003,-1.486757e-004
3.927932e-003,-1.149661e-004
3.779640e-003,-1.065387e-004
3.264268e-003,-1.186936e-004
2.302890e-003,-1.407345e-004
8.460816e-004,-1.590478e-004
-1.002922e-003,-1.655305e-004
-2.845930e-003,-1.587237e-004
-4.291560e-003,-1.438137e-004
-4.968025e-003,-1.276072e-004
-4.772411e-003,-1.091317e-004
-3.976664e-003,-8.709085e-005
-3.106046e-003,-6.780507e-005
-2.610935e-003,-5.597430e-005
-2.737346e-003,-5.127441e-005
-3.385772e-003,-5.127441e-005
-4.080063e-003,-5.046408e-005
-4.293666e-003,-4.365734e-005
-3.806171e-003,-2.777494e-005
-2.762790e-003,3.017472e-006
-1.489928e-003,5.082674e-005
-2.812451e-004,1.114392e-004
6.781818e-004,1.788584e-004
1.339733e-003,2.438466e-004
1.762887e-003,3.026763e-004
1.992696e-003,3.511338e-004
2.022354e-003,3.908399e-004
1.811993e-003,4.308700e-004
1.308455e-003,4.856481e-004
5.012064e-004,5.512846e-004
-4.967919e-004,6.118971e-004
-1.437905e-003,6.496583e-004
-2.088274e-003,6.598685e-004
-2.300903e-003,6.452826e-004
-2.107722e-003,6.114109e-004
-1.678086e-003,5.639257e-004
-1.193673e-003,5.067165e-004
-7.635514e-004,4.417284e-004
-4.128421e-004,3.720403e-004
-9.422172e-005,3.060797e-004
2.645909e-004,2.530843e-004
6.877437e-004,2.130541e-004
1.122727e-003,1.822617e-004
1.494506e-003,1.529279e-004
1.734850e-003,1.197045e-004
1.783955e-003,8.648112e-005
1.602442e-003,6.152305e-005
1.232770e-003,4.596478e-005
7.960034e-004,3.251336e-005
4.141773e-004,1.079661e-005
1.435281e-004,-2.420950e-005
-2.534396e-005,-6.423963e-005
-1.324691e-004,-9.892161e-005
-2.128535e-004,-1.185315e-004
-2.807589e-004,-1.188556e-004
-3.128478e-004,-1.010285e-004
-2.762210e-004,-7.266703e-005
-1.681235e-004,-3.960571e-005
-3.879538e-005,-1.027188e-005
6.265751e-005,2.207145e-006
1.686482e-004,-7.516774e-006
3.905157e-004,-3.393342e-005
7.979482e-004,-6.667062e-005
1.334709e-003,-1.015147e-004
1.851375e-003,-1.339277e-004
2.220723e-003,-1.587237e-004
2.456529e-003,-1.718510e-004
2.649226e-003,-1.726613e-004
2.854240e-003,-1.665028e-004
3.044344e-003,-1.590478e-004
3.134615e-003,-1.524032e-004
3.026354e-003,-1.460826e-004
2.669808e-003,-1.415448e-004
2.085074e-003,-1.366828e-004
1.335033e-003,-1.300382e-004
4.621486e-004,-1.191798e-004
-5.287188e-004,-1.071869e-004
-1.607426e-003,-1.002181e-004
-2.654693e-003,-1.088076e-004
-3.432446e-003,-1.347380e-004
-3.668577e-003,-1.694200e-004
-3.189186e-003,-2.013469e-004
-2.094918e-003,-2.186879e-004
-7.854302e-004,-2.175534e-004
2.164575e-004,-2.005366e-004
5.879114e-004,-1.736337e-004
4.029947e-004,-1.439758e-004
-2.238346e-007,-1.219349e-004
-1.932436e-004,-1.110765e-004
8.972242e-005,-1.070249e-004
7.797969e-004,-1.011905e-004
1.555929e-003,-8.822530e-005
2.102091e-003,-6.683268e-005
2.245519e-003,-3.701266e-005
1.982648e-003,-3.789272e-006
1.471979e-003,2.813760e-005
9.546655e-004,5.228533e-005
6.080075e-004,6.800567e-005
4.790034e-004,7.935024e-005
5.153061e-004,9.426025e-005
5.900182e-004,1.192183e-004
5.522569e-004,1.551968e-004
3.555096e-004,1.965235e-004
1.013911e-004,2.383363e-004
-5.775702e-005,2.769079e-004
-5.321920e-005,3.070520e-004
6.751948e-005,3.214759e-004
1.974959e-004,3.166139e-004
2.488706e-004,2.939248e-004
2.175920e-004,2.537325e-004
1.728619e-004,2.025199e-004
1.863134e-004,1.475797e-004
2.730183e-004,9.879808e-005
3.932708e-004,6.298164e-005
5.044477e-004,4.483033e-005
6.222692e-004,5.017848e-005
7.929241e-004,8.113296e-005
9.974508e-004,1.315353e-004
1.097445e-003,1.885823e-004
8.754155e-004,2.433604e-004
1.461212e-004,2.889007e-004
-1.071637e-003,3.239069e-004
-2.515964e-003,3.491891e-004
-3.854628e-003,3.652335e-004
-4.802393e-003,3.728506e-004
-4.968350e-003,3.666921e-004
-4.968350e-003,3.410858e-004
-4.326242e-003,2.973281e-004
-3.469235e-003,2.427121e-004
-2.634272e-003,1.889064e-004
-1.969479e-003,1.410971e-004
-1.504190e-003,1.017153e-004
-1.154129e-003,7.529860e-005
-7.885094e-004,5.747142e-005
-3.168994e-004,3.932010e-005
2.569738e-004,1.711715e-005
8.276062e-004,-9.785688e-006
1.250759e-003,-4.219875e-005
1.423845e-003,-8.109443e-005
1.334871e-003,-1.201522e-004
1.091125e-003,-1.499722e-004
8.726604e-004,-1.674752e-004
8.308475e-004,-1.752544e-004
1.012847e-003,-1.784957e-004
1.359991e-003,-1.827094e-004
1.772449e-003,-1.890299e-004
2.148117e-003,-1.904885e-004
2.399806e-003,-1.840059e-004
2.475491e-003,-1.726613e-004
2.365448e-003,-1.653684e-004
2.107277e-003,-1.643960e-004
1.784280e-003,-1.710407e-004
1.465658e-003,-1.859507e-004
1.183664e-003,-2.112329e-004
9.389452e-004,-2.535319e-004
6.673234e-004,-3.091203e-004
2.303951e-004,-3.700569e-004
-4.335865e-004,-4.211074e-004
-1.190269e-003,-4.476861e-004
-1.855548e-003,-4.502792e-004
-2.305928e-003,-4.381243e-004
-2.546595e-003,-4.215936e-004
-2.742370e-003,-4.105732e-004
-3.069419e-003,-4.066836e-004
-3.559182e-003,-4.005251e-004
-4.073904e-003,-3.815635e-004
-4.331428e-003,-3.428299e-004
-4.012481e-003,-2.869174e-004
-3.006861e-003,-2.199844e-004
-1.551513e-003,-1.470550e-004
-8.887356e-005,-6.926366e-005
9.405658e-004,1.014835e-005
1.341354e-003,8.421220e-005
1.191767e-003,1.503349e-004
7.413874e-004,2.091646e-004
2.905214e-004,2.634565e-004
6.184718e-005,3.112658e-004
1.169494e-004,3.504856e-004
3.503235e-004,3.751195e-004
5.623050e-004,3.803056e-004
5.903424e-004,3.675024e-004
3.856538e-004,3.451374e-004
3.397195e-005,3.252034e-004
-2.945344e-004,3.177483e-004
-4.745890e-004,3.264999e-004
-4.945230e-004,3.448133e-004
-4.190006e-004,3.593992e-004
-3.206269e-004,3.589129e-004
-2.334358e-004,3.456236e-004
-1.507825e-004,3.281205e-004
-3.717473e-005,3.162898e-004
1.495245e-004,3.182346e-004
4.255218e-004,3.316860e-004
7.752590e-004,3.487029e-004
1.159030e-003,3.584268e-004
1.521571e-003,3.517821e-004
1.825282e-003,3.269861e-004
2.059791e-003,2.900352e-004
2.223478e-003,2.474120e-004
2.320718e-003,2.068957e-004
2.360910e-003,1.761032e-004
2.344055e-003,1.574657e-004
2.258809e-003,1.485521e-004
2.095446e-003,1.440143e-004
1.862071e-003,1.449867e-004
1.599687e-003,1.560072e-004
1.361612e-003,1.762653e-004
1.184312e-003,2.008992e-004
1.063249e-003,2.216436e-004
9.614723e-004,2.336365e-004
8.384645e-004,2.363916e-004
6.804507e-004,2.321778e-004
5.115786e-004,2.182402e-004
3.820883e-004,1.897167e-004
3.593992e-004,1.480659e-004
4.919686e-004,1.007429e-004
7.780141e-004,5.666109e-005
1.167944e-003,2.084466e-005
1.589477e-003,-8.002969e-006
1.979731e-003,-3.474375e-005
2.286846e-003,-6.699475e-005
2.480353e-003,-1.031353e-004
2.551824e-003,-1.439758e-004
2.498828e-003,-1.891920e-004
2.318287e-003,-2.353806e-004
2.027865e-003,-2.799486e-004
1.659975e-003,-3.183580e-004
1.250435e-003,-3.473677e-004
8.361956e-004,-3.668155e-004
4.558281e-004,-3.779981e-004
1.163011e-004,-3.838324e-004
-2.084778e-004,-3.880461e-004
-5.531906e-004,-3.927460e-004
-9.324234e-004,-3.938804e-004
-1.336776e-003,-3.873979e-004
-1.745019e-003,-3.739464e-004
-2.156665e-003,-3.603330e-004
-2.573822e-003,-3.540124e-004
-2.968938e-003,-3.551469e-004
-3.287884e-003,-3.627639e-004
-3.477014e-003,-3.734602e-004
-3.530658e-003,-3.770257e-004
-3.482525e-003,-3.658432e-004
-3.381234e-003,-3.347266e-004
-3.262925e-003,-2.883759e-004
-3.141052e-003,-2.311669e-004
-3.024526e-003,-1.705545e-004
-2.879478e-003,-1.101041e-004
-2.615797e-003,-5.273300e-005
-2.162175e-003,-2.654814e-006
-1.526555e-003,3.705119e-005
-8.058504e-004,7.157111e-005
-1.358725e-004,1.069013e-004
3.689610e-004,1.467694e-004
6.752646e-004,1.866375e-004
8.327923e-004,2.161334e-004
9.280868e-004,2.312055e-004
1.032943e-003,2.365536e-004
1.170699e-003,2.360674e-004
1.318016e-003,2.354192e-004
1.422063e-003,2.378501e-004
1.434218e-003,2.470879e-004
1.346054e-003,2.590807e-004
1.219967e-003,2.701012e-004
1.141203e-003,2.806354e-004
1.160489e-003,2.921420e-004
1.272638e-003,3.059176e-004
1.452369e-003,3.179104e-004
1.673102e-003,3.239069e-004
1.887677e-003,3.218000e-004
2.018951e-003,3.054314e-004
1.979083e-003,2.735045e-004
1.742791e-003,2.342847e-004
1.397753e-003,1.961994e-004
1.094852e-003,1.658931e-004
9.478587e-004,1.456350e-004
9.809202e-004,1.419075e-004
1.121107e-003,1.566554e-004
1.201167e-003,1.845306e-004
1.028892e-003,2.161334e-004
4.979651e-004,2.459534e-004
-3.480160e-004,2.746390e-004
-1.329483e-003,3.055935e-004
-2.245477e-003,3.420582e-004
-2.929232e-003,3.877606e-004
-3.294852e-003,4.397836e-004
-3.414943e-003,4.843516e-004
-3.512669e-003,5.021787e-004
-3.811033e-003,4.822447e-004
-4.351038e-003,4.243874e-004
-4.926698e-003,3.396272e-004
-4.968350e-003,2.427121e-004
-4.968350e-003,1.513072e-004
-4.050728e-003,7.870197e-005
-2.526337e-003,3.008238e-005
-6.938633e-004,-2.168618e-006
1.005068e-003,-2.923353e-005
2.140014e-003,-5.467778e-005
2.557334e-003,-7.817725e-005
2.355886e-003,-9.859748e-005
1.865961e-003,-1.161005e-004
1.433893e-003,-1.331174e-004
1.225963e-003,-1.551583e-004
1.195171e-003,-1.851404e-004
1.157085e-003,-2.235498e-004
9.442933e-004,-2.677937e-004
5.370228e-004,-3.152788e-004
6.411610e-005,-3.642225e-004
-2.865932e-004,-4.110594e-004
-3.754050e-004,-4.475241e-004
-1.744440e-004,-4.713477e-004
2.102990e-004,-4.828543e-004
5.830494e-004,-4.807475e-004
7.524078e-004,-4.661616e-004
6.279415e-004,-4.350450e-004
2.741528e-004,-3.831841e-004
-1.391138e-004,-3.104168e-004
-4.284004e-004,-2.332737e-004
-4.786406e-004,-1.658546e-004
-3.058790e-004,-1.159385e-004
-5.613637e-005,-8.093236e-005
7.983644e-005,-5.791909e-005
-1.480971e-005,-4.592625e-005
-3.190063e-004,-4.689865e-005
-6.841394e-004,-5.727083e-005
-9.188099e-004,-7.347736e-005
-8.998482e-004,-9.114248e-005
-6.129927e-004,-1.058904e-004
-1.225832e-004,-1.144799e-004
4.733311e-004,-1.149661e-004
1.075242e-003,-1.058904e-004
1.599363e-003,-9.389759e-005
1.979893e-003,-8.628052e-005
2.203220e-003,-9.000802e-005
2.301270e-003,-1.032974e-004
2.308076e-003,-1.156143e-004
2.245843e-003,-1.128592e-004
2.144066e-003,-8.660465e-005
2.040830e-003,-3.992984e-005
1.967576e-003,1.808955e-005
1.901939e-003,7.821578e-005
1.787197e-003,1.376938e-004
1.592232e-003,1.971717e-004
1.341840e-003,2.577842e-004
1.084804e-003,3.132105e-004
8.572642e-004,3.553475e-004
6.789921e-004,3.807918e-004
5.663567e-004,3.922984e-004
5.289196e-004,3.919743e-004
5.509604e-004,3.812780e-004
5.689497e-004,3.582647e-004
4.621486e-004,3.167760e-004
5.909208e-005,2.558394e-004
-7.594998e-004,1.863134e-004
-1.928477e-003,1.260251e-004
-3.191454e-003,8.988449e-005
-4.172279e-003,8.826383e-005
-4.557673e-003,1.190562e-004
-4.242291e-003,1.738343e-004
-3.359841e-003,2.396328e-004
-2.214198e-003,3.018659e-004
-1.143757e-003,3.521062e-004
-3.883702e-004,3.801436e-004
-1.399939e-005,3.775505e-004
9.101894e-005,3.428685e-004
1.276457e-004,2.848491e-004
2.684805e-004,2.205092e-004
5.749461e-004,1.660552e-004
9.796236e-004,1.302388e-004
1.362260e-003,1.078737e-004
1.648306e-003,9.280167e-005
1.836141e-003,7.853991e-005
1.961742e-003,6.152305e-005
2.046826e-003,4.272347e-005
2.076970e-003,2.165498e-005
1.982648e-003,-3.141010e-006
1.659651e-003,-3.312309e-005
1.057091e-003,-6.294311e-005
2.655633e-004,-8.757704e-005
-5.052193e-004,-1.052422e-004
-1.011997e-003,-1.175591e-004
-1.060455e-003,-1.259865e-004
-5.954896e-004,-1.321450e-004
2.245608e-004,-1.386276e-004
1.093718e-003,-1.506204e-004
1.747004e-003,-1.710407e-004
2.046826e-003,-1.995642e-004
1.987996e-003,-2.332737e-004
1.657706e-003,-2.679557e-004
1.185771e-003,-2.964792e-004
7.058950e-004,-3.097686e-004
3.422202e-004,-3.083100e-004
1.683241e-004,-2.972895e-004
1.626518e-004,-2.783279e-004
2.543808e-004,-2.535319e-004
3.579406e-004,-2.301945e-004
3.394651e-004,-2.102605e-004
5.779555e-005,-1.921092e-004
-5.191569e-004,-1.726613e-004
-1.264657e-003,-1.514308e-004
-1.936094e-003,-1.326312e-004
-2.283562e-003,-1.173971e-004
-2.169306e-003,-1.062146e-004
-1.648752e-003,-9.762509e-005
-9.199444e-004,-9.454585e-005
-2.167431e-004,-9.681477e-005
2.584324e-004,-1.026491e-004
4.005638e-004,-1.062146e-004
2.282883e-004,-1.045939e-004
-1.540238e-004,-9.454585e-005
-5.750695e-004,-7.607040e-005
-8.483115e-004,-5.402952e-005
-8.752144e-004,-3.053005e-005
-7.125008e-004,-4.923729e-006
-5.272602e-004,2.068259e-005
-4.797751e-004,4.645098e-005
-6.345474e-004,6.930219e-005
-9.265891e-004,8.939829e-005
-1.226086e-003,1.049566e-004
-1.439364e-003,1.161391e-004
-1.540493e-003,1.193804e-004
-1.538061e-003,1.177597e-004
-1.439526e-003,1.120874e-004
-1.226734e-003,1.072255e-004
-8.687317e-004,1.085220e-004
-3.635742e-004,1.216493e-004
2.235884e-004,1.509831e-004
7.695867e-004,1.927960e-004
1.169402e-003,2.365536e-004
1.388839e-003,2.752873e-004
1.486403e-003,3.143450e-004
1.566463e-003,3.595612e-004
1.680071e-003,4.122325e-004
1.773745e-003,4.684692e-004
1.770504e-003,5.148199e-004
1.657382e-003,5.352402e-004
1.505851e-003,5.174129e-004
1.434866e-003,4.649037e-004
1.524002e-003,3.890571e-004
1.739712e-003,3.013798e-004
1.961093e-003,1.984683e-004
2.074702e-003,7.076078e-005
2.019599e-003,-7.850138e-005
1.771800e-003,-2.290601e-004
1.370688e-003,-3.532020e-004
9.160939e-004,-4.269418e-004
4.537212e-004,-4.371519e-004
-5.824322e-005,-3.848048e-004
-6.996976e-004,-2.780038e-004
-1.501273e-003,-1.287416e-004
-2.386474e-003,5.455425e-005
-3.134407e-003,2.621599e-004
-3.431798e-003,4.754380e-004
-3.090163e-003,6.702406e-004
-2.221491e-003,8.306854e-004
-1.167904e-003,9.509380e-004
-3.559572e-004,1.024678e-003
-1.579134e-004,1.035536e-003
-6.538332e-004,9.694134e-004
-1.534496e-003,8.261476e-004
-2.353899e-003,6.295622e-004
-2.785966e-003,4.112601e-004
-2.702502e-003,1.976579e-004
-2.165417e-003,5.772582e-006
-1.387503e-003,-1.562927e-004
-6.400577e-004,-2.874036e-004
-1.110765e-004,-3.844807e-004
1.879340e-004,-4.489826e-004
3.806297e-004,-4.809095e-004
6.041179e-004,-4.878783e-004
9.342453e-004,-4.815578e-004
1.346540e-003,-4.674581e-004
1.726422e-003,-4.478482e-004
1.931111e-003,-4.249970e-004
1.863044e-003,-4.036044e-004
1.547339e-003,-3.854531e-004
1.096473e-003,-3.703810e-004
6.094660e-004,-3.525538e-004
1.380179e-004,-3.284061e-004
-3.193304e-004,-3.002067e-004
-7.932093e-004,-2.700626e-004
-1.300150e-003,-2.423494e-004
-1.799311e-003,-2.193361e-004
-2.159420e-003,-2.065330e-004
-2.236888e-003,-2.031296e-004
-1.983579e-003,-2.076674e-004
-1.473073e-003,-2.162569e-004
-8.546321e-004,-2.246843e-004
-2.781658e-004,-2.300324e-004
1.741585e-004,-2.285739e-004
4.862963e-004,-2.178775e-004
6.786680e-004,-1.995642e-004
7.631041e-004,-1.781716e-004
7.274497e-004,-1.558065e-004
5.725152e-004,-1.310105e-004
3.679886e-004,-1.047560e-004
2.289366e-004,-8.141856e-005
2.399570e-004,-6.342931e-005
3.961880e-004,-4.527799e-005
5.937457e-004,-2.258885e-005
6.992503e-004,1.396819e-006
6.519272e-004,2.278944e-005
5.039615e-004,4.013043e-005
3.790091e-004,5.196120e-005
3.931088e-004,5.828175e-005
5.832114e-004,6.687121e-005
8.906497e-004,8.323981e-005
1.217374e-003,1.069013e-004
1.480244e-003,1.360731e-004
1.634207e-003,1.655690e-004
1.677964e-003,1.898788e-004
1.647658e-003,2.081922e-004
1.587694e-003,2.269918e-004
1.520112e-003,2.529222e-004
1.437945e-003,2.824181e-004
1.327740e-003,3.065659e-004
1.190957e-003,3.174242e-004
1.055470e-003,3.154794e-004
9.511001e-004,3.049452e-004
8.857877e-004,2.929524e-004
8.627744e-004,2.816078e-004
9.201455e-004,2.702632e-004
1.108952e-003,2.587566e-004
1.423521e-003,2.435224e-004
1.787035e-003,2.213195e-004
2.089936e-003,1.952270e-004
2.241143e-003,1.678379e-004
2.189931e-003,1.441764e-004
1.941321e-003,1.307250e-004
1.545557e-003,1.279698e-004
1.072001e-003,1.341283e-004
5.733255e-004,1.472556e-004
8.518459e-005,1.610312e-004
-3.634122e-004,1.675138e-004
-7.374589e-004,1.553589e-004
-1.041169e-003,1.216493e-004
-1.332725e-003,7.157111e-005
-1.683758e-003,1.695509e-005
-2.146293e-003,-4.025397e-005
-2.731512e-003,-1.016767e-004
-3.362758e-003,-1.603444e-004
-3.838260e-003,-2.076674e-004
-3.943765e-003,-2.329496e-004
-3.620443e-003,-2.277635e-004
-3.007996e-003,-1.985918e-004
-2.376912e-003,-1.619650e-004
-2.044678e-003,-1.332795e-004
-2.181623e-003,-1.178833e-004
-2.644807e-003,-1.151281e-004
-3.086274e-003,-1.190177e-004
-3.189996e-003,-1.269589e-004
-2.805090e-003,-1.387897e-004
-1.975638e-003,-1.530514e-004
-9.115170e-004,-1.686097e-004
7.140904e-005,-1.823853e-004
6.870955e-004,-1.900023e-004
8.770361e-004,-1.912988e-004
7.373357e-004,-1.908126e-004
4.159600e-004,-1.955125e-004
6.249545e-005,-2.066950e-004
-2.141500e-004,-2.217671e-004
-3.515814e-004,-2.332737e-004
-3.345645e-004,-2.321393e-004
-1.990780e-004,-2.136638e-004
-2.492749e-006,-1.797922e-004
2.075439e-004,-1.381414e-004
4.174185e-004,-9.503204e-005
6.334517e-004,-5.257093e-005
8.430023e-004,-9.299493e-006
1.009282e-003,3.786152e-005
1.072001e-003,9.101894e-005
9.682790e-004,1.412592e-004
6.856368e-004,1.785342e-004
3.281205e-004,1.960373e-004
8.469840e-005,1.974959e-004
1.067393e-004,1.893926e-004
4.417284e-004,1.798307e-004
1.001665e-003,1.743205e-004
1.625455e-003,1.749688e-004
2.152979e-003,1.770756e-004
2.461715e-003,1.798307e-004
2.503528e-003,1.829100e-004
2.313587e-003,1.833962e-004
1.989455e-003,1.770756e-004
1.630641e-003,1.699448e-004
1.326120e-003,1.665414e-004
1.171509e-003,1.692965e-004
1.216887e-003,1.791825e-004
1.410880e-003,1.978200e-004
1.607952e-003,2.245608e-004
1.644903e-003,2.543808e-004
1.437945e-003,2.798251e-004
1.008957e-003,2.936006e-004
4.545315e-004,2.934386e-004
-8.968389e-005,2.893870e-004
-4.929024e-004,2.892249e-004
-6.656639e-004,2.944109e-004
-6.102377e-004,2.999212e-004
-4.369898e-004,3.023522e-004
-2.899966e-004,3.033245e-004
-2.606628e-004,3.059176e-004
-3.587123e-004,3.161277e-004
-5.311498e-004,3.347652e-004
-6.729569e-004,3.559958e-004
-6.172064e-004,3.658818e-004
-2.554767e-004,3.540510e-004
3.568061e-004,3.156415e-004
9.838373e-004,2.560015e-004
1.318179e-003,1.853410e-004
1.129696e-003,1.135460e-004
4.452938e-004,5.131294e-005
-4.243487e-004,1.128280e-005
-1.112964e-003,-1.682422e-006
-1.433691e-003,6.096713e-006
-1.374538e-003,1.646890e-005
-1.030959e-003,1.371378e-005
-5.467080e-004,-9.461558e-006
-6.294311e-005,-4.754691e-005
3.025142e-004,-9.227693e-005
4.681450e-004,-1.324691e-004
4.456179e-004,-1.606685e-004
3.334687e-004,-1.760647e-004
2.278021e-004,-1.844921e-004
1.880961e-004,-1.950263e-004
2.746390e-004,-2.149604e-004
5.391297e-004,-2.447804e-004
9.460760e-004,-2.750866e-004
1.361936e-003,-3.000446e-004
1.621079e-003,-3.204649e-004
1.620593e-003,-3.389403e-004
1.378953e-003,-3.553089e-004
1.039102e-003,-3.767015e-004
7.725039e-004,-4.057112e-004
6.488480e-004,-4.382863e-004
5.354022e-004,-4.669719e-004
2.252090e-004,-4.779923e-004
-3.750809e-004,-4.577342e-004
-1.208259e-003,-3.993907e-004
-2.155207e-003,-3.139823e-004
-3.107180e-003,-2.272773e-004
-4.026743e-003,-1.643960e-004
-4.900606e-003,-1.378173e-004
-4.968350e-003,-1.412206e-004
-4.968350e-003,-1.614788e-004
-4.968188e-003,-1.784957e-004
-4.968350e-003,-1.788198e-004
-4.116204e-003,-1.639098e-004
-2.811896e-003,-1.430034e-004
-1.597053e-003,-1.263107e-004
-6.682570e-004,-1.125351e-004
-1.052422e-004,-9.584238e-005
1.422316e-004,-7.299116e-005
2.235884e-004,-4.041603e-005
3.094830e-004,-5.479652e-007
5.089855e-004,4.029250e-005
8.392748e-004,7.513654e-005
1.235687e-003,1.034980e-004
1.601793e-003,1.300767e-004
1.868554e-003,1.623277e-004
2.007120e-003,2.023578e-004
2.030620e-003,2.472499e-004
1.979083e-003,2.906835e-004
1.878602e-003,3.235827e-004
1.737443e-003,3.399513e-004
1.565653e-003,3.381686e-004
1.372633e-003,3.277964e-004
1.142824e-003,3.203414e-004
8.621261e-004,3.243930e-004
5.927734e-004,3.384927e-004
4.559901e-004,3.563199e-004
5.217887e-004,3.709058e-004
7.410632e-004,3.751195e-004
9.878889e-004,3.655576e-004
1.145255e-003,3.380065e-004
1.163730e-003,2.950592e-004
1.088045e-003,2.501671e-004
1.024678e-003,2.180782e-004
1.049960e-003,2.065715e-004
1.153844e-003,2.174299e-004
1.234715e-003,2.446569e-004
1.146389e-003,2.764217e-004
8.071859e-004,2.999212e-004
2.882525e-004,3.065659e-004
-2.019951e-004,2.892249e-004
-4.459034e-004,2.508154e-004
-3.496366e-004,2.067336e-004
1.063454e-005,1.780480e-004
4.307079e-004,1.728619e-004
7.076777e-004,1.812893e-004
7.300428e-004,1.876099e-004
5.170888e-004,1.814514e-004
2.034923e-004,1.634622e-004
-4.884343e-005,1.453108e-004
-1.600202e-004,1.362352e-004
-1.468929e-004,1.351007e-004
-6.764301e-005,1.333180e-004
2.116879e-005,1.179218e-004
9.458438e-005,8.097089e-005
1.705930e-004,1.971020e-005
3.070520e-004,-5.775702e-005
5.708945e-004,-1.412206e-004
9.575827e-004,-2.178775e-004
1.379439e-003,-2.773555e-004
1.740360e-003,-3.164132e-004
1.995938e-003,-3.369955e-004
2.144552e-003,-3.416954e-004
2.206785e-003,-3.334301e-004
2.195279e-003,-3.160891e-004
2.098201e-003,-2.972895e-004
1.888002e-003,-2.825416e-004
1.570677e-003,-2.697385e-004
1.196305e-003,-2.514251e-004
8.344129e-004,-2.209568e-004
5.264886e-004,-1.807646e-004
2.905214e-004,-1.434896e-004
1.294284e-004,-1.178833e-004
4.953022e-005,-1.055663e-004
9.912221e-005,-1.047560e-004
2.778803e-004,-1.139937e-004
4.026706e-004,-1.318209e-004
1.487142e-004,-1.609926e-004
-7.526930e-004,-1.994021e-004
-2.277404e-003,-2.423494e-004
-4.068556e-003,-2.788141e-004
-4.968512e-003,-2.984240e-004
-4.968350e-003,-2.925897e-004
-4.968350e-003,-2.588801e-004
-4.968512e-003,-2.070192e-004
-3.877318e-003,-1.512687e-004
-2.889850e-003,-9.892161e-005
-2.363947e-003,-5.419158e-005
-2.272380e-003,-1.918548e-005
-2.359571e-003,1.047248e-005
-2.317596e-003,3.996837e-005
-1.959269e-003,6.687121e-005
-1.286698e-003,8.858796e-005
-4.425001e-004,1.007429e-004
3.841952e-004,1.033359e-004
1.045422e-003,9.847395e-005
1.513144e-003,8.858796e-005
1.831927e-003,7.643307e-005
2.050878e-003,6.427817e-005
2.199817e-003,5.374392e-005
2.282146e-003,4.402000e-005
2.232878e-003,3.283749e-005
1.917984e-003,2.473423e-005
1.248977e-003,3.024445e-005
2.845250e-004,5.714729e-005
-7.128249e-004,1.080358e-004
-1.379886e-003,1.772377e-004
-1.498680e-003,2.490327e-004
-1.083954e-003,3.072141e-004
-3.762153e-004,3.396272e-004
2.997591e-004,3.449753e-004
7.052467e-004,3.347652e-004
7.882243e-004,3.224483e-004
6.399344e-004,3.162898e-004
4.156358e-004,3.133726e-004
2.410915e-004,3.089969e-004
1.605450e-004,3.031625e-004
1.636242e-004,2.994350e-004
2.289366e-004,2.989488e-004
3.430306e-004,3.013798e-004
4.887274e-004,3.026763e-004
6.391241e-004,3.038107e-004
7.601869e-004,3.067279e-004
8.232304e-004,3.120761e-004
8.391128e-004,3.174242e-004
8.572642e-004,3.166139e-004
9.308419e-004,2.997591e-004
1.070056e-003,2.595669e-004
1.230339e-003,1.950649e-004
1.357885e-003,1.112771e-004
1.418335e-003,2.197911e-005
1.404722e-003,-5.240886e-005
1.328389e-003,-9.697683e-005
1.208136e-003,-1.130213e-004
1.056767e-003,-1.139937e-004
8.791430e-004,-1.133454e-004
6.705648e-004,-1.180453e-004
4.324906e-004,-1.274451e-004
1.880961e-004,-1.381414e-004
-2.258885e-005,-1.462447e-004
-1.329553e-004,-1.433275e-004
-8.773911e-005,-1.266348e-004
1.028497e-004,-9.713889e-005
3.632887e-004,-6.261898e-005
6.161107e-004,-3.360929e-005
8.126961e-004,-1.788895e-005
9.326246e-004,-1.805102e-005
9.587171e-004,-3.766092e-005
8.747673e-004,-8.125649e-005
6.707268e-004,-1.475412e-004
3.668542e-004,-2.235498e-004
3.380988e-005,-2.942103e-004
-2.429977e-004,-3.489884e-004
-3.987424e-004,-3.856151e-004
-3.942046e-004,-4.068457e-004
-2.147983e-004,-4.162455e-004
7.416415e-005,-4.180282e-004
3.237448e-004,-4.149489e-004
3.811159e-004,-4.039285e-004
1.701068e-004,-3.737844e-004
-3.063652e-004,-3.157650e-004
-9.494403e-004,-2.297083e-004
-1.575012e-003,-1.208004e-004
-1.966076e-003,2.207145e-006
-1.984065e-003,1.265113e-004
-1.657504e-003,2.344468e-004
-1.165473e-003,3.083486e-004
-7.102319e-004,3.358997e-004
-3.930701e-004,3.156415e-004
-1.984297e-004,2.572980e-004
-4.819517e-005,1.791825e-004
1.252147e-004,1.012291e-004
3.516200e-004,3.867184e-005
5.705704e-004,-2.238346e-007
6.195141e-004,-1.562004e-005
3.794953e-004,-1.383732e-005
-8.287715e-005,1.396819e-006
-5.577285e-004,2.894792e-005
-8.868831e-004,6.849186e-005
-1.052676e-003,1.146805e-004
-1.134519e-003,1.597346e-004
-1.243913e-003,1.913374e-004
-1.393013e-003,1.981441e-004
-1.429802e-003,1.809652e-004
-1.134195e-003,1.516314e-004
-4.047388e-004,1.226217e-004
6.321552e-004,1.025256e-004
1.665161e-003,9.669123e-005
2.369013e-003,1.036600e-004
2.461877e-003,1.208390e-004
1.761428e-003,1.414213e-004
2.688046e-004,1.649207e-004
-1.667552e-003,1.897167e-004
-3.434553e-003,2.149989e-004
-4.575662e-003,2.389846e-004
-4.872730e-003,2.550291e-004
-4.393823e-003,2.576221e-004
-3.416726e-003,2.438466e-004
-2.275783e-003,2.132162e-004
-1.251368e-003,1.726999e-004
-5.517320e-004,1.334801e-004
-2.972895e-004,1.041462e-004
-4.958195e-004,8.793970e-005
-9.761810e-004,8.453633e-005
-1.439526e-003,9.442231e-005
-1.627035e-003,1.109530e-004
-1.455246e-003,1.312112e-004
-1.023504e-003,1.526038e-004
-5.045711e-004,1.795066e-004
-2.696461e-005,2.133783e-004
3.632887e-004,2.475741e-004
6.883920e-004,2.731804e-004
9.935612e-004,2.825802e-004
1.303755e-003,2.676702e-004
1.600173e-003,2.226160e-004
1.836141e-003,1.433661e-004
1.968386e-003,3.575467e-005
1.975841e-003,-9.227693e-005
1.872605e-003,-2.306807e-004
1.700816e-003,-3.695707e-004
1.508282e-003,-4.979264e-004
1.331630e-003,-6.019723e-004
1.190471e-003,-6.679329e-004
1.083670e-003,-6.899738e-004
9.995577e-004,-6.723086e-004
9.386210e-004,-6.232028e-004
9.360280e-004,-5.496252e-004
1.054822e-003,-4.531963e-004
1.335033e-003,-3.365093e-004
1.738415e-003,-2.016710e-004
2.157841e-003,-5.289507e-005
2.481811e-003,1.033359e-004
2.653926e-003,2.537325e-004
2.671429e-003,3.817642e-004
2.568841e-003,4.707381e-004
2.401589e-003,5.042856e-004
2.217482e-003,4.726828e-004
2.048123e-003,3.806297e-004
1.916849e-003,2.466017e-004
1.832251e-003,1.036600e-004
1.775042e-003,-2.194059e-005
1.677154e-003,-1.167488e-004
1.417687e-003,-1.755785e-004
8.724983e-004,-2.029675e-004
1.128280e-005,-2.105846e-004
-1.038900e-003,-2.102605e-004
-1.995248e-003,-2.091260e-004
-2.532495e-003,-2.049123e-004
-2.449680e-003,-1.909747e-004
-1.793314e-003,-1.619650e-004
-8.593319e-004,-1.199901e-004
-3.036798e-005,-7.688073e-005
4.021844e-004,-4.187462e-005
3.692851e-004,-1.480971e-005
4.962256e-006,9.338019e-006
-4.159214e-004,4.094075e-005
-6.163961e-004,7.853991e-005
-4.530343e-004,1.120874e-004
4.223728e-005,1.365593e-004
6.851507e-004,1.535762e-004
1.234715e-003,1.639484e-004
1.515250e-003,1.720516e-004
1.480244e-003,1.782101e-004
1.229205e-003,1.837203e-004
9.227386e-004,1.942546e-004
6.503066e-004,2.156472e-004
3.670162e-004,2.500050e-004
-2.330684e-006,2.963557e-004
-4.173799e-004,3.448133e-004
-7.155800e-004,3.814401e-004
-6.954839e-004,3.968363e-004
-2.078295e-004,3.900295e-004
6.587339e-004,3.650715e-004
1.508930e-003,3.274723e-004
1.908746e-003,2.819319e-004
1.609248e-003,2.370398e-004
5.898562e-004,2.002510e-004
-9.290201e-004,1.808031e-004
-2.501379e-003,1.809652e-004
-3.758847e-003,1.929580e-004
-4.467563e-003,2.021958e-004
-4.550055e-003,1.976579e-004
-4.046353e-003,1.725378e-004
-3.059209e-003,1.269974e-004
-1.772246e-003,6.460230e-005
-5.006815e-004,-5.085794e-006
3.493511e-004,-7.201877e-005
4.702519e-004,-1.289037e-004
-1.549962e-004,-1.713648e-004
-1.276812e-003,-1.953505e-004
-2.519206e-003,-1.987538e-004
-3.556427e-003,-1.831956e-004
-4.203071e-003,-1.540238e-004
-4.420240e-003,-1.204763e-004
-4.242777e-003,-8.660465e-005
-3.718331e-003,-5.192267e-005
-2.895036e-003,-1.464765e-005
-1.805307e-003,1.825161e-005
-5.021401e-004,3.624086e-005
8.473782e-004,3.591673e-005
1.948776e-003,2.100672e-005
2.579051e-003,-5.479652e-007
2.603199e-003,-2.064406e-005
2.060440e-003,-3.620233e-005
1.190471e-003,-5.208474e-005
3.838710e-004,-7.509801e-005
1.160693e-005,-1.089697e-004
1.822617e-004,-1.489998e-004
7.222636e-004,-1.878955e-004
1.333899e-003,-2.143121e-004
1.755108e-003,-2.198223e-004
1.843434e-003,-2.010227e-004
1.605197e-003,-1.653684e-004
1.145417e-003,-1.319829e-004
6.206486e-004,-1.178833e-004
2.080301e-004,-1.256624e-004
4.628891e-005,-1.485136e-004
1.621656e-004,-1.760647e-004
4.587452e-004,-1.990780e-004
7.844968e-004,-2.136638e-004
1.020302e-003,-2.175534e-004
1.111707e-003,-2.100984e-004
1.051581e-003,-2.005366e-004
8.690950e-004,-1.950263e-004
6.156246e-004,-1.908126e-004
3.506476e-004,-1.827094e-004
1.271595e-004,-1.661787e-004
-5.734056e-006,-1.423551e-004
-1.610624e-005,-1.136696e-004
8.388807e-005,-8.141856e-005
2.462775e-004,-4.819517e-005
4.187151e-004,-1.821308e-005
5.495019e-004,2.369211e-006
5.961767e-004,1.241726e-005
5.336195e-004,1.646890e-005
3.812780e-004,1.873781e-005
2.303951e-004,2.700314e-005
1.898788e-004,4.790957e-005
3.151553e-004,8.340187e-005
5.883976e-004,1.308870e-004
9.392693e-004,1.830721e-004
1.267128e-003,2.297469e-004
1.481054e-003,2.665357e-004
1.532591e-003,2.936006e-004
1.413149e-003,3.133726e-004
1.150279e-003,3.294171e-004
8.047550e-004,3.464339e-004
4.631210e-004,3.619922e-004
2.232643e-004,3.679886e-004
1.467694e-004,3.613439e-004
2.407673e-004,3.456236e-004
4.350837e-004,3.329825e-004
5.895320e-004,3.337929e-004
5.744600e-004,3.493511e-004
3.493511e-004,3.720403e-004
-2.015787e-005,3.882468e-004
-3.711913e-004,3.859779e-004
-5.580526e-004,3.626405e-004
-5.559457e-004,3.289309e-004
-4.617858e-004,3.002453e-004
-3.783222e-004,2.918179e-004
-3.259751e-004,3.085106e-004
-2.415391e-004,3.436788e-004
-3.409549e-005,3.798194e-004
3.190449e-004,3.963501e-004
7.425218e-004,3.838710e-004
1.151575e-003,3.420582e-004
1.510388e-003,2.851732e-004
1.815720e-003,2.250470e-004
2.061574e-003,1.681620e-004
2.220399e-003,1.137081e-004
2.255891e-003,6.217132e-005
2.144714e-003,1.533444e-005
1.883140e-003,-2.534396e-005
1.501475e-003,-6.229485e-005
1.051419e-003,-9.989401e-005
5.791598e-004,-1.355484e-004
1.446626e-004,-1.634236e-004
-1.955125e-004,-1.807646e-004
-4.776682e-004,-1.934057e-004
-8.415048e-004,-2.096122e-004
-1.482149e-003,-2.370013e-004
-2.529578e-003,-2.799486e-004
-3.949437e-003,-3.322956e-004
-4.968350e-003,-3.852910e-004
-4.968188e-003,-4.303451e-004
-4.968188e-003,-4.630823e-004
-4.968350e-003,-4.831784e-004
-4.968512e-003,-4.953333e-004
-4.968512e-003,-5.027883e-004
-4.641299e-003,-5.057055e-004
-3.439739e-003,-5.019780e-004
-2.293610e-003,-4.882024e-004
-1.230137e-003,-4.601652e-004
-2.893484e-004,-4.196489e-004
4.725208e-004,-3.724878e-004
1.020788e-003,-3.272716e-004
1.384625e-003,-2.891863e-004
1.618648e-003,-2.598524e-004
1.790762e-003,-2.348944e-004
1.978110e-003,-2.058847e-004
2.246167e-003,-1.640719e-004
2.591692e-003,-1.058904e-004
2.886977e-003,-3.620233e-005
2.904966e-003,3.543054e-005
2.446643e-003,9.037068e-005
1.473762e-003,1.193804e-004
1.548727e-004,1.244044e-004
-1.121716e-003,1.193804e-004
-1.966562e-003,1.135460e-004
-2.176437e-003,1.145184e-004
-1.720871e-003,1.244044e-004
-7.411864e-004,1.380179e-004
5.080132e-004,1.495245e-004
1.719129e-003,1.579519e-004
2.727342e-003,1.644345e-004
3.481113e-003,1.680000e-004
3.961480e-003,1.691344e-004
4.138781e-003,1.692965e-004
3.972662e-003,1.686482e-004
3.458100e-003,1.696206e-004
2.681315e-003,1.798307e-004
1.822851e-003,2.093267e-004
1.127752e-003,2.574601e-004
8.047550e-004,3.119140e-004
8.872462e-004,3.548613e-004
1.244115e-003,3.770643e-004
1.683961e-003,3.796573e-004
2.052499e-003,3.723644e-004
2.267560e-003,3.665301e-004
2.308725e-003,3.699334e-004
2.198844e-003,3.832228e-004
1.992372e-003,4.055878e-004
1.756242e-003,4.316803e-004
1.530485e-003,4.530729e-004
1.333413e-003,4.605280e-004
1.188688e-003,4.548557e-004
1.119000e-003,4.371906e-004
1.110735e-003,4.106118e-004
1.118676e-003,3.757678e-004
1.065842e-003,3.388169e-004
8.036205e-004,3.008936e-004
1.595726e-004,2.590807e-004
-9.149204e-004,2.102990e-004
-2.274811e-003,1.564933e-004
-3.652856e-003,1.049566e-004
-4.695429e-003,6.087479e-005
-4.968512e-003,2.424803e-005
-4.825569e-003,-7.192643e-006
-4.066611e-003,-3.425755e-005
-3.182865e-003,-5.678463e-005
-2.478203e-003,-7.607040e-005
-2.076929e-003,-9.600444e-005
-1.932367e-003,-1.178833e-004
-1.894929e-003,-1.407345e-004
-1.780835e-003,-1.622891e-004
-1.458487e-003,-1.797922e-004
-9.379336e-004,-1.959987e-004
-3.710293e-004,-2.109087e-004
4.353380e-005,-2.293842e-004
1.806411e-004,-2.538560e-004
4.709924e-005,-2.848105e-004
-2.415391e-004,-3.168994e-004
-5.400634e-004,-3.438023e-004
-7.408622e-004,-3.598467e-004
-7.996919e-004,-3.611433e-004
-7.364865e-004,-3.493125e-004
-6.233649e-004,-3.293785e-004
-5.313118e-004,-3.052308e-004
-4.987367e-004,-2.807589e-004
-5.358497e-004,-2.572594e-004
-6.134789e-004,-2.391081e-004
-6.504298e-004,-2.311669e-004
-5.572423e-004,-2.331117e-004
-2.895104e-004,-2.417012e-004
1.124116e-004,-2.546664e-004
5.329712e-004,-2.694143e-004
8.540229e-004,-2.840002e-004
1.029702e-003,-2.955068e-004
1.101983e-003,-3.005308e-004
1.164702e-003,-2.953447e-004
1.289169e-003,-2.794623e-004
1.471331e-003,-2.519113e-004
1.645065e-003,-2.138259e-004
1.715239e-003,-1.690959e-004
1.613138e-003,-1.274451e-004
1.329199e-003,-9.519411e-005
9.196594e-004,-7.396356e-005
5.018546e-004,-5.597430e-005
2.036544e-004,-3.474375e-005
6.136099e-005,-1.075808e-005
-3.951337e-006,1.257933e-005
-1.263107e-004,2.716521e-005
-4.395829e-004,2.992031e-005
-1.000167e-003,2.408596e-005
-1.710013e-003,2.003433e-005
-2.389715e-003,2.975825e-005
-2.880126e-003,5.763349e-005
-3.097943e-003,1.025256e-004
-3.056291e-003,1.573037e-004
-2.831830e-003,2.133783e-004
-2.497489e-003,2.626462e-004
-2.084060e-003,3.072141e-004
-1.585223e-003,3.576164e-004
-1.009729e-003,4.156358e-004
-4.003631e-004,4.730070e-004
1.757791e-004,5.130371e-004
6.699165e-004,5.253541e-004
1.070542e-003,5.110924e-004
1.405046e-003,4.833792e-004
1.712809e-003,4.537212e-004
2.015872e-003,4.250357e-004
2.316504e-003,3.922984e-004
2.622161e-003,3.542131e-004
2.944511e-003,3.188828e-004
3.281285e-003,2.953834e-004
3.625353e-003,2.901973e-004
3.943490e-003,2.963557e-004
4.147047e-003,3.106175e-004
4.094213e-003,3.234207e-004
3.671380e-003,3.281205e-004
2.874336e-003,3.203414e-004
1.829172e-003,2.984626e-004
7.793107e-004,2.631324e-004
1.209313e-005,2.171058e-004
-2.746004e-004,1.633001e-004
-6.132246e-005,1.038221e-004
5.251921e-004,4.661304e-005
1.262914e-003,-7.100305e-007
1.905019e-003,-3.166451e-005
2.238226e-003,-4.252288e-005
2.137745e-003,-4.106429e-005
1.627076e-003,-4.009191e-005
8.624502e-004,-4.851930e-005
7.238143e-005,-6.472583e-005
-5.319601e-004,-7.363943e-005
-8.235155e-004,-6.342931e-005
-7.825130e-004,-3.668853e-005
-5.065158e-004,-5.085794e-006
-1.906506e-004,2.068259e-005
-3.150244e-005,3.656499e-005
-1.665028e-004,4.288554e-005
-6.206098e-004,3.932010e-005
-1.305336e-003,2.651694e-005
-2.082763e-003,6.582909e-006
-2.882071e-003,-2.080613e-005
-3.695480e-003,-6.132246e-005
-4.461081e-003,-1.152902e-004
-4.968350e-003,-1.736337e-004
-4.968350e-003,-2.211189e-004
-4.571448e-003,-2.536940e-004
-3.639081e-003,-2.771934e-004
-2.471072e-003,-2.956689e-004
-1.291560e-003,-3.070135e-004
-2.423494e-004,-3.130099e-004
6.128695e-004,-3.211132e-004
1.244601e-003,-3.350507e-004
1.652682e-003,-3.564434e-004
1.833548e-003,-3.830221e-004
1.810048e-003,-4.021458e-004
1.638907e-003,-3.946908e-004
1.404884e-003,-3.548227e-004
1.229367e-003,-2.903207e-004
1.201978e-003,-2.191741e-004
1.313641e-003,-1.626133e-004
1.472627e-003,-1.329553e-004
1.591097e-003,-1.242038e-004
1.638907e-003,-1.201522e-004
1.626752e-003,-1.002181e-004
1.573594e-003,-5.840528e-005
1.493534e-003,-6.868513e-006
1.362909e-003,3.867184e-005
1.066167e-003,6.832980e-005
4.532350e-004,7.513654e-005
-5.178604e-004,6.022653e-005
-1.715847e-003,3.380988e-005
-2.930366e-003,8.041497e-006
-3.892714e-003,-7.516774e-006
-4.378265e-003,-1.205460e-005
-4.336452e-003,-6.706447e-006
-3.899683e-003,8.041497e-006
-3.272487e-003,3.137890e-005
-2.596997e-003,6.038860e-005
-1.922319e-003,9.393612e-005
-1.268709e-003,1.284560e-004
-6.964564e-004,1.620036e-004
-2.622834e-004,1.973338e-004
2.392390e-005,2.380122e-004
1.976579e-004,2.871180e-004
3.357376e-004,3.532407e-004
5.224369e-004,4.386491e-004
8.219338e-004,5.394538e-004
1.250597e-003,6.379896e-004
1.756080e-003,7.120535e-004
2.223964e-003,7.404150e-004
2.556038e-003,7.138362e-004
2.742576e-003,6.383138e-004
2.827661e-003,5.313505e-004
2.844678e-003,4.146635e-004
2.796706e-003,3.085106e-004
2.668674e-003,2.243987e-004
2.422657e-003,1.644345e-004
1.989293e-003,1.222976e-004
1.302296e-003,9.393612e-005
3.158036e-004,7.627100e-005
-9.371233e-004,6.573675e-005
-2.217116e-003,6.038860e-005
-3.196154e-003,5.957827e-005
-3.606343e-003,5.649903e-005
-3.388851e-003,4.272347e-005
-2.704771e-003,1.646890e-005
-1.815355e-003,-1.691656e-005
-9.766672e-004,-5.435365e-005
-3.677880e-004,-9.503204e-005
-3.928157e-005,-1.349001e-004
3.510641e-005,-1.712027e-004
-9.697683e-005,-2.006986e-004
-3.099306e-004,-2.214430e-004
-4.219178e-004,-2.301945e-004
-2.966413e-004,-2.293842e-004
7.238143e-005,-2.201465e-004
5.553362e-004,-2.063709e-004
9.499656e-004,-1.969711e-004
1.038940e-003,-2.034537e-004
6.514410e-004,-2.290601e-004
-2.088019e-004,-2.702246e-004
-1.309874e-003,-3.159271e-004
-2.308845e-003,-3.485022e-004
-2.876723e-003,-3.546606e-004
-2.818217e-003,-3.360231e-004
-2.166065e-003,-3.063652e-004
-1.154453e-003,-2.786520e-004
-9.357346e-005,-2.569353e-004
7.460872e-004,-2.363530e-004
1.263562e-003,-2.113949e-004
1.543774e-003,-1.853024e-004
1.725774e-003,-1.598582e-004
1.897077e-003,-1.345760e-004
2.054605e-003,-1.104282e-004
2.125428e-003,-8.692878e-005
2.051526e-003,-6.521203e-005
1.840354e-003,-4.900550e-005
1.541667e-003,-4.268495e-005
1.207974e-003,-4.236082e-005
8.870842e-004,-4.009191e-005
6.133557e-004,-3.150244e-005
4.075326e-004,-1.610624e-005
2.767458e-004,7.485573e-007
2.171058e-004,1.679302e-005
2.222919e-004,2.635488e-005
2.871180e-004,2.197911e-005
4.021844e-004,-1.196227e-006
5.592257e-004,-3.976777e-005
7.561353e-004,-8.757704e-005
9.880509e-004,-1.470550e-004
1.231311e-003,-2.243602e-004
1.452369e-003,-3.144685e-004
1.627238e-003,-4.032803e-004
1.755918e-003,-4.697270e-004
1.860288e-003,-4.899852e-004
1.966279e-003,-4.484965e-004
2.079402e-003,-3.491504e-004
2.178424e-003,-2.057227e-004
2.240009e-003,-3.069211e-005
2.247140e-003,1.671896e-004
2.191875e-003,3.736609e-004
2.081670e-003,5.764047e-004
1.942294e-003,7.626179e-004
1.764507e-003,9.246834e-004
1.469710e-003,1.055956e-003
9.668204e-004,1.153844e-003
1.936063e-004,1.208136e-003
-8.108745e-004,1.205219e-003
-1.859437e-003,1.142986e-003
-2.705257e-003,1.032457e-003
-3.079143e-003,9.010218e-004
-2.821620e-003,7.736384e-004
-2.009834e-003,6.648925e-004
-9.257787e-004,5.775391e-004
9.020862e-005,5.044477e-004
7.524078e-004,4.344354e-004
9.391072e-004,3.615060e-004
6.705648e-004,2.842008e-004
8.323981e-005,2.077060e-004
-5.820383e-004,1.389903e-004
-1.064507e-003,8.080883e-005
-1.214255e-003,3.056858e-005
-1.036307e-003,-1.108221e-005
-6.510781e-004,-4.657452e-005
-1.985918e-004,-7.671866e-005
2.198609e-004,-1.042698e-004
5.350781e-004,-1.334415e-004
6.798024e-004,-1.681235e-004
5.979594e-004,-2.084778e-004
2.736666e-004,-2.465631e-004
-2.250084e-004,-2.763831e-004
-7.403760e-004,-2.945344e-004
-1.098378e-003,-3.015032e-004
-1.208096e-003,-3.011791e-004
-1.119123e-003,-3.006929e-004
-9.773155e-004,-3.027998e-004
-8.961208e-004,-3.097686e-004
-8.808867e-004,-3.222476e-004
-8.684076e-004,-3.381300e-004
-8.290258e-004,-3.549848e-004
-8.218948e-004,-3.752429e-004
-9.617572e-004,-4.000390e-004
-1.341962e-003,-4.293727e-004
-1.956676e-003,-4.553032e-004
-2.631031e-003,-4.687546e-004
-3.078332e-003,-4.661616e-004
-3.075091e-003,-4.530343e-004
-2.596025e-003,-4.379622e-004
-1.823297e-003,-4.227281e-004
-1.025773e-003,-4.024699e-004
-4.154351e-004,-3.710293e-004
-4.187462e-005,-3.261372e-004
1.712413e-004,-2.697385e-004
2.991108e-004,-2.053985e-004
3.587509e-004,-1.374932e-004
3.277964e-004,-7.282909e-005
2.013854e-004,-2.064406e-005
2.084466e-005,1.533444e-005
-1.509446e-004,3.737532e-005
-2.752487e-004,4.661304e-005
-3.465574e-004,4.580272e-005
-3.762153e-004,3.980630e-005
-3.828600e-004,3.235129e-005
-3.976080e-004,2.959619e-005
-4.378002e-004,3.721326e-005
-5.058676e-004,5.228533e-005
-6.082929e-004,6.978839e-005
-7.779752e-004,8.372601e-005
-1.040035e-003,8.486046e-005
-1.371783e-003,7.124698e-005
-1.703854e-003,5.131294e-005
-1.922643e-003,3.364782e-005
-1.887636e-003,2.489629e-005
-1.489442e-003,3.170304e-005
-7.146077e-004,5.957827e-005
3.111037e-004,1.085220e-004
1.306834e-003,1.765894e-004
1.994479e-003,2.584324e-004
2.213106e-003,3.396272e-004
1.998044e-003,4.029947e-004
1.554957e-003,4.344354e-004
1.122403e-003,4.334631e-004
8.528884e-004,4.076947e-004
7.982723e-004,3.739850e-004
9.496415e-004,3.412479e-004
1.234391e-003,3.190449e-004
1.539074e-003,3.101313e-004
1.764670e-003,3.185587e-004
1.873092e-003,3.418961e-004
1.899184e-003,3.717161e-004
1.902912e-003,3.968363e-004
1.929491e-003,4.122325e-004
1.990103e-003,4.145014e-004
2.055902e-003,4.057499e-004
2.083615e-003,3.897054e-004
2.049419e-003,3.665301e-004
1.974059e-003,3.311998e-004
1.917174e-003,2.790148e-004
1.896915e-003,2.124059e-004
1.800162e-003,1.406109e-004
1.414932e-003,6.768154e-005
5.744600e-004,-6.176923e-008
-7.184973e-004,-5.386745e-005
-2.167362e-003,-8.563225e-005
-3.343634e-003,-9.405965e-005
-3.862245e-003,-8.628052e-005
-3.580251e-003,-7.153257e-005
-2.655665e-003,-6.018800e-005
-1.452491e-003,-6.051213e-005
-3.601709e-004,-7.380149e-005
3.673404e-004,-9.843541e-005
6.908230e-004,-1.289037e-004
7.135121e-004,-1.553203e-004
5.794840e-004,-1.679614e-004
4.287631e-004,-1.720131e-004
3.550234e-004,-1.749302e-004
3.726885e-004,-1.877334e-004
4.251977e-004,-2.169052e-004
4.430249e-004,-2.632558e-004
3.950536e-004,-3.201407e-004
3.039728e-004,-3.783222e-004
2.292607e-004,-4.266177e-004
2.303951e-004,-4.569239e-004
3.344411e-004,-4.647030e-004
5.110924e-004,-4.463896e-004
6.796404e-004,-4.050630e-004
7.528940e-004,-3.497987e-004
6.760749e-004,-2.935620e-004
4.475628e-004,-2.457528e-004
1.122495e-004,-2.071812e-004
-2.475355e-004,-1.720131e-004
-5.313118e-004,-1.368449e-004
-6.580469e-004,-1.047560e-004
-5.849554e-004,-8.482193e-005
-2.980999e-004,-7.785312e-005
1.629760e-004,-8.206682e-005
6.809369e-004,-9.114248e-005
1.123862e-003,-1.032974e-004
1.416876e-003,-1.125351e-004
1.554957e-003,-1.149661e-004
1.564194e-003,-1.063766e-004
1.484458e-003,-8.611845e-005
1.353509e-003,-5.791909e-005
1.176371e-003,-2.793700e-005
9.629308e-004,4.313994e-006
7.757452e-004,3.737532e-005
7.161052e-004,6.606088e-005
8.786568e-004,8.761557e-005
1.318341e-003,1.044704e-004
1.951207e-003,1.214872e-004
2.493642e-003,1.453108e-004
2.610654e-003,1.796687e-004
2.080374e-003,2.188885e-004
8.609917e-004,2.464396e-004
-8.807246e-004,2.498430e-004
-2.768949e-003,2.289366e-004
-4.480042e-003,1.976579e-004
-4.968350e-003,1.751309e-004
-4.968188e-003,1.748067e-004
-4.968350e-003,1.983062e-004
-4.968512e-003,2.384984e-004
-4.547948e-003,2.861456e-004
-3.147535e-003,3.316860e-004
-1.779701e-003,3.658818e-004
-7.716547e-004,3.850055e-004
-3.118754e-004,3.884089e-004
-3.882082e-004,3.817642e-004
-8.609526e-004,3.702575e-004
-1.511645e-003,3.532407e-004
-2.054888e-003,3.318480e-004
-2.227488e-003,3.112658e-004
-1.905464e-003,2.945730e-004
-1.155263e-003,2.803113e-004
-1.955125e-004,2.663737e-004
7.060571e-004,2.550291e-004
1.360316e-003,2.475741e-004
1.701302e-003,2.425500e-004
1.773745e-003,2.333123e-004
1.690119e-003,2.148369e-004
1.549932e-003,1.898788e-004
1.403425e-003,1.616794e-004
1.266966e-003,1.326697e-004
1.142824e-003,1.049566e-004
1.029216e-003,8.259155e-005
9.402417e-004,6.541262e-005
8.903255e-004,5.260946e-005
8.679605e-004,4.402000e-005
8.585607e-004,3.786152e-005
8.733086e-004,3.040651e-005
9.583930e-004,1.776542e-005
1.153196e-003,-3.303076e-006
1.427573e-003,-3.555408e-005
1.697736e-003,-8.174268e-005
1.869202e-003,-1.405724e-004
1.881519e-003,-2.086398e-004
1.722371e-003,-2.728177e-004
1.433083e-003,-3.167374e-004
1.087721e-003,-3.342404e-004
7.530560e-004,-3.280820e-004
4.694416e-004,-3.060411e-004
2.756114e-004,-2.765452e-004
2.026820e-004,-2.451045e-004
2.500050e-004,-2.173914e-004
3.833848e-004,-2.034537e-004
5.345919e-004,-2.070192e-004
6.358828e-004,-2.246843e-004
6.366931e-004,-2.473734e-004
5.057442e-004,-2.677937e-004
2.506533e-004,-2.799486e-004
-6.991193e-005,-2.857829e-004
-3.689224e-004,-2.893484e-004
-5.666421e-004,-2.922655e-004
-6.314681e-004,-2.921034e-004
-5.768522e-004,-2.830278e-004
-4.493068e-004,-2.545043e-004
-3.039342e-004,-2.019951e-004
-1.791439e-004,-1.368449e-004
-9.600444e-005,-7.363943e-005
-6.391550e-005,-1.950961e-005
-8.352541e-005,2.732727e-005
-1.608306e-004,6.703327e-005
-2.998826e-004,9.814982e-005
-4.820440e-004,1.182459e-004
-6.588572e-004,1.257009e-004
-7.724650e-004,1.248906e-004
-7.682513e-004,1.179218e-004
-5.854416e-004,1.080358e-004
-2.417012e-004,9.766362e-005
8.259155e-005,8.680524e-005
1.171115e-004,7.708133e-005
-3.191683e-004,7.610894e-005
-1.151212e-003,9.555677e-005
-2.058292e-003,1.399627e-004
-2.673006e-003,2.038164e-004
-2.783211e-003,2.675081e-004
-2.394577e-003,3.138588e-004
-1.675007e-003,3.376824e-004
-8.512287e-004,3.380065e-004
-1.222590e-004,3.201794e-004
4.008879e-004,2.932765e-004
7.268014e-004,2.688046e-004
9.468864e-004,2.553532e-004
1.141527e-003,2.534084e-004
1.304565e-003,2.571359e-004
1.326444e-003,2.644289e-004
1.090314e-003,2.799871e-004
5.914768e-004,3.059176e-004
-3.085418e-005,3.363859e-004
-5.507597e-004,3.624784e-004
-7.682513e-004,3.723644e-004
-5.912760e-004,3.619922e-004
-6.602235e-005,3.336308e-004
6.358828e-004,2.994350e-004
1.284469e-003,2.722080e-004
1.692550e-003,2.529222e-004
1.758349e-003,2.352571e-004
1.482837e-003,2.046267e-004
9.948577e-004,1.568175e-004
4.966686e-004,1.013911e-004
1.731861e-004,5.098881e-005
1.216493e-004,1.452411e-005
3.373583e-004,7.485573e-007
7.315014e-004,1.274139e-005
1.161623e-003,4.596478e-005
1.501637e-003,9.296373e-005
1.684771e-003,1.391524e-004
1.695468e-003,1.705930e-004
1.553012e-003,1.788584e-004
1.290627e-003,1.611932e-004
9.483449e-004,1.213252e-004
5.939078e-004,6.865393e-005
3.247172e-004,1.257933e-005
2.299089e-004,-4.284701e-005
3.339549e-004,-9.924574e-005
5.511225e-004,-1.579134e-004
6.986021e-004,-2.198223e-004
5.695980e-004,-2.844864e-004
3.445814e-005,-3.510952e-004
-8.215707e-004,-4.134903e-004
-1.721844e-003,-4.625961e-004
-2.387609e-003,-4.950092e-004
-2.645455e-003,-5.100812e-004
-2.448545e-003,-5.089468e-004
-1.886340e-003,-4.974402e-004
-1.148132e-003,-4.718339e-004
-4.823681e-004,-4.303451e-004
-1.337657e-004,-3.754050e-004
-2.186879e-004,-3.071755e-004
-6.510781e-004,-2.329496e-004
-1.167742e-003,-1.643960e-004
-1.430936e-003,-1.167488e-004
-1.210527e-003,-1.005423e-004
-5.113778e-004,-1.182074e-004
4.415663e-004,-1.593720e-004
1.342651e-003,-2.044261e-004
1.990265e-003,-2.370013e-004
2.308725e-003,-2.488320e-004
2.334980e-003,-2.357047e-004
2.171941e-003,-1.992400e-004
1.917984e-003,-1.525652e-004
1.602118e-003,-1.092938e-004
1.186257e-003,-7.736692e-005
6.117350e-004,-5.581224e-005
-1.478653e-004,-4.284701e-005
-1.010539e-003,-3.344723e-005
-1.828321e-003,-2.599222e-005
-2.421318e-003,-1.983374e-005
-2.628600e-003,-1.464765e-005
-2.402357e-003,-5.409925e-006
-1.843717e-003,1.128280e-005
-1.147970e-003,3.235129e-005
-4.911196e-004,5.487838e-005
2.554455e-005,7.659513e-005
3.749574e-004,9.977047e-005
5.892079e-004,1.305629e-004
7.250187e-004,1.694586e-004
8.353853e-004,2.169437e-004
9.384590e-004,2.655633e-004
9.946957e-004,3.052694e-004
9.254937e-004,3.256896e-004
6.789921e-004,3.245551e-004
3.112658e-004,3.085106e-004
-1.724069e-005,2.861456e-004
-1.303623e-004,2.675081e-004
3.154097e-005,2.628082e-004
3.535648e-004,2.736666e-004
6.013628e-004,2.957075e-004
5.982835e-004,3.182346e-004
3.487029e-004,3.346032e-004
2.716521e-005,3.399513e-004
-1.297140e-004,3.347652e-004
6.258778e-006,3.195311e-004
3.624784e-004,3.026763e-004
7.363633e-004,2.929524e-004
9.217662e-004,2.906835e-004
7.806072e-004,2.910076e-004
3.128864e-004,2.876042e-004
-3.279199e-004,2.720459e-004
-1.008270e-003,2.454672e-004
-1.741129e-003,2.111094e-004
-2.617580e-003,1.733481e-004
-3.684621e-003,1.329939e-004
-4.790076e-003,9.344993e-005
-4.968188e-003,5.747142e-005
-4.968512e-003,2.667901e-005
-4.966405e-003,5.772582e-006
-3.663391e-003,-5.571990e-006
-2.258442e-003,-1.189254e-005
-1.226248e-003,-2.145439e-005
-8.359946e-004,-3.685060e-005
-9.520333e-004,-5.224680e-005
-1.182328e-003,-6.699475e-005
-1.189297e-003,-8.077030e-005
-8.507425e-004,-9.616651e-005
-2.536940e-004,-1.178833e-004
4.213082e-004,-1.444620e-004
1.001989e-003,-1.729855e-004
1.397591e-003,-2.002124e-004
1.600173e-003,-2.256567e-004
1.666296e-003,-2.498044e-004
1.677478e-003,-2.705488e-004
1.693199e-003,-2.851347e-004
1.728853e-003,-2.911311e-004
1.770504e-003,-2.921034e-004
1.802107e-003,-2.838381e-004
1.820906e-003,-2.616352e-004
1.824472e-003,-2.193361e-004
1.807779e-003,-1.618029e-004
1.774556e-003,-1.041077e-004
1.766128e-003,-6.423963e-005
1.843271e-003,-4.965376e-005
2.028675e-003,-5.516398e-005
2.285225e-003,-7.104638e-005
2.546962e-003,-8.644259e-005
2.754731e-003,-9.697683e-005
2.871095e-003,-1.041077e-004
2.889246e-003,-1.063766e-004
2.806754e-003,-1.026491e-004
2.618595e-003,-9.114248e-005
2.362531e-003,-7.250496e-005
2.120566e-003,-5.062615e-005
1.992210e-003,-2.404744e-005
2.024461e-003,1.014835e-005
2.144552e-003,5.260946e-005
2.170969e-003,1.012291e-004
1.868392e-003,1.474177e-004
1.065356e-003,1.845306e-004
-2.253326e-004,2.109473e-004
-1.735133e-003,2.302331e-004
-3.069419e-003,2.396328e-004
-3.881369e-003,2.363916e-004
-4.017019e-003,2.198609e-004
-3.575389e-003,1.944166e-004
-2.842365e-003,1.633001e-004
-2.134462e-003,1.360731e-004
-1.674196e-003,1.216493e-004
-1.531093e-003,1.231079e-004
-1.607426e-003,1.402868e-004
-1.717306e-003,1.726999e-004
-1.693644e-003,2.148369e-004
-1.448926e-003,2.581083e-004
-9.675916e-004,2.931144e-004
-2.778417e-004,3.114278e-004
5.457744e-004,3.093210e-004
1.389001e-003,2.910076e-004
2.113759e-003,2.649151e-004
2.562845e-003,2.417397e-004
2.675643e-003,2.281262e-004
2.564303e-003,2.224539e-004
2.392351e-003,2.198609e-004
2.206623e-003,2.175920e-004
1.920253e-003,2.132162e-004
1.423197e-003,2.026820e-004
7.026537e-004,1.840444e-004
-1.165867e-004,1.551968e-004
-7.839716e-004,1.203528e-004
-1.085575e-003,8.729144e-005
-9.820154e-004,6.654708e-005
-6.223925e-004,6.476436e-005
-2.546664e-004,7.610894e-005
-8.903562e-005,9.134307e-005
-1.818991e-004,1.033359e-004
-4.311555e-004,1.085220e-004
-6.669604e-004,1.067393e-004
-7.340555e-004,1.012291e-004
-5.540010e-004,9.555677e-005
-1.418689e-004,8.664318e-005
4.287631e-004,6.865393e-005
1.024840e-003,4.110282e-005
1.455610e-003,8.527692e-006
1.517681e-003,-1.610624e-005
1.065032e-003,-2.323711e-005
1.305629e-004,-1.562004e-005
-9.637020e-004,-8.651231e-006
-1.765763e-003,-1.772689e-005
-2.001407e-003,-4.641245e-005
-1.669010e-003,-8.595638e-005
-1.001463e-003,-1.246900e-004
-3.071755e-004,-1.553203e-004
1.840444e-004,-1.768750e-004
4.089912e-004,-1.901644e-004
4.511282e-004,-1.987538e-004
4.352458e-004,-2.044261e-004
4.448076e-004,-2.083157e-004
4.884033e-004,-2.063709e-004
5.347540e-004,-1.938919e-004
5.639257e-004,-1.776853e-004
5.683015e-004,-1.642339e-004
5.381573e-004,-1.577513e-004
4.564763e-004,-1.541859e-004
3.091589e-004,-1.481895e-004
1.088461e-004,-1.426792e-004
-1.083214e-004,-1.423551e-004
-2.942103e-004,-1.514308e-004
-3.911253e-004,-1.723372e-004
-3.694086e-004,-2.019951e-004
-2.595283e-004,-2.352185e-004
-1.400862e-004,-2.669833e-004
-1.067007e-004,-2.924276e-004
-2.097743e-004,-3.105789e-004
-4.776682e-004,-3.198166e-004
-9.729397e-004,-3.154408e-004
-1.744047e-003,-2.929138e-004
-2.705257e-003,-2.572594e-004
-3.618498e-003,-2.267911e-004
-4.184919e-003,-2.143121e-004
-4.159475e-003,-2.250084e-004
-3.465508e-003,-2.558008e-004
-2.249691e-003,-2.948586e-004
-8.267568e-004,-3.279199e-004
4.352458e-004,-3.392644e-004
1.273124e-003,-3.144685e-004
1.676830e-003,-2.509389e-004
1.766452e-003,-1.562927e-004
1.707947e-003,-4.106429e-005
1.667430e-003,8.097089e-005
1.756242e-003,1.960373e-004
1.985079e-003,2.958695e-004
2.268046e-003,3.790091e-004
2.480677e-003,4.551798e-004
2.520545e-003,5.329712e-004
2.345514e-003,6.212969e-004
1.984755e-003,7.139983e-004
1.523354e-003,7.945448e-004
1.042181e-003,8.464058e-004
5.918010e-004,8.595330e-004
1.720516e-004,8.282544e-004
-2.376495e-004,7.569456e-004
-6.376266e-004,6.606788e-004
-1.004705e-003,5.556603e-004
-1.309387e-003,4.550177e-004
-1.551351e-003,3.634508e-004
-1.800769e-003,2.812837e-004
-2.156503e-003,2.018716e-004
-2.667334e-003,1.218114e-004
-3.272487e-003,3.705119e-005
-3.807143e-003,-5.516398e-005
-4.065477e-003,-1.465688e-004
-3.911190e-003,-2.280877e-004
-3.340069e-003,-2.917793e-004
-2.446763e-003,-3.322956e-004
-1.388313e-003,-3.457471e-004
-3.489884e-004,-3.344025e-004
4.869446e-004,-2.984240e-004
9.903199e-004,-2.352185e-004
1.153358e-003,-1.462447e-004
1.059036e-003,-3.393342e-005
8.305234e-004,9.231547e-005
5.788357e-004,2.184023e-004
3.794953e-004,3.378445e-004
2.702632e-004,4.449697e-004
2.396328e-004,5.310264e-004
2.226160e-004,5.819149e-004
1.456350e-004,5.806184e-004
-8.813297e-006,5.136854e-004
-1.925954e-004,3.822504e-004
-2.995585e-004,2.034923e-004
-2.006986e-004,1.095867e-005
1.498487e-004,-1.585616e-004
6.464170e-004,-2.737901e-004
1.098742e-003,-3.285682e-004
1.358695e-003,-3.348887e-004
1.380088e-003,-3.186821e-004
1.228232e-003,-3.034480e-004
1.040560e-003,-3.018274e-004
9.499656e-004,-3.117133e-004
1.025974e-003,-3.271096e-004
1.259349e-003,-3.460712e-004
1.574729e-003,-3.694086e-004
1.865799e-003,-3.922598e-004
2.038075e-003,-4.133283e-004
2.039371e-003,-4.361795e-004
1.888326e-003,-4.624341e-004
1.668241e-003,-4.932265e-004
1.484458e-003,-5.240189e-004
1.412339e-003,-5.444391e-004
1.483161e-003,-5.439529e-004
1.680071e-003,-5.149432e-004
1.942618e-003,-4.546549e-004
2.198844e-003,-3.687603e-004
2.412447e-003,-2.710350e-004
2.551824e-003,-1.752544e-004
2.551176e-003,-8.563225e-005
2.316342e-003,1.072688e-006
1.760942e-003,8.194328e-005
8.994011e-004,1.504969e-004
-1.258245e-004,2.020337e-004
-1.051379e-003,2.346088e-004
-1.639028e-003,2.530843e-004
-1.802876e-003,2.597290e-004
-1.630601e-003,2.540567e-004
-1.321380e-003,2.404432e-004
-1.079093e-003,2.261814e-004
-1.014915e-003,2.169437e-004
-1.095461e-003,2.138645e-004
-1.184435e-003,2.125679e-004
-1.150077e-003,2.075439e-004
-9.502506e-004,1.991165e-004
-6.079687e-004,1.942546e-004
-1.806025e-004,1.997648e-004
2.438466e-004,2.195368e-004
5.564707e-004,2.508154e-004
6.639201e-004,2.898731e-004
5.203301e-004,3.313618e-004
1.749688e-004,3.691231e-004
-2.081536e-004,3.971604e-004
-4.193247e-004,4.127187e-004
-3.031239e-004,4.170944e-004
1.833962e-004,4.143393e-004
9.546655e-004,4.099636e-004
1.810048e-003,4.049396e-004
2.479056e-003,3.994293e-004
2.681801e-003,3.924605e-004
2.227206e-003,3.796573e-004
1.125483e-003,3.556717e-004
-3.462333e-004,3.158036e-004
-1.682624e-003,2.632944e-004
-2.512075e-003,2.104611e-004
-2.734105e-003,1.678379e-004
-2.500082e-003,1.404489e-004
-2.092163e-003,1.261871e-004
-1.730109e-003,1.180839e-004
-1.484094e-003,1.117633e-004
-1.301932e-003,1.081979e-004
-1.110209e-003,1.069013e-004
-9.364750e-004,1.054428e-004
-8.990379e-004,9.733949e-005
-1.081199e-003,7.513654e-005
-1.429802e-003,4.029250e-005
-1.728488e-003,-7.100305e-007
-1.724599e-003,-3.863332e-005
-1.342449e-003,-6.667062e-005
-7.685754e-004,-8.514606e-005
-3.253268e-004,-9.665270e-005
-2.373254e-004,-1.037836e-004
-5.104054e-004,-1.075111e-004
-9.463610e-004,-1.076731e-004
-1.256878e-003,-1.076731e-004
-1.236296e-003,-1.115627e-004
-8.768350e-004,-1.246900e-004
-3.379679e-004,-1.489998e-004
1.691344e-004,-1.825473e-004
4.851619e-004,-2.183637e-004
5.460985e-004,-2.464010e-004
3.945674e-004,-2.637420e-004
1.440143e-004,-2.768693e-004
-8.255302e-005,-2.898345e-004
-1.763888e-004,-3.023136e-004
-9.065628e-005,-3.120375e-004
1.201907e-004,-3.156029e-004
3.273102e-004,-3.162512e-004
4.298976e-004,-3.206269e-004
4.098015e-004,-3.324577e-004
3.136967e-004,-3.431540e-004
2.106232e-004,-3.457471e-004
1.472556e-004,-3.369955e-004
1.461212e-004,-3.165753e-004
2.093267e-004,-2.917793e-004
3.171001e-004,-2.661730e-004
4.243874e-004,-2.402425e-004
4.835413e-004,-2.109087e-004
4.436732e-004,-1.757406e-004
2.500050e-004,-1.332795e-004
-1.295519e-004,-9.000802e-005
-6.667984e-004,-4.608832e-005
-1.248289e-003,-1.034161e-006
-1.689431e-003,4.483033e-005
-1.812114e-003,8.356394e-005
-1.542599e-003,1.104668e-004
-9.398784e-004,1.234320e-004
-1.263107e-004,1.235941e-004
7.741245e-004,1.116012e-004
1.651386e-003,9.280167e-005
2.444860e-003,7.708133e-005
3.128780e-003,7.821578e-005
3.713031e-003,9.879808e-005
4.228404e-003,1.310491e-004
4.670200e-003,1.663793e-004
4.959005e-003,1.971717e-004
4.958843e-003,2.247229e-004
4.629360e-003,2.521119e-004
3.912698e-003,2.901973e-004
2.914528e-003,3.414099e-004
1.744898e-003,3.989431e-004
4.981271e-004,4.469145e-004
-7.752200e-004,4.683071e-004
-2.025392e-003,4.600418e-004
-3.199395e-003,4.268184e-004
-4.164175e-003,3.778746e-004
-4.725574e-003,3.271482e-004
-4.680033e-003,2.837146e-004
-3.957379e-003,2.495189e-004
-2.764897e-003,2.229401e-004
-1.505486e-003,2.020337e-004
-5.763660e-004,1.824238e-004
-1.425172e-004,1.608691e-004
-2.226472e-005,1.368834e-004
1.287802e-004,1.153287e-004
5.350781e-004,1.018773e-004
1.138448e-003,9.944634e-005
1.634207e-003,1.030118e-004
1.676668e-003,1.077117e-004
1.117541e-003,1.124116e-004
1.676758e-004,1.200286e-004
-6.888393e-004,1.300767e-004
-1.062238e-003,1.438522e-004
-9.089239e-004,1.495245e-004
-4.752372e-004,1.305629e-004
-1.303623e-004,8.502253e-005
-1.564548e-004,2.667901e-005
-6.149375e-004,-2.923353e-005
-1.345528e-003,-7.023606e-005
-2.061208e-003,-9.341139e-005
-2.467669e-003,-1.044318e-004
-2.390850e-003,-1.120489e-004
-1.858465e-003,-1.237176e-004
-1.078768e-003,-1.425172e-004
-3.104168e-004,-1.671511e-004
2.433604e-004,-1.898403e-004
4.935893e-004,-1.987538e-004
4.728449e-004,-1.924333e-004
2.718839e-004,-1.780095e-004
-1.059602e-005,-1.686097e-004
-3.002067e-004,-1.716889e-004
-5.527044e-004,-1.917850e-004
-7.311383e-004,-2.279256e-004
-7.875370e-004,-2.723315e-004
-6.855980e-004,-3.143064e-004
-4.531963e-004,-3.420196e-004
-1.817370e-004,-3.446126e-004
2.959619e-005,-3.198166e-004
1.522796e-004,-2.796244e-004
2.234263e-004,-2.415391e-004
2.919800e-004,-2.188499e-004
3.976466e-004,-2.091260e-004
5.694359e-004,-2.031296e-004
8.135065e-004,-1.955125e-004
1.097121e-003,-1.846542e-004
1.357723e-003,-1.700683e-004
1.542802e-003,-1.543479e-004
1.645551e-003,-1.384655e-004
1.696602e-003,-1.208004e-004
1.738253e-003,-9.713889e-005
1.795462e-003,-6.148453e-005
1.861585e-003,-1.335113e-005
1.900643e-003,4.077869e-005
1.866609e-003,9.733949e-005
1.726908e-003,1.524417e-004
1.487537e-003,2.002510e-004
1.193388e-003,2.349330e-004
9.164180e-004,2.532463e-004
7.157810e-004,2.532463e-004
6.234037e-004,2.376881e-004
6.407447e-004,2.104611e-004
7.070294e-004,1.770756e-004
6.731578e-004,1.467694e-004
3.905157e-004,1.338042e-004
-1.831956e-004,1.500107e-004
-9.073032e-004,2.002510e-004
-1.500624e-003,2.785285e-004
-1.698668e-003,3.691231e-004
-1.416026e-003,4.553419e-004
-7.881853e-004,5.187094e-004
-6.699475e-005,5.499881e-004
5.341057e-004,5.472330e-004
9.373245e-004,5.162785e-004
1.152223e-003,4.681450e-004
1.195819e-003,4.140152e-004
1.072001e-003,3.658818e-004
7.731522e-004,3.279585e-004
3.187208e-004,3.021901e-004
-2.164190e-004,2.879283e-004
-7.491275e-004,2.804733e-004
-1.246344e-003,2.798251e-004
-1.711471e-003,2.864697e-004
-2.111449e-003,2.971661e-004
-2.337855e-003,3.042970e-004
-2.255525e-003,2.994350e-004
-1.779215e-003,2.783665e-004
-9.577056e-004,2.435224e-004
1.338965e-005,2.051129e-004
8.694191e-004,1.722137e-004
1.431625e-003,1.508211e-004
1.645065e-003,1.380179e-004
1.532267e-003,1.266733e-004
1.206678e-003,1.104668e-004
8.451093e-004,8.307774e-005
5.927734e-004,4.320967e-005
4.718725e-004,-7.840905e-006
3.657197e-004,-6.764301e-005
5.779555e-005,-1.340898e-004
-6.392473e-004,-2.026434e-004
-1.721357e-003,-2.713591e-004
-2.958566e-003,-3.382920e-004
-3.966941e-003,-4.029561e-004
-4.398685e-003,-4.651892e-004
-4.131762e-003,-5.188328e-004
-3.311383e-003,-5.518941e-004
-2.228136e-003,-5.583767e-004
-1.149429e-003,-5.436288e-004
-2.724935e-004,-5.206155e-004
2.603772e-004,-4.992229e-004
4.326527e-004,-4.844750e-004
3.775505e-004,-4.792889e-004
2.957075e-004,-4.783165e-004
3.509718e-004,-4.697270e-004
5.969870e-004,-4.439586e-004
9.836752e-004,-3.995528e-004
1.412339e-003,-3.400748e-004
1.766614e-003,-2.724935e-004
1.956231e-003,-2.042641e-004
1.958824e-003,-1.404103e-004
1.836465e-003,-8.935975e-005
1.711350e-003,-5.159854e-005
1.665485e-003,-2.291298e-005
1.700167e-003,-2.492749e-006
1.784117e-003,6.907040e-006
1.817341e-003,4.313994e-006
1.652196e-003,-3.627206e-006
1.220939e-003,-3.951337e-006
6.162729e-004,5.610517e-006
2.457216e-005,1.760335e-005
-3.927460e-004,1.630683e-005
-5.574043e-004,-5.896120e-006
-4.894990e-004,-3.928157e-005
-2.771934e-004,-6.164659e-005
1.063454e-005,-5.548811e-005
3.162898e-004,-2.145439e-005
5.504743e-004,2.846173e-005
6.211348e-004,8.064677e-005
4.585832e-004,1.260251e-004
8.550872e-005,1.637863e-004
-4.084663e-004,2.002510e-004
-8.867210e-004,2.420638e-004
-1.192052e-003,2.871180e-004
-1.242130e-003,3.258516e-004
-1.080065e-003,3.548613e-004
-8.369670e-004,3.709058e-004
-6.525366e-004,3.694472e-004
-6.092652e-004,3.516200e-004
-6.943495e-004,3.263378e-004
-8.205983e-004,3.023522e-004
-8.714869e-004,2.895490e-004
-7.616066e-004,2.932765e-004
-4.875542e-004,3.102934e-004
-1.352242e-004,3.347652e-004
1.683241e-004,3.581026e-004
3.354135e-004,3.736609e-004
3.534027e-004,3.783608e-004
2.457913e-004,3.781987e-004
2.165498e-005,3.791712e-004
-3.134961e-004,3.811159e-004
-7.006701e-004,3.767402e-004
-1.028042e-003,3.608578e-004
-1.194483e-003,3.302274e-004
-1.141650e-003,2.901973e-004
-8.735937e-004,2.436845e-004
-4.416897e-004,1.961994e-004
6.055066e-005,1.521176e-004
5.225990e-004,1.135460e-004
8.601813e-004,7.562274e-005
1.052553e-003,2.943412e-005
1.147037e-003,-2.874733e-005
1.205543e-003,-8.838737e-005
1.242494e-003,-1.337657e-004
1.233256e-003,-1.619650e-004
1.173778e-003,-1.765509e-004
1.112679e-003,-1.859507e-004
1.084804e-003,-1.948643e-004
1.072487e-003,-2.068571e-004
1.032133e-003,-2.225774e-004
9.340832e-004,-2.400805e-004
7.786624e-004,-2.540181e-004
6.295622e-004,-2.574215e-004
5.947181e-004,-2.494803e-004
7.324737e-004,-2.321393e-004
9.183628e-004,-2.066950e-004
8.888670e-004,-1.724993e-004
4.548557e-004,-1.314967e-004
-3.908012e-004,-8.871149e-005
-1.401927e-003,-5.338126e-005
-2.148724e-003,-3.247483e-005
-2.276756e-003,-3.117831e-005
-1.729461e-003,-4.932962e-005
-7.684134e-004,-7.947377e-005
1.893926e-004,-1.104282e-004
7.832003e-004,-1.336036e-004
9.091251e-004,-1.444620e-004
6.964952e-004,-1.431655e-004
3.725265e-004,-1.374932e-004
1.297526e-004,-1.366828e-004
4.418206e-005,-1.439758e-004
4.013043e-005,-1.622891e-004
-7.185670e-005,-1.882196e-004
-4.238625e-004,-2.160948e-004
-9.520333e-004,-2.399184e-004
-1.464484e-003,-2.522354e-004
-1.750691e-003,-2.488320e-004
-1.663014e-003,-2.290601e-004
-1.206800e-003,-1.955125e-004
-5.583767e-004,-1.562927e-004
1.873781e-005,-1.161005e-004
3.002453e-004,-7.639453e-005
2.237505e-004,-3.085418e-005
-1.034594e-004,1.889987e-005
-4.930644e-004,6.444023e-005
-7.786234e-004,9.312580e-005
-8.718110e-004,1.041462e-004
-7.706822e-004,1.056048e-004
-5.441150e-004,1.081979e-004
-3.131719e-004,1.175977e-004
-2.060468e-004,1.316974e-004
-2.883759e-004,1.459591e-004
-5.386047e-004,1.594105e-004
-8.706765e-004,1.761032e-004
-1.166770e-003,1.992786e-004
-1.304525e-003,2.328261e-004
-1.216686e-003,2.730183e-004
-9.207547e-004,3.133726e-004
-5.105674e-004,3.465960e-004
-7.914964e-005,3.632887e-004
3.561579e-004,3.602095e-004
8.224201e-004,3.384927e-004
1.336492e-003,3.059176e-004
1.870985e-003,2.748010e-004
2.367879e-003,2.534084e-004
2.785848e-003,2.417397e-004
3.103822e-003,2.341226e-004
3.284202e-003,2.248849e-004
3.271561e-003,2.111094e-004
3.006096e-003,1.893926e-004
2.426709e-003,1.636242e-004
1.498234e-003,1.433661e-004
3.072141e-004,1.378558e-004
-9.087619e-004,1.498487e-004
-1.877751e-003,1.780480e-004
-2.448545e-003,2.141886e-004
-2.551295e-003,2.462775e-004
-2.186485e-003,2.679943e-004
-1.483121e-003,2.793389e-004
-6.864083e-004,2.795009e-004
-3.458168e-005,2.702632e-004
3.488649e-004,2.551911e-004
4.819206e-004,2.372019e-004
4.741415e-004,2.175920e-004
4.694416e-004,1.918236e-004
5.806184e-004,1.526038e-004
8.313337e-004,9.361199e-005
1.150441e-003,1.371378e-005
1.401480e-003,-8.060823e-005
1.424818e-003,-1.700683e-004
1.114300e-003,-2.345703e-004
4.793275e-004,-2.660110e-004
-3.322956e-004,-2.684419e-004
-1.077472e-003,-2.545043e-004
-1.535631e-003,-2.348944e-004
-1.584250e-003,-2.133397e-004
-1.237268e-003,-1.938919e-004
-6.293613e-004,-1.817370e-004
5.115087e-005,-1.818991e-004
6.272933e-004,-1.987538e-004
1.005392e-003,-2.321393e-004
1.180747e-003,-2.737901e-004
1.204084e-003,-3.113892e-004
1.166161e-003,-3.344025e-004
1.152548e-003,-3.355370e-004
1.201167e-003,-3.168994e-004
1.320448e-003,-2.882139e-004
1.522381e-003,-2.562870e-004
1.790924e-003,-2.235498e-004
2.048771e-003,-1.916230e-004
2.197223e-003,-1.660166e-004
2.171131e-003,-1.515928e-004
1.987834e-003,-1.488377e-004
1.720264e-003,-1.494860e-004
1.423521e-003,-1.434896e-004
1.086587e-003,-1.222590e-004
6.614891e-004,-7.931171e-005
1.038221e-004,-1.837515e-005
-6.091032e-004,5.277153e-005
-1.443577e-003,1.190562e-004
-2.275135e-003,1.637863e-004
-2.930691e-003,1.775618e-004
-3.329210e-003,1.611932e-004
-3.540707e-003,1.232699e-004
-3.716224e-003,7.351589e-005
-4.021395e-003,1.922400e-005
-4.521532e-003,-3.247483e-005
-4.968350e-003,-6.764301e-005
-4.968350e-003,-7.704279e-005
-4.968512e-003,-5.759496e-005
-4.526393e-003,-1.335113e-005
-3.404247e-003,4.709924e-005
-2.027823e-003,1.114392e-004
-6.575607e-004,1.654069e-004
4.350837e-004,1.999268e-004
1.062277e-003,2.149989e-004
1.205219e-003,2.164575e-004
9.710342e-004,2.137024e-004
5.777013e-004,2.156472e-004
2.587566e-004,2.278021e-004
1.532520e-004,2.513016e-004
2.965178e-004,2.791768e-004
6.577615e-004,3.020280e-004
1.147523e-003,3.124002e-004
1.640041e-003,3.101313e-004
2.012955e-003,3.017039e-004
2.181017e-003,2.934386e-004
2.127859e-003,2.842008e-004
1.928032e-003,2.710735e-004
1.702923e-003,2.532463e-004
1.555443e-003,2.326641e-004
1.533240e-003,2.117576e-004
1.637286e-003,1.903650e-004
1.827065e-003,1.699448e-004
2.036940e-003,1.519555e-004
2.194306e-003,1.347766e-004
2.261888e-003,1.175977e-004
2.256864e-003,1.002567e-004
2.200789e-003,8.421220e-005
2.101280e-003,7.400208e-005
1.951369e-003,7.043665e-005
1.752515e-003,7.270556e-005
1.546205e-003,7.740546e-005
1.380898e-003,8.340187e-005
1.257566e-003,9.296373e-005
1.139906e-003,1.091703e-004
9.577448e-004,1.224596e-004
6.110868e-004,1.203528e-004
2.667901e-005,9.782569e-005
-7.782993e-004,5.957827e-005
-1.696886e-003,1.241726e-005
-2.581439e-003,-3.506788e-005
-3.260981e-003,-7.833932e-005
-3.554482e-003,-1.076731e-004
-3.358544e-003,-1.227452e-004
-2.727622e-003,-1.274451e-004
-1.845175e-003,-1.331174e-004
-9.126515e-004,-1.447861e-004
-6.602235e-005,-1.637477e-004
6.263209e-004,-1.877334e-004
1.164540e-003,-2.136638e-004
1.601956e-003,-2.394322e-004
1.957852e-003,-2.637420e-004
2.161569e-003,-2.822175e-004
2.105008e-003,-2.874036e-004
1.773097e-003,-2.754107e-004
1.312182e-003,-2.507768e-004
9.138250e-004,-2.229016e-004
6.710509e-004,-2.044261e-004
5.196818e-004,-1.990780e-004
2.905214e-004,-2.049123e-004
-1.161005e-004,-2.183637e-004
-5.677765e-004,-2.329496e-004
-8.086055e-004,-2.391081e-004
-7.366485e-004,-2.293842e-004
-5.040849e-004,-2.034537e-004
-4.447690e-004,-1.682856e-004
-9.034137e-004,-1.339277e-004
-2.013237e-003,-1.112386e-004
-3.602291e-003,-1.057284e-004
-4.968350e-003,-1.131834e-004
-4.968350e-003,-1.209625e-004
-4.968188e-003,-1.220970e-004
-4.968188e-003,-1.144799e-004
-3.918807e-003,-9.989401e-005
-1.498031e-003,-8.287715e-005
1.025326e-003,-6.569822e-005
3.013875e-003,-4.722278e-005
4.199719e-003,-2.664048e-005
4.524664e-003,-7.840905e-006
4.070389e-003,5.124321e-006
3.016630e-003,1.452411e-005
1.620755e-003,3.024445e-005
1.911753e-004,6.233338e-005
-9.724535e-004,1.117633e-004
-1.729137e-003,1.718896e-004
-2.095567e-003,2.337985e-004
-2.146455e-003,2.872801e-004
-1.942253e-003,3.232586e-004
-1.516183e-003,3.370341e-004
-9.372854e-004,3.316860e-004
-3.695707e-004,3.115899e-004
-1.221667e-005,2.874421e-004
1.355172e-005,2.683184e-004
-2.809209e-004,2.590807e-004
-7.509103e-004,2.602152e-004
-1.154939e-003,2.684805e-004
-1.277623e-003,2.824181e-004
-1.041331e-003,3.038107e-004
-5.259637e-004,3.358997e-004
1.073875e-004,3.739850e-004
7.109190e-004,4.081808e-004
1.219481e-003,4.271425e-004
1.631127e-003,4.266563e-004
1.953962e-003,4.054258e-004
2.173724e-003,3.642611e-004
2.274205e-003,3.080245e-004
2.277770e-003,2.480603e-004
2.240981e-003,1.918236e-004
2.205975e-003,1.493625e-004
2.174210e-003,1.227837e-004
2.103063e-003,1.120874e-004
1.929328e-003,1.098185e-004
1.617352e-003,1.062531e-004
1.210891e-003,9.312580e-005
8.084825e-004,6.897806e-005
4.960203e-004,3.656499e-005
3.075383e-004,3.827799e-006
2.180782e-004,-2.647842e-005
2.137024e-004,-5.305713e-005
3.336308e-004,-7.347736e-005
6.274553e-004,-8.547019e-005
1.074756e-003,-8.887356e-005
1.567760e-003,-8.595638e-005
1.970331e-003,-8.255302e-005
2.179234e-003,-8.206682e-005
2.152493e-003,-8.514606e-005
1.923656e-003,-1.005423e-004
1.584777e-003,-1.332795e-004
1.250435e-003,-1.828714e-004
1.018681e-003,-2.434839e-004
9.214421e-004,-3.016653e-004
9.306798e-004,-3.400748e-004
9.562862e-004,-3.465574e-004
8.791430e-004,-3.243544e-004
5.872631e-004,-2.870794e-004
7.497447e-005,-2.511010e-004
-5.433047e-004,-2.287359e-004
-1.128522e-003,-2.254946e-004
-1.592515e-003,-2.345703e-004
-1.895740e-003,-2.478596e-004
-2.020206e-003,-2.570974e-004
-1.985200e-003,-2.611490e-004
-1.862516e-003,-2.616352e-004
-1.750529e-003,-2.613110e-004
-1.741129e-003,-2.624455e-004
-1.876130e-003,-2.647144e-004
-2.116311e-003,-2.660110e-004
-2.351468e-003,-2.658489e-004
-2.455028e-003,-2.570974e-004
-2.320351e-003,-2.311669e-004
-1.920212e-003,-1.831956e-004
-1.357197e-003,-1.198280e-004
-8.241638e-004,-4.997789e-005
-4.988988e-004,1.501031e-005
-4.833405e-004,6.865393e-005
-7.646859e-004,1.098185e-004
-1.206314e-003,1.454729e-004
-1.589922e-003,1.848548e-004
-1.710499e-003,2.318537e-004
-1.459298e-003,2.816078e-004
-8.687317e-004,3.234207e-004
-9.357346e-005,3.487029e-004
6.538720e-004,3.598854e-004
1.203922e-003,3.675024e-004
1.503906e-003,3.796573e-004
1.594500e-003,3.989431e-004
1.549770e-003,4.198496e-004
1.430814e-003,4.383250e-004
1.269559e-003,4.465904e-004
1.069894e-003,4.415663e-004
8.301992e-004,4.251977e-004
5.598741e-004,4.054258e-004
3.081865e-004,3.916502e-004
1.594105e-004,3.816021e-004
2.002510e-004,3.710679e-004
4.624728e-004,3.558337e-004
9.044252e-004,3.375204e-004
1.431462e-003,3.187208e-004
1.907125e-003,2.963557e-004
2.148928e-003,2.679943e-004
1.969359e-003,2.363916e-004
1.274745e-003,2.112714e-004
1.581140e-004,1.958752e-004
-1.073582e-003,1.879340e-004
-2.007889e-003,1.795066e-004
-2.325213e-003,1.642725e-004
-1.918267e-003,1.363972e-004
-9.967634e-004,9.263960e-005
7.393236e-006,3.235129e-005
6.447964e-004,-3.863332e-005
6.391241e-004,-1.057284e-004
-8.975362e-006,-1.540238e-004
-1.011187e-003,-1.765509e-004
-1.970776e-003,-1.765509e-004
-2.574956e-003,-1.616409e-004
-2.683540e-003,-1.347380e-004
-2.296366e-003,-9.908367e-005
-1.460918e-003,-5.759496e-005
-2.807589e-004,-1.464765e-005
1.057091e-003,2.052053e-005
2.296408e-003,3.672706e-005
3.238337e-003,2.554455e-005
3.776075e-003,-1.886135e-005
3.895842e-003,-9.081835e-005
3.637994e-003,-1.726613e-004
3.064764e-003,-2.462390e-004
2.240819e-003,-2.982619e-004
1.231960e-003,-3.214373e-004
1.553589e-004,-3.156029e-004
-7.791097e-004,-2.861070e-004
-1.372593e-003,-2.439701e-004
-1.537899e-003,-2.028055e-004
-1.291398e-003,-1.716889e-004
-7.457242e-004,-1.579134e-004
-1.088076e-004,-1.669890e-004
3.752816e-004,-1.968091e-004
5.272989e-004,-2.386219e-004
2.652392e-004,-2.797865e-004
-3.540124e-004,-3.131719e-004
-1.097406e-003,-3.337542e-004
-1.687162e-003,-3.386162e-004
-1.950842e-003,-3.293785e-004
-1.891850e-003,-3.107410e-004
-1.690889e-003,-2.898345e-004
-1.555402e-003,-2.653627e-004
-1.519586e-003,-2.337599e-004
-1.457029e-003,-1.922712e-004
-1.261578e-003,-1.428413e-004
-9.403646e-004,-9.081835e-005
-5.928966e-004,-4.414354e-005
-3.810773e-004,-9.461558e-006
-4.267797e-004,6.582909e-006
-7.061802e-004,5.448452e-006
-1.054621e-003,-4.275467e-006
-1.255582e-003,-1.432352e-005
-1.154777e-003,-1.643037e-005
-7.181731e-004,-7.678839e-006
-4.365734e-005,1.047248e-005
6.806127e-004,3.202716e-005
1.258052e-003,5.309566e-005
1.549284e-003,6.865393e-005
1.505202e-003,7.529860e-005
1.197116e-003,7.983644e-005
8.037825e-004,9.393612e-005
5.196818e-004,1.312112e-004
4.676588e-004,1.983062e-004
6.496583e-004,2.863077e-004
9.707100e-004,3.736609e-004
1.299703e-003,4.355699e-004
1.536967e-003,4.619866e-004
1.634693e-003,4.621486e-004
1.581049e-003,4.511282e-004
1.398725e-003,4.378388e-004
1.121593e-003,4.316803e-004
7.794728e-004,4.315182e-004
4.143393e-004,4.290873e-004
8.793970e-005,4.183910e-004
-1.446240e-004,3.995914e-004
-2.679557e-004,3.767402e-004
-2.989102e-004,3.542131e-004
-2.517492e-004,3.350894e-004
-1.263107e-004,3.162898e-004
1.017153e-004,2.989488e-004
4.457800e-004,2.830664e-004
8.924323e-004,2.655633e-004
1.383977e-003,2.425500e-004
1.784928e-003,2.156472e-004
1.910853e-003,1.869616e-004
1.613138e-003,1.590864e-004
8.648812e-004,1.341283e-004
-1.506204e-004,1.143563e-004
-1.078282e-003,1.013911e-004
-1.639677e-003,9.960841e-005
-1.753284e-003,1.067393e-004
-1.517965e-003,1.148425e-004
-1.107130e-003,1.172735e-004
-6.186650e-004,1.104668e-004
-4.608832e-005,9.344993e-005
6.306967e-004,6.849186e-005
1.380088e-003,3.575467e-005
2.095932e-003,-7.030578e-006
2.606602e-003,-5.678463e-005
2.739983e-003,-1.076731e-004
2.397375e-003,-1.564548e-004
1.618486e-003,-2.024813e-004
5.742979e-004,-2.417012e-004
-4.807475e-004,-2.721694e-004
-1.298853e-003,-2.963172e-004
-1.771112e-003,-3.143064e-004
-1.914864e-003,-3.251648e-004
-1.850037e-003,-3.326198e-004
-1.791208e-003,-3.425058e-004
-1.960566e-003,-3.572537e-004
-2.407380e-003,-3.729740e-004
-2.976555e-003,-3.896668e-004
-3.404247e-003,-4.076560e-004
-3.468425e-003,-4.266177e-004
-3.110422e-003,-4.447690e-004
-2.503161e-003,-4.535205e-004
-1.944359e-003,-4.434724e-004
-1.657504e-003,-4.104111e-004
-1.652155e-003,-3.561192e-004
-1.733674e-003,-2.911311e-004
-1.666417e-003,-2.285739e-004
-1.347148e-003,-1.768750e-004
-8.251361e-004,-1.378173e-004
-1.955125e-004,-1.091317e-004
4.694416e-004,-9.049421e-005
1.121593e-003,-8.401160e-005
1.714753e-003,-8.628052e-005
2.175020e-003,-9.049421e-005
2.441943e-003,-8.806324e-005
2.488456e-003,-7.720486e-005
2.299649e-003,-6.261898e-005
1.872930e-003,-4.868137e-005
1.262266e-003,-3.522994e-005
5.861287e-004,-1.497178e-005
-9.947754e-006,1.841368e-005
-4.074939e-004,6.492643e-005
-5.570802e-004,1.203528e-004
-4.977643e-004,1.767515e-004
-3.570916e-004,2.271538e-004
-2.956689e-004,2.644289e-004
-4.086284e-004,2.850112e-004
-6.753879e-004,2.908455e-004
-9.732639e-004,2.867939e-004
-1.154453e-003,2.832284e-004
-1.142460e-003,2.897111e-004
-9.622434e-004,3.107795e-004
-6.945116e-004,3.472443e-004
-4.042526e-004,3.887330e-004
-1.253383e-004,4.149876e-004
1.085220e-004,4.167703e-004
2.582704e-004,3.994293e-004
3.102934e-004,3.730126e-004
2.924662e-004,3.433547e-004
2.628082e-004,3.179104e-004
2.887387e-004,2.992729e-004
4.190393e-004,2.871180e-004
6.626236e-004,2.798251e-004
9.865924e-004,2.778803e-004
1.339733e-003,2.780424e-004
1.665971e-003,2.819319e-004
1.921063e-003,2.866318e-004
2.084426e-003,2.892249e-004
2.151197e-003,2.848491e-004
2.118297e-003,2.712356e-004
1.988158e-003,2.519498e-004
1.764507e-003,2.325020e-004
1.456907e-003,2.179161e-004
1.083183e-003,2.064095e-004
6.882299e-004,1.900409e-004
3.456236e-004,1.624898e-004
1.312112e-004,1.237561e-004
7.691926e-005,7.837785e-005
1.710792e-004,2.846173e-005
3.514580e-004,-2.485776e-005
5.342677e-004,-7.752899e-005
6.663511e-004,-1.227452e-004
7.373357e-004,-1.569410e-004
7.658592e-004,-1.806025e-004
7.671557e-004,-1.955125e-004
7.418735e-004,-2.045882e-004
6.867713e-004,-2.120432e-004
6.034696e-004,-2.230636e-004
4.982892e-004,-2.402425e-004
3.838710e-004,-2.554767e-004
2.927903e-004,-2.617972e-004
2.454672e-004,-2.554767e-004
2.310434e-004,-2.348944e-004
2.227781e-004,-2.055606e-004
1.829100e-004,-1.739578e-004
5.698522e-005,-1.451102e-004
-2.122053e-004,-1.191798e-004
-6.343853e-004,-1.011905e-004
-1.131115e-003,-9.713889e-005
-1.549244e-003,-1.110765e-004
-1.695589e-003,-1.404103e-004
-1.418457e-003,-1.775233e-004
-7.168766e-004,-2.133397e-004
2.153231e-004,-2.417012e-004
1.059846e-003,-2.548284e-004
1.572784e-003,-2.488320e-004
1.656248e-003,-2.227395e-004
1.354319e-003,-1.885437e-004
8.183684e-004,-1.580754e-004
2.581083e-004,-1.417068e-004
-1.381414e-004,-1.418689e-004
-2.840002e-004,-1.536997e-004
-1.935677e-004,-1.708786e-004
4.807163e-005,-1.831956e-004
2.916559e-004,-1.859507e-004
3.593992e-004,-1.797922e-004
1.022015e-004,-1.661787e-004
-5.071641e-004,-1.400862e-004
-1.295450e-003,-9.649064e-005
-1.971748e-003,-3.766092e-005
-2.296366e-003,2.992031e-005
-2.188592e-003,1.026876e-004
-1.706123e-003,1.778860e-004
-9.844464e-004,2.519498e-004
-2.003745e-004,3.208276e-004
4.605280e-004,3.767402e-004
8.784947e-004,4.164462e-004
1.046881e-003,4.386491e-004
1.040074e-003,4.451317e-004
9.622826e-004,4.401077e-004
8.851394e-004,4.263322e-004
8.285785e-004,4.060740e-004
7.627800e-004,3.825745e-004
6.188659e-004,3.587509e-004
3.198552e-004,3.326584e-004
-1.780095e-004,3.047831e-004
-8.090917e-004,2.764217e-004
-1.424616e-003,2.508154e-004
-1.876778e-003,2.316917e-004
-2.084060e-003,2.180782e-004
-2.077739e-003,2.021958e-004
-2.010806e-003,1.820997e-004
-2.050350e-003,1.642725e-004
-2.242074e-003,1.568175e-004
-2.497165e-003,1.618415e-004
-2.634597e-003,1.704310e-004
-2.457135e-003,1.735102e-004
-1.880181e-003,1.658931e-004
-1.007946e-003,1.466074e-004
-7.169464e-005,1.169494e-004
6.921195e-004,8.437427e-005
1.127103e-003,5.860588e-005
1.179775e-003,4.239934e-005
8.945392e-004,3.332369e-005
4.078567e-004,2.424803e-005
-7.736692e-005,8.041497e-006
-3.523917e-004,-1.805102e-005
-3.337542e-004,-4.592625e-005
-1.387897e-004,-6.537409e-005
-3.465141e-006,-7.623246e-005
-1.533756e-004,-8.822530e-005
-6.784671e-004,-1.152902e-004
-1.430126e-003,-1.598582e-004
-2.114690e-003,-2.123673e-004
-2.491006e-003,-2.605007e-004
-2.410946e-003,-2.938862e-004
-1.814545e-003,-3.099306e-004
-8.055263e-004,-3.078238e-004
3.611819e-004,-2.888622e-004
1.390946e-003,-2.543422e-004
2.141149e-003,-2.105846e-004
2.601740e-003,-1.665028e-004
2.831551e-003,-1.331174e-004
2.922308e-003,-1.170729e-004
2.947752e-003,-1.128592e-004
2.939649e-003,-1.096179e-004
2.879360e-003,-1.013526e-004
2.700439e-003,-8.725291e-005
2.313587e-003,-6.877746e-005
1.667754e-003,-5.143648e-005
7.937344e-004,-4.041603e-005
-1.656925e-004,-4.009191e-005
-9.745604e-004,-5.030202e-005
-1.442443e-003,-6.991193e-005
-1.473884e-003,-9.584238e-005
-1.060617e-003,-1.219349e-004
-2.948586e-004,-1.426792e-004
6.603546e-004,-1.538618e-004
1.633234e-003,-1.551583e-004
2.485377e-003,-1.493239e-004
3.045802e-003,-1.374932e-004
3.130077e-003,-1.253383e-004
2.621675e-003,-1.196660e-004
1.590125e-003,-1.233935e-004
3.059176e-004,-1.332795e-004
-8.379394e-004,-1.400862e-004
-1.523800e-003,-1.339277e-004
-1.692024e-003,-1.109144e-004
-1.469832e-003,-7.380149e-005
-1.054459e-003,-2.793700e-005
-6.008379e-004,2.214118e-005
-1.888679e-004,7.189524e-005
1.307250e-004,1.192183e-004
3.008936e-004,1.584381e-004
2.480603e-004,1.895547e-004
-9.438378e-005,2.143507e-004
-6.966184e-004,2.383363e-004
-1.383775e-003,2.666978e-004
-1.954407e-003,2.991108e-004
-2.303334e-003,3.333067e-004
-2.426990e-003,3.628026e-004
-2.383881e-003,3.801436e-004
-2.263953e-003,3.841952e-004
-2.133976e-003,3.765781e-004
-1.989738e-003,3.602095e-004
-1.784239e-003,3.435168e-004
-1.484742e-003,3.401134e-004
-1.084279e-003,3.551855e-004
-6.160720e-004,3.814401e-004
-1.464067e-004,4.020224e-004
2.598910e-004,4.023465e-004
5.859666e-004,3.788470e-004
8.642329e-004,3.389789e-004
1.150603e-003,2.960316e-004
1.463713e-003,2.605393e-004
1.749111e-003,2.336365e-004
1.896915e-003,2.106232e-004
1.843920e-003,1.874478e-004
1.609248e-003,1.637863e-004
1.257728e-003,1.445005e-004
9.060458e-004,1.304008e-004
7.042743e-004,1.211631e-004
7.334462e-004,1.091703e-004
9.212800e-004,8.372601e-005
1.082211e-003,4.337174e-005
1.057091e-003,-6.706447e-006
8.041067e-004,-5.613637e-005
4.140152e-004,-9.454585e-005
5.179914e-005,-1.199901e-004
-1.420310e-004,-1.408965e-004
-1.104282e-004,-1.668270e-004
1.039842e-004,-1.972953e-004
4.315182e-004,-2.288980e-004
8.681226e-004,-2.569353e-004
1.445724e-003,-2.771934e-004
2.122673e-003,-2.888622e-004
2.749383e-003,-2.872415e-004
3.135911e-003,-2.708729e-004
3.172700e-003,-2.418632e-004
2.902211e-003,-2.071812e-004
2.465929e-003,-1.737958e-004
1.976814e-003,-1.470550e-004
1.459338e-003,-1.300382e-004
8.959978e-004,-1.242038e-004
3.104554e-004,-1.285796e-004
-2.006986e-004,-1.418689e-004
-5.061917e-004,-1.600202e-004
-5.191569e-004,-1.806025e-004
-2.825416e-004,-2.010227e-004
-2.793700e-005,-2.230636e-004
-5.775702e-005,-2.502906e-004
-5.643732e-004,-2.776796e-004
-1.522503e-003,-2.972895e-004
-2.697478e-003,-2.987481e-004
-3.735348e-003,-2.776796e-004
-4.356224e-003,-2.370013e-004
-4.458812e-003,-1.848162e-004
-4.127872e-003,-1.303623e-004
-3.553672e-003,-8.433573e-005
-2.871050e-003,-5.370539e-005
-2.130573e-003,-3.474375e-005
-1.365786e-003,-2.242678e-005
-6.295234e-004,-1.173047e-005
3.462021e-005,-4.761664e-006
6.123833e-004,-5.734056e-006
1.102307e-003,-1.124428e-005
1.501637e-003,-9.623623e-006
1.791248e-003,6.907040e-006
1.929166e-003,4.547859e-005
1.882816e-003,1.046324e-004
1.670671e-003,1.731861e-004
1.359343e-003,2.337985e-004
9.971267e-004,2.723701e-004
5.849942e-004,2.869559e-004
1.279698e-004,2.884145e-004
-3.297026e-004,2.921420e-004
-7.351899e-004,3.057555e-004
-1.040521e-003,3.316860e-004
-1.201290e-003,3.642611e-004
-1.208421e-003,3.903536e-004
-1.114261e-003,3.986190e-004
-1.035173e-003,3.837090e-004
-1.093516e-003,3.517821e-004
-1.321704e-003,3.151553e-004
-1.610181e-003,2.804733e-004
-1.762198e-003,2.490327e-004
-1.592515e-003,2.211574e-004
-1.020425e-003,1.994406e-004
-1.109144e-004,1.858272e-004
9.386210e-004,1.796687e-004
1.856561e-003,1.808031e-004
2.417471e-003,1.882582e-004
2.516169e-003,2.031682e-004
2.187175e-003,2.260194e-004
1.576187e-003,2.551911e-004
8.809257e-004,2.811216e-004
3.435168e-004,2.953834e-004
1.848548e-004,2.958695e-004
4.170944e-004,2.803113e-004
8.276062e-004,2.525981e-004
1.114138e-003,2.216436e-004
1.062925e-003,1.919856e-004
6.652166e-004,1.620036e-004
7.999851e-005,1.292664e-004
-5.087847e-004,9.377406e-005
-1.012484e-003,5.423012e-005
-1.453139e-003,1.484824e-005
-1.866082e-003,-2.113026e-005
-2.252770e-003,-5.111234e-005
-2.622442e-003,-7.347736e-005
-3.001351e-003,-8.968389e-005
-3.363244e-003,-1.049180e-004
-3.611854e-003,-1.233935e-004
-3.642970e-003,-1.442999e-004
-3.374427e-003,-1.592099e-004
-2.756956e-003,-1.629374e-004
-1.828159e-003,-1.630995e-004
-7.486413e-004,-1.703924e-004
2.676702e-004,-1.883817e-004
1.044126e-003,-2.135018e-004
1.523030e-003,-2.389460e-004
1.731284e-003,-2.583939e-004
1.750570e-003,-2.711970e-004
1.675371e-003,-2.784900e-004
1.566787e-003,-2.802727e-004
1.441673e-003,-2.736280e-004
1.305700e-003,-2.603387e-004
1.168916e-003,-2.418632e-004
1.073946e-003,-2.199844e-004
1.082535e-003,-1.997262e-004
1.231798e-003,-1.882196e-004
1.484296e-003,-1.820611e-004
1.745708e-003,-1.776853e-004
1.923818e-003,-1.708786e-004
1.959959e-003,-1.634236e-004
1.848782e-003,-1.579134e-004
1.656572e-003,-1.535376e-004
1.482675e-003,-1.502963e-004
1.382843e-003,-1.481895e-004
1.350430e-003,-1.446240e-004
1.341192e-003,-1.408965e-004
1.298731e-003,-1.384655e-004
1.164216e-003,-1.363587e-004
9.078286e-004,-1.329553e-004
5.355643e-004,-1.274451e-004
7.124698e-005,-1.185315e-004
-4.295348e-004,-1.070249e-004
-8.933656e-004,-9.649064e-005
-1.247154e-003,-8.790117e-005
-1.387989e-003,-7.266703e-005
-1.205341e-003,-4.430560e-005
-6.538332e-004,-8.720959e-007
1.686482e-004,5.455425e-005
1.022895e-003,1.145184e-004
1.659975e-003,1.720516e-004
1.925439e-003,2.221298e-004
1.793679e-003,2.660495e-004
1.357885e-003,3.064038e-004
7.823899e-004,3.389789e-004
2.569738e-004,3.597233e-004
-5.953974e-005,3.660439e-004
-1.261486e-004,3.611819e-004
-6.893953e-005,3.488649e-004
-7.590833e-005,3.378445e-004
-2.342462e-004,3.260137e-004
-4.706994e-004,3.083486e-004
-6.304958e-004,2.827423e-004
-5.766901e-004,2.498430e-004
-3.047445e-004,2.098128e-004
2.505836e-005,1.705930e-004
1.782101e-004,1.388282e-004
2.505836e-005,1.231079e-004
-3.754050e-004,1.245665e-004
-8.513908e-004,1.425557e-004
-1.235810e-003,1.676758e-004
-1.416999e-003,1.913374e-004
-1.384424e-003,2.109473e-004
-1.247316e-003,2.274780e-004
-1.194645e-003,2.381743e-004
-1.361572e-003,2.383363e-004
-1.703206e-003,2.234263e-004
-2.056995e-003,1.958752e-004
-2.254553e-003,1.671896e-004
-2.177247e-003,1.472556e-004
-1.791856e-003,1.394765e-004
-1.179897e-003,1.443384e-004
-5.073262e-004,1.611932e-004
6.638502e-005,1.809652e-004
4.778690e-004,1.884202e-004
7.616456e-004,1.714034e-004
9.726548e-004,1.310491e-004
1.131479e-003,7.497447e-005
1.249301e-003,1.371378e-005
1.364691e-003,-4.511593e-005
1.513954e-003,-1.036215e-004
1.696440e-003,-1.673132e-004
1.877467e-003,-2.370013e-004
2.005500e-003,-3.021515e-004
2.030944e-003,-3.501228e-004
1.917174e-003,-3.700569e-004
1.658679e-003,-3.613053e-004
1.282038e-003,-3.309991e-004
8.433265e-004,-2.844864e-004
4.123946e-004,-2.258187e-004
5.585077e-005,-1.616409e-004
-1.658546e-004,-1.102662e-004
-2.300324e-004,-8.919769e-005
-1.942160e-004,-1.076731e-004
-1.771992e-004,-1.577513e-004
-3.214373e-004,-2.201465e-004
-7.306521e-004,-2.767073e-004
-1.366921e-003,-3.141443e-004
-2.029120e-003,-3.295405e-004
-2.465562e-003,-3.332680e-004
-2.527957e-003,-3.416954e-004
-2.232512e-003,-3.622777e-004
-1.727192e-003,-3.886944e-004
-1.190918e-003,-4.118697e-004
-7.509103e-004,-4.198109e-004
-4.504412e-004,-4.084663e-004
-2.645523e-004,-3.794566e-004
-1.353863e-004,-3.308371e-004
-1.075808e-005,-2.569353e-004
1.261871e-004,-1.593720e-004
2.397949e-004,-4.317115e-005
2.812837e-004,8.210535e-005
2.490327e-004,2.078681e-004
1.777239e-004,3.292550e-004
1.154908e-004,4.478869e-004
1.253768e-004,5.642498e-004
2.772320e-004,6.728336e-004
5.858046e-004,7.554871e-004
9.744375e-004,7.955172e-004
1.292248e-003,7.823899e-004
1.401804e-003,7.185361e-004
1.285441e-003,6.191900e-004
1.043964e-003,5.086614e-004
7.935724e-004,4.159600e-004
6.212969e-004,3.551855e-004
5.817529e-004,3.248792e-004
6.796404e-004,3.180725e-004
8.673123e-004,3.271482e-004
1.060980e-003,3.427064e-004
1.186257e-003,3.504856e-004
1.216563e-003,3.396272e-004
1.177181e-003,3.052694e-004
1.100038e-003,2.485465e-004
1.002799e-003,1.811273e-004
9.190111e-004,1.177597e-004
8.925945e-004,7.254349e-005
9.574206e-004,4.953022e-005
1.103928e-003,4.742337e-005
1.214133e-003,5.682316e-005
1.072163e-003,6.670914e-005
4.845136e-004,7.076078e-005
-5.925725e-004,7.092284e-005
-1.953921e-003,6.687121e-005
-3.269408e-003,5.876794e-005
-4.209715e-003,4.645098e-005
-4.550866e-003,3.008238e-005
-4.259957e-003,8.527692e-006
-3.522879e-003,-2.048200e-005
-2.630707e-003,-5.694670e-005
-1.813897e-003,-9.908367e-005
-1.174387e-003,-1.410586e-004
-7.168766e-004,-1.739578e-004
-3.974459e-004,-1.917850e-004
-1.478653e-004,-1.929195e-004
1.056048e-004,-1.807646e-004
3.960259e-004,-1.608306e-004
6.861230e-004,-1.383035e-004
8.947013e-004,-1.120489e-004
9.515863e-004,-7.850138e-005
8.219338e-004,-4.317115e-005
5.250300e-004,-1.659243e-005
1.305629e-004,-1.108221e-005
-2.831898e-004,-3.571614e-005
-6.676087e-004,-9.146661e-005
-9.844464e-004,-1.731475e-004
-1.187676e-003,-2.637420e-004
-1.245372e-003,-3.426678e-004
-1.146025e-003,-3.963114e-004
-9.055205e-004,-4.207833e-004
-5.731247e-004,-4.220798e-004
-2.177155e-004,-4.136524e-004
1.094944e-004,-4.052250e-004
3.892192e-004,-3.976080e-004
6.245382e-004,-3.891806e-004
8.449472e-004,-3.768636e-004
1.075242e-003,-3.579019e-004
1.310561e-003,-3.308371e-004
1.510064e-003,-2.997205e-004
1.614921e-003,-2.715212e-004
1.578780e-003,-2.476975e-004
1.395322e-003,-2.256567e-004
1.090314e-003,-2.039399e-004
7.011951e-004,-1.814128e-004
2.694529e-004,-1.567789e-004
-1.418689e-004,-1.242038e-004
-4.608134e-004,-7.542214e-005
-6.335750e-004,-5.085794e-006
-6.478368e-004,8.340187e-005
-5.437909e-004,1.793446e-004
-3.833462e-004,2.655633e-004
-1.958367e-004,3.232586e-004
4.304761e-005,3.451374e-004
3.705817e-004,3.386548e-004
7.904932e-004,3.148312e-004
1.271017e-003,2.796630e-004
1.760618e-003,2.386605e-004
2.203544e-003,2.002510e-004
2.556362e-003,1.709172e-004
2.786982e-003,1.540623e-004
2.880008e-003,1.480659e-004
2.859588e-003,1.506590e-004
2.772882e-003,1.563313e-004
2.633019e-003,1.626518e-004
2.409692e-003,1.683241e-004
2.057198e-003,1.697827e-004
1.551067e-003,1.717275e-004
8.966461e-004,1.780480e-004
1.407730e-004,1.921477e-004
-6.115342e-004,2.106232e-004
-1.221548e-003,2.315296e-004
-1.616177e-003,2.530843e-004
-1.841286e-003,2.733424e-004
-2.049216e-003,2.879283e-004
-2.370105e-003,2.947351e-004
-2.770246e-003,2.965178e-004
-3.052564e-003,2.983005e-004
-2.988386e-003,3.059176e-004
-2.422453e-003,3.211517e-004
-1.372269e-003,3.431926e-004
-7.655660e-005,3.629646e-004
1.035536e-003,3.704196e-004
1.583318e-003,3.613439e-004
1.438269e-003,3.347652e-004
7.459252e-004,2.989488e-004
-1.536997e-004,2.619979e-004
-9.226995e-004,2.318537e-004
-1.399009e-003,2.120818e-004
-1.559616e-003,1.999268e-004
-1.439039e-003,1.874478e-004
-1.096109e-003,1.644345e-004
-5.865761e-004,1.294284e-004
5.811968e-005,9.020862e-005
7.775280e-004,5.147500e-005
1.451883e-003,1.630683e-005
1.955259e-003,-1.027188e-005
2.201275e-003,-2.485776e-005
2.134342e-003,-2.874733e-005
1.756242e-003,-3.020592e-005
1.191119e-003,-4.365734e-005
6.271312e-004,-7.655660e-005
1.921477e-004,-1.212866e-004
-1.037836e-004,-1.616409e-004
-3.285682e-004,-1.908126e-004
-5.551354e-004,-2.143121e-004
-8.220569e-004,-2.370013e-004
-1.126902e-003,-2.613110e-004
-1.442119e-003,-2.815692e-004
-1.750529e-003,-2.938862e-004
-2.047271e-003,-2.995585e-004
-2.301714e-003,-3.039342e-004
-2.460214e-003,-3.078238e-004
-2.454704e-003,-3.091203e-004
-2.229433e-003,-3.055549e-004
-1.810655e-003,-2.972895e-004
-1.346662e-003,-2.899966e-004
-1.026259e-003,-2.878898e-004
-9.578677e-004,-2.919414e-004
-1.110371e-003,-2.974516e-004
-1.306632e-003,-3.008550e-004
-1.294153e-003,-3.015032e-004
-9.275614e-004,-2.969654e-004
-2.720074e-004,-2.846485e-004
4.887274e-004,-2.668213e-004
1.165189e-003,-2.459149e-004
1.659003e-003,-2.245222e-004
1.947966e-003,-2.041020e-004
2.098525e-003,-1.849783e-004
2.240495e-003,-1.624512e-004
2.445023e-003,-1.329553e-004
2.640474e-003,-9.422172e-005
2.642419e-003,-5.338126e-005
2.276960e-003,-2.372331e-005
1.543612e-003,-9.461558e-006
6.162729e-004,-2.168618e-006
-2.186879e-004,1.095867e-005
-6.617744e-004,4.207521e-005
-5.839830e-004,9.150514e-005
-6.829127e-005,1.488763e-004
6.473894e-004,1.983062e-004
1.303431e-003,2.300710e-004
1.745870e-003,2.446569e-004
1.927870e-003,2.543808e-004
1.889298e-003,2.692908e-004
1.720101e-003,2.913317e-004
1.507309e-003,3.162898e-004
1.289817e-003,3.346032e-004
1.009282e-003,3.417340e-004
5.305402e-004,3.347652e-004
-2.334358e-004,3.205035e-004
-1.252178e-003,3.088348e-004
-2.414025e-003,3.042970e-004
-3.516234e-003,3.044590e-004
-4.269032e-003,3.018659e-004
-4.428505e-003,2.879283e-004
-3.938254e-003,2.618358e-004
-2.981255e-003,2.266676e-004
-1.861868e-003,1.892305e-004
-8.578734e-004,1.603829e-004
-1.190177e-004,1.470936e-004
3.381686e-004,1.477418e-004
5.655463e-004,1.587623e-004
6.352345e-004,1.743205e-004
6.397723e-004,1.940925e-004
6.911471e-004,2.162954e-004
8.861118e-004,2.448189e-004
1.249301e-003,2.806354e-004
1.725288e-003,3.216380e-004
2.205489e-003,3.650715e-004
2.578889e-003,4.038051e-004
2.757810e-003,4.250357e-004
2.654088e-003,4.166082e-004
2.189282e-003,3.780367e-004
1.318341e-003,3.195311e-004
1.216493e-004,2.585945e-004
-1.108588e-003,2.075439e-004
-1.985524e-003,1.657311e-004
-2.241425e-003,1.263492e-004
-1.815355e-003,7.951231e-005
-8.967691e-004,2.230325e-005
1.517934e-004,-4.106429e-005
9.191732e-004,-1.031353e-004
1.140231e-003,-1.546721e-004
7.689385e-004,-1.927574e-004
-6.780507e-005,-2.206326e-004
-1.118150e-003,-2.444563e-004
-2.074660e-003,-2.679557e-004
-2.682730e-003,-2.888622e-004
-2.835396e-003,-3.037722e-004
-2.598942e-003,-3.146305e-004
-2.134786e-003,-3.206269e-004
-1.602888e-003,-3.206269e-004
-1.105833e-003,-3.138202e-004
-6.531850e-004,-3.040963e-004
-1.763888e-004,-2.943724e-004
3.700955e-004,-2.883759e-004
9.532070e-004,-2.874036e-004
1.489158e-003,-2.864312e-004
1.892378e-003,-2.775176e-004
2.113273e-003,-2.579077e-004
2.152169e-003,-2.329496e-004
2.056226e-003,-2.110708e-004
1.893512e-003,-1.976194e-004
1.719777e-003,-1.945401e-004
1.572946e-003,-1.981056e-004
1.494506e-003,-2.010227e-004
1.537453e-003,-1.981056e-004
1.711674e-003,-1.796301e-004
1.929653e-003,-1.447861e-004
2.052985e-003,-1.029732e-004
1.985889e-003,-6.456377e-005
1.687040e-003,-3.782299e-005
1.159192e-003,-2.453363e-005
4.815964e-004,-1.967167e-005
-2.225774e-004,-1.724069e-005
-8.450702e-004,-1.335113e-005
-1.332239e-003,-8.813297e-006
-1.649400e-003,-3.858999e-007
-1.756526e-003,1.290346e-005
-1.619256e-003,2.943412e-005
-1.253637e-003,4.904402e-005
-7.355141e-004,6.751948e-005
-1.629374e-004,8.275361e-005
3.747954e-004,9.620504e-005
7.926000e-004,1.111150e-004
1.022247e-003,1.244044e-004
1.029054e-003,1.354248e-004
8.384645e-004,1.422316e-004
5.256782e-004,1.462832e-004
1.944166e-004,1.532520e-004
-5.824322e-005,1.657311e-004
-1.655305e-004,1.840444e-004
-9.341139e-005,2.034923e-004
1.490383e-004,2.188885e-004
5.076890e-004,2.263435e-004
9.021563e-004,2.284504e-004
1.217050e-003,2.305572e-004
1.320772e-003,2.368777e-004
1.104252e-003,2.474120e-004
5.217887e-004,2.585945e-004
-3.796187e-004,2.692908e-004
-1.405330e-003,2.804733e-004
-2.216467e-003,2.978143e-004
-2.507699e-003,3.303894e-004
-2.217602e-003,3.796573e-004
-1.487173e-003,4.324906e-004
-5.173742e-004,4.730070e-004
5.076890e-004,4.906721e-004
1.406018e-003,4.853240e-004
2.041154e-003,4.563143e-004
2.334818e-003,4.057499e-004
2.312290e-003,3.430306e-004
2.084101e-003,2.798251e-004
1.776176e-003,2.247229e-004
1.489320e-003,1.769136e-004
1.246870e-003,1.328318e-004
9.154457e-004,9.118101e-005
2.265056e-004,4.904402e-005
-1.029014e-003,2.045080e-006
-2.787911e-003,-5.289507e-005
-4.732219e-003,-1.138316e-004
-4.968350e-003,-1.801163e-004
-4.968188e-003,-2.459149e-004
-4.968350e-003,-3.045825e-004
-4.968188e-003,-3.507711e-004
-4.968512e-003,-3.807532e-004
-4.311007e-003,-3.938804e-004
-3.289180e-003,-3.933943e-004
-2.524068e-003,-3.830221e-004
-1.980986e-003,-3.661673e-004
-1.590085e-003,-3.447747e-004
-1.280540e-003,-3.233821e-004
-9.750465e-004,-3.065273e-004
-6.189891e-004,-2.959930e-004
-1.963229e-004,-2.891863e-004
2.722080e-004,-2.859450e-004
7.551629e-004,-2.846485e-004
1.225639e-003,-2.805968e-004
1.649765e-003,-2.702246e-004
1.994155e-003,-2.546664e-004
2.239847e-003,-2.348944e-004
2.381655e-003,-2.146363e-004
2.419740e-003,-1.904885e-004
2.369662e-003,-1.538618e-004
2.258484e-003,-1.010285e-004
2.105008e-003,-4.090223e-005
1.915391e-003,1.338965e-005
1.689633e-003,5.260946e-005
1.422711e-003,7.643307e-005
1.114138e-003,9.101894e-005
7.593766e-004,1.005808e-004
3.423823e-004,1.031738e-004
-1.546721e-004,9.847395e-005
-6.990494e-004,9.118101e-005
-1.195455e-003,8.907416e-005
-1.499490e-003,1.000946e-004
