5.375090e-004,6.200925e-005
5.394538e-004,5.147500e-005
5.514466e-004,3.786152e-005
5.710566e-004,2.197911e-005
5.885597e-004,9.662150e-006
5.979594e-004,1.002961e-007
5.935837e-004,-9.623623e-006
5.713807e-004,-2.501983e-005
5.310264e-004,-4.689865e-005
4.770586e-004,-7.218083e-005
4.162841e-004,-9.843541e-005
3.590750e-004,-1.242038e-004
3.136967e-004,-1.494860e-004
2.837146e-004,-1.695821e-004
2.701012e-004,-1.809267e-004
2.681563e-004,-1.818991e-004
2.666978e-004,-1.755785e-004
2.569738e-004,-1.681235e-004
2.315296e-004,-1.660166e-004
1.955511e-004,-1.718510e-004
1.547106e-004,-1.820611e-004
1.094944e-004,-1.934057e-004
5.925414e-005,-2.071812e-004
3.665733e-006,-2.224154e-004
-5.370539e-005,-2.378116e-004
-1.075111e-004,-2.511010e-004
-1.606685e-004,-2.643903e-004
-2.227395e-004,-2.814071e-004
-2.964792e-004,-3.049066e-004
-3.839945e-004,-3.324577e-004
-4.786406e-004,-3.561192e-004
-5.634008e-004,-3.718396e-004
-6.103997e-004,-3.797808e-004
-5.963000e-004,-3.797808e-004
-5.082985e-004,-3.720016e-004
-3.590364e-004,-3.609812e-004
-1.757406e-004,-3.488263e-004
4.151929e-006,-3.298647e-004
1.432040e-004,-2.977757e-004
2.068957e-004,-2.502906e-004
1.762653e-004,-1.848162e-004
6.265751e-005,-1.024871e-004
-9.811128e-005,-7.678839e-006
-2.747625e-004,9.020862e-005
-4.480103e-004,1.822617e-004
-6.118583e-004,2.642668e-004
-7.598239e-004,3.399513e-004
-8.653284e-004,4.190393e-004
-8.851003e-004,5.084993e-004
-7.868888e-004,6.044420e-004
-5.713420e-004,6.880678e-004
-2.775176e-004,7.355530e-004
3.154097e-005,7.357151e-004
2.965178e-004,6.906608e-004
4.807861e-004,6.146522e-004
5.775391e-004,5.253541e-004
6.000663e-004,4.384871e-004
5.712186e-004,3.632887e-004
5.094717e-004,3.054314e-004
4.255218e-004,2.686426e-004
3.258516e-004,2.498430e-004
2.151610e-004,2.404432e-004
1.018773e-004,2.344468e-004
7.485573e-007,2.284504e-004
-7.250496e-005,2.211574e-004
-1.133454e-004,2.153231e-004
-1.267968e-004,2.135403e-004
-1.201522e-004,2.154851e-004
-9.195280e-005,2.159713e-004
-3.279896e-005,2.112714e-004
6.346784e-005,2.039785e-004
1.887444e-004,2.002510e-004
3.138588e-004,2.005751e-004
4.086671e-004,2.008992e-004
4.486972e-004,1.914995e-004
4.143393e-004,1.684862e-004
2.973281e-004,1.351007e-004
1.240803e-004,9.636710e-005
-4.981582e-005,5.909208e-005
-1.515928e-004,1.971020e-005
-1.292278e-004,-1.950961e-005
2.246531e-005,-5.694670e-005
2.675081e-004,-9.017008e-005
5.428572e-004,-1.178833e-004
7.877381e-004,-1.373311e-004
9.595275e-004,-1.561307e-004
1.047529e-003,-1.815749e-004
1.068273e-003,-2.154466e-004
1.043477e-003,-2.551526e-004
9.804339e-004,-2.958309e-004
8.665019e-004,-3.308371e-004
6.875816e-004,-3.590364e-004
4.373526e-004,-3.792946e-004
1.271595e-004,-3.908012e-004
-2.135018e-004,-3.924218e-004
-5.517320e-004,-3.807532e-004
-8.572251e-004,-3.519055e-004
-1.103888e-003,-3.052308e-004
-1.281998e-003,-2.527216e-004
-1.387503e-003,-2.096122e-004
-1.420078e-003,-1.796301e-004
-1.399172e-003,-1.530514e-004
-1.358331e-003,-1.170729e-004
-1.317004e-003,-6.780507e-005
-1.275678e-003,-1.529591e-005
-1.226086e-003,2.489629e-005
-1.158342e-003,3.575467e-005
-1.058024e-003,8.365628e-006
-9.068170e-004,-5.046408e-005
-7.021286e-004,-1.217728e-004
-4.574101e-004,-1.911368e-004
-1.925954e-004,-2.473734e-004
6.768154e-005,-2.825416e-004
2.966799e-004,-2.951827e-004
4.751139e-004,-2.870794e-004
5.877494e-004,-2.621213e-004
6.281036e-004,-2.285739e-004
6.153004e-004,-1.950263e-004
5.880735e-004,-1.653684e-004
5.752703e-004,-1.373311e-004
5.768909e-004,-1.071869e-004
5.762426e-004,-7.347736e-005
5.623050e-004,-3.685060e-005
5.328091e-004,2.531276e-006
4.961824e-004,4.385793e-005
4.700898e-004,8.664318e-005
4.597176e-004,1.295905e-004
4.589073e-004,1.699448e-004
4.535592e-004,2.068957e-004
4.381629e-004,2.407673e-004
4.120704e-004,2.725321e-004
3.644232e-004,3.033245e-004
2.837146e-004,3.321722e-004
1.705930e-004,3.558337e-004
4.045456e-005,3.694472e-004
-8.790117e-005,3.734989e-004
-1.916230e-004,3.723644e-004
-2.543422e-004,3.712299e-004
-2.707109e-004,3.726885e-004
-2.476975e-004,3.749574e-004
-1.950263e-004,3.765781e-004
-1.256624e-004,3.731747e-004
-4.916756e-005,3.645853e-004
2.927205e-005,3.509718e-004
1.101427e-004,3.360618e-004
2.007372e-004,3.230965e-004
3.036487e-004,3.158036e-004
4.203358e-004,3.094830e-004
5.546879e-004,3.021901e-004
7.023296e-004,2.945730e-004
8.418679e-004,2.879283e-004
9.511001e-004,2.807975e-004
1.012199e-003,2.726942e-004
1.008957e-003,2.619979e-004
9.321384e-004,2.477361e-004
7.987585e-004,2.276400e-004
6.258347e-004,1.986303e-004
4.331389e-004,1.637863e-004
2.498430e-004,1.295905e-004
1.075496e-004,1.028497e-004
1.889987e-005,8.664318e-005
-3.798505e-005,7.821578e-005
-1.023250e-004,7.205730e-005
-2.076674e-004,6.265751e-005
-3.575778e-004,4.547859e-005
-5.238568e-004,1.841368e-005
-6.807360e-004,-1.934754e-005
-8.110365e-004,-6.229485e-005
-9.192961e-004,-1.052422e-004
-1.013456e-003,-1.467309e-004
-1.088492e-003,-1.843300e-004
-1.140515e-003,-2.177155e-004
-1.173415e-003,-2.472114e-004
-1.180545e-003,-2.703867e-004
-1.136626e-003,-2.890242e-004
-1.015887e-003,-3.047445e-004
-8.197880e-004,-3.219235e-004
-5.909518e-004,-3.389403e-004
-3.927460e-004,-3.532020e-004
-2.793003e-004,-3.653570e-004
-2.711970e-004,-3.758912e-004
-3.331060e-004,-3.833462e-004
-3.959873e-004,-3.906392e-004
-3.979321e-004,-4.002010e-004
-3.131719e-004,-4.089525e-004
-1.571031e-004,-4.134903e-004
2.846173e-005,-4.125180e-004
1.944166e-004,-4.073319e-004
3.141829e-004,-3.974459e-004
3.854917e-004,-3.807532e-004
4.201737e-004,-3.546606e-004
4.350837e-004,-3.172236e-004
4.475628e-004,-2.689281e-004
4.689553e-004,-2.125294e-004
4.999099e-004,-1.488377e-004
5.402642e-004,-7.963584e-005
5.879114e-004,-6.220252e-006
6.392861e-004,6.719535e-005
6.875816e-004,1.375317e-004
7.219395e-004,2.044647e-004
7.331221e-004,2.647530e-004
7.227498e-004,3.125623e-004
6.977918e-004,3.436788e-004
6.644063e-004,3.581026e-004
6.238899e-004,3.590750e-004
5.822391e-004,3.431926e-004
5.409124e-004,3.054314e-004
5.067165e-004,2.436845e-004
4.778690e-004,1.650828e-004
4.459421e-004,8.145709e-005
3.958639e-004,5.124321e-006
3.219621e-004,-5.435365e-005
2.305572e-004,-9.616651e-005
1.320215e-004,-1.259865e-004
4.272347e-005,-1.498101e-004
-2.194059e-005,-1.640719e-004
-5.419158e-005,-1.592099e-004
-5.305713e-005,-1.230693e-004
-2.485776e-005,-5.257093e-005
1.355172e-005,4.596478e-005
4.337174e-005,1.621656e-004
5.585077e-005,2.869559e-004
5.212327e-005,4.153117e-004
4.547859e-005,5.397780e-004
5.844381e-005,6.548444e-004
1.143563e-004,7.499768e-004
2.184023e-004,8.201511e-004
3.508097e-004,8.710398e-004
4.768966e-004,9.102596e-004
5.639257e-004,9.335970e-004
6.008766e-004,9.266282e-004
5.989318e-004,8.749293e-004
5.830494e-004,7.729901e-004
5.786736e-004,6.297242e-004
5.960147e-004,4.650658e-004
6.261588e-004,3.047831e-004
6.426895e-004,1.696206e-004
6.216210e-004,7.011252e-005
5.472330e-004,8.203562e-006
4.133669e-004,-2.307504e-005
2.388225e-004,-3.733679e-005
6.492643e-005,-4.738484e-005
-7.526008e-005,-5.856735e-005
-1.825473e-004,-7.801519e-005
-2.818933e-004,-1.105903e-004
-3.976080e-004,-1.583996e-004
-5.326084e-004,-2.138259e-004
-6.749016e-004,-2.734659e-004
-8.089297e-004,-3.318095e-004
-9.306407e-004,-3.864254e-004
-1.063372e-003,-4.305072e-004
-1.242778e-003,-4.595169e-004
-1.466429e-003,-4.728062e-004
-1.689268e-003,-4.715097e-004
-1.840475e-003,-4.600031e-004
-1.855710e-003,-4.447690e-004
-1.706772e-003,-4.280762e-004
-1.420726e-003,-4.115456e-004
-1.065317e-003,-3.920977e-004
-7.019666e-004,-3.656811e-004
-3.538503e-004,-3.321336e-004
-1.950961e-005,-2.989102e-004
2.961937e-004,-2.770314e-004
5.702463e-004,-2.754107e-004
7.776900e-004,-2.909690e-004
9.081527e-004,-3.118754e-004
9.721686e-004,-3.254889e-004
9.917786e-004,-3.251648e-004
9.775168e-004,-3.065273e-004
9.185249e-004,-2.715212e-004
7.903311e-004,-2.277635e-004
5.742979e-004,-1.831956e-004
2.790148e-004,-1.431655e-004
-5.354332e-005,-1.088076e-004
-3.656811e-004,-7.785312e-005
-6.201236e-004,-4.738484e-005
-7.987196e-004,-1.934754e-005
-8.928794e-004,8.041497e-006
-8.938519e-004,3.672706e-005
-8.168708e-004,6.557468e-005
-7.076389e-004,8.923623e-005
-6.220684e-004,1.026876e-004
-5.878726e-004,1.041462e-004
-5.972724e-004,9.912221e-005
-6.283889e-004,9.571884e-005
-6.554538e-004,9.685330e-005
-6.572366e-004,1.039842e-004
-6.279027e-004,1.167873e-004
-5.715040e-004,1.328318e-004
-4.933886e-004,1.509831e-004
-3.977700e-004,1.676758e-004
-2.880518e-004,1.795066e-004
-1.737958e-004,1.837203e-004
-6.261898e-005,1.824238e-004
4.353380e-005,1.798307e-004
1.410971e-004,1.796687e-004
2.269918e-004,1.864754e-004
3.033245e-004,2.049509e-004
3.687990e-004,2.349330e-004
4.237391e-004,2.691288e-004
4.608521e-004,3.004074e-004
4.757621e-004,3.219621e-004
4.760863e-004,3.394651e-004
4.783552e-004,3.597233e-004
4.990995e-004,3.809539e-004
5.448020e-004,3.944053e-004
6.101143e-004,3.960259e-004
6.851507e-004,3.863020e-004
7.631041e-004,3.707437e-004
8.470541e-004,3.530786e-004
9.476967e-004,3.331446e-004
1.075890e-003,3.055935e-004
1.238280e-003,2.691288e-004
1.427897e-003,2.278021e-004
1.617676e-003,1.892305e-004
1.765966e-003,1.586002e-004
1.824148e-003,1.344524e-004
1.752028e-003,1.128978e-004
1.543450e-003,8.810177e-005
1.219643e-003,5.763349e-005
8.216097e-004,1.971020e-005
4.054258e-004,-2.242678e-005
3.267542e-005,-6.375344e-005
-2.400805e-004,-9.794922e-005
-3.671397e-004,-1.240417e-004
-3.421817e-004,-1.410586e-004
-2.167431e-004,-1.496481e-004
-7.931171e-005,-1.524032e-004
-9.137427e-006,-1.507825e-004
-5.338126e-005,-1.454344e-004
-2.324634e-004,-1.374932e-004
-5.262878e-004,-1.255003e-004
-8.531735e-004,-1.169109e-004
-1.094165e-003,-1.198280e-004
-1.159477e-003,-1.323071e-004
-1.041817e-003,-1.481895e-004
-8.154123e-004,-1.613168e-004
-5.753936e-004,-1.677994e-004
-3.830221e-004,-1.652063e-004
-2.502906e-004,-1.515928e-004
-1.566169e-004,-1.311726e-004
-7.574627e-005,-1.130213e-004
-7.354709e-006,-1.050801e-004
7.393236e-006,-1.067007e-004
-7.720486e-005,-1.170729e-004
-2.575835e-004,-1.340898e-004
-4.747511e-004,-1.564548e-004
-6.381128e-004,-1.807646e-004
-6.663122e-004,-2.071812e-004
-5.251534e-004,-2.337599e-004
-2.481838e-004,-2.525595e-004
8.712937e-005,-2.561249e-004
3.801436e-004,-2.417012e-004
5.548500e-004,-2.136638e-004
5.867769e-004,-1.760647e-004
4.953720e-004,-1.331174e-004
3.130485e-004,-9.227693e-005
8.761557e-005,-5.840528e-005
-1.068628e-004,-3.134038e-005
-1.809267e-004,-7.840905e-006
-9.276313e-005,1.517237e-005
1.145184e-004,3.948217e-005
3.409237e-004,6.427817e-005
4.849998e-004,8.907416e-005
4.940755e-004,1.086841e-004
3.777126e-004,1.175977e-004
1.986303e-004,1.145184e-004
3.089271e-005,1.056048e-004
-7.817725e-005,1.018773e-004
-1.259865e-004,1.069013e-004
-1.460826e-004,1.182459e-004
-1.746061e-004,1.312112e-004
-2.355427e-004,1.414213e-004
-3.415334e-004,1.422316e-004
-4.867439e-004,1.320215e-004
-6.454058e-004,1.163011e-004
-7.966127e-004,1.060910e-004
-9.264270e-004,1.026876e-004
-1.010701e-003,9.960841e-005
-1.023504e-003,9.474644e-005
-9.688881e-004,9.150514e-005
-9.056826e-004,9.182927e-005
-9.034137e-004,9.182927e-005
-9.693743e-004,8.777764e-005
-1.014428e-003,7.983644e-005
-9.189720e-004,7.772959e-005
-6.094273e-004,9.069481e-005
-1.161005e-004,1.250527e-004
4.396215e-004,1.777239e-004
9.120423e-004,2.375260e-004
1.193064e-003,2.957075e-004
1.236335e-003,3.485408e-004
1.064222e-003,4.004017e-004
7.614834e-004,4.559901e-004
4.271425e-004,5.140096e-004
1.401247e-004,5.704083e-004
-5.937768e-005,6.112488e-004
-1.579134e-004,6.201624e-004
-1.632615e-004,5.875872e-004
-1.031353e-004,5.144958e-004
-1.950961e-005,4.136911e-004
5.649903e-005,2.989488e-004
1.195424e-004,1.858272e-004
1.772377e-004,9.101894e-005
2.360674e-004,2.651694e-005
3.111037e-004,-3.951337e-006
4.251977e-004,-3.465141e-006
5.989318e-004,1.679302e-005
8.248511e-004,4.337174e-005
1.065356e-003,6.281957e-005
1.274907e-003,6.508849e-005
1.416552e-003,4.888196e-005
1.472789e-003,1.711715e-005
1.448966e-003,-2.745081e-005
1.363881e-003,-7.931171e-005
1.232122e-003,-1.295519e-004
1.061629e-003,-1.737958e-004
8.528884e-004,-2.144742e-004
5.942319e-004,-2.520733e-004
2.877662e-004,-2.827037e-004
-4.430560e-005,-3.053928e-004
-3.679500e-004,-3.211132e-004
-6.497815e-004,-3.309991e-004
-8.607905e-004,-3.348887e-004
-9.862292e-004,-3.378059e-004
-1.024801e-003,-3.429920e-004
-9.886600e-004,-3.472056e-004
-8.868831e-004,-3.491504e-004
-7.207661e-004,-3.502849e-004
-5.121881e-004,-3.519055e-004
-3.029619e-004,-3.570916e-004
-1.387897e-004,-3.634122e-004
-3.830919e-005,-3.661673e-004
1.744129e-005,-3.638984e-004
8.113296e-005,-3.535262e-004
2.052750e-004,-3.319715e-004
4.227667e-004,-3.016653e-004
7.511112e-004,-2.694143e-004
1.187878e-003,-2.371633e-004
1.681854e-003,-2.044261e-004
2.090260e-003,-1.707166e-004
2.249409e-003,-1.374932e-004
2.108087e-003,-1.076731e-004
1.740198e-003,-8.141856e-005
1.271504e-003,-5.224680e-005
8.062135e-004,-1.610624e-005
3.995914e-004,2.570662e-005
4.726130e-005,6.995045e-005
-2.815692e-004,1.150046e-004
-6.040792e-004,1.610312e-004
-9.192961e-004,2.046267e-004
-1.199021e-003,2.431983e-004
-1.391068e-003,2.749631e-004
-1.464808e-003,2.979764e-004
-1.445198e-003,3.122381e-004
-1.428667e-003,3.214759e-004
-1.489280e-003,3.297412e-004
-1.619094e-003,3.349273e-004
-1.804821e-003,3.311998e-004
-2.079360e-003,3.140208e-004
-2.475448e-003,2.877662e-004
-2.965535e-003,2.592428e-004
-3.418995e-003,2.373639e-004
-3.633084e-003,2.240746e-004
-3.440063e-003,2.224539e-004
-2.812869e-003,2.292607e-004
-1.893471e-003,2.386605e-004
-9.124894e-004,2.453052e-004
-7.882551e-005,2.459534e-004
4.840274e-004,2.393087e-004
7.644006e-004,2.258573e-004
8.306854e-004,2.090025e-004
7.862795e-004,1.900409e-004
7.159431e-004,1.710792e-004
6.464170e-004,1.519555e-004
5.742979e-004,1.312112e-004
5.253541e-004,1.052807e-004
5.488536e-004,7.384002e-005
6.943883e-004,3.948217e-005
9.686031e-004,8.203562e-006
1.312020e-003,-1.545797e-005
1.624969e-003,-3.150244e-005
1.827389e-003,-4.625038e-005
1.895295e-003,-6.261898e-005
1.846027e-003,-7.526008e-005
1.716860e-003,-7.623246e-005
1.530809e-003,-6.472583e-005
1.302296e-003,-4.722278e-005
1.037643e-003,-2.777494e-005
7.365254e-004,-1.545797e-005
4.021844e-004,-1.286493e-005
8.259155e-005,-1.788895e-005
-1.528894e-004,-2.777494e-005
-2.736280e-004,-4.284701e-005
-3.157650e-004,-6.375344e-005
-3.318095e-004,-9.065628e-005
-3.243544e-004,-1.248521e-004
-2.796244e-004,-1.622891e-004
-2.185258e-004,-1.953505e-004
-2.032917e-004,-2.183637e-004
-3.049066e-004,-2.251705e-004
-5.164018e-004,-2.172293e-004
-7.076389e-004,-1.995642e-004
-7.090974e-004,-1.791439e-004
-4.523860e-004,-1.583996e-004
-2.420950e-005,-1.396000e-004
3.961880e-004,-1.261486e-004
6.572754e-004,-1.183694e-004
7.127018e-004,-1.169109e-004
6.118971e-004,-1.204763e-004
4.417284e-004,-1.284175e-004
2.772320e-004,-1.383035e-004
1.501728e-004,-1.431655e-004
4.969229e-005,-1.396000e-004
-6.099833e-005,-1.297140e-004
-2.185258e-004,-1.193418e-004
-4.403932e-004,-1.138316e-004
-7.022907e-004,-1.110765e-004
-9.116791e-004,-1.099421e-004
-9.568953e-004,-1.112386e-004
-7.894818e-004,-1.149661e-004
-4.616237e-004,-1.175591e-004
-9.940781e-005,-1.131834e-004
1.701068e-004,-9.843541e-005
2.932765e-004,-7.461182e-005
3.088348e-004,-4.851930e-005
2.958695e-004,-2.566809e-005
3.109416e-004,-8.975362e-006
3.652335e-004,5.124321e-006
4.295735e-004,2.295151e-005
4.725208e-004,4.726130e-005
4.856481e-004,8.048470e-005
4.799758e-004,1.244044e-004
4.616624e-004,1.833962e-004
4.600418e-004,2.550291e-004
5.482053e-004,3.328204e-004
7.767176e-004,4.021844e-004
1.105711e-003,4.584211e-004
1.417525e-003,4.986133e-004
1.593204e-003,5.214646e-004
1.592880e-003,5.316747e-004
1.453341e-003,5.401021e-004
1.240711e-003,5.582534e-004
1.027109e-003,5.872631e-004
8.865980e-004,6.281036e-004
8.653674e-004,6.718613e-004
9.614723e-004,7.020054e-004
1.138772e-003,7.060571e-004
1.373929e-003,6.762370e-004
1.659813e-003,6.135177e-004
1.985727e-003,5.289196e-004
2.299487e-003,4.381629e-004
2.466253e-003,3.517821e-004
2.274205e-003,2.772320e-004
1.502609e-003,2.158093e-004
5.909208e-005,1.645966e-004
-1.816814e-003,1.203528e-004
-3.631787e-003,8.307774e-005
-4.958950e-003,5.568870e-005
-4.968350e-003,3.591673e-005
-4.968512e-003,2.149292e-005
-4.686191e-003,7.717366e-006
-3.585437e-003,-7.516774e-006
-2.376426e-003,-2.696461e-005
-1.273409e-003,-5.030202e-005
-4.078181e-004,-7.801519e-005
1.879340e-004,-1.094559e-004
5.574431e-004,-1.415448e-004
7.869278e-004,-1.729855e-004
9.397555e-004,-2.044261e-004
1.022409e-003,-2.376495e-004
9.966405e-004,-2.749245e-004
8.579124e-004,-3.173856e-004
6.708889e-004,-3.645466e-004
5.109303e-004,-4.162455e-004
4.125566e-004,-4.705373e-004
3.519442e-004,-5.228845e-004
2.752873e-004,-5.632387e-004
1.603829e-004,-5.822003e-004
2.133085e-005,-5.776625e-004
-1.060525e-004,-5.497872e-004
-1.948643e-004,-5.037607e-004
-2.392702e-004,-4.486585e-004
-2.449425e-004,-3.909633e-004
-2.100984e-004,-3.355370e-004
-1.266348e-004,-2.794623e-004
1.193106e-005,-2.160948e-004
2.049509e-004,-1.472171e-004
4.401077e-004,-7.963584e-005
7.028158e-004,-2.599222e-005
9.603378e-004,3.341602e-006
1.146065e-003,4.800190e-006
1.200519e-003,-1.464765e-005
1.101011e-003,-4.592625e-005
8.733086e-004,-7.931171e-005
5.879114e-004,-1.076731e-004
3.130485e-004,-1.272830e-004
8.761557e-005,-1.363587e-004
-6.132246e-005,-1.308485e-004
-1.229073e-004,-1.083214e-004
-1.246900e-004,-7.104638e-005
-1.211246e-004,-2.712668e-005
-1.624512e-004,1.128280e-005
-2.754107e-004,3.510641e-005
-4.425001e-004,4.223728e-005
-5.993792e-004,3.932010e-005
-6.808981e-004,3.543054e-005
-6.554538e-004,3.980630e-005
-5.373082e-004,5.925414e-005
-3.786463e-004,9.442231e-005
-2.353806e-004,1.402868e-004
-1.386276e-004,1.877720e-004
-8.611845e-005,2.258573e-004
-5.743289e-005,2.464396e-004
-1.643037e-005,2.456293e-004
7.513654e-005,2.295848e-004
2.286124e-004,2.090025e-004
4.041292e-004,1.952270e-004
5.336195e-004,1.929580e-004
5.647360e-004,2.070577e-004
4.888894e-004,2.346088e-004
3.451374e-004,2.722080e-004
1.872858e-004,3.107795e-004
6.687121e-005,3.430306e-004
1.501031e-005,3.673404e-004
4.418206e-005,3.807918e-004
1.448246e-004,3.835469e-004
2.887387e-004,3.796573e-004
4.644175e-004,3.738230e-004
6.692683e-004,3.683128e-004
8.457575e-004,3.623164e-004
8.595330e-004,3.563199e-004
5.979594e-004,3.454615e-004
9.685330e-005,3.247172e-004
-4.755614e-004,2.890628e-004
-8.901244e-004,2.393087e-004
-9.427955e-004,1.824238e-004
-5.642111e-004,1.269974e-004
1.078737e-004,7.789165e-005
7.861174e-004,3.607880e-005
1.213808e-003,2.207145e-006
1.275231e-003,-2.631635e-005
9.966405e-004,-5.159854e-005
5.005581e-004,-7.347736e-005
-4.689865e-005,-9.422172e-005
-4.963057e-004,-1.204763e-004
-7.766787e-004,-1.496481e-004
-8.804005e-004,-1.817370e-004
-8.348601e-004,-2.159328e-004
-7.071526e-004,-2.468872e-004
-5.834968e-004,-2.731418e-004
-5.277464e-004,-2.961551e-004
-5.723144e-004,-3.211132e-004
-7.304901e-004,-3.504470e-004
-1.012322e-003,-3.809152e-004
-1.371296e-003,-4.049009e-004
-1.718278e-003,-4.110594e-004
-2.002541e-003,-3.917736e-004
-2.197830e-003,-3.463953e-004
-2.268328e-003,-2.817312e-004
-2.158772e-003,-2.062088e-004
-1.800283e-003,-1.258245e-004
-1.158018e-003,-4.706071e-005
-3.078238e-004,1.954813e-005
5.475571e-004,6.022653e-005
1.195657e-003,7.270556e-005
1.536967e-003,6.152305e-005
1.577322e-003,3.656499e-005
1.398887e-003,6.907040e-006
1.106521e-003,-1.788895e-005
7.979482e-004,-3.474375e-005
5.469088e-004,-4.252288e-005
3.937570e-004,-4.770897e-005
3.597233e-004,-5.710876e-005
4.300596e-004,-7.201877e-005
5.167646e-004,-9.000802e-005
4.825689e-004,-1.044318e-004
2.321778e-004,-1.088076e-004
-2.104225e-004,-1.013526e-004
-6.625847e-004,-8.368748e-005
-8.810487e-004,-5.775702e-005
-7.575550e-004,-2.404744e-005
-4.113835e-004,1.338965e-005
-1.122110e-004,4.677511e-005
-1.297140e-004,7.270556e-005
-5.875485e-004,9.328786e-005
-1.415054e-003,1.125736e-004
-2.350171e-003,1.276457e-004
-3.026958e-003,1.385041e-004
-3.133111e-003,1.469315e-004
-2.591811e-003,1.529279e-004
-1.617311e-003,1.579519e-004
-5.846313e-004,1.647587e-004
1.427178e-004,1.770756e-004
3.785229e-004,1.950649e-004
1.752929e-004,2.177540e-004
-2.318152e-004,2.406053e-004
-5.337428e-004,2.608634e-004
-5.314739e-004,2.773941e-004
-2.055606e-004,2.903593e-004
3.320101e-004,3.070520e-004
9.264661e-004,3.300653e-004
1.450748e-003,3.593992e-004
1.830468e-003,3.931088e-004
2.077943e-003,4.239012e-004
2.275988e-003,4.425387e-004
2.501422e-003,4.389733e-004
2.754245e-003,4.099636e-004
2.956179e-003,3.581026e-004
3.025706e-003,2.916559e-004
2.929925e-003,2.206712e-004
2.696063e-003,1.590864e-004
2.371283e-003,1.177597e-004
1.988483e-003,9.847395e-005
1.559494e-003,9.539470e-005
1.090638e-003,1.049566e-004
5.950422e-004,1.248906e-004
1.257009e-004,1.501728e-004
-1.895161e-004,1.777239e-004
-2.245222e-004,2.046267e-004
1.095867e-005,2.321778e-004
3.665301e-004,2.540567e-004
6.579236e-004,2.647530e-004
7.240463e-004,2.563256e-004
4.715484e-004,2.252090e-004
-5.710876e-005,1.773998e-004
-6.993735e-004,1.198666e-004
-1.287995e-003,5.487838e-005
-1.725085e-003,-1.578211e-005
-1.983903e-003,-8.952183e-005
-2.045650e-003,-1.629374e-004
-1.860896e-003,-2.308428e-004
-1.402413e-003,-2.843243e-004
-7.324349e-004,-3.203028e-004
-1.497178e-005,-3.403989e-004
5.593878e-004,-3.507711e-004
9.131767e-004,-3.596847e-004
1.112517e-003,-3.676259e-004
1.270369e-003,-3.724878e-004
1.468413e-003,-3.711913e-004
1.721560e-003,-3.642225e-004
1.989941e-003,-3.546606e-004
2.205165e-003,-3.468815e-004
2.297218e-003,-3.444506e-004
2.200303e-003,-3.515814e-004
1.868068e-003,-3.682741e-004
1.316234e-003,-3.904771e-004
6.579236e-004,-4.108973e-004
6.217132e-005,-4.267797e-004
-3.321336e-004,-4.337485e-004
-4.822060e-004,-4.279142e-004
-4.447690e-004,-4.060354e-004
-3.348887e-004,-3.720016e-004
-2.705488e-004,-3.309991e-004
-3.227338e-004,-2.883759e-004
-5.176983e-004,-2.462390e-004
-8.627353e-004,-2.076674e-004
-1.357683e-003,-1.736337e-004
-1.952301e-003,-1.423551e-004
-2.491330e-003,-1.097800e-004
-2.780294e-003,-7.428769e-005
-2.698774e-003,-3.263690e-005
-2.263790e-003,1.419998e-005
-1.614556e-003,6.087479e-005
-9.449024e-004,1.041462e-004
-4.061974e-004,1.454729e-004
-4.965376e-005,1.874478e-004
1.616794e-004,2.354192e-004
2.892249e-004,2.846870e-004
3.704196e-004,3.279585e-004
4.107739e-004,3.598854e-004
3.803056e-004,3.788470e-004
2.307193e-004,3.801436e-004
-6.035007e-005,3.660439e-004
-4.862577e-004,3.401134e-004
-1.020425e-003,3.115899e-004
-1.588302e-003,2.861456e-004
-2.047433e-003,2.645909e-004
-2.256660e-003,2.470879e-004
-2.146455e-003,2.396328e-004
-1.742102e-003,2.470879e-004
-1.154291e-003,2.688046e-004
-5.207775e-004,3.030004e-004
4.515445e-005,3.461098e-004
4.890515e-004,3.903536e-004
8.233925e-004,4.282770e-004
1.090801e-003,4.540453e-004
1.314613e-003,4.639314e-004
1.479596e-003,4.556660e-004
1.561439e-003,4.297355e-004
1.555443e-003,3.875985e-004
1.492561e-003,3.346032e-004
1.435514e-003,2.783665e-004
1.432597e-003,2.328261e-004
1.485592e-003,2.025199e-004
1.567436e-003,1.840444e-004
1.655275e-003,1.670276e-004
1.737605e-003,1.427178e-004
1.807293e-003,1.081979e-004
1.864826e-003,6.119892e-005
1.924791e-003,7.717366e-006
1.985079e-003,-4.398147e-005
1.976814e-003,-8.773911e-005
1.798379e-003,-1.199901e-004
1.370364e-003,-1.410586e-004
6.420412e-004,-1.559686e-004
-3.775118e-004,-1.724993e-004
-1.552161e-003,-1.950263e-004
-2.661499e-003,-2.211189e-004
-3.466805e-003,-2.433218e-004
-3.825943e-003,-2.486699e-004
-3.733727e-003,-2.352185e-004
-3.255795e-003,-2.071812e-004
-2.507861e-003,-1.716889e-004
-1.672576e-003,-1.326312e-004
-9.380957e-004,-8.595638e-005
-4.170558e-004,-2.777494e-005
-1.101041e-004,3.737532e-005
6.395404e-005,9.863601e-005
2.041406e-004,1.457970e-004
3.785229e-004,1.705930e-004
5.879114e-004,1.691344e-004
7.788245e-004,1.436902e-004
8.846532e-004,9.312580e-005
8.571021e-004,2.359977e-005
6.990883e-004,-5.013995e-005
4.756001e-004,-1.152902e-004
2.748010e-004,-1.643960e-004
1.576278e-004,-1.981056e-004
1.509831e-004,-2.178775e-004
2.430362e-004,-2.259808e-004
3.968363e-004,-2.196603e-004
5.627912e-004,-1.981056e-004
6.804507e-004,-1.699062e-004
6.939021e-004,-1.475412e-004
5.540397e-004,-1.415448e-004
1.997648e-004,-1.556445e-004
-4.243487e-004,-1.849783e-004
-1.317653e-003,-2.225774e-004
-2.351954e-003,-2.579077e-004
-3.248664e-003,-2.796244e-004
-3.686566e-003,-2.784900e-004
-3.481066e-003,-2.530457e-004
-2.686944e-003,-2.086398e-004
-1.561723e-003,-1.538618e-004
-4.241867e-004,-9.908367e-005
4.636072e-004,-5.240886e-005
9.791374e-004,-1.886135e-005
1.152872e-003,2.855407e-006
1.081077e-003,1.533444e-005
8.749293e-004,2.457216e-005
6.574374e-004,3.494434e-005
5.623050e-004,4.855783e-005
6.657028e-004,6.654708e-005
9.395934e-004,8.712937e-005
1.283497e-003,1.114392e-004
1.585425e-003,1.383420e-004
1.780714e-003,1.697827e-004
1.860937e-003,2.073819e-004
1.847647e-003,2.496809e-004
1.772287e-003,2.876042e-004
1.670996e-003,3.149933e-004
1.588342e-003,3.337929e-004
1.557388e-003,3.506476e-004
1.585263e-003,3.639370e-004
1.652844e-003,3.709058e-004
1.697412e-003,3.744712e-004
1.619945e-003,3.764160e-004
1.357885e-003,3.767402e-004
9.567724e-004,3.731747e-004
5.571189e-004,3.652335e-004
3.070520e-004,3.522683e-004
2.474120e-004,3.346032e-004
3.198552e-004,3.117519e-004
4.345975e-004,2.837146e-004
5.096338e-004,2.496809e-004
4.858102e-004,2.132162e-004
3.329825e-004,1.783722e-004
6.362991e-005,1.445005e-004
-2.681178e-004,1.065772e-004
-6.275786e-004,6.055066e-005
-1.024152e-003,9.106227e-007
-1.456219e-003,-6.942573e-005
-1.885692e-003,-1.405724e-004
-2.277566e-003,-1.994021e-004
-2.608018e-003,-2.389460e-004
-2.850630e-003,-2.632558e-004
-2.963428e-003,-2.760590e-004
-2.880936e-003,-2.775176e-004
-2.542543e-003,-2.642282e-004
-1.965104e-003,-2.417012e-004
-1.270168e-003,-2.162569e-004
-6.241752e-004,-1.924333e-004
-1.506204e-004,-1.694200e-004
1.232699e-004,-1.501342e-004
2.618358e-004,-1.383035e-004
3.582647e-004,-1.345760e-004
4.712243e-004,-1.323071e-004
6.285898e-004,-1.251762e-004
8.514298e-004,-1.151281e-004
1.139096e-003,-1.049180e-004
1.436973e-003,-1.013526e-004
1.649117e-003,-1.050801e-004
1.660461e-003,-1.092938e-004
1.380088e-003,-1.042698e-004
7.841726e-004,-8.417367e-005
-2.680255e-005,-5.435365e-005
-8.259465e-004,-2.939559e-005
-1.411164e-003,-2.874733e-005
-1.727678e-003,-6.278104e-005
-1.843717e-003,-1.229073e-004
-1.848741e-003,-1.877334e-004
-1.773867e-003,-2.366771e-004
-1.578578e-003,-2.582318e-004
-1.198697e-003,-2.545043e-004
-6.609641e-004,-2.335979e-004
-1.144799e-004,-2.008607e-004
2.370398e-004,-1.608306e-004
2.675081e-004,-1.138316e-004
1.257933e-005,-6.245691e-005
-3.640605e-004,-1.075808e-005
-6.663122e-004,4.045456e-005
-7.202800e-004,9.247754e-005
-4.348830e-004,1.448246e-004
1.482280e-004,1.960373e-004
8.809257e-004,2.417397e-004
1.597580e-003,2.748010e-004
2.180855e-003,2.882525e-004
2.598175e-003,2.795009e-004
2.888760e-003,2.547049e-004
3.104470e-003,2.231022e-004
3.268157e-003,1.955511e-004
3.375122e-003,1.816135e-004
3.387277e-003,1.914995e-004
3.225696e-003,2.209954e-004
2.812264e-003,2.577842e-004
2.170482e-003,2.892249e-004
1.402939e-003,3.047831e-004
6.187038e-004,2.981384e-004
-1.088076e-004,2.752873e-004
-7.700340e-004,2.459534e-004
-1.398685e-003,2.206712e-004
-2.066395e-003,2.030061e-004
-2.850630e-003,1.940925e-004
-3.748313e-003,1.937684e-004
-4.634979e-003,2.023578e-004
-4.968350e-003,2.179161e-004
-4.968350e-003,2.401191e-004
-4.968512e-003,2.652392e-004
-4.241480e-003,2.901973e-004
-2.827130e-003,3.132105e-004
-1.304201e-003,3.300653e-004
-1.358292e-006,3.334687e-004
9.081527e-004,3.161277e-004
1.500827e-003,2.767458e-004
1.964173e-003,2.184023e-004
2.389434e-003,1.547106e-004
2.757972e-003,1.009049e-004
3.025544e-003,6.508849e-005
3.187124e-003,4.450620e-005
3.279502e-003,2.878586e-005
3.356646e-003,1.225520e-005
3.446269e-003,-5.896120e-006
3.510123e-003,-2.048200e-005
3.435086e-003,-3.036798e-005
3.079350e-003,-3.636440e-005
2.361720e-003,-4.349527e-005
1.324985e-003,-5.824322e-005
1.391524e-004,-8.433573e-005
-9.654847e-004,-1.198280e-004
-1.818597e-003,-1.582375e-004
-2.379343e-003,-1.964849e-004
-2.704609e-003,-2.350565e-004
-2.903626e-003,-2.750866e-004
-3.058398e-003,-3.151167e-004
-3.148345e-003,-3.515814e-004
-3.079305e-003,-3.755671e-004
-2.774297e-003,-3.791325e-004
-2.207392e-003,-3.645466e-004
-1.421212e-003,-3.392644e-004
-5.959758e-004,-3.151167e-004
3.121684e-005,-2.955068e-004
3.237448e-004,-2.760590e-004
2.551911e-004,-2.517492e-004
-7.898758e-005,-2.245222e-004
-4.436345e-004,-2.015090e-004
-5.932208e-004,-1.925954e-004
-4.078181e-004,-2.021572e-004
7.238143e-005,-2.284118e-004
6.974676e-004,-2.600145e-004
1.323203e-003,-2.820554e-004
1.862071e-003,-2.835140e-004
2.277284e-003,-2.601766e-004
2.558307e-003,-2.115570e-004
2.704166e-003,-1.434896e-004
2.735607e-003,-6.796714e-005
2.712107e-003,5.864920e-007
2.704328e-003,5.212327e-005
2.728476e-003,8.388807e-005
2.731880e-003,1.018773e-004
2.675319e-003,1.117633e-004
2.580024e-003,1.167873e-004
2.487322e-003,1.163011e-004
2.388948e-003,1.080358e-004
2.251354e-003,9.134307e-005
2.047637e-003,6.865393e-005
1.757377e-003,4.807163e-005
1.364853e-003,3.656499e-005
8.961599e-004,4.207521e-005
4.345975e-004,6.492643e-005
3.818565e-005,9.701536e-005
-3.250027e-004,1.294284e-004
-7.355141e-004,1.526038e-004
-1.303229e-003,1.610312e-004
-2.130735e-003,1.584381e-004
-3.243802e-003,1.480659e-004
-4.478584e-003,1.389903e-004
-4.968350e-003,1.380179e-004
-4.968350e-003,1.483901e-004
-4.968350e-003,1.699448e-004
-4.627685e-003,1.976579e-004
-3.696128e-003,2.302331e-004
-3.082546e-003,2.631324e-004
-2.937011e-003,2.970040e-004
-3.060181e-003,3.334687e-004
-3.056940e-003,3.705817e-004
-2.659555e-003,4.063981e-004
-1.882775e-003,4.365423e-004
-9.632158e-004,4.568005e-004
-2.139880e-004,4.639314e-004
1.359110e-004,4.587452e-004
3.073064e-005,4.425387e-004
-4.159214e-004,4.179048e-004
-9.718052e-004,3.872744e-004
-1.412947e-003,3.540510e-004
-1.596891e-003,3.240689e-004
-1.488956e-003,3.021901e-004
-1.144081e-003,2.890628e-004
-6.666363e-004,2.801492e-004
-1.854645e-004,2.642668e-004
1.983062e-004,2.357433e-004
4.702519e-004,1.950649e-004
6.968193e-004,1.467694e-004
9.673066e-004,1.015532e-004
1.346378e-003,6.751948e-005
1.860450e-003,4.612685e-005
2.474032e-003,3.089271e-005
3.085508e-003,1.403791e-005
3.593750e-003,-8.651231e-006
3.932470e-003,-3.766092e-005
4.060665e-003,-6.910160e-005
3.956132e-003,-1.011905e-004
3.622111e-003,-1.355484e-004
3.088912e-003,-1.724993e-004
2.417309e-003,-2.088019e-004
1.729663e-003,-2.410529e-004
1.176047e-003,-2.677937e-004
8.622882e-004,-2.930758e-004
8.088066e-004,-3.219235e-004
9.347314e-004,-3.554710e-004
1.055794e-003,-3.904771e-004
9.485070e-004,-4.194868e-004
4.593935e-004,-4.343968e-004
-4.128421e-004,-4.331002e-004
-1.485066e-003,-4.207833e-004
-2.461997e-003,-4.027940e-004
-3.058236e-003,-3.807532e-004
-3.094701e-003,-3.541745e-004
-2.532333e-003,-3.240303e-004
-1.531741e-003,-2.956689e-004
-4.397449e-004,-2.770314e-004
3.671783e-004,-2.695764e-004
6.929298e-004,-2.661730e-004
5.209784e-004,-2.585559e-004
-7.607040e-005,-2.397564e-004
-8.823453e-004,-2.091260e-004
-1.593326e-003,-1.708786e-004
-1.945494e-003,-1.318209e-004
-1.808224e-003,-9.568031e-005
-1.205666e-003,-6.375344e-005
-2.851347e-004,-3.830919e-005
7.363633e-004,-2.226472e-005
1.654627e-003,-1.691656e-005
2.374362e-003,-2.113026e-005
2.865746e-003,-3.166451e-005
3.139314e-003,-4.317115e-005
3.225858e-003,-4.835724e-005
3.131049e-003,-4.430560e-005
2.849378e-003,-2.469570e-005
2.381006e-003,1.468618e-005
1.740198e-003,7.335383e-005
9.763823e-004,1.433661e-004
1.932822e-004,2.135403e-004
-4.611376e-004,2.760976e-004
-8.650042e-004,3.286068e-004
-9.846084e-004,3.689610e-004
-8.616009e-004,3.905157e-004
-5.760419e-004,3.922984e-004
-2.164190e-004,3.769022e-004
1.427178e-004,3.564820e-004
4.577728e-004,3.443271e-004
6.961711e-004,3.457857e-004
8.358715e-004,3.629646e-004
8.708776e-004,3.987811e-004
8.300372e-004,4.519385e-004
7.389564e-004,5.109303e-004
5.905044e-004,5.571189e-004
3.606957e-004,5.730013e-004
4.693717e-005,5.550121e-004
-3.133340e-004,5.089855e-004
-6.586951e-004,4.456179e-004
-9.149204e-004,3.762539e-004
-1.009891e-003,3.112658e-004
-9.139480e-004,2.514636e-004
-6.674466e-004,1.960373e-004
-3.802670e-004,1.474177e-004
-1.668270e-004,1.148425e-004
-6.667062e-005,1.000946e-004
-9.623623e-006,9.636710e-005
1.010670e-004,8.826383e-005
2.713977e-004,6.476436e-005
4.151496e-004,2.586868e-005
4.407560e-004,-2.372331e-005
3.662059e-004,-7.153257e-005
3.261758e-004,-1.089697e-004
4.315182e-004,-1.329553e-004
6.528996e-004,-1.438137e-004
8.491609e-004,-1.423551e-004
8.744431e-004,-1.237176e-004
7.240463e-004,-8.838737e-005
5.294057e-004,-4.219875e-005
4.080188e-004,4.313994e-006
3.796573e-004,3.607880e-005
4.088291e-004,3.607880e-005
4.389733e-004,-2.168618e-006
3.757678e-004,-7.185670e-005
7.270556e-005,-1.583996e-004
-6.682570e-004,-2.483458e-004
-2.002703e-003,-3.253268e-004
-3.861111e-003,-3.762153e-004
-4.968350e-003,-3.958252e-004
-4.968188e-003,-3.909633e-004
-4.968350e-003,-3.677880e-004
-4.968350e-003,-3.353749e-004
-4.968188e-003,-2.997205e-004
-4.968350e-003,-2.647144e-004
-3.516397e-003,-2.288980e-004
-1.821838e-003,-1.900023e-004
-7.253040e-004,-1.522411e-004
-3.092824e-004,-1.232314e-004
-3.950149e-004,-1.089697e-004
-6.496195e-004,-1.123730e-004
-7.593377e-004,-1.310105e-004
-5.471942e-004,-1.571031e-004
9.338019e-006,-1.809267e-004
8.034584e-004,-1.950263e-004
1.659003e-003,-1.968091e-004
2.403534e-003,-1.878955e-004
2.906101e-003,-1.728234e-004
3.096691e-003,-1.561307e-004
2.983407e-003,-1.399241e-004
2.658788e-003,-1.253383e-004
2.270801e-003,-1.109144e-004
1.955907e-003,-9.373552e-005
1.788007e-003,-7.056019e-005
1.742953e-003,-4.625038e-005
1.692550e-003,-2.615429e-005
1.518654e-003,-1.108221e-005
1.231635e-003,4.800190e-006
9.316522e-004,2.684107e-005
7.081639e-004,5.649903e-005
5.982835e-004,8.858796e-005
5.559844e-004,1.174356e-004
4.504799e-004,1.389903e-004
1.534141e-004,1.537382e-004
-3.146305e-004,1.699448e-004
-7.559343e-004,1.942546e-004
-9.333958e-004,2.263435e-004
-7.436173e-004,2.556773e-004
-2.674695e-004,2.744769e-004
2.970040e-004,2.770700e-004
7.585663e-004,2.629703e-004
1.017385e-003,2.470879e-004
1.077835e-003,2.459534e-004
1.057415e-003,2.665357e-004
1.121107e-003,3.098072e-004
1.397753e-003,3.644232e-004
1.928194e-003,4.146635e-004
2.614868e-003,4.474007e-004
3.243685e-003,4.529109e-004
3.612225e-003,4.318424e-004
3.628432e-003,3.926226e-004
3.269778e-003,3.488649e-004
2.601254e-003,3.081865e-004
1.807779e-003,2.699391e-004
1.100363e-003,2.224539e-004
6.094660e-004,1.581140e-004
3.388169e-004,8.226741e-005
2.052750e-004,1.047248e-005
1.135460e-004,-4.203669e-005
1.193106e-005,-6.116039e-005
-1.010285e-004,-4.057810e-005
-1.935677e-004,1.241726e-005
-2.310048e-004,8.129502e-005
-2.146363e-004,1.441764e-004
-1.844921e-004,1.803169e-004
-1.681235e-004,1.744826e-004
-1.590478e-004,1.344524e-004
-1.255003e-004,8.340187e-005
-4.446767e-005,4.045456e-005
8.145709e-005,1.160693e-005
2.211574e-004,-1.270286e-005
3.318480e-004,-4.462973e-005
3.785229e-004,-9.049421e-005
3.465960e-004,-1.467309e-004
2.393087e-004,-2.021572e-004
7.594687e-005,-2.470493e-004
-1.013526e-004,-2.726556e-004
-2.298704e-004,-2.775176e-004
-2.493182e-004,-2.660110e-004
-1.327933e-004,-2.434839e-004
7.335383e-005,-2.162569e-004
2.107852e-004,-1.958367e-004
8.615699e-005,-1.927574e-004
-4.134903e-004,-2.091260e-004
-1.197562e-003,-2.357047e-004
-1.985038e-003,-2.603387e-004
-2.471883e-003,-2.731418e-004
-2.508347e-003,-2.754107e-004
-2.144510e-003,-2.711970e-004
-1.567882e-003,-2.684419e-004
-9.883359e-004,-2.705488e-004
-5.258016e-004,-2.749245e-004
-1.723372e-004,-2.799486e-004
1.161391e-004,-2.843243e-004
3.405996e-004,-2.827037e-004
4.715484e-004,-2.650386e-004
5.055821e-004,-2.227395e-004
4.681450e-004,-1.540238e-004
3.825745e-004,-6.910160e-005
2.560015e-004,2.116879e-005
9.020862e-005,1.104668e-004
-1.290658e-004,1.872858e-004
-4.416897e-004,2.350950e-004
-8.656525e-004,2.436845e-004
-1.347311e-003,2.169437e-004
-1.731568e-003,1.739964e-004
-1.814545e-003,1.396385e-004
-1.481987e-003,1.326697e-004
-7.833233e-004,1.535762e-004
9.247754e-005,1.902029e-004
8.475402e-004,2.240746e-004
1.192740e-003,2.444948e-004
8.775223e-004,2.462775e-004
-2.156086e-004,2.321778e-004
-1.859923e-003,2.112714e-004
-3.579926e-003,1.932822e-004
-4.858468e-003,1.867996e-004
-4.968350e-003,1.955511e-004
-4.826703e-003,2.140265e-004
-3.608774e-003,2.376881e-004
-2.045326e-003,2.626462e-004
-5.635628e-004,2.893870e-004
5.042856e-004,3.182346e-004
1.051905e-003,3.469201e-004
1.222884e-003,3.756057e-004
1.222722e-003,4.026706e-004
1.179126e-003,4.268184e-004
1.089666e-003,4.441593e-004
8.851394e-004,4.503179e-004
5.248679e-004,4.418904e-004
5.698522e-005,4.170944e-004
-3.745947e-004,3.769022e-004
-5.964621e-004,3.208276e-004
-5.019780e-004,2.508154e-004
-8.919769e-005,1.718896e-004
5.264886e-004,8.907416e-005
1.128238e-003,6.420843e-006
1.470034e-003,-7.039812e-005
1.378467e-003,-1.339277e-004
8.496471e-004,-1.796301e-004
1.304008e-004,-2.045882e-004
-3.770257e-004,-2.130156e-004
-3.920977e-004,-2.073433e-004
8.064677e-005,-1.911368e-004
7.956792e-004,-1.708786e-004
1.453179e-003,-1.533756e-004
1.867905e-003,-1.431655e-004
1.982648e-003,-1.396000e-004
1.804052e-003,-1.370070e-004
1.381708e-003,-1.311726e-004
8.245269e-004,-1.235555e-004
2.785285e-004,-1.190177e-004
-1.206384e-004,-1.250141e-004
-2.955068e-004,-1.397621e-004
-2.379736e-004,-1.605064e-004
1.484824e-005,-1.801163e-004
3.953777e-004,-1.934057e-004
8.227442e-004,-1.998883e-004
1.201167e-003,-2.068571e-004
1.426438e-003,-2.207947e-004
1.432759e-003,-2.389460e-004
1.242332e-003,-2.559629e-004
9.882130e-004,-2.742763e-004
8.661778e-004,-2.961551e-004
1.021761e-003,-3.165753e-004
1.462903e-003,-3.285682e-004
2.063357e-003,-3.254889e-004
2.630102e-003,-3.024756e-004
3.009986e-003,-2.642282e-004
3.156980e-003,-2.169052e-004
3.120677e-003,-1.652063e-004
2.983893e-003,-1.091317e-004
2.836412e-003,-5.273300e-005
2.761862e-003,-2.168618e-006
2.801082e-003,3.494434e-005
2.852781e-003,6.022653e-005
2.664460e-003,7.870197e-005
1.943428e-003,9.344993e-005
5.671670e-004,1.070634e-004
-1.224789e-003,1.163011e-004
-2.931339e-003,1.164632e-004
-4.236132e-003,1.013911e-004
-4.968350e-003,7.286763e-005
-4.968350e-003,3.591673e-005
-4.968350e-003,2.531276e-006
-4.968350e-003,-1.480971e-005
-4.968512e-003,-1.010982e-005
-4.968188e-003,1.922400e-005
-4.968350e-003,6.703327e-005
-4.968188e-003,1.245665e-004
-4.892989e-003,1.838824e-004
-3.378316e-003,2.391467e-004
-1.692348e-003,2.833905e-004
-8.628052e-005,3.115899e-004
1.222722e-003,3.234207e-004
2.130614e-003,3.286068e-004
2.667701e-003,3.326584e-004
2.915015e-003,3.393030e-004
2.970279e-003,3.487029e-004
2.924090e-003,3.587509e-004
2.849378e-003,3.666921e-004
2.803027e-003,3.684748e-004
2.829119e-003,3.610198e-004
2.933490e-003,3.435168e-004
3.047585e-003,3.230965e-004
3.011930e-003,3.093210e-004
2.622809e-003,3.075383e-004
1.762077e-003,3.132105e-004
4.814344e-004,3.175863e-004
-9.769914e-004,3.115899e-004
-2.269301e-003,2.923041e-004
-3.147697e-003,2.600531e-004
-3.450436e-003,2.218057e-004
-3.155962e-003,1.867996e-004
-2.394577e-003,1.645966e-004
-1.396579e-003,1.571416e-004
-4.053871e-004,1.616794e-004
3.867882e-004,1.670276e-004
8.976185e-004,1.590864e-004
1.164702e-003,1.286181e-004
1.257404e-003,7.465034e-005
1.243466e-003,6.420843e-006
1.182043e-003,-6.245691e-005
1.120783e-003,-1.191798e-004
1.071677e-003,-1.575893e-004
1.009282e-003,-1.778474e-004
8.971323e-004,-1.818991e-004
7.211292e-004,-1.731475e-004
4.940755e-004,-1.541859e-004
2.548670e-004,-1.323071e-004
5.844381e-005,-1.159385e-004
-4.138842e-005,-1.185315e-004
-1.902341e-005,-1.477033e-004
1.289422e-004,-1.982676e-004
3.801436e-004,-2.538560e-004
6.817472e-004,-3.002067e-004
9.567724e-004,-3.324577e-004
1.129048e-003,-3.564434e-004
1.156113e-003,-3.801049e-004
1.049474e-003,-4.068457e-004
8.605054e-004,-4.308313e-004
6.430136e-004,-4.429862e-004
4.328148e-004,-4.345588e-004
2.402811e-004,-4.058733e-004
5.714729e-005,-3.604950e-004
-1.112386e-004,-3.071755e-004
-2.486699e-004,-2.525595e-004
-3.488263e-004,-2.002124e-004
-4.044147e-004,-1.538618e-004
-4.120317e-004,-1.172350e-004
-4.034423e-004,-9.227693e-005
-4.408794e-004,-7.671866e-005
-5.588629e-004,-6.748094e-005
-7.251419e-004,-5.856735e-005
-8.371290e-004,-4.803310e-005
-7.583653e-004,-3.393342e-005
-4.170558e-004,-1.869928e-005
1.239182e-004,-7.678839e-006
6.866092e-004,-3.465141e-006
1.139582e-003,-3.951337e-006
1.508768e-003,-2.006553e-006
1.906639e-003,6.582909e-006
2.393648e-003,2.522042e-005
2.904156e-003,5.244739e-005
3.305919e-003,8.291568e-005
3.495861e-003,1.128978e-004
3.426659e-003,1.372076e-004
3.105443e-003,1.564933e-004
2.572244e-003,1.733481e-004
1.853644e-003,1.897167e-004
9.515863e-004,2.020337e-004
-1.092938e-004,2.083542e-004
-1.197076e-003,2.107852e-004
-2.142404e-003,2.132162e-004
-2.912377e-003,2.140265e-004
-3.624981e-003,2.122438e-004
-4.405979e-003,2.122438e-004
-4.968188e-003,2.171058e-004
-4.968188e-003,2.292607e-004
-4.968188e-003,2.453052e-004
-4.968188e-003,2.598910e-004
-4.968512e-003,2.665357e-004
-4.536928e-003,2.629703e-004
-3.282859e-003,2.524360e-004
-2.269301e-003,2.376881e-004
-1.676465e-003,2.214815e-004
-1.417485e-003,2.065715e-004
-1.209393e-003,1.979821e-004
-7.637134e-004,1.952270e-004
2.651694e-005,1.942546e-004
1.054822e-003,1.900409e-004
2.109222e-003,1.838824e-004
3.012416e-003,1.837203e-004
3.651445e-003,1.902029e-004
3.975742e-003,2.012234e-004
3.980766e-003,2.159713e-004
3.707521e-003,2.341226e-004
3.228937e-003,2.511395e-004
2.654898e-003,2.607014e-004
2.139690e-003,2.576221e-004
1.816369e-003,2.407673e-004
1.691254e-003,2.120818e-004
1.643120e-003,1.738343e-004
1.495640e-003,1.310491e-004
1.133424e-003,8.907416e-005
5.503122e-004,5.115087e-005
-1.981056e-004,1.549650e-005
-1.028204e-003,-2.518189e-005
-1.849875e-003,-7.817725e-005
-2.578846e-003,-1.404103e-004
-3.124359e-003,-1.990780e-004
-3.373941e-003,-2.412149e-004
-3.218195e-003,-2.621213e-004
-2.622766e-003,-2.653627e-004
-1.655559e-003,-2.577456e-004
-4.741028e-004,-2.446183e-004
6.603546e-004,-2.287359e-004
1.476679e-003,-2.104225e-004
1.867257e-003,-1.930815e-004
1.820582e-003,-1.776853e-004
1.418659e-003,-1.671511e-004
8.822222e-004,-1.598582e-004
4.658761e-004,-1.566169e-004
3.264999e-004,-1.611547e-004
4.652279e-004,-1.755785e-004
7.647247e-004,-2.010227e-004
1.069246e-003,-2.316531e-004
1.202788e-003,-2.580697e-004
1.025326e-003,-2.718453e-004
4.896998e-004,-2.681178e-004
-3.254889e-004,-2.478596e-004
-1.211176e-003,-2.143121e-004
-1.937067e-003,-1.755785e-004
-2.299445e-003,-1.363587e-004
-2.181785e-003,-9.616651e-005
-1.629791e-003,-5.435365e-005
-8.379394e-004,-1.740276e-005
-5.030202e-005,6.258778e-006
5.357263e-004,1.128280e-005
8.438127e-004,-1.844488e-006
9.100975e-004,-2.307504e-005
8.311716e-004,-3.879538e-005
7.078398e-004,-4.122636e-005
6.016869e-004,-3.296103e-005
5.263265e-004,-1.772689e-005
4.712243e-004,5.934648e-006
4.222805e-004,3.575467e-005
3.845193e-004,6.703327e-005
3.778746e-004,1.010670e-004
4.028327e-004,1.448246e-004
4.329769e-004,1.966855e-004
4.462662e-004,2.488706e-004
4.478869e-004,2.905214e-004
4.615004e-004,3.112658e-004
5.159543e-004,3.085106e-004
6.381517e-004,2.863077e-004
8.464058e-004,2.571359e-004
1.130993e-003,2.323399e-004
1.429031e-003,2.151610e-004
1.632586e-003,2.044647e-004
1.628696e-003,1.999268e-004
1.347837e-003,2.015475e-004
8.566159e-004,2.096508e-004
3.474063e-004,2.205092e-004
1.257933e-005,2.295848e-004
-7.412562e-005,2.354192e-004
4.110282e-005,2.346088e-004
2.478982e-004,2.299089e-004
4.114222e-004,2.329882e-004
4.094774e-004,2.522740e-004
1.934442e-004,2.848491e-004
-2.079916e-004,3.158036e-004
-7.429690e-004,3.289309e-004
-1.360276e-003,3.198552e-004
-1.982445e-003,2.905214e-004
-2.509806e-003,2.519498e-004
-2.877371e-003,2.214815e-004
-3.073795e-003,2.125679e-004
-3.107504e-003,2.226160e-004
-2.965697e-003,2.365536e-004
-2.625521e-003,2.336365e-004
-2.075795e-003,2.020337e-004
-1.354603e-003,1.420695e-004
-5.614560e-004,6.606088e-005
1.701068e-004,-5.571990e-006
7.045984e-004,-6.148453e-005
9.616343e-004,-1.005423e-004
9.728169e-004,-1.259865e-004
8.818981e-004,-1.421931e-004
8.515919e-004,-1.545100e-004
9.677928e-004,-1.656925e-004
1.228070e-003,-1.799543e-004
1.557388e-003,-2.053985e-004
1.819610e-003,-2.460769e-004
1.877791e-003,-3.000446e-004
1.663703e-003,-3.593606e-004
1.225315e-003,-4.105732e-004
7.554871e-004,-4.423380e-004
4.976409e-004,-4.481723e-004
5.861287e-004,-4.267797e-004
9.763823e-004,-3.852910e-004
1.495154e-003,-3.371576e-004
1.936459e-003,-2.943724e-004
2.126401e-003,-2.622834e-004
1.992210e-003,-2.368392e-004
1.608924e-003,-2.078295e-004
1.161137e-003,-1.689338e-004
8.123720e-004,-1.222590e-004
5.960147e-004,-7.574627e-005
3.981328e-004,-3.992984e-005
2.586868e-005,-1.756482e-005
-6.280648e-004,-8.165035e-006
-1.434502e-003,-7.516774e-006
-2.130087e-003,-1.108221e-005
-2.522447e-003,-1.724069e-005
-2.544650e-003,-2.031993e-005
-2.195399e-003,-2.145439e-005
-1.499166e-003,-2.129233e-005
-5.335807e-004,-1.950961e-005
5.326470e-004,-1.448558e-005
1.485106e-003,5.864920e-007
2.202085e-003,2.910999e-005
2.602875e-003,7.011252e-005
2.591854e-003,1.153287e-004
2.115542e-003,1.610312e-004
1.263562e-003,2.010613e-004
2.675081e-004,2.307193e-004
-5.763660e-004,2.454672e-004
-1.032418e-003,2.454672e-004
-9.828256e-004,2.333123e-004
-4.389346e-004,2.141886e-004
4.229288e-004,1.942546e-004
1.282524e-003,1.793446e-004
1.765642e-003,1.663793e-004
1.487699e-003,1.542244e-004
2.587566e-004,1.435281e-004
-1.750043e-003,1.347766e-004
-4.070338e-003,1.289422e-004
-4.968512e-003,1.250527e-004
-4.968188e-003,1.190562e-004
-4.968350e-003,1.106288e-004
-4.968350e-003,1.015532e-004
-4.703857e-003,9.166720e-005
-2.784669e-003,8.729144e-005
-1.128522e-003,9.263960e-005
-3.685060e-005,1.057669e-004
3.812780e-004,1.240803e-004
2.218057e-004,1.474177e-004
-3.021515e-004,1.736723e-004
-9.241581e-004,1.958752e-004
-1.397065e-003,2.077060e-004
-1.558320e-003,2.106232e-004
-1.368865e-003,2.117576e-004
-9.128135e-004,2.206712e-004
-3.280820e-004,2.409294e-004
2.561635e-004,2.665357e-004
7.582422e-004,2.846870e-004
1.165513e-003,2.827423e-004
1.509902e-003,2.561635e-004
1.834520e-003,2.111094e-004
2.167889e-003,1.574657e-004
2.500449e-003,1.060910e-004
2.792979e-003,6.687121e-005
3.006744e-003,4.434413e-005
3.111763e-003,3.543054e-005
3.095071e-003,2.586868e-005
2.975789e-003,5.124321e-006
2.793465e-003,-2.680255e-005
2.590234e-003,-5.921561e-005
2.401589e-003,-8.368748e-005
2.245681e-003,-9.892161e-005
2.131911e-003,-1.122110e-004
2.073243e-003,-1.303623e-004
2.068867e-003,-1.545100e-004
2.113759e-003,-1.791439e-004
2.206785e-003,-1.989159e-004
2.365934e-003,-2.139880e-004
2.619730e-003,-2.284118e-004
2.954073e-003,-2.436459e-004
3.285012e-003,-2.561249e-004
3.515471e-003,-2.567732e-004
3.569926e-003,-2.433218e-004
3.402349e-003,-2.211189e-004
2.995237e-003,-2.034537e-004
2.376144e-003,-1.942160e-004
1.634531e-003,-1.912988e-004
8.392748e-004,-1.924333e-004
-4.641245e-005,-1.937298e-004
-1.030635e-003,-1.948643e-004
-1.982607e-003,-1.955125e-004
-2.737346e-003,-1.955125e-004
-3.188537e-003,-2.024813e-004
-3.351575e-003,-2.212809e-004
-3.398088e-003,-2.556388e-004
-3.590623e-003,-3.006929e-004
-3.984605e-003,-3.460712e-004
-4.331914e-003,-3.794566e-004
-4.291398e-003,-3.927460e-004
-3.668090e-003,-3.830221e-004
-2.554698e-003,-3.533641e-004
-1.269033e-003,-3.102548e-004
-2.146363e-004,-2.609869e-004
2.782044e-004,-2.109087e-004
1.286181e-004,-1.569410e-004
-4.446069e-004,-8.871149e-005
-1.056727e-003,-4.437533e-006
-1.417971e-003,8.988449e-005
-1.496735e-003,1.842065e-004
-1.494628e-003,2.691288e-004
-1.666741e-003,3.375204e-004
-2.119714e-003,3.812780e-004
-2.749501e-003,3.955397e-004
-3.298904e-003,3.798194e-004
-3.464049e-003,3.404375e-004
-3.066177e-003,2.911697e-004
-2.170603e-003,2.472499e-004
-1.044735e-003,2.146748e-004
-2.518189e-005,1.918236e-004
6.297242e-004,1.801549e-004
8.660157e-004,1.804790e-004
8.028102e-004,1.958752e-004
6.172452e-004,2.289366e-004
4.516144e-004,2.764217e-004
3.548613e-004,3.323342e-004
3.030004e-004,3.853296e-004
2.782044e-004,4.276287e-004
2.937627e-004,4.611762e-004
3.767402e-004,4.927790e-004
5.300540e-004,5.234093e-004
7.217774e-004,5.443158e-004
8.927565e-004,5.423710e-004
9.862683e-004,5.068787e-004
9.796236e-004,4.357320e-004
8.942151e-004,3.415720e-004
7.781762e-004,2.420638e-004
6.989262e-004,1.548727e-004
7.024916e-004,9.118101e-005
8.002172e-004,5.682316e-005
9.671446e-004,5.034055e-005
1.156275e-003,6.071273e-005
1.320448e-003,7.432621e-005
1.428869e-003,8.567078e-005
1.471169e-003,9.620504e-005
1.451883e-003,1.070634e-004
1.387056e-003,1.150046e-004
1.296786e-003,1.117633e-004
1.212998e-003,9.134307e-005
1.187554e-003,5.082674e-005
1.270531e-003,-6.058186e-006
1.462093e-003,-6.926366e-005
1.701140e-003,-1.276072e-004
1.915715e-003,-1.757406e-004
2.060440e-003,-2.117191e-004
2.135476e-003,-2.355427e-004
2.181665e-003,-2.499665e-004
2.251840e-003,-2.596904e-004
2.380358e-003,-2.630937e-004
2.568841e-003,-2.572594e-004
2.785038e-003,-2.444563e-004
2.988107e-003,-2.282497e-004
3.146445e-003,-2.120432e-004
3.223265e-003,-1.984297e-004
3.146122e-003,-1.914609e-004
2.809834e-003,-1.955125e-004
2.121215e-003,-2.130156e-004
1.029378e-003,-2.433218e-004
-4.071698e-004,-2.815692e-004
-1.892661e-003,-3.193304e-004
-3.010751e-003,-3.442885e-004
-3.426450e-003,-3.473677e-004
-3.111070e-003,-3.305129e-004
-2.372698e-003,-3.036101e-004
-1.673224e-003,-2.763831e-004
-1.347635e-003,-2.481838e-004
-1.480042e-003,-2.146363e-004
-1.951004e-003,-1.710407e-004
-2.479662e-003,-1.110765e-004
-2.740587e-003,-3.069211e-005
-2.570905e-003,6.168512e-005
-2.072229e-003,1.467694e-004
-1.523476e-003,2.033302e-004
-1.244561e-003,2.226160e-004
-1.445684e-003,2.115956e-004
-2.077739e-003,1.876099e-004
-2.882881e-003,1.699448e-004
-3.591595e-003,1.723757e-004
-4.024798e-003,1.958752e-004
-4.080063e-003,2.284504e-004
-3.735024e-003,2.542187e-004
-3.095836e-003,2.671840e-004
-2.387447e-003,2.691288e-004
-1.883099e-003,2.645909e-004
-1.772732e-003,2.556773e-004
-2.038357e-003,2.467637e-004
-2.463941e-003,2.423880e-004
-2.780294e-003,2.443328e-004
-2.778673e-003,2.511395e-004
-2.372537e-003,2.572980e-004
-1.597864e-003,2.590807e-004
-5.515700e-004,2.558394e-004
6.379896e-004,2.504913e-004
1.774556e-003,2.493568e-004
2.679046e-003,2.561635e-004
3.216134e-003,2.725321e-004
3.354215e-003,2.970040e-004
3.161518e-003,3.248792e-004
2.764131e-003,3.472443e-004
2.299649e-003,3.595612e-004
1.887516e-003,3.576164e-004
1.620431e-003,3.357376e-004
1.538912e-003,2.895490e-004
1.601793e-003,2.231022e-004
1.709081e-003,1.524417e-004
1.759646e-003,9.426025e-005
1.701140e-003,5.471631e-005
1.539398e-003,2.959619e-005
1.309751e-003,1.338965e-005
1.047205e-003,3.503668e-006
7.848209e-004,-1.196227e-006
5.504743e-004,-2.816880e-006
3.658818e-004,-5.734056e-006
2.563256e-004,-1.173047e-005
2.535705e-004,-1.967167e-005
3.733368e-004,-2.874733e-005
6.029835e-004,-3.911951e-005
8.953495e-004,-5.240886e-005
1.192416e-003,-6.926366e-005
1.455286e-003,-8.935975e-005
1.682502e-003,-1.162626e-004
1.896105e-003,-1.517549e-004
2.099660e-003,-1.908126e-004
2.273394e-003,-2.282497e-004
2.388785e-003,-2.637420e-004
2.378737e-003,-3.006929e-004
2.133531e-003,-3.378059e-004
1.539560e-003,-3.720016e-004
5.566327e-004,-4.024699e-004
-6.984011e-004,-4.298589e-004
-1.923453e-003,-4.506033e-004
-2.794879e-003,-4.525481e-004
-3.093891e-003,-4.296969e-004
-2.792449e-003,-3.861013e-004
-2.052133e-003,-3.313232e-004
-1.137922e-003,-2.783279e-004
-2.940482e-004,-2.371633e-004
3.261758e-004,-2.154466e-004
6.789921e-004,-2.130156e-004
8.130203e-004,-2.198223e-004
8.066997e-004,-2.220912e-004
7.214533e-004,-2.084778e-004
5.811046e-004,-1.736337e-004
3.897054e-004,-1.248521e-004
1.730240e-004,-7.817725e-005
2.100672e-005,-4.446767e-005
4.677511e-005,-2.874733e-005
3.042970e-004,-3.377136e-005
7.606731e-004,-5.500191e-005
1.254649e-003,-7.963584e-005
1.536157e-003,-9.843541e-005
1.413311e-003,-1.094559e-004
8.525642e-004,-1.101041e-004
-4.981582e-005,-9.503204e-005
-1.068396e-003,-6.553616e-005
-1.929125e-003,-2.404744e-005
-2.461186e-003,2.359977e-005
-2.647238e-003,6.930219e-005
-2.572688e-003,1.099806e-004
-2.353899e-003,1.477418e-004
-2.085842e-003,1.832341e-004
-1.806604e-003,2.093267e-004
-1.499328e-003,2.248849e-004
-1.134195e-003,2.303951e-004
-7.105560e-004,2.300710e-004
-2.718453e-004,2.299089e-004
1.257009e-004,2.282883e-004
4.529109e-004,2.211574e-004
7.102708e-004,2.039785e-004
8.900014e-004,1.764274e-004
9.695755e-004,1.396385e-004
9.491552e-004,1.038221e-004
8.540229e-004,8.242948e-005
7.003848e-004,8.534666e-005
4.955341e-004,1.117633e-004
2.474120e-004,1.587623e-004
-1.173047e-005,2.153231e-004
-2.147983e-004,2.715597e-004
-2.862691e-004,3.295791e-004
-1.924333e-004,3.976466e-004
3.413401e-005,4.820827e-004
3.214759e-004,5.710566e-004
5.767288e-004,6.430136e-004
6.882299e-004,6.827196e-004
5.841838e-004,6.875816e-004
2.851732e-004,6.622995e-004
-1.079973e-004,6.195141e-004
-4.565997e-004,5.661946e-004
-6.898117e-004,5.063924e-004
-8.915829e-004,4.414042e-004
-1.221062e-003,3.746333e-004
-1.699803e-003,3.127243e-004
-2.107235e-003,2.592428e-004
-2.148076e-003,2.141886e-004
-1.678896e-003,1.730240e-004
-8.473391e-004,1.312112e-004
1.160693e-005,8.810177e-005
5.926113e-004,4.320967e-005
8.138306e-004,-4.275467e-006
8.243649e-004,-5.111234e-005
8.522401e-004,-9.535618e-005
9.818925e-004,-1.384655e-004
1.067787e-003,-1.799543e-004
8.561297e-004,-2.198223e-004
2.021958e-004,-2.569353e-004
-7.800820e-004,-2.914552e-004
-1.767384e-003,-3.243544e-004
-2.461673e-003,-3.575778e-004
-2.728595e-003,-3.922598e-004
-2.604290e-003,-4.248349e-004
-2.196695e-003,-4.493068e-004
-1.592029e-003,-4.625961e-004
-7.987196e-004,-4.669719e-004
1.848548e-004,-4.655133e-004
1.215105e-003,-4.577342e-004
2.019599e-003,-4.439586e-004
2.317476e-003,-4.261314e-004
1.951856e-003,-4.050630e-004
1.057253e-003,-3.786463e-004
6.881599e-005,-3.467195e-004
-5.155915e-004,-3.118754e-004
-4.295348e-004,-2.799486e-004
2.754493e-004,-2.569353e-004
1.299055e-003,-2.451045e-004
2.269343e-003,-2.426735e-004
2.906263e-003,-2.468872e-004
3.099446e-003,-2.538560e-004
2.866719e-003,-2.530457e-004
2.254919e-003,-2.373254e-004
1.302296e-003,-2.070192e-004
7.400208e-005,-1.726613e-004
-1.259957e-003,-1.407345e-004
-2.459404e-003,-1.089697e-004
-3.298742e-003,-7.023606e-005
-3.576685e-003,-1.821308e-005
-3.211551e-003,4.855783e-005
-2.301876e-003,1.179218e-004
-1.100485e-003,1.704310e-004
9.296373e-005,2.004130e-004
1.026623e-003,2.151610e-004
1.609897e-003,2.349330e-004
1.896429e-003,2.757735e-004
1.988158e-003,3.329825e-004
1.972438e-003,3.807918e-004
1.903560e-003,4.007258e-004
1.825282e-003,3.885709e-004
1.751056e-003,3.600474e-004
1.633234e-003,3.368721e-004
1.375064e-003,3.341170e-004
9.120423e-004,3.598854e-004
2.725321e-004,4.112601e-004
-3.852910e-004,4.746277e-004
-8.423151e-004,5.292437e-004
-9.572194e-004,5.566327e-004
-7.222248e-004,5.459364e-004
-2.545043e-004,5.015305e-004
2.684805e-004,4.347596e-004
6.940642e-004,3.619922e-004
9.512621e-004,2.986247e-004
1.045098e-003,2.475741e-004
1.025812e-003,2.055991e-004
9.507760e-004,1.712413e-004
8.502954e-004,1.449867e-004
7.392805e-004,1.278078e-004
6.306967e-004,1.213252e-004
5.417228e-004,1.279698e-004
4.815964e-004,1.485521e-004
4.496696e-004,1.756171e-004
4.397836e-004,1.973338e-004
4.388112e-004,2.117576e-004
4.284390e-004,2.190506e-004
3.973225e-004,2.187264e-004
3.457857e-004,2.115956e-004
2.793389e-004,1.974959e-004
2.077060e-004,1.736723e-004
1.511452e-004,1.425557e-004
1.456350e-004,1.067393e-004
2.153231e-004,6.281957e-005
3.537269e-004,1.322759e-005
5.345919e-004,-3.782299e-005
7.157810e-004,-8.401160e-005
8.431645e-004,-1.214487e-004
8.823843e-004,-1.511067e-004
8.384645e-004,-1.770371e-004
7.400909e-004,-2.058847e-004
6.101143e-004,-2.417012e-004
4.563143e-004,-2.830278e-004
2.913317e-004,-3.277578e-004
1.545486e-004,-3.716775e-004
1.235941e-004,-4.096008e-004
2.642668e-004,-4.387725e-004
5.577672e-004,-4.578962e-004
9.156077e-004,-4.659995e-004
1.206678e-003,-4.601652e-004
1.262752e-003,-4.436345e-004
9.177146e-004,-4.211074e-004
8.988449e-005,-3.998769e-004
-1.099189e-003,-3.820497e-004
-2.315489e-003,-3.626019e-004
-3.166658e-003,-3.332680e-004
-3.394361e-003,-2.903207e-004
-2.994058e-003,-2.391081e-004
-2.182434e-003,-1.921092e-004
-1.255420e-003,-1.600202e-004
-4.927403e-004,-1.472171e-004
-1.073490e-004,-1.475412e-004
-2.028055e-004,-1.524032e-004
-7.426449e-004,-1.587237e-004
-1.542113e-003,-1.652063e-004
-2.338989e-003,-1.708786e-004
-2.967479e-003,-1.700683e-004
-3.397278e-003,-1.575893e-004
-3.595485e-003,-1.314967e-004
-3.504242e-003,-9.276313e-005
-3.125007e-003,-4.608832e-005
-2.502189e-003,4.151929e-006
-1.692186e-003,5.471631e-005
-7.899680e-004,9.944634e-005
8.534666e-005,1.325077e-004
8.373301e-004,1.516314e-004
1.417201e-003,1.579519e-004
1.811182e-003,1.561692e-004
2.027540e-003,1.527658e-004
2.086046e-003,1.543865e-004
2.001286e-003,1.657311e-004
1.786386e-003,1.877720e-004
1.476841e-003,2.161334e-004
1.150441e-003,2.469258e-004
8.724983e-004,2.748010e-004
6.208107e-004,2.950592e-004
2.995970e-004,3.086727e-004
-1.784957e-004,3.148312e-004
-8.180053e-004,3.140208e-004
-1.502731e-003,3.072141e-004
-2.039492e-003,2.986247e-004
-2.262656e-003,2.900352e-004
-2.116311e-003,2.835526e-004
-1.703692e-003,2.759355e-004
-1.270005e-003,2.626462e-004
-1.054621e-003,2.457913e-004
-1.130305e-003,2.350950e-004
-1.372431e-003,2.380122e-004
-1.547948e-003,2.551911e-004
-1.460432e-003,2.829043e-004
-1.030797e-003,3.135347e-004
-3.073376e-004,3.362238e-004
5.801322e-004,3.393030e-004
1.474734e-003,3.148312e-004
2.231419e-003,2.660495e-004
2.728962e-003,2.072198e-004
2.873525e-003,1.514693e-004
2.596554e-003,1.098185e-004
1.916201e-003,8.956036e-005
9.901578e-004,9.020862e-005
1.234320e-004,1.062531e-004
-3.368335e-004,1.331559e-004
-2.175534e-004,1.642725e-004
3.995914e-004,1.921477e-004
1.243142e-003,2.013854e-004
1.992210e-003,1.816135e-004
2.407261e-003,1.338042e-004
2.399644e-003,6.492643e-005
2.010523e-003,-9.947754e-006
1.379439e-003,-7.315322e-005
6.960090e-004,-1.157764e-004
1.179218e-004,-1.451102e-004
-3.136581e-004,-1.757406e-004
-6.872186e-004,-2.126914e-004
-1.116043e-003,-2.520733e-004
-1.598026e-003,-2.835140e-004
-2.015182e-003,-2.979378e-004
-2.214847e-003,-2.964792e-004
-2.096539e-003,-2.831898e-004
-1.677438e-003,-2.613110e-004
-1.106319e-003,-2.399184e-004
-5.695592e-004,-2.240360e-004
-1.300382e-004,-2.146363e-004
3.052694e-004,-2.128535e-004
8.233925e-004,-2.180396e-004
1.381222e-003,-2.288980e-004
1.826093e-003,-2.418632e-004
1.988644e-003,-2.554767e-004
1.772773e-003,-2.634179e-004
1.209108e-003,-2.590421e-004
4.342734e-004,-2.379736e-004
-3.463953e-004,-2.042641e-004
-9.252926e-004,-1.613168e-004
-1.174711e-003,-1.185315e-004
-1.073744e-003,-8.498399e-005
-7.092595e-004,-6.294311e-005
-2.261429e-004,-5.402952e-005
2.278021e-004,-5.192267e-005
5.454503e-004,-4.576419e-005
6.951987e-004,-3.117831e-005
7.230740e-004,-5.085794e-006
7.235601e-004,3.089271e-005
8.230684e-004,6.411610e-005
1.122241e-003,8.194328e-005
1.613138e-003,8.129502e-005
2.138231e-003,7.335383e-005
2.454422e-003,7.708133e-005
2.388948e-003,1.041462e-004
1.963200e-003,1.521176e-004
1.395646e-003,2.090025e-004
9.606619e-004,2.649151e-004
8.193408e-004,3.141829e-004
9.567724e-004,3.546993e-004
1.249139e-003,3.867882e-004
1.548150e-003,4.054258e-004
1.753001e-003,4.080188e-004
1.826255e-003,3.978086e-004
1.782983e-003,3.775505e-004
1.672940e-003,3.508097e-004
1.563222e-003,3.193690e-004
1.510388e-003,2.874421e-004
1.534050e-003,2.579462e-004
1.624321e-003,2.313675e-004
1.745222e-003,2.036544e-004
1.778121e-003,1.673517e-004
1.487699e-003,1.180839e-004
6.287518e-004,6.233338e-005
-9.158928e-004,1.193106e-005
-2.949652e-003,-1.950961e-005
-4.968350e-003,-2.307504e-005
-4.968350e-003,2.045080e-006
-4.968512e-003,4.385793e-005
-4.968188e-003,8.453633e-005
-4.968512e-003,1.117633e-004
-4.376320e-003,1.278078e-004
-3.125818e-003,1.456350e-004
-2.218898e-003,1.709172e-004
-1.621525e-003,1.996027e-004
-1.180870e-003,2.190506e-004
-7.961266e-004,2.239125e-004
-5.013297e-004,2.090025e-004
-4.105732e-004,1.756171e-004
-5.818762e-004,1.302388e-004
-9.293442e-004,8.745350e-005
-1.264495e-003,5.957827e-005
-1.420564e-003,4.726130e-005
-1.310036e-003,4.158902e-005
-9.338820e-004,3.121684e-005
-3.561192e-004,7.717366e-006
3.171001e-004,-2.728874e-005
9.658480e-004,-6.861539e-005
1.491589e-003,-1.131834e-004
1.846675e-003,-1.588858e-004
2.034509e-003,-2.047502e-004
2.089612e-003,-2.501286e-004
2.049581e-003,-2.930758e-004
1.917822e-003,-3.272716e-004
1.687688e-003,-3.512573e-004
1.378629e-003,-3.622777e-004
1.053525e-003,-3.574158e-004
7.919518e-004,-3.360231e-004
6.501445e-004,-3.062031e-004
6.178935e-004,-2.775176e-004
6.156246e-004,-2.587180e-004
5.546879e-004,-2.540181e-004
3.803056e-004,-2.605007e-004
7.335383e-005,-2.707109e-004
-3.450988e-004,-2.827037e-004
-7.805682e-004,-2.989102e-004
-1.037118e-003,-3.191683e-004
-9.079515e-004,-3.379679e-004
-3.301888e-004,-3.528779e-004
5.751082e-004,-3.624398e-004
1.573270e-003,-3.609812e-004
2.462202e-003,-3.459091e-004
3.107712e-003,-3.151167e-004
3.458910e-003,-2.674695e-004
3.543023e-003,-2.102605e-004
3.389383e-003,-1.524032e-004
2.963148e-003,-1.028112e-004
2.236606e-003,-6.650855e-005
1.251570e-003,-4.949169e-005
1.373696e-004,-4.932962e-005
-9.073032e-004,-5.791909e-005
-1.673062e-003,-6.359137e-005
-2.021178e-003,-5.548811e-005
-1.932367e-003,-2.842320e-005
-1.516345e-003,1.987227e-005
-9.520333e-004,8.712937e-005
-4.308313e-004,1.652449e-004
-1.060525e-004,2.415777e-004
-4.074016e-005,3.085106e-004
-2.000504e-004,3.608578e-004
-4.987367e-004,4.013741e-004
-8.523631e-004,4.383250e-004
-1.204855e-003,4.820827e-004
-1.529796e-003,5.303781e-004
-1.825241e-003,5.734875e-004
-2.082763e-003,5.977973e-004
-2.232350e-003,5.942319e-004
-2.140459e-003,5.605224e-004
-1.672252e-003,5.042856e-004
-8.147640e-004,4.397836e-004
2.663737e-004,3.804677e-004
1.267452e-003,3.355756e-004
1.941807e-003,3.081865e-004
2.189931e-003,2.971661e-004
2.113111e-003,2.995970e-004
1.977624e-003,3.122381e-004
2.080212e-003,3.324963e-004
2.593799e-003,3.540510e-004
3.451941e-003,3.657197e-004
4.365352e-003,3.530786e-004
4.958681e-003,3.124002e-004
4.958843e-003,2.548670e-004
4.461295e-003,2.023578e-004
3.261189e-003,1.726999e-004
1.682178e-003,1.639484e-004
-1.562004e-005,1.662173e-004
-1.579712e-003,1.691344e-004
-2.796824e-003,1.658931e-004
-3.525796e-003,1.482280e-004
-3.733241e-003,1.070634e-004
-3.568744e-003,4.045456e-005
-3.351900e-003,-4.462973e-005
-3.412836e-003,-1.347380e-004
-3.878776e-003,-2.136638e-004
-4.646323e-003,-2.694143e-004
-4.968350e-003,-2.966413e-004
-4.968350e-003,-2.966413e-004
-4.968350e-003,-2.781658e-004
-4.968350e-003,-2.486699e-004
-4.968188e-003,-2.128535e-004
-4.968350e-003,-1.723372e-004
-4.447143e-003,-1.319829e-004
-3.434229e-003,-9.762509e-005
-2.186323e-003,-7.444975e-005
-7.912645e-004,-6.278104e-005
5.898562e-004,-6.294311e-005
1.735174e-003,-7.363943e-005
2.517142e-003,-9.632857e-005
2.905939e-003,-1.344139e-004
2.963148e-003,-1.864369e-004
2.791520e-003,-2.476975e-004
2.473870e-003,-3.084721e-004
2.064978e-003,-3.541745e-004
1.622538e-003,-3.784843e-004
1.195657e-003,-3.820497e-004
8.167478e-004,-3.694086e-004
5.031512e-004,-3.472056e-004
2.459534e-004,-3.136581e-004
2.181705e-005,-2.703867e-004
-1.929195e-004,-2.227395e-004
-4.220798e-004,-1.781716e-004
-6.695535e-004,-1.442999e-004
-9.017931e-004,-1.216107e-004
-1.056890e-003,-1.079973e-004
-1.052352e-003,-9.227693e-005
-7.932093e-004,-6.537409e-005
-1.812508e-004,-2.647842e-005
8.091307e-004,1.047248e-005
2.056874e-003,3.073064e-005
3.330229e-003,3.348575e-005
4.371348e-003,3.267542e-005
4.958843e-003,4.564065e-005
4.958681e-003,8.291568e-005
4.959005e-003,1.438522e-004
4.844748e-003,2.192126e-004
4.357410e-003,2.913317e-004
3.754196e-003,3.409237e-004
3.074488e-003,3.553475e-004
2.367231e-003,3.373583e-004
1.711512e-003,3.018659e-004
1.190633e-003,2.683184e-004
8.216097e-004,2.440086e-004
5.611706e-004,2.278021e-004
3.700955e-004,2.135403e-004
2.370398e-004,1.994406e-004
1.409351e-004,1.808031e-004
2.992031e-005,1.543865e-004
-1.712027e-004,1.229458e-004
-5.423322e-004,8.891209e-005
-1.110857e-003,5.423012e-005
-1.826862e-003,2.473423e-005
-2.554050e-003,6.907040e-006
-3.084491e-003,8.527692e-006
-3.256281e-003,3.364782e-005
-3.074767e-003,8.064677e-005
-2.702664e-003,1.417454e-004
-2.356654e-003,2.075439e-004
-2.156827e-003,2.676702e-004
-2.036737e-003,3.164518e-004
-1.844851e-003,3.529166e-004
-1.478421e-003,3.811159e-004
-9.408508e-004,4.047775e-004
-3.332680e-004,4.201737e-004
2.171058e-004,4.222805e-004
6.255105e-004,4.033189e-004
8.684467e-004,3.616681e-004
9.527208e-004,3.020280e-004
8.987529e-004,2.346088e-004
7.520836e-004,1.702689e-004
5.934216e-004,1.148425e-004
4.973168e-004,7.578480e-005
4.900239e-004,5.098881e-005
5.520949e-004,2.959619e-005
6.410689e-004,4.962256e-006
7.211292e-004,-3.036798e-005
7.775280e-004,-7.752899e-005
8.207994e-004,-1.298761e-004
8.660157e-004,-1.762268e-004
9.164180e-004,-2.097743e-004
9.609861e-004,-2.321393e-004
9.786512e-004,-2.455907e-004
9.493173e-004,-2.535319e-004
8.637467e-004,-2.595283e-004
7.374978e-004,-2.681178e-004
6.023352e-004,-2.802727e-004
4.882411e-004,-2.893484e-004
4.169324e-004,-2.880518e-004
3.969983e-004,-2.726556e-004
4.264942e-004,-2.476975e-004
4.804620e-004,-2.246843e-004
5.154681e-004,-2.120432e-004
4.908342e-004,-2.164190e-004
3.888950e-004,-2.384598e-004
2.247229e-004,-2.705488e-004
3.170304e-005,-3.006929e-004
-1.564548e-004,-3.194925e-004
-3.196545e-004,-3.238683e-004
-4.600031e-004,-3.134961e-004
-5.938690e-004,-2.925897e-004
-7.348658e-004,-2.686040e-004
-8.669490e-004,-2.475355e-004
-9.546264e-004,-2.292221e-004
-9.735880e-004,-2.104225e-004
-9.363130e-004,-1.851404e-004
-8.692179e-004,-1.553203e-004
-7.933713e-004,-1.235555e-004
-7.230351e-004,-9.892161e-005
-6.666363e-004,-8.952183e-005
-6.345474e-004,-9.778715e-005
-6.304958e-004,-1.131834e-004
-6.421645e-004,-1.232314e-004
-6.458920e-004,-1.164247e-004
-6.128307e-004,-8.174268e-005
-5.207775e-004,-1.383732e-005
-3.697327e-004,8.259155e-005
-1.854645e-004,1.924718e-004
7.069105e-006,2.970040e-004
2.088404e-004,3.824125e-004
4.371906e-004,4.407560e-004
7.058950e-004,4.662003e-004
1.007661e-003,4.652279e-004
1.310886e-003,4.467524e-004
1.572135e-003,4.185530e-004
1.763373e-003,3.827366e-004
1.877791e-003,3.449753e-004
1.908422e-003,3.175863e-004
1.848458e-003,3.151553e-004
1.693361e-003,3.389789e-004
1.454800e-003,3.791712e-004
1.136665e-003,4.190393e-004
7.349047e-004,4.431870e-004
2.905214e-004,4.467524e-004
-1.209625e-004,4.344354e-004
-5.238568e-004,4.072085e-004
-1.076662e-003,3.696093e-004
-1.902222e-003,3.279585e-004
-2.898440e-003,2.879283e-004
-3.754958e-003,2.491947e-004
-4.132086e-003,2.122438e-004
-3.887366e-003,1.788584e-004
-3.175572e-003,1.517934e-004
-2.349847e-003,1.320215e-004
-1.751015e-003,1.175977e-004
-1.537899e-003,1.034980e-004
-1.612287e-003,8.696731e-005
-1.726381e-003,6.379197e-005
-1.702558e-003,3.299956e-005
-1.520558e-003,-7.100305e-007
-1.274867e-003,-3.490581e-005
-1.081361e-003,-6.261898e-005
-1.007784e-003,-7.752899e-005
-1.019128e-003,-8.077030e-005
-9.808809e-004,-8.320128e-005
-7.376209e-004,-9.470791e-005
-2.404046e-004,-1.183694e-004
3.984569e-004,-1.481895e-004
9.909682e-004,-1.759026e-004
1.408125e-003,-1.969711e-004
1.602604e-003,-2.144742e-004
1.573270e-003,-2.344082e-004
1.338437e-003,-2.540181e-004
9.382969e-004,-2.721694e-004
4.521006e-004,-2.865932e-004
-6.220252e-006,-2.997205e-004
-3.374817e-004,-3.170615e-004
-5.330946e-004,-3.399127e-004
-6.441093e-004,-3.613053e-004
-6.731189e-004,-3.713534e-004
-5.705316e-004,-3.655190e-004
-3.066893e-004,-3.510952e-004
9.377406e-005,-3.318095e-004
5.726772e-004,-3.083100e-004
1.052553e-003,-2.778417e-004
1.424494e-003,-2.405667e-004
1.628696e-003,-2.008607e-004
1.717346e-003,-1.671511e-004
1.735660e-003,-1.477033e-004
1.683799e-003,-1.467309e-004
1.596445e-003,-1.619650e-004
1.550743e-003,-1.862748e-004
1.598714e-003,-2.112329e-004
1.732419e-003,-2.285739e-004
1.905667e-003,-2.335979e-004
2.090584e-003,-2.206326e-004
2.273557e-003,-1.846542e-004
2.397861e-003,-1.267968e-004
2.356210e-003,-5.176061e-005
2.054443e-003,2.943412e-005
1.481703e-003,1.015532e-004
7.791486e-004,1.598967e-004
2.287745e-004,2.047888e-004
8.129502e-005,2.419018e-004
3.976466e-004,2.816078e-004
1.041046e-003,3.279585e-004
1.780552e-003,3.832228e-004
2.394944e-003,4.443214e-004
2.736093e-003,5.052580e-004
2.791196e-003,5.543638e-004
2.678073e-003,5.819149e-004
2.534969e-003,5.814288e-004
2.401427e-003,5.542018e-004
2.231257e-003,5.072028e-004
1.894646e-003,4.564763e-004
1.226449e-003,4.156358e-004
1.222976e-004,3.955397e-004
-1.385072e-003,3.947294e-004
-3.055481e-003,4.026706e-004
-4.538873e-003,4.068843e-004
-4.968512e-003,3.979707e-004
-4.968350e-003,3.679886e-004
-4.968350e-003,3.208276e-004
-4.968512e-003,2.684805e-004
-4.585386e-003,2.227781e-004
-4.027391e-003,1.887444e-004
-3.661770e-003,1.704310e-004
-3.495652e-003,1.658931e-004
-3.418995e-003,1.675138e-004
-3.275891e-003,1.688103e-004
-2.968128e-003,1.621656e-004
-2.488575e-003,1.427178e-004
-1.879371e-003,1.109530e-004
-1.176980e-003,6.995045e-005
-4.471999e-004,2.311357e-005
1.506590e-004,-2.323711e-005
4.208219e-004,-6.180866e-005
2.756114e-004,-8.806324e-005
-1.261486e-004,-1.002181e-004
-4.173799e-004,-1.020008e-004
-2.553146e-004,-1.000561e-004
4.649037e-004,-1.055663e-004
1.520761e-003,-1.183694e-004
2.521842e-003,-1.438137e-004
3.103498e-003,-1.874093e-004
3.090208e-003,-2.486699e-004
2.558307e-003,-3.112272e-004
1.770342e-003,-3.569296e-004
1.014954e-003,-3.784843e-004
4.542074e-004,-3.807532e-004
8.534666e-005,-3.692465e-004
-1.856265e-004,-3.463953e-004
-4.149489e-004,-3.121996e-004
-5.953276e-004,-2.677937e-004
-6.685811e-004,-2.107467e-004
-5.867381e-004,-1.441378e-004
-3.485022e-004,-7.590833e-005
1.403791e-005,-2.307504e-005
4.491834e-004,-2.492749e-006
8.739569e-004,-1.886135e-005
1.187554e-003,-5.872941e-005
1.310724e-003,-1.018388e-004
1.239577e-003,-1.334415e-004
1.053363e-003,-1.481895e-004
9.408899e-004,-1.460826e-004
1.138124e-003,-1.314967e-004
1.763697e-003,-1.110765e-004
2.684232e-003,-9.681477e-005
3.550154e-003,-9.875954e-005
3.955321e-003,-1.173971e-004
3.592453e-003,-1.472171e-004
2.409692e-003,-1.784957e-004
7.456010e-004,-2.023193e-004
-7.898060e-004,-2.138259e-004
-1.662042e-003,-2.096122e-004
-1.742750e-003,-1.891920e-004
-1.188487e-003,-1.512687e-004
-3.170615e-004,-9.843541e-005
5.663567e-004,-3.733679e-005
1.271180e-003,1.598270e-005
1.751704e-003,5.034055e-005
2.056712e-003,6.897806e-005
2.251840e-003,8.437427e-005
2.317962e-003,1.114392e-004
2.149738e-003,1.542244e-004
1.663703e-003,2.034923e-004
8.958358e-004,2.496809e-004
-8.489166e-006,2.842008e-004
-8.556045e-004,3.060797e-004
-1.477287e-003,3.161277e-004
-1.804335e-003,3.125623e-004
-1.884071e-003,2.978143e-004
-1.825565e-003,2.798251e-004
-1.704341e-003,2.645909e-004
-1.513752e-003,2.582704e-004
-1.227382e-003,2.615117e-004
-8.588458e-004,2.689667e-004
-4.702132e-004,2.754493e-004
-1.420310e-004,2.829043e-004
6.395404e-005,2.921420e-004
1.367214e-004,3.038107e-004
1.140322e-004,3.158036e-004
5.309566e-005,3.240689e-004
3.989864e-006,3.216380e-004
1.234753e-006,3.034866e-004
6.946425e-005,2.712356e-004
2.216436e-004,2.302331e-004
4.452938e-004,1.863134e-004
7.054088e-004,1.498487e-004
9.677928e-004,1.331559e-004
1.237956e-003,1.370455e-004
1.556415e-003,1.509831e-004
1.957528e-003,1.633001e-004
2.414392e-003,1.621656e-004
2.841437e-003,1.396385e-004
3.142232e-003,9.685330e-005
3.248061e-003,4.628891e-005
3.115977e-003,7.485573e-007
2.720049e-003,-3.231277e-005
2.079725e-003,-4.965376e-005
1.260483e-003,-5.273300e-005
3.418961e-004,-4.479180e-005
-5.612939e-004,-3.441962e-005
-1.293667e-003,-2.955766e-005
-1.761226e-003,-3.247483e-005
-2.021503e-003,-4.381940e-005
-2.294259e-003,-6.910160e-005
-2.893091e-003,-1.117248e-004
-3.972289e-003,-1.736337e-004
-4.968350e-003,-2.465631e-004
-4.968350e-003,-3.159271e-004
-4.968350e-003,-3.723258e-004
-4.968188e-003,-4.089525e-004
-4.968188e-003,-4.280762e-004
-4.968188e-003,-4.321279e-004
-4.968350e-003,-4.267797e-004
-4.425751e-003,-4.139766e-004
-2.289559e-003,-3.922598e-004
-5.138087e-004,-3.577399e-004
6.867713e-004,-3.071755e-004
1.317855e-003,-2.454286e-004
1.565977e-003,-1.869231e-004
1.640689e-003,-1.464067e-004
1.687202e-003,-1.256624e-004
1.752028e-003,-1.220970e-004
1.813451e-003,-1.345760e-004
1.838734e-003,-1.653684e-004
1.827227e-003,-2.026434e-004
1.813613e-003,-2.301945e-004
1.839220e-003,-2.355427e-004
1.905019e-003,-2.165810e-004
1.957042e-003,-1.788198e-004
1.933866e-003,-1.361966e-004
1.834844e-003,-1.029732e-004
1.709081e-003,-8.352541e-005
1.590773e-003,-7.412562e-005
1.453990e-003,-6.667062e-005
1.225477e-003,-5.581224e-005
8.475402e-004,-3.701266e-005
3.209897e-004,-1.497178e-005
-2.580697e-004,8.041497e-006
-7.209282e-004,3.316162e-005
-9.077895e-004,6.444023e-005
-7.350279e-004,1.026876e-004
-2.420253e-004,1.427178e-004
4.039671e-004,1.749688e-004
9.927510e-004,1.895547e-004
1.384301e-003,1.833962e-004
1.525136e-003,1.634622e-004
1.415418e-003,1.388282e-004
1.090638e-003,1.195424e-004
6.391241e-004,1.153287e-004
2.028440e-004,1.300767e-004
-7.574627e-005,1.637863e-004
-1.198280e-004,2.151610e-004
5.552663e-005,2.811216e-004
3.472443e-004,3.569682e-004
5.979594e-004,4.383250e-004
6.733199e-004,5.216266e-004
5.193577e-004,6.012007e-004
1.712413e-004,6.729957e-004
-2.793003e-004,7.310151e-004
-7.243316e-004,7.661834e-004
-1.054297e-003,7.729901e-004
-1.179573e-003,7.509492e-004
-1.065155e-003,7.096225e-004
-7.193076e-004,6.575995e-004
-1.989159e-004,6.000663e-004
3.838710e-004,5.381573e-004
8.793051e-004,4.726828e-004
1.155465e-003,4.052637e-004
1.160489e-003,3.410858e-004
9.318143e-004,2.835526e-004
5.692738e-004,2.359054e-004
2.018716e-004,2.002510e-004
-5.127441e-005,1.733481e-004
-1.130213e-004,1.504969e-004
3.559260e-005,1.235941e-004
3.628026e-004,8.891209e-005
8.049170e-004,4.742337e-005
1.293707e-003,7.879432e-006
1.824148e-003,-2.988179e-005
2.391865e-003,-7.315322e-005
2.903184e-003,-1.297140e-004
3.171242e-003,-1.964849e-004
2.998803e-003,-2.580697e-004
2.332711e-003,-2.959930e-004
1.354643e-003,-3.029619e-004
3.652335e-004,-2.833519e-004
-3.972838e-004,-2.525595e-004
-8.789418e-004,-2.277635e-004
-1.164987e-003,-2.220912e-004
-1.339693e-003,-2.371633e-004
-1.418457e-003,-2.629317e-004
-1.365462e-003,-2.893484e-004
-1.152832e-003,-3.120375e-004
-7.909404e-004,-3.316474e-004
-3.365093e-004,-3.546606e-004
1.229458e-004,-3.885323e-004
4.932652e-004,-4.261314e-004
7.002227e-004,-4.540067e-004
7.084881e-004,-4.656754e-004
5.454503e-004,-4.642168e-004
2.934386e-004,-4.577342e-004
5.925414e-005,-4.543308e-004
-5.435365e-005,-4.520619e-004
2.246531e-005,-4.457413e-004
2.864697e-004,-4.266177e-004
6.371793e-004,-3.869116e-004
9.143112e-004,-3.275957e-004
9.601758e-004,-2.577456e-004
6.960090e-004,-1.867610e-004
1.566554e-004,-1.297140e-004
-4.893369e-004,-9.179074e-005
-9.752086e-004,-6.910160e-005
-1.110695e-003,-4.965376e-005
-8.750523e-004,-2.485776e-005
-4.134903e-004,8.041497e-006
5.828175e-005,4.499239e-005
3.702575e-004,8.080883e-005
4.780310e-004,1.116012e-004
4.318424e-004,1.386662e-004
3.179104e-004,1.608691e-004
2.222919e-004,1.783722e-004
2.172679e-004,1.905271e-004
3.039728e-004,1.989545e-004
3.548613e-004,2.054371e-004
1.832341e-004,2.090025e-004
-3.258130e-004,2.088404e-004
-1.140029e-003,2.067336e-004
-2.061533e-003,2.039785e-004
-2.769921e-003,2.015475e-004
-2.994544e-003,2.036544e-004
-2.670899e-003,2.161334e-004
-1.963159e-003,2.359054e-004
-1.210852e-003,2.568118e-004
-8.003402e-004,2.676702e-004
-9.220513e-004,2.613496e-004
-1.416026e-003,2.389846e-004
-1.928315e-003,2.101370e-004
-2.136245e-003,1.855030e-004
-1.931232e-003,1.675138e-004
-1.527689e-003,1.542244e-004
-1.349417e-003,1.454729e-004
-1.726219e-003,1.443384e-004
-2.610935e-003,1.576278e-004
-3.580737e-003,1.840444e-004
-4.083304e-003,2.221298e-004
-3.714765e-003,2.654013e-004
-2.440766e-003,2.999212e-004
-6.050515e-004,3.111037e-004
1.227908e-003,2.947351e-004
2.549879e-003,2.602152e-004
3.209003e-003,2.239125e-004
3.283716e-003,1.979821e-004
3.003341e-003,1.858272e-004
2.623781e-003,1.798307e-004
2.310832e-003,1.707551e-004
2.091881e-003,1.532520e-004
1.896429e-003,1.266733e-004
1.623834e-003,8.988449e-005
1.211053e-003,4.418206e-005
6.507927e-004,-7.678839e-006
1.630683e-005,-5.921561e-005
-5.478425e-004,-1.054042e-004
-9.257787e-004,-1.421931e-004
-1.098540e-003,-1.681235e-004
-1.101620e-003,-1.806025e-004
-9.598124e-004,-1.783336e-004
-7.050458e-004,-1.605064e-004
-4.081422e-004,-1.311726e-004
-1.639098e-004,-9.956988e-005
-4.300908e-005,-7.574627e-005
-5.953974e-005,-6.974985e-005
-1.705545e-004,-8.352541e-005
-2.836761e-004,-1.109144e-004
-2.742763e-004,-1.433275e-004
-4.722278e-005,-1.731475e-004
4.182289e-004,-1.945401e-004
1.067787e-003,-2.070192e-004
1.813938e-003,-2.152845e-004
2.594934e-003,-2.250084e-004
3.344653e-003,-2.392702e-004
3.957914e-003,-2.587180e-004
4.294042e-003,-2.780038e-004
4.237480e-003,-2.917793e-004
3.794712e-003,-2.963172e-004
3.125701e-003,-2.909690e-004
2.466253e-003,-2.793003e-004
2.033537e-003,-2.627696e-004
1.942780e-003,-2.421874e-004
2.114894e-003,-2.175534e-004
2.274691e-003,-1.916230e-004
2.087991e-003,-1.690959e-004
1.320123e-003,-1.554824e-004
1.720949e-006,-1.485136e-004
-1.484742e-003,-1.400862e-004
-2.741236e-003,-1.232314e-004
-3.659015e-003,-9.600444e-005
-4.299825e-003,-5.921561e-005
-4.768845e-003,-1.497178e-005
-4.968350e-003,3.267542e-005
-4.968350e-003,7.465034e-005
-4.968512e-003,1.036600e-004
-4.695916e-003,1.205148e-004
-3.600023e-003,1.339663e-004
-2.182272e-003,1.526038e-004
-7.209282e-004,1.808031e-004
5.373470e-004,2.201850e-004
1.468900e-003,2.705873e-004
2.098525e-003,3.329825e-004
2.473384e-003,3.991052e-004
2.626050e-003,4.561522e-004
2.598985e-003,4.969927e-004
2.445508e-003,5.219508e-004
2.221696e-003,5.339436e-004
1.973086e-003,5.363746e-004
1.735174e-003,5.298919e-004
1.555767e-003,5.162785e-004
1.491265e-003,4.953720e-004
1.570191e-003,4.692795e-004
1.776662e-003,4.368664e-004
2.074053e-003,3.991052e-004
2.395268e-003,3.615060e-004
2.586506e-003,3.313618e-004
2.417957e-003,3.101313e-004
1.704705e-003,2.968419e-004
4.608521e-004,2.911697e-004
-1.045059e-003,2.879283e-004
-2.364919e-003,2.769079e-004
-3.146238e-003,2.576221e-004
-3.222247e-003,2.289366e-004
-2.667172e-003,1.872858e-004
-1.738374e-003,1.208390e-004
-7.415105e-004,2.473423e-005
5.471631e-005,-8.952183e-005
4.940755e-004,-1.953505e-004
5.854804e-004,-2.660110e-004
4.444835e-004,-2.817312e-004
2.359054e-004,-2.412149e-004
1.305629e-004,-1.561307e-004
2.384984e-004,-5.613637e-005
5.457744e-004,3.073064e-005
9.227386e-004,8.210535e-005
1.205867e-003,8.891209e-005
1.279445e-003,5.504044e-005
1.130831e-003,-3.627206e-006
8.183684e-004,-6.910160e-005
4.206599e-004,-1.264727e-004
2.603075e-005,-1.647201e-004
-2.611490e-004,-1.767130e-004
-3.658432e-004,-1.639098e-004
-2.909690e-004,-1.298761e-004
-1.297140e-004,-8.919769e-005
-3.814712e-005,-5.386745e-005
-1.721751e-004,-3.150244e-005
-6.107238e-004,-2.501983e-005
-1.300636e-003,-3.360929e-005
-2.050188e-003,-5.370539e-005
-2.608180e-003,-8.417367e-005
-2.794879e-003,-1.253383e-004
-2.595053e-003,-1.708786e-004
-2.134786e-003,-2.130156e-004
-1.600133e-003,-2.493182e-004
-1.151860e-003,-2.791382e-004
-8.620871e-004,-3.013411e-004
-7.086112e-004,-3.214373e-004
-6.253097e-004,-3.481781e-004
-5.572423e-004,-3.896668e-004
-4.945230e-004,-4.343968e-004
-4.637306e-004,-4.582204e-004
-4.856094e-004,-4.369898e-004
-5.528665e-004,-3.690845e-004
-6.204477e-004,-2.710350e-004
-6.400577e-004,-1.686097e-004
-5.830107e-004,-8.093236e-005
-4.476861e-004,-1.788895e-005
-2.784900e-004,1.792748e-005
-1.613168e-004,3.283749e-005
-1.969711e-004,3.640293e-005
-4.198109e-004,3.526847e-005
-7.090974e-004,3.478228e-005
-8.445840e-004,3.818565e-005
-6.562641e-004,4.677511e-005
-1.298761e-004,6.071273e-005
6.023352e-004,7.935024e-005
1.364043e-003,1.005808e-004
2.008255e-003,1.216493e-004
2.439836e-003,1.410971e-004
2.639664e-003,1.594105e-004
2.633829e-003,1.739964e-004
2.459771e-003,1.838824e-004
2.147145e-003,1.874478e-004
1.732256e-003,1.827479e-004
1.271017e-003,1.780480e-004
8.323060e-004,1.825859e-004
4.642555e-004,2.005751e-004
9.620504e-005,2.252090e-004
-4.416897e-004,2.490327e-004
-1.258985e-003,2.683184e-004
-2.272056e-003,2.780424e-004
-3.215278e-003,2.775562e-004
-3.762737e-003,2.689667e-004
-3.746692e-003,2.564877e-004
-3.253688e-003,2.436845e-004
-2.541085e-003,2.308813e-004
-1.854899e-003,2.209954e-004
-1.299988e-003,2.158093e-004
-8.259465e-004,2.159713e-004
-3.261372e-004,2.167816e-004
2.514636e-004,2.140265e-004
8.561297e-004,2.028440e-004
1.387056e-003,1.829100e-004
1.771476e-003,1.553589e-004
1.992858e-003,1.237561e-004
2.067895e-003,9.426025e-005
2.030620e-003,7.400208e-005
1.924953e-003,6.136099e-005
1.785252e-003,5.293359e-005
1.636151e-003,4.904402e-005
1.499044e-003,4.807163e-005
1.377171e-003,4.774750e-005
1.254163e-003,4.239934e-005
1.110735e-003,2.473423e-005
9.686031e-004,-3.141010e-006
8.867600e-004,-3.879538e-005
9.102596e-004,-7.801519e-005
1.027271e-003,-1.188556e-004
1.141203e-003,-1.611547e-004
1.105386e-003,-2.015090e-004
8.138306e-004,-2.347323e-004
2.879283e-004,-2.583939e-004
-3.149546e-004,-2.789762e-004
-7.851060e-004,-3.029619e-004
-9.844464e-004,-3.326198e-004
-8.919071e-004,-3.632501e-004
-5.710179e-004,-3.865875e-004
-1.164247e-004,-3.971218e-004
3.947294e-004,-3.890185e-004
9.089631e-004,-3.629260e-004
1.396132e-003,-3.271096e-004
1.843271e-003,-2.870794e-004
2.241792e-003,-2.451045e-004
2.566410e-003,-2.019951e-004
2.807403e-003,-1.627754e-004
2.992158e-003,-1.272830e-004
3.141584e-003,-9.227693e-005
3.235258e-003,-6.002594e-005
3.232341e-003,-3.830919e-005
3.105443e-003,-3.458168e-005
2.840302e-003,-4.657452e-005
2.404506e-003,-6.342931e-005
1.764507e-003,-7.720486e-005
9.066941e-004,-8.320128e-005
-8.320128e-005,-8.093236e-005
-9.893083e-004,-7.380149e-005
-1.659124e-003,-6.067420e-005
-2.111449e-003,-3.847125e-005
-2.441090e-003,-2.654814e-006
-2.720815e-003,4.418206e-005
-3.089677e-003,9.393612e-005
-3.696776e-003,1.414213e-004
-4.529635e-003,1.837203e-004
-4.968350e-003,2.245608e-004
-4.968350e-003,2.650771e-004
-4.968350e-003,3.059176e-004
-4.968188e-003,3.435168e-004
-4.968350e-003,3.733368e-004
-4.855713e-003,3.955397e-004
-3.438767e-003,4.119083e-004
-2.190537e-003,4.180668e-004
-1.305174e-003,4.068843e-004
-8.060125e-004,3.790091e-004
-5.768522e-004,3.388169e-004
-4.296969e-004,2.936006e-004
-2.100984e-004,2.537325e-004
1.269974e-004,2.269918e-004
5.344298e-004,2.102990e-004
9.434830e-004,1.934442e-004
1.304727e-003,1.665414e-004
1.589801e-003,1.367214e-004
1.790600e-003,1.224596e-004
1.910367e-003,1.359110e-004
1.954611e-003,1.790204e-004
1.950883e-003,2.417397e-004
1.955583e-003,3.102934e-004
2.043909e-003,3.743092e-004
2.267884e-003,4.251977e-004
2.542586e-003,4.584211e-004
2.624268e-003,4.791655e-004
2.241792e-003,4.885653e-004
1.266318e-003,4.822447e-004
-1.572651e-004,4.540453e-004
-1.580685e-003,3.999155e-004
-2.545460e-003,3.224483e-004
-2.845606e-003,2.276400e-004
-2.556967e-003,1.247285e-004
-1.935770e-003,2.992031e-005
-1.249909e-003,-4.317115e-005
-6.424887e-004,-8.854943e-005
-1.047560e-004,-1.099421e-004
4.287631e-004,-1.196660e-004
9.788133e-004,-1.195039e-004
1.497747e-003,-1.104282e-004
1.908098e-003,-9.519411e-005
2.159786e-003,-7.947377e-005
2.259943e-003,-6.958779e-005
2.259781e-003,-7.396356e-005
2.197872e-003,-9.568031e-005
2.082319e-003,-1.319829e-004
1.923008e-003,-1.763888e-004
1.752839e-003,-2.245222e-004
1.607790e-003,-2.703867e-004
1.497585e-003,-3.113892e-004
1.348161e-003,-3.485022e-004
9.851338e-004,-3.841565e-004
2.597290e-004,-4.183523e-004
-7.886715e-004,-4.502792e-004
-1.946142e-003,-4.721580e-004
-2.957755e-003,-4.781544e-004
-3.584626e-003,-4.669719e-004
-3.705041e-003,-4.410415e-004
-3.357572e-003,-4.084663e-004
-2.666685e-003,-3.768636e-004
-1.766250e-003,-3.517435e-004
-7.872129e-004,-3.334301e-004
1.380179e-004,-3.191683e-004
8.799533e-004,-3.027998e-004
1.384625e-003,-2.791382e-004
1.683637e-003,-2.468872e-004
1.846837e-003,-2.045882e-004
1.914743e-003,-1.519170e-004
1.890433e-003,-1.005423e-004
1.784604e-003,-6.245691e-005
1.646848e-003,-4.171256e-005
1.537453e-003,-3.312309e-005
1.491265e-003,-2.842320e-005
1.520274e-003,-2.372331e-005
1.616217e-003,-1.610624e-005
1.758835e-003,-4.437533e-006
1.930139e-003,1.419998e-005
2.104684e-003,4.191315e-005
2.241468e-003,8.226741e-005
2.293977e-003,1.318594e-004
2.229312e-003,1.827479e-004
2.019437e-003,2.260194e-004
1.648468e-003,2.540567e-004
1.117541e-003,2.652392e-004
4.626348e-004,2.610255e-004
-2.392702e-004,2.474120e-004
-8.813728e-004,2.336365e-004
-1.372917e-003,2.248849e-004
-1.650373e-003,2.211574e-004
-1.676141e-003,2.205092e-004
-1.470156e-003,2.232643e-004
-1.112316e-003,2.326641e-004
-7.045596e-004,2.529222e-004
-3.332680e-004,2.833905e-004
-4.641245e-005,3.205035e-004
1.453108e-004,3.593992e-004
2.381743e-004,3.929467e-004
2.425500e-004,4.179048e-004
1.902029e-004,4.331389e-004
1.184080e-004,4.396215e-004
5.293359e-005,4.360561e-004
2.531276e-006,4.211461e-004
-4.965376e-005,3.911640e-004
-1.381414e-004,3.461098e-004
-3.230579e-004,2.887387e-004
-6.382749e-004,2.284504e-004
-1.031445e-003,1.739964e-004
-1.391717e-003,1.291043e-004
-1.653776e-003,9.458438e-005
-1.870133e-003,6.654708e-005
-2.139810e-003,4.077869e-005
-2.502027e-003,1.387585e-005
-2.871212e-003,-9.947754e-006
-3.070229e-003,-2.842320e-005
-2.955649e-003,-4.057810e-005
-2.524230e-003,-4.576419e-005
-1.933177e-003,-4.900550e-005
-1.398361e-003,-5.321920e-005
-1.062886e-003,-5.953974e-005
-9.280476e-004,-6.731888e-005
-8.804005e-004,-7.898758e-005
-7.865646e-004,-9.454585e-005
-5.799314e-004,-1.092938e-004
-2.827037e-004,-1.193418e-004
4.158902e-005,-1.276072e-004
3.349273e-004,-1.376552e-004
5.663567e-004,-1.540238e-004
7.201568e-004,-1.781716e-004
7.809313e-004,-2.060468e-004
7.632662e-004,-2.327876e-004
7.349047e-004,-2.572594e-004
7.934103e-004,-2.780038e-004
9.984232e-004,-2.966413e-004
1.348809e-003,-3.081479e-004
1.784280e-003,-3.047445e-004
2.222992e-003,-2.752487e-004
2.590396e-003,-2.214430e-004
2.826202e-003,-1.618029e-004
2.898646e-003,-1.152902e-004
2.814371e-003,-8.984595e-005
2.615192e-003,-8.336335e-005
2.362693e-003,-8.579432e-005
2.150224e-003,-9.341139e-005
2.111653e-003,-1.031353e-004
2.304187e-003,-1.135075e-004
2.596230e-003,-1.211246e-004
2.682287e-003,-1.246900e-004
2.220075e-003,-1.259865e-004
1.018033e-003,-1.264727e-004
-8.240017e-004,-1.225832e-004
-2.771056e-003,-1.110765e-004
-4.210202e-003,-8.854943e-005
-4.747777e-003,-5.727083e-005
-4.406140e-003,-2.339918e-005
-3.553672e-003,8.041497e-006
-2.705257e-003,3.348575e-005
-2.291017e-003,5.358185e-005
-2.457945e-003,6.995045e-005
-3.056778e-003,8.356394e-005
-3.779592e-003,9.539470e-005
-4.262063e-003,1.047945e-004
-4.202909e-003,1.111150e-004
-3.538437e-003,1.161391e-004
-2.486144e-003,1.200286e-004
-1.401278e-003,1.255389e-004
-5.927345e-004,1.329939e-004
-1.801163e-004,1.433661e-004
-5.386745e-005,1.574657e-004
-2.168618e-006,1.744826e-004
1.355869e-004,1.908512e-004
3.979707e-004,2.046267e-004
7.405770e-004,2.195368e-004
1.099714e-003,2.389846e-004
1.418173e-003,2.668598e-004
1.650089e-003,3.021901e-004
1.779580e-003,3.384927e-004
1.825606e-003,3.691231e-004
1.835006e-003,3.874365e-004
1.853968e-003,3.892192e-004
1.911501e-003,3.785229e-004
1.999341e-003,3.618301e-004
2.074377e-003,3.474063e-004
2.089288e-003,3.310377e-004
2.020734e-003,3.067279e-004
1.882491e-003,2.760976e-004
1.722857e-003,2.490327e-004
1.594500e-003,2.303951e-004
1.518330e-003,2.177540e-004
1.471493e-003,2.031682e-004
1.409097e-003,1.822617e-004
1.308293e-003,1.595726e-004
1.182854e-003,1.428799e-004
1.068273e-003,1.393144e-004
9.904819e-004,1.560072e-004
9.519104e-004,1.906891e-004
9.485070e-004,2.302331e-004
9.728169e-004,2.560015e-004
9.995577e-004,2.525981e-004
9.935612e-004,2.172679e-004
9.183628e-004,1.581140e-004
7.674799e-004,8.793970e-005
5.640878e-004,2.019640e-005
3.362238e-004,-4.252288e-005
9.474644e-005,-1.021629e-004
-1.562927e-004,-1.567789e-004
-3.771877e-004,-2.050744e-004
-4.891749e-004,-2.483458e-004
-4.405553e-004,-2.867553e-004
-2.523975e-004,-3.162512e-004
-3.166451e-005,-3.355370e-004
5.617490e-005,-3.457471e-004
-1.374932e-004,-3.489884e-004
-6.638812e-004,-3.465574e-004
-1.424130e-003,-3.407231e-004
-2.168982e-003,-3.322956e-004
-2.594566e-003,-3.204649e-004
-2.503323e-003,-3.027998e-004
-1.909353e-003,-2.835140e-004
-1.023666e-003,-2.697385e-004
-1.425172e-004,-2.652006e-004
4.524247e-004,-2.718453e-004
5.679773e-004,-2.888622e-004
1.629760e-004,-3.123616e-004
-6.026206e-004,-3.371576e-004
-1.383775e-003,-3.561192e-004
-1.830589e-003,-3.638984e-004
-1.748260e-003,-3.593606e-004
-1.174711e-003,-3.450988e-004
-3.248407e-004,-3.269475e-004
5.611706e-004,-3.063652e-004
1.318179e-003,-2.820554e-004
1.883626e-003,-2.559629e-004
2.227854e-003,-2.293842e-004
2.337735e-003,-2.018331e-004
2.222506e-003,-1.752544e-004
1.948452e-003,-1.468929e-004
1.664675e-003,-1.114006e-004
1.535833e-003,-6.294311e-005
1.663703e-003,-1.844488e-006
2.071298e-003,6.589881e-005
2.589910e-003,1.284560e-004
2.821988e-003,1.804790e-004
2.381492e-003,2.252090e-004
1.149630e-003,2.697770e-004
-6.593434e-004,3.235827e-004
-2.519044e-003,3.880847e-004
-3.974395e-003,4.519385e-004
-4.786997e-003,4.976409e-004
-4.941284e-003,5.115786e-004
-4.580362e-003,4.963444e-004
-3.895793e-003,4.665244e-004
-3.076874e-003,4.397836e-004
-2.283887e-003,4.216323e-004
-1.619418e-003,4.085050e-004
-1.119771e-003,3.995914e-004
-7.562584e-004,3.910019e-004
-4.744269e-004,3.825745e-004
-2.308428e-004,3.794953e-004
-2.177852e-005,3.858158e-004
1.190562e-004,3.995914e-004
1.443384e-004,4.156358e-004
1.873781e-005,4.316803e-004
-2.519113e-004,4.467524e-004
-6.102377e-004,4.532350e-004
-9.705087e-004,4.402698e-004
-1.258013e-003,4.039671e-004
-1.413433e-003,3.449753e-004
-1.393499e-003,2.722080e-004
-1.177628e-003,1.984683e-004
-7.659824e-004,1.368834e-004
-2.015090e-004,9.004655e-005
4.211461e-004,5.552663e-005
9.964785e-004,2.700314e-005
1.461445e-003,4.638125e-006
1.798217e-003,-7.354709e-006
2.011820e-003,-7.354709e-006
2.110194e-003,3.665733e-006
2.100794e-003,1.582063e-005
2.002744e-003,1.841368e-005
1.855102e-003,4.962256e-006
1.696602e-003,-2.599222e-005
1.549770e-003,-7.104638e-005
1.421576e-003,-1.233935e-004
1.294841e-003,-1.759026e-004
1.099714e-003,-2.238740e-004
7.439804e-004,-2.596904e-004
1.945787e-004,-2.799486e-004
-4.749131e-004,-2.883759e-004
-1.063858e-003,-2.922655e-004
-1.369027e-003,-3.003688e-004
-1.297719e-003,-3.186821e-004
-9.183238e-004,-3.485022e-004
-3.950149e-004,-3.880461e-004
1.004187e-004,-4.319658e-004
4.624728e-004,-4.702132e-004
6.770474e-004,-4.898231e-004
7.942207e-004,-4.843129e-004
8.796292e-004,-4.531963e-004
9.856200e-004,-4.021458e-004
1.122079e-003,-3.365093e-004
1.262914e-003,-2.624455e-004
1.377171e-003,-1.911368e-004
1.447183e-003,-1.342519e-004
1.461769e-003,-9.908367e-005
1.413959e-003,-7.882551e-005
1.318179e-003,-6.229485e-005
1.205543e-003,-4.349527e-005
1.093231e-003,-2.647842e-005
9.588792e-004,-2.177852e-005
7.621317e-004,-3.279896e-005
4.914824e-004,-5.402952e-005
1.867996e-004,-7.493595e-005
-8.514606e-005,-8.790117e-005
-2.710350e-004,-8.352541e-005
-3.595226e-004,-6.504996e-005
-3.914495e-004,-4.365734e-005
-4.194868e-004,-2.809907e-005
-4.789647e-004,-1.724069e-005
-5.706937e-004,-5.896120e-006
-6.455678e-004,1.176900e-005
-6.428128e-004,3.721326e-005
-5.700454e-004,6.751948e-005
-5.222362e-004,9.831188e-005
-6.076446e-004,1.263492e-004
-8.630594e-004,1.446626e-004
-1.237268e-003,1.516314e-004
-1.640811e-003,1.535762e-004
-1.962511e-003,1.639484e-004
-2.074984e-003,1.889064e-004
-1.912108e-003,2.292607e-004
-1.552972e-003,2.770700e-004
-1.183463e-003,3.185587e-004
-9.912532e-004,3.401134e-004
-1.069044e-003,3.368721e-004
-1.381020e-003,3.148312e-004
-1.821352e-003,2.879283e-004
-2.257146e-003,2.683184e-004
-2.552429e-003,2.642668e-004
-2.590677e-003,2.728562e-004
-2.327806e-003,2.856594e-004
-1.822000e-003,2.924662e-004
-1.186542e-003,2.887387e-004
-5.441150e-004,2.783665e-004
8.527692e-006,2.692908e-004
4.214702e-004,2.655633e-004
7.076777e-004,2.671840e-004
9.186870e-004,2.660495e-004
1.110086e-003,2.551911e-004
1.324823e-003,2.305572e-004
1.577646e-003,1.961994e-004
1.830792e-003,1.602208e-004
2.014575e-003,1.287802e-004
2.065626e-003,1.020394e-004
1.980865e-003,8.048470e-005
1.821555e-003,6.670914e-005
1.680395e-003,6.233338e-005
1.593366e-003,6.573675e-005
1.495802e-003,7.254349e-005
1.289817e-003,7.432621e-005
9.313281e-004,6.249545e-005
4.752759e-004,3.137890e-005
7.124698e-005,-1.335113e-005
-9.778715e-005,-6.229485e-005
6.606088e-005,-1.016767e-004
4.921307e-004,-1.214487e-004
9.489932e-004,-1.191798e-004
1.152548e-003,-1.016767e-004
9.238730e-004,-8.044617e-005
3.099692e-004,-6.650855e-005
-4.139766e-004,-6.456377e-005
-9.071412e-004,-7.412562e-005
-1.003570e-003,-9.179074e-005
-7.857543e-004,-1.180453e-004
-4.925782e-004,-1.540238e-004
-3.180339e-004,-2.015090e-004
-3.217614e-004,-2.577456e-004
-4.826922e-004,-3.175477e-004
-7.233592e-004,-3.718396e-004
-9.413370e-004,-4.063595e-004
-1.062562e-003,-4.139766e-004
-1.029825e-003,-4.034423e-004
-7.710064e-004,-3.903150e-004
-2.306807e-004,-3.843186e-004
5.637637e-004,-3.843186e-004
1.475382e-003,-3.820497e-004
2.332711e-003,-3.687603e-004
2.993941e-003,-3.392644e-004
3.397487e-003,-2.916173e-004
3.566846e-003,-2.306807e-004
3.582891e-003,-1.653684e-004
3.535568e-003,-1.013526e-004
3.519361e-003,-3.150244e-005
3.590995e-003,5.309566e-005
3.696338e-003,1.504969e-004
3.679483e-003,2.501671e-004
3.365722e-003,3.355756e-004
2.686501e-003,3.924605e-004
1.746518e-003,4.117463e-004
7.524078e-004,3.916502e-004
-1.575893e-004,3.418961e-004
-1.016697e-003,2.759355e-004
-1.946952e-003,2.073819e-004
-2.991789e-003,1.490383e-004
-4.007943e-003,1.145184e-004
-4.704343e-003,1.112771e-004
-4.874999e-003,1.389903e-004
-4.534821e-003,1.906891e-004
-3.891255e-003,2.585945e-004
-3.191454e-003,3.300653e-004
-2.591811e-003,3.934329e-004
-2.147752e-003,4.410801e-004
-1.862192e-003,4.696036e-004
-1.698020e-003,4.802999e-004
-1.572744e-003,4.744656e-004
-1.408733e-003,4.511282e-004
-1.181194e-003,4.132049e-004
-9.283718e-004,3.657197e-004
-7.293556e-004,3.124002e-004
-6.629088e-004,2.597290e-004
-7.458862e-004,2.141886e-004
-9.155686e-004,1.837203e-004
-1.064020e-003,1.686482e-004
-1.092058e-003,1.658931e-004
-9.452265e-004,1.655690e-004
-6.403818e-004,1.634622e-004
-2.569353e-004,1.529279e-004
1.081979e-004,1.312112e-004
3.848434e-004,9.896015e-005
5.423710e-004,6.281957e-005
5.896941e-004,2.748934e-005
5.488536e-004,-3.141010e-006
4.443214e-004,-2.907146e-005
3.120761e-004,-5.240886e-005
1.848548e-004,-7.477388e-005
6.460230e-005,-9.422172e-005
-4.122636e-005,-1.091317e-004
-9.649064e-005,-1.191798e-004
-5.905355e-005,-1.242038e-004
9.231547e-005,-1.237176e-004
3.396272e-004,-1.182074e-004
6.242140e-004,-1.117248e-004
8.712018e-004,-1.099421e-004
1.045584e-003,-1.177212e-004
1.183178e-003,-1.306864e-004
1.360316e-003,-1.434896e-004
1.632910e-003,-1.522411e-004
1.973734e-003,-1.536997e-004
2.274205e-003,-1.477033e-004
2.404992e-003,-1.366828e-004
2.279877e-003,-1.256624e-004
1.872768e-003,-1.164247e-004
1.204895e-003,-1.089697e-004
3.465960e-004,-1.083214e-004
-5.648594e-004,-1.198280e-004
-1.347311e-003,-1.436516e-004
-1.852144e-003,-1.737958e-004
-1.995896e-003,-2.013469e-004
-1.783915e-003,-2.209568e-004
-1.297395e-003,-2.350565e-004
-6.749016e-004,-2.460769e-004
-9.373552e-005,-2.543422e-004
2.670219e-004,-2.608248e-004
2.869559e-004,-2.653627e-004
-1.675450e-005,-2.656868e-004
-4.742648e-004,-2.585559e-004
-8.496080e-004,-2.413770e-004
-9.630537e-004,-2.162569e-004
-7.648479e-004,-1.864369e-004
-3.311612e-004,-1.571031e-004
1.932822e-004,-1.284175e-004
6.541961e-004,-1.047560e-004
9.522345e-004,-9.130454e-005
1.060818e-003,-8.790117e-005
9.995577e-004,-8.530812e-005
8.152892e-004,-7.671866e-005
5.597120e-004,-5.808115e-005
2.770700e-004,-3.296103e-005
5.610517e-006,-5.896120e-006
-2.217671e-004,2.165498e-005
-3.773498e-004,4.920609e-005
-4.413656e-004,7.853991e-005
-4.133283e-004,1.133840e-004
-3.170615e-004,1.608691e-004
-1.809267e-004,2.218057e-004
-1.967167e-005,2.869559e-004
1.683241e-004,3.425444e-004
3.816021e-004,3.799815e-004
5.981215e-004,3.921364e-004
7.733142e-004,3.806297e-004
8.925945e-004,3.556717e-004
1.013657e-003,3.255275e-004
1.218022e-003,2.963557e-004
1.517519e-003,2.728562e-004
1.847161e-003,2.611876e-004
2.114246e-003,2.658874e-004
2.227206e-003,2.842008e-004
2.123970e-003,3.151553e-004
1.809076e-003,3.535648e-004
1.360802e-003,3.895433e-004
8.865980e-004,4.132049e-004
4.806241e-004,4.208219e-004
2.140265e-004,4.115842e-004
1.365593e-004,3.851676e-004
2.274780e-004,3.438409e-004
3.722023e-004,2.919800e-004
4.339493e-004,2.373639e-004
3.153174e-004,1.851789e-004
1.160693e-005,1.381800e-004
-3.567675e-004,9.588091e-005
-6.353577e-004,5.779555e-005
-7.413484e-004,2.230325e-005
-6.526987e-004,-1.221667e-005
-4.112214e-004,-4.608832e-005
-1.588858e-004,-8.109443e-005
-5.176061e-005,-1.167488e-004
-1.326312e-004,-1.511067e-004
-3.598467e-004,-1.788198e-004
-7.402140e-004,-2.031296e-004
-1.326890e-003,-2.280877e-004
-2.085842e-003,-2.517492e-004
-2.898926e-003,-2.679557e-004
-3.641674e-003,-2.744383e-004
-4.238888e-003,-2.671454e-004
-4.691377e-003,-2.462390e-004
-4.968350e-003,-2.110708e-004
-4.968188e-003,-1.671511e-004
-4.968188e-003,-1.251762e-004
-4.968512e-003,-9.794922e-005
-4.854741e-003,-8.887356e-005
-3.717845e-003,-9.195280e-005
-2.119876e-003,-1.003802e-004
-2.752487e-004,-1.118868e-004
1.504068e-003,-1.272830e-004
2.942080e-003,-1.494860e-004
3.944301e-003,-1.794681e-004
4.508295e-003,-2.079916e-004
4.707314e-003,-2.266291e-004
4.629360e-003,-2.347323e-004
4.338286e-003,-2.348944e-004
3.870074e-003,-2.335979e-004
3.260703e-003,-2.353806e-004
2.596554e-003,-2.441321e-004
2.014899e-003,-2.587180e-004
1.636314e-003,-2.726556e-004
1.511685e-003,-2.796244e-004
1.548798e-003,-2.757348e-004
1.452855e-003,-2.634179e-004
8.611537e-004,-2.507768e-004
-4.002010e-004,-2.395943e-004
-2.156017e-003,-2.276015e-004
-3.974881e-003,-2.159328e-004
-4.968350e-003,-1.990780e-004
-4.968512e-003,-1.733096e-004
-4.968350e-003,-1.323071e-004
-3.627412e-003,-8.174268e-005
-1.808549e-003,-2.826114e-005
-9.697683e-005,2.149292e-005
1.161299e-003,6.589881e-005
1.871309e-003,1.026876e-004
2.135962e-003,1.329939e-004
2.118946e-003,1.571416e-004
1.985079e-003,1.772377e-004
1.850727e-003,1.911753e-004
1.763211e-003,2.086784e-004
1.705353e-003,2.406053e-004
1.630479e-003,2.887387e-004
1.504230e-003,3.438409e-004
1.331468e-003,3.931088e-004
1.149144e-003,4.214702e-004
9.974508e-004,4.221185e-004
8.935668e-004,3.944053e-004
8.316578e-004,3.467581e-004
7.942207e-004,2.955454e-004
7.686144e-004,2.608634e-004
7.477079e-004,2.610255e-004
7.365254e-004,3.042970e-004
7.452769e-004,3.851676e-004
7.755831e-004,4.858102e-004
8.081583e-004,5.819149e-004
8.216097e-004,6.546823e-004
8.138306e-004,6.945504e-004
7.900069e-004,6.995744e-004
7.692626e-004,6.741302e-004
8.250132e-004,6.245382e-004
1.025002e-003,5.574431e-004
1.343461e-003,4.775448e-004
1.662568e-003,3.916502e-004
1.830630e-003,3.077003e-004
1.747815e-003,2.329882e-004
1.404397e-003,1.756171e-004
8.694191e-004,1.355869e-004
2.446569e-004,1.065772e-004
-3.875599e-004,7.870197e-005
-9.773155e-004,4.888196e-005
-1.486849e-003,1.954813e-005
-1.828321e-003,-3.627206e-006
-1.880668e-003,-1.788895e-005
-1.566423e-003,-2.566809e-005
-9.309648e-004,-3.069211e-005
-1.603444e-004,-3.717473e-005
4.752759e-004,-4.770897e-005
7.848209e-004,-6.650855e-005
7.883863e-004,-9.146661e-005
6.603546e-004,-1.180453e-004
5.934216e-004,-1.383035e-004
6.799645e-004,-1.530514e-004
8.820602e-004,-1.643960e-004
1.077187e-003,-1.773612e-004
1.140555e-003,-1.990780e-004
1.005068e-003,-2.337599e-004
6.885540e-004,-2.786520e-004
2.785285e-004,-3.261372e-004
-1.251762e-004,-3.656811e-004
-4.839888e-004,-3.899909e-004
-8.416669e-004,-3.946908e-004
-1.242616e-003,-3.807532e-004
-1.648104e-003,-3.546606e-004
-1.948411e-003,-3.246786e-004
-2.044354e-003,-2.964792e-004
-1.889419e-003,-2.780038e-004
-1.502893e-003,-2.713591e-004
-9.701846e-004,-2.729798e-004
-4.585445e-004,-2.780038e-004
-1.699062e-004,-2.828657e-004
-2.178775e-004,-2.904828e-004
-5.755557e-004,-3.024756e-004
-1.122364e-003,-3.173856e-004
-1.703044e-003,-3.321336e-004
-2.190051e-003,-3.439643e-004
-2.512885e-003,-3.509331e-004
-2.652586e-003,-3.520676e-004
-2.621145e-003,-3.454229e-004
-2.442063e-003,-3.290543e-004
-2.141593e-003,-3.021515e-004
-1.753771e-003,-2.603387e-004
-1.322191e-003,-2.018331e-004
-8.526873e-004,-1.232314e-004
-3.091203e-004,-2.826114e-005
3.146691e-004,7.124698e-005
9.248455e-004,1.660552e-004
1.372633e-003,2.444948e-004
1.542964e-003,3.004074e-004
1.416552e-003,3.324963e-004
1.060656e-003,3.472443e-004
6.024973e-004,3.540510e-004
1.872858e-004,3.662059e-004
-6.731888e-005,3.906778e-004
-1.426792e-004,4.216323e-004
-1.655305e-004,4.470765e-004
-3.619536e-004,4.563143e-004
-9.273994e-004,4.446456e-004
-1.909029e-003,4.128807e-004
-3.119173e-003,3.705817e-004
-4.207771e-003,3.273102e-004
-4.848096e-003,2.876042e-004
-4.859765e-003,2.524360e-004
-4.239212e-003,2.237505e-004
-3.135542e-003,2.012234e-004
-1.768518e-003,1.842065e-004
-3.501228e-004,1.739964e-004
9.410520e-004,1.676758e-004
1.986862e-003,1.658931e-004
2.773855e-003,1.683241e-004
3.324881e-003,1.707551e-004
3.681590e-003,1.684862e-004
3.897463e-003,1.629760e-004
4.017555e-003,1.517934e-004
4.062286e-003,1.365593e-004
4.039110e-003,1.213252e-004
3.945435e-003,1.083599e-004
3.755492e-003,1.023635e-004
3.440920e-003,1.017153e-004
3.020844e-003,1.026876e-004
2.567544e-003,1.062531e-004
2.187499e-003,1.128978e-004
1.984593e-003,1.235941e-004
1.994155e-003,1.357490e-004
2.127373e-003,1.451488e-004
2.232554e-003,1.467694e-004
2.183124e-003,1.352628e-004
1.938080e-003,1.077117e-004
1.541181e-003,6.460230e-005
1.092421e-003,1.209313e-005
7.024916e-004,-3.895745e-005
4.464283e-004,-8.498399e-005
3.315239e-004,-1.248521e-004
3.111037e-004,-1.520790e-004
3.211517e-004,-1.619650e-004
3.151553e-004,-1.546721e-004
2.563256e-004,-1.378173e-004
8.631905e-005,-1.238797e-004
-2.588801e-004,-1.217728e-004
-7.860785e-004,-1.318209e-004
-1.412137e-003,-1.532135e-004
-1.946142e-003,-1.836818e-004
-2.156665e-003,-2.183637e-004
-1.900764e-003,-2.523975e-004
-1.208421e-003,-2.840002e-004
-3.039342e-004,-3.104168e-004
4.662003e-004,-3.308371e-004
7.976240e-004,-3.442885e-004
5.491778e-004,-3.472056e-004
-2.373254e-004,-3.407231e-004
-1.340504e-003,-3.282440e-004
-2.462159e-003,-3.113892e-004
-3.310411e-003,-2.948586e-004
-3.715090e-003,-2.793003e-004
-3.672304e-003,-2.630937e-004
-3.305387e-003,-2.410529e-004
-2.777052e-003,-2.105846e-004
-2.224084e-003,-1.734716e-004
-1.726219e-003,-1.319829e-004
-1.298691e-003,-8.952183e-005
-9.027654e-004,-5.095028e-005
-4.844750e-004,-1.594417e-005
-2.485776e-005,1.387585e-005
4.376768e-004,4.385793e-005
8.387887e-004,7.821578e-005
1.140069e-003,1.154908e-004
1.352374e-003,1.477418e-004
1.519140e-003,1.624898e-004
1.669375e-003,1.582761e-004
1.800000e-003,1.454729e-004
1.893512e-003,1.378558e-004
1.946994e-003,1.396385e-004
1.984431e-003,1.474177e-004
2.045368e-003,1.547106e-004
2.153303e-003,1.589243e-004
2.276798e-003,1.573037e-004
2.342435e-003,1.492004e-004
2.281498e-003,1.325077e-004
2.044395e-003,1.146805e-004
1.610545e-003,1.000946e-004
9.780029e-004,9.037068e-005
1.271595e-004,9.312580e-005
-9.849326e-004,1.106288e-004
-2.341258e-003,1.496866e-004
-3.775864e-003,2.145127e-004
-4.968188e-003,3.013798e-004
-4.968188e-003,4.004017e-004
-4.968350e-003,4.968306e-004
-4.862358e-003,5.747841e-004
-3.695318e-003,6.217830e-004
-2.385664e-003,6.352345e-004
-1.202586e-003,6.196762e-004
-3.105789e-004,5.864528e-004
2.501671e-004,5.433434e-004
5.391297e-004,4.956961e-004
6.702406e-004,4.467524e-004
7.517595e-004,3.965121e-004
8.728224e-004,3.418961e-004
1.072325e-003,2.837146e-004
1.313641e-003,2.255332e-004
1.510388e-003,1.714034e-004
1.589801e-003,1.268354e-004
1.533564e-003,9.069481e-005
1.385274e-003,6.022653e-005
1.217536e-003,3.283749e-005
1.085939e-003,6.096713e-006
9.955061e-004,-2.356124e-005
9.177146e-004,-5.889148e-005
8.311716e-004,-1.005423e-004
7.345806e-004,-1.441378e-004
6.321552e-004,-1.867610e-004
5.180612e-004,-2.229016e-004
3.798194e-004,-2.494803e-004
2.297469e-004,-2.664971e-004
1.064152e-004,-2.784900e-004
4.320967e-005,-2.880518e-004
2.992031e-005,-2.977757e-004
1.338965e-005,-3.089583e-004
-5.419158e-005,-3.168994e-004
-1.574272e-004,-3.217614e-004
-2.335979e-004,-3.230579e-004
-2.303566e-004,-3.190063e-004
-1.384655e-004,-3.102548e-004
1.720949e-006,-2.968033e-004
1.367214e-004,-2.833519e-004
2.344468e-004,-2.768693e-004
2.979764e-004,-2.809209e-004
3.404375e-004,-2.880518e-004
3.715541e-004,-2.896725e-004
3.982949e-004,-2.794623e-004
4.423766e-004,-2.617972e-004
5.592257e-004,-2.379736e-004
8.044308e-004,-2.071812e-004
1.179126e-003,-1.699062e-004
1.632262e-003,-1.326312e-004
2.103063e-003,-1.008664e-004
2.538859e-003,-7.704279e-005
2.878712e-003,-6.229485e-005
3.077891e-003,-5.646050e-005
3.129266e-003,-5.889148e-005
3.039644e-003,-6.553616e-005
2.783579e-003,-6.991193e-005
2.325904e-003,-7.056019e-005
1.677802e-003,-6.148453e-005
8.938910e-004,-4.317115e-005
8.032264e-005,-1.999580e-005
-6.139652e-004,4.151929e-006
-1.120095e-003,2.927205e-005
-1.467239e-003,5.293359e-005
-1.720547e-003,7.384002e-005
-1.999462e-003,9.247754e-005
-2.477231e-003,1.060910e-004
-3.225326e-003,1.125736e-004
-4.108586e-003,1.143563e-004
-4.877268e-003,1.193804e-004
-4.968350e-003,1.339663e-004
-4.968512e-003,1.605450e-004
-4.726060e-003,1.973338e-004
-3.966454e-003,2.373639e-004
-3.189023e-003,2.707494e-004
-2.577711e-003,2.872801e-004
-2.158610e-003,2.880904e-004
-1.808873e-003,2.822560e-004
-1.378265e-003,2.807975e-004
-7.883473e-004,2.905214e-004
-6.504996e-005,3.080245e-004
6.674855e-004,3.250413e-004
1.264697e-003,3.354135e-004
1.662568e-003,3.337929e-004
1.854292e-003,3.248792e-004
1.853320e-003,3.130485e-004
1.669051e-003,2.937627e-004
1.312993e-003,2.649151e-004
8.361956e-004,2.287745e-004
3.579406e-004,1.927960e-004
5.309566e-005,1.600588e-004
7.351589e-005,1.357490e-004
4.673347e-004,1.203528e-004
1.119486e-003,1.154908e-004
1.738577e-003,1.222976e-004
1.950883e-003,1.329939e-004
1.484134e-003,1.393144e-004
3.328204e-004,1.325077e-004
-1.131440e-003,1.117633e-004
-2.307062e-003,8.032264e-005
-2.768301e-003,4.385793e-005
-2.423425e-003,8.851824e-006
-1.519586e-003,-2.113026e-005
-4.622720e-004,-4.511593e-005
3.781987e-004,-6.537409e-005
8.253373e-004,-8.482193e-005
9.415382e-004,-1.045939e-004
8.982667e-004,-1.240417e-004
8.540229e-004,-1.460826e-004
8.948633e-004,-1.712027e-004
1.035536e-003,-1.912988e-004
1.238766e-003,-2.016710e-004
1.443779e-003,-2.000504e-004
1.583804e-003,-1.849783e-004
1.594014e-003,-1.566169e-004
1.427573e-003,-1.165867e-004
1.069894e-003,-7.363943e-005
5.551741e-004,-3.587821e-005
-2.615429e-005,-8.813297e-006
-5.510838e-004,1.883015e-006
-9.217271e-004,-6.706447e-006
-1.109723e-003,-3.036798e-005
-1.144405e-003,-6.229485e-005
-1.072772e-003,-9.146661e-005
-9.410129e-004,-1.114006e-004
-7.914266e-004,-1.259865e-004
-6.327647e-004,-1.386276e-004
-4.515757e-004,-1.507825e-004
-2.358668e-004,-1.603444e-004
-2.238346e-007,-1.702304e-004
2.415777e-004,-1.755785e-004
4.940755e-004,-1.726613e-004
7.830382e-004,-1.626133e-004
1.128724e-003,-1.533756e-004
1.522381e-003,-1.502963e-004
1.928842e-003,-1.515928e-004
2.310022e-003,-1.535376e-004
2.636747e-003,-1.554824e-004
2.883736e-003,-1.606685e-004
3.009175e-003,-1.721751e-004
2.965093e-003,-1.883817e-004
2.743873e-003,-2.006986e-004
2.385868e-003,-2.045882e-004
1.947480e-003,-1.972953e-004
1.474248e-003,-1.793060e-004
1.007013e-003,-1.489998e-004
6.065489e-004,-1.086455e-004
3.501615e-004,-6.974985e-005
2.726942e-004,-4.657452e-005
3.096451e-004,-3.895745e-005
3.098072e-004,-3.409549e-005
1.542244e-004,-1.416145e-005
-1.185315e-004,3.640293e-005
-2.938862e-004,1.308870e-004
-1.556445e-004,2.694529e-004
3.370341e-004,4.287631e-004
1.028892e-003,5.712186e-004
1.675209e-003,6.661890e-004
2.052499e-003,7.076777e-004
2.018789e-003,7.130259e-004
1.509902e-003,7.060571e-004
5.720290e-004,7.109190e-004
-5.982448e-004,7.428459e-004
-1.692348e-003,8.041067e-004
-2.430880e-003,8.806016e-004
-2.643186e-003,9.517483e-004
-2.349037e-003,9.921027e-004
-1.775811e-003,9.818925e-004
-1.301284e-003,9.062079e-004
-1.327052e-003,7.656972e-004
-2.065260e-003,5.734875e-004
-3.358544e-003,3.644232e-004
-4.774842e-003,1.777239e-004
-4.968188e-003,3.834771e-005
-4.968188e-003,-4.868137e-005
-4.968350e-003,-9.033215e-005
-4.647133e-003,-1.031353e-004
-3.251905e-003,-1.039456e-004
-1.928801e-003,-1.047560e-004
-9.226995e-004,-1.165867e-004
-2.972895e-004,-1.464067e-004
3.640293e-005,-1.922712e-004
2.206712e-004,-2.442942e-004
3.618301e-004,-2.938862e-004
5.086614e-004,-3.366714e-004
6.666752e-004,-3.762153e-004
8.336026e-004,-4.211074e-004
1.010092e-003,-4.753993e-004
1.196629e-003,-5.311498e-004
1.365340e-003,-5.779866e-004
1.471169e-003,-6.133168e-004
1.502447e-003,-6.403818e-004
1.506823e-003,-6.632329e-004
1.553660e-003,-6.792775e-004
1.679423e-003,-6.849497e-004
1.862395e-003,-6.747396e-004
2.048771e-003,-6.390853e-004
2.187337e-003,-5.684248e-004
2.250219e-003,-4.658375e-004
2.230285e-003,-3.446126e-004
2.135962e-003,-2.238740e-004
1.992372e-003,-1.201522e-004
1.828686e-003,-4.803310e-005
1.648144e-003,-5.409925e-006
1.439242e-003,1.517237e-005
1.217698e-003,1.873781e-005
1.020464e-003,5.286387e-006
8.776844e-004,-2.031993e-005
7.788245e-004,-5.127441e-005
6.469032e-004,-8.109443e-005
3.916502e-004,-1.050801e-004
-1.950961e-005,-1.208004e-004
-5.437909e-004,-1.300382e-004
-1.092544e-003,-1.316588e-004
-1.548920e-003,-1.224211e-004
-1.793963e-003,-1.010285e-004
-1.760253e-003,-7.428769e-005
-1.472263e-003,-4.851930e-005
-1.033390e-003,-2.971972e-005
-5.797693e-004,-1.448558e-005
-2.235498e-004,5.286387e-006
7.069105e-006,3.948217e-005
1.895547e-004,8.858796e-005
4.200116e-004,1.470936e-004
7.392805e-004,2.062474e-004
1.157085e-003,2.658874e-004
1.645875e-003,3.292550e-004
2.111815e-003,3.992672e-004
2.409854e-003,4.764104e-004
2.393972e-003,5.532294e-004
1.981514e-003,6.141660e-004
1.230339e-003,6.441481e-004
3.613439e-004,6.386379e-004
-3.381300e-004,6.026593e-004
-6.779809e-004,5.433434e-004
-6.509160e-004,4.692795e-004
-3.830221e-004,3.900295e-004
-1.272830e-004,3.159656e-004
-1.984297e-004,2.545429e-004
-8.230293e-004,2.151610e-004
-2.000110e-003,1.973338e-004
-3.464049e-003,1.919856e-004
-4.748425e-003,1.905271e-004
-4.968350e-003,1.829100e-004
-4.968188e-003,1.626518e-004
-4.450871e-003,1.325077e-004
-3.300525e-003,1.009049e-004
-2.169793e-003,7.367795e-005
-1.291884e-003,5.179914e-005
-7.335693e-004,3.445814e-005
-4.345588e-004,2.457216e-005
-2.812451e-004,1.841368e-005
-1.721751e-004,8.203562e-006
-4.268495e-005,-1.010982e-005
1.629760e-004,-3.490581e-005
4.903480e-004,-6.099833e-005
9.373245e-004,-8.368748e-005
1.438755e-003,-9.778715e-005
1.878926e-003,-1.024871e-004
2.134342e-003,-1.021629e-004
2.096094e-003,-1.055663e-004
1.726422e-003,-1.183694e-004
1.124996e-003,-1.412206e-004
5.033132e-004,-1.689338e-004
7.578480e-005,-1.904885e-004
-6.958779e-005,-1.987538e-004
5.864920e-007,-1.927574e-004
1.470936e-004,-1.799543e-004
2.431983e-004,-1.686097e-004
2.363916e-004,-1.661787e-004
1.423936e-004,-1.765509e-004
2.035846e-005,-1.961608e-004
-5.176061e-005,-2.169052e-004
2.214118e-005,-2.306807e-004
2.885766e-004,-2.384598e-004
7.065432e-004,-2.429977e-004
1.157410e-003,-2.446183e-004
1.487537e-003,-2.418632e-004
1.579428e-003,-2.316531e-004
1.408935e-003,-2.110708e-004
1.066815e-003,-1.844921e-004
7.248566e-004,-1.603444e-004
5.313505e-004,-1.408965e-004
5.303781e-004,-1.232314e-004
6.600305e-004,-1.037836e-004
8.131823e-004,-8.368748e-005
9.136630e-004,-6.569822e-005
9.666584e-004,-5.500191e-005
1.043802e-003,-5.257093e-005
1.203436e-003,-5.532604e-005
1.397591e-003,-5.824322e-005
1.458041e-003,-5.629844e-005
1.221749e-003,-3.928157e-005
6.289139e-004,-3.789272e-006
-2.344082e-004,4.320967e-005
-1.150887e-003,8.810177e-005
-1.884071e-003,1.195424e-004
-2.280969e-003,1.367214e-004
-2.298310e-003,1.467694e-004
-2.001407e-003,1.534141e-004
-1.543896e-003,1.576278e-004
-1.093678e-003,1.628139e-004
-7.703581e-004,1.715654e-004
-6.141272e-004,1.866375e-004
-5.656697e-004,2.083542e-004
-4.998712e-004,2.334744e-004
-2.982619e-004,2.589186e-004
8.307774e-005,2.791768e-004
5.507984e-004,2.940868e-004
9.086389e-004,3.062417e-004
9.750858e-004,3.193690e-004
6.525755e-004,3.323342e-004
-4.057810e-005,3.407616e-004
-9.376095e-004,3.394651e-004
-1.783104e-003,3.342791e-004
-2.310951e-003,3.286068e-004
-2.320838e-003,3.227724e-004
-1.772084e-003,3.156415e-004
-7.873750e-004,3.051073e-004
3.803056e-004,2.897111e-004
1.395484e-003,2.715597e-004
2.011658e-003,2.511395e-004
2.126563e-003,2.302331e-004
1.777635e-003,2.112714e-004
1.156923e-003,1.963614e-004
5.584154e-004,1.863134e-004
2.342847e-004,1.835583e-004
2.632944e-004,1.884202e-004
5.381573e-004,1.973338e-004
8.762258e-004,2.021958e-004
1.135369e-003,1.963614e-004
1.247842e-003,1.778860e-004
1.198412e-003,1.501728e-004
1.008147e-003,1.174356e-004
7.157810e-004,8.372601e-005
3.694472e-004,5.552663e-005
1.776542e-005,3.737532e-005
-2.626076e-004,3.024445e-005
-3.814014e-004,2.878586e-005
-3.087962e-004,2.732727e-005
-9.762509e-005,2.003433e-005
1.555210e-004,5.934648e-006
3.441650e-004,-1.416145e-005
3.877606e-004,-3.701266e-005
2.532463e-004,-6.456377e-005
-4.349527e-005,-9.940781e-005
-4.475241e-004,-1.389517e-004
-8.661387e-004,-1.794681e-004
-1.174387e-003,-2.170672e-004
-1.267412e-003,-2.444563e-004
-1.126416e-003,-2.603387e-004
-8.363187e-004,-2.718453e-004
-5.292050e-004,-2.867553e-004
-3.063652e-004,-3.063652e-004
-1.864369e-004,-3.282440e-004
-1.071869e-004,-3.493125e-004
1.257933e-005,-3.682741e-004
2.101370e-004,-3.862634e-004
4.674968e-004,-4.050630e-004
7.334462e-004,-4.233763e-004
9.423485e-004,-4.363416e-004
1.045260e-003,-4.387725e-004
1.037157e-003,-4.280762e-004
9.512621e-004,-4.061974e-004
8.305234e-004,-3.779981e-004
7.054088e-004,-3.475298e-004
6.227554e-004,-3.096065e-004
6.434998e-004,-2.538560e-004
7.972999e-004,-1.734716e-004
1.012037e-003,-7.315322e-005
1.097607e-003,3.040651e-005
8.517539e-004,1.146805e-004
2.122438e-004,1.624898e-004
-6.496195e-004,1.715654e-004
-1.364328e-003,1.548727e-004
-1.598350e-003,1.286181e-004
-1.252178e-003,1.031738e-004
-5.149432e-004,8.161915e-005
2.590807e-004,6.784360e-005
7.379840e-004,6.670914e-005
7.846588e-004,8.356394e-005
4.381629e-004,1.182459e-004
-1.767130e-004,1.642725e-004
-9.356647e-004,2.130541e-004
-1.763981e-003,2.572980e-004
-2.598294e-003,2.910076e-004
-3.331479e-003,3.106175e-004
-3.790450e-003,3.136967e-004
-3.791261e-003,3.021901e-004
-3.268274e-003,2.817699e-004
-2.377884e-003,2.577842e-004
-1.467077e-003,2.313675e-004
-9.076274e-004,2.031682e-004
-9.014689e-004,1.735102e-004
-1.347635e-003,1.443384e-004
-1.855061e-003,1.192183e-004
-1.976286e-003,1.039842e-004
-1.467401e-003,1.077117e-004
-3.935563e-004,1.320215e-004
9.321384e-004,1.718896e-004
2.117001e-003,2.175920e-004
2.919552e-003,2.576221e-004
3.266213e-003,2.856594e-004
3.223103e-003,2.965178e-004
2.941755e-003,2.944109e-004
2.610978e-003,2.890628e-004
2.402723e-003,2.848491e-004
2.402723e-003,2.819319e-004
2.598175e-003,2.803113e-004
2.869150e-003,2.728562e-004
3.006420e-003,2.529222e-004
2.790710e-003,2.229401e-004
2.089449e-003,1.887444e-004
9.256558e-004,1.564933e-004
-4.653512e-004,1.294284e-004
-1.644538e-003,1.047945e-004
-2.281131e-003,7.902610e-005
-2.288911e-003,4.920609e-005
-1.827348e-003,1.938607e-005
-1.179735e-003,-5.734056e-006
-5.966241e-004,-2.599222e-005
-2.245222e-004,-4.576419e-005
-8.028410e-005,-7.072225e-005
-7.493595e-005,-9.956988e-005
-7.509801e-005,-1.292278e-004
