1.376938e-004,3.508097e-004
2.602152e-004,4.269804e-004
1.744826e-004,4.945617e-004
-8.222889e-005,5.350781e-004
-4.023079e-004,5.237334e-004
-6.627468e-004,4.551798e-004
-7.606342e-004,3.405996e-004
-6.360059e-004,2.004130e-004
-2.984240e-004,5.423012e-005
1.845306e-004,-8.482193e-005
7.042743e-004,-2.118811e-004
1.145255e-003,-3.209511e-004
1.446048e-003,-4.070078e-004
1.609248e-003,-4.659995e-004
1.666296e-003,-4.951713e-004
1.658516e-003,-4.980884e-004
1.616055e-003,-4.826922e-004
1.527405e-003,-4.574101e-004
1.343785e-003,-4.319658e-004
1.022895e-003,-4.155972e-004
5.418848e-004,-4.138145e-004
-8.206682e-005,-4.311555e-004
-7.923990e-004,-4.676201e-004
-1.525583e-003,-5.191569e-004
-2.225381e-003,-5.776625e-004
-2.827617e-003,-6.350336e-004
-3.246071e-003,-6.888393e-004
-3.355465e-003,-7.387554e-004
-3.019340e-003,-7.846198e-004
-2.209499e-003,-8.262706e-004
-1.049921e-003,-8.765109e-004
2.373639e-004,-9.617572e-004
1.389325e-003,-1.105671e-003
2.204354e-003,-1.310846e-003
2.608871e-003,-1.561075e-003
2.648253e-003,-1.829779e-003
2.435785e-003,-2.082277e-003
2.051526e-003,-2.289235e-003
1.521247e-003,-2.436390e-003
9.133389e-004,-2.508347e-003
4.115842e-004,-2.496030e-003
2.174299e-004,-2.414349e-003
3.517821e-004,-2.287938e-003
6.148142e-004,-2.111611e-003
7.243705e-004,-1.840475e-003
4.940755e-004,-1.416026e-003
-5.613637e-005,-8.110365e-004
-7.212523e-004,-5.402952e-005
-1.224951e-003,7.797969e-004
-1.329321e-003,1.592556e-003
-9.382577e-004,2.308239e-003
-1.553203e-004,2.874660e-003
7.609973e-004,3.272047e-003
1.544098e-003,3.518388e-003
2.070326e-003,3.661818e-003
2.336276e-003,3.744958e-003
2.414554e-003,3.759706e-003
2.408395e-003,3.635725e-003
2.406775e-003,3.291819e-003
2.435136e-003,2.711135e-003
2.455232e-003,1.962552e-003
2.402723e-003,1.174588e-003
2.240657e-003,4.775448e-004
1.976490e-003,-4.819517e-005
1.645389e-003,-3.886944e-004
1.295813e-003,-5.791211e-004
9.942095e-004,-6.642053e-004
8.024860e-004,-6.778188e-004
7.191843e-004,-6.355198e-004
6.541961e-004,-5.395772e-004
4.696036e-004,-3.909633e-004
2.522042e-005,-1.979435e-004
-7.116905e-004,2.133085e-005
-1.541303e-003,2.378501e-004
-2.131707e-003,4.196875e-004
-2.241263e-003,5.384815e-004
-1.858627e-003,5.728393e-004
-1.175359e-003,5.190336e-004
-4.488206e-004,3.864641e-004
1.297526e-004,1.927960e-004
4.815964e-004,-4.203669e-005
6.193521e-004,-2.972895e-004
5.919630e-004,-5.450874e-004
4.587452e-004,-7.486413e-004
2.948972e-004,-8.640318e-004
1.814514e-004,-8.616009e-004
1.829100e-004,-7.397278e-004
3.250413e-004,-5.189948e-004
5.770530e-004,-2.381357e-004
8.587227e-004,6.362991e-005
1.059036e-003,3.564820e-004
1.063087e-003,6.204865e-004
7.942207e-004,8.400852e-004
2.848491e-004,1.000530e-003
-2.582318e-004,1.089666e-003
-5.577285e-004,1.096149e-003
-4.794509e-004,1.017709e-003
-8.044617e-005,8.768741e-004
4.882411e-004,7.058950e-004
1.082049e-003,5.264886e-004
1.626914e-003,3.342791e-004
2.112139e-003,1.081979e-004
2.563006e-003,-1.569410e-004
3.005448e-003,-4.408794e-004
3.404942e-003,-6.982391e-004
3.605256e-003,-8.885037e-004
3.376904e-003,-9.836360e-004
2.564141e-003,-9.805568e-004
1.258863e-003,-8.919071e-004
-2.117191e-004,-7.381071e-004
-1.441957e-003,-5.277464e-004
-2.249205e-003,-2.609869e-004
-2.721302e-003,5.017848e-005
-3.115121e-003,3.658818e-004
-3.636001e-003,6.248623e-004
-4.246019e-003,7.697488e-004
-4.724277e-003,7.752590e-004
-4.888775e-003,6.422033e-004
-4.695267e-003,3.816021e-004
-4.193023e-003,8.527692e-006
-3.532279e-003,-4.663236e-004
-2.947869e-003,-1.016373e-003
-2.645131e-003,-1.608074e-003
-2.710767e-003,-2.197668e-003
-3.069257e-003,-2.725677e-003
-3.502783e-003,-3.123711e-003
-3.734051e-003,-3.344445e-003
-3.567123e-003,-3.362110e-003
-2.986117e-003,-3.178975e-003
-2.158772e-003,-2.812707e-003
-1.344231e-003,-2.286318e-003
-7.787855e-004,-1.629952e-003
-6.009999e-004,-8.765109e-004
-8.095779e-004,-5.321920e-005
-1.331914e-003,8.018378e-004
-2.072877e-003,1.622214e-003
-2.831992e-003,2.327848e-003
-3.286587e-003,2.841437e-003
-3.211551e-003,3.117922e-003
-2.620983e-003,3.174483e-003
-1.720871e-003,3.076433e-003
-7.580412e-004,2.907722e-003
1.034980e-004,2.740307e-003
8.370060e-004,2.620216e-003
1.483972e-003,2.545828e-003
2.056874e-003,2.477760e-003
2.498018e-003,2.371769e-003
2.708542e-003,2.204516e-003
2.612113e-003,1.982648e-003
2.248598e-003,1.726908e-003
1.815072e-003,1.459176e-003
1.573756e-003,1.192416e-003
1.694819e-003,9.282488e-004
2.136287e-003,6.614891e-004
2.653115e-003,3.965121e-004
2.932518e-003,1.492004e-004
2.750679e-003,-6.051213e-005
2.086533e-003,-2.207947e-004
1.159354e-003,-3.301888e-004
3.250413e-004,-3.989045e-004
-1.125351e-004,-4.392588e-004
-5.597430e-005,-4.643789e-004
3.833848e-004,-4.867439e-004
1.004420e-003,-5.217500e-004
1.636962e-003,-5.760419e-004
2.159786e-003,-6.580469e-004
2.477274e-003,-7.786234e-004
2.516980e-003,-9.528436e-004
2.235795e-003,-1.195293e-003
1.739225e-003,-1.503380e-003
1.334385e-003,-1.853279e-003
1.338923e-003,-2.197182e-003
1.855913e-003,-2.476258e-003
2.735769e-003,-2.639296e-003
3.692935e-003,-2.650479e-003
4.454813e-003,-2.500244e-003
4.801151e-003,-2.207716e-003
4.577173e-003,-1.811628e-003
3.730210e-003,-1.361897e-003
2.352321e-003,-9.147583e-004
7.070294e-004,-5.269361e-004
-7.688995e-004,-2.363530e-004
-1.649562e-003,-6.294311e-005
-1.814059e-003,-2.339918e-005
-1.474046e-003,-1.259865e-004
-1.052514e-003,-3.384541e-004
-8.917450e-004,-5.715040e-004
-1.024963e-003,-6.990494e-004
-1.230299e-003,-6.259579e-004
-1.231434e-003,-3.413713e-004
-8.710006e-004,8.891209e-005
-2.112329e-004,5.702463e-004
4.896998e-004,1.039912e-003
9.397555e-004,1.473113e-003
9.613102e-004,1.870499e-003
5.279472e-004,2.261564e-003
-2.527216e-004,2.676129e-003
-1.179249e-003,3.103822e-003
-1.982283e-003,3.450158e-003
-2.425046e-003,3.576246e-003
-2.422939e-003,3.384845e-003
-2.055050e-003,2.894756e-003
-1.467239e-003,2.229150e-003
-7.933713e-004,1.547988e-003
-1.305243e-004,9.720065e-004
4.501558e-004,5.396159e-004
8.901635e-004,2.196988e-004
1.134234e-003,-4.284701e-005
1.161461e-003,-2.898345e-004
1.011226e-003,-5.240189e-004
7.783383e-004,-7.262764e-004
5.780254e-004,-8.768350e-004
5.059062e-004,-9.706708e-004
6.151384e-004,-1.017508e-003
8.912979e-004,-1.030797e-003
1.221263e-003,-1.020425e-003
1.447183e-003,-9.978978e-004
1.450910e-003,-9.773155e-004
1.213808e-003,-9.602986e-004
8.402473e-004,-9.429576e-004
4.673347e-004,-9.181616e-004
1.584381e-004,-8.797522e-004
-8.822530e-005,-8.324291e-004
-2.895104e-004,-7.812165e-004
-4.788027e-004,-7.278970e-004
-7.241695e-004,-6.692294e-004
-1.102592e-003,-6.047274e-004
-1.666579e-003,-5.418460e-004
-2.406732e-003,-4.961436e-004
-3.152721e-003,-4.766958e-004
-3.642970e-003,-4.860956e-004
-3.718817e-003,-5.180225e-004
-3.387230e-003,-5.625904e-004
-2.698612e-003,-6.110480e-004
-1.662366e-003,-6.625847e-004
-3.358611e-004,-7.196317e-004
1.040398e-003,-7.844578e-004
2.109060e-003,-8.588458e-004
2.600282e-003,-9.291821e-004
2.366906e-003,-9.638641e-004
1.469548e-003,-9.330717e-004
2.080301e-004,-8.274051e-004
-9.637020e-004,-6.554538e-004
-1.705151e-003,-4.387725e-004
-1.935770e-003,-1.969711e-004
-1.779053e-003,5.293359e-005
-1.435150e-003,2.961937e-004
-1.053486e-003,5.203301e-004
-7.403760e-004,7.302048e-004
-6.079687e-004,9.256558e-004
-8.006644e-004,1.078970e-003
-1.430612e-003,1.149630e-003
-2.455352e-003,1.105386e-003
-3.606505e-003,9.467243e-004
-4.441147e-003,6.981159e-004
-4.522828e-003,3.999155e-004
-3.710876e-003,9.101894e-005
-2.272380e-003,-1.947022e-004
-7.254661e-004,-4.288866e-004
3.475684e-004,-5.852795e-004
6.005525e-004,-6.471885e-004
1.013911e-004,-6.202856e-004
-7.975851e-004,-5.444391e-004
-1.683110e-003,-4.682684e-004
-2.270759e-003,-4.154351e-004
-2.413701e-003,-3.771877e-004
-2.098484e-003,-3.214373e-004
-1.436609e-003,-2.185258e-004
-6.120203e-004,-5.176061e-005
1.804790e-004,1.783722e-004
7.935724e-004,4.472386e-004
1.159840e-003,7.067053e-004
1.281714e-003,8.948633e-004
1.205381e-003,9.593654e-004
1.011388e-003,8.919462e-004
7.924379e-004,7.308531e-004
6.250244e-004,5.240576e-004
5.772150e-004,3.085106e-004
6.621373e-004,1.135460e-004
8.120479e-004,-3.490581e-005
9.431589e-004,-1.165867e-004
1.041209e-003,-1.055663e-004
1.166809e-003,2.635488e-005
1.402291e-003,2.921420e-004
1.801134e-003,6.584098e-004
2.342273e-003,1.038940e-003
2.933328e-003,1.341840e-003
3.481113e-003,1.523354e-003
3.962128e-003,1.612976e-003
4.383989e-003,1.675209e-003
4.725466e-003,1.752515e-003
4.959330e-003,1.836627e-003
4.959330e-003,1.866933e-003
4.959330e-003,1.777149e-003
4.959330e-003,1.549284e-003
4.959330e-003,1.227422e-003
4.959168e-003,8.908117e-004
4.959168e-003,6.125454e-004
4.959168e-003,4.318424e-004
4.959005e-003,3.393030e-004
4.959168e-003,2.837146e-004
4.223218e-003,2.073819e-004
3.194903e-003,8.583286e-005
2.022841e-003,-7.769106e-005
7.041123e-004,-2.632558e-004
-7.287074e-004,-4.527101e-004
-2.144186e-003,-6.403818e-004
-3.402626e-003,-8.212466e-004
-4.392689e-003,-9.842842e-004
-4.968512e-003,-1.107778e-003
-4.968674e-003,-1.179411e-003
-4.968512e-003,-1.201452e-003
-4.703857e-003,-1.186704e-003
-4.346014e-003,-1.145863e-003
-4.142782e-003,-1.088492e-003
-4.129169e-003,-1.025125e-003
-4.267249e-003,-9.541402e-004
-4.439688e-003,-8.650042e-004
-4.447629e-003,-7.528550e-004
-4.139703e-003,-6.266062e-004
-3.494518e-003,-5.081365e-004
-2.579170e-003,-4.198109e-004
-1.492521e-003,-3.768636e-004
-3.342404e-004,-3.771877e-004
7.639144e-004,-4.040906e-004
1.565815e-003,-4.376381e-004
1.862071e-003,-4.661616e-004
1.640527e-003,-4.875542e-004
1.119000e-003,-5.091089e-004
5.375090e-004,-5.298533e-004
-9.065628e-005,-5.356876e-004
-9.089239e-004,-5.089468e-004
-1.935446e-003,-4.371519e-004
-2.965048e-003,-3.154408e-004
-3.697586e-003,-1.400862e-004
-3.877480e-003,8.534666e-005
-3.355303e-003,3.386548e-004
-2.156179e-003,5.804563e-004
-5.249913e-004,7.731522e-004
1.120945e-003,8.812498e-004
2.362045e-003,8.807636e-004
2.959421e-003,7.806072e-004
2.772882e-003,6.010387e-004
1.779418e-003,3.647473e-004
1.858272e-004,1.002567e-004
-1.471290e-003,-1.650443e-004
-2.633300e-003,-4.198109e-004
-3.058560e-003,-6.583710e-004
-2.801848e-003,-8.650042e-004
-2.093622e-003,-1.029987e-003
-1.147646e-003,-1.156398e-003
-7.153257e-005,-1.261092e-003
1.058387e-003,-1.343097e-003
2.135314e-003,-1.367083e-003
3.055364e-003,-1.276974e-003
3.736207e-003,-1.024963e-003
4.147370e-003,-5.972724e-004
4.303280e-003,-2.599222e-005
4.225811e-003,6.162729e-004
3.922259e-003,1.246221e-003
3.387601e-003,1.799676e-003
2.643554e-003,2.255405e-003
1.744735e-003,2.634154e-003
7.731522e-004,2.949535e-003
-1.642339e-004,3.148715e-003
-9.358267e-004,3.117274e-003
-1.450060e-003,2.775313e-003
-1.683758e-003,2.151521e-003
-1.672252e-003,1.371984e-003
-1.515372e-003,6.034696e-004
-1.354766e-003,-1.043395e-005
-1.313115e-003,-4.006872e-004
-1.446008e-003,-5.856037e-004
-1.715361e-003,-6.306578e-004
-2.049216e-003,-6.034309e-004
-2.369295e-003,-5.559457e-004
-2.554212e-003,-5.185087e-004
-2.456486e-003,-5.032745e-004
-1.996382e-003,-5.126743e-004
-1.218793e-003,-5.433047e-004
-2.935620e-004,-5.872243e-004
5.253541e-004,-6.304958e-004
1.013495e-003,-6.638812e-004
1.047853e-003,-6.847876e-004
6.499824e-004,-6.972667e-004
3.462021e-005,-7.027769e-004
-4.645409e-004,-6.984011e-004
-5.570802e-004,-6.817085e-004
-1.091317e-004,-6.525366e-004
7.916276e-004,-6.120203e-004
1.852347e-003,-5.612939e-004
2.759269e-003,-5.035987e-004
3.260703e-003,-4.415277e-004
3.239634e-003,-3.830221e-004
2.778717e-003,-3.405610e-004
2.117973e-003,-3.254889e-004
1.552688e-003,-3.434782e-004
1.300513e-003,-3.964735e-004
1.372308e-003,-4.747511e-004
1.572784e-003,-5.612939e-004
1.608762e-003,-6.505919e-004
1.215591e-003,-7.586894e-004
3.010556e-004,-9.097343e-004
-9.737500e-004,-1.125281e-003
-2.277242e-003,-1.403385e-003
-3.349307e-003,-1.701261e-003
-4.037763e-003,-1.950842e-003
-4.259146e-003,-2.082439e-003
-4.012805e-003,-2.045813e-003
-3.402626e-003,-1.834155e-003
-2.570256e-003,-1.479880e-003
-1.625253e-003,-1.030959e-003
-6.210960e-004,-5.308256e-004
4.028327e-004,-2.015787e-005
1.383329e-003,4.645796e-004
2.271774e-003,8.893532e-004
3.024410e-003,1.218994e-003
3.590022e-003,1.431300e-003
3.940249e-003,1.506823e-003
4.075089e-003,1.433407e-003
4.015772e-003,1.240063e-003
3.774454e-003,9.911302e-004
3.342708e-003,7.695867e-004
2.739010e-003,6.483617e-004
2.058495e-003,6.660269e-004
1.450100e-003,8.157754e-004
1.060170e-003,1.069246e-003
9.486690e-004,1.406991e-003
9.549896e-004,1.814262e-003
7.037881e-004,2.275663e-003
-1.820611e-004,2.761052e-003
-1.755553e-003,3.218079e-003
-3.620767e-003,3.591481e-003
-4.968512e-003,3.830692e-003
-4.968674e-003,3.880122e-003
-4.968512e-003,3.705252e-003
-4.270005e-003,3.321315e-003
-3.042192e-003,2.794437e-003
-2.156017e-003,2.210999e-003
-1.777594e-003,1.640041e-003
-1.774677e-003,1.116407e-003
-1.886988e-003,6.423654e-004
-1.899305e-003,2.062474e-004
-1.727516e-003,-2.034537e-004
-1.390906e-003,-5.794452e-004
-9.296683e-004,-8.998482e-004
-4.031182e-004,-1.145863e-003
1.044704e-004,-1.315384e-003
5.180612e-004,-1.432395e-003
7.684522e-004,-1.531255e-003
8.504574e-004,-1.634166e-003
8.854635e-004,-1.740805e-003
1.003123e-003,-1.833345e-003
1.217050e-003,-1.896064e-003
1.455610e-003,-1.920212e-003
1.634207e-003,-1.908219e-003
1.664999e-003,-1.865596e-003
1.461283e-003,-1.796718e-003
9.864303e-004,-1.706934e-003
3.216380e-004,-1.596729e-003
-3.203028e-004,-1.469832e-003
-6.915944e-004,-1.333211e-003
-6.693914e-004,-1.184273e-003
-3.027998e-004,-1.005839e-003
2.608634e-004,-7.774890e-004
8.509436e-004,-5.053814e-004
1.358695e-003,-2.280877e-004
1.740522e-003,-1.358292e-006
1.945697e-003,1.125736e-004
1.886867e-003,7.659513e-005
1.500178e-003,-9.859748e-005
8.308475e-004,-3.826980e-004
1.046324e-004,-7.369727e-004
-3.869116e-004,-1.112802e-003
-4.873921e-004,-1.469346e-003
-2.250084e-004,-1.785697e-003
2.705873e-004,-2.059102e-003
8.559676e-004,-2.274811e-003
1.461607e-003,-2.380802e-003
2.065626e-003,-2.303172e-003
2.600282e-003,-1.988927e-003
2.941269e-003,-1.437095e-003
3.004313e-003,-6.959701e-004
2.831388e-003,1.492004e-004
2.504339e-003,9.893475e-004
2.005013e-003,1.740684e-003
1.227422e-003,2.374362e-003
9.118101e-005,2.895567e-003
-1.340180e-003,3.308026e-003
-2.810762e-003,3.575112e-003
-3.964185e-003,3.628432e-003
-4.501760e-003,3.410290e-003
-4.343421e-003,2.933004e-003
-3.627574e-003,2.279715e-003
-2.604452e-003,1.574080e-003
-1.502731e-003,9.212800e-004
-4.765338e-004,3.694472e-004
3.995914e-004,-7.963584e-005
1.087397e-003,-4.489826e-004
1.486241e-003,-7.551240e-004
1.393053e-003,-1.008594e-003
6.345862e-004,-1.209393e-003
-6.539953e-004,-1.323163e-003
-1.931232e-003,-1.302419e-003
-2.603966e-003,-1.123174e-003
-2.337692e-003,-8.108745e-004
-1.205179e-003,-4.162455e-004
3.812780e-004,9.106227e-007
1.867257e-003,3.937570e-004
2.902535e-003,7.315014e-004
3.403483e-003,1.004582e-003
3.445458e-003,1.228556e-003
3.162328e-003,1.434218e-003
2.678884e-003,1.624645e-003
2.067409e-003,1.755756e-003
1.363071e-003,1.753325e-003
5.819149e-004,1.556739e-003
-2.945344e-004,1.171509e-003
-1.306632e-003,6.655407e-004
-2.474314e-003,1.271595e-004
-3.732431e-003,-3.716775e-004
-4.844531e-003,-7.825130e-004
-4.968512e-003,-1.094975e-003
-4.968512e-003,-1.333049e-003
-4.968350e-003,-1.532551e-003
-4.105994e-003,-1.714227e-003
-2.983524e-003,-1.880344e-003
-1.883585e-003,-2.023771e-003
-9.875257e-004,-2.132355e-003
-3.835083e-004,-2.190699e-003
-2.826114e-005,-2.184054e-003
2.018716e-004,-2.101401e-003
4.255218e-004,-1.927829e-003
7.387943e-004,-1.649887e-003
1.165837e-003,-1.259957e-003
1.632748e-003,-7.701961e-004
2.004689e-003,-2.152845e-004
2.117811e-003,3.522683e-004
1.835330e-003,8.836808e-004
1.130507e-003,1.349457e-003
1.307250e-004,1.739549e-003
-8.711627e-004,2.048123e-003
-1.502407e-003,2.254919e-003
-1.482797e-003,2.328011e-003
-7.920748e-004,2.242440e-003
2.778803e-004,1.988807e-003
1.265021e-003,1.582346e-003
1.834034e-003,1.075404e-003
1.961093e-003,5.452881e-004
1.892053e-003,6.541262e-005
1.974545e-003,-3.253268e-004
2.400454e-003,-6.319543e-004
3.047747e-003,-8.862348e-004
3.601367e-003,-1.128522e-003
3.725024e-003,-1.388475e-003
3.159411e-003,-1.673872e-003
1.939701e-003,-1.959918e-003
5.083373e-004,-2.195075e-003
-5.058676e-004,-2.339313e-003
-7.338934e-004,-2.371888e-003
-2.637420e-004,-2.280159e-003
5.008822e-004,-2.051161e-003
1.069408e-003,-1.675817e-003
1.094204e-003,-1.165797e-003
5.120648e-004,-5.517320e-004
-4.096008e-004,1.163011e-004
-1.237592e-003,7.663454e-004
-1.653938e-003,1.342002e-003
-1.564640e-003,1.818151e-003
-1.065641e-003,2.200951e-003
-3.476919e-004,2.522004e-003
3.781987e-004,2.819882e-003
9.113940e-004,3.101067e-003
1.121107e-003,3.312402e-003
1.006040e-003,3.364749e-003
6.778577e-004,3.196686e-003
2.897111e-004,2.813075e-003
-8.489166e-006,2.280039e-003
-9.162867e-005,1.688985e-003
8.518459e-005,1.124672e-003
4.321665e-004,6.475514e-004
7.650489e-004,2.877662e-004
9.185249e-004,3.996837e-005
7.922759e-004,-1.180453e-004
3.611819e-004,-2.167431e-004
-2.671454e-004,-2.814071e-004
-8.750523e-004,-3.280820e-004
-1.226086e-003,-3.611433e-004
-1.194321e-003,-3.818876e-004
-8.385876e-004,-3.933943e-004
-3.656811e-004,-4.013355e-004
-4.430560e-005,-4.107352e-004
-9.130454e-005,-4.269418e-004
-4.914437e-004,-4.608134e-004
-9.821774e-004,-5.201293e-004
-1.286050e-003,-6.032689e-004
-1.278757e-003,-6.959701e-004
-1.005353e-003,-7.784614e-004
-6.376266e-004,-8.400462e-004
-3.826980e-004,-8.778074e-004
-3.614674e-004,-8.912588e-004
-5.455735e-004,-8.810487e-004
-7.849440e-004,-8.522011e-004
-8.949863e-004,-8.095779e-004
-7.400519e-004,-7.560964e-004
-2.956689e-004,-6.885151e-004
3.331446e-004,-6.039171e-004
9.755720e-004,-5.045711e-004
1.485268e-003,-3.932322e-004
1.773745e-003,-2.733039e-004
1.811345e-003,-1.511067e-004
1.632910e-003,-4.398147e-005
1.336330e-003,2.927205e-005
1.042991e-003,5.163707e-005
8.473782e-004,1.484824e-005
7.332841e-004,-6.877746e-005
5.995801e-004,-1.736337e-004
3.704196e-004,-2.749245e-004
6.420843e-006,-3.506090e-004
-4.805854e-004,-3.854531e-004
-9.818533e-004,-3.744326e-004
-1.373565e-003,-3.303509e-004
-1.601591e-003,-2.767073e-004
-1.734809e-003,-2.478596e-004
-1.979852e-003,-2.711970e-004
-2.523419e-003,-3.617915e-004
-3.253039e-003,-5.129984e-004
-3.729189e-003,-6.954839e-004
-3.521421e-003,-8.757006e-004
-2.527957e-003,-1.024801e-003
-1.010053e-003,-1.125605e-003
5.464226e-004,-1.171146e-003
1.638582e-003,-1.168228e-003
2.066760e-003,-1.132250e-003
1.930463e-003,-1.068396e-003
1.512009e-003,-9.714811e-004
1.057253e-003,-8.334015e-004
6.439860e-004,-6.538332e-004
2.290986e-004,-4.429862e-004
-2.601766e-004,-2.149604e-004
-8.917450e-004,2.376183e-005
-1.663662e-003,2.697770e-004
-2.426504e-003,4.978030e-004
-2.911567e-003,6.682958e-004
-2.907029e-003,7.679661e-004
-2.419536e-003,8.331164e-004
-1.705151e-003,9.339211e-004
-1.120419e-003,1.116731e-003
-9.139480e-004,1.378791e-003
-1.092544e-003,1.679585e-003
-1.424292e-003,1.971303e-003
-1.569502e-003,2.220237e-003
-1.268223e-003,2.419740e-003
-4.480103e-004,2.585372e-003
7.644006e-004,2.740307e-003
2.103063e-003,2.873364e-003
3.341088e-003,2.907722e-003
4.378641e-003,2.736580e-003
4.959168e-003,2.297704e-003
4.959330e-003,1.613300e-003
4.959005e-003,7.947069e-004
4.959168e-003,-4.923729e-006
4.959168e-003,-6.552918e-004
4.043486e-003,-1.099027e-003
2.256378e-003,-1.345366e-003
5.339436e-004,-1.434340e-003
-6.434610e-004,-1.418133e-003
-1.109237e-003,-1.346338e-003
-9.901187e-004,-1.258499e-003
-6.031067e-004,-1.174711e-003
-3.256510e-004,-1.081848e-003
-3.514194e-004,-9.423094e-004
-6.126686e-004,-7.322728e-004
-9.320992e-004,-4.611376e-004
-1.180221e-003,-1.616409e-004
-1.270005e-003,1.338042e-004
-1.135815e-003,4.089912e-004
-7.434553e-004,6.566271e-004
-1.060525e-004,8.755776e-004
7.185361e-004,1.071515e-003
1.656410e-003,1.239253e-003
2.638530e-003,1.351888e-003
3.577219e-003,1.371984e-003
4.327266e-003,1.278148e-003
4.673280e-003,1.079942e-003
4.335531e-003,8.099410e-004
3.105929e-003,5.029891e-004
1.010416e-003,1.855030e-004
-1.634004e-003,-1.172350e-004
-4.169199e-003,-3.805911e-004
-4.968674e-003,-5.856037e-004
-4.968350e-003,-7.227109e-004
-4.968512e-003,-7.964507e-004
-4.968350e-003,-8.252983e-004
-4.855227e-003,-8.283774e-004
-3.648967e-003,-8.189777e-004
-2.886447e-003,-8.047160e-004
-2.591487e-003,-7.906163e-004
-2.501379e-003,-7.737615e-004
-2.244505e-003,-7.471828e-004
-1.539844e-003,-7.089354e-004
-3.462333e-004,-6.711741e-004
1.093069e-003,-6.569124e-004
2.394458e-003,-6.839773e-004
3.301219e-003,-7.580412e-004
3.697634e-003,-8.776453e-004
3.596667e-003,-1.040197e-003
3.071085e-003,-1.242130e-003
2.245357e-003,-1.474046e-003
1.309913e-003,-1.714875e-003
4.781931e-004,-1.937391e-003
-9.940781e-005,-2.103346e-003
-3.802670e-004,-2.179192e-003
-4.065215e-004,-2.148076e-003
-2.731418e-004,-2.003189e-003
-1.034594e-004,-1.746802e-003
-6.058186e-006,-1.391717e-003
-7.516774e-006,-9.517092e-004
-5.921561e-005,-4.408794e-004
-6.099833e-005,1.310491e-004
9.442231e-005,7.460872e-004
4.224426e-004,1.366636e-003
8.395990e-004,1.948614e-003
1.234877e-003,2.449560e-003
1.476841e-003,2.825554e-003
1.392729e-003,3.021330e-003
8.515919e-004,2.975627e-003
-1.509446e-004,2.663488e-003
-1.420564e-003,2.123483e-003
-2.635731e-003,1.451559e-003
-3.469398e-003,7.794728e-004
-3.626926e-003,2.242366e-004
-2.972341e-003,-1.478653e-004
-1.679869e-003,-3.233821e-004
-2.449425e-004,-3.159271e-004
6.715371e-004,-1.530514e-004
5.971491e-004,1.214872e-004
-3.998769e-004,4.482110e-004
-1.657666e-003,7.645627e-004
-2.396198e-003,1.024678e-003
-2.227164e-003,1.220939e-003
-1.302743e-003,1.375226e-003
-1.058904e-004,1.514764e-003
8.830326e-004,1.624483e-003
1.394512e-003,1.644903e-003
1.412663e-003,1.515575e-003
1.105549e-003,1.220615e-003
7.374978e-004,7.968137e-004
5.355643e-004,3.159656e-004
5.856425e-004,-1.365208e-004
8.233925e-004,-4.898231e-004
1.109114e-003,-7.116905e-004
1.313479e-003,-8.134675e-004
1.365826e-003,-8.304843e-004
1.267776e-003,-8.034194e-004
1.083994e-003,-7.654962e-004
9.099355e-004,-7.342176e-004
8.358715e-004,-7.196317e-004
8.995633e-004,-7.170386e-004
1.074432e-003,-7.188214e-004
1.295489e-003,-7.175248e-004
1.495478e-003,-7.084492e-004
1.637610e-003,-6.912703e-004
1.713619e-003,-6.721465e-004
1.724153e-003,-6.577228e-004
1.668889e-003,-6.554538e-004
1.557550e-003,-6.698776e-004
1.414283e-003,-6.980770e-004
1.249787e-003,-7.306521e-004
1.022895e-003,-7.562584e-004
7.230740e-004,-7.650100e-004
4.506420e-004,-7.535033e-004
3.619922e-004,-7.222248e-004
5.294057e-004,-6.689052e-004
9.075044e-004,-5.993792e-004
1.372308e-003,-5.266119e-004
1.746194e-003,-4.708614e-004
1.867905e-003,-4.460655e-004
1.721884e-003,-4.514136e-004
1.481865e-003,-4.859335e-004
1.357074e-003,-5.528665e-004
1.433407e-003,-6.536711e-004
1.656248e-003,-7.800820e-004
1.896915e-003,-9.124894e-004
2.043261e-003,-1.020911e-003
2.040019e-003,-1.076824e-003
1.866933e-003,-1.059158e-003
1.496775e-003,-9.570573e-004
8.673123e-004,-7.723029e-004
-5.710876e-005,-5.141329e-004
-1.151374e-003,-2.058847e-004
-2.168010e-003,1.198666e-004
-2.951921e-003,4.274666e-004
-3.531307e-003,6.903367e-004
-4.033387e-003,9.003736e-004
-4.494629e-003,1.067301e-003
-4.855713e-003,1.210891e-003
-4.968512e-003,1.340868e-003
-4.968512e-003,1.461931e-003
-4.968512e-003,1.575377e-003
-4.587493e-003,1.670509e-003
-3.912810e-003,1.722532e-003
-3.074443e-003,1.705191e-003
-2.205609e-003,1.595797e-003
-1.409706e-003,1.393053e-003
-7.005080e-004,1.125645e-003
-8.813297e-006,8.387887e-004
7.164293e-004,5.824011e-004
1.414608e-003,3.940812e-004
1.967090e-003,2.832284e-004
2.313263e-003,2.331503e-004
2.489104e-003,2.141886e-004
2.535617e-003,1.994406e-004
2.409368e-003,1.762653e-004
2.009551e-003,1.352628e-004
1.273611e-003,7.254349e-005
2.038164e-004,-1.254080e-005
-1.050569e-003,-1.148040e-004
-2.132031e-003,-2.323013e-004
-2.676247e-003,-3.562813e-004
-2.516289e-003,-4.689167e-004
-1.815355e-003,-5.407116e-004
-9.857429e-004,-5.549733e-004
-4.193247e-004,-5.288809e-004
-1.893541e-004,-5.104054e-004
-6.764301e-005,-5.470322e-004
1.621656e-004,-6.496195e-004
4.846757e-004,-7.943438e-004
6.763991e-004,-9.431197e-004
4.684692e-004,-1.071475e-003
-2.462390e-004,-1.186380e-003
-1.294801e-003,-1.327052e-003
-2.341420e-003,-1.510510e-003
-3.059533e-003,-1.683758e-003
-3.223381e-003,-1.748909e-003
-2.779807e-003,-1.627522e-003
-1.886016e-003,-1.317004e-003
-8.332395e-004,-8.957966e-004
-2.048200e-005,-4.820440e-004
1.939304e-004,-1.585616e-004
-1.776853e-004,8.810177e-005
-7.578791e-004,3.555096e-004
-1.097892e-003,7.477079e-004
-9.262649e-004,1.300189e-003
-2.100984e-004,1.949101e-003
8.601813e-004,2.573379e-003
1.994155e-003,3.053906e-003
2.989403e-003,3.320667e-003
3.756627e-003,3.376256e-003
4.254822e-003,3.278530e-003
4.439740e-003,3.086319e-003
4.287883e-003,2.802865e-003
3.828909e-003,2.380844e-003
3.153577e-003,1.793193e-003
2.393648e-003,1.073784e-003
1.686392e-003,3.167760e-004
1.146227e-003,-3.627639e-004
8.186926e-004,-8.674352e-004
6.556547e-004,-1.158991e-003
5.613327e-004,-1.250558e-003
4.156358e-004,-1.188649e-003
1.150046e-004,-1.032904e-003
-3.109030e-004,-8.304843e-004
-7.000218e-004,-6.157478e-004
-9.110308e-004,-4.073319e-004
-8.948243e-004,-2.125294e-004
-6.760361e-004,-3.604027e-005
-3.331060e-004,1.222976e-004
3.413401e-005,2.603772e-004
3.535648e-004,3.623164e-004
6.200004e-004,4.004017e-004
8.815739e-004,3.449753e-004
1.158382e-003,1.939304e-004
1.380412e-003,-1.934754e-005
1.418659e-003,-2.371633e-004
1.173292e-003,-4.065215e-004
6.657028e-004,-5.010056e-004
4.790957e-005,-5.164018e-004
-4.706994e-004,-4.578962e-004
-7.345417e-004,-3.347266e-004
-7.005080e-004,-1.619650e-004
-4.285624e-004,3.202716e-005
-3.895745e-005,2.081922e-004
2.974902e-004,3.240689e-004
3.971604e-004,3.438409e-004
1.370455e-004,2.524360e-004
-4.397449e-004,6.768154e-005
-1.147646e-003,-1.687718e-004
-1.811790e-003,-4.115456e-004
-2.374319e-003,-6.389232e-004
-2.825996e-003,-8.603043e-004
-3.088380e-003,-1.098216e-003
-3.028416e-003,-1.365462e-003
-2.602670e-003,-1.648590e-003
-1.923291e-003,-1.891688e-003
-1.167580e-003,-2.016641e-003
-4.765338e-004,-1.980176e-003
8.842590e-005,-1.789587e-003
5.276231e-004,-1.492035e-003
8.674743e-004,-1.135167e-003
1.127103e-003,-7.526930e-004
1.312668e-003,-3.796187e-004
1.432597e-003,-5.565017e-005
1.504392e-003,2.010613e-004
1.542477e-003,4.141773e-004
1.558198e-003,6.114109e-004
1.552201e-003,7.929241e-004
1.517195e-003,9.332729e-004
1.447993e-003,1.018033e-003
1.351078e-003,1.065194e-003
1.236984e-003,1.110411e-003
1.119648e-003,1.182206e-003
1.031647e-003,1.283497e-003
1.027433e-003,1.387867e-003
1.150927e-003,1.456258e-003
1.384139e-003,1.463227e-003
1.645551e-003,1.411204e-003
1.832251e-003,1.338275e-003
1.883950e-003,1.288521e-003
1.798866e-003,1.276528e-003
1.612652e-003,1.256270e-003
1.375226e-003,1.153196e-003
1.123862e-003,9.188490e-004
8.729845e-004,5.608465e-004
6.122212e-004,1.373696e-004
3.467581e-004,-2.734659e-004
1.219734e-004,-6.089411e-004
-3.377136e-005,-8.436117e-004
-1.300382e-004,-9.846084e-004
-2.122053e-004,-1.060293e-003
-3.215994e-004,-1.097082e-003
-4.149489e-004,-1.112478e-003
-3.538503e-004,-1.112478e-003
-2.015787e-005,-1.097730e-003
4.760863e-004,-1.072610e-003
7.292324e-004,-1.041980e-003
2.487085e-004,-1.007946e-003
-1.133060e-003,-9.640261e-004
-3.028902e-003,-9.089239e-004
-4.781162e-003,-8.431255e-004
-4.968512e-003,-7.667927e-004
-4.968350e-003,-6.774947e-004
-4.329321e-003,-5.729626e-004
-2.230567e-003,-4.491447e-004
5.568870e-005,-3.070135e-004
1.748787e-003,-1.525652e-004
2.391703e-003,2.207145e-006
2.049419e-003,1.334801e-004
1.153844e-003,2.101370e-004
2.397949e-004,2.102990e-004
-3.476919e-004,1.331559e-004
-6.065101e-004,-1.196227e-006
-8.215707e-004,-1.548341e-004
-1.322191e-003,-2.898345e-004
-2.170117e-003,-3.788084e-004
-3.114797e-003,-4.162455e-004
-3.816867e-003,-4.066836e-004
-4.052998e-003,-3.609812e-004
-3.778133e-003,-2.940482e-004
-3.094539e-003,-2.173914e-004
-2.174654e-003,-1.327933e-004
-1.193349e-003,-3.134038e-005
-2.754107e-004,8.891209e-005
5.300540e-004,2.179161e-004
1.195819e-003,3.255275e-004
1.636314e-003,3.790091e-004
1.688012e-003,3.590750e-004
1.247356e-003,2.796630e-004
4.973168e-004,1.890685e-004
-1.538618e-004,1.427178e-004
-4.089525e-004,1.701068e-004
-2.840002e-004,2.655633e-004
-3.150244e-005,3.953777e-004
5.633696e-005,5.217887e-004
-1.783336e-004,6.234037e-004
-6.761982e-004,6.971435e-004
-1.215227e-003,7.412253e-004
-1.546165e-003,7.494906e-004
-1.537737e-003,7.057329e-004
-1.240347e-003,5.882355e-004
-8.337257e-004,3.807918e-004
-4.961436e-004,9.636710e-005
-3.136581e-004,-2.136638e-004
-2.867553e-004,-4.825302e-004
-3.732982e-004,-6.599916e-004
-5.112157e-004,-7.277349e-004
-6.185030e-004,-6.925668e-004
-6.256338e-004,-5.677765e-004
-4.797751e-004,-3.689224e-004
-1.496481e-004,-1.170729e-004
3.725265e-004,1.712413e-004
1.048826e-003,4.909963e-004
1.775204e-003,8.217718e-004
2.404830e-003,1.108466e-003
2.794437e-003,1.276528e-003
2.859912e-003,1.276366e-003
2.630426e-003,1.113328e-003
2.254595e-003,8.342508e-004
1.955745e-003,5.063924e-004
1.892053e-003,1.970097e-004
2.070650e-003,-4.122636e-005
2.387327e-003,-1.874093e-004
2.699953e-003,-2.473734e-004
2.893622e-003,-2.405667e-004
2.904804e-003,-1.953505e-004
2.733500e-003,-1.436516e-004
2.434812e-003,-1.097800e-004
2.099660e-003,-1.000561e-004
1.790438e-003,-1.045939e-004
1.503906e-003,-1.118868e-004
1.184474e-003,-1.144799e-004
7.977861e-004,-1.091317e-004
4.054258e-004,-9.584238e-005
1.454729e-004,-7.947377e-005
1.297526e-004,-6.910160e-005
3.709058e-004,-6.991193e-005
7.747728e-004,-8.465986e-005
1.207002e-003,-1.081593e-004
1.568570e-003,-1.352242e-004
1.868554e-003,-1.647201e-004
2.187986e-003,-1.914609e-004
2.585048e-003,-2.029675e-004
2.951317e-003,-1.914609e-004
2.957314e-003,-1.566169e-004
2.279715e-003,-1.068628e-004
9.122044e-004,-4.900550e-005
-7.397278e-004,7.555301e-006
-2.051809e-003,5.666109e-005
-2.617417e-003,9.750156e-005
-2.387770e-003,1.329939e-004
-1.716495e-003,1.688103e-004
-1.141326e-003,2.055991e-004
-1.054297e-003,2.384984e-004
-1.520396e-003,2.618358e-004
-2.364109e-003,2.744769e-004
-3.307980e-003,2.722080e-004
-4.069528e-003,2.555152e-004
-4.472749e-003,2.269918e-004
-4.513591e-003,1.976579e-004
-4.372268e-003,1.806411e-004
-4.315383e-003,1.833962e-004
-4.423806e-003,2.065715e-004
-4.480042e-003,2.425500e-004
-4.183947e-003,2.782044e-004
-3.424667e-003,3.017039e-004
-2.350657e-003,3.059176e-004
-1.223331e-003,2.833905e-004
-2.493182e-004,2.171058e-004
4.841895e-004,8.486046e-005
9.814063e-004,-1.386276e-004
1.267938e-003,-4.614617e-004
1.367447e-003,-8.635456e-004
1.345406e-003,-1.307442e-003
1.306186e-003,-1.765277e-003
1.346702e-003,-2.221978e-003
1.506499e-003,-2.662472e-003
1.738091e-003,-3.061478e-003
1.952018e-003,-3.381071e-003
2.084750e-003,-3.559506e-003
2.111329e-003,-3.509752e-003
2.040830e-003,-3.151910e-003
1.923170e-003,-2.442549e-003
1.819448e-003,-1.392689e-003
1.758835e-003,-6.974985e-005
1.715564e-003,1.376360e-003
1.640527e-003,2.777582e-003
1.499530e-003,4.042189e-003
1.285441e-003,4.959005e-003
1.019978e-003,4.959168e-003
7.614834e-004,4.959005e-003
5.793219e-004,4.959005e-003
5.159543e-004,4.959005e-003
5.517708e-004,4.959168e-003
5.843459e-004,4.959168e-003
4.423766e-004,4.372968e-003
-3.150244e-005,2.917283e-003
-8.713248e-004,1.541667e-003
-1.839989e-003,3.905157e-004
-2.546433e-003,-4.585445e-004
-2.692616e-003,-1.010377e-003
-2.238832e-003,-1.333049e-003
-1.379724e-003,-1.499328e-003
-3.799429e-004,-1.569178e-003
5.407503e-004,-1.580361e-003
1.242980e-003,-1.552647e-003
1.664675e-003,-1.495438e-003
1.815234e-003,-1.407923e-003
1.770018e-003,-1.285402e-003
1.605035e-003,-1.132898e-003
1.337464e-003,-9.735880e-004
9.600137e-004,-8.395600e-004
5.498260e-004,-7.539895e-004
2.636185e-004,-7.152559e-004
2.214815e-004,-7.131490e-004
4.164462e-004,-7.418346e-004
6.862851e-004,-7.970989e-004
8.062135e-004,-8.776453e-004
6.180556e-004,-9.854188e-004
1.282940e-004,-1.121716e-003
-4.841508e-004,-1.284915e-003
-9.995184e-004,-1.466753e-003
-1.248775e-003,-1.647942e-003
-1.153156e-003,-1.795908e-003
-7.744097e-004,-1.879533e-003
-2.512630e-004,-1.876130e-003
3.352514e-004,-1.778567e-003
9.880509e-004,-1.599160e-003
1.691902e-003,-1.355090e-003
2.293491e-003,-1.065641e-003
2.546800e-003,-7.496137e-004
2.257188e-003,-4.337485e-004
1.352861e-003,-1.449482e-004
-6.877746e-005,1.009049e-004
-1.617474e-003,2.974902e-004
-2.793421e-003,4.428628e-004
-3.302469e-003,5.344298e-004
-3.120632e-003,5.778633e-004
-2.426180e-003,5.882355e-004
-1.439526e-003,5.806184e-004
-3.583881e-004,5.556603e-004
5.759185e-004,4.994237e-004
1.117865e-003,3.969983e-004
1.159192e-003,2.485465e-004
7.671557e-004,7.853991e-005
1.765894e-004,-7.704279e-005
-2.827037e-004,-1.898403e-004
-3.595226e-004,-2.489941e-004
-3.701266e-005,-2.622834e-004
4.791655e-004,-2.459149e-004
8.851394e-004,-2.125294e-004
9.538552e-004,-1.778474e-004
6.725095e-004,-1.540238e-004
1.937684e-004,-1.468929e-004
-3.446126e-004,-1.642339e-004
-9.173513e-004,-2.049123e-004
-1.598674e-003,-2.574215e-004
-2.513209e-003,-3.066893e-004
-3.730648e-003,-3.459091e-004
-4.968350e-003,-3.723258e-004
-4.968512e-003,-3.867496e-004
-4.968512e-003,-3.943667e-004
-4.968512e-003,-4.110594e-004
-4.968674e-003,-4.455793e-004
-3.786723e-003,-4.930644e-004
-1.297881e-003,-5.348772e-004
8.400852e-004,-5.510838e-004
2.002258e-003,-5.228845e-004
2.044557e-003,-4.423380e-004
1.183340e-003,-3.109030e-004
-1.052422e-004,-1.355484e-004
-1.294153e-003,7.740546e-005
-2.045650e-003,3.117519e-004
-2.254715e-003,5.431813e-004
-1.980824e-003,7.340944e-004
-1.379886e-003,8.480264e-004
-6.107238e-004,8.673123e-004
1.858272e-004,7.968137e-004
8.955116e-004,6.606788e-004
1.445886e-003,4.911583e-004
1.821717e-003,3.214759e-004
2.079077e-003,1.780480e-004
2.295597e-003,7.351589e-005
2.515683e-003,1.079661e-005
2.746466e-003,-1.399939e-005
2.974817e-003,-1.254080e-005
3.178859e-003,3.179537e-006
3.336387e-003,1.987227e-005
3.426010e-003,3.202716e-005
3.416124e-003,3.786152e-005
3.271723e-003,4.515445e-005
2.997344e-003,5.828175e-005
2.664946e-003,7.935024e-005
2.390730e-003,1.025256e-004
2.254595e-003,1.127357e-004
2.229961e-003,9.636710e-005
2.205165e-003,4.953022e-005
2.057036e-003,-1.724069e-005
1.739225e-003,-8.271508e-005
1.357723e-003,-1.222590e-004
1.147848e-003,-1.227452e-004
1.301486e-003,-9.227693e-005
1.817989e-003,-5.727083e-005
2.516332e-003,-5.548811e-005
3.142070e-003,-1.141558e-004
3.490513e-003,-2.382978e-004
3.457938e-003,-4.211074e-004
3.054878e-003,-6.601537e-004
2.394134e-003,-9.423094e-004
1.634855e-003,-1.232568e-003
9.292212e-004,-1.481014e-003
3.713920e-004,-1.637246e-003
-2.129233e-005,-1.649725e-003
-2.760590e-004,-1.475180e-003
-4.728062e-004,-1.097244e-003
-7.583653e-004,-5.394151e-004
-1.312304e-003,1.344524e-004
-2.279187e-003,8.368439e-004
-3.557886e-003,1.482027e-003
-4.762201e-003,2.005662e-003
-4.968836e-003,2.376792e-003
-4.968836e-003,2.594285e-003
-4.712285e-003,2.681963e-003
-3.637784e-003,2.670294e-003
-2.556967e-003,2.570299e-003
-1.701748e-003,2.368527e-003
-1.100647e-003,2.053147e-003
-6.726327e-004,1.640527e-003
-3.439643e-004,1.163568e-003
-4.236082e-005,6.655407e-004
2.944109e-004,1.965235e-004
6.841783e-004,-1.814128e-004
1.113004e-003,-4.295348e-004
1.536319e-003,-5.350393e-004
1.879412e-003,-4.964678e-004
2.077781e-003,-3.287302e-004
2.089126e-003,-8.320128e-005
1.888164e-003,1.671896e-004
1.510875e-003,3.623164e-004
1.124996e-003,4.741415e-004
9.371624e-004,5.229231e-004
1.017385e-003,5.444778e-004
1.249625e-003,5.642498e-004
1.395160e-003,5.916389e-004
1.188202e-003,6.308587e-004
4.511282e-004,6.802886e-004
-7.902921e-004,7.282600e-004
-2.333154e-003,7.548388e-004
-3.949275e-003,7.383081e-004
-4.968674e-003,6.577615e-004
-4.968674e-003,4.927790e-004
-4.968674e-003,2.349330e-004
-4.869002e-003,-9.649064e-005
-3.233267e-003,-4.488206e-004
-1.396092e-003,-7.604721e-004
1.926339e-004,-9.862292e-004
1.172968e-003,-1.105995e-003
1.468089e-003,-1.118474e-003
1.224343e-003,-1.032094e-003
6.955228e-004,-8.607905e-004
1.436902e-004,-6.266062e-004
-2.569353e-004,-3.420196e-004
-4.689167e-004,1.072688e-006
-5.348772e-004,4.042913e-004
-5.019780e-004,8.347370e-004
-3.783222e-004,1.230501e-003
-1.321450e-004,1.535833e-003
2.607014e-004,1.718967e-003
7.880622e-004,1.775852e-003
1.389487e-003,1.719939e-003
1.959635e-003,1.565977e-003
2.407909e-003,1.329361e-003
2.716645e-003,1.038291e-003
2.942080e-003,7.217774e-004
3.156494e-003,4.004017e-004
3.411100e-003,8.567078e-005
3.700066e-003,-2.194982e-004
3.960994e-003,-5.113778e-004
4.125978e-003,-7.771649e-004
4.155474e-003,-1.001625e-003
4.034410e-003,-1.172280e-003
3.762137e-003,-1.285888e-003
3.317588e-003,-1.348283e-003
2.626213e-003,-1.371134e-003
1.568246e-003,-1.365786e-003
8.242948e-005,-1.341962e-003
-1.659610e-003,-1.304687e-003
-3.244612e-003,-1.255420e-003
-4.281187e-003,-1.190431e-003
-4.547300e-003,-1.110047e-003
-4.090921e-003,-1.027880e-003
-3.240560e-003,-9.667812e-004
-2.485658e-003,-9.507368e-004
-2.223436e-003,-9.927117e-004
-2.527957e-003,-1.088816e-003
-3.160014e-003,-1.218469e-003
-3.755282e-003,-1.356872e-003
-4.037115e-003,-1.487821e-003
-3.934041e-003,-1.599646e-003
-3.558534e-003,-1.691699e-003
-3.097456e-003,-1.780673e-003
-2.688078e-003,-1.880181e-003
-2.346606e-003,-1.967859e-003
-1.999948e-003,-1.980176e-003
-1.520721e-003,-1.847120e-003
-8.052022e-004,-1.528176e-003
6.832980e-005,-1.028528e-003
8.078342e-004,-3.963114e-004
1.092745e-003,3.002453e-004
7.532181e-004,9.781651e-004
-8.077030e-005,1.571811e-003
-9.436059e-004,2.059630e-003
-1.279243e-003,2.451505e-003
-7.633893e-004,2.750031e-003
5.110924e-004,2.892487e-003
2.064491e-003,2.780500e-003
3.376094e-003,2.371769e-003
4.135216e-003,1.725288e-003
4.290314e-003,9.747617e-004
4.000700e-003,2.764217e-004
3.504451e-003,-2.447804e-004
2.993455e-003,-5.358497e-004
2.558307e-003,-6.227166e-004
2.184744e-003,-5.747453e-004
1.805834e-003,-4.710235e-004
1.373767e-003,-3.632501e-004
8.755776e-004,-2.686040e-004
3.099692e-004,-1.887058e-004
-2.953447e-004,-1.255003e-004
-8.543079e-004,-8.239095e-005
-1.244885e-003,-6.197072e-005
-1.356062e-003,-6.294311e-005
-1.123012e-003,-7.007399e-005
-5.326084e-004,-6.586029e-005
3.786850e-004,-3.328516e-005
1.496451e-003,4.450620e-005
2.619082e-003,1.710792e-004
3.496996e-003,3.269861e-004
3.922097e-003,4.783552e-004
3.760841e-003,6.042800e-004
2.913556e-003,7.075156e-004
1.346702e-003,7.985964e-004
-8.184915e-004,8.742810e-004
-3.090650e-003,9.075044e-004
-4.947606e-003,8.661778e-004
-4.968674e-003,7.297186e-004
-4.968350e-003,5.065545e-004
-4.968512e-003,2.268297e-004
-4.594462e-003,-7.558420e-005
-3.412512e-003,-3.861013e-004
-2.285831e-003,-7.076389e-004
-1.338883e-003,-1.045383e-003
-5.888450e-004,-1.390258e-003
-1.034161e-006,-1.713740e-003
4.812723e-004,-1.975800e-003
9.300316e-004,-2.143214e-003
1.402939e-003,-2.196209e-003
1.916849e-003,-2.130087e-003
2.444860e-003,-1.952787e-003
2.946780e-003,-1.666093e-003
3.389870e-003,-1.274219e-003
3.745120e-003,-8.019609e-004
3.990165e-003,-2.992343e-004
4.111716e-003,1.830721e-004
4.097616e-003,6.185417e-004
3.917560e-003,1.010578e-003
3.508340e-003,1.370040e-003
2.849864e-003,1.706974e-003
2.045368e-003,2.032727e-003
1.278472e-003,2.340976e-003
6.673234e-004,2.593637e-003
1.517934e-004,2.719725e-003
-4.501171e-004,2.653277e-003
-1.198211e-003,2.375982e-003
-2.005782e-003,1.936297e-003
-2.856788e-003,1.420604e-003
-3.797581e-003,9.147974e-004
-4.744374e-003,4.846757e-004
-4.968674e-003,1.607070e-004
-4.968512e-003,-6.359137e-005
-4.746156e-003,-2.201465e-004
-3.327590e-003,-3.579019e-004
-1.600943e-003,-5.189948e-004
-5.953974e-005,-7.184973e-004
8.979426e-004,-9.329096e-004
1.199871e-003,-1.118961e-003
1.002637e-003,-1.237106e-003
4.791655e-004,-1.254933e-003
-2.611490e-004,-1.153156e-003
-1.114423e-003,-9.325854e-004
-1.925236e-003,-6.063480e-004
-2.497813e-003,-1.995642e-004
-2.696830e-003,2.506533e-004
-2.520016e-003,6.960090e-004
-2.087787e-003,1.092421e-003
-1.581495e-003,1.407639e-003
-1.163042e-003,1.628534e-003
-9.051964e-004,1.765966e-003
-7.617687e-004,1.850564e-003
-6.024585e-004,1.899184e-003
-3.152788e-004,1.885733e-003
1.279698e-004,1.759646e-003
6.676476e-004,1.487537e-003
1.208460e-003,1.078646e-003
1.669051e-003,5.880735e-004
2.017979e-003,1.012291e-004
2.267074e-003,-3.037722e-004
2.434650e-003,-5.843072e-004
2.520383e-003,-7.381071e-004
2.503204e-003,-7.878611e-004
2.369500e-003,-7.588515e-004
2.131911e-003,-6.747396e-004
1.835168e-003,-5.517320e-004
1.544260e-003,-4.076560e-004
1.322878e-003,-2.606628e-004
1.220291e-003,-1.297140e-004
1.247356e-003,-2.923353e-005
1.370850e-003,2.813760e-005
1.528702e-003,4.077869e-005
1.664513e-003,1.501031e-005
1.764670e-003,-3.701266e-005
1.843271e-003,-1.128592e-004
1.915877e-003,-2.277635e-004
1.982000e-003,-4.066836e-004
2.019275e-003,-6.604778e-004
2.002096e-003,-9.658089e-004
1.917660e-003,-1.263685e-003
1.802107e-003,-1.486687e-003
1.747977e-003,-1.583116e-003
1.807779e-003,-1.535306e-003
1.915715e-003,-1.355576e-003
1.929491e-003,-1.075527e-003
1.632262e-003,-7.360002e-004
8.825464e-004,-3.812394e-004
-1.676373e-004,-5.338126e-005
-1.167256e-003,2.174299e-004
-1.895740e-003,4.148255e-004
-2.318406e-003,5.339436e-004
-2.464914e-003,5.799701e-004
-2.406732e-003,5.670050e-004
-2.257794e-003,5.153061e-004
-2.074174e-003,4.483731e-004
-1.763494e-003,3.772264e-004
-1.182328e-003,2.931144e-004
-3.577399e-004,1.759412e-004
4.376768e-004,1.841368e-005
8.297130e-004,-1.647201e-004
5.425331e-004,-3.402368e-004
-4.750752e-004,-4.809095e-004
-1.951652e-003,-5.755557e-004
-3.391930e-003,-6.269303e-004
-4.284590e-003,-6.458920e-004
-4.325269e-003,-6.361681e-004
-3.550917e-003,-6.047274e-004
-2.266059e-003,-5.595111e-004
-8.520390e-004,-5.055434e-004
3.151553e-004,-4.499550e-004
9.997197e-004,-4.016596e-004
1.219643e-003,-3.736223e-004
1.069246e-003,-3.744326e-004
6.062248e-004,-4.102490e-004
-1.567789e-004,-4.820440e-004
-1.232406e-003,-5.841451e-004
-2.624224e-003,-7.026148e-004
-4.185244e-003,-8.165467e-004
-4.968350e-003,-8.941760e-004
-4.968512e-003,-9.073032e-004
-4.968350e-003,-8.453943e-004
-4.968512e-003,-7.243316e-004
-4.084924e-003,-5.684248e-004
-2.373833e-003,-3.922598e-004
-6.554538e-004,-1.912988e-004
8.528884e-004,5.957827e-005
2.023813e-003,3.744712e-004
2.879036e-003,7.373357e-004
3.452590e-003,1.104900e-003
3.747875e-003,1.430328e-003
3.765540e-003,1.689147e-003
3.579002e-003,1.886057e-003
3.328608e-003,2.044233e-003
3.105280e-003,2.182151e-003
2.874336e-003,2.293653e-003
2.519573e-003,2.343245e-003
1.962066e-003,2.284577e-003
1.271828e-003,2.091394e-003
6.772094e-004,1.784928e-003
4.519385e-004,1.430652e-003
7.421977e-004,1.107331e-003
1.435676e-003,8.728224e-004
2.205489e-003,7.376599e-004
2.685043e-003,6.593822e-004
2.612599e-003,5.777013e-004
1.969521e-003,4.535592e-004
1.064060e-003,2.837146e-004
3.571303e-004,9.312580e-005
1.237561e-004,-8.336335e-005
3.365480e-004,-2.266291e-004
8.329543e-004,-3.316474e-004
1.447831e-003,-4.050630e-004
2.034347e-003,-4.578962e-004
2.418606e-003,-4.972781e-004
2.387813e-003,-5.275843e-004
1.749760e-003,-5.517320e-004
4.995857e-004,-5.794452e-004
-1.003084e-003,-6.155858e-004
-2.166389e-003,-6.557780e-004
-2.633138e-003,-6.901358e-004
-2.422291e-003,-7.081250e-004
-1.831076e-003,-7.063423e-004
-1.231434e-003,-6.901358e-004
-9.077895e-004,-6.697156e-004
-9.283718e-004,-6.476747e-004
-1.146350e-003,-6.236890e-004
-1.322839e-003,-6.008379e-004
-1.281188e-003,-5.937069e-004
-1.012646e-003,-6.223925e-004
-6.287131e-004,-7.031010e-004
-2.520733e-004,-8.418289e-004
1.002567e-004,-1.028366e-003
5.255162e-004,-1.239051e-003
1.099228e-003,-1.441633e-003
1.747491e-003,-1.599484e-003
2.245357e-003,-1.681813e-003
2.326066e-003,-1.663014e-003
1.819286e-003,-1.527365e-003
8.661778e-004,-1.277136e-003
-8.790117e-005,-9.414990e-004
-6.026206e-004,-5.603215e-004
-5.058676e-004,-1.780095e-004
1.261871e-004,1.699448e-004
9.833511e-004,4.697657e-004
1.635503e-003,7.208050e-004
1.719453e-003,9.261420e-004
1.082049e-003,1.091611e-003
-1.483515e-004,1.224991e-003
-1.609046e-003,1.323689e-003
-2.935553e-003,1.378305e-003
-3.886556e-003,1.379601e-003
-4.348607e-003,1.328713e-003
-4.337586e-003,1.241846e-003
-3.978447e-003,1.130182e-003
-3.436498e-003,9.993956e-004
-2.848037e-003,8.494850e-004
-2.280969e-003,6.828817e-004
-1.731406e-003,5.114165e-004
-1.162070e-003,3.555096e-004
-5.570802e-004,2.407673e-004
6.136099e-005,1.864754e-004
6.295622e-004,1.950649e-004
1.069732e-003,2.466017e-004
1.334223e-003,3.128864e-004
1.419794e-003,3.710679e-004
1.370202e-003,4.148255e-004
1.265183e-003,4.462662e-004
1.200519e-003,4.702519e-004
1.270693e-003,4.835413e-004
1.537291e-003,4.744656e-004
1.997396e-003,4.315182e-004
2.583427e-003,3.558337e-004
3.157142e-003,2.555152e-004
3.534433e-003,1.479039e-004
3.544643e-003,4.823370e-005
3.082753e-003,-3.441962e-005
2.187986e-003,-9.940781e-005
1.096635e-003,-1.446240e-004
1.496866e-004,-1.703924e-004
-4.603272e-004,-1.796301e-004
-7.852681e-004,-1.768750e-004
-9.487920e-004,-1.622891e-004
-1.026097e-003,-1.360346e-004
-1.020263e-003,-9.697683e-005
-9.131377e-004,-5.386745e-005
-7.253040e-004,-2.210265e-005
-5.042469e-004,-2.258885e-005
-2.901587e-004,-6.537409e-005
-1.020008e-004,-1.454344e-004
3.802358e-005,-2.485079e-004
8.178122e-005,-3.707051e-004
-3.636440e-005,-5.181845e-004
-3.658432e-004,-6.992114e-004
-8.949863e-004,-9.290201e-004
-1.431909e-003,-1.220089e-003
-1.630763e-003,-1.564640e-003
-1.223817e-003,-1.918753e-003
-2.269532e-004,-2.219547e-003
1.049960e-003,-2.409325e-003
2.180045e-003,-2.469614e-003
2.815020e-003,-2.430880e-003
2.734473e-003,-2.350657e-003
1.939539e-003,-2.256660e-003
6.613270e-004,-2.116797e-003
-7.432932e-004,-1.853441e-003
-1.876940e-003,-1.385072e-003
-2.475610e-003,-6.836532e-004
-2.436228e-003,1.867996e-004
-1.813248e-003,1.080915e-003
-7.731132e-004,1.853968e-003
4.318424e-004,2.427357e-003
1.493047e-003,2.792817e-003
2.202248e-003,3.003341e-003
2.467388e-003,3.130239e-003
2.255729e-003,3.194255e-003
1.592718e-003,3.144338e-003
6.716992e-004,2.913556e-003
-1.571031e-004,2.491211e-003
-5.941931e-004,1.947156e-003
-5.737729e-004,1.400670e-003
-2.476975e-004,9.639032e-004
1.451488e-004,6.901747e-004
4.078567e-004,5.546879e-004
4.542074e-004,4.786793e-004
3.023522e-004,3.864641e-004
4.612685e-005,2.393087e-004
-2.005366e-004,4.450620e-005
-3.621157e-004,-1.686097e-004
-4.298589e-004,-3.724878e-004
-4.259694e-004,-5.489769e-004
-3.711913e-004,-6.924047e-004
-2.908069e-004,-8.056884e-004
-2.021572e-004,-8.899623e-004
-1.068628e-004,-9.342061e-004
1.128280e-005,-9.215650e-004
1.728619e-004,-8.381014e-004
3.780367e-004,-6.781430e-004
5.833735e-004,-4.463896e-004
6.893643e-004,-1.619650e-004
6.109247e-004,1.412592e-004
3.772264e-004,4.268184e-004
1.372076e-004,6.726716e-004
5.990240e-005,8.731466e-004
2.234263e-004,1.029540e-003
5.670050e-004,1.148496e-003
8.943772e-004,1.236822e-003
9.316522e-004,1.293383e-003
4.535592e-004,1.308130e-003
-5.254775e-004,1.267452e-003
-1.659448e-003,1.150603e-003
-2.520178e-003,9.451036e-004
-2.887419e-003,6.613270e-004
-2.835720e-003,3.333067e-004
-2.615149e-003,3.989864e-006
-2.464752e-003,-2.848105e-004
-2.483551e-003,-5.110537e-004
-2.601859e-003,-6.723086e-004
-2.648534e-003,-7.641996e-004
-2.458269e-003,-7.820268e-004
-1.964455e-003,-7.191455e-004
-1.282160e-003,-5.830107e-004
-6.877048e-004,-4.115456e-004
-3.984183e-004,-2.626076e-004
-3.786463e-004,-1.890299e-004
-4.157593e-004,-2.122053e-004
-3.107410e-004,-3.151167e-004
-2.518189e-005,-4.596790e-004
3.000832e-004,-6.016482e-004
4.738173e-004,-7.131490e-004
3.922984e-004,-7.919128e-004
6.346784e-005,-8.507425e-004
-4.261314e-004,-9.115170e-004
-9.507368e-004,-9.920634e-004
-1.395444e-003,-1.094489e-003
-1.676465e-003,-1.198535e-003
-1.727030e-003,-1.265306e-003
-1.517155e-003,-1.256878e-003
-1.101295e-003,-1.153805e-003
-5.552975e-004,-9.669433e-004
6.638502e-005,-7.282211e-004
6.892023e-004,-4.796130e-004
1.170051e-003,-2.637420e-004
1.371174e-003,-1.045939e-004
1.222884e-003,-9.623623e-006
7.413874e-004,2.295151e-005
-5.409925e-006,-1.196227e-006
-8.559286e-004,-8.044617e-005
-1.569016e-003,-2.188499e-004
-1.943225e-003,-4.301831e-004
-1.914864e-003,-7.167145e-004
-1.605805e-003,-1.043276e-003
-1.218793e-003,-1.341638e-003
-8.581975e-004,-1.537575e-003
-5.327704e-004,-1.579712e-003
-2.327876e-004,-1.448601e-003
4.499239e-005,-1.151050e-003
3.200173e-004,-7.283832e-004
6.464170e-004,-2.467252e-004
1.096959e-003,2.276400e-004
1.710702e-003,6.469032e-004
2.418768e-003,9.943716e-004
3.049530e-003,1.266156e-003
3.411586e-003,1.461283e-003
3.382739e-003,1.579428e-003
2.973845e-003,1.632910e-003
2.359614e-003,1.653655e-003
1.787035e-003,1.672130e-003
1.419632e-003,1.697736e-003
1.278635e-003,1.710216e-003
1.292734e-003,1.683475e-003
1.371822e-003,1.609573e-003
1.456421e-003,1.507147e-003
1.533402e-003,1.405208e-003
1.612814e-003,1.319475e-003
1.691902e-003,1.239415e-003
1.749273e-003,1.142500e-003
1.762887e-003,1.012037e-003
1.717670e-003,8.434886e-004
1.605521e-003,6.483617e-004
1.443617e-003,4.438352e-004
1.278959e-003,2.517878e-004
1.169889e-003,9.101894e-005
1.141527e-003,-2.485776e-005
1.164702e-003,-9.357346e-005
1.190633e-003,-1.263107e-004
1.195333e-003,-1.428413e-004
1.195009e-003,-1.666649e-004
1.232932e-003,-2.125294e-004
1.347512e-003,-2.903207e-004
1.544909e-003,-3.950149e-004
1.817503e-003,-5.055434e-004
2.167727e-003,-5.993792e-004
2.592827e-003,-6.611261e-004
3.042885e-003,-6.838153e-004
3.406725e-003,-6.677708e-004
3.555015e-003,-6.222305e-004
3.375608e-003,-5.552975e-004
2.824744e-003,-4.728062e-004
1.953800e-003,-3.755671e-004
9.044252e-004,-2.694143e-004
-1.611547e-004,-1.660166e-004
-1.196428e-003,-8.336335e-005
-2.336558e-003,-3.360929e-005
-3.665011e-003,-1.383732e-005
-4.968188e-003,-8.489166e-006
-4.968512e-003,-2.006553e-006
-4.968512e-003,9.175954e-006
-4.968512e-003,1.906194e-005
-4.562048e-003,1.452411e-005
-3.410568e-003,-1.464765e-005
-2.656151e-003,-7.218083e-005
-2.444007e-003,-1.522411e-004
-2.532819e-003,-2.429977e-004
-2.572201e-003,-3.259751e-004
-2.358113e-003,-3.914495e-004
-1.896550e-003,-4.408794e-004
-1.286050e-003,-4.718339e-004
-5.998655e-004,-4.810716e-004
9.118101e-005,-4.703753e-004
6.478756e-004,-4.449310e-004
9.196594e-004,-4.061974e-004
8.431645e-004,-3.551469e-004
4.982892e-004,-3.024756e-004
6.492643e-005,-2.679557e-004
-3.421817e-004,-2.710350e-004
-7.238454e-004,-3.159271e-004
-1.079255e-003,-3.899909e-004
-1.297557e-003,-4.771820e-004
-1.197886e-003,-5.705316e-004
-6.899738e-004,-6.726327e-004
1.138702e-004,-7.898060e-004
9.559621e-004,-9.215650e-004
1.539074e-003,-1.063534e-003
1.619621e-003,-1.196752e-003
1.163244e-003,-1.276812e-003
4.336251e-004,-1.245696e-003
-1.904885e-004,-1.074717e-003
-4.835025e-004,-7.747339e-004
-4.638926e-004,-3.872358e-004
-3.329439e-004,3.721326e-005
-3.541745e-004,4.626348e-004
-6.799257e-004,8.697432e-004
-1.241320e-003,1.261618e-003
-1.817462e-003,1.650737e-003
-2.184216e-003,2.017979e-003
-2.206581e-003,2.309535e-003
-1.867702e-003,2.454584e-003
-1.287995e-003,2.410827e-003
-7.131490e-004,2.187662e-003
-3.703810e-004,1.835816e-003
-2.883759e-004,1.423845e-003
-2.969654e-004,1.015116e-003
-1.927574e-004,6.665131e-004
1.231079e-004,4.138531e-004
6.397723e-004,2.652392e-004
1.285765e-003,1.984683e-004
1.978110e-003,1.793446e-004
2.643391e-003,1.739964e-004
3.217269e-003,1.574657e-004
3.666193e-003,1.232699e-004
3.973310e-003,7.546067e-005
4.077844e-003,2.603075e-005
3.835716e-003,-1.545797e-005
3.085833e-003,-4.430560e-005
1.846351e-003,-5.953974e-005
4.503179e-004,-6.213279e-005
-6.279027e-004,-5.127441e-005
-1.142460e-003,-2.275091e-005
-1.231272e-003,2.343770e-005
-1.245372e-003,7.951231e-005
-1.469832e-003,1.289422e-004
-1.947763e-003,1.590864e-004
-2.529740e-003,1.637863e-004
-3.040895e-003,1.464453e-004
-3.401167e-003,1.112771e-004
-3.612988e-003,6.444023e-005
-3.707472e-003,1.241726e-005
-3.698073e-003,-3.798505e-005
-3.560479e-003,-7.947377e-005
-3.248340e-003,-1.068628e-004
-2.722436e-003,-1.209625e-004
-1.974504e-003,-1.368449e-004
-1.038738e-003,-1.686097e-004
-1.189254e-005,-2.170672e-004
9.444554e-004,-2.731418e-004
1.684123e-003,-3.240303e-004
2.132883e-003,-3.619536e-004
2.275825e-003,-3.852910e-004
2.163838e-003,-4.000390e-004
1.896105e-003,-4.102490e-004
1.567273e-003,-4.149489e-004
1.230501e-003,-4.092767e-004
9.191732e-004,-3.935563e-004
6.940642e-004,-3.710293e-004
6.535479e-004,-3.454229e-004
8.904876e-004,-3.224097e-004
1.379439e-003,-3.110651e-004
1.944401e-003,-3.120375e-004
2.326876e-003,-3.186821e-004
2.321690e-003,-3.204649e-004
1.934028e-003,-3.128478e-004
1.381060e-003,-2.982619e-004
9.175525e-004,-2.796244e-004
6.707268e-004,-2.619593e-004
6.164349e-004,-2.483458e-004
6.796404e-004,-2.410529e-004
8.340888e-004,-2.465631e-004
1.111383e-003,-2.684419e-004
1.557874e-003,-3.062031e-004
2.156869e-003,-3.596847e-004
2.765589e-003,-4.413656e-004
3.134128e-003,-5.745832e-004
3.032026e-003,-7.714926e-004
2.375982e-003,-1.025773e-003
1.362585e-003,-1.313115e-003
4.005638e-004,-1.587816e-003
-1.047560e-004,-1.798825e-003
7.393236e-006,-1.911136e-003
6.187038e-004,-1.923939e-003
1.467441e-003,-1.853279e-003
2.296894e-003,-1.712120e-003
2.920849e-003,-1.509538e-003
3.260216e-003,-1.252664e-003
3.335901e-003,-9.395542e-004
3.214838e-003,-5.624284e-004
2.932356e-003,-1.123730e-004
2.465767e-003,4.115842e-004
1.829172e-003,9.908061e-004
1.121269e-003,1.596121e-003
4.919686e-004,2.198682e-003
6.638502e-005,2.766238e-003
-1.357104e-004,3.265403e-003
-2.089640e-004,3.664411e-003
-2.796244e-004,3.930039e-003
-4.131662e-004,4.037489e-003
-6.009999e-004,3.970393e-003
-8.332395e-004,3.729562e-003
-1.173415e-003,3.334929e-003
-1.691213e-003,2.830740e-003
-2.362164e-003,2.272098e-003
-3.109449e-003,1.714591e-003
-3.896604e-003,1.201491e-003
-4.694619e-003,7.681281e-004
-4.968350e-003,4.315182e-004
-4.968512e-003,1.910133e-004
-4.968674e-003,3.040651e-005
-4.968512e-003,-7.542214e-005
-4.553621e-003,-1.494860e-004
-3.669549e-003,-2.107467e-004
-2.890336e-003,-2.736280e-004
-2.365892e-003,-3.402368e-004
-2.125549e-003,-4.021458e-004
-2.084870e-003,-4.483344e-004
-2.137055e-003,-4.744269e-004
-2.214361e-003,-4.818819e-004
-2.328941e-003,-4.766958e-004
-2.554698e-003,-4.669719e-004
-2.993248e-003,-4.595169e-004
-3.634705e-003,-4.642168e-004
-4.280377e-003,-4.839888e-004
-4.644702e-003,-5.123502e-004
-4.506946e-003,-5.418460e-004
-3.812005e-003,-5.698834e-004
-2.699585e-003,-5.937069e-004
-1.461729e-003,-6.125065e-004
-4.300210e-004,-6.296854e-004
2.226160e-004,-6.580469e-004
5.775391e-004,-7.063423e-004
8.548332e-004,-7.747339e-004
1.208946e-003,-8.541459e-004
1.654951e-003,-9.325854e-004
2.109060e-003,-9.982219e-004
2.453774e-003,-1.044411e-003
2.609195e-003,-1.065803e-003
2.608385e-003,-1.060779e-003
2.560252e-003,-1.029014e-003
2.565113e-003,-9.748845e-004
2.681801e-003,-9.094102e-004
2.916797e-003,-8.413427e-004
3.228289e-003,-7.862405e-004
3.539781e-003,-7.567446e-004
3.757599e-003,-7.625790e-004
3.809137e-003,-8.052022e-004
3.672514e-003,-8.769971e-004
3.381280e-003,-9.619193e-004
2.975789e-003,-1.043600e-003
2.464470e-003,-1.104537e-003
1.828848e-003,-1.125767e-003
1.050770e-003,-1.094489e-003
1.743205e-004,-1.011349e-003
-6.326026e-004,-8.881796e-004
-1.145701e-003,-7.419967e-004
-1.197238e-003,-5.836589e-004
-7.436173e-004,-4.172179e-004
1.047945e-004,-2.436459e-004
1.114786e-003,-6.342931e-005
2.070488e-003,1.179218e-004
2.838357e-003,2.965178e-004
3.337036e-003,4.668485e-004
3.537836e-003,6.253485e-004
3.446917e-003,7.729901e-004
3.064440e-003,9.177146e-004
2.422009e-003,1.062763e-003
1.643282e-003,1.194685e-003
9.032908e-004,1.280741e-003
3.428685e-004,1.285603e-003
1.646890e-005,1.196791e-003
-1.285796e-004,1.027595e-003
-2.248464e-004,8.135065e-004
-4.251591e-004,5.955285e-004
-8.369670e-004,4.128807e-004
-1.404682e-003,2.863077e-004
-1.916160e-003,2.130541e-004
-2.145320e-003,1.798307e-004
-2.022637e-003,1.717275e-004
-1.707582e-003,1.814514e-004
-1.479718e-003,2.060853e-004
-1.500787e-003,2.396328e-004
-1.687000e-003,2.773941e-004
-1.811466e-003,3.159656e-004
-1.686351e-003,3.522683e-004
-1.257364e-003,3.850055e-004
-6.116962e-004,4.138531e-004
7.221937e-005,4.334631e-004
5.657084e-004,4.407560e-004
6.655407e-004,4.328148e-004
2.957075e-004,4.051016e-004
-4.267797e-004,3.613439e-004
-1.249423e-003,3.106175e-004
-1.915512e-003,2.603772e-004
-2.224895e-003,2.247229e-004
-2.099780e-003,2.167816e-004
-1.634814e-003,2.383363e-004
-1.019939e-003,2.777182e-004
-4.049009e-004,3.167760e-004
1.083599e-004,3.443271e-004
3.958639e-004,3.564820e-004
3.162898e-004,3.559958e-004
-1.963229e-004,3.457857e-004
-9.696984e-004,3.305515e-004
-1.602401e-003,3.042970e-004
-1.762522e-003,2.522740e-004
-1.395282e-003,1.636242e-004
-6.653398e-004,3.559260e-005
2.154851e-004,-1.178833e-004
1.036509e-003,-2.788141e-004
1.623510e-003,-4.201350e-004
1.881843e-003,-5.186707e-004
1.809238e-003,-5.567560e-004
1.483810e-003,-5.256396e-004
1.008633e-003,-4.222419e-004
5.033132e-004,-2.530457e-004
1.064152e-004,-4.819517e-005
-6.180866e-005,1.399627e-004
4.985435e-005,2.521119e-004
3.979707e-004,2.572980e-004
8.363577e-004,1.550348e-004
1.155465e-003,-3.636440e-005
1.196143e-003,-2.896725e-004
1.016250e-003,-5.770142e-004
8.454334e-004,-8.816970e-004
8.613158e-004,-1.218469e-003
1.072487e-003,-1.604346e-003
1.386246e-003,-2.018424e-003
1.663054e-003,-2.402357e-003
1.767911e-003,-2.674951e-003
1.654789e-003,-2.775594e-003
1.384301e-003,-2.673168e-003
1.082859e-003,-2.370916e-003
8.776844e-004,-1.907733e-003
8.037825e-004,-1.351524e-003
7.600249e-004,-7.805682e-004
5.598741e-004,-2.337599e-004
6.606088e-005,2.981384e-004
-6.541573e-004,8.473782e-004
-1.329159e-003,1.423035e-003
-1.707420e-003,2.005986e-003
-1.760253e-003,2.574513e-003
-1.677762e-003,3.106739e-003
-1.697696e-003,3.563929e-003
-1.911946e-003,3.888874e-003
-2.209174e-003,4.029872e-003
-2.369133e-003,3.985628e-003
-2.199937e-003,3.813674e-003
-1.655721e-003,3.577219e-003
-8.648421e-004,3.275450e-003
-2.599222e-005,2.850512e-003
6.906608e-004,2.258646e-003
1.210567e-003,1.525136e-003
1.528054e-003,7.472217e-004
1.653655e-003,4.223728e-005
1.582021e-003,-5.014918e-004
1.295327e-003,-8.645180e-004
8.066997e-004,-1.082982e-003
1.856651e-004,-1.217982e-003
-4.598410e-004,-1.321218e-003
-1.022046e-003,-1.412461e-003
-1.429802e-003,-1.481501e-003
-1.654587e-003,-1.507755e-003
-1.710985e-003,-1.477125e-003
-1.623308e-003,-1.383775e-003
-1.413271e-003,-1.223169e-003
-1.080065e-003,-9.966013e-004
-6.126686e-004,-7.172007e-004
-2.988179e-005,-4.044147e-004
5.888838e-004,-8.465986e-005
1.127913e-003,2.138645e-004
1.503744e-003,4.734932e-004
1.699681e-003,6.911471e-004
1.756566e-003,8.663398e-004
1.748625e-003,9.899958e-004
1.752353e-003,1.050770e-003
1.807293e-003,1.032781e-003
1.911015e-003,9.220903e-004
2.042288e-003,7.157810e-004
2.174210e-003,4.371906e-004
2.275339e-003,1.323456e-004
2.292356e-003,-1.498101e-004
2.134666e-003,-3.758912e-004
1.700492e-003,-5.364979e-004
9.559621e-004,-6.397335e-004
-4.722278e-005,-6.995356e-004
-1.180059e-003,-7.316245e-004
-2.259577e-003,-7.452380e-004
-3.083518e-003,-7.439415e-004
-3.473449e-003,-7.287074e-004
-3.342176e-003,-6.974287e-004
-2.760845e-003,-6.501057e-004
-1.977907e-003,-5.979206e-004
-1.331266e-003,-5.585388e-004
-1.084441e-003,-5.501114e-004
-1.292208e-003,-5.768522e-004
-1.772570e-003,-6.300096e-004
-2.223436e-003,-6.881910e-004
-2.367999e-003,-7.332452e-004
-2.080656e-003,-7.565826e-004
-1.436285e-003,-7.656582e-004
-6.138030e-004,-7.713305e-004
2.389846e-004,-7.770028e-004
1.034888e-003,-7.810544e-004
1.706164e-003,-7.817027e-004
2.197223e-003,-7.784614e-004
2.469008e-003,-7.705202e-004
2.481001e-003,-7.564205e-004
2.195441e-003,-7.324349e-004
1.660299e-003,-6.962943e-004
1.040398e-003,-6.473506e-004
5.084993e-004,-5.854416e-004
1.675138e-004,-5.141329e-004
3.105477e-005,-4.455793e-004
3.932010e-005,-3.945287e-004
7.789165e-005,-3.702189e-004
2.667901e-005,-3.859393e-004
-1.493239e-004,-4.515757e-004
-3.543365e-004,-5.606457e-004
-4.507654e-004,-6.880290e-004
-4.044147e-004,-8.102262e-004
-3.394265e-004,-9.181616e-004
-4.554653e-004,-1.014266e-003
-8.491218e-004,-1.097244e-003
-1.364328e-003,-1.155911e-003
-1.700451e-003,-1.170335e-003
-1.667552e-003,-1.114585e-003
-1.296422e-003,-9.703467e-004
-7.774890e-004,-7.447518e-004
-3.344025e-004,-4.684305e-004
-1.178833e-004,-1.776853e-004
-1.233935e-004,1.154908e-004
-2.491561e-004,4.125566e-004
-4.045768e-004,7.293945e-004
-5.099192e-004,1.067787e-003
-4.865818e-004,1.403101e-003
-3.040963e-004,1.687040e-003
-1.983374e-005,1.874550e-003
2.287745e-004,1.947480e-003
3.232586e-004,1.925439e-003
2.501671e-004,1.852185e-003
9.280167e-005,1.780876e-003
-6.845333e-005,1.740036e-003
-2.047502e-004,1.711998e-003
-3.246786e-004,1.644417e-003
-4.624341e-004,1.492075e-003
-6.215822e-004,1.247842e-003
-7.706822e-004,9.431589e-004
-8.496080e-004,6.357207e-004
-7.695478e-004,3.872744e-004
-4.439586e-004,2.410915e-004
1.438522e-004,2.062474e-004
8.985908e-004,2.613496e-004
1.659327e-003,3.723644e-004
2.260591e-003,5.037994e-004
2.574351e-003,6.245382e-004
2.558469e-003,7.122156e-004
2.294787e-003,7.550009e-004
1.975193e-003,7.512733e-004
1.798379e-003,7.039502e-004
1.817989e-003,6.248623e-004
1.901129e-003,5.260024e-004
1.845378e-003,4.167703e-004
1.513954e-003,3.044590e-004
9.324626e-004,1.999268e-004
2.684805e-004,1.154908e-004
-2.862691e-004,5.439218e-005
-6.326026e-004,1.355172e-005
-7.663065e-004,-1.173047e-005
-7.146077e-004,-2.226472e-005
-5.339049e-004,-2.680255e-005
-2.843243e-004,-3.604027e-005
-1.034161e-006,-5.808115e-005
3.062417e-004,-9.438378e-005
6.156246e-004,-1.399241e-004
8.809257e-004,-1.870851e-004
1.078484e-003,-2.326255e-004
1.198250e-003,-2.833519e-004
1.179126e-003,-3.506090e-004
9.019942e-004,-4.353692e-004
3.230965e-004,-5.342290e-004
-3.452609e-004,-6.421645e-004
-7.202800e-004,-7.468587e-004
-5.407116e-004,-8.325911e-004
1.838824e-004,-8.823453e-004
1.182206e-003,-8.967691e-004
2.077457e-003,-8.870451e-004
2.583751e-003,-8.585216e-004
2.576620e-003,-8.099020e-004
2.105818e-003,-7.358382e-004
1.350916e-003,-6.240131e-004
5.154681e-004,-4.684305e-004
-2.506147e-004,-2.872415e-004
-8.773212e-004,-1.151281e-004
-1.367731e-003,2.246531e-005
-1.759605e-003,1.247285e-004
-2.078874e-003,2.030061e-004
-2.350982e-003,2.610255e-004
-2.621631e-003,2.874421e-004
-2.946897e-003,2.572980e-004
-3.345255e-003,1.548727e-004
-3.751230e-003,-1.432352e-005
-4.036629e-003,-2.160948e-004
-4.069042e-003,-3.977700e-004
-3.779268e-003,-5.060296e-004
-3.212847e-003,-5.105674e-004
-2.491168e-003,-4.100870e-004
-1.744695e-003,-2.212809e-004
-1.061752e-003,2.376183e-005
-4.933886e-004,2.811216e-004
-5.840528e-005,5.018546e-004
2.590807e-004,6.488480e-004
5.039615e-004,7.118915e-004
7.243705e-004,7.101087e-004
9.452657e-004,6.749405e-004
1.139096e-003,6.266450e-004
1.242818e-003,5.775391e-004
1.208298e-003,5.464226e-004
1.043315e-003,5.473950e-004
7.867657e-004,5.836976e-004
4.849998e-004,6.446343e-004
1.991165e-004,7.065432e-004
8.365628e-006,7.451148e-004
-2.680255e-005,7.430080e-004
1.318594e-004,6.864472e-004
5.025029e-004,5.755944e-004
1.051094e-003,4.392974e-004
1.680071e-003,3.175863e-004
2.266426e-003,2.431983e-004
2.711459e-003,2.295848e-004
2.948724e-003,2.642668e-004
2.951804e-003,3.161277e-004
2.775151e-003,3.543751e-004
2.526056e-003,3.590750e-004
2.276960e-003,3.240689e-004
2.023003e-003,2.577842e-004
1.712484e-003,1.754550e-004
1.300675e-003,8.907416e-005
7.585663e-004,5.772582e-006
7.724339e-005,-6.958779e-005
-6.937013e-004,-1.342519e-004
-1.403061e-003,-1.831956e-004
-1.845175e-003,-2.125294e-004
-1.873051e-003,-2.240360e-004
-1.449898e-003,-2.193361e-004
-6.167202e-004,-2.029675e-004
5.023408e-004,-1.825473e-004
1.632910e-003,-1.694200e-004
2.409854e-003,-1.724993e-004
2.495749e-003,-1.969711e-004
1.775204e-003,-2.421874e-004
4.760863e-004,-2.985861e-004
-9.672674e-004,-3.520676e-004
-2.193616e-003,-3.935563e-004
-3.133921e-003,-4.287245e-004
-3.843284e-003,-4.648651e-004
-4.307118e-003,-5.070020e-004
-4.431261e-003,-5.489769e-004
-4.146996e-003,-5.854416e-004
-3.480742e-003,-6.066722e-004
-2.596187e-003,-6.097514e-004
-1.775811e-003,-5.951655e-004
-1.325756e-003,-5.669662e-004
-1.368217e-003,-5.261258e-004
-1.715685e-003,-4.763717e-004
-2.023123e-003,-4.308313e-004
-2.040626e-003,-4.044147e-004
-1.673710e-003,-4.040906e-004
-9.551126e-004,-4.248349e-004
-5.571990e-006,-4.640547e-004
9.904819e-004,-5.147812e-004
1.838409e-003,-5.716661e-004
2.403209e-003,-6.317923e-004
2.617137e-003,-6.998597e-004
2.492832e-003,-7.912645e-004
2.114408e-003,-9.142721e-004
1.602442e-003,-1.043762e-003
1.097607e-003,-1.127388e-003
7.292324e-004,-1.121392e-003
5.517708e-004,-1.017021e-003
5.230852e-004,-8.321049e-004
5.396159e-004,-5.928966e-004
5.005581e-004,-3.157650e-004
3.597233e-004,-1.562004e-005
1.543865e-004,2.947351e-004
-1.254080e-005,6.118971e-004
-3.944364e-005,9.276005e-004
1.203528e-004,1.210729e-003
4.402698e-004,1.409746e-003
8.493229e-004,1.482999e-003
1.269559e-003,1.424656e-003
1.642796e-003,1.267290e-003
1.922360e-003,1.057253e-003
2.087505e-003,8.348991e-004
2.135314e-003,6.300483e-004
2.062871e-003,4.665244e-004
1.851537e-003,3.548613e-004
1.470358e-003,2.942489e-004
8.781706e-004,2.738286e-004
4.580272e-005,2.752873e-004
-9.996805e-004,2.791768e-004
-2.157962e-003,2.658874e-004
-3.269732e-003,2.229401e-004
-4.044246e-003,1.427178e-004
-4.141324e-003,2.846173e-005
-3.400033e-003,-1.024871e-004
-1.971748e-003,-2.310048e-004
-2.209568e-004,-3.347266e-004
1.391756e-003,-3.920977e-004
2.522166e-003,-3.883702e-004
3.058930e-003,-3.168994e-004
3.013551e-003,-1.814128e-004
2.526866e-003,5.448452e-006
1.861261e-003,2.247229e-004
1.291276e-003,4.509661e-004
9.908061e-004,6.564650e-004
9.559621e-004,8.191788e-004
1.037481e-003,9.172284e-004
1.086749e-003,9.421865e-004
1.063249e-003,9.029666e-004
9.906441e-004,8.178822e-004
8.896773e-004,7.170775e-004
7.608352e-004,6.287518e-004
5.901803e-004,5.606844e-004
3.731747e-004,4.994237e-004
1.443384e-004,4.247115e-004
-3.004385e-005,3.320101e-004
-8.482193e-005,2.287745e-004
1.558884e-006,1.206769e-004
1.927960e-004,5.864920e-007
4.250357e-004,-1.373311e-004
6.203245e-004,-2.921034e-004
7.204809e-004,-4.530343e-004
7.276118e-004,-5.969483e-004
7.016813e-004,-6.971046e-004
7.357151e-004,-7.272488e-004
8.888670e-004,-6.763602e-004
1.108142e-003,-5.538389e-004
1.246546e-003,-3.896668e-004
1.191605e-003,-2.186879e-004
9.593654e-004,-6.634648e-005
6.896885e-004,5.325772e-005
5.378332e-004,1.339663e-004
5.402642e-004,1.715654e-004
5.264886e-004,1.722137e-004
1.992786e-004,1.534141e-004
-6.633950e-004,1.329939e-004
-2.033333e-003,1.206769e-004
-3.609909e-003,1.231079e-004
-4.960084e-003,1.389903e-004
-4.968512e-003,1.602208e-004
-4.968512e-003,1.717275e-004
-4.968512e-003,1.667035e-004
-4.210850e-003,1.457970e-004
-3.289990e-003,1.153287e-004
-2.550485e-003,8.486046e-005
-1.962024e-003,6.914012e-005
-1.372107e-003,7.092284e-005
-6.528608e-004,6.751948e-005
1.799928e-004,2.424803e-005
9.431589e-004,-8.433573e-005
1.406829e-003,-2.520733e-004
1.437459e-003,-4.428242e-004
1.102307e-003,-6.155858e-004
6.391241e-004,-7.374589e-004
2.825802e-004,-7.896438e-004
1.328318e-004,-7.755442e-004
1.577899e-004,-7.139594e-004
3.023522e-004,-6.256338e-004
5.370228e-004,-5.243430e-004
8.227442e-004,-4.134903e-004
1.090963e-003,-2.825416e-004
1.271017e-003,-1.258245e-004
1.352050e-003,5.941620e-005
1.402453e-003,2.663737e-004
1.512981e-003,4.744656e-004
1.752028e-003,6.563030e-004
2.111004e-003,7.903311e-004
2.461229e-003,8.663398e-004
2.580185e-003,8.883807e-004
2.235471e-003,8.690950e-004
1.330658e-003,8.117238e-004
9.231547e-005,7.065432e-004
-9.948185e-004,5.396159e-004
-1.585709e-003,3.036487e-004
-1.656369e-003,1.906194e-005
-1.410192e-003,-2.642282e-004
-1.111992e-003,-4.903093e-004
-9.335579e-004,-6.238511e-004
-8.951484e-004,-6.612882e-004
-9.186479e-004,-6.295234e-004
-9.212409e-004,-5.740970e-004
-8.912588e-004,-5.348772e-004
-8.826694e-004,-5.279084e-004
-9.820154e-004,-5.444391e-004
-1.251692e-003,-5.624284e-004
-1.693482e-003,-5.551354e-004
-2.217602e-003,-5.011677e-004
-2.639945e-003,-3.867496e-004
-2.768787e-003,-2.143121e-004
-2.514182e-003,7.393236e-006
-1.911298e-003,2.607014e-004
-1.078930e-003,4.973168e-004
-1.708786e-004,6.352345e-004
6.580857e-004,5.992560e-004
1.284631e-003,3.611819e-004
1.635503e-003,-3.328516e-005
1.686230e-003,-4.880404e-004
1.494506e-003,-9.167031e-004
1.190471e-003,-1.257202e-003
8.914600e-004,-1.464808e-003
6.475514e-004,-1.494628e-003
4.438352e-004,-1.321056e-003
2.407673e-004,-9.541402e-004
3.964424e-005,-4.431483e-004
-1.229073e-004,1.537382e-004
-2.363530e-004,7.849830e-004
-3.468815e-004,1.404884e-003
-4.823681e-004,1.962714e-003
-5.570802e-004,2.404506e-003
-3.844807e-004,2.698818e-003
1.910133e-004,2.850188e-003
1.158706e-003,2.885032e-003
2.316180e-003,2.816964e-003
3.377391e-003,2.629454e-003
4.083517e-003,2.297542e-003
4.229215e-003,1.830630e-003
3.698931e-003,1.279931e-003
2.611951e-003,7.139983e-004
1.296300e-003,1.987924e-004
1.214872e-004,-2.133397e-004
-6.188271e-004,-4.938748e-004
-8.163847e-004,-6.444334e-004
-5.377944e-004,-6.893255e-004
8.203562e-006,-6.638812e-004
5.292437e-004,-6.034309e-004
8.039447e-004,-5.428185e-004
7.801210e-004,-5.091089e-004
5.511225e-004,-5.167259e-004
2.671840e-004,-5.635628e-004
2.554455e-005,-6.392473e-004
-1.660166e-004,-7.280591e-004
-3.622777e-004,-8.124951e-004
-6.034309e-004,-8.799143e-004
-8.126572e-004,-9.217271e-004
-8.406945e-004,-9.372854e-004
-6.001896e-004,-9.283718e-004
-1.652063e-004,-9.004966e-004
2.323399e-004,-8.593319e-004
3.128864e-004,-8.149261e-004
-7.817725e-005,-7.700340e-004
-8.340498e-004,-7.210903e-004
-1.632708e-003,-6.595054e-004
-2.133490e-003,-5.812279e-004
-2.125225e-003,-4.894990e-004
-1.583440e-003,-3.929081e-004
-6.554538e-004,-3.003688e-004
3.966742e-004,-2.177155e-004
1.287548e-003,-1.480274e-004
1.864664e-003,-9.503204e-005
2.148604e-003,-6.035007e-005
2.286846e-003,-4.544006e-005
2.454098e-003,-4.835724e-005
2.738200e-003,-7.072225e-005
3.067033e-003,-1.139937e-004
3.223589e-003,-1.736337e-004
2.937056e-003,-2.426735e-004
2.026082e-003,-3.100927e-004
5.543638e-004,-3.577399e-004
-1.110695e-003,-3.666535e-004
-2.467345e-003,-3.243544e-004
-3.260656e-003,-2.266291e-004
-3.481877e-003,-8.919769e-005
-3.315759e-003,5.941620e-005
-3.035385e-003,1.840444e-004
-2.829562e-003,2.579462e-004
-2.701367e-003,2.760976e-004
-2.520340e-003,2.558394e-004
-2.143538e-003,2.201850e-004
-1.524448e-003,1.796687e-004
-7.650100e-004,1.260251e-004
-6.391550e-005,4.515445e-005
3.910019e-004,-6.553616e-005
5.234093e-004,-1.982676e-004
4.021844e-004,-3.282440e-004
1.992786e-004,-4.125180e-004
1.049566e-004,-4.248349e-004
2.372019e-004,-3.807532e-004
5.657084e-004,-3.227338e-004
9.097734e-004,-2.817312e-004
1.002475e-003,-2.538560e-004
6.059006e-004,-2.128535e-004
-2.475355e-004,-1.274451e-004
-1.177952e-003,2.376183e-005
-1.744371e-003,2.373639e-004
-1.716820e-003,4.747897e-004
-1.157694e-003,6.653786e-004
-3.360231e-004,7.433321e-004
4.201737e-004,6.754267e-004
8.823843e-004,4.815964e-004
1.015764e-003,2.107852e-004
9.282488e-004,-7.769106e-005
8.039447e-004,-3.293785e-004
7.984344e-004,-5.021401e-004
9.716824e-004,-5.768522e-004
1.254163e-003,-5.659938e-004
1.476517e-003,-4.987367e-004
1.442321e-003,-4.123559e-004
1.011226e-003,-3.356990e-004
1.764274e-004,-2.828657e-004
-8.977414e-004,-2.554767e-004
-1.941604e-003,-2.592042e-004
-2.710119e-003,-3.011791e-004
-3.046568e-003,-3.825359e-004
-2.915943e-003,-5.008436e-004
-2.412566e-003,-6.507540e-004
-1.734971e-003,-7.972610e-004
-1.112154e-003,-8.755385e-004
-7.058561e-004,-8.254603e-004
-5.165638e-004,-6.243373e-004
-4.309934e-004,-2.964792e-004
-3.167374e-004,1.112771e-004
-8.790117e-005,5.587396e-004
2.778803e-004,1.021274e-003
7.352289e-004,1.483810e-003
1.197764e-003,1.930463e-003
1.573594e-003,2.339031e-003
1.799514e-003,2.697846e-003
1.864016e-003,3.001234e-003
1.799838e-003,3.213217e-003
1.665161e-003,3.248385e-003
1.533240e-003,3.021654e-003
1.463065e-003,2.522328e-003
1.484458e-003,1.842947e-003
1.581697e-003,1.130507e-003
1.723181e-003,5.326470e-004
1.875847e-003,1.402868e-004
2.003879e-003,-3.685060e-005
2.091556e-003,-5.305713e-005
2.166431e-003,1.452411e-005
2.284577e-003,9.101894e-005
2.497856e-003,1.291043e-004
2.819882e-003,1.184080e-004
3.221483e-003,7.254349e-005
3.613197e-003,1.241726e-005
3.885632e-003,-4.625038e-005
3.964721e-003,-9.697683e-005
3.809947e-003,-1.349001e-004
3.387763e-003,-1.575893e-004
2.676129e-003,-1.663408e-004
1.702436e-003,-1.655305e-004
5.660325e-004,-1.676373e-004
-6.447575e-004,-1.825473e-004
-1.894443e-003,-2.146363e-004
-3.222409e-003,-2.621213e-004
-4.706126e-003,-3.251648e-004
-4.968512e-003,-4.049009e-004
-4.968188e-003,-5.023021e-004
-4.968512e-003,-6.193133e-004
-4.968512e-003,-7.523688e-004
-4.968350e-003,-8.828315e-004
-4.968512e-003,-9.849326e-004
-4.623147e-003,-1.038738e-003
-1.987793e-003,-1.038252e-003
3.375204e-004,-9.860670e-004
1.935811e-003,-8.825073e-004
2.675643e-003,-7.296797e-004
2.597365e-003,-5.407116e-004
1.858506e-003,-3.339163e-004
8.101031e-004,-1.251762e-004
-9.568031e-005,6.589881e-005
-5.201293e-004,2.201850e-004
-4.211074e-004,3.303894e-004
-8.327101e-006,3.987811e-004
4.096394e-004,4.305459e-004
6.049282e-004,4.303838e-004
5.060683e-004,3.913261e-004
1.832341e-004,2.892249e-004
-2.243602e-004,9.588091e-005
-5.646973e-004,-2.002124e-004
-7.282211e-004,-5.797693e-004
-6.744154e-004,-9.943324e-004
-4.253211e-004,-1.376806e-003
-3.636440e-005,-1.664959e-003
4.132049e-004,-1.821514e-003
8.207994e-004,-1.839827e-003
1.092907e-003,-1.738698e-003
1.196629e-003,-1.544544e-003
1.161785e-003,-1.285726e-003
1.047529e-003,-9.948185e-004
9.055596e-004,-7.005080e-004
7.773659e-004,-4.196489e-004
6.869333e-004,-1.608306e-004
6.229175e-004,6.687121e-005
5.331332e-004,2.538946e-004
3.462718e-004,3.879227e-004
5.325772e-005,4.645796e-004
-2.452666e-004,5.036374e-004
-4.159214e-004,5.404262e-004
-3.867496e-004,6.031455e-004
-1.838438e-004,6.892023e-004
9.831188e-005,7.741245e-004
3.568061e-004,8.287407e-004
5.305402e-004,8.336026e-004
6.104385e-004,7.854691e-004
6.235657e-004,6.917953e-004
6.151384e-004,5.720290e-004
6.256726e-004,4.498317e-004
6.883920e-004,3.487029e-004
8.412196e-004,2.835526e-004
1.114300e-003,2.581083e-004
1.500340e-003,2.632944e-004
1.944563e-003,2.840388e-004
2.365286e-003,3.065659e-004
2.679694e-003,3.169380e-004
2.841437e-003,3.010556e-004
2.838519e-003,2.487085e-004
2.672887e-003,1.624898e-004
2.338869e-003,5.682316e-005
1.859154e-003,-4.462973e-005
1.320448e-003,-1.191798e-004
8.421920e-004,-1.536997e-004
5.182233e-004,-1.522411e-004
3.595612e-004,-1.324691e-004
2.785285e-004,-1.120489e-004
1.323456e-004,-1.005423e-004
-2.088019e-004,-9.098041e-005
-8.440978e-004,-6.423963e-005
-1.745991e-003,-5.409925e-006
-2.701854e-003,8.631905e-005
-3.388527e-003,1.986303e-004
-3.552699e-003,3.154794e-004
-3.116418e-003,4.284390e-004
-2.205447e-003,5.305402e-004
-1.079417e-003,6.190279e-004
1.484824e-005,6.982779e-004
9.280868e-004,7.702350e-004
1.566139e-003,8.199891e-004
1.841651e-003,8.185305e-004
1.714267e-003,7.490044e-004
1.224829e-003,6.175694e-004
4.843516e-004,4.506420e-004
-3.815635e-004,2.853353e-004
-1.245047e-003,1.519555e-004
-1.952787e-003,6.233338e-005
-2.368161e-003,8.689758e-006
-2.456811e-003,-2.469570e-005
-2.343041e-003,-5.289507e-005
-2.291179e-003,-8.368748e-005
-2.486306e-003,-1.204763e-004
-2.862137e-003,-1.635857e-004
-3.195020e-003,-2.079916e-004
-3.276701e-003,-2.507768e-004
-3.017396e-003,-2.895104e-004
-2.459242e-003,-3.207890e-004
-1.745019e-003,-3.389403e-004
-1.052190e-003,-3.395886e-004
-5.120260e-004,-3.250027e-004
-1.511067e-004,-3.050687e-004
8.259155e-005,-2.899966e-004
2.561635e-004,-2.872415e-004
3.997535e-004,-2.980999e-004
5.078511e-004,-3.146305e-004
5.728393e-004,-3.267854e-004
6.070351e-004,-3.353749e-004
6.488480e-004,-3.476919e-004
7.392805e-004,-3.716775e-004
8.971323e-004,-4.047388e-004
1.100687e-003,-4.358554e-004
1.306834e-003,-4.455793e-004
1.475706e-003,-4.262935e-004
1.584290e-003,-3.890185e-004
1.635179e-003,-3.553089e-004
1.642958e-003,-3.455850e-004
1.633072e-003,-3.637363e-004
1.629993e-003,-4.029561e-004
1.639555e-003,-4.459034e-004
1.641824e-003,-4.757234e-004
1.619134e-003,-4.822060e-004
1.579915e-003,-4.648651e-004
1.540857e-003,-4.274280e-004
1.503744e-003,-3.673017e-004
1.460958e-003,-2.729798e-004
1.411042e-003,-1.308485e-004
1.363719e-003,5.893001e-005
1.334709e-003,2.628082e-004
1.325471e-003,4.287631e-004
1.325796e-003,5.003960e-004
1.319799e-003,4.435111e-004
1.306834e-003,2.717218e-004
1.319151e-003,3.915804e-005
1.403425e-003,-1.940539e-004
1.591259e-003,-4.006872e-004
1.856885e-003,-5.893312e-004
2.105980e-003,-7.899680e-004
2.209216e-003,-1.015725e-003
2.007444e-003,-1.248775e-003
1.359829e-003,-1.445198e-003
3.472443e-004,-1.539520e-003
-6.937013e-004,-1.472263e-003
-1.383775e-003,-1.224951e-003
-1.541951e-003,-8.340498e-004
-1.246992e-003,-3.472056e-004
-7.674409e-004,2.031682e-004
-3.653570e-004,7.982723e-004
-1.608306e-004,1.410394e-003
-1.305243e-004,1.994155e-003
-1.760647e-004,2.508390e-003
-2.029675e-004,2.925873e-003
-1.776853e-004,3.223913e-003
-1.178833e-004,3.381928e-003
-3.879538e-005,3.381766e-003
7.691926e-005,3.232665e-003
2.127300e-004,2.967524e-003
2.830664e-004,2.610492e-003
2.075439e-004,2.162703e-003
-6.180866e-005,1.637610e-003
-5.206155e-004,1.083021e-003
-1.094651e-003,5.728393e-004
-1.629304e-003,1.756171e-004
-1.957973e-003,-7.736692e-005
-2.011130e-003,-2.018331e-004
-1.868675e-003,-2.428356e-004
-1.683434e-003,-2.452666e-004
-1.534658e-003,-2.449425e-004
-1.441795e-003,-2.605007e-004
-1.442605e-003,-3.018274e-004
-1.632708e-003,-3.677880e-004
-2.086815e-003,-4.517378e-004
-2.719357e-003,-5.392530e-004
-3.271029e-003,-6.170443e-004
-3.445412e-003,-6.791154e-004
-3.049809e-003,-7.291936e-004
-2.115176e-003,-7.701961e-004
-9.402025e-004,-8.037436e-004
-2.064406e-005,-8.308084e-004
1.222976e-004,-8.481495e-004
-7.885094e-004,-8.536596e-004
-2.494410e-003,-8.419910e-004
-4.301445e-003,-8.073090e-004
-4.968512e-003,-7.483172e-004
-4.968350e-003,-6.698776e-004
-4.968512e-003,-5.776625e-004
-3.984767e-003,-4.802613e-004
-2.551943e-003,-3.823738e-004
-1.184597e-003,-2.896725e-004
-6.569822e-005,-2.049123e-004
7.368495e-004,-1.267968e-004
1.266642e-003,-5.986387e-005
1.627562e-003,-1.610624e-005
1.903074e-003,-1.059602e-005
2.128021e-003,-4.349527e-005
2.304997e-003,-1.052422e-004
2.437892e-003,-1.810887e-004
2.531890e-003,-2.569353e-004
2.581482e-003,-3.212752e-004
2.587479e-003,-3.698948e-004
2.568841e-003,-4.081422e-004
2.546638e-003,-4.425001e-004
2.533997e-003,-4.815578e-004
2.547448e-003,-5.326084e-004
2.574027e-003,-5.987309e-004
2.556362e-003,-6.736051e-004
2.448750e-003,-7.479931e-004
2.283118e-003,-8.063366e-004
2.163028e-003,-8.338877e-004
2.191227e-003,-8.225431e-004
2.400292e-003,-7.765166e-004
2.721507e-003,-6.975908e-004
3.005123e-003,-5.954896e-004
3.096853e-003,-4.849611e-004
2.898808e-003,-3.728119e-004
2.415688e-003,-2.543422e-004
1.756404e-003,-1.206384e-004
1.080590e-003,2.878586e-005
5.107683e-004,1.820997e-004
1.020394e-004,3.203414e-004
-1.540238e-004,4.365423e-004
-3.076617e-004,5.405883e-004
-4.266177e-004,6.345862e-004
-5.475183e-004,7.068674e-004
-6.544815e-004,7.397667e-004
-7.061802e-004,7.255049e-004
-6.599916e-004,6.731578e-004
-4.873921e-004,6.068730e-004
-1.940539e-004,5.491778e-004
1.739964e-004,5.200059e-004
5.576051e-004,5.250300e-004
8.869221e-004,5.542018e-004
1.090152e-003,5.851563e-004
1.131317e-003,5.841838e-004
1.025812e-003,5.127130e-004
8.467299e-004,3.444891e-004
6.815852e-004,8.129502e-005
5.849942e-004,-2.347323e-004
5.960147e-004,-5.313118e-004
7.303669e-004,-7.342176e-004
9.767064e-004,-7.967748e-004
1.286414e-003,-7.176869e-004
1.535347e-003,-5.264499e-004
1.489968e-003,-2.621213e-004
8.629364e-004,3.915804e-005
-4.719959e-004,3.425444e-004
-2.202368e-003,6.208107e-004
-3.738589e-003,8.590469e-004
-4.571934e-003,1.049960e-003
-4.482474e-003,1.187230e-003
-3.598564e-003,1.264211e-003
-2.306414e-003,1.274259e-003
-1.046355e-003,1.227584e-003
-1.540238e-004,1.154816e-003
2.453052e-004,1.086101e-003
2.461155e-004,1.028892e-003
3.202716e-005,9.567724e-004
-2.314910e-004,8.311716e-004
-4.403932e-004,6.281036e-004
-5.504355e-004,3.499994e-004
-5.693972e-004,2.667901e-005
-5.358497e-004,-2.968033e-004
-5.206155e-004,-5.750695e-004
-6.019723e-004,-7.779752e-004
-8.111986e-004,-8.943381e-004
-1.044248e-003,-9.367992e-004
-1.113288e-003,-9.303166e-004
-8.758627e-004,-9.004966e-004
-2.887001e-004,-8.638698e-004
5.780254e-004,-8.248120e-004
1.536643e-003,-7.779752e-004
2.370796e-003,-7.176869e-004
2.908370e-003,-6.423265e-004
3.054230e-003,-5.522182e-004
2.795410e-003,-4.507654e-004
2.197061e-003,-3.447747e-004
1.387705e-003,-2.478596e-004
5.203301e-004,-1.707166e-004
-2.454286e-004,-1.206384e-004
-7.849440e-004,-9.697683e-005
-1.078282e-003,-9.730096e-005
-1.183300e-003,-1.227452e-004
-1.184759e-003,-1.692580e-004
-1.188973e-003,-2.271153e-004
-1.313439e-003,-2.812451e-004
-1.618932e-003,-3.172236e-004
-2.085032e-003,-3.201407e-004
-2.639945e-003,-2.807589e-004
-3.191779e-003,-2.002124e-004
-3.634543e-003,-8.919769e-005
-3.820594e-003,3.737532e-005
-3.620767e-003,1.684862e-004
-3.034737e-003,2.966799e-004
-2.231864e-003,4.166082e-004
-1.472425e-003,5.235714e-004
-9.638641e-004,6.047662e-004
-7.372968e-004,6.543582e-004
-6.573986e-004,6.666752e-004
-5.775004e-004,6.326414e-004
-4.663236e-004,5.514466e-004
-4.326141e-004,4.341113e-004
-6.723086e-004,3.038107e-004
-1.325108e-003,1.817755e-004
-2.263142e-003,8.567078e-005
-3.099077e-003,2.392390e-005
-3.407974e-003,-5.409925e-006
-2.981093e-003,-1.043395e-005
-1.913405e-003,4.244267e-007
-5.095950e-004,2.019640e-005
8.493229e-004,4.564065e-005
1.901129e-003,8.242948e-005
2.615840e-003,1.318594e-004
3.067357e-003,1.911753e-004
3.299598e-003,2.478982e-004
3.282257e-003,2.861456e-004
2.973359e-003,2.947351e-004
2.426385e-003,2.621599e-004
1.776176e-003,1.754550e-004
1.156275e-003,3.607880e-005
6.297242e-004,-1.339277e-004
2.043026e-004,-3.042584e-004
-9.017008e-005,-4.541688e-004
-1.887058e-004,-5.852795e-004
-2.712668e-005,-7.039114e-004
4.298976e-004,-8.056884e-004
1.154330e-003,-8.810487e-004
2.042288e-003,-9.095722e-004
2.956017e-003,-8.794281e-004
3.760354e-003,-7.851060e-004
4.338448e-003,-6.269303e-004
4.599863e-003,-4.143007e-004
4.501974e-003,-1.549962e-004
4.089837e-003,1.370455e-004
3.495861e-003,4.286011e-004
2.888598e-003,6.716992e-004
2.404182e-003,8.314957e-004
2.095608e-003,9.041011e-004
1.910529e-003,9.076665e-004
1.755756e-003,8.663398e-004
1.579428e-003,8.026481e-004
1.374253e-003,7.313393e-004
1.142662e-003,6.621373e-004
8.990770e-004,5.953664e-004
6.567892e-004,5.180612e-004
4.157979e-004,4.089912e-004
1.741585e-004,2.563256e-004
-4.689865e-005,6.103686e-005
-1.874093e-004,-1.601823e-004
-1.569410e-004,-3.801049e-004
8.729144e-005,-5.711799e-004
4.905101e-004,-7.065044e-004
9.583930e-004,-7.724650e-004
1.382032e-003,-7.753822e-004
1.655275e-003,-7.316245e-004
1.695954e-003,-6.543194e-004
1.498720e-003,-5.437909e-004
1.144282e-003,-4.014975e-004
6.994124e-004,-2.344082e-004
1.738343e-004,-5.354332e-005
-4.395829e-004,1.308870e-004
-1.178925e-003,3.089969e-004
-2.131545e-003,4.713863e-004
-3.318676e-003,6.028214e-004
-4.580686e-003,6.807749e-004
-4.968350e-003,6.791542e-004
-4.968512e-003,5.648981e-004
-4.968512e-003,3.239069e-004
-4.870461e-003,-3.085418e-005
-3.225164e-003,-4.655133e-004
-1.324459e-003,-9.230236e-004
3.451374e-004,-1.340666e-003
1.373767e-003,-1.656855e-003
1.710702e-003,-1.837072e-003
1.544098e-003,-1.877751e-003
1.173778e-003,-1.774353e-003
9.003736e-004,-1.508242e-003
8.611537e-004,-1.074555e-003
9.468864e-004,-5.138087e-004
8.887049e-004,9.944634e-005
4.384871e-004,6.900126e-004
-4.663236e-004,1.213322e-003
-1.631735e-003,1.653168e-003
-2.796338e-003,2.004851e-003
-3.810385e-003,2.281336e-003
-4.633843e-003,2.524759e-003
-4.968512e-003,2.769641e-003
-4.968512e-003,3.003503e-003
-4.968674e-003,3.155683e-003
-4.343906e-003,3.133156e-003
-3.386095e-003,2.877253e-003
-2.436390e-003,2.397375e-003
-1.685379e-003,1.769369e-003
-1.213121e-003,1.101659e-003
-9.713190e-004,5.018546e-004
-8.262706e-004,4.045456e-005
-6.168823e-004,-2.635799e-004
-2.355427e-004,-4.365036e-004
3.154794e-004,-5.223983e-004
9.143112e-004,-5.596732e-004
1.351726e-003,-5.757177e-004
1.434704e-003,-5.870623e-004
1.126293e-003,-6.035930e-004
5.713807e-004,-6.327647e-004
-9.623623e-006,-6.745775e-004
-4.100870e-004,-7.157421e-004
-4.917679e-004,-7.413484e-004
-1.903264e-004,-7.475069e-004
4.431870e-004,-7.379451e-004
1.226287e-003,-7.201179e-004
1.920415e-003,-6.967805e-004
2.343569e-003,-6.674466e-004
2.442429e-003,-6.327647e-004
2.292032e-003,-5.967862e-004
2.032889e-003,-5.650214e-004
1.786548e-003,-5.429805e-004
1.611841e-003,-5.311498e-004
1.498234e-003,-5.262878e-004
1.387381e-003,-5.236948e-004
1.229367e-003,-5.206155e-004
1.034078e-003,-5.191569e-004
8.580745e-004,-5.227224e-004
7.694247e-004,-5.272602e-004
8.251752e-004,-5.246671e-004
1.057901e-003,-5.134846e-004
1.439242e-003,-4.956574e-004
1.867419e-003,-4.708614e-004
2.212620e-003,-4.423380e-004
2.386192e-003,-4.134903e-004
2.382951e-003,-3.869116e-004
2.257998e-003,-3.630881e-004
2.068543e-003,-3.446126e-004
1.843758e-003,-3.293785e-004
1.580077e-003,-3.167374e-004
1.260969e-003,-3.016653e-004
8.934048e-004,-2.830278e-004
5.089855e-004,-2.609869e-004
1.346145e-004,-2.378116e-004
-1.979435e-004,-2.139880e-004
-4.459034e-004,-1.972953e-004
-5.728005e-004,-1.908126e-004
-5.624284e-004,-1.961608e-004
-4.073319e-004,-2.135018e-004
-1.037836e-004,-2.436459e-004
3.102934e-004,-2.836761e-004
7.562974e-004,-3.321336e-004
1.141851e-003,-3.849669e-004
1.394025e-003,-4.353692e-004
1.460958e-003,-4.771820e-004
1.284145e-003,-5.065158e-004
8.284165e-004,-5.120260e-004
1.093323e-004,-4.870680e-004
-7.677651e-004,-4.345588e-004
-1.581333e-003,-3.551469e-004
-2.102859e-003,-2.488320e-004
-2.213064e-003,-1.139937e-004
-1.947115e-003,4.612685e-005
-1.459136e-003,2.219677e-004
-9.355026e-004,3.966742e-004
-5.225603e-004,5.572810e-004
-2.690902e-004,6.961711e-004
-1.305243e-004,8.081583e-004
-2.550602e-005,8.846532e-004
1.331559e-004,9.251696e-004
4.156358e-004,9.391072e-004
8.292268e-004,9.405658e-004
1.330658e-003,9.366762e-004
1.830792e-003,9.190111e-004
2.201275e-003,8.653674e-004
2.289439e-003,7.567836e-004
1.919767e-003,6.003904e-004
9.742755e-004,4.245494e-004
-3.929081e-004,2.697770e-004
-1.692996e-003,1.691344e-004
-2.464428e-003,1.386662e-004
-2.516613e-003,1.688103e-004
-1.951004e-003,2.344468e-004
-1.057052e-003,3.091589e-004
-1.618029e-004,3.738230e-004
4.542074e-004,4.174185e-004
6.289139e-004,4.407560e-004
3.433547e-004,4.529109e-004
-3.220855e-004,4.593935e-004
-1.217334e-003,4.503179e-004
-2.177410e-003,4.049396e-004
-3.065529e-003,3.127243e-004
-3.745396e-003,1.885823e-004
-4.042463e-003,6.897806e-005
-3.776837e-003,-7.840905e-006
-2.895522e-003,-1.173047e-005
-1.591381e-003,6.249545e-005
-2.558008e-004,1.940925e-004
6.956849e-004,3.516200e-004
1.057091e-003,5.073649e-004
8.861118e-004,6.391241e-004
3.888950e-004,7.323117e-004
-1.653684e-004,7.729901e-004
-5.541630e-004,7.443045e-004
-7.005080e-004,6.326414e-004
-6.710121e-004,4.376768e-004
-5.684248e-004,1.879340e-004
-4.282383e-004,-7.558420e-005
-2.120432e-004,-3.113892e-004
1.581140e-004,-4.933886e-004
7.404150e-004,-6.217443e-004
1.463876e-003,-7.168766e-004
2.119108e-003,-7.904542e-004
2.464470e-003,-8.377773e-004
2.371769e-003,-8.426392e-004
1.897077e-003,-7.962886e-004
1.283821e-003,-7.018045e-004
8.358715e-004,-5.702075e-004
7.264773e-004,-4.248349e-004
8.987529e-004,-3.023136e-004
1.113976e-003,-2.272773e-004
1.106035e-003,-2.029675e-004
7.556491e-004,-2.169052e-004
1.529279e-004,-2.457528e-004
-5.087847e-004,-2.655248e-004
-1.094003e-003,-2.582318e-004
-1.575498e-003,-2.238740e-004
-1.973693e-003,-1.741199e-004
-2.332020e-003,-1.277692e-004
-2.703474e-003,-9.616651e-005
-3.048188e-003,-7.769106e-005
-3.202637e-003,-6.926366e-005
-3.027119e-003,-7.363943e-005
-2.521151e-003,-9.211487e-005
-1.797852e-003,-1.173971e-004
-1.000653e-003,-1.389517e-004
-2.536940e-004,-1.433275e-004
3.462718e-004,-1.235555e-004
7.528940e-004,-8.077030e-005
9.911302e-004,-2.664048e-005
1.139744e-003,2.959619e-005
1.314127e-003,8.793970e-005
1.589963e-003,1.449867e-004
1.956069e-003,1.950649e-004
2.363017e-003,2.347709e-004
2.757810e-003,2.608634e-004
3.082105e-003,2.702632e-004
3.284688e-003,2.598910e-004
3.347246e-003,2.321778e-004
3.264754e-003,1.965235e-004
3.015658e-003,1.582761e-004
2.583589e-003,1.172735e-004
1.995775e-003,6.784360e-005
1.319313e-003,-7.100305e-007
6.465791e-004,-1.020008e-004
6.152305e-005,-2.433218e-004
-4.027940e-004,-4.096008e-004
-7.656582e-004,-5.740970e-004
-1.089951e-003,-7.058561e-004
-1.440498e-003,-7.854302e-004
-1.795745e-003,-7.972610e-004
-2.017937e-003,-7.384312e-004
-1.954894e-003,-6.107238e-004
-1.564154e-003,-4.217557e-004
-9.471713e-004,-1.862748e-004
-2.992343e-004,6.995045e-005
1.762653e-004,3.239069e-004
3.770643e-004,5.629533e-004
3.506476e-004,7.793107e-004
2.193747e-004,9.640653e-004
7.416415e-005,1.112031e-003
-6.067420e-005,1.224829e-003
-1.948643e-004,1.299541e-003
-3.446126e-004,1.322230e-003
-5.104054e-004,1.268911e-003
-6.575607e-004,1.121593e-003
-7.275729e-004,8.820602e-004
-6.488092e-004,5.854804e-004
-3.570916e-004,2.757735e-004
1.589243e-004,-1.967167e-005
8.251752e-004,-2.974516e-004
1.509416e-003,-5.681007e-004
2.067895e-003,-8.330774e-004
2.367069e-003,-1.075041e-003
2.306618e-003,-1.250395e-003
1.872281e-003,-1.309063e-003
1.167782e-003,-1.217010e-003
3.645853e-004,-9.752086e-004
-3.721637e-004,-6.215822e-004
-9.176755e-004,-2.062088e-004
-1.212958e-003,2.153231e-004
-1.243103e-003,5.918010e-004
-9.951427e-004,8.846532e-004
-4.985746e-004,1.076539e-003
1.159770e-004,1.174588e-003
6.297242e-004,1.196305e-003
7.885484e-004,1.161137e-003
4.443214e-004,1.075080e-003
-2.624455e-004,9.428347e-004
-9.214030e-004,7.820658e-004
-1.150563e-003,6.277795e-004
-8.248120e-004,5.114165e-004
-1.088076e-004,4.354078e-004
6.619753e-004,3.733368e-004
1.178640e-003,2.924662e-004
1.276852e-003,1.751309e-004
9.588792e-004,3.283749e-005
3.794953e-004,-1.104282e-004
-2.314910e-004,-2.339220e-004
-6.731189e-004,-3.285682e-004
-8.346980e-004,-3.958252e-004
-7.013183e-004,-4.449310e-004
-3.493125e-004,-4.823681e-004
8.016057e-005,-5.097571e-004
4.261701e-004,-5.274223e-004
5.601982e-004,-5.384427e-004
4.295735e-004,-5.450874e-004
7.772959e-005,-5.481666e-004
-3.664914e-004,-5.433047e-004
-7.358382e-004,-5.301774e-004
-8.872072e-004,-5.089468e-004
-7.706822e-004,-4.851232e-004
-4.506033e-004,-4.729683e-004
-5.856735e-005,-4.784786e-004
2.842008e-004,-4.948471e-004
5.018546e-004,-5.061917e-004
5.614947e-004,-4.969540e-004
4.689553e-004,-4.621100e-004
2.744769e-004,-4.149489e-004
4.061663e-005,-3.741085e-004
-2.180396e-004,-3.462333e-004
-5.813900e-004,-3.209511e-004
-1.147160e-003,-2.793003e-004
-1.883099e-003,-2.050744e-004
-2.594728e-003,-9.081835e-005
-3.049485e-003,5.893001e-005
-3.107990e-003,2.307193e-004
-2.786938e-003,4.049396e-004
-2.270273e-003,5.710566e-004
-1.787966e-003,7.243705e-004
-1.460918e-003,8.661778e-004
-1.253961e-003,9.956681e-004
-1.024801e-003,1.091773e-003
-6.441093e-004,1.120459e-003
-1.196660e-004,1.050932e-003
4.002396e-004,8.781706e-004
7.392805e-004,6.242140e-004
8.086445e-004,3.235827e-004
6.516031e-004,2.214118e-005
3.932708e-004,-2.374874e-004
1.532520e-004,-4.353692e-004
-6.868513e-006,-5.708557e-004
-8.044617e-005,-6.501057e-004
-9.179074e-005,-6.862463e-004
-8.174268e-005,-6.898117e-004
-9.227693e-005,-6.739292e-004
-1.506204e-004,-6.465403e-004
-2.348944e-004,-6.026206e-004
-2.561249e-004,-5.243430e-004
-1.321450e-004,-4.003631e-004
1.318594e-004,-2.361909e-004
4.743035e-004,-4.884343e-005
8.498091e-004,1.393144e-004
1.209595e-003,3.109416e-004
1.463551e-003,4.632831e-004
1.511847e-003,5.960147e-004
1.302296e-003,7.049226e-004
8.810877e-004,7.770417e-004
4.026706e-004,7.942207e-004
7.400208e-005,7.396046e-004
3.218923e-005,6.050903e-004
2.430362e-004,4.096394e-004
5.376711e-004,2.021958e-004
7.397667e-004,3.867184e-005
7.237222e-004,-5.597430e-005
4.174185e-004,-9.162867e-005
-1.036215e-004,-1.041077e-004
-5.621043e-004,-1.310105e-004
-6.937013e-004,-1.890299e-004
-4.335865e-004,-2.802727e-004
1.013911e-004,-4.034423e-004
7.256670e-004,-5.544871e-004
1.288683e-003,-7.270867e-004
1.701464e-003,-9.145963e-004
1.933380e-003,-1.108588e-003
1.974059e-003,-1.298853e-003
1.811345e-003,-1.451681e-003
1.470844e-003,-1.512779e-003
1.034078e-003,-1.450546e-003
6.024973e-004,-1.277785e-003
2.607014e-004,-1.046031e-003
4.839576e-005,-8.030953e-004
-4.300908e-005,-5.685869e-004
-5.046408e-005,-3.384541e-004
-7.354709e-006,-1.036215e-004
7.562274e-005,1.500107e-004
2.060853e-004,4.401077e-004
3.968363e-004,7.597008e-004
6.645683e-004,1.063574e-003
1.018681e-003,1.289169e-003
1.442483e-003,1.395808e-003
1.897564e-003,1.391919e-003
2.315856e-003,1.323365e-003
2.613409e-003,1.230825e-003
2.715997e-003,1.122727e-003
2.592665e-003,9.908061e-004
2.272908e-003,8.366818e-004
1.831603e-003,6.728336e-004
1.343299e-003,5.201680e-004
8.619640e-004,3.963501e-004
4.209840e-004,3.106175e-004
3.364782e-005,2.594049e-004
-2.953447e-004,2.302331e-004
-5.674524e-004,2.119197e-004
-7.964507e-004,1.918236e-004
-9.953048e-004,1.658931e-004
-1.174225e-003,1.367214e-004
-1.355738e-003,1.138702e-004
-1.570312e-003,1.098185e-004
-1.811466e-003,1.333180e-004
-2.010482e-003,1.782101e-004
-2.074498e-003,2.363916e-004
-1.947115e-003,2.987867e-004
-1.669821e-003,3.564820e-004
-1.346176e-003,3.992672e-004
-1.051055e-003,4.217943e-004
-7.919128e-004,4.243874e-004
-5.189948e-004,4.049396e-004
-1.959987e-004,3.574544e-004
1.506590e-004,2.713977e-004
4.668485e-004,1.445005e-004
7.337703e-004,-1.545797e-005
1.000530e-003,-1.914609e-004
1.324661e-003,-3.579019e-004
1.713943e-003,-4.833405e-004
2.097877e-003,-5.473563e-004
2.312290e-003,-5.465460e-004
2.182313e-003,-4.927403e-004
1.657382e-003,-3.984183e-004
7.935724e-004,-2.703867e-004
-3.258130e-004,-1.199901e-004
-1.506459e-003,3.364782e-005
-2.498623e-003,1.636242e-004
-3.154503e-003,2.453052e-004
-3.515424e-003,2.566497e-004
-3.760306e-003,1.944166e-004
-4.058508e-003,7.967438e-005
-4.426723e-003,-4.430560e-005
-4.737890e-003,-1.340898e-004
-4.883589e-003,-1.707166e-004
-4.856848e-003,-1.708786e-004
-4.686029e-003,-1.639098e-004
-4.361896e-003,-1.747682e-004
-3.859328e-003,-2.083157e-004
-3.195344e-003,-2.494803e-004
-2.440604e-003,-2.734659e-004
-1.687648e-003,-2.635799e-004
-1.018318e-003,-2.125294e-004
-4.869059e-004,-1.229073e-004
-9.600444e-005,-1.254080e-005
1.876099e-004,9.361199e-005
4.190393e-004,1.739964e-004
6.496583e-004,2.120818e-004
9.016701e-004,1.996027e-004
1.175399e-003,1.462832e-004
1.463065e-003,7.254349e-005
1.738901e-003,-3.627206e-006
1.963038e-003,-7.444975e-005
2.096742e-003,-1.329553e-004
2.130452e-003,-1.788198e-004
2.067895e-003,-2.156086e-004
1.925115e-003,-2.436459e-004
1.734039e-003,-2.598524e-004
1.545395e-003,-2.664971e-004
1.397753e-003,-2.647144e-004
1.316072e-003,-2.562870e-004
1.323203e-003,-2.421874e-004
1.445886e-003,-2.254946e-004
1.709081e-003,-2.122053e-004
2.120404e-003,-2.045882e-004
2.656681e-003,-1.942160e-004
3.248385e-003,-1.747682e-004
3.773320e-003,-1.446240e-004
4.072982e-003,-1.037836e-004
4.004428e-003,-5.338126e-005
3.492458e-003,1.558884e-006
2.585858e-003,5.536457e-005
1.461931e-003,1.033359e-004
3.527545e-004,1.378558e-004
-5.614560e-004,1.514693e-004
-1.220413e-003,1.451488e-004
-1.679383e-003,1.300767e-004
-2.029120e-003,1.214872e-004
-2.298797e-003,1.276457e-004
-2.449031e-003,1.514693e-004
-2.412080e-003,1.880961e-004
-2.131383e-003,2.234263e-004
-1.593002e-003,2.464396e-004
-8.970932e-004,2.587566e-004
-2.538560e-004,2.670219e-004
1.613553e-004,2.764217e-004
3.514580e-004,2.861456e-004
5.238955e-004,2.937627e-004
9.389452e-004,2.950592e-004
1.713295e-003,2.955454e-004
2.736580e-003,3.028383e-004
3.745444e-003,3.166139e-004
4.465833e-003,3.300653e-004
4.730328e-003,3.407616e-004
4.519153e-003,3.467581e-004
3.916911e-003,3.417340e-004
3.071895e-003,3.162898e-004
2.157841e-003,2.576221e-004
1.343623e-003,1.516314e-004
7.637524e-004,-1.724069e-005
4.699278e-004,-2.611490e-004
4.154738e-004,-5.716661e-004
5.007202e-004,-9.246443e-004
5.960147e-004,-1.282485e-003
5.128751e-004,-1.599970e-003
5.277153e-005,-1.841610e-003
-8.158985e-004,-1.986983e-003
-1.837558e-003,-2.027985e-003
-2.674789e-003,-1.961214e-003
-3.162283e-003,-1.776298e-003
-3.358220e-003,-1.466104e-003
-3.419805e-003,-1.048786e-003
-3.450111e-003,-5.648594e-004
-3.435201e-003,-5.856735e-005
-3.280266e-003,4.427008e-004
-2.913512e-003,9.287350e-004
-2.374157e-003,1.391270e-003
-1.820866e-003,1.815072e-003
-1.448601e-003,2.186203e-003
-1.372107e-003,2.496884e-003
-1.556699e-003,2.733500e-003
-1.852144e-003,2.862181e-003
-2.108532e-003,2.834954e-003
-2.244667e-003,2.619730e-003
-2.237536e-003,2.233850e-003
-2.099456e-003,1.748625e-003
-1.861868e-003,1.259025e-003
-1.544544e-003,8.374922e-004
-1.142460e-003,5.076890e-004
-6.491333e-004,2.584324e-004
-8.093236e-005,6.427817e-005
5.075270e-004,-9.827335e-005
1.011550e-003,-2.397564e-004
1.333899e-003,-3.603330e-004
1.454800e-003,-4.569239e-004
1.459338e-003,-5.235327e-004
1.458690e-003,-5.619422e-004
1.501799e-003,-5.813900e-004
1.560791e-003,-5.925725e-004
1.537129e-003,-6.037550e-004
1.347350e-003,-6.129927e-004
1.024678e-003,-6.136410e-004
7.060571e-004,-6.005137e-004
5.284334e-004,-5.700454e-004
5.243817e-004,-5.225603e-004
6.394482e-004,-4.622720e-004
8.324682e-004,-3.920977e-004
1.087559e-003,-3.070135e-004
1.387543e-003,-2.036158e-004
1.692550e-003,-9.146661e-005
1.922198e-003,8.689758e-006
1.972276e-003,7.286763e-005
1.741818e-003,8.275361e-005
1.177344e-003,4.272347e-005
2.842008e-004,-3.344723e-005
-8.120089e-004,-1.314967e-004
-1.834479e-003,-2.493182e-004
-2.501379e-003,-3.927460e-004
-2.633624e-003,-5.627525e-004
-2.217926e-003,-7.413484e-004
-1.451356e-003,-9.032516e-004
-6.988873e-004,-1.024152e-003
-3.703810e-004,-1.088006e-003
-7.452380e-004,-1.092058e-003
-1.769329e-003,-1.047328e-003
-2.989682e-003,-9.688881e-004
-3.788830e-003,-8.557665e-004
-3.763709e-003,-6.933771e-004
-2.905084e-003,-4.694029e-004
-1.549406e-003,-1.883817e-004
-1.507825e-004,1.297526e-004
9.280868e-004,4.558281e-004
1.562249e-003,7.582422e-004
1.829658e-003,1.012523e-003
1.872605e-003,1.206839e-003
1.830306e-003,1.342326e-003
1.798217e-003,1.418659e-003
1.794976e-003,1.426276e-003
1.804862e-003,1.352050e-003
1.842299e-003,1.191930e-003
1.952504e-003,9.595275e-004
2.150872e-003,6.744543e-004
2.383762e-003,3.665301e-004
2.548745e-003,7.546067e-005
2.517142e-003,-1.606685e-004
2.171941e-003,-3.228959e-004
1.456745e-003,-4.130042e-004
4.399457e-004,-4.473620e-004
-6.565883e-004,-4.454172e-004
-1.538548e-003,-4.198109e-004
-2.062019e-003,-3.770257e-004
-2.282266e-003,-3.193304e-004
-2.402194e-003,-2.514251e-004
-2.619200e-003,-1.806025e-004
-2.962131e-003,-1.135075e-004
-3.274108e-003,-6.229485e-005
-3.327104e-003,-3.409549e-005
-2.937821e-003,-1.869928e-005
-2.031064e-003,-3.789272e-006
-6.878669e-004,1.517237e-005
8.394370e-004,2.359977e-005
2.168862e-003,-1.682422e-006
3.027489e-003,-7.315322e-005
3.332336e-003,-1.849783e-004
3.215972e-003,-3.083100e-004
2.925711e-003,-4.131662e-004
2.656681e-003,-4.830164e-004
2.464470e-003,-5.172121e-004
2.325418e-003,-5.275843e-004
2.197872e-003,-5.240189e-004
2.070812e-003,-5.065158e-004
1.958662e-003,-4.655133e-004
1.856885e-003,-4.000390e-004
1.680882e-003,-3.240303e-004
1.265669e-003,-2.535319e-004
4.691174e-004,-1.985918e-004
-6.280648e-004,-1.668270e-004
-1.686675e-003,-1.579134e-004
-2.389229e-003,-1.739578e-004
-2.604452e-003,-2.123673e-004
-2.387933e-003,-2.622834e-004
-1.898657e-003,-2.989102e-004
-1.330132e-003,-3.003688e-004
-8.368049e-004,-2.617972e-004
-4.744269e-004,-1.890299e-004
-2.190120e-004,-9.875954e-005
-3.069211e-005,-9.947754e-006
9.588091e-005,6.217132e-005
1.114392e-004,1.073875e-004
-3.004385e-005,1.167873e-004
-2.805968e-004,9.118101e-005
-4.943609e-004,4.272347e-005
-5.175362e-004,-1.529591e-005
-2.867553e-004,-6.586029e-005
1.376938e-004,-8.465986e-005
6.046041e-004,-5.856735e-005
9.538552e-004,2.693341e-006
1.083994e-003,7.302970e-005
9.812443e-004,1.234320e-004
7.034640e-004,1.432040e-004
3.542131e-004,1.320215e-004
3.964424e-005,8.631905e-005
-1.778474e-004,2.045080e-006
-2.817312e-004,-1.237176e-004
-2.924276e-004,-2.955068e-004
-2.536940e-004,-4.958195e-004
-2.081536e-004,-6.945116e-004
-1.801163e-004,-8.512287e-004
-1.708786e-004,-9.189720e-004
-1.498101e-004,-8.565768e-004
-8.547019e-005,-6.523746e-004
2.700314e-005,-3.319715e-004
1.613553e-004,4.920609e-005
2.842008e-004,4.380009e-004
3.819262e-004,8.136685e-004
4.577728e-004,1.178802e-003
5.175750e-004,1.539884e-003
5.589016e-004,1.915553e-003
5.760806e-004,2.321366e-003
5.679773e-004,2.748735e-003
5.470709e-004,3.167838e-003
5.318367e-004,3.526654e-003
5.269747e-004,3.759220e-003
5.070407e-004,3.791147e-003
4.457800e-004,3.558419e-003
3.482167e-004,3.045964e-003
2.537325e-004,2.316018e-003
1.986303e-004,1.499854e-003
2.044647e-004,7.462493e-004
2.848491e-004,1.663793e-004
4.376768e-004,-1.989159e-004
6.328035e-004,-3.757291e-004
8.118858e-004,-4.321279e-004
8.985908e-004,-4.403932e-004
8.353853e-004,-4.520619e-004
6.191900e-004,-4.869059e-004
3.026763e-004,-5.418460e-004
-3.976777e-005,-6.047274e-004
-3.279199e-004,-6.648536e-004
-4.930644e-004,-7.212523e-004
-4.826922e-004,-7.791097e-004
-2.883759e-004,-8.449082e-004
-3.858999e-007,-9.239960e-004
2.268297e-004,-1.011835e-003
2.754493e-004,-1.099675e-003
1.190562e-004,-1.179087e-003
-1.862748e-004,-1.243427e-003
-5.580526e-004,-1.286212e-003
-9.473335e-004,-1.300636e-003
-1.317815e-003,-1.281188e-003
-1.629952e-003,-1.227058e-003
-1.868189e-003,-1.147160e-003
-2.068016e-003,-1.055917e-003
-2.294097e-003,-9.666192e-004
-2.583222e-003,-8.979035e-004
-2.921453e-003,-8.622491e-004
-3.256443e-003,-8.650042e-004
-3.507159e-003,-9.038999e-004
-3.595161e-003,-9.654847e-004
-3.477014e-003,-1.035659e-003
-3.173789e-003,-1.108588e-003
-2.769273e-003,-1.176980e-003
-2.346444e-003,-1.223493e-003
-1.928963e-003,-1.221062e-003
-1.497059e-003,-1.149591e-003
-1.022046e-003,-1.002922e-003
-4.911196e-004,-7.958024e-004
8.097089e-005,-5.595111e-004
6.561409e-004,-3.311612e-004
1.226125e-003,-1.426792e-004
1.820420e-003,-1.318906e-005
2.432057e-003,5.811968e-005
2.978059e-003,8.875003e-005
3.359077e-003,1.009049e-004
3.549992e-003,1.132219e-004
3.622111e-003,1.381800e-004
3.679321e-003,1.793446e-004
3.751603e-003,2.312055e-004
3.740582e-003,2.850112e-004
3.479331e-003,3.294171e-004
2.876767e-003,3.618301e-004
2.023165e-003,3.840331e-004
1.130345e-003,4.010500e-004
3.785229e-004,4.166082e-004
-1.844921e-004,4.350837e-004
-6.303337e-004,4.556660e-004
-1.068396e-003,4.754380e-004
-1.643404e-003,4.942376e-004
-2.465400e-003,5.141716e-004
-3.408137e-003,5.307022e-004
-4.124631e-003,5.362125e-004
-4.298852e-003,5.281092e-004
-3.853332e-003,5.110924e-004
-2.951435e-003,4.901859e-004
-1.865596e-003,4.660382e-004
-8.387497e-004,4.396215e-004
-1.124428e-005,4.062361e-004
5.905044e-004,3.590750e-004
1.006527e-003,2.978143e-004
1.269883e-003,2.268297e-004
1.401967e-003,1.495245e-004
1.441511e-003,6.735741e-005
1.442159e-003,-1.480971e-005
1.453341e-003,-9.017008e-005
1.508120e-003,-1.509446e-004
1.622376e-003,-1.916230e-004
1.786548e-003,-2.050744e-004
1.953152e-003,-1.849783e-004
2.061574e-003,-1.237176e-004
2.083940e-003,-2.194059e-005
2.023165e-003,1.127357e-004
1.890109e-003,2.655633e-004
1.717346e-003,4.188772e-004
1.547015e-003,5.550121e-004
1.401318e-003,6.556547e-004
1.289331e-003,7.122156e-004
1.220615e-003,7.315014e-004
1.217860e-003,7.214533e-004
1.287062e-003,6.802886e-004
1.366960e-003,5.947181e-004
1.343947e-003,4.566384e-004
1.148658e-003,2.816078e-004
7.900069e-004,1.013911e-004
3.376824e-004,-4.738484e-005
-8.822530e-005,-1.444620e-004
-3.311612e-004,-1.856265e-004
-3.133340e-004,-1.799543e-004
-1.344139e-004,-1.352242e-004
-4.851930e-005,-6.748094e-005
-3.024756e-004,2.369211e-006
-9.919014e-004,4.742337e-005
-2.011293e-003,4.126489e-005
-3.104587e-003,-3.749886e-005
-3.979257e-003,-1.919471e-004
-4.403547e-003,-3.964735e-004
-4.269356e-003,-5.925725e-004
-3.627898e-003,-7.105560e-004
-2.669279e-003,-6.988873e-004
-1.631897e-003,-5.505976e-004
-7.303280e-004,-2.934000e-004
-9.632857e-005,2.311357e-005
2.619979e-004,3.477304e-004
4.251977e-004,6.315070e-004
4.793275e-004,8.438127e-004
4.851619e-004,9.767064e-004
4.990995e-004,1.039750e-003
5.764047e-004,1.040722e-003
7.318255e-004,9.867544e-004
9.384590e-004,8.861118e-004
1.160165e-003,7.553250e-004
1.369715e-003,6.203245e-004
1.543612e-003,5.060683e-004
1.656410e-003,4.174185e-004
1.673913e-003,3.425444e-004
1.560305e-003,2.730183e-004
1.313479e-003,2.158093e-004
9.835132e-004,1.694586e-004
6.405826e-004,1.294284e-004
3.077003e-004,8.875003e-005
-7.526008e-005,4.483033e-005
-5.337428e-004,-2.238346e-007
-9.413370e-004,-4.381940e-005
-1.152346e-003,-7.898758e-005
-1.148132e-003,-1.049180e-004
-1.004543e-003,-1.280934e-004
-7.776510e-004,-1.536997e-004
-4.642168e-004,-1.838438e-004
-7.234290e-005,-2.143121e-004
3.470822e-004,-2.371633e-004
7.271256e-004,-2.483458e-004
1.017709e-003,-2.452666e-004
1.189174e-003,-2.311669e-004
1.225639e-003,-2.110708e-004
1.119324e-003,-1.932436e-004
8.831946e-004,-1.840059e-004
5.699221e-004,-1.859507e-004
2.717218e-004,-1.982676e-004
6.508849e-005,-2.191741e-004
-6.926366e-005,-2.462390e-004
-2.368392e-004,-2.794623e-004
-5.246671e-004,-3.164132e-004
-9.139480e-004,-3.473677e-004
-1.269681e-003,-3.580640e-004
-1.412461e-003,-3.425058e-004
-1.215065e-003,-3.015032e-004
-6.792775e-004,-2.494803e-004
5.325772e-005,-2.050744e-004
7.647247e-004,-1.843300e-004
1.261131e-003,-1.934057e-004
1.455124e-003,-2.350565e-004
1.396780e-003,-3.047445e-004
1.239901e-003,-3.891806e-004
1.123862e-003,-4.792889e-004
1.096311e-003,-5.697213e-004
1.111383e-003,-6.531850e-004
1.039102e-003,-7.181731e-004
7.327979e-004,-7.577171e-004
1.023635e-004,-7.622549e-004
-8.188156e-004,-7.209282e-004
-1.829779e-003,-6.230408e-004
-2.634110e-003,-4.695649e-004
-2.972665e-003,-2.810830e-004
-2.724543e-003,-8.757704e-005
-1.950680e-003,7.610894e-005
-8.522011e-004,1.754550e-004
3.023522e-004,1.778860e-004
1.262590e-003,6.330578e-005
1.901129e-003,-1.593720e-004
2.180693e-003,-4.518998e-004
2.150062e-003,-7.533412e-004
1.910205e-003,-9.964393e-004
1.557712e-003,-1.135167e-003
1.128238e-003,-1.150077e-003
6.243761e-004,-1.047490e-003
7.562274e-005,-8.559286e-004
-4.609755e-004,-6.078067e-004
-9.445783e-004,-3.245165e-004
-1.367569e-003,-1.626830e-005
-1.789425e-003,3.008936e-004
-2.322458e-003,6.028214e-004
-3.020313e-003,8.737948e-004
-3.778295e-003,1.105873e-003
-4.416675e-003,1.299703e-003
-4.787645e-003,1.463065e-003
-4.814062e-003,1.603900e-003
-4.462864e-003,1.728853e-003
-3.732106e-003,1.844082e-003
-2.667496e-003,1.951207e-003
-1.388637e-003,2.031916e-003
-4.365734e-005,2.038885e-003
1.189985e-003,1.910043e-003
2.137583e-003,1.615407e-003
2.668187e-003,1.186743e-003
2.681639e-003,7.028158e-004
2.115056e-003,2.581083e-004
1.091287e-003,-7.850138e-005
-1.853722e-005,-2.797865e-004
-8.081193e-004,-3.668155e-004
-1.111019e-003,-3.817256e-004
-1.006973e-003,-3.643846e-004
-6.760361e-004,-3.441264e-004
-2.564491e-004,-3.339163e-004
1.916615e-004,-3.267854e-004
6.462549e-004,-3.099306e-004
1.101497e-003,-2.733039e-004
1.541181e-003,-2.149604e-004
1.926573e-003,-1.436516e-004
2.207758e-003,-7.363943e-005
2.359452e-003,-2.177852e-005
2.386355e-003,1.883015e-006
2.311156e-003,-6.176923e-008
2.161245e-003,-1.302700e-005
1.967252e-003,-2.323711e-005
1.752028e-003,-2.242678e-005
1.536319e-003,-9.137427e-006
1.342488e-003,1.144487e-005
1.192416e-003,3.186510e-005
1.093394e-003,4.693717e-005
1.026785e-003,5.001642e-005
9.614723e-004,3.705119e-005
8.788189e-004,5.124321e-006
7.833623e-004,-3.992984e-005
6.921195e-004,-8.611845e-005
6.248623e-004,-1.180453e-004
6.076833e-004,-1.306864e-004
6.569512e-004,-1.329553e-004
7.835244e-004,-1.384655e-004
9.775168e-004,-1.556445e-004
1.194685e-003,-1.851404e-004
1.376036e-003,-2.191741e-004
1.476192e-003,-2.496423e-004
1.489806e-003,-2.724935e-004
1.442807e-003,-2.899966e-004
1.368905e-003,-3.081479e-004
1.268749e-003,-3.318095e-004
1.102145e-003,-3.643846e-004
8.541849e-004,-4.097628e-004
5.666808e-004,-4.637306e-004
3.164518e-004,-5.194810e-004
1.801549e-004,-5.671282e-004
1.770756e-004,-5.958138e-004
2.334744e-004,-6.056998e-004
2.060853e-004,-6.029447e-004
-6.456377e-005,-5.987309e-004
-6.539953e-004,-5.948414e-004
-1.463187e-003,-5.815520e-004
-2.239967e-003,-5.408737e-004
-2.718871e-003,-4.642168e-004
-2.745935e-003,-3.588744e-004
-2.332992e-003,-2.446183e-004
-1.643404e-003,-1.358725e-004
-9.123273e-004,-4.317115e-005
-4.091146e-004,3.218923e-005
-4.083043e-004,9.393612e-005
-1.017184e-003,1.457970e-004
-1.971910e-003,1.869616e-004
-2.763115e-003,2.172679e-004
-2.991789e-003,2.315296e-004
-2.603156e-003,2.206712e-004
-1.857817e-003,1.790204e-004
-1.109399e-003,1.088461e-004
-5.799314e-004,2.522042e-005
-2.791382e-004,-5.046408e-005
-1.128592e-004,-1.010285e-004
-2.816880e-006,-1.271210e-004
9.604298e-005,-1.368449e-004
2.018716e-004,-1.436516e-004
3.174242e-004,-1.530514e-004
4.733311e-004,-1.658546e-004
6.838542e-004,-1.780095e-004
8.893532e-004,-1.903264e-004
9.919406e-004,-2.047502e-004
9.084769e-004,-2.193361e-004
6.068730e-004,-2.303566e-004
1.114392e-004,-2.318152e-004
-4.870680e-004,-2.178775e-004
-1.031769e-003,-1.843300e-004
-1.334832e-003,-1.285796e-004
-1.247478e-003,-4.625038e-005
-7.462104e-004,6.589881e-005
6.096713e-006,2.031682e-004
7.248566e-004,3.582647e-004
1.171995e-003,5.243817e-004
1.228070e-003,6.956849e-004
8.645570e-004,8.634226e-004
1.291043e-004,1.013171e-003
-8.270809e-004,1.135531e-003
-1.770463e-003,1.230015e-003
-2.483227e-003,1.294355e-003
-2.801848e-003,1.320609e-003
-2.663930e-003,1.293545e-003
-2.147752e-003,1.202950e-003
-1.452977e-003,1.054174e-003
-8.181673e-004,8.746051e-004
-4.091146e-004,6.994124e-004
-2.386219e-004,5.556603e-004
-2.044261e-004,4.529109e-004
-1.765509e-004,3.871123e-004
-4.884343e-005,3.412479e-004
2.234263e-004,2.992729e-004
6.212969e-004,2.485465e-004
1.072649e-003,1.824238e-004
1.499044e-003,9.798775e-005
1.849754e-003,9.106227e-007
2.101280e-003,-9.632857e-005
2.257674e-003,-1.846542e-004
2.344055e-003,-2.559629e-004
2.361234e-003,-3.079858e-004
2.264967e-003,-3.342404e-004
1.984593e-003,-3.280820e-004
1.488348e-003,-2.791382e-004
8.697432e-004,-1.891920e-004
3.333067e-004,-7.493595e-005
5.309566e-005,4.320967e-005
6.444023e-005,1.482280e-004
2.550291e-004,2.252090e-004
4.149876e-004,2.689667e-004
3.525924e-004,2.833905e-004
1.452411e-005,2.760976e-004
-4.938748e-004,2.498430e-004
-9.917393e-004,1.978200e-004
-1.303715e-003,1.088461e-004
-1.329808e-003,-1.869928e-005
-1.058672e-003,-1.652063e-004
-5.549733e-004,-3.023136e-004
7.270556e-005,-4.057112e-004
7.146465e-004,-4.642168e-004
1.305375e-003,-4.800992e-004
1.829982e-003,-4.632444e-004
2.282794e-003,-4.248349e-004
2.629940e-003,-3.724878e-004
2.820692e-003,-3.136581e-004
2.802054e-003,-2.587180e-004
2.554904e-003,-2.222533e-004
2.117001e-003,-2.141500e-004
1.566463e-003,-2.334358e-004
1.004906e-003,-2.687660e-004
5.172509e-004,-3.063652e-004
1.574657e-004,-3.326198e-004
-5.062615e-005,-3.378059e-004
-1.368449e-004,-3.206269e-004
-1.882196e-004,-2.891863e-004
-3.156029e-004,-2.556388e-004
-5.959758e-004,-2.321393e-004
-1.009566e-003,-2.254946e-004
-1.440498e-003,-2.358668e-004
-1.747774e-003,-2.528836e-004
-1.782618e-003,-2.723315e-004
-1.433691e-003,-2.906449e-004
-7.330831e-004,-3.029619e-004
1.245665e-004,-3.057169e-004
8.585607e-004,-2.914552e-004
1.252380e-003,-2.583939e-004
1.246384e-003,-2.097743e-004
9.472105e-004,-1.447861e-004
5.648981e-004,-6.796714e-005
2.966799e-004,7.069105e-006
1.592484e-004,4.953022e-005
-5.419158e-005,1.614476e-005
-5.671282e-004,-1.272830e-004
-1.362707e-003,-3.804291e-004
-2.217926e-003,-7.089354e-004
-2.909136e-003,-1.047652e-003
-3.280266e-003,-1.333373e-003
-3.234888e-003,-1.515048e-003
-2.771056e-003,-1.566423e-003
-2.031064e-003,-1.486039e-003
-1.267574e-003,-1.292533e-003
-7.635514e-004,-1.010377e-003
-6.873807e-004,-6.695535e-004
-9.625676e-004,-3.104168e-004
-1.316194e-003,2.100672e-005
-1.483932e-003,2.958695e-004
-1.359952e-003,5.104441e-004
-1.031607e-003,6.841783e-004
-6.914323e-004,8.426782e-004
-4.963057e-004,9.971267e-004
-4.732924e-004,1.154654e-003
-5.543251e-004,1.315910e-003
-6.403818e-004,1.477813e-003
-6.562641e-004,1.634207e-003
-5.706937e-004,1.775852e-003
-3.946908e-004,1.902263e-003
-1.663408e-004,2.011172e-003
8.777764e-005,2.099822e-003
3.555096e-004,2.146659e-003
6.313449e-004,2.118621e-003
9.113940e-004,1.996748e-003
1.183664e-003,1.796435e-003
1.430328e-003,1.560791e-003
1.629021e-003,1.336654e-003
1.765480e-003,1.150279e-003
1.842785e-003,1.005554e-003
1.877791e-003,8.912979e-004
1.889946e-003,7.934103e-004
1.895132e-003,6.914712e-004
1.886867e-003,5.601982e-004
1.837113e-003,3.820883e-004
1.714591e-003,1.602208e-004
1.504554e-003,-7.817725e-005
1.232932e-003,-2.989102e-004
9.459140e-004,-4.791268e-004
6.832058e-004,-6.115342e-004
4.848378e-004,-7.000218e-004
3.935950e-004,-7.562584e-004
4.405939e-004,-7.891576e-004
5.986077e-004,-8.100641e-004
7.716935e-004,-8.264327e-004
8.613158e-004,-8.440978e-004
8.379783e-004,-8.659766e-004
7.311772e-004,-8.893140e-004
5.893700e-004,-9.115170e-004
4.579349e-004,-9.265891e-004
3.710679e-004,-9.251304e-004
3.511338e-004,-8.996862e-004
4.140152e-004,-8.499322e-004
5.606844e-004,-7.831613e-004
7.353909e-004,-7.149318e-004
8.216097e-004,-6.604778e-004
7.550009e-004,-6.280648e-004
5.739738e-004,-6.157478e-004
3.386548e-004,-6.165582e-004
7.238143e-005,-6.238511e-004
-2.092881e-004,-6.311440e-004
-4.810716e-004,-6.334129e-004
-7.870508e-004,-6.322784e-004
-1.248289e-003,-6.392473e-004
-2.004000e-003,-6.710121e-004
-3.061153e-003,-7.376209e-004
-4.214092e-003,-8.364808e-004
-4.968512e-003,-9.530057e-004
-4.968512e-003,-1.060941e-003
-4.968512e-003,-1.126740e-003
-4.548921e-003,-1.126902e-003
-3.487225e-003,-1.051379e-003
-2.315165e-003,-9.071412e-004
-1.176656e-003,-7.090974e-004
-1.564548e-004,-4.668098e-004
7.011951e-004,-1.840059e-004
1.396294e-003,1.257009e-004
1.974869e-003,4.414042e-004
2.468198e-003,7.349047e-004
2.847109e-003,9.835132e-004
3.000261e-003,1.174426e-003
2.800110e-003,1.305862e-003
2.217482e-003,1.377981e-003
1.360316e-003,1.386246e-003
4.237391e-004,1.341030e-003
-3.342404e-004,1.265183e-003
-6.888393e-004,1.181395e-003
-5.834968e-004,1.090314e-003
-1.846542e-004,9.700617e-004
1.620036e-004,7.953551e-004
1.793446e-004,5.642498e-004
-1.230693e-004,3.059176e-004
-5.512458e-004,6.346784e-005
-9.413370e-004,-1.344139e-004
-1.212796e-003,-2.716832e-004
-1.320084e-003,-3.470436e-004
-1.242778e-003,-3.684362e-004
-1.007460e-003,-3.486642e-004
-6.718224e-004,-3.019894e-004
-2.998826e-004,-2.386219e-004
6.200925e-005,-1.606685e-004
3.773884e-004,-6.910160e-005
6.250244e-004,2.862379e-005
7.945448e-004,1.313732e-004
8.784947e-004,2.380122e-004
8.885428e-004,3.524304e-004
8.677984e-004,4.720346e-004
8.695811e-004,5.846701e-004
9.219283e-004,6.733199e-004
1.023219e-003,7.240463e-004
1.142500e-003,7.251808e-004
1.230339e-003,6.681338e-004
1.246708e-003,5.537156e-004
1.190633e-003,3.926226e-004
1.102956e-003,2.057612e-004
1.031323e-003,1.922400e-005
1.017709e-003,-1.430034e-004
1.077349e-003,-2.677937e-004
1.172482e-003,-3.522297e-004
1.223694e-003,-4.000390e-004
1.153358e-003,-4.202971e-004
9.147974e-004,-4.227281e-004
5.420469e-004,-4.147869e-004
1.746447e-004,-3.987424e-004
-4.252288e-005,-3.700569e-004
-6.148453e-005,-3.285682e-004
5.358185e-005,-2.737901e-004
1.851789e-004,-2.152845e-004
2.462775e-004,-1.643960e-004
1.984683e-004,-1.308485e-004
5.633696e-005,-1.264727e-004
-1.216107e-004,-1.562927e-004
-2.580697e-004,-2.126914e-004
-2.887001e-004,-2.799486e-004
-1.815749e-004,-3.468815e-004
3.380988e-005,-4.092767e-004
2.589186e-004,-4.600031e-004
3.388169e-004,-4.851232e-004
1.482280e-004,-4.836646e-004
-2.841623e-004,-4.577342e-004
-7.520447e-004,-4.133283e-004
-1.004705e-003,-3.540124e-004
-9.243201e-004,-2.840002e-004
-5.695592e-004,-2.049123e-004
-9.114248e-005,-1.204763e-004
3.689610e-004,-3.701266e-005
7.316634e-004,3.753739e-005
