-2.946965e-004,-4.261314e-004
-7.256281e-004,-4.366657e-004
-1.102268e-003,-4.476861e-004
-1.320570e-003,-4.578962e-004
-1.329321e-003,-4.561135e-004
-1.159153e-003,-4.327761e-004
-9.050344e-004,-3.849669e-004
-6.808981e-004,-3.183580e-004
-5.515700e-004,-2.517492e-004
-4.920920e-004,-2.058847e-004
-4.311555e-004,-2.037779e-004
-3.065273e-004,-2.485079e-004
-9.600444e-005,-3.288923e-004
1.798307e-004,-4.246728e-004
4.768966e-004,-5.185087e-004
7.533802e-004,-5.979206e-004
9.906441e-004,-6.582089e-004
1.205057e-003,-6.982391e-004
1.421252e-003,-7.142835e-004
1.621890e-003,-6.974287e-004
1.766290e-003,-6.309819e-004
1.833385e-003,-4.941989e-004
1.828199e-003,-2.805968e-004
1.756404e-003,-5.896120e-006
1.632100e-003,2.979764e-004
1.487213e-003,6.037938e-004
1.352212e-003,8.912979e-004
1.224181e-003,1.140879e-003
1.075890e-003,1.339247e-003
8.806016e-004,1.479110e-003
6.490100e-004,1.569866e-003
4.271425e-004,1.631776e-003
2.754493e-004,1.684609e-003
2.025199e-004,1.738091e-003
1.375317e-004,1.782011e-003
-3.053005e-005,1.788331e-003
-3.483401e-004,1.736146e-003
-7.573929e-004,1.616055e-003
-1.140515e-003,1.433407e-003
-1.426723e-003,1.202950e-003
-1.663824e-003,9.506139e-004
-2.001082e-003,7.031399e-004
-2.520016e-003,4.788414e-004
-3.108152e-003,2.885766e-004
-3.539572e-003,1.396385e-004
-3.639567e-003,3.397195e-005
-3.364054e-003,-3.134038e-005
-2.799579e-003,-6.488790e-005
-2.110152e-003,-7.931171e-005
-1.455246e-003,-8.838737e-005
-9.246443e-004,-9.875954e-005
-5.241810e-004,-1.107524e-004
-2.029675e-004,-1.191798e-004
8.761557e-005,-1.204763e-004
3.559958e-004,-1.159385e-004
5.807805e-004,-1.141558e-004
7.501388e-004,-1.225832e-004
8.891911e-004,-1.489998e-004
1.048339e-003,-2.019951e-004
1.263562e-003,-2.940482e-004
1.534860e-003,-4.337485e-004
1.834520e-003,-6.136410e-004
2.123808e-003,-8.124951e-004
2.370796e-003,-1.008756e-003
2.562358e-003,-1.178601e-003
2.692011e-003,-1.293181e-003
2.752300e-003,-1.323325e-003
2.727828e-003,-1.255258e-003
2.607575e-003,-1.104051e-003
2.407747e-003,-9.011448e-004
2.168052e-003,-6.778188e-004
1.940025e-003,-4.580583e-004
1.765804e-003,-2.538560e-004
1.647172e-003,-7.234290e-005
1.510551e-003,7.951231e-005
1.234877e-003,1.908512e-004
7.566215e-004,2.595669e-004
1.028497e-004,2.950592e-004
-6.277406e-004,3.146691e-004
-1.300474e-003,3.402755e-004
-1.783591e-003,3.931088e-004
-1.976286e-003,4.676588e-004
-1.855710e-003,5.196818e-004
-1.525583e-003,4.992616e-004
-1.180383e-003,3.746333e-004
-1.036307e-003,1.479039e-004
-1.235161e-003,-1.292278e-004
-1.750853e-003,-3.786463e-004
-2.401870e-003,-5.408737e-004
-2.996975e-003,-6.042412e-004
-3.416564e-003,-5.873864e-004
-3.608774e-003,-5.129984e-004
-3.572309e-003,-3.966356e-004
-3.335045e-003,-2.473734e-004
-2.931663e-003,-7.444975e-005
-2.384367e-003,1.132219e-004
-1.710175e-003,3.169380e-004
-9.447403e-004,5.409124e-004
-1.601823e-004,7.656972e-004
5.460985e-004,9.392693e-004
1.106035e-003,1.005392e-003
1.511847e-003,9.426727e-004
1.784604e-003,7.755831e-004
1.965955e-003,5.514466e-004
2.085560e-003,3.112658e-004
2.116191e-003,8.486046e-005
1.999827e-003,-1.032974e-004
1.703085e-003,-2.358668e-004
1.241035e-003,-3.081479e-004
6.966573e-004,-3.280820e-004
2.137024e-004,-3.066893e-004
-8.725291e-005,-2.587180e-004
-1.737958e-004,-2.008607e-004
-1.148040e-004,-1.460826e-004
-2.680255e-005,-9.924574e-005
-3.134038e-005,-5.710876e-005
-2.144742e-004,-1.886135e-005
-5.894933e-004,4.800190e-006
-1.069044e-003,5.286387e-006
-1.515534e-003,-2.242678e-005
-1.815193e-003,-8.417367e-005
-1.915998e-003,-1.883817e-004
-1.820055e-003,-3.334301e-004
-1.582143e-003,-5.023021e-004
-1.312142e-003,-6.760361e-004
-1.125929e-003,-8.351842e-004
-1.078930e-003,-9.568953e-004
-1.124795e-003,-1.017670e-003
-1.142784e-003,-1.000653e-003
-9.991943e-004,-9.001724e-004
-6.103997e-004,-7.316245e-004
3.202716e-005,-5.212637e-004
8.708776e-004,-2.922655e-004
1.795462e-003,-6.180866e-005
2.664460e-003,1.587623e-004
3.342384e-003,3.634508e-004
3.745444e-003,5.448020e-004
3.840253e-003,6.973055e-004
3.635077e-003,8.209614e-004
3.184045e-003,9.212800e-004
2.603199e-003,1.005392e-003
2.042126e-003,1.084480e-003
1.614111e-003,1.174913e-003
1.361774e-003,1.280255e-003
1.269721e-003,1.370688e-003
1.282200e-003,1.394512e-003
1.337626e-003,1.310724e-003
1.407801e-003,1.110735e-003
1.464362e-003,8.130203e-004
1.414932e-003,4.504799e-004
1.108142e-003,5.439218e-005
3.756057e-004,-3.540124e-004
-8.377773e-004,-7.538275e-004
-2.274487e-003,-1.115233e-003
-3.471504e-003,-1.400306e-003
-4.020908e-003,-1.571447e-003
-3.776026e-003,-1.606453e-003
-2.902491e-003,-1.497221e-003
-1.753933e-003,-1.255095e-003
-6.885151e-004,-9.042240e-004
6.298164e-005,-4.773441e-004
4.584211e-004,-1.837515e-005
5.922872e-004,4.196875e-004
5.952043e-004,7.896828e-004
5.616568e-004,1.069570e-003
5.349160e-004,1.256594e-003
5.224369e-004,1.349619e-003
5.143337e-004,1.346540e-003
5.012064e-004,1.250921e-003
4.770586e-004,1.075404e-003
4.362182e-004,8.465679e-004
3.825745e-004,5.974732e-004
3.179104e-004,3.571303e-004
2.404432e-004,1.430419e-004
1.560072e-004,-3.604027e-005
8.680524e-005,-1.695821e-004
6.768154e-005,-2.460769e-004
1.487142e-004,-2.634179e-004
3.689610e-004,-2.344082e-004
7.060571e-004,-1.784957e-004
1.079294e-003,-1.149661e-004
1.404235e-003,-5.646050e-005
1.622538e-003,-9.299493e-006
1.718157e-003,1.338965e-005
1.708595e-003,-8.720959e-007
1.614273e-003,-5.386745e-005
1.437297e-003,-1.339277e-004
1.171509e-003,-2.263049e-004
8.250132e-004,-3.102548e-004
4.282770e-004,-3.705430e-004
4.175109e-005,-3.969597e-004
-2.695764e-004,-3.898288e-004
-4.938748e-004,-3.575778e-004
-6.890013e-004,-3.154408e-004
-9.766672e-004,-2.780038e-004
-1.472749e-003,-2.533699e-004
-2.180327e-003,-2.438080e-004
-2.950300e-003,-2.465631e-004
-3.531793e-003,-2.553146e-004
-3.712010e-003,-2.616352e-004
-3.450598e-003,-2.595283e-004
-2.890498e-003,-2.473734e-004
-2.239157e-003,-2.310048e-004
-1.662528e-003,-2.156086e-004
-1.245696e-003,-1.995642e-004
-9.769914e-004,-1.739578e-004
-7.828371e-004,-1.251762e-004
-5.836589e-004,-4.219875e-005
-3.428299e-004,6.962632e-005
-8.660465e-005,1.830721e-004
1.292664e-004,2.650771e-004
2.636185e-004,2.934386e-004
3.041349e-004,2.668598e-004
2.482223e-004,1.974959e-004
1.164632e-004,1.000946e-004
-3.717473e-005,-6.706447e-006
-1.485136e-004,-1.067007e-004
-1.650443e-004,-1.916230e-004
-5.111234e-005,-2.570974e-004
2.149989e-004,-2.974516e-004
6.127074e-004,-3.118754e-004
1.032457e-003,-3.018274e-004
1.334709e-003,-2.737901e-004
1.477327e-003,-2.340841e-004
1.532267e-003,-1.809267e-004
1.620917e-003,-1.138316e-004
1.821555e-003,-3.279896e-005
2.113435e-003,5.795762e-005
2.400941e-003,1.543865e-004
2.571758e-003,2.545429e-004
2.568031e-003,3.598854e-004
2.425574e-003,4.683071e-004
2.228340e-003,5.683015e-004
2.042613e-003,6.491721e-004
1.871309e-003,7.018434e-004
1.646686e-003,7.091364e-004
1.272962e-003,6.465791e-004
7.070294e-004,4.984512e-004
-3.668853e-005,2.616738e-004
-9.539781e-004,-5.127441e-005
-2.050999e-003,-4.016596e-004
-3.230026e-003,-7.372968e-004
-4.221871e-003,-1.006325e-003
-4.727680e-003,-1.177952e-003
-4.634979e-003,-1.250558e-003
-4.091083e-003,-1.235161e-003
-3.416240e-003,-1.148943e-003
-2.913674e-003,-1.006649e-003
-2.697154e-003,-8.194639e-004
-2.656151e-003,-5.963000e-004
-2.575281e-003,-3.491504e-004
-2.303010e-003,-9.908367e-005
-1.834641e-003,1.328318e-004
-1.270168e-003,3.397893e-004
-7.361624e-004,5.315126e-004
-3.243544e-004,7.271256e-004
-7.056019e-005,9.434830e-004
5.941620e-005,1.175075e-003
1.469315e-004,1.388677e-003
2.793389e-004,1.531133e-003
5.068787e-004,1.557712e-003
7.942207e-004,1.459824e-003
1.041695e-003,1.268586e-003
1.168592e-003,1.042343e-003
1.179775e-003,8.408955e-004
1.162109e-003,6.992503e-004
1.218832e-003,6.149763e-004
1.382519e-003,5.490156e-004
1.599200e-003,4.600418e-004
1.769045e-003,3.290929e-004
1.809724e-003,1.694586e-004
1.719291e-003,1.727922e-005
1.582670e-003,-8.709085e-005
1.518330e-003,-1.209625e-004
1.603576e-003,-8.984595e-005
1.801134e-003,-2.048200e-005
1.960283e-003,5.244739e-005
1.894484e-003,1.013911e-004
1.449614e-003,1.145184e-004
6.217830e-004,9.555677e-005
-3.967976e-004,5.811968e-005
-1.281188e-003,1.452411e-005
-1.742750e-003,-3.863332e-005
-1.658314e-003,-1.203142e-004
-1.119447e-003,-2.502906e-004
-3.674638e-004,-4.292107e-004
3.378445e-004,-6.385990e-004
8.256614e-004,-8.502563e-004
1.058387e-003,-1.030635e-003
1.104900e-003,-1.145539e-003
1.071839e-003,-1.167094e-003
1.047367e-003,-1.076013e-003
1.061305e-003,-8.810487e-004
1.094852e-003,-6.215822e-004
1.124834e-003,-3.473677e-004
1.145579e-003,-1.055663e-004
1.155141e-003,7.416415e-005
1.148982e-003,1.765894e-004
1.105549e-003,2.046267e-004
1.002475e-003,1.726999e-004
8.242028e-004,8.972242e-005
5.785116e-004,-4.754691e-005
3.081865e-004,-2.559629e-004
7.756752e-005,-5.293671e-004
-4.689865e-005,-8.126572e-004
-1.270286e-005,-1.034038e-003
1.952270e-004,-1.150887e-003
5.159543e-004,-1.163691e-003
8.193408e-004,-1.101458e-003
9.885372e-004,-1.006973e-003
9.836752e-004,-9.132997e-004
8.339267e-004,-8.201121e-004
6.003904e-004,-6.778188e-004
3.341170e-004,-4.086284e-004
4.953022e-005,3.235129e-005
-2.747625e-004,6.212969e-004
-6.794395e-004,1.286900e-003
-1.156560e-003,1.945373e-003
-1.622011e-003,2.512604e-003
-1.946466e-003,2.911773e-003
-1.997193e-003,3.097015e-003
-1.722492e-003,3.072543e-003
-1.219765e-003,2.903670e-003
-7.266005e-004,2.688122e-003
-5.305015e-004,2.498828e-003
-7.815406e-004,2.350700e-003
-1.298529e-003,2.188472e-003
-1.690241e-003,1.921387e-003
-1.641621e-003,1.495802e-003
-1.081686e-003,9.399176e-004
-1.666649e-004,3.462718e-004
8.301992e-004,-1.781716e-004
1.653979e-003,-5.604835e-004
2.152655e-003,-7.833233e-004
2.276150e-003,-8.729455e-004
2.047637e-003,-8.807246e-004
1.547339e-003,-8.580354e-004
8.981046e-004,-8.369670e-004
2.488706e-004,-8.311326e-004
-2.630937e-004,-8.431255e-004
-5.564319e-004,-8.701903e-004
-6.235270e-004,-9.069791e-004
-5.214258e-004,-9.489541e-004
-3.332680e-004,-9.912532e-004
-1.198280e-004,-1.031121e-003
9.474644e-005,-1.064507e-003
2.929524e-004,-1.088006e-003
4.423766e-004,-1.097892e-003
5.151440e-004,-1.090923e-003
5.026649e-004,-1.064831e-003
4.255218e-004,-1.026259e-003
3.289309e-004,-9.899565e-004
2.240746e-004,-9.709949e-004
6.557468e-005,-9.773155e-004
-2.298704e-004,-1.009566e-003
-7.123387e-004,-1.060617e-003
-1.321866e-003,-1.116368e-003
-1.877264e-003,-1.154129e-003
-2.181461e-003,-1.147970e-003
-2.136731e-003,-1.076824e-003
-1.783591e-003,-9.262649e-004
-1.262064e-003,-6.920806e-004
-7.366485e-004,-3.804291e-004
-3.191683e-004,-2.654814e-006
-2.129233e-005,4.162841e-004
2.179161e-004,8.305234e-004
4.602039e-004,1.182530e-003
7.387943e-004,1.426601e-003
1.062763e-003,1.550581e-003
1.439566e-003,1.571487e-003
1.867419e-003,1.519302e-003
2.312453e-003,1.427735e-003
2.697684e-003,1.318503e-003
2.937542e-003,1.198898e-003
2.986486e-003,1.065680e-003
2.846461e-003,9.159319e-004
2.561062e-003,7.504630e-004
2.197223e-003,5.627912e-004
1.813776e-003,3.498373e-004
1.414121e-003,1.265113e-004
9.378107e-004,-7.947377e-005
2.829043e-004,-2.444563e-004
-6.564262e-004,-3.585502e-004
-1.903357e-003,-4.269418e-004
-3.351089e-003,-4.640547e-004
-4.699481e-003,-4.835025e-004
-4.968350e-003,-4.950092e-004
-4.968350e-003,-5.042469e-004
-4.968512e-003,-5.100812e-004
-4.629792e-003,-5.104054e-004
-3.818974e-003,-5.050572e-004
-3.267625e-003,-4.925782e-004
-3.030037e-003,-4.702132e-004
-2.913187e-003,-4.374760e-004
-2.634597e-003,-4.008493e-004
-2.023933e-003,-3.656811e-004
-1.123985e-003,-3.394265e-004
-1.587237e-004,-3.266234e-004
6.041179e-004,-3.284061e-004
1.023868e-003,-3.449367e-004
1.144606e-003,-3.705430e-004
1.103117e-003,-3.967976e-004
1.019168e-003,-4.177041e-004
9.329488e-004,-4.321279e-004
8.211235e-004,-4.450931e-004
6.592202e-004,-4.650271e-004
4.663623e-004,-4.971161e-004
3.068900e-004,-5.433047e-004
2.508154e-004,-6.035930e-004
2.756114e-004,-6.749016e-004
2.323399e-004,-7.439415e-004
-7.720486e-005,-8.006644e-004
-7.538275e-004,-8.329154e-004
-1.697372e-003,-8.321049e-004
-2.616445e-003,-8.037436e-004
-3.168117e-003,-7.669547e-004
-3.135380e-003,-7.437794e-004
-2.547567e-003,-7.445897e-004
-1.625091e-003,-7.598239e-004
-6.298475e-004,-7.599859e-004
2.265056e-004,-7.076389e-004
8.238787e-004,-5.742591e-004
1.169889e-003,-3.632501e-004
1.377657e-003,-1.042698e-004
1.603900e-003,1.804790e-004
1.982972e-003,4.809482e-004
2.571596e-003,7.906552e-004
3.340115e-003,1.098256e-003
4.184809e-003,1.381222e-003
4.945554e-003,1.607628e-003
4.959005e-003,1.747329e-003
4.959005e-003,1.784442e-003
4.959005e-003,1.731284e-003
4.315921e-003,1.625617e-003
3.213217e-003,1.512819e-003
2.112787e-003,1.422711e-003
1.269235e-003,1.355940e-003
8.347370e-004,1.279769e-003
7.913035e-004,1.157896e-003
1.018357e-003,9.880509e-004
1.357236e-003,8.047550e-004
1.630155e-003,6.504686e-004
1.618973e-003,5.496639e-004
1.107979e-003,4.952099e-004
7.951231e-005,4.650658e-004
-1.121067e-003,4.407560e-004
-1.945170e-003,4.188772e-004
-2.006107e-003,4.075326e-004
-1.294315e-003,4.140152e-004
-1.421931e-004,4.376768e-004
9.775168e-004,4.662003e-004
1.695305e-003,4.822447e-004
1.862557e-003,4.670106e-004
1.548960e-003,4.146635e-004
9.851338e-004,3.355756e-004
4.034809e-004,2.383363e-004
-9.017008e-005,1.328318e-004
-5.405495e-004,2.230325e-005
-1.032580e-003,-9.665270e-005
-1.544382e-003,-2.360289e-004
-1.935932e-003,-4.063595e-004
-2.054240e-003,-5.982448e-004
-1.849713e-003,-7.940196e-004
-1.450870e-003,-9.711570e-004
-1.096758e-003,-1.099189e-003
-9.944944e-004,-1.148943e-003
-1.216848e-003,-1.102754e-003
-1.689755e-003,-9.596504e-004
-2.242884e-003,-7.410243e-004
-2.678678e-003,-4.755614e-004
-2.828589e-003,-1.912988e-004
-2.584032e-003,8.907416e-005
-1.954407e-003,3.448133e-004
-1.072610e-003,5.520949e-004
-1.392759e-004,6.904988e-004
6.532237e-004,7.483562e-004
1.188850e-003,7.217774e-004
1.449614e-003,6.094660e-004
1.480082e-003,4.204978e-004
1.369553e-003,1.874478e-004
1.220129e-003,-4.787104e-005
1.121593e-003,-2.616352e-004
1.099390e-003,-4.569239e-004
1.122241e-003,-6.565883e-004
1.148334e-003,-8.799143e-004
1.149306e-003,-1.131115e-003
1.111869e-003,-1.388799e-003
1.033429e-003,-1.605967e-003
9.415382e-004,-1.731568e-003
8.893532e-004,-1.738050e-003
8.995633e-004,-1.625577e-003
9.016701e-004,-1.411650e-003
8.157754e-004,-1.120905e-003
6.697544e-004,-7.958024e-004
5.796460e-004,-4.781544e-004
6.746164e-004,-1.865989e-004
9.903199e-004,8.242948e-005
1.427087e-003,3.448133e-004
1.778283e-003,6.140039e-004
1.773907e-003,8.831946e-004
1.164865e-003,1.127589e-003
-5.224680e-005,1.311372e-003
-1.437419e-003,1.410394e-003
-2.431204e-003,1.422711e-003
-2.736536e-003,1.365178e-003
-2.400250e-003,1.257890e-003
-1.713416e-003,1.108142e-003
-1.052838e-003,9.147974e-004
-7.300039e-004,6.760749e-004
-8.637077e-004,3.914881e-004
-1.333535e-003,7.076078e-005
-1.859761e-003,-2.608248e-004
-2.212254e-003,-5.794452e-004
-2.353899e-003,-8.552803e-004
-2.418077e-003,-1.048300e-003
-2.559074e-003,-1.124471e-003
-2.822593e-003,-1.066451e-003
-3.122090e-003,-8.778074e-004
-3.324024e-003,-5.794452e-004
-3.327104e-003,-1.935677e-004
-3.101670e-003,2.543808e-004
-2.683378e-003,7.272876e-004
-2.142566e-003,1.196953e-003
-1.546813e-003,1.657058e-003
-9.547884e-004,2.122025e-003
-4.240246e-004,2.606764e-003
3.462021e-005,3.103336e-003
4.640934e-004,3.559878e-003
8.703915e-004,3.873477e-003
1.189174e-003,3.923718e-003
1.341192e-003,3.651932e-003
1.309589e-003,3.109657e-003
1.191930e-003,2.432381e-003
1.158544e-003,1.767101e-003
1.314775e-003,1.212836e-003
1.641500e-003,7.938966e-004
2.034509e-003,4.768966e-004
2.408395e-003,2.026820e-004
2.756838e-003,-7.039812e-005
3.113060e-003,-3.468815e-004
3.478034e-003,-6.058619e-004
3.790499e-003,-8.181673e-004
3.952890e-003,-9.688881e-004
3.889522e-003,-1.061265e-003
3.608984e-003,-1.110209e-003
3.189393e-003,-1.135977e-003
2.689418e-003,-1.157046e-003
2.088963e-003,-1.183625e-003
1.302134e-003,-1.218469e-003
2.326641e-004,-1.261578e-003
-1.081848e-003,-1.313115e-003
-2.430718e-003,-1.377293e-003
-3.539896e-003,-1.459784e-003
-4.136138e-003,-1.561399e-003
-4.045704e-003,-1.676465e-003
-3.312518e-003,-1.798014e-003
-2.189240e-003,-1.916646e-003
-1.042466e-003,-2.011941e-003
-2.686040e-004,-2.065746e-003
-1.186936e-004,-2.064450e-003
-5.572423e-004,-2.004972e-003
-1.318463e-003,-1.890392e-003
-2.063316e-003,-1.728326e-003
-2.507051e-003,-1.527527e-003
-2.503972e-003,-1.297395e-003
-2.053267e-003,-1.052838e-003
-1.286050e-003,-8.165467e-004
-3.976080e-004,-6.105618e-004
4.096394e-004,-4.540067e-004
1.016575e-003,-3.574158e-004
1.422063e-003,-3.149546e-004
1.675857e-003,-2.987481e-004
1.826579e-003,-2.737901e-004
1.893836e-003,-2.259808e-004
1.884598e-003,-1.739578e-004
1.805510e-003,-1.525652e-004
1.637448e-003,-1.830335e-004
1.315261e-003,-2.551526e-004
7.481941e-004,-3.355370e-004
-1.062146e-004,-3.956632e-004
-1.171956e-003,-4.301831e-004
-2.270759e-003,-4.543308e-004
-3.154341e-003,-4.988988e-004
-3.571337e-003,-5.857658e-004
-3.388040e-003,-7.175248e-004
-2.654693e-003,-8.703524e-004
-1.580523e-003,-9.956289e-004
-4.271038e-004,-1.042790e-003
5.903424e-004,-9.753707e-004
1.376360e-003,-7.841337e-004
1.940835e-003,-4.888507e-004
2.284739e-003,-1.266348e-004
2.338383e-003,2.569738e-004
1.989293e-003,6.224313e-004
1.250273e-003,9.476967e-004
4.149876e-004,1.223208e-003
-9.875954e-005,1.447993e-003
-7.363943e-005,1.618486e-003
4.044533e-004,1.735336e-003
1.063087e-003,1.799028e-003
1.629993e-003,1.814262e-003
1.952180e-003,1.801783e-003
2.021868e-003,1.779742e-003
1.932246e-003,1.750084e-003
1.816369e-003,1.691092e-003
1.752515e-003,1.575215e-003
1.712971e-003,1.393701e-003
1.603252e-003,1.167782e-003
1.340219e-003,9.321384e-004
8.979426e-004,7.191843e-004
3.370341e-004,5.452881e-004
-2.274394e-004,4.078567e-004
-6.881910e-004,2.958695e-004
-9.709949e-004,1.905271e-004
-1.029825e-003,8.323981e-005
-8.651663e-004,-2.388537e-005
-5.202913e-004,-1.238797e-004
-6.845333e-005,-2.057227e-004
3.995914e-004,-2.650386e-004
7.994067e-004,-3.036101e-004
1.090638e-003,-3.306750e-004
1.295327e-003,-3.480160e-004
1.455610e-003,-3.554710e-004
1.583156e-003,-3.530400e-004
1.653168e-003,-3.447747e-004
1.622376e-003,-3.358611e-004
1.478786e-003,-3.225718e-004
1.269721e-003,-3.023136e-004
1.084642e-003,-2.793003e-004
1.008957e-003,-2.600145e-004
1.102793e-003,-2.433218e-004
1.419956e-003,-2.246843e-004
1.962876e-003,-2.092881e-004
2.599796e-003,-2.076674e-004
3.117436e-003,-2.276015e-004
3.300895e-003,-2.699005e-004
2.963796e-003,-3.209511e-004
1.979407e-003,-3.616295e-004
3.958639e-004,-3.731361e-004
-1.423968e-003,-3.478539e-004
-2.931987e-003,-2.963172e-004
-3.810708e-003,-2.379736e-004
-4.107452e-003,-1.890299e-004
-4.201774e-003,-1.514308e-004
-4.548111e-003,-1.144799e-004
-4.968674e-003,-6.197072e-005
-4.968512e-003,1.144487e-005
-4.968674e-003,1.028497e-004
-4.968512e-003,2.017096e-004
-4.946147e-003,2.966799e-004
-3.281401e-003,3.804677e-004
-1.518290e-003,4.590694e-004
3.721326e-005,5.478812e-004
1.242332e-003,6.460929e-004
2.177289e-003,7.190223e-004
2.984379e-003,7.148086e-004
3.718379e-003,5.968250e-004
4.310735e-003,3.715541e-004
4.590139e-003,8.210535e-005
4.401817e-003,-2.188499e-004
3.751441e-003,-4.937127e-004
2.789251e-003,-7.204420e-004
1.701464e-003,-8.917450e-004
6.697544e-004,-1.003894e-003
-1.712027e-004,-1.050731e-003
-8.270809e-004,-1.028366e-003
-1.446981e-003,-9.306407e-004
-2.149372e-003,-7.582033e-004
-2.937173e-003,-5.292050e-004
-3.802605e-003,-2.789762e-004
-4.777921e-003,-3.976777e-005
-4.968674e-003,1.751309e-004
-4.968512e-003,3.785229e-004
-4.968350e-003,5.971491e-004
-4.968512e-003,8.431645e-004
-4.811793e-003,1.111383e-003
-3.632274e-003,1.378629e-003
-2.527471e-003,1.613462e-003
-1.657828e-003,1.786224e-003
-1.089627e-003,1.876657e-003
-8.108745e-004,1.878602e-003
-7.695478e-004,1.802755e-003
-8.857486e-004,1.667430e-003
-1.045545e-003,1.492399e-003
-1.134681e-003,1.294193e-003
-1.073258e-003,1.090152e-003
-8.452323e-004,8.981046e-004
-4.927403e-004,7.222636e-004
-7.785312e-005,5.574431e-004
3.423823e-004,3.785229e-004
7.310151e-004,1.649207e-004
1.088694e-003,-7.526008e-005
1.436811e-003,-3.115513e-004
1.783793e-003,-5.183466e-004
2.117325e-003,-7.021286e-004
2.426547e-003,-8.915829e-004
2.721669e-003,-1.113612e-003
3.013389e-003,-1.366272e-003
3.293926e-003,-1.610019e-003
3.538485e-003,-1.774191e-003
3.728427e-003,-1.785211e-003
3.836364e-003,-1.600133e-003
3.835229e-003,-1.229813e-003
3.724376e-003,-7.254661e-004
3.535568e-003,-1.478653e-004
3.326664e-003,4.435111e-004
3.163949e-003,9.932371e-004
3.075785e-003,1.459986e-003
3.048233e-003,1.836303e-003
3.056012e-003,2.140663e-003
3.083888e-003,2.379224e-003
3.104146e-003,2.516655e-003
3.041913e-003,2.488618e-003
2.813885e-003,2.251029e-003
2.388461e-003,1.829496e-003
1.770990e-003,1.303755e-003
9.640653e-004,7.572698e-004
-1.659243e-005,2.461155e-004
-1.113774e-003,-1.961608e-004
-2.192806e-003,-5.486528e-004
-2.994058e-003,-8.003402e-004
-3.266005e-003,-9.538161e-004
-2.930853e-003,-1.026583e-003
-2.139000e-003,-1.047004e-003
-1.177790e-003,-1.040359e-003
-3.217614e-004,-1.028528e-003
2.675081e-004,-1.025773e-003
5.674912e-004,-1.041980e-003
6.566271e-004,-1.070503e-003
6.370172e-004,-1.096271e-003
5.786736e-004,-1.112640e-003
5.109303e-004,-1.124957e-003
4.405939e-004,-1.141812e-003
3.704196e-004,-1.165635e-003
2.906835e-004,-1.189297e-003
1.791825e-004,-1.199993e-003
1.063454e-005,-1.191404e-003
-2.079916e-004,-1.170011e-003
-3.995528e-004,-1.146025e-003
-4.825302e-004,-1.125605e-003
-4.382863e-004,-1.108750e-003
-3.097686e-004,-1.091896e-003
-1.713648e-004,-1.075365e-003
-1.013526e-004,-1.064345e-003
-1.373311e-004,-1.056079e-003
-2.525595e-004,-1.034687e-003
-3.724878e-004,-9.732639e-004
-4.327761e-004,-8.481495e-004
-4.248349e-004,-6.505919e-004
-3.796187e-004,-3.909633e-004
-3.321336e-004,-9.616651e-005
-3.152788e-004,2.072198e-004
-3.327818e-004,4.929411e-004
-3.407231e-004,7.376599e-004
-2.762210e-004,9.300316e-004
-1.256624e-004,1.067949e-003
6.314371e-005,1.158868e-003
2.145127e-004,1.212512e-003
2.607014e-004,1.242980e-003
1.472556e-004,1.264373e-003
-1.255003e-004,1.289331e-003
-4.282383e-004,1.310886e-003
-5.441150e-004,1.303593e-003
-3.160891e-004,1.237308e-003
2.746390e-004,1.096797e-003
1.072001e-003,8.938910e-004
1.827389e-003,6.614891e-004
2.361558e-003,4.407560e-004
2.635612e-003,2.642668e-004
2.698170e-003,1.482280e-004
2.616002e-003,9.393612e-005
2.450209e-003,8.388807e-005
2.228340e-003,9.344993e-005
1.923170e-003,1.012291e-004
1.502285e-003,8.826383e-005
9.812443e-004,4.709924e-005
3.816021e-004,-2.728874e-005
-3.395886e-004,-1.439758e-004
-1.340504e-003,-3.139823e-004
-2.780780e-003,-5.373082e-004
-4.557186e-003,-7.922369e-004
-4.968674e-003,-1.040035e-003
-4.968512e-003,-1.234675e-003
-4.968512e-003,-1.336614e-003
-4.968512e-003,-1.325270e-003
-4.968512e-003,-1.197238e-003
-4.968512e-003,-9.667812e-004
-4.968512e-003,-6.645294e-004
-4.968674e-003,-3.238683e-004
-4.556052e-003,2.133085e-005
-2.823727e-003,3.418961e-004
-1.046355e-003,6.159487e-004
5.279472e-004,8.326302e-004
1.710378e-003,9.912923e-004
2.455557e-003,1.100524e-003
2.774989e-003,1.163244e-003
2.713890e-003,1.170537e-003
2.386517e-003,1.123052e-003
1.989779e-003,1.030836e-003
1.738415e-003,8.921082e-004
1.748949e-003,6.893643e-004
1.988158e-003,4.016982e-004
2.299163e-003,1.971020e-005
2.479380e-003,-4.319658e-004
2.380844e-003,-8.909347e-004
1.978110e-003,-1.295288e-003
1.370364e-003,-1.608884e-003
7.334462e-004,-1.813735e-003
2.425500e-004,-1.909515e-003
-2.816880e-006,-1.917619e-003
7.069105e-006,-1.880020e-003
2.156472e-004,-1.827834e-003
5.153061e-004,-1.755229e-003
7.812555e-004,-1.613584e-003
9.216042e-004,-1.347473e-003
9.203076e-004,-9.290201e-004
8.457575e-004,-3.747568e-004
7.977861e-004,2.535705e-004
8.703915e-004,8.626123e-004
1.091935e-003,1.378953e-003
1.386408e-003,1.778121e-003
1.571325e-003,2.079240e-003
1.458690e-003,2.336600e-003
9.895095e-004,2.595744e-003
2.986247e-004,2.838519e-003
-3.262992e-004,2.963959e-003
-6.358439e-004,2.856509e-003
-5.838210e-004,2.468846e-003
-3.214373e-004,1.866933e-003
-7.526008e-005,1.189012e-003
3.503668e-006,5.835356e-004
-1.125351e-004,1.519555e-004
-3.535262e-004,-7.607040e-005
-6.052136e-004,-1.360346e-004
-7.632272e-004,-9.341139e-005
-7.685754e-004,-1.189254e-005
-5.992171e-004,5.633696e-005
-2.673075e-004,7.837785e-005
1.842065e-004,4.612685e-005
6.893643e-004,-2.469570e-005
1.190633e-003,-1.175591e-004
1.652034e-003,-2.209568e-004
2.052012e-003,-3.232200e-004
2.376144e-003,-4.039285e-004
2.614706e-003,-4.442827e-004
2.766562e-003,-4.399070e-004
2.832037e-003,-4.045768e-004
2.827661e-003,-3.588744e-004
2.781958e-003,-3.152788e-004
2.726694e-003,-2.686040e-004
2.673212e-003,-2.023193e-004
2.606926e-003,-1.039456e-004
2.492832e-003,2.278944e-005
2.302242e-003,1.522796e-004
2.023003e-003,2.490327e-004
1.618324e-003,2.893870e-004
1.010902e-003,2.692908e-004
1.667035e-004,2.057612e-004
-7.935334e-004,1.260251e-004
-1.637246e-003,5.325772e-005
-2.150507e-003,-4.599598e-006
-2.221167e-003,-4.900550e-005
-1.898495e-003,-8.336335e-005
-1.394472e-003,-1.114006e-004
-1.010701e-003,-1.323071e-004
-1.001949e-003,-1.405724e-004
-1.465294e-003,-1.350622e-004
-2.322944e-003,-1.225832e-004
-3.274918e-003,-1.126972e-004
-3.911190e-003,-1.162626e-004
-3.974719e-003,-1.425172e-004
-3.503593e-003,-1.932436e-004
-2.720815e-003,-2.556388e-004
-1.857654e-003,-3.149546e-004
-1.061427e-003,-3.658432e-004
-3.833462e-004,-4.031182e-004
1.816135e-004,-4.230522e-004
6.384758e-004,-4.279142e-004
9.754099e-004,-4.399070e-004
1.168268e-003,-5.000332e-004
1.213808e-003,-6.484850e-004
1.116569e-003,-8.957966e-004
8.658536e-004,-1.204855e-003
4.339493e-004,-1.506621e-003
-1.502963e-004,-1.723140e-003
-7.701961e-004,-1.792342e-003
-1.302256e-003,-1.695427e-003
-1.673224e-003,-1.464646e-003
-1.834965e-003,-1.166284e-003
-1.749233e-003,-8.671111e-004
-1.412947e-003,-6.061860e-004
-8.779695e-004,-3.896668e-004
-2.441321e-004,-2.026434e-004
3.587509e-004,-2.631635e-005
8.138306e-004,1.464453e-004
1.069084e-003,2.987867e-004
1.140069e-003,4.042913e-004
1.109276e-003,4.511282e-004
1.083346e-003,4.579349e-004
1.110735e-003,4.790034e-004
1.159354e-003,5.660325e-004
1.123214e-003,7.268014e-004
8.870842e-004,9.258178e-004
4.417284e-004,1.117217e-003
-6.132246e-005,1.279283e-003
-4.042526e-004,1.415904e-003
-4.616237e-004,1.538102e-003
-2.564491e-004,1.656410e-003
8.696731e-005,1.790762e-003
4.388112e-004,1.947156e-003
7.161052e-004,2.080698e-003
8.776844e-004,2.111004e-003
9.245213e-004,1.967900e-003
8.830326e-004,1.644093e-003
8.026481e-004,1.199222e-003
7.287462e-004,7.199947e-004
6.739681e-004,2.796630e-004
6.094660e-004,-7.866345e-005
5.075270e-004,-3.340784e-004
3.807918e-004,-4.880404e-004
2.731804e-004,-5.557837e-004
2.265056e-004,-5.655076e-004
2.893870e-004,-5.418460e-004
5.294057e-004,-5.014918e-004
9.558000e-004,-4.501171e-004
1.467279e-003,-3.955011e-004
1.882329e-003,-3.460712e-004
1.981189e-003,-3.128478e-004
1.635341e-003,-3.026377e-004
9.455899e-004,-3.206269e-004
1.887444e-004,-3.647087e-004
-3.880461e-004,-4.331002e-004
-7.150938e-004,-5.275843e-004
-8.651663e-004,-6.523746e-004
-9.590021e-004,-8.063366e-004
-1.114423e-003,-9.794224e-004
-1.395120e-003,-1.152022e-003
-1.775973e-003,-1.298691e-003
-2.161527e-003,-1.397551e-003
-2.440442e-003,-1.433529e-003
-2.542219e-003,-1.401278e-003
-2.475124e-003,-1.305660e-003
-2.320189e-003,-1.146350e-003
-2.194102e-003,-9.192961e-004
-2.175141e-003,-6.199615e-004
-2.243208e-003,-2.674695e-004
-2.310789e-003,1.028497e-004
-2.294259e-003,4.506420e-004
-2.133814e-003,7.454390e-004
-1.810007e-003,9.752478e-004
-1.383289e-003,1.140555e-003
-9.854188e-004,1.255459e-003
-7.369727e-004,1.339571e-003
-6.418404e-004,1.408449e-003
-6.019723e-004,1.458690e-003
-4.966299e-004,1.460634e-003
-2.630937e-004,1.380412e-003
7.853991e-005,1.214457e-003
4.551798e-004,9.977750e-004
7.972999e-004,7.715315e-004
1.084156e-003,5.519328e-004
1.301324e-003,3.290929e-004
1.410070e-003,8.761557e-005
1.380736e-003,-1.737958e-004
1.168592e-003,-4.347209e-004
7.287462e-004,-6.603158e-004
1.150046e-004,-8.210845e-004
-4.710235e-004,-9.124894e-004
-7.773269e-004,-9.484679e-004
-6.397335e-004,-9.473335e-004
-8.190475e-005,-9.209168e-004
6.874196e-004,-8.773212e-004
1.376360e-003,-8.184915e-004
1.782983e-003,-7.462104e-004
1.892539e-003,-6.590193e-004
1.857047e-003,-5.548113e-004
1.858992e-003,-4.311555e-004
1.979731e-003,-2.843243e-004
2.155897e-003,-1.107524e-004
2.265777e-003,9.166720e-005
2.246167e-003,3.169380e-004
2.105980e-003,5.337815e-004
1.882978e-003,7.013571e-004
1.630965e-003,7.874139e-004
1.412987e-003,7.838485e-004
1.273124e-003,7.047605e-004
1.206029e-003,5.765668e-004
1.124996e-003,4.323286e-004
8.765499e-004,3.033245e-004
2.895490e-004,2.112714e-004
-7.039114e-004,1.611932e-004
-1.936580e-003,1.456350e-004
-3.073795e-003,1.504969e-004
-3.780402e-003,1.613553e-004
-3.855925e-003,1.680000e-004
-3.304576e-003,1.644345e-004
-2.322458e-003,1.470936e-004
-1.186866e-003,1.175977e-004
-1.481895e-004,8.145709e-005
6.451205e-004,5.001642e-005
1.186419e-003,3.899597e-005
1.545395e-003,5.260946e-005
1.775204e-003,8.323981e-005
1.919443e-003,1.174356e-004
2.040992e-003,1.435281e-004
2.189282e-003,1.561692e-004
2.344217e-003,1.629760e-004
2.464795e-003,1.743205e-004
2.548907e-003,1.981441e-004
2.586182e-003,2.360674e-004
2.530593e-003,2.816078e-004
2.284415e-003,3.253654e-004
1.718643e-003,3.576164e-004
7.772038e-004,3.731747e-004
-4.371519e-004,3.705817e-004
-1.693644e-003,3.521062e-004
-2.747718e-003,3.227724e-004
-3.375237e-003,2.791768e-004
-3.457242e-003,2.132162e-004
-3.057588e-003,1.201907e-004
-2.394740e-003,1.209313e-005
-1.726057e-003,-8.838737e-005
-1.271950e-003,-1.669890e-004
-1.165311e-003,-2.308428e-004
-1.353955e-003,-2.877277e-004
-1.584412e-003,-3.391024e-004
-1.556213e-003,-3.843186e-004
-1.103888e-003,-4.233763e-004
-2.713591e-004,-4.590307e-004
6.840162e-004,-4.953333e-004
1.338275e-003,-5.373082e-004
1.311534e-003,-5.870623e-004
5.806184e-004,-6.429748e-004
-3.854531e-004,-6.996976e-004
-9.766672e-004,-7.429690e-004
-8.979035e-004,-7.567446e-004
-2.642282e-004,-7.314624e-004
5.430193e-004,-6.667984e-004
1.146389e-003,-5.723144e-004
1.372471e-003,-4.619479e-004
1.248328e-003,-3.540124e-004
9.097734e-004,-2.583939e-004
5.097958e-004,-1.734716e-004
1.577899e-004,-9.794922e-005
-8.676672e-005,-3.166451e-005
-1.964849e-004,2.149292e-005
-1.700683e-004,5.115087e-005
-2.275091e-005,5.034055e-005
2.075439e-004,1.646890e-005
4.683071e-004,-4.252288e-005
7.219395e-004,-1.120489e-004
9.491552e-004,-1.828714e-004
1.127913e-003,-2.546664e-004
1.221263e-003,-3.230579e-004
1.173616e-003,-3.734602e-004
9.266282e-004,-3.862634e-004
4.709002e-004,-3.562813e-004
-1.209625e-004,-2.948586e-004
-7.134732e-004,-2.261429e-004
-1.181842e-003,-1.710407e-004
-1.466104e-003,-1.352242e-004
-1.583926e-003,-1.130213e-004
-1.603860e-003,-8.725291e-005
-1.577281e-003,-4.122636e-005
-1.482959e-003,3.186510e-005
-1.248775e-003,1.321835e-004
-8.327533e-004,2.530843e-004
-2.637420e-004,3.845193e-004
3.764160e-004,5.198439e-004
9.857821e-004,6.580857e-004
1.482999e-003,7.966516e-004
1.829010e-003,9.272764e-004
2.028675e-003,1.041046e-003
2.104360e-003,1.132289e-003
2.062223e-003,1.193550e-003
1.873254e-003,1.217860e-003
1.523030e-003,1.204733e-003
1.056605e-003,1.163244e-003
5.618189e-004,1.103766e-003
1.253768e-004,1.034402e-003
-1.755785e-004,9.538552e-004
-2.767073e-004,8.583986e-004
-1.702304e-004,7.470596e-004
6.978839e-005,6.302104e-004
3.331446e-004,5.234093e-004
5.169268e-004,4.389733e-004
5.467468e-004,3.781987e-004
3.960259e-004,3.367100e-004
1.138702e-004,3.067279e-004
-1.885437e-004,2.822560e-004
-3.984183e-004,2.624841e-004
-4.397449e-004,2.483844e-004
-2.776796e-004,2.336365e-004
2.732727e-005,2.138645e-004
3.081865e-004,1.879340e-004
3.699334e-004,1.574657e-004
7.659513e-005,1.184080e-004
-5.740970e-004,7.059871e-005
-1.425426e-003,1.857574e-005
-2.242722e-003,-3.279896e-005
-2.818703e-003,-8.141856e-005
-3.040085e-003,-1.297140e-004
-2.882881e-003,-1.856265e-004
-2.385826e-003,-2.554767e-004
-1.617636e-003,-3.371576e-004
-6.457299e-004,-4.258073e-004
4.439973e-004,-5.241810e-004
1.515088e-003,-6.395715e-004
2.409530e-003,-7.718167e-004
2.995886e-003,-9.006586e-004
3.195876e-003,-1.008432e-003
2.975789e-003,-1.096109e-003
2.322825e-003,-1.182652e-003
1.303431e-003,-1.286536e-003
1.101427e-004,-1.405816e-003
-9.580297e-004,-1.513752e-003
-1.627359e-003,-1.565775e-003
-1.768843e-003,-1.520072e-003
-1.428343e-003,-1.351362e-003
-7.684134e-004,-1.063858e-003
1.452411e-005,-6.922426e-004
6.778577e-004,-2.870794e-004
1.026623e-003,1.140322e-004
1.040398e-003,4.898618e-004
8.671501e-004,8.206373e-004
7.449528e-004,1.080428e-003
8.515919e-004,1.240549e-003
1.182854e-003,1.281876e-003
1.544746e-003,1.207488e-003
1.660785e-003,1.046881e-003
1.336330e-003,8.438127e-004
5.817529e-004,6.387999e-004
-4.219178e-004,4.615004e-004
-1.439039e-003,3.250413e-004
-2.347902e-003,2.161334e-004
-3.156448e-003,1.122495e-004
-3.942468e-003,4.800190e-006
-4.793966e-003,-9.730096e-005
-4.968674e-003,-1.746061e-004
-4.968350e-003,-2.128535e-004
-4.968350e-003,-2.099363e-004
-4.968512e-003,-1.778474e-004
-4.309873e-003,-1.331174e-004
-2.258604e-003,-8.644259e-005
-2.178775e-004,-4.657452e-005
1.288034e-003,-1.724069e-005
1.959311e-003,2.693341e-006
1.830955e-003,1.808955e-005
1.150116e-003,3.008238e-005
2.615117e-004,4.402000e-005
-4.974402e-004,6.930219e-005
-8.781315e-004,1.111150e-004
-7.698719e-004,1.633001e-004
-2.139880e-004,2.145127e-004
6.042800e-004,2.584324e-004
1.406666e-003,2.913317e-004
1.939377e-003,3.124002e-004
2.056874e-003,3.247172e-004
1.808265e-003,3.328204e-004
1.461769e-003,3.391410e-004
1.288034e-003,3.444891e-004
1.337464e-003,3.452995e-004
1.417687e-003,3.384927e-004
1.272638e-003,3.230965e-004
8.011895e-004,2.974902e-004
1.383420e-004,2.647530e-004
-4.624341e-004,2.234263e-004
-7.982334e-004,1.697827e-004
-7.967748e-004,1.010670e-004
-5.011677e-004,2.262738e-005
6.258778e-006,-5.240886e-005
6.610029e-004,-1.130213e-004
1.384139e-003,-1.515928e-004
2.058009e-003,-1.677994e-004
2.544369e-003,-1.669890e-004
2.702546e-003,-1.567789e-004
2.497856e-003,-1.506204e-004
2.127697e-003,-1.648822e-004
1.909556e-003,-2.143121e-004
2.037751e-003,-3.024756e-004
2.467874e-003,-4.240246e-004
2.983407e-003,-5.804176e-004
3.353080e-003,-7.818647e-004
3.441407e-003,-1.034849e-003
3.243361e-003,-1.335156e-003
2.834792e-003,-1.661393e-003
2.293329e-003,-1.977583e-003
1.656896e-003,-2.241101e-003
9.639032e-004,-2.407219e-003
2.853353e-004,-2.447249e-003
-3.036101e-004,-2.349361e-003
-7.654962e-004,-2.110638e-003
-1.125119e-003,-1.738536e-003
-1.412623e-003,-1.263523e-003
-1.601915e-003,-7.325969e-004
-1.630115e-003,-1.906506e-004
-1.447143e-003,3.401134e-004
-1.068072e-003,8.564538e-004
-6.052136e-004,1.355616e-003
-2.117191e-004,1.827227e-003
2.052053e-005,2.254757e-003
1.090082e-004,2.633181e-003
1.445005e-004,2.954559e-003
2.030061e-004,3.192635e-003
3.075383e-004,3.313374e-003
4.501558e-004,3.290361e-003
6.047662e-004,3.121163e-003
7.300428e-004,2.815182e-003
7.731522e-004,2.389596e-003
7.007089e-004,1.859316e-003
5.310264e-004,1.260321e-003
3.065659e-004,6.527375e-004
5.811968e-005,1.072255e-004
-2.016710e-004,-3.211132e-004
-4.561135e-004,-6.121824e-004
-6.791154e-004,-7.763545e-004
-8.609526e-004,-8.382635e-004
-1.027880e-003,-8.251361e-004
-1.211986e-003,-7.565826e-004
-1.437419e-003,-6.489712e-004
-1.720223e-003,-5.180225e-004
-2.028310e-003,-3.724878e-004
-2.258442e-003,-2.240360e-004
-2.294745e-003,-8.498399e-005
-2.092812e-003,3.413401e-005
-1.716009e-003,1.257009e-004
-1.287833e-003,1.864754e-004
-9.257787e-004,2.182402e-004
-6.849497e-004,2.256952e-004
-5.290429e-004,2.115956e-004
-3.559572e-004,1.767515e-004
-6.423963e-005,1.278078e-004
3.678266e-004,8.226741e-005
8.311716e-004,5.358185e-005
1.141041e-003,4.175109e-005
1.145579e-003,4.175109e-005
8.261476e-004,4.418206e-005
3.420582e-004,3.462021e-005
-7.299116e-005,3.503668e-006
-2.600145e-004,-5.013995e-005
-1.959987e-004,-1.188556e-004
4.547859e-005,-1.883817e-004
3.581026e-004,-2.444563e-004
6.538720e-004,-2.750866e-004
8.734707e-004,-2.692523e-004
9.945336e-004,-2.303566e-004
1.041046e-003,-1.668270e-004
1.060656e-003,-9.762509e-005
1.084966e-003,-3.604027e-005
1.115110e-003,1.403791e-005
1.111383e-003,5.811968e-005
9.963163e-004,9.944634e-005
6.958470e-004,1.365593e-004
1.916615e-004,1.592484e-004
-4.497930e-004,1.571416e-004
-1.121878e-003,1.192183e-004
-1.781808e-003,4.353380e-005
-2.419211e-003,-6.310517e-005
-2.984172e-003,-1.828714e-004
-3.408785e-003,-2.946965e-004
-3.641025e-003,-3.830221e-004
-3.637784e-003,-4.434724e-004
-3.385123e-003,-4.783165e-004
-2.894712e-003,-4.943609e-004
-2.201881e-003,-4.993849e-004
-1.389448e-003,-5.032745e-004
-5.577285e-004,-5.034366e-004
1.955511e-004,-4.956574e-004
8.146409e-004,-4.792889e-004
1.298082e-003,-4.569239e-004
1.649117e-003,-4.347209e-004
1.836141e-003,-4.249970e-004
1.824958e-003,-4.468758e-004
1.634207e-003,-5.063537e-004
1.347026e-003,-5.945173e-004
1.109600e-003,-6.953219e-004
1.075890e-003,-7.912645e-004
1.289493e-003,-8.752144e-004
1.639231e-003,-9.525195e-004
1.929328e-003,-1.030797e-003
1.999665e-003,-1.115557e-003
1.824148e-003,-1.198048e-003
1.553174e-003,-1.246182e-003
1.429356e-003,-1.223655e-003
1.605683e-003,-1.111668e-003
2.000313e-003,-9.201065e-004
2.338059e-003,-6.757120e-004
2.355562e-003,-4.034423e-004
1.944563e-003,-1.165867e-004
1.175399e-003,1.689724e-004
2.513016e-004,4.401077e-004
-5.941931e-004,7.055709e-004
-1.239699e-003,9.825408e-004
-1.704989e-003,1.263400e-003
-1.970938e-003,1.502933e-003
-1.877426e-003,1.642634e-003
-1.287833e-003,1.641824e-003
-2.775176e-004,1.505040e-003
8.290648e-004,1.262590e-003
1.610383e-003,9.538552e-004
1.779742e-003,6.243761e-004
1.278148e-003,3.247172e-004
2.863077e-004,9.458438e-005
-9.004966e-004,-5.192267e-005
-1.988441e-003,-1.305243e-004
-2.790018e-003,-1.647201e-004
-3.219330e-003,-1.721751e-004
-3.258712e-003,-1.598582e-004
-2.948194e-003,-1.345760e-004
-2.375291e-003,-1.141558e-004
-1.665283e-003,-1.313347e-004
-9.692122e-004,-2.105846e-004
-4.198109e-004,-3.519055e-004
-1.007043e-004,-5.311498e-004
-5.581224e-005,-7.113663e-004
-2.509389e-004,-8.565768e-004
-5.739350e-004,-9.502506e-004
-8.922312e-004,-1.008270e-003
-1.090761e-003,-1.063534e-003
-1.093678e-003,-1.133709e-003
-9.139480e-004,-1.215876e-003
-6.685811e-004,-1.297719e-003
-5.658317e-004,-1.354928e-003
-7.936955e-004,-1.348931e-003
-1.308739e-003,-1.228031e-003
-1.825565e-003,-9.547884e-004
-2.029444e-003,-5.348772e-004
-1.766087e-003,-1.254080e-005
-1.105995e-003,5.543638e-004
-2.846485e-004,1.110897e-003
4.326527e-004,1.609573e-003
8.895152e-004,2.010686e-003
1.110086e-003,2.295273e-003
1.232932e-003,2.475167e-003
1.407963e-003,2.586992e-003
1.700329e-003,2.675967e-003
2.065140e-003,2.753921e-003
2.386030e-003,2.769641e-003
2.556200e-003,2.656681e-003
2.507418e-003,2.397375e-003
2.243736e-003,2.051526e-003
1.850889e-003,1.714429e-003
1.459176e-003,1.471006e-003
1.162596e-003,1.355292e-003
9.801098e-004,1.349781e-003
8.695811e-004,1.397429e-003
7.579181e-004,1.433245e-003
5.636016e-004,1.416715e-003
2.396328e-004,1.326120e-003
-1.990780e-004,1.153196e-003
-6.797637e-004,8.938910e-004
-1.099999e-003,5.446399e-004
-1.381182e-003,1.133840e-004
-1.497869e-003,-3.757291e-004
-1.451195e-003,-8.677593e-004
-1.240996e-003,-1.300474e-003
-8.739179e-004,-1.621201e-003
-3.807532e-004,-1.797204e-003
1.793446e-004,-1.816652e-003
7.381460e-004,-1.686838e-003
1.231474e-003,-1.433853e-003
1.609411e-003,-1.095137e-003
1.846675e-003,-7.248178e-004
1.952180e-003,-3.776739e-004
1.951369e-003,-8.984595e-005
1.871795e-003,1.286181e-004
1.744735e-003,2.785285e-004
1.596931e-003,3.723644e-004
1.448317e-003,4.203358e-004
1.308941e-003,4.308700e-004
1.177992e-003,4.115842e-004
1.046719e-003,3.730126e-004
9.104217e-004,3.130485e-004
7.699109e-004,2.184023e-004
6.209727e-004,8.097089e-005
4.495075e-004,-8.595638e-005
2.428742e-004,-2.533699e-004
-1.034161e-006,-3.922598e-004
-2.724935e-004,-4.883645e-004
-5.527044e-004,-5.509217e-004
-8.079573e-004,-6.005137e-004
-1.003246e-003,-6.499436e-004
-1.106319e-003,-7.011562e-004
-1.094975e-003,-7.481552e-004
-9.596504e-004,-7.833233e-004
-7.009942e-004,-7.993678e-004
-3.233821e-004,-7.970989e-004
1.466074e-004,-7.912645e-004
6.383138e-004,-8.006644e-004
1.066977e-003,-8.371290e-004
1.373929e-003,-9.027654e-004
1.537940e-003,-9.901187e-004
1.561115e-003,-1.078606e-003
1.464200e-003,-1.144567e-003
1.280903e-003,-1.169039e-003
1.042343e-003,-1.140515e-003
7.770417e-004,-1.054621e-003
5.449640e-004,-9.141100e-004
4.388112e-004,-7.296797e-004
5.699221e-004,-5.129984e-004
1.020788e-003,-2.814071e-004
1.706812e-003,-5.338126e-005
2.322987e-003,1.526038e-004
2.465443e-003,3.166139e-004
1.791410e-003,4.264942e-004
2.543808e-004,4.815964e-004
-1.655559e-003,4.931031e-004
-3.150290e-003,4.835413e-004
-3.695966e-003,4.662003e-004
-3.167955e-003,4.378388e-004
-1.850199e-003,3.767402e-004
-2.394322e-004,2.634565e-004
1.106683e-003,9.944634e-005
1.755918e-003,-8.595638e-005
1.514602e-003,-2.478596e-004
4.229288e-004,-3.497987e-004
-1.208745e-003,-3.825359e-004
-2.904598e-003,-3.567675e-004
-4.298366e-003,-2.927517e-004
-4.968350e-003,-2.131776e-004
-4.968512e-003,-1.415448e-004
-4.968674e-003,-9.146661e-005
-4.968512e-003,-6.359137e-005
-4.968350e-003,-5.159854e-005
-4.469670e-003,-4.949169e-005
-3.842798e-003,-5.127441e-005
-3.130680e-003,-5.467778e-005
-2.337206e-003,-5.775702e-005
-1.481177e-003,-6.245691e-005
-6.196374e-004,-7.056019e-005
1.539003e-004,-8.093236e-005
7.397667e-004,-8.611845e-005
1.089828e-003,-7.817725e-005
1.250111e-003,-6.278104e-005
1.330334e-003,-5.257093e-005
1.442159e-003,-5.613637e-005
1.645227e-003,-7.655660e-005
1.928032e-003,-1.152902e-004
2.259781e-003,-1.710407e-004
2.633992e-003,-2.387840e-004
3.013875e-003,-3.096065e-004
3.291657e-003,-3.757291e-004
3.348381e-003,-4.290486e-004
3.118084e-003,-4.611376e-004
2.583589e-003,-4.627582e-004
1.748949e-003,-4.345588e-004
7.010330e-004,-3.877220e-004
-3.687603e-004,-3.301888e-004
-1.261254e-003,-2.577456e-004
-1.932205e-003,-1.575893e-004
-2.424884e-003,-2.275091e-005
-2.753066e-003,1.422316e-004
-2.888229e-003,3.260137e-004
-2.785318e-003,5.072028e-004
-2.432339e-003,6.605167e-004
-1.869485e-003,7.678040e-004
-1.137760e-003,8.340888e-004
-2.679557e-004,8.741189e-004
6.767232e-004,9.019942e-004
1.560791e-003,9.277626e-004
2.229312e-003,9.549896e-004
2.568031e-003,9.762202e-004
2.572569e-003,9.684411e-004
2.328173e-003,9.139871e-004
1.918794e-003,8.227442e-004
1.359829e-003,7.212912e-004
6.640821e-004,6.366931e-004
1.225520e-005,5.849942e-004
-3.040963e-004,5.728393e-004
-1.214487e-004,5.960147e-004
4.963444e-004,6.499824e-004
1.318665e-003,7.229118e-004
2.102901e-003,7.972999e-004
2.692660e-003,8.585607e-004
3.021816e-003,9.005356e-004
3.079836e-003,9.207938e-004
2.901077e-003,9.175525e-004
2.541938e-003,8.878945e-004
2.032889e-003,8.280924e-004
1.395160e-003,7.374978e-004
6.746164e-004,6.224313e-004
-7.914964e-005,4.943996e-004
-8.426392e-004,3.710679e-004
-1.567557e-003,2.678322e-004
-2.126683e-003,1.927960e-004
-2.343203e-003,1.477418e-004
-2.083898e-003,1.226217e-004
-1.381506e-003,1.064152e-004
-4.544929e-004,8.907416e-005
3.671783e-004,6.038860e-005
7.535422e-004,1.241726e-005
4.867825e-004,-5.338126e-005
-3.734602e-004,-1.261486e-004
-1.434988e-003,-1.985918e-004
-2.233646e-003,-2.695764e-004
-2.519854e-003,-3.384541e-004
-2.304307e-003,-4.063595e-004
-1.750853e-003,-4.766958e-004
-1.064831e-003,-5.478425e-004
-4.112214e-004,-6.173685e-004
1.286181e-004,-6.779809e-004
5.221128e-004,-7.212523e-004
7.417115e-004,-7.400519e-004
7.725039e-004,-7.343796e-004
6.791542e-004,-7.134732e-004
5.841838e-004,-6.937013e-004
6.023352e-004,-6.864083e-004
7.598628e-004,-6.912703e-004
9.504518e-004,-7.008321e-004
9.882130e-004,-7.078009e-004
7.678040e-004,-7.073147e-004
3.276344e-004,-6.912703e-004
-2.091260e-004,-6.546435e-004
-6.943495e-004,-5.958138e-004
-9.967634e-004,-5.110537e-004
-1.058672e-003,-3.920977e-004
-9.390680e-004,-2.389460e-004
-8.129813e-004,-6.634648e-005
-8.604664e-004,9.863601e-005
-1.106157e-003,2.292607e-004
-1.364976e-003,3.154794e-004
-1.377293e-003,3.713920e-004
-1.009891e-003,4.127187e-004
-3.331060e-004,4.402698e-004
4.503179e-004,4.431870e-004
1.109924e-003,4.088291e-004
1.507633e-003,3.347652e-004
1.652682e-003,2.271538e-004
1.654141e-003,9.490851e-005
1.637124e-003,-4.592625e-005
1.685095e-003,-1.737958e-004
1.817665e-003,-2.731418e-004
2.009227e-003,-3.303509e-004
2.211323e-003,-3.426678e-004
2.362045e-003,-3.258130e-004
2.393486e-003,-3.006929e-004
2.243250e-003,-2.788141e-004
1.902263e-003,-2.543422e-004
1.434542e-003,-2.160948e-004
9.282488e-004,-1.629374e-004
4.593935e-004,-1.031353e-004
7.853991e-005,-4.268495e-005
-2.232257e-004,1.419998e-005
-5.189948e-004,6.719535e-005
-8.914209e-004,1.167873e-004
-1.364490e-003,1.637863e-004
-1.880344e-003,1.989545e-004
-2.334127e-003,2.119197e-004
-2.649993e-003,1.949028e-004
-2.828427e-003,1.449867e-004
-2.924370e-003,6.541262e-005
-2.983200e-003,-3.879538e-005
-2.959538e-003,-1.652063e-004
-2.733781e-003,-3.040963e-004
-2.227164e-003,-4.374760e-004
-1.495276e-003,-5.449253e-004
-7.215765e-004,-6.056998e-004
-1.412206e-004,-6.060239e-004
6.946425e-005,-5.387668e-004
-1.135075e-004,-4.102490e-004
-5.387668e-004,-2.344082e-004
-9.732639e-004,-3.766092e-005
-1.228679e-003,1.485521e-004
-1.223979e-003,3.007315e-004
-1.002922e-003,4.028327e-004
-7.123387e-004,4.438352e-004
-5.048952e-004,4.102877e-004
-4.251591e-004,3.036487e-004
-3.767015e-004,1.547106e-004
-1.864369e-004,2.392390e-005
2.906835e-004,-1.837515e-005
1.063736e-003,6.670914e-005
2.003879e-003,2.675081e-004
2.907884e-003,5.391297e-004
3.615791e-003,8.274441e-004
4.085623e-003,1.089504e-003
4.363406e-003,1.307968e-003
4.490144e-003,1.481054e-003
4.442981e-003,1.625617e-003
4.153043e-003,1.762887e-003
3.575436e-003,1.890595e-003
2.745655e-003,1.986700e-003
1.763211e-003,2.037589e-003
7.386322e-004,2.057847e-003
-2.402425e-004,2.065626e-003
-1.061427e-003,2.050230e-003
-1.610667e-003,1.959149e-003
-1.813411e-003,1.738739e-003
-1.726219e-003,1.373281e-003
-1.562695e-003,8.947013e-004
-1.573068e-003,3.645853e-004
-1.781970e-003,-1.457585e-004
-1.947439e-003,-5.783107e-004
-1.823459e-003,-9.158928e-004
-1.363841e-003,-1.173901e-003
-7.035872e-004,-1.383937e-003
-1.837515e-005,-1.570312e-003
5.543638e-004,-1.739185e-003
9.410520e-004,-1.879857e-003
1.135693e-003,-1.968183e-003
1.198412e-003,-1.984065e-003
1.245249e-003,-1.917133e-003
1.389163e-003,-1.769815e-003
1.657544e-003,-1.552809e-003
1.963200e-003,-1.281998e-003
2.121052e-003,-9.825015e-004
1.920739e-003,-6.881910e-004
1.220615e-003,-4.311555e-004
-2.492749e-006,-2.298704e-004
-1.588140e-003,-9.438378e-005
-3.145914e-003,-2.469570e-005
-4.231270e-003,-1.270286e-005
-4.539359e-003,-3.830919e-005
-4.050728e-003,-7.493595e-005
-3.022582e-003,-1.018388e-004
-1.878723e-003,-1.136696e-004
-1.025773e-003,-1.242038e-004
-6.416783e-004,-1.541859e-004
-6.193133e-004,-2.144742e-004
-6.817085e-004,-2.955068e-004
-6.105618e-004,-3.770257e-004
-3.622777e-004,-4.378002e-004
-4.057810e-005,-4.659995e-004
1.621656e-004,-4.580583e-004
5.601284e-005,-4.219178e-004
-4.298589e-004,-3.682741e-004
-1.118312e-003,-3.096065e-004
-1.685865e-003,-2.567732e-004
-1.976772e-003,-2.175534e-004
-2.086815e-003,-1.945401e-004
-2.163310e-003,-1.801163e-004
-2.210795e-003,-1.634236e-004
-2.091028e-003,-1.428413e-004
-1.650049e-003,-1.245279e-004
-8.541459e-004,-1.173971e-004
1.493625e-004,-1.253383e-004
1.080590e-003,-1.543479e-004
1.698385e-003,-2.109087e-004
1.905343e-003,-2.914552e-004
1.701140e-003,-3.888564e-004
1.131479e-003,-4.922541e-004
2.978143e-004,-5.802555e-004
-6.100755e-004,-6.306578e-004
-1.352659e-003,-6.232028e-004
-1.741940e-003,-5.554595e-004
-1.679869e-003,-4.322899e-004
-1.189621e-003,-2.616352e-004
-4.319658e-004,-5.370539e-005
3.553475e-004,1.738343e-004
9.382969e-004,3.999155e-004
1.150603e-003,6.059006e-004
9.434830e-004,7.775280e-004
4.512903e-004,9.019942e-004
-5.646050e-005,9.755720e-004
-3.115513e-004,1.007499e-003
-1.916230e-004,1.015116e-003
2.519498e-004,1.016899e-003
8.452713e-004,1.018519e-003
1.391270e-003,1.007175e-003
1.747004e-003,9.621205e-004
1.871147e-003,8.757396e-004
1.814586e-003,7.511112e-004
1.675371e-003,6.023352e-004
1.534860e-003,4.472386e-004
1.430328e-003,3.023522e-004
1.372308e-003,1.783722e-004
1.367284e-003,8.469840e-005
1.424980e-003,3.121684e-005
1.544422e-003,1.906194e-005
1.701788e-003,4.158902e-005
1.852509e-003,8.307774e-005
1.949587e-003,1.210010e-004
1.950883e-003,1.351007e-004
1.840516e-003,1.140322e-004
1.633396e-003,6.508849e-005
1.369877e-003,8.203562e-006
1.102631e-003,-3.685060e-005
8.771982e-004,-6.537409e-005
7.165913e-004,-8.579432e-005
6.208107e-004,-1.101041e-004
5.731634e-004,-1.410586e-004
5.491778e-004,-1.710407e-004
5.297299e-004,-1.878955e-004
5.070407e-004,-1.818991e-004
4.879170e-004,-1.554824e-004
5.015305e-004,-1.266348e-004
5.765668e-004,-1.175591e-004
7.156190e-004,-1.342519e-004
8.851394e-004,-1.637477e-004
1.039102e-003,-1.812508e-004
1.134396e-003,-1.681235e-004
1.150765e-003,-1.186936e-004
1.087397e-003,-4.284701e-005
9.494794e-004,3.105477e-005
7.230740e-004,7.221937e-005
4.107739e-004,6.233338e-005
4.483033e-005,8.689758e-006
-3.230579e-004,-6.035007e-005
-6.413542e-004,-1.177212e-004
-8.769971e-004,-1.473791e-004
-1.014590e-003,-1.493239e-004
-1.064182e-003,-1.319829e-004
-1.090761e-003,-1.049180e-004
-1.194645e-003,-7.218083e-005
-1.445198e-003,-3.911951e-005
-1.828645e-003,-7.516774e-006
-2.241101e-003,1.598270e-005
-2.522933e-003,3.299956e-005
-2.525040e-003,4.871989e-005
-2.161689e-003,7.027458e-005
-1.458325e-003,1.080358e-004
-5.546492e-004,1.645966e-004
3.209897e-004,2.320158e-004
9.551517e-004,2.919800e-004
1.247842e-003,3.290929e-004
1.236660e-003,3.258516e-004
1.073946e-003,2.733424e-004
9.250075e-004,1.827479e-004
8.485126e-004,7.756752e-005
7.768797e-004,-1.950961e-005
6.191900e-004,-9.551824e-005
3.519442e-004,-1.361966e-004
1.663096e-005,-1.293899e-004
-3.609812e-004,-6.407757e-005
-8.129813e-004,5.228533e-005
-1.372107e-003,1.937684e-004
-1.995086e-003,3.286068e-004
-2.575767e-003,4.358940e-004
-3.008320e-003,5.059062e-004
-3.224191e-003,5.354022e-004
-3.193886e-003,5.277851e-004
-2.916915e-003,4.892136e-004
-2.429908e-003,4.300596e-004
-1.830265e-003,3.621543e-004
-1.246992e-003,2.934386e-004
-7.854302e-004,2.295848e-004
-4.833405e-004,1.704310e-004
-3.073376e-004,1.132219e-004
-1.773612e-004,5.325772e-005
-1.189254e-005,-2.242678e-005
2.265056e-004,-1.305243e-004
5.276231e-004,-2.857829e-004
8.536987e-004,-4.930644e-004
1.146875e-003,-7.432932e-004
1.342488e-003,-1.017346e-003
1.400994e-003,-1.287346e-003
1.334223e-003,-1.515048e-003
1.211864e-003,-1.661069e-003
1.123052e-003,-1.688134e-003
1.139420e-003,-1.567557e-003
1.304889e-003,-1.290264e-003
1.603576e-003,-8.799143e-004
1.897402e-003,-3.929081e-004
1.931759e-003,1.054428e-004
1.466631e-003,5.614947e-004
5.143337e-004,9.451036e-004
-5.554595e-004,1.247356e-003
-1.217172e-003,1.472465e-003
-1.150239e-003,1.636638e-003
-4.190006e-004,1.753001e-003
5.666808e-004,1.829172e-003
1.300027e-003,1.869364e-003
1.429194e-003,1.870012e-003
8.596951e-004,1.820582e-003
-1.956746e-004,1.710702e-003
-1.370000e-003,1.539398e-003
-2.398953e-003,1.319799e-003
-3.143807e-003,1.068760e-003
-3.491925e-003,8.066997e-004
-3.371834e-003,5.537156e-004
-2.833127e-003,3.289309e-004
-2.071581e-003,1.448246e-004
-1.329808e-003,1.225520e-005
-7.773269e-004,-6.035007e-005
-4.619479e-004,-6.861539e-005
-3.203028e-004,-3.004385e-005
-2.292221e-004,2.084466e-005
-3.604027e-005,4.418206e-005
3.700955e-004,1.419998e-005
9.700617e-004,-6.958779e-005
1.606818e-003,-1.867610e-004
2.092529e-003,-3.117133e-004
2.299811e-003,-4.253211e-004
2.173238e-003,-5.134846e-004
1.734039e-003,-5.685869e-004
1.093556e-003,-5.881967e-004
3.997535e-004,-5.815520e-004
-2.070192e-004,-5.634008e-004
-6.042412e-004,-5.493010e-004
-7.115284e-004,-5.467080e-004
-5.402254e-004,-5.561078e-004
-2.219292e-004,-5.726385e-004
8.129502e-005,-5.909518e-004
2.885766e-004,-6.022964e-004
4.098015e-004,-6.003517e-004
5.041235e-004,-5.833348e-004
6.655407e-004,-5.520562e-004
9.778409e-004,-5.113778e-004
1.423683e-003,-4.674581e-004
1.888650e-003,-4.271038e-004
2.232230e-003,-3.920977e-004
2.347135e-003,-3.619536e-004
2.207596e-003,-3.391024e-004
1.855426e-003,-3.290543e-004
1.325471e-003,-3.392644e-004
6.705648e-004,-3.815635e-004
-1.821308e-005,-4.593548e-004
-6.800878e-004,-5.650214e-004
-1.310198e-003,-6.815463e-004
-1.907246e-003,-7.774890e-004
-2.427477e-003,-8.139537e-004
-2.798445e-003,-7.688995e-004
-2.976879e-003,-6.496195e-004
-2.965859e-003,-4.875542e-004
-2.805252e-003,-3.201407e-004
-2.554050e-003,-1.692580e-004
-2.242398e-003,-4.090223e-005
-1.862678e-003,7.935024e-005
-1.410030e-003,2.072198e-004
-9.066550e-004,3.521062e-004
-3.927460e-004,5.044477e-004
1.072255e-004,6.381517e-004
5.966629e-004,7.269635e-004
1.083508e-003,7.669937e-004
1.564843e-003,7.752590e-004
2.019599e-003,7.665075e-004
2.408233e-003,7.363633e-004
2.672564e-003,6.627856e-004
2.762348e-003,5.305402e-004
2.655546e-003,3.461098e-004
2.389758e-003,1.396385e-004
2.070974e-003,-5.013995e-005
1.803727e-003,-1.895161e-004
1.624321e-003,-2.629317e-004
1.500178e-003,-2.823795e-004
1.352699e-003,-2.781658e-004
1.116569e-003,-2.796244e-004
7.913035e-004,-3.024756e-004
4.415663e-004,-3.567675e-004
1.584381e-004,-4.382863e-004
1.257933e-005,-5.339049e-004
2.538249e-005,-6.368163e-004
2.021958e-004,-7.447518e-004
5.718669e-004,-8.496080e-004
1.150116e-003,-9.330717e-004
1.861747e-003,-9.698605e-004
2.534807e-003,-9.434438e-004
2.964769e-003,-8.510666e-004
3.025706e-003,-7.073147e-004
2.711783e-003,-5.335807e-004
2.092042e-003,-3.483401e-004
1.256107e-003,-1.559686e-004
2.981384e-004,4.304761e-005
-6.603158e-004,2.466017e-004
-1.474694e-003,4.376768e-004
-2.032847e-003,5.939078e-004
-2.287128e-003,7.015193e-004
-2.279187e-003,7.676419e-004
-2.157800e-003,8.160995e-004
-2.120687e-003,8.665019e-004
-2.352116e-003,9.170663e-004
-2.972341e-003,9.386210e-004
-3.917834e-003,8.990770e-004
-4.806769e-003,7.877381e-004
-4.968512e-003,6.271312e-004
-4.502084e-003,4.555039e-004
-3.101022e-003,3.101313e-004
-1.346176e-003,2.115956e-004
2.167816e-004,1.675138e-004
1.196305e-003,1.697827e-004
1.556253e-003,1.957132e-004
1.501961e-003,2.111094e-004
1.321096e-003,1.764274e-004
1.218184e-003,6.670914e-005
1.237794e-003,-1.120489e-004
1.296786e-003,-3.243544e-004
1.315099e-003,-5.157535e-004
1.316396e-003,-6.398956e-004
1.406829e-003,-6.737672e-004
1.686878e-003,-6.282268e-004
2.184744e-003,-5.322842e-004
2.818423e-003,-4.128421e-004
3.406725e-003,-2.856209e-004
3.737341e-003,-1.465688e-004
3.629890e-003,1.873781e-005
2.993941e-003,2.216436e-004
1.904046e-003,4.493454e-004
5.990939e-004,6.657028e-004
-5.841451e-004,8.366818e-004
-1.428019e-003,9.527208e-004
-2.033009e-003,1.029864e-003
-2.713684e-003,1.090801e-003
-3.635353e-003,1.153358e-003
-4.599161e-003,1.241197e-003
-4.968674e-003,1.367771e-003
-4.968512e-003,1.510064e-003
-4.194319e-003,1.628696e-003
-2.737184e-003,1.691740e-003
-1.074231e-003,1.687040e-003
4.130428e-004,1.608762e-003
1.420280e-003,1.446859e-003
1.871147e-003,1.196791e-003
1.876009e-003,8.867600e-004
1.638096e-003,5.710566e-004
1.387219e-003,3.049452e-004
1.291276e-003,1.153287e-004
1.409746e-003,-1.189254e-005
1.670185e-003,-1.130213e-004
1.878440e-003,-2.245222e-004
1.816206e-003,-3.660052e-004
1.393539e-003,-5.332566e-004
6.619753e-004,-7.011562e-004
-2.695764e-004,-8.418289e-004
-1.237106e-003,-9.402025e-004
-2.099780e-003,-9.951427e-004
-2.801200e-003,-1.015725e-003
-3.327914e-003,-1.010863e-003
-3.647508e-003,-9.854188e-004
-3.683811e-003,-9.468472e-004
-3.353034e-003,-8.996862e-004
-2.646103e-003,-8.479874e-004
-1.664635e-003,-7.945059e-004
-5.799314e-004,-7.421587e-004
4.115842e-004,-6.894876e-004
1.126455e-003,-6.293613e-004
1.471979e-003,-5.507597e-004
1.448155e-003,-4.559515e-004
1.122403e-003,-3.564434e-004
6.357207e-004,-2.711970e-004
1.997648e-004,-2.173914e-004
-1.399939e-005,-2.094502e-004
1.792748e-005,-2.533699e-004
1.762653e-004,-3.356990e-004
3.102934e-004,-4.269418e-004
3.503235e-004,-4.932265e-004
3.337929e-004,-5.147812e-004
3.535648e-004,-4.878783e-004
4.900239e-004,-4.215936e-004
7.355530e-004,-3.326198e-004
9.737893e-004,-2.288980e-004
1.036833e-003,-1.157764e-004
8.297130e-004,2.531276e-006
4.542074e-004,1.185701e-004
1.714034e-004,2.196988e-004
1.775618e-004,2.944109e-004
4.538833e-004,3.384927e-004
7.966516e-004,3.582647e-004
9.075044e-004,3.675024e-004
5.146578e-004,3.798194e-004
-4.094387e-004,3.991052e-004
-1.547948e-003,4.117463e-004
-2.477879e-003,3.952156e-004
-2.917401e-003,3.329825e-004
-2.809952e-003,2.208333e-004
-2.275945e-003,6.541262e-005
-1.492845e-003,-1.250141e-004
-6.068342e-004,-3.363473e-004
2.561635e-004,-5.564319e-004
9.775168e-004,-7.719788e-004
1.482837e-003,-9.572194e-004
1.758349e-003,-1.075041e-003
1.833872e-003,-1.094975e-003
1.767263e-003,-9.988702e-004
1.637772e-003,-7.930472e-004
1.517681e-003,-4.998712e-004
1.445562e-003,-1.567789e-004
1.437945e-003,1.908512e-004
1.517681e-003,4.971547e-004
1.734039e-003,7.310151e-004
2.131101e-003,8.833567e-004
2.644526e-003,9.687652e-004
3.075947e-003,1.009930e-003
3.163463e-003,1.022085e-003
2.720697e-003,1.009444e-003
1.790276e-003,9.771927e-004
6.629477e-004,9.373245e-004
-2.741142e-004,9.028045e-004
-7.719788e-004,8.789809e-004
-8.236776e-004,8.536987e-004
-5.732867e-004,8.016757e-004
-2.041020e-004,7.091364e-004
1.830721e-004,5.871011e-004
5.449640e-004,4.595556e-004
7.438183e-004,3.459477e-004
4.721967e-004,2.540567e-004
-6.191512e-004,1.806411e-004
-2.586787e-003,1.133840e-004
-4.906440e-003,4.191315e-005
-4.968512e-003,-3.749886e-005
-4.968350e-003,-1.193418e-004
-4.968512e-003,-2.023193e-004
-4.012967e-003,-2.852967e-004
-1.534820e-003,-3.694086e-004
7.151327e-004,-4.572480e-004
2.331090e-003,-5.478425e-004
3.323908e-003,-6.314681e-004
3.833771e-003,-6.877048e-004
3.964559e-003,-7.037492e-004
3.777858e-003,-6.862463e-004
3.359239e-003,-6.514022e-004
2.803675e-003,-6.089411e-004
2.164972e-003,-5.588629e-004
1.478948e-003,-4.956574e-004
7.989206e-004,-4.201350e-004
1.837203e-004,-3.394265e-004
-3.653570e-004,-2.609869e-004
-8.538218e-004,-1.870851e-004
-1.222520e-003,-1.156143e-004
-1.386693e-003,-4.284701e-005
-1.297719e-003,3.721326e-005
-9.598124e-004,1.401247e-004
-4.288866e-004,2.778803e-004
2.085163e-004,4.443214e-004
8.540229e-004,6.044420e-004
1.416715e-003,7.042743e-004
1.824796e-003,7.024916e-004
2.045530e-003,5.911527e-004
2.101280e-003,4.013741e-004
2.049743e-003,1.879340e-004
1.959311e-003,4.638125e-006
1.884436e-003,-1.120489e-004
1.841489e-003,-1.614788e-004
1.797569e-003,-1.639098e-004
1.692712e-003,-1.470550e-004
1.475868e-003,-1.308485e-004
1.130182e-003,-1.208004e-004
6.475514e-004,-1.131834e-004
3.827799e-006,-9.746302e-005
-7.970989e-004,-7.120844e-005
-1.681489e-003,-4.025397e-005
-2.522771e-003,-1.399939e-005
-3.172817e-003,-5.479652e-007
-3.486090e-003,-1.302700e-005
-3.387716e-003,-6.877746e-005
-2.925018e-003,-1.809267e-004
-2.248232e-003,-3.442885e-004
-1.535468e-003,-5.392530e-004
-9.134618e-004,-7.353520e-004
-4.277521e-004,-8.948243e-004
-5.824322e-005,-9.758569e-004
2.286124e-004,-9.502506e-004
4.451317e-004,-8.231914e-004
5.890459e-004,-6.377887e-004
6.663511e-004,-4.374760e-004
7.122156e-004,-2.446183e-004
7.558112e-004,-6.051213e-005
7.950310e-004,1.182459e-004
8.151271e-004,2.900352e-004
8.154513e-004,4.474007e-004
8.062135e-004,5.772150e-004
8.047550e-004,6.673234e-004
8.220959e-004,7.157810e-004
8.402473e-004,7.449528e-004
8.115617e-004,7.917897e-004
6.942263e-004,8.869221e-004
5.251921e-004,1.032457e-003
4.075326e-004,1.198088e-003
3.884089e-004,1.322392e-003
4.209840e-004,1.346702e-003
3.910019e-004,1.246870e-003
1.569795e-004,1.056605e-003
-3.728119e-004,8.395990e-004
-1.181842e-003,6.587339e-004
-2.128952e-003,5.488536e-004
-2.946735e-003,5.144958e-004
-3.360813e-003,5.520949e-004
-3.241047e-003,6.528996e-004
-2.639459e-003,7.867657e-004
-1.738698e-003,9.015080e-004
-7.708443e-004,9.447795e-004
5.649903e-005,8.888670e-004
6.394482e-004,7.426839e-004
9.655239e-004,5.415607e-004
1.025812e-003,3.260137e-004
7.937344e-004,1.265113e-004
3.124002e-004,-4.365734e-005
-2.786520e-004,-1.895161e-004
-8.436117e-004,-3.157650e-004
-1.342287e-003,-4.215936e-004
-1.827510e-003,-5.076503e-004
-2.401708e-003,-5.771763e-004
-3.159041e-003,-6.361681e-004
-4.088004e-003,-6.859221e-004
-4.968350e-003,-7.241695e-004
-4.968674e-003,-7.449139e-004
-4.968350e-003,-7.496137e-004
-4.806769e-003,-7.411864e-004
-3.700990e-003,-7.209282e-004
-2.440118e-003,-6.880290e-004
-1.251854e-003,-6.434610e-004
-2.697385e-004,-5.941931e-004
4.611762e-004,-5.473563e-004
9.718445e-004,-5.091089e-004
1.315423e-003,-4.847991e-004
1.519626e-003,-4.820440e-004
1.606331e-003,-4.998712e-004
1.615407e-003,-5.279084e-004
1.577808e-003,-5.538389e-004
1.506013e-003,-5.716661e-004
1.428383e-003,-5.775004e-004
1.401804e-003,-5.705316e-004
1.489806e-003,-5.591870e-004
1.716536e-003,-5.606457e-004
2.046016e-003,-5.828486e-004
2.412123e-003,-6.172064e-004
2.752138e-003,-6.447575e-004
3.016468e-003,-6.382749e-004
3.171566e-003,-5.800935e-004
3.188259e-003,-4.671340e-004
3.050826e-003,-3.113892e-004
2.778393e-003,-1.332795e-004
2.426061e-003,4.499239e-005
2.060440e-003,2.008992e-004
1.692064e-003,3.187208e-004
1.253352e-003,3.837090e-004
7.058950e-004,3.905157e-004
1.482280e-004,3.496752e-004
-2.115570e-004,2.872801e-004
-1.994021e-004,2.307193e-004
1.974959e-004,1.991165e-004
7.911414e-004,1.945787e-004
1.285441e-003,2.031682e-004
1.461931e-003,2.148369e-004
1.297758e-003,2.260194e-004
9.553138e-004,2.406053e-004
6.527375e-004,2.662116e-004
5.595500e-004,3.038107e-004
7.387943e-004,3.474063e-004
1.137475e-003,3.850055e-004
1.630965e-003,4.038051e-004
2.072270e-003,3.950536e-004
2.342759e-003,3.600474e-004
2.355400e-003,3.114278e-004
2.043747e-003,2.637806e-004
1.370688e-003,2.221298e-004
4.261701e-004,1.843686e-004
-4.770200e-004,1.467694e-004
-9.664571e-004,1.098185e-004
-9.013069e-004,8.226741e-005
-4.258073e-004,8.016057e-005
1.419075e-004,1.140322e-004
4.812723e-004,1.812893e-004
4.156358e-004,2.602152e-004
-5.921561e-005,3.302274e-004
-8.483115e-004,3.772264e-004
-1.816166e-003,3.937570e-004
-2.784345e-003,3.730126e-004
-3.508617e-003,3.023522e-004
-3.758523e-003,1.702689e-004
-3.430015e-003,-1.983374e-005
-2.580142e-003,-2.491561e-004
-1.392689e-003,-4.796130e-004
-1.302002e-004,-6.689052e-004
8.909738e-004,-7.771649e-004
1.404397e-003,-7.836475e-004
1.293383e-003,-6.901358e-004
7.110811e-004,-5.131605e-004
6.606088e-005,-2.755728e-004
-2.616352e-004,-6.382317e-006
-1.425172e-004,2.608634e-004
2.816078e-004,4.950479e-004
7.034640e-004,6.770474e-004
8.418679e-004,7.951931e-004
5.969870e-004,8.477023e-004
7.805372e-005,8.449472e-004
-4.925782e-004,8.041067e-004
-8.936898e-004,7.433321e-004
-1.002922e-003,6.817472e-004
-8.337257e-004,6.191900e-004
-5.105674e-004,5.290816e-004
-1.865989e-004,3.811159e-004
3.235129e-005,1.671896e-004
1.150046e-004,-9.535618e-005
8.777764e-005,-3.732982e-004
1.501031e-005,-6.356818e-004
-3.134038e-005,-8.638698e-004
-2.258885e-005,-1.053486e-003
-3.620233e-005,-1.197238e-003
-2.066950e-004,-1.281188e-003
-5.951655e-004,-1.291560e-003
-1.143108e-003,-1.211986e-003
-1.701099e-003,-1.041493e-003
-2.077577e-003,-7.995299e-004
-2.093460e-003,-5.160777e-004
-1.666255e-003,-2.206326e-004
-8.596561e-004,6.168512e-005
1.453108e-004,3.119140e-004
1.114624e-003,5.250300e-004
1.889622e-003,7.036261e-004
2.422657e-003,8.460816e-004
2.729773e-003,9.472105e-004
2.831064e-003,1.000044e-003
2.750841e-003,1.003285e-003
2.522814e-003,9.729789e-004
2.207920e-003,9.347314e-004
1.879412e-003,9.055596e-004
1.608600e-003,8.746051e-004
1.431625e-003,8.105893e-004
1.309751e-003,6.919574e-004
1.162434e-003,5.256782e-004
9.488311e-004,3.491891e-004
6.874196e-004,2.046267e-004
4.119083e-004,1.094944e-004
1.289422e-004,6.346784e-005
-1.733096e-004,5.520250e-005
-5.201293e-004,6.703327e-005
-9.423094e-004,7.772959e-005
-1.447791e-003,6.735741e-005
-1.995734e-003,2.489629e-005
-2.554212e-003,-4.009191e-005
-3.153045e-003,-1.054042e-004
-3.819946e-003,-1.480274e-004
-4.472426e-003,-1.561307e-004
-4.923133e-003,-1.306864e-004
-4.968512e-003,-7.720486e-005
-4.602565e-003,-5.896120e-006
-3.844742e-003,7.302970e-005
-2.901681e-003,1.496866e-004
-2.001082e-003,2.158093e-004
-1.324459e-003,2.699391e-004
-9.369612e-004,3.109416e-004
-8.105503e-004,3.384927e-004
-8.716490e-004,3.564820e-004
-1.016049e-003,3.752816e-004
-1.156074e-003,4.031568e-004
-1.229327e-003,4.323286e-004
-1.118312e-003,4.397836e-004
-6.805740e-004,3.997535e-004
1.193804e-004,2.987867e-004
1.166647e-003,1.417454e-004
2.232068e-003,-4.317115e-005
3.072219e-003,-2.230636e-004
3.504937e-003,-3.682741e-004
3.473496e-003,-4.617858e-004
3.035106e-003,-5.071641e-004
2.305645e-003,-5.267740e-004
1.416715e-003,-5.410357e-004
5.072028e-004,-5.612939e-004
-2.784900e-004,-5.877105e-004
-8.460426e-004,-6.173685e-004
-1.185731e-003,-6.502678e-004
-1.354603e-003,-6.877048e-004
-1.400144e-003,-7.235213e-004
-1.299501e-003,-7.489655e-004
-9.763431e-004,-7.604721e-004
-3.920977e-004,-7.573929e-004
3.759298e-004,-7.376209e-004
1.158220e-003,-7.016424e-004
1.787683e-003,-6.499436e-004
2.165621e-003,-5.834968e-004
2.285549e-003,-5.107295e-004
2.204030e-003,-4.475241e-004
2.012144e-003,-4.087905e-004
1.791897e-003,-4.003631e-004
1.604711e-003,-4.151110e-004
1.489320e-003,-4.371519e-004
1.447993e-003,-4.499550e-004
1.451234e-003,-4.429862e-004
1.457555e-003,-4.087905e-004
1.442483e-003,-3.533641e-004
1.404722e-003,-2.874036e-004
1.349133e-003,-2.193361e-004
1.267290e-003,-1.486757e-004
1.155951e-003,-7.137051e-005
1.031647e-003,1.744129e-005
9.251696e-004,1.125736e-004
8.671501e-004,1.992786e-004
8.645570e-004,2.563256e-004
8.976185e-004,2.759355e-004
9.008598e-004,2.665357e-004
7.605111e-004,2.488706e-004
3.814401e-004,2.459534e-004
-2.178775e-004,2.722080e-004
-8.774833e-004,3.299033e-004
-1.390420e-003,4.120704e-004
-1.602239e-003,5.062304e-004
-1.473722e-003,6.008766e-004
-1.087682e-003,6.828817e-004
-6.001896e-004,7.459252e-004
-1.430034e-004,7.940586e-004
2.483844e-004,8.321440e-004
6.191900e-004,8.637467e-004
1.027433e-003,8.896773e-004
1.492885e-003,9.052355e-004
2.002096e-003,8.984288e-004
2.510497e-003,8.608295e-004
2.919228e-003,7.930862e-004
3.093936e-003,7.018434e-004
2.942728e-003,6.018490e-004
2.442753e-003,5.130371e-004
1.621241e-003,4.482110e-004
5.605224e-004,4.141773e-004
-5.564319e-004,4.051016e-004
-1.488307e-003,4.075326e-004
-2.094918e-003,4.073705e-004
-2.354709e-003,3.926226e-004
-2.304307e-003,3.558337e-004
-2.017613e-003,3.018659e-004
-1.610829e-003,2.365536e-004
-1.193511e-003,1.663793e-004
-8.267568e-004,9.571884e-005
-5.219121e-004,3.008238e-005
-2.465631e-004,-2.745081e-005
4.256141e-005,-8.287715e-005
3.676645e-004,-1.442999e-004
7.015193e-004,-2.172293e-004
9.527208e-004,-2.993964e-004
1.029540e-003,-3.826980e-004
8.903255e-004,-4.536825e-004
5.679773e-004,-5.045711e-004
1.618415e-004,-5.334187e-004
-2.175534e-004,-5.400634e-004
-5.674524e-004,-5.300153e-004
-9.795844e-004,-5.089468e-004
-1.522179e-003,-4.860956e-004
-2.119876e-003,-4.651892e-004
-2.625359e-003,-4.425001e-004
-2.998434e-003,-4.100870e-004
-3.379775e-003,-3.632501e-004
-3.897252e-003,-3.073376e-004
-4.487660e-003,-2.590421e-004
-4.956033e-003,-2.337599e-004
-4.968512e-003,-2.334358e-004
-4.968188e-003,-2.507768e-004
-4.383937e-003,-2.731418e-004
-3.490952e-003,-2.870794e-004
-2.420994e-003,-2.838381e-004
-1.352821e-003,-2.655248e-004
-4.361795e-004,-2.428356e-004
2.480603e-004,-2.241981e-004
6.926056e-004,-2.144742e-004
9.504518e-004,-2.105846e-004
1.105224e-003,-2.026434e-004
1.234553e-003,-1.846542e-004
1.394998e-003,-1.541859e-004
1.609248e-003,-1.159385e-004
1.837923e-003,-8.935975e-005
1.966279e-003,-9.470791e-005
1.858019e-003,-1.464067e-004
1.462417e-003,-2.511010e-004
9.034528e-004,-4.044147e-004
4.159600e-004,-5.886829e-004
1.897167e-004,-7.792717e-004
2.623220e-004,-9.431197e-004
5.188715e-004,-1.056079e-003
7.810934e-004,-1.098864e-003
9.472105e-004,-1.058348e-003
1.081077e-003,-9.257787e-004
1.283983e-003,-7.029389e-004
1.523840e-003,-4.011734e-004
1.656572e-003,-4.138842e-005
1.560467e-003,3.555096e-004
1.221263e-003,7.689385e-004
7.703970e-004,1.173292e-003
4.470765e-004,1.538264e-003
4.417284e-004,1.835979e-003
7.527319e-004,2.055902e-003
1.227098e-003,2.205975e-003
1.670509e-003,2.294463e-003
1.920901e-003,2.313425e-003
1.873578e-003,2.240981e-003
1.504878e-003,2.062060e-003
8.823843e-004,1.783631e-003
1.414213e-004,1.429194e-003
-5.841451e-004,1.028405e-003
-1.205341e-003,6.187038e-004
-1.669497e-003,2.384984e-004
-1.983903e-003,-7.720486e-005
-2.203664e-003,-3.019894e-004
-2.376264e-003,-4.243487e-004
-2.500568e-003,-4.541688e-004
-2.525526e-003,-4.136524e-004
-2.384043e-003,-3.228959e-004
-2.031389e-003,-1.985918e-004
-1.473235e-003,-6.294311e-005
-7.714926e-004,6.298164e-005
-3.312309e-005,1.684862e-004
6.342620e-004,2.530843e-004
1.163082e-003,3.183966e-004
1.542477e-003,3.618301e-004
1.809076e-003,3.734989e-004
2.020895e-003,3.436788e-004
2.212458e-003,2.684805e-004
2.381492e-003,1.615174e-004
2.488618e-003,3.867184e-005
2.487646e-003,-8.968389e-005
2.361558e-003,-2.199844e-004
2.144228e-003,-3.585502e-004
1.907450e-003,-5.102433e-004
1.723019e-003,-6.742534e-004
1.623996e-003,-8.426392e-004
1.576025e-003,-9.970875e-004
1.503744e-003,-1.123985e-003
1.358209e-003,-1.217982e-003
1.172157e-003,-1.275029e-003
1.040722e-003,-1.283295e-003
1.039426e-003,-1.239051e-003
1.147037e-003,-1.153480e-003
1.258538e-003,-1.042142e-003
1.257728e-003,-9.124894e-004
1.104738e-003,-7.671168e-004
8.426782e-004,-6.044033e-004
5.242196e-004,-4.245108e-004
1.522796e-004,-2.394322e-004
-3.092824e-004,-6.116039e-005
-8.757006e-004,8.988449e-005
-1.491063e-003,1.853410e-004
-2.032523e-003,2.007372e-004
-2.365892e-003,1.265113e-004
-2.381126e-003,-2.031993e-005
-2.016965e-003,-2.063709e-004
-1.292370e-003,-3.971218e-004
-3.238683e-004,-5.677765e-004
6.817472e-004,-7.063423e-004
1.509902e-003,-8.032574e-004
2.036454e-003,-8.392359e-004
2.212620e-003,-7.945059e-004
2.067895e-003,-6.538332e-004
1.706488e-003,-4.224039e-004
1.268262e-003,-1.279313e-004
9.063699e-004,1.829100e-004
7.141604e-004,4.728449e-004
6.606788e-004,7.222636e-004
6.198382e-004,9.308419e-004
4.563143e-004,1.104576e-003
1.179218e-004,1.248977e-003
-3.373197e-004,1.362909e-003
-8.444220e-004,1.442807e-003
-1.402251e-003,1.496127e-003
-2.008861e-003,1.535022e-003
-2.602183e-003,1.565005e-003
-3.080925e-003,1.574242e-003
-3.348172e-003,1.533726e-003
-3.339907e-003,1.421901e-003
-3.058560e-003,1.239577e-003
-2.583546e-003,1.004258e-003
-2.048729e-003,7.374978e-004
-1.594298e-003,4.621486e-004
-1.298853e-003,1.987924e-004
-1.141650e-003,-3.604027e-005
-1.053486e-003,-2.287359e-004
-9.774775e-004,-3.671397e-004
-9.225374e-004,-4.459034e-004
-9.606228e-004,-4.732924e-004
-1.139543e-003,-4.676201e-004
-1.318625e-003,-4.493068e-004
-1.232568e-003,-4.386105e-004
-7.319486e-004,-4.535205e-004
9.928428e-005,-4.995471e-004
1.040074e-003,-5.706937e-004
1.898860e-003,-6.593434e-004
2.570948e-003,-7.645238e-004
2.943700e-003,-8.946622e-004
2.845488e-003,-1.046679e-003
2.194468e-003,-1.204693e-003
1.187554e-003,-1.342773e-003
1.931201e-004,-1.427209e-003
-4.988988e-004,-1.421212e-003
-8.573871e-004,-1.299339e-003
-1.058024e-003,-1.053486e-003
-1.302905e-003,-7.043975e-004
-1.665931e-003,-2.921034e-004
-2.069474e-003,1.294284e-004
-2.372860e-003,5.088235e-004
-2.483065e-003,8.091307e-004
-2.423911e-003,1.013171e-003
-2.339637e-003,1.125320e-003
-2.363623e-003,1.165189e-003
-2.482417e-003,1.151089e-003
-2.533305e-003,1.098742e-003
-2.343203e-003,1.022085e-003
-1.874509e-003,9.332729e-004
-1.219279e-003,8.426782e-004
-5.006815e-004,7.519216e-004
1.926339e-004,6.488480e-004
8.013516e-004,5.143337e-004
1.276366e-003,3.396272e-004
1.582670e-003,1.396385e-004
1.730798e-003,-5.224680e-005
1.773745e-003,-2.049123e-004
1.767587e-003,-3.050687e-004
1.742791e-003,-3.595226e-004
1.715564e-003,-3.812394e-004
1.714753e-003,-3.849669e-004
1.777797e-003,-3.856151e-004
1.905667e-003,-3.938804e-004
2.047150e-003,-4.099249e-004
2.103225e-003,-4.254832e-004
1.944077e-003,-4.326141e-004
1.459824e-003,-4.251591e-004
6.606788e-004,-4.024699e-004
-2.494803e-004,-3.703810e-004
-9.437680e-004,-3.348887e-004
-1.163691e-003,-3.002067e-004
-8.556045e-004,-2.726556e-004
-1.838438e-004,-2.548284e-004
5.138475e-004,-2.457528e-004
8.786568e-004,-2.371633e-004
7.749349e-004,-2.177155e-004
3.736609e-004,-1.861127e-004
2.846173e-005,-1.501342e-004
5.163707e-005,-1.177212e-004
5.201680e-004,-9.033215e-005
1.282200e-003,-6.521203e-005
2.073405e-003,-4.090223e-005
2.610168e-003,-1.902341e-005
2.693308e-003,-8.651231e-006
2.279229e-003,-1.902341e-005
1.478948e-003,-5.402952e-005
4.990995e-004,-1.065387e-004
-4.369898e-004,-1.596961e-004
-1.171956e-003,-1.948643e-004
-1.640001e-003,-2.002124e-004
-1.813411e-003,-1.793060e-004
-1.665769e-003,-1.436516e-004
-1.200804e-003,-1.029732e-004
-4.995471e-004,-5.775702e-005
2.686426e-004,-4.113403e-006
9.125285e-004,5.828175e-005
1.310886e-003,1.229458e-004
1.433893e-003,1.812893e-004
1.332440e-003,2.250470e-004
1.092259e-003,2.514636e-004
7.922759e-004,2.736666e-004
4.867825e-004,3.141829e-004
2.151610e-004,3.892192e-004
7.717366e-006,4.885653e-004
-1.021629e-004,5.781874e-004
-9.179074e-005,6.261588e-004
3.137890e-005,6.131936e-004
2.312055e-004,5.441537e-004
4.524247e-004,4.477248e-004
6.297242e-004,3.564820e-004
7.151327e-004,2.919800e-004
6.994124e-004,2.597290e-004
5.966629e-004,2.475741e-004
4.136911e-004,2.341226e-004
1.449867e-004,2.086784e-004
-1.836818e-004,1.746447e-004
-4.877163e-004,1.436902e-004
-6.663122e-004,1.234320e-004
-6.705259e-004,1.151667e-004
-5.223983e-004,1.198666e-004
-2.958309e-004,1.355869e-004
-7.056019e-005,1.602208e-004
1.083599e-004,1.911753e-004
2.279642e-004,2.206712e-004
3.017039e-004,2.414156e-004
3.576164e-004,2.448189e-004
4.169324e-004,2.221298e-004
4.718725e-004,1.579519e-004
4.747897e-004,3.413401e-005
3.833848e-004,-1.609926e-004
1.929580e-004,-4.298589e-004
-5.678463e-005,-7.504240e-004
-2.935620e-004,-1.075041e-003
-4.634065e-004,-1.348283e-003
-5.932208e-004,-1.519910e-003
-7.606342e-004,-1.562533e-003
-1.015887e-003,-1.481663e-003
-1.346662e-003,-1.301284e-003
-1.680355e-003,-1.046193e-003
-1.910164e-003,-7.329211e-004
-1.929936e-003,-3.734602e-004
-1.680517e-003,1.971020e-005
-1.179411e-003,4.281149e-004
-5.228845e-004,8.251752e-004
1.501728e-004,1.180909e-003
6.998986e-004,1.470034e-003
1.038129e-003,1.681692e-003
1.155465e-003,1.829172e-003
1.108628e-003,1.944887e-003
1.000206e-003,2.049905e-003
9.237110e-004,2.119432e-003
9.113940e-004,2.089612e-003
9.715204e-004,1.899833e-003
1.123700e-003,1.547826e-003
1.367609e-003,1.091935e-003
1.663865e-003,6.234037e-004
1.953476e-003,2.242366e-004
2.183286e-003,-6.116039e-005
2.318287e-003,-2.276015e-004
2.344541e-003,-2.982619e-004
2.266912e-003,-3.100927e-004
2.084588e-003,-3.008550e-004
1.802917e-003,-2.925897e-004
1.464686e-003,-2.927517e-004
1.145741e-003,-3.005308e-004
9.042631e-004,-3.121996e-004
7.110811e-004,-3.206269e-004
4.286011e-004,-3.214373e-004
-1.553203e-004,-3.126857e-004
-1.209393e-003,-2.969654e-004
-2.745612e-003,-2.768693e-004
-4.567396e-003,-2.519113e-004
-4.968350e-003,-2.230636e-004
-4.968512e-003,-1.951884e-004
-4.968512e-003,-1.697442e-004
-4.968674e-003,-1.473791e-004
-4.968512e-003,-1.289037e-004
-4.199668e-003,-1.162626e-004
-3.618336e-003,-1.092938e-004
-3.486090e-003,-1.096179e-004
-3.470046e-003,-1.122110e-004
-3.271839e-003,-1.101041e-004
-2.794555e-003,-9.940781e-005
-2.128952e-003,-8.044617e-005
-1.424616e-003,-5.840528e-005
-7.744097e-004,-4.009191e-005
-1.898403e-004,-2.890940e-005
3.621543e-004,-2.680255e-005
9.034528e-004,-3.863332e-005
1.405208e-003,-6.715681e-005
1.805348e-003,-1.120489e-004
2.061250e-003,-1.682856e-004
2.184582e-003,-2.316531e-004
2.220723e-003,-2.925897e-004
2.208568e-003,-3.416954e-004
2.173886e-003,-3.732982e-004
2.143742e-003,-3.877220e-004
2.141311e-003,-3.917736e-004
2.164810e-003,-3.940425e-004
2.176155e-003,-3.985804e-004
2.104684e-003,-4.047388e-004
1.880223e-003,-4.121938e-004
1.459662e-003,-4.199730e-004
8.606675e-004,-4.293727e-004
1.804790e-004,-4.425001e-004
-4.287245e-004,-4.578962e-004
-8.338877e-004,-4.716718e-004
-9.779637e-004,-4.779923e-004
-8.933656e-004,-4.762096e-004
-6.588572e-004,-4.710235e-004
-3.446126e-004,-4.614617e-004
6.907040e-006,-4.444448e-004
3.757678e-004,-4.159214e-004
7.436562e-004,-3.779981e-004
1.086263e-003,-3.369955e-004
1.381222e-003,-3.008550e-004
1.622214e-003,-2.720074e-004
1.807779e-003,-2.486699e-004
1.938566e-003,-2.295462e-004
2.019599e-003,-2.138259e-004
2.063843e-003,-2.008607e-004
2.102091e-003,-1.878955e-004
2.171617e-003,-1.726613e-004
2.303052e-003,-1.561307e-004
2.476301e-003,-1.426792e-004
2.618595e-003,-1.352242e-004
2.672077e-003,-1.305243e-004
2.657977e-003,-1.206384e-004
2.662353e-003,-9.811128e-005
2.757486e-003,-5.694670e-005
2.946131e-003,7.069105e-006
3.159087e-003,8.875003e-005
3.262971e-003,1.799928e-004
3.076109e-003,2.670219e-004
2.419416e-003,3.344411e-004
1.254487e-003,3.689610e-004
-1.930815e-004,3.684748e-004
-1.515372e-003,3.454615e-004
-2.444007e-003,3.146691e-004
-2.977852e-003,2.858215e-004
-3.323052e-003,2.660495e-004
-3.719951e-003,2.597290e-004
-4.252177e-003,2.709115e-004
-4.810010e-003,2.914938e-004
-4.968512e-003,3.073762e-004
-4.968512e-003,3.057555e-004
-4.968674e-003,2.751252e-004
-4.428343e-003,2.028440e-004
-3.584788e-003,8.583286e-005
-2.580629e-003,-7.347736e-005
-1.613746e-003,-2.724935e-004
-8.910968e-004,-4.954954e-004
-5.139708e-004,-7.074767e-004
-4.413656e-004,-8.685697e-004
-5.309877e-004,-9.434438e-004
-6.131548e-004,-9.053585e-004
-5.637249e-004,-7.447518e-004
-3.501228e-004,-4.645409e-004
-3.166451e-005,-8.806324e-005
2.798251e-004,3.329825e-004
4.746277e-004,7.318255e-004
4.945617e-004,1.068435e-003
3.757678e-004,1.334385e-003
2.044647e-004,1.541505e-003
7.481241e-005,1.706812e-003
6.460230e-005,1.842137e-003
2.008992e-004,1.942942e-003
4.436732e-004,1.999989e-003
7.190223e-004,2.016844e-003
9.885372e-004,2.007930e-003
1.280903e-003,1.987348e-003
1.645389e-003,1.941807e-003
2.092691e-003,1.834196e-003
2.578079e-003,1.635827e-003
3.026030e-003,1.346702e-003
3.355836e-003,9.933992e-004
3.495213e-003,6.143281e-004
3.389870e-003,2.501671e-004
3.039157e-003,-6.083626e-005
2.490563e-003,-2.940482e-004
1.787197e-003,-4.390967e-004
9.447795e-004,-5.003574e-004
-3.522994e-005,-4.925782e-004
-1.095623e-003,-4.267797e-004
-2.098484e-003,-3.115513e-004
-2.866837e-003,-1.606685e-004
-3.255146e-003,-2.238346e-007
-3.205554e-003,1.312112e-004
-2.773001e-003,1.983062e-004
-2.100914e-003,1.788584e-004
-1.358493e-003,7.805372e-005
-6.740913e-004,-6.893953e-005
-1.242038e-004,-2.217671e-004
2.901973e-004,-3.553089e-004
6.554927e-004,-4.643789e-004
1.103766e-003,-5.577285e-004
1.701950e-003,-6.455678e-004
2.376955e-003,-7.327590e-004
2.973845e-003,-8.124951e-004
3.377552e-003,-8.727834e-004
3.572195e-003,-9.056826e-004
3.583215e-003,-9.116791e-004
3.374473e-003,-8.988759e-004
2.856184e-003,-8.776453e-004
1.975517e-003,-8.554424e-004
7.793107e-004,-8.432875e-004
-5.436288e-004,-8.466908e-004
-1.655397e-003,-8.593319e-004
-2.283724e-003,-8.661387e-004
-2.348551e-003,-8.536596e-004
-1.991196e-003,-8.102262e-004
-1.498355e-003,-7.324349e-004
-1.127874e-003,-6.290372e-004
-9.218892e-004,-5.178604e-004
-7.144455e-004,-4.164075e-004
-3.269475e-004,-3.358611e-004
2.950592e-004,-2.780038e-004
1.063898e-003,-2.442942e-004
1.801621e-003,-2.399184e-004
2.316990e-003,-2.600145e-004
2.485539e-003,-2.899966e-004
2.291060e-003,-3.172236e-004
1.842299e-003,-3.350507e-004
1.309103e-003,-3.429920e-004
8.386266e-004,-3.387782e-004
4.712243e-004,-3.120375e-004
1.056048e-004,-2.496423e-004
-4.561135e-004,-1.506204e-004
-1.331752e-003,-4.057810e-005
-2.402681e-003,5.617490e-005
-3.465346e-003,1.255389e-004
-4.407761e-003,1.717275e-004
-4.968350e-003,2.091646e-004
-4.968512e-003,2.501671e-004
-4.968674e-003,2.966799e-004
-4.838210e-003,3.423823e-004
-4.130141e-003,3.806297e-004
-3.473611e-003,3.997535e-004
-2.964238e-003,3.944053e-004
-2.528282e-003,3.662059e-004
-2.007889e-003,3.213138e-004
-1.289129e-003,2.676702e-004
-3.914495e-004,2.135403e-004
5.548500e-004,1.714034e-004
1.380412e-003,1.435281e-004
1.944401e-003,1.255389e-004
2.147793e-003,1.078737e-004
1.974059e-003,9.182927e-005
1.537940e-003,8.080883e-005
1.048664e-003,7.416415e-005
6.794783e-004,7.092284e-005
4.858102e-004,7.221937e-005
4.060740e-004,7.756752e-005
3.422202e-004,8.664318e-005
2.558394e-004,9.652917e-005
1.741585e-004,1.046324e-004
1.226217e-004,1.119254e-004
7.546067e-005,1.248906e-004
-6.220252e-006,1.577899e-004
-1.052422e-004,2.167816e-004
-1.590478e-004,2.906835e-004
-1.097800e-004,3.496752e-004
5.876794e-005,3.589129e-004
3.180725e-004,2.921420e-004
6.112488e-004,1.462832e-004
8.554814e-004,-5.451572e-005
9.695755e-004,-2.715212e-004
8.887049e-004,-4.616237e-004
5.700842e-004,-5.865761e-004
6.444023e-005,-6.330888e-004
-4.459034e-004,-6.115342e-004
-7.590136e-004,-5.395772e-004
-7.622549e-004,-4.326141e-004
-4.833405e-004,-3.008550e-004
-5.532604e-005,-1.488377e-004
3.658818e-004,1.452411e-005
6.668373e-004,1.718896e-004
8.084825e-004,3.064038e-004
8.332785e-004,4.086671e-004
8.117238e-004,4.773828e-004
8.037825e-004,5.161164e-004
8.373301e-004,5.352402e-004
9.013460e-004,5.491778e-004
9.700617e-004,5.595500e-004
1.026623e-003,5.543638e-004
1.066167e-003,5.169268e-004
1.078808e-003,4.355699e-004
1.059198e-003,3.153174e-004
1.017385e-003,1.761032e-004
9.880509e-004,4.483033e-005
1.012199e-003,-5.176061e-005
1.110411e-003,-1.002181e-004
1.266642e-003,-1.031353e-004
1.442483e-003,-7.250496e-005
1.591421e-003,-2.388537e-005
1.668889e-003,2.927205e-005
1.633883e-003,7.270556e-005
1.479758e-003,9.814982e-005
1.251570e-003,1.047945e-004
1.022571e-003,1.007429e-004
8.710398e-004,9.377406e-005
8.452713e-004,8.599492e-005
9.297074e-004,8.469840e-005
1.044936e-003,9.442231e-005
1.099714e-003,1.083599e-004
1.031647e-003,1.222976e-004
8.101031e-004,1.291043e-004
4.185530e-004,1.132219e-004
-1.480274e-004,5.909208e-005
-8.812108e-004,-4.317115e-005
-1.700451e-003,-1.864369e-004
-2.430070e-003,-3.509331e-004
-2.869754e-003,-5.108916e-004
-2.895846e-003,-6.381128e-004
-2.520502e-003,-7.076389e-004
-1.873537e-003,-7.081250e-004
-1.164177e-003,-6.465403e-004
-6.457299e-004,-5.366600e-004
-5.068399e-004,-3.877220e-004
-7.693857e-004,-2.013469e-004
-1.294801e-003,2.003433e-005
-1.831076e-003,2.665357e-004
-2.101887e-003,5.213025e-004
-1.939173e-003,7.614834e-004
-1.384099e-003,9.640653e-004
-6.416783e-004,1.115597e-003
4.402000e-005,1.216239e-003
4.840274e-004,1.279931e-003
6.024973e-004,1.323851e-003
4.302217e-004,1.360802e-003
9.896015e-005,1.381870e-003
-2.147983e-004,1.357074e-003
-3.801049e-004,1.255297e-003
-3.577399e-004,1.068435e-003
-2.096122e-004,8.209614e-004
-4.511593e-005,5.475571e-004
4.320967e-005,2.838767e-004
3.170304e-005,4.612685e-005
-4.268495e-005,-1.747682e-004
-1.263107e-004,-3.974459e-004
-1.716889e-004,-6.274165e-004
-1.499722e-004,-8.517149e-004
-4.932962e-005,-1.048786e-003
1.346145e-004,-1.193511e-003
3.906778e-004,-1.267899e-003
6.801266e-004,-1.258499e-003
9.342453e-004,-1.158991e-003
1.088694e-003,-9.765052e-004
1.143796e-003,-7.411864e-004
1.158382e-003,-4.948471e-004
1.214781e-003,-2.820554e-004
1.386084e-003,-1.267968e-004
1.705840e-003,-2.664048e-005
2.137583e-003,2.975825e-005
2.568355e-003,5.893001e-005
2.852781e-003,7.319176e-005
2.867529e-003,8.016057e-005
2.553445e-003,8.858796e-005
1.972600e-003,1.103047e-004
1.284307e-003,1.579519e-004
6.627856e-004,2.375260e-004
2.153231e-004,3.389789e-004
-8.530812e-005,4.375147e-004
-4.036044e-004,5.099580e-004
-9.136238e-004,5.409124e-004
-1.615043e-003,5.238955e-004
-2.329427e-003,4.678209e-004
-2.869430e-003,3.994293e-004
-3.162931e-003,3.516200e-004
-3.249150e-003,3.491891e-004
-3.206526e-003,3.955397e-004
-3.089353e-003,4.647417e-004
-2.894226e-003,5.169268e-004
-2.579981e-003,5.182233e-004
-2.120687e-003,4.555039e-004
-1.534496e-003,3.378445e-004
-9.017931e-004,1.869616e-004
-3.342404e-004,3.202716e-005
8.080883e-005,-1.055663e-004
3.109416e-004,-2.147983e-004
3.801436e-004,-2.924276e-004
3.389789e-004,-3.433161e-004
1.996027e-004,-3.713534e-004
-9.243900e-005,-3.823738e-004
-5.933828e-004,-3.843186e-004
-1.284429e-003,-3.830221e-004
-2.025068e-003,-3.807532e-004
-2.600563e-003,-3.775118e-004
-2.816596e-003,-3.695707e-004
-2.585167e-003,-3.556330e-004
-1.963483e-003,-3.366714e-004
-1.113937e-003,-3.147926e-004
-2.306807e-004,-2.922655e-004
5.336195e-004,-2.746004e-004
1.116731e-003,-2.650386e-004
1.559981e-003,-2.635799e-004
1.955583e-003,-2.695764e-004
2.391379e-003,-2.754107e-004
2.897674e-003,-2.744383e-004
3.421311e-003,-2.658489e-004
3.844953e-003,-2.520733e-004
4.021769e-003,-2.366771e-004
3.823885e-003,-2.241981e-004
3.204303e-003,-2.185258e-004
2.261078e-003,-2.167431e-004
1.224018e-003,-2.152845e-004
3.383307e-004,-2.086398e-004
-2.720074e-004,-1.900023e-004
-6.206098e-004,-1.592099e-004
-7.849440e-004,-1.217728e-004
-8.214086e-004,-8.903562e-005
-7.330831e-004,-7.056019e-005
-5.246671e-004,-6.910160e-005
-2.580697e-004,-8.141856e-005
-1.740276e-005,-1.031353e-004
1.647587e-004,-1.302002e-004
3.099692e-004,-1.619650e-004
4.289252e-004,-2.000504e-004
4.906721e-004,-2.428356e-004
4.498317e-004,-2.859450e-004
2.934386e-004,-3.230579e-004
7.173317e-005,-3.467195e-004
-1.112386e-004,-3.512573e-004
-1.457585e-004,-3.334301e-004
3.640293e-005,-2.958309e-004
4.239012e-004,-2.421874e-004
9.165801e-004,-1.733096e-004
1.350916e-003,-9.535618e-005
1.552039e-003,-1.659243e-005
1.442969e-003,4.726130e-005
1.180099e-003,7.967438e-005
1.056605e-003,7.610894e-005
1.232284e-003,4.904402e-005
1.545395e-003,9.175954e-006
1.616055e-003,-4.608832e-005
1.217698e-003,-1.276072e-004
4.939134e-004,-2.413770e-004
-1.966470e-004,-3.814014e-004
-5.792832e-004,-5.321222e-004
-5.975965e-004,-6.676087e-004
-3.358611e-004,-7.565826e-004
1.776542e-005,-7.671168e-004
2.511395e-004,-6.794395e-004
2.182402e-004,-4.953333e-004
-1.507825e-004,-2.314910e-004
-8.027712e-004,8.242948e-005
-1.540979e-003,4.078567e-004
-2.165093e-003,7.104329e-004
-2.565718e-003,9.686031e-004
-2.712712e-003,1.171995e-003
-2.631355e-003,1.318503e-003
-2.383071e-003,1.402291e-003
-2.025230e-003,1.421576e-003
-1.616339e-003,1.378143e-003
-1.205990e-003,1.289331e-003
-7.912645e-004,1.188364e-003
-3.525538e-004,1.105224e-003
7.465034e-005,1.046233e-003
4.522626e-004,9.877268e-004
7.921138e-004,8.951875e-004
1.125483e-003,7.503009e-004
1.463227e-003,5.666808e-004
1.782173e-003,3.846814e-004
2.023975e-003,2.420638e-004
2.092529e-003,1.563313e-004
1.903074e-003,1.279698e-004
1.415418e-003,1.388282e-004
6.499824e-004,1.590864e-004
-3.238683e-004,1.637863e-004
-1.407761e-003,1.440143e-004
-2.490520e-003,1.077117e-004
-3.416726e-003,7.189524e-005
-4.019774e-003,5.406805e-005
-4.201450e-003,5.844381e-005
-3.958189e-003,7.173317e-005
-3.356762e-003,7.643307e-005
-2.507375e-003,6.962632e-005
-1.553944e-003,6.444023e-005
-6.322784e-004,7.270556e-005
1.624898e-004,9.263960e-005
8.055653e-004,1.138702e-004
1.356264e-003,1.299146e-004
1.898698e-003,1.422316e-004
2.474518e-003,1.503349e-004
3.047747e-003,1.509831e-004
3.502992e-003,1.430419e-004
3.695690e-003,1.210010e-004
3.526492e-003,8.210535e-005
2.990538e-003,2.748934e-005
2.175831e-003,-3.652646e-005
1.218022e-003,-9.908367e-005
2.806354e-004,-1.517549e-004
-4.956574e-004,-1.875713e-004
-1.051866e-003,-2.049123e-004
-1.368055e-003,-2.045882e-004
-1.437257e-003,-1.921092e-004
-1.305174e-003,-1.762268e-004
-1.112154e-003,-1.648822e-004
-1.069207e-003,-1.642339e-004
-1.310360e-003,-1.763888e-004
-1.743074e-003,-1.972953e-004
-2.098160e-003,-2.220912e-004
-2.126845e-003,-2.442942e-004
-1.747126e-003,-2.655248e-004
-1.074879e-003,-2.899966e-004
-3.397507e-004,-3.188442e-004
2.156472e-004,-3.491504e-004
4.418904e-004,-3.796187e-004
3.380065e-004,-4.070078e-004
5.082674e-005,-4.303451e-004
-2.021572e-004,-4.446069e-004
-2.582318e-004,-4.463896e-004
-8.498399e-005,-4.369898e-004
2.538946e-004,-4.251591e-004
6.575995e-004,-4.191627e-004
1.032781e-003,-4.228902e-004
1.305537e-003,-4.284004e-004
1.438107e-003,-4.238625e-004
1.444914e-003,-4.042526e-004
1.371174e-003,-3.707051e-004
1.266156e-003,-3.282440e-004
1.156923e-003,-2.891863e-004
1.054336e-003,-2.703867e-004
9.616343e-004,-2.872415e-004
8.797912e-004,-3.476919e-004
8.101031e-004,-4.488206e-004
7.622938e-004,-5.760419e-004
7.417115e-004,-7.078009e-004
7.417115e-004,-8.178432e-004
7.353909e-004,-8.873693e-004
6.964952e-004,-9.077895e-004
6.255105e-004,-8.771592e-004
5.457744e-004,-7.961266e-004
4.749518e-004,-6.739292e-004
4.170944e-004,-5.212637e-004
3.637749e-004,-3.363473e-004
2.880904e-004,-1.203142e-004
1.725378e-004,1.132219e-004
1.987227e-005,3.452995e-004
-1.436516e-004,5.558224e-004
-2.767073e-004,7.284221e-004
-3.416954e-004,8.561297e-004
-3.188442e-004,9.434830e-004
-2.110708e-004,1.006527e-003
-2.923353e-005,1.061629e-003
2.060853e-004,1.120297e-003
4.747897e-004,1.188040e-003
7.648868e-004,1.256918e-003
1.075728e-003,1.304403e-003
1.408611e-003,1.307968e-003
1.750570e-003,1.254487e-003
2.076484e-003,1.148658e-003
2.352807e-003,1.014630e-003
2.541290e-003,8.867600e-004
2.625240e-003,7.950310e-004
2.602713e-003,7.582422e-004
2.429950e-003,7.731522e-004
1.983620e-003,8.177201e-004
1.124510e-003,8.624502e-004
-1.789819e-004,8.909738e-004
-1.726706e-003,9.023183e-004
-3.168441e-003,8.974564e-004
-4.181516e-003,8.729845e-004
-4.575824e-003,8.216097e-004
-4.368217e-003,7.339324e-004
-3.781537e-003,6.028214e-004
-3.138945e-003,4.367043e-004
-2.693588e-003,2.561635e-004
-2.506078e-003,8.907416e-005
-2.456324e-003,-4.544006e-005
-2.359571e-003,-1.423551e-004
-2.081629e-003,-2.026434e-004
-1.606939e-003,-2.384598e-004
-1.033390e-003,-2.630937e-004
-4.935506e-004,-2.914552e-004
-7.914964e-005,-3.256510e-004
1.861513e-004,-3.608192e-004
3.253654e-004,-3.933943e-004
3.665301e-004,-4.269418e-004
3.396272e-004,-4.659995e-004
2.838767e-004,-5.138087e-004
2.258573e-004,-5.773384e-004
2.033302e-004,-6.624226e-004
2.756114e-004,-7.692237e-004
4.866205e-004,-8.873693e-004
7.810934e-004,-1.004056e-003
1.027919e-003,-1.105185e-003
1.112031e-003,-1.175845e-003
9.355418e-004,-1.210365e-003
4.250357e-004,-1.205179e-003
-3.763774e-004,-1.157370e-003
-1.253151e-003,-1.074231e-003
-1.933339e-003,-9.658089e-004
-2.225867e-003,-8.429634e-004
-2.039492e-003,-7.168766e-004
-1.397875e-003,-5.984068e-004
-4.891749e-004,-5.003574e-004
3.401134e-004,-4.361795e-004
7.514353e-004,-4.083043e-004
6.282657e-004,-4.086284e-004
9.993253e-005,-4.225660e-004
-5.870623e-004,-4.434724e-004
-1.187028e-003,-4.692408e-004
-1.523314e-003,-5.048952e-004
-1.521207e-003,-5.518941e-004
-1.231920e-003,-6.052136e-004
-8.019609e-004,-6.588572e-004
-3.690845e-004,-7.029389e-004
3.267542e-005,-7.204420e-004
4.572867e-004,-6.964564e-004
9.556379e-004,-6.206098e-004
1.512657e-003,-4.945230e-004
2.043423e-003,-3.314853e-004
2.438378e-003,-1.485136e-004
2.606440e-003,2.894792e-005
2.510335e-003,1.795066e-004
2.173075e-003,2.840388e-004
1.661110e-003,3.370341e-004
1.042019e-003,3.482167e-004
3.662059e-004,3.423823e-004
-3.113892e-004,3.517821e-004
-9.209168e-004,4.054258e-004
-1.392527e-003,5.175750e-004
-1.668524e-003,6.726716e-004
-1.718764e-003,8.389507e-004
-1.541465e-003,9.856200e-004
-1.154129e-003,1.101335e-003
-5.966241e-004,1.194847e-003
4.904402e-005,1.283334e-003
6.723474e-004,1.380250e-003
1.176047e-003,1.487861e-003
1.502447e-003,1.584939e-003
1.648630e-003,1.644417e-003
1.653817e-003,1.645875e-003
1.590287e-003,1.587370e-003
1.549446e-003,1.486889e-003
1.597742e-003,1.372146e-003
1.750732e-003,1.259835e-003
1.964659e-003,1.140555e-003
2.158003e-003,9.929130e-004
2.263509e-003,8.084825e-004
2.267722e-003,5.992560e-004
2.209540e-003,3.882468e-004
2.144066e-003,2.030061e-004
2.122997e-003,6.444023e-005
2.182962e-003,-2.145439e-005
2.318449e-003,-6.342931e-005
2.456043e-003,-7.785312e-005
2.472412e-003,-7.995997e-005
2.232878e-003,-8.141856e-005
1.674399e-003,-8.935975e-005
8.731466e-004,-1.073490e-004
-2.501983e-005,-1.329553e-004
-9.382577e-004,-1.596961e-004
-1.854737e-003,-1.781716e-004
-2.736049e-003,-1.857886e-004
-3.477501e-003,-1.794681e-004
-3.916052e-003,-1.595340e-004
-3.902276e-003,-1.302002e-004
-3.417374e-003,-1.042698e-004
-2.611907e-003,-9.422172e-005
-1.725085e-003,-1.088076e-004
-9.803947e-004,-1.491618e-004
-5.125122e-004,-2.130156e-004
-3.601709e-004,-2.904828e-004
-4.621100e-004,-3.679500e-004
-6.956460e-004,-4.350450e-004
-9.434438e-004,-4.857715e-004
-1.131115e-003,-5.209396e-004
-1.228679e-003,-5.418460e-004
-1.236620e-003,-5.518941e-004
-1.175521e-003,-5.518941e-004
-1.074068e-003,-5.543251e-004
-9.690502e-004,-5.721523e-004
-8.943381e-004,-6.055377e-004
-8.280533e-004,-6.507540e-004
-6.727948e-004,-6.985632e-004
-3.246786e-004,-7.390795e-004
2.179161e-004,-7.667927e-004
8.235546e-004,-7.821888e-004
1.289169e-003,-7.862405e-004
1.462093e-003,-7.794338e-004
1.307806e-003,-7.606342e-004
9.203076e-004,-7.283832e-004
4.765725e-004,-6.854360e-004
1.658931e-004,-6.358439e-004
8.745350e-005,-5.849554e-004
1.968476e-004,-5.337428e-004
3.180725e-004,-4.856094e-004
2.331503e-004,-4.413656e-004
-1.590478e-004,-3.987424e-004
-7.572309e-004,-3.544986e-004
-1.307118e-003,-3.071755e-004
-1.566585e-003,-2.605007e-004
-1.436122e-003,-2.196603e-004
-9.837981e-004,-1.883817e-004
-3.810773e-004,-1.742820e-004
1.903650e-004,-1.752544e-004
6.112488e-004,-1.831956e-004
8.543470e-004,-1.833576e-004
9.629308e-004,-1.673132e-004
9.969646e-004,-1.336036e-004
9.998818e-004,-8.012204e-005
9.956681e-004,-2.168618e-006
1.005716e-003,1.012291e-004
1.045260e-003,2.265056e-004
1.110897e-003,3.618301e-004
1.185771e-003,4.884033e-004
1.246708e-003,5.824011e-004
1.273773e-003,6.324793e-004
1.260321e-003,6.392861e-004
1.209757e-003,6.170832e-004
1.128400e-003,5.874252e-004
1.022571e-003,5.694359e-004
8.976185e-004,5.686256e-004
7.635903e-004,5.760806e-004
6.300483e-004,5.832114e-004
4.790034e-004,5.777013e-004
2.748010e-004,5.529052e-004
-3.303076e-006,5.119027e-004
-3.240303e-004,4.602039e-004
-6.228787e-004,3.989431e-004
-8.458805e-004,3.203414e-004
-9.737500e-004,2.119197e-004
-1.042304e-003,6.751948e-005
-1.152994e-003,-1.078352e-004
-1.412137e-003,-2.869174e-004
-1.841934e-003,-4.340726e-004
-2.345634e-003,-5.165638e-004
-2.743342e-003,-5.136467e-004
-2.875102e-003,-4.186764e-004
-2.682406e-003,-2.399184e-004
-2.235105e-003,2.693341e-006
-1.690889e-003,2.840388e-004
-1.210041e-003,5.796460e-004
-8.841280e-004,8.640709e-004
-7.079630e-004,1.111059e-003
-6.047274e-004,1.299703e-003
-4.770200e-004,1.418335e-003
-2.546664e-004,1.464686e-003
7.432621e-005,1.437783e-003
4.626348e-004,1.338599e-003
8.358715e-004,1.183340e-003
1.136989e-003,1.010740e-003
1.342326e-003,8.639088e-004
1.457231e-003,7.575939e-004
1.507309e-003,6.747784e-004
1.525298e-003,5.806184e-004
1.535995e-003,4.511282e-004
1.555605e-003,2.921420e-004
1.598066e-003,1.284560e-004
1.655275e-003,-1.772689e-005
1.693361e-003,-1.368449e-004
1.683151e-003,-2.285739e-004
1.621403e-003,-2.963172e-004
1.530485e-003,-3.447747e-004
1.445076e-003,-3.812394e-004
1.405532e-003,-4.105732e-004
1.421414e-003,-4.331002e-004
1.430166e-003,-4.481723e-004
1.320123e-003,-4.557894e-004
1.017385e-003,-4.577342e-004
5.789978e-004,-4.621100e-004
1.968476e-004,-4.698891e-004
6.606088e-005,-4.813957e-004
2.671840e-004,-4.925782e-004
7.417115e-004,-5.008436e-004
1.338599e-003,-5.040849e-004
1.868554e-003,-5.000332e-004
2.165134e-003,-4.885266e-004
2.125914e-003,-4.708614e-004
1.698061e-003,-4.506033e-004
8.329543e-004,-4.296969e-004
-4.669719e-004,-4.094387e-004
-2.000920e-003,-3.882082e-004
-3.483983e-003,-3.647087e-004
-4.700615e-003,-3.395886e-004
-4.968350e-003,-3.128478e-004
-4.968512e-003,-2.841623e-004
-4.968512e-003,-2.545043e-004
-4.968512e-003,-2.241981e-004
-4.968350e-003,-1.932436e-004
-4.968512e-003,-1.588858e-004
-4.317652e-003,-1.216107e-004
-3.262763e-003,-8.093236e-005
-1.946628e-003,-4.009191e-005
-5.308256e-004,-2.168618e-006
7.785003e-004,3.056858e-005
1.795138e-003,5.909208e-005
2.427195e-003,8.923623e-005
2.646633e-003,1.276457e-004
2.509525e-003,1.696206e-004
2.139690e-003,2.080301e-004
1.695143e-003,2.333123e-004
1.321420e-003,2.410915e-004
1.109276e-003,2.316917e-004
1.092745e-003,2.117576e-004
1.272314e-003,1.874478e-004
1.613948e-003,1.675138e-004
2.020247e-003,1.519555e-004
2.302242e-003,1.370455e-004
2.232230e-003,1.195424e-004
1.636638e-003,1.034980e-004
5.305402e-004,9.620504e-005
-8.006644e-004,9.977047e-005
-1.915836e-003,1.046324e-004
-2.490682e-003,9.393612e-005
-2.388257e-003,5.066468e-005
-1.695265e-003,-3.506788e-005
-6.750637e-004,-1.548341e-004
3.457857e-004,-2.781658e-004
1.097283e-003,-3.718396e-004
1.484458e-003,-4.120317e-004
1.546853e-003,-4.014975e-004
1.379115e-003,-3.697327e-004
1.084804e-003,-3.540124e-004
7.535422e-004,-3.702189e-004
4.470765e-004,-3.969597e-004
2.080301e-004,-3.959873e-004
7.400208e-005,-3.382920e-004
6.314371e-005,-2.263049e-004
1.733481e-004,-8.498399e-005
3.767402e-004,5.957827e-005
6.174073e-004,1.871237e-004
8.227442e-004,2.923041e-004
9.290591e-004,3.778746e-004
9.086389e-004,4.579349e-004
7.872519e-004,5.439916e-004
6.242140e-004,6.300483e-004
4.869446e-004,6.875816e-004
4.274666e-004,6.817472e-004
4.718725e-004,5.961767e-004
5.922872e-004,4.435111e-004
7.083260e-004,2.610255e-004
7.246946e-004,9.717743e-005
5.846701e-004,-1.399939e-005
3.008936e-004,-6.099833e-005
-2.031993e-005,-6.261898e-005
-2.136638e-004,-5.143648e-005
-1.645581e-004,-5.013995e-005
1.099806e-004,-6.537409e-005
4.780310e-004,-9.081835e-005
7.807693e-004,-1.182074e-004
9.159319e-004,-1.420310e-004
8.618020e-004,-1.566169e-004
6.626236e-004,-1.643960e-004
3.995914e-004,-1.724993e-004
1.594105e-004,-1.875713e-004
8.365628e-006,-2.088019e-004
-1.043395e-005,-2.355427e-004
8.891209e-005,-2.707109e-004
2.287745e-004,-3.199787e-004
2.895490e-004,-3.852910e-004
1.551968e-004,-4.608134e-004
-2.075054e-004,-5.407116e-004
-6.604778e-004,-6.141272e-004
-9.411749e-004,-6.680949e-004
-8.299981e-004,-6.932151e-004
-2.925897e-004,-6.846256e-004
5.237334e-004,-6.381128e-004
1.424980e-003,-5.557837e-004
2.255081e-003,-4.428242e-004
2.897349e-003,-3.058790e-004
3.260378e-003,-1.504584e-004
3.287443e-003,2.262738e-005
2.956341e-003,2.137024e-004
2.248922e-003,4.172565e-004
1.177181e-003,6.177314e-004
-1.582375e-004,7.953551e-004
-1.541627e-003,9.434830e-004
-2.779483e-003,1.073784e-003
-3.766464e-003,1.199222e-003
-4.461729e-003,1.321258e-003
-4.865761e-003,1.423197e-003
-4.968350e-003,1.477489e-003
-4.968674e-003,1.451721e-003
-4.849392e-003,1.326768e-003
-4.640488e-003,1.108304e-003
-4.304200e-003,8.209614e-004
-3.788343e-003,4.990995e-004
-3.090650e-003,1.788584e-004
-2.259415e-003,-1.081593e-004
-1.376482e-003,-3.438023e-004
-5.199672e-004,-5.222362e-004
2.730183e-004,-6.301716e-004
9.883752e-004,-6.470265e-004
1.604549e-003,-5.635628e-004
2.036778e-003,-3.912874e-004
2.151035e-003,-1.588858e-004
1.885895e-003,9.442231e-005
1.385598e-003,3.329825e-004
9.449415e-004,5.305402e-004
7.906552e-004,6.692683e-004
9.525587e-004,7.439804e-004
1.320123e-003,7.588904e-004
1.758025e-003,7.232360e-004
2.172265e-003,6.545202e-004
2.504015e-003,5.747841e-004
2.717132e-003,5.039615e-004
2.803999e-003,4.540453e-004
2.785848e-003,4.239012e-004
2.693308e-003,3.999155e-004
2.555389e-003,3.530786e-004
2.399482e-003,2.555152e-004
2.250867e-003,9.863601e-005
2.127859e-003,-9.892161e-005
2.002096e-003,-3.029619e-004
1.776338e-003,-4.841508e-004
1.354319e-003,-6.287131e-004
7.224257e-004,-7.397278e-004
-2.631635e-005,-8.256224e-004
-7.013183e-004,-8.902864e-004
-1.135005e-003,-9.280476e-004
-1.300474e-003,-9.290201e-004
-1.314249e-003,-8.914209e-004
-1.359466e-003,-8.254603e-004
-1.571447e-003,-7.452380e-004
-1.950032e-003,-6.640433e-004
-2.383881e-003,-5.896553e-004
-2.731350e-003,-5.254775e-004
-2.865054e-003,-4.664857e-004
-2.711740e-003,-4.087905e-004
-2.300255e-003,-3.519055e-004
-1.746802e-003,-2.974516e-004
-1.176656e-003,-2.460769e-004
-6.492953e-004,-1.963229e-004
-1.710407e-004,-1.481895e-004
2.222919e-004,-1.039456e-004
4.383250e-004,-6.796714e-005
3.655576e-004,-3.895745e-005
-3.960571e-005,-1.902341e-005
-6.591813e-004,-1.626830e-005
-1.243751e-003,-3.474375e-005
-1.532389e-003,-7.153257e-005
-1.387341e-003,-1.183694e-004
-8.695421e-004,-1.619650e-004
-2.073433e-004,-1.917850e-004
3.363859e-004,-2.057227e-004
5.718669e-004,-2.075054e-004
4.538833e-004,-1.985918e-004
9.863601e-005,-1.831956e-004
-2.796244e-004,-1.609926e-004
-4.869059e-004,-1.360346e-004
-4.000390e-004,-1.110765e-004
-1.967167e-005,-8.465986e-005
4.958582e-004,-5.386745e-005
8.799533e-004,-2.566809e-005
8.770361e-004,-8.975362e-006
4.193634e-004,-1.302700e-005
-2.211189e-004,-3.490581e-005
-5.841451e-004,-6.456377e-005
-3.911253e-004,-8.595638e-005
2.788527e-004,-8.903562e-005
1.087883e-003,-7.137051e-005
1.690443e-003,-3.733679e-005
1.920253e-003,5.610517e-006
1.813938e-003,5.260946e-005
1.556415e-003,1.013911e-004
1.366798e-003,1.548727e-004
1.356102e-003,2.167816e-004
1.471006e-003,2.801492e-004
1.544098e-003,3.245551e-004
1.372146e-003,3.274723e-004
8.078342e-004,2.741528e-004
-1.173971e-004,1.720516e-004
-1.096433e-003,4.207521e-005
-1.720223e-003,-8.287715e-005
-1.766574e-003,-1.760647e-004
-1.318301e-003,-2.130156e-004
-6.718224e-004,-1.867610e-004
-1.532135e-004,-1.136696e-004
4.758544e-005,-2.080613e-005
-6.116039e-005,7.821578e-005
-3.360231e-004,1.850168e-004
-6.026206e-004,3.064038e-004
-7.419967e-004,4.435111e-004
-7.188214e-004,5.895320e-004
-5.757177e-004,7.329599e-004
-3.943667e-004,8.640709e-004
-2.418632e-004,9.757340e-004
-1.334415e-004,1.062601e-003
-2.890940e-005,1.125645e-003
1.112771e-004,1.167458e-003
2.822560e-004,1.192578e-003
4.446456e-004,1.196143e-003
5.499881e-004,1.167133e-003
5.752703e-004,1.088532e-003
5.339436e-004,9.468864e-004
4.525868e-004,7.409012e-004
3.593992e-004,4.921307e-004
2.806354e-004,2.315296e-004
2.378501e-004,-2.978945e-006
2.383363e-004,-1.840059e-004
2.796630e-004,-3.011791e-004
3.608578e-004,-3.593606e-004
5.114165e-004,-3.716775e-004
7.772038e-004,-3.611433e-004
1.154979e-003,-3.499608e-004
1.583966e-003,-3.530400e-004
1.976165e-003,-3.747568e-004
2.218292e-003,-4.134903e-004
2.191389e-003,-4.604893e-004
1.814586e-003,-5.024642e-004
1.107818e-003,-5.292050e-004
2.321778e-004,-5.355255e-004
-5.825245e-004,-5.246671e-004
-1.163691e-003,-5.035987e-004
-1.438229e-003,-4.768579e-004
-1.404844e-003,-4.480103e-004
-1.093678e-003,-4.225660e-004
-5.494631e-004,-4.034423e-004
1.355869e-004,-3.955011e-004
7.746107e-004,-3.990665e-004
1.097283e-003,-4.073319e-004
8.810877e-004,-4.118697e-004
1.362352e-004,-4.019837e-004
-8.400462e-004,-3.687603e-004
-1.630601e-003,-3.097686e-004
-1.945494e-003,-2.316531e-004
-1.732054e-003,-1.499722e-004
-1.149429e-003,-8.611845e-005
-4.335865e-004,-5.354332e-005
2.435224e-004,-4.641245e-005
7.887104e-004,-4.868137e-005
1.102469e-003,-4.803310e-005
1.071191e-003,-3.992984e-005
6.558168e-004,-2.583016e-005
-6.456377e-005,-5.085794e-006
-9.098963e-004,1.857574e-005
-1.637732e-003,3.932010e-005
-2.019558e-003,5.309566e-005
-1.964131e-003,5.795762e-005
-1.583440e-003,6.103686e-005
-1.140515e-003,7.627100e-005
-8.923933e-004,1.128978e-004
-9.565711e-004,1.655690e-004
-1.262064e-003,2.185644e-004
-1.622336e-003,2.594049e-004
-1.858141e-003,2.906835e-004
-1.902709e-003,3.158036e-004
-1.815355e-003,3.363859e-004
-1.700937e-003,3.516200e-004
-1.605319e-003,3.608578e-004
-1.469508e-003,3.621543e-004
-1.197076e-003,3.568061e-004
-7.441035e-004,3.490270e-004
-1.494860e-004,3.401134e-004
4.895377e-004,3.307136e-004
1.051581e-003,3.195311e-004
1.443131e-003,3.051073e-004
1.647334e-003,2.889007e-004
1.718643e-003,2.759355e-004
1.734039e-003,2.671840e-004
1.753487e-003,2.561635e-004
1.794976e-003,2.284504e-004
1.833548e-003,1.621656e-004
1.837761e-003,4.256141e-005
1.789790e-003,-1.345760e-004
1.694819e-003,-3.561192e-004
1.570677e-003,-5.963000e-004
1.432273e-003,-8.215707e-004
1.280093e-003,-1.003084e-003
1.119000e-003,-1.117826e-003
9.622826e-004,-1.149591e-003
8.101031e-004,-1.100323e-003
6.535479e-004,-9.773155e-004
4.849998e-004,-7.912645e-004
2.809595e-004,-5.527044e-004
8.527692e-006,-2.702246e-004
-3.186821e-004,4.337174e-005
-6.270924e-004,3.715541e-004
-8.082814e-004,6.901747e-004
-7.894818e-004,9.724927e-004
-5.805797e-004,1.190471e-003
-2.624455e-004,1.327254e-003
6.460230e-005,1.383815e-003
3.305515e-004,1.379926e-003
5.068787e-004,1.338275e-003
5.990939e-004,1.282038e-003
6.319932e-004,1.215591e-003
6.441481e-004,1.117704e-003
6.637580e-004,9.629308e-004
6.810990e-004,7.449528e-004
6.608408e-004,4.858102e-004
5.832114e-004,2.219677e-004
4.647417e-004,-9.785688e-006
3.472443e-004,-1.882196e-004
2.783665e-004,-3.117133e-004
2.892249e-004,-3.987424e-004
3.827366e-004,-4.718339e-004
5.313505e-004,-5.423322e-004
6.866092e-004,-6.081308e-004
8.099410e-004,-6.633950e-004
8.840049e-004,-6.951598e-004
8.934048e-004,-6.907841e-004
8.126961e-004,-6.450817e-004
6.261588e-004,-5.645352e-004
3.376824e-004,-4.647030e-004
-2.890940e-005,-3.588744e-004
-4.433104e-004,-2.535319e-004
-8.692179e-004,-1.522411e-004
-1.253637e-003,-5.483985e-005
-1.541789e-003,4.369587e-005
-1.693158e-003,1.508211e-004
-1.698668e-003,2.757735e-004
-1.579550e-003,4.209840e-004
-1.364652e-003,5.691118e-004
-1.088492e-003,6.804507e-004
-7.925610e-004,7.175637e-004
-5.214258e-004,6.679717e-004
-3.241924e-004,5.397780e-004
-2.321393e-004,3.574544e-004
-2.454286e-004,1.532520e-004
-3.450988e-004,-3.798505e-005
-5.055434e-004,-1.888679e-004
-7.031010e-004,-2.851347e-004
-9.050344e-004,-3.292164e-004
-1.060779e-003,-3.392644e-004
-1.112316e-003,-3.345645e-004
-1.023666e-003,-3.272716e-004
-7.996919e-004,-3.186821e-004
-4.807475e-004,-3.117133e-004
-1.256624e-004,-3.073376e-004
2.122438e-004,-3.044204e-004
5.054200e-004,-2.977757e-004
7.480320e-004,-2.841623e-004
9.493173e-004,-2.603387e-004
1.121107e-003,-2.258187e-004
1.269073e-003,-1.836818e-004
1.393377e-003,-1.434896e-004
1.493047e-003,-1.138316e-004
1.549122e-003,-9.746302e-005
1.525947e-003,-9.017008e-005
1.385274e-003,-8.822530e-005
1.111221e-003,-9.000802e-005
7.276118e-004,-9.405965e-005
2.871180e-004,-9.616651e-005
-1.590478e-004,-9.324933e-005
-5.638869e-004,-8.709085e-005
-8.758627e-004,-7.736692e-005
-1.061265e-003,-6.667062e-005
-1.131602e-003,-5.953974e-005
-1.122688e-003,-6.051213e-005
-1.074879e-003,-7.218083e-005
-1.016697e-003,-9.713889e-005
-9.278856e-004,-1.302002e-004
-7.598239e-004,-1.652063e-004
-4.909576e-004,-1.912988e-004
-1.415448e-004,-2.045882e-004
2.420638e-004,-2.065330e-004
6.174073e-004,-2.047502e-004
9.371624e-004,-2.066950e-004
1.110735e-003,-2.133397e-004
1.020626e-003,-2.206326e-004
5.976353e-004,-2.216050e-004
-8.498399e-005,-2.118811e-004
-8.252983e-004,-1.950263e-004
-1.401927e-003,-1.750923e-004
-1.669983e-003,-1.588858e-004
-1.608722e-003,-1.473791e-004
-1.293181e-003,-1.410586e-004
-8.528493e-004,-1.402483e-004
-4.113835e-004,-1.436516e-004
-4.527799e-005,-1.494860e-004
2.328261e-004,-1.538618e-004
4.409181e-004,-1.572651e-004
5.824011e-004,-1.603444e-004
6.352345e-004,-1.666649e-004
5.433434e-004,-1.771992e-004
2.629703e-004,-1.932436e-004
-1.616409e-004,-2.135018e-004
-6.181788e-004,-2.361909e-004
-1.000005e-003,-2.640662e-004
-1.224303e-003,-3.026377e-004
-1.259147e-003,-3.528779e-004
-1.133546e-003,-4.143007e-004
-9.215650e-004,-4.815578e-004
-7.043975e-004,-5.400634e-004
-5.337428e-004,-5.668041e-004
-4.168937e-004,-5.395772e-004
-3.087962e-004,-4.536825e-004
-1.352242e-004,-3.164132e-004
1.577899e-004,-1.361966e-004
5.561466e-004,8.972242e-005
9.870786e-004,3.603715e-004
1.338437e-003,6.588960e-004
1.521085e-003,9.634171e-004
1.553984e-003,1.249139e-003
1.574080e-003,1.492723e-003
1.714915e-003,1.669537e-003
1.949101e-003,1.764183e-003
2.060278e-003,1.771800e-003
1.799676e-003,1.708109e-003
1.132775e-003,1.608600e-003
3.127243e-004,1.508930e-003
-3.433161e-004,1.420604e-003
-7.296797e-004,1.327578e-003
-9.510609e-004,1.204571e-003
-1.125767e-003,1.042829e-003
-1.265630e-003,8.575883e-004
-1.322191e-003,6.778577e-004
-1.254771e-003,5.326470e-004
-1.054134e-003,4.375147e-004
-7.692237e-004,3.856538e-004
-5.112157e-004,3.569682e-004
-4.181903e-004,3.310377e-004
-6.711741e-004,2.984626e-004
-1.455246e-003,2.587566e-004
-2.635083e-003,2.128921e-004
-3.638270e-003,1.657311e-004
-3.817515e-003,1.206769e-004
-2.917563e-003,8.016057e-005
-1.244237e-003,4.353380e-005
5.446399e-004,4.962256e-006
1.758187e-003,-3.798505e-005
2.149252e-003,-8.401160e-005
1.886543e-003,-1.263107e-004
1.379601e-003,-1.673132e-004
1.010254e-003,-2.136638e-004
9.417002e-004,-2.742763e-004
1.108304e-003,-3.512573e-004
1.337464e-003,-4.360174e-004
1.485268e-003,-5.134846e-004
1.489968e-003,-5.792832e-004
1.367771e-003,-6.351956e-004
1.173940e-003,-6.890013e-004
9.664963e-004,-7.531792e-004
7.971379e-004,-8.366429e-004
7.099467e-004,-9.476576e-004
7.250187e-004,-1.084117e-003
8.423541e-004,-1.233379e-003
1.039426e-003,-1.380210e-003
1.272152e-003,-1.501759e-003
1.497909e-003,-1.577119e-003
1.696440e-003,-1.581495e-003
1.868716e-003,-1.490090e-003
2.010686e-003,-1.287671e-003
2.106791e-003,-9.831499e-004
2.125752e-003,-6.076446e-004
2.034509e-003,-2.088019e-004
1.817827e-003,1.548727e-004
1.483486e-003,4.355699e-004
1.044774e-003,6.123833e-004
5.057442e-004,6.940642e-004
-1.196660e-004,7.110811e-004
-7.732753e-004,6.997365e-004
-1.366758e-003,6.862851e-004
-1.821352e-003,6.806127e-004
-2.095567e-003,6.770474e-004
-2.192320e-003,6.707268e-004
-2.122631e-003,6.644063e-004
-1.895416e-003,6.597064e-004
-1.517155e-003,6.486859e-004
-1.011349e-003,6.089798e-004
-4.348830e-004,5.243817e-004
1.328318e-004,3.961880e-004
6.076833e-004,2.474120e-004
9.290591e-004,1.120874e-004
1.059360e-003,9.338019e-006
9.875648e-004,-6.018800e-005
7.509492e-004,-1.081593e-004
4.286011e-004,-1.491618e-004
1.124116e-004,-1.901644e-004
-1.297140e-004,-2.279256e-004
-2.637420e-004,-2.603387e-004
-2.919414e-004,-2.904828e-004
-2.408908e-004,-3.173856e-004
-1.567789e-004,-3.340784e-004
-8.611845e-005,-3.363473e-004
-4.673658e-005,-3.269475e-004
-3.409549e-005,-3.113892e-004
-2.275091e-005,-2.890242e-004
2.700314e-005,-2.562870e-004
1.490383e-004,-2.102605e-004
3.435168e-004,-1.502963e-004
5.559844e-004,-7.558420e-005
6.895264e-004,1.371378e-005
6.669993e-004,1.174356e-004
4.777069e-004,2.394708e-004
1.775618e-004,3.799815e-004
-1.606685e-004,5.375090e-004
-4.906334e-004,7.065432e-004
-7.988816e-004,8.737948e-004
-1.095299e-003,1.011713e-003
-1.378913e-003,1.087721e-003
-1.627359e-003,1.081725e-003
-1.792666e-003,9.961543e-004
-1.799473e-003,8.548332e-004
-1.578740e-003,6.893643e-004
-1.112478e-003,5.247059e-004
-4.454172e-004,3.751195e-004
3.289309e-004,2.453052e-004
1.079942e-003,1.325077e-004
1.668727e-003,3.332369e-005
1.987672e-003,-5.321920e-005
1.985403e-003,-1.272830e-004
1.642472e-003,-1.862748e-004
9.872407e-004,-2.308428e-004
1.378558e-004,-2.639041e-004
-7.071526e-004,-2.888622e-004
-1.361572e-003,-3.107410e-004
-1.707420e-003,-3.297026e-004
-1.700289e-003,-3.428299e-004
-1.398037e-003,-3.489884e-004
-9.473335e-004,-3.530400e-004
-5.079744e-004,-3.588744e-004
-1.890299e-004,-3.632501e-004
-4.527799e-005,-3.622777e-004
-7.769106e-005,-3.530400e-004
-2.157707e-004,-3.400748e-004
-3.569296e-004,-3.256510e-004
-4.274280e-004,-3.100927e-004
-3.980942e-004,-2.976137e-004
-2.783279e-004,-2.911311e-004
-1.013526e-004,-2.942103e-004
1.010670e-004,-3.074997e-004
3.589129e-004,-3.275957e-004
7.499768e-004,-3.472056e-004
1.277338e-003,-3.634122e-004
1.820906e-003,-3.763774e-004
2.208568e-003,-3.807532e-004
2.293491e-003,-3.724878e-004
2.027054e-003,-3.536883e-004
1.498720e-003,-3.301888e-004
8.626123e-004,-3.094444e-004
2.153231e-004,-2.980999e-004
-4.322899e-004,-3.021515e-004
-1.079903e-003,-3.211132e-004
-1.666093e-003,-3.462333e-004
-2.065746e-003,-3.640605e-004
-2.155044e-003,-3.619536e-004
-1.887799e-003,-3.356990e-004
-1.329970e-003,-2.870794e-004
-7.056941e-004,-2.211189e-004
-3.389403e-004,-1.444620e-004
-4.596790e-004,-6.796714e-005
-1.043600e-003,-1.520357e-006
-1.805631e-003,5.001642e-005
-2.347254e-003,8.259155e-005
-2.390040e-003,1.009049e-004
-1.909839e-003,1.117633e-004
-1.101944e-003,1.227837e-004
-2.319772e-004,1.386662e-004
4.830550e-004,1.584381e-004
9.433209e-004,1.838824e-004
1.153682e-003,2.148369e-004
1.183340e-003,2.454672e-004
1.125320e-003,2.718839e-004
1.065842e-003,2.961937e-004
1.054660e-003,3.201794e-004
1.096473e-003,3.483787e-004
1.143634e-003,3.841952e-004
1.124024e-003,4.245494e-004
9.810822e-004,4.561522e-004
6.926056e-004,4.587452e-004
2.449810e-004,4.239012e-004
-3.211132e-004,3.457857e-004
-8.807246e-004,2.224539e-004
-1.284267e-003,6.006447e-005
-1.434502e-003,-1.266348e-004
-1.300150e-003,-3.094444e-004
-8.906106e-004,-4.549791e-004
-2.697385e-004,-5.434667e-004
3.952156e-004,-5.679386e-004
8.885428e-004,-5.298533e-004
1.072649e-003,-4.392588e-004
9.282488e-004,-3.052308e-004
5.540397e-004,-1.292278e-004
1.605450e-004,8.810177e-005
-5.419158e-005,3.360618e-004
-5.613637e-005,5.961767e-004
2.813760e-005,8.489988e-004
2.489629e-005,1.073946e-003
-1.588858e-004,1.249625e-003
-4.792889e-004,1.364043e-003
-7.706822e-004,1.427573e-003
-8.509046e-004,1.462255e-003
-6.455678e-004,1.484458e-003
-2.280877e-004,1.502771e-003
2.444948e-004,1.509092e-003
6.311828e-004,1.479758e-003
8.713639e-004,1.386894e-003
9.817304e-004,1.214943e-003
1.011550e-003,9.703859e-004
1.007013e-003,6.793162e-004
9.995577e-004,3.799815e-004
1.016737e-003,1.104668e-004
1.077349e-003,-1.002181e-004
1.183826e-003,-2.420253e-004
1.328551e-003,-3.266234e-004
1.491751e-003,-3.742705e-004
1.621728e-003,-4.026320e-004
1.627562e-003,-4.282383e-004
1.443941e-003,-4.588687e-004
1.069732e-003,-4.916058e-004
5.368608e-004,-5.251534e-004
-1.070249e-004,-5.585388e-004
-7.585274e-004,-5.885208e-004
-1.293181e-003,-6.112100e-004
-1.634328e-003,-6.262821e-004
-1.786508e-003,-6.368163e-004
-1.829779e-003,-6.447575e-004
-1.858303e-003,-6.499436e-004
-1.892498e-003,-6.494574e-004
-1.878237e-003,-6.368163e-004
-1.735943e-003,-6.138030e-004
-1.418457e-003,-5.890070e-004
-9.333958e-004,-5.677765e-004
-3.564434e-004,-5.494631e-004
1.756171e-004,-5.306636e-004
5.234093e-004,-5.066779e-004
5.989318e-004,-4.724821e-004
3.699334e-004,-4.261314e-004
-1.084835e-004,-3.724878e-004
-6.864083e-004,-3.157650e-004
-1.199183e-003,-2.595283e-004
-1.541789e-003,-2.078295e-004
-1.667390e-003,-1.645581e-004
-1.566423e-003,-1.326312e-004
-1.250882e-003,-1.096179e-004
-7.672789e-004,-9.000802e-005
-1.867610e-004,-7.056019e-005
3.979707e-004,-4.544006e-005
8.977805e-004,-1.643037e-005
1.258052e-003,1.306552e-005
1.459338e-003,4.434413e-005
1.525947e-003,7.983644e-005
1.517519e-003,1.164632e-004
1.502123e-003,1.524417e-004
1.516223e-003,1.843686e-004
1.554957e-003,2.114335e-004
1.588666e-003,2.336365e-004
1.575215e-003,2.491947e-004
1.490616e-003,2.574601e-004
1.348647e-003,2.584324e-004
1.195981e-003,2.545429e-004
1.079132e-003,2.469258e-004
1.018195e-003,2.363916e-004
1.000854e-003,2.232643e-004
9.861062e-004,2.080301e-004
9.274385e-004,1.911753e-004
7.947069e-004,1.765894e-004
5.801322e-004,1.712413e-004
2.910076e-004,1.730240e-004
-3.895745e-005,1.735102e-004
-3.444506e-004,1.647587e-004
-5.463839e-004,1.443384e-004
-5.872243e-004,1.130598e-004
-4.768579e-004,7.967438e-005
-2.862691e-004,5.633696e-005
-9.762509e-005,4.758544e-005
3.073064e-005,4.450620e-005
8.405014e-005,3.251336e-005
7.951231e-005,-4.113403e-006
4.191315e-005,-6.910160e-005
-1.513384e-005,-1.592099e-004
-9.179074e-005,-2.758969e-004
-1.976194e-004,-4.272659e-004
-3.282440e-004,-6.167202e-004
-4.523860e-004,-8.411807e-004
-5.230465e-004,-1.088978e-003
-4.919299e-004,-1.337263e-003
-3.272716e-004,-1.556051e-003
-3.053005e-005,-1.702720e-003
3.697714e-004,-1.734485e-003
8.293889e-004,-1.629142e-003
1.317692e-003,-1.394796e-003
1.803727e-003,-1.054459e-003
2.259295e-003,-6.330888e-004
2.670132e-003,-1.462447e-004
3.014361e-003,3.885709e-004
3.230396e-003,9.408899e-004
3.234448e-003,1.473762e-003
2.946780e-003,1.943752e-003
2.337249e-003,2.309697e-003
1.487699e-003,2.543559e-003
5.660325e-004,2.639826e-003
-2.836761e-004,2.617623e-003
