-2.451300e-003,1.963614e-004
-2.171089e-003,4.875929e-004
-1.700775e-003,7.436562e-004
-1.098378e-003,9.619584e-004
-4.655133e-004,1.134072e-003
6.751948e-005,1.253352e-003
3.903536e-004,1.323041e-003
4.817585e-004,1.361288e-003
4.271425e-004,1.393053e-003
3.817642e-004,1.418983e-003
4.712243e-004,1.411366e-003
7.285841e-004,1.325147e-003
1.093231e-003,1.133262e-003
1.442645e-003,8.438127e-004
1.637286e-003,5.010443e-004
1.584452e-003,1.611932e-004
1.279607e-003,-1.302002e-004
8.050791e-004,-3.514194e-004
3.049452e-004,-5.035987e-004
-9.632857e-005,-6.031067e-004
-3.480160e-004,-6.586951e-004
-4.606514e-004,-6.761982e-004
-4.655133e-004,-6.659881e-004
-3.801049e-004,-6.452437e-004
-2.151224e-004,-6.274165e-004
1.306552e-005,-6.165582e-004
2.825802e-004,-6.100755e-004
5.614947e-004,-6.039171e-004
8.054032e-004,-5.870623e-004
9.666584e-004,-5.450874e-004
1.007337e-003,-4.742648e-004
9.199835e-004,-3.817256e-004
7.360392e-004,-2.754107e-004
5.143337e-004,-1.528894e-004
3.328204e-004,-1.043395e-005
2.414156e-004,1.432040e-004
2.300710e-004,2.885766e-004
2.185644e-004,4.049396e-004
1.013911e-004,4.676588e-004
-1.861127e-004,4.626348e-004
-6.193133e-004,3.987811e-004
-1.089303e-003,3.068900e-004
-1.432233e-003,2.213195e-004
-1.493656e-003,1.731861e-004
-1.222520e-003,1.658931e-004
-7.089354e-004,1.840444e-004
-1.242038e-004,2.034923e-004
3.647473e-004,2.171058e-004
6.780197e-004,2.483844e-004
8.606675e-004,3.253654e-004
9.914545e-004,4.415663e-004
1.079456e-003,5.629533e-004
1.055632e-003,6.443101e-004
8.207994e-004,6.584098e-004
3.252034e-004,6.112488e-004
-3.536883e-004,5.352402e-004
-1.023666e-003,4.723587e-004
-1.526879e-003,4.533971e-004
-1.810818e-003,4.856481e-004
-1.918915e-003,5.577672e-004
-1.928639e-003,6.481997e-004
-1.867702e-003,7.499768e-004
-1.692672e-003,8.799533e-004
-1.346662e-003,1.051257e-003
-8.355084e-004,1.244925e-003
-2.650386e-004,1.414932e-003
1.736723e-004,1.507957e-003
3.081865e-004,1.481541e-003
1.138702e-004,1.330009e-003
-2.755728e-004,1.090638e-003
-6.727948e-004,8.220959e-004
-9.259408e-004,5.764047e-004
-9.731018e-004,3.809539e-004
-8.606284e-004,2.362295e-004
-6.808981e-004,1.248906e-004
-5.332566e-004,2.927205e-005
-4.946851e-004,-5.986387e-005
-5.857658e-004,-1.420310e-004
-7.510723e-004,-2.156086e-004
-8.680834e-004,-2.778417e-004
-8.223811e-004,-3.295405e-004
-6.240131e-004,-3.720016e-004
-3.989045e-004,-4.040906e-004
-2.647144e-004,-4.259694e-004
-2.144742e-004,-4.399070e-004
-1.517549e-004,-4.484965e-004
1.144487e-005,-4.509274e-004
3.004074e-004,-4.509274e-004
6.738061e-004,-4.549791e-004
1.061305e-003,-4.674581e-004
1.370202e-003,-4.907955e-004
1.502609e-003,-5.280706e-004
1.398563e-003,-5.825245e-004
1.042181e-003,-6.543194e-004
4.968306e-004,-7.408622e-004
-7.266703e-005,-8.288636e-004
-4.515757e-004,-8.946622e-004
-4.885266e-004,-9.144342e-004
-1.608306e-004,-8.816970e-004
4.180668e-004,-8.039057e-004
1.038453e-003,-6.907841e-004
1.502771e-003,-5.507597e-004
1.696926e-003,-3.917736e-004
1.608438e-003,-2.243602e-004
1.310237e-003,-6.018800e-005
9.151215e-004,8.194328e-005
5.300540e-004,1.859892e-004
2.389846e-004,2.427121e-004
8.032264e-005,2.548670e-004
5.934648e-006,2.276400e-004
-1.169109e-004,1.631380e-004
-4.518998e-004,5.925414e-005
-1.093192e-003,-8.887356e-005
-1.905626e-003,-2.724935e-004
-2.546271e-003,-4.676201e-004
-2.706716e-003,-6.340612e-004
-2.356492e-003,-7.282211e-004
-1.773056e-003,-7.283832e-004
-1.280864e-003,-6.398956e-004
-9.408508e-004,-4.894990e-004
-5.794452e-004,-3.173856e-004
-3.150244e-005,-1.718510e-004
7.149707e-004,-8.952183e-005
1.536319e-003,-8.384954e-005
2.271936e-003,-1.412206e-004
2.788117e-003,-2.386219e-004
3.031378e-003,-3.530400e-004
3.049206e-003,-4.601652e-004
2.953748e-003,-5.324463e-004
2.866395e-003,-5.455735e-004
2.869474e-003,-4.734545e-004
2.990376e-003,-2.895104e-004
3.191662e-003,7.069105e-006
3.370584e-003,3.718782e-004
3.355998e-003,7.491665e-004
2.937704e-003,1.104252e-003
1.973897e-003,1.430814e-003
4.683071e-004,1.731770e-003
-1.348931e-003,2.004851e-003
-3.049647e-003,2.230609e-003
-4.267736e-003,2.402237e-003
-4.773059e-003,2.532538e-003
-4.538873e-003,2.624106e-003
-3.726110e-003,2.645174e-003
-2.620821e-003,2.539021e-003
-1.524286e-003,2.269667e-003
-6.893255e-004,1.854292e-003
-2.721694e-004,1.355940e-003
-2.715212e-004,8.493229e-004
-4.956574e-004,4.020224e-004
-6.468644e-004,5.957827e-005
-5.087847e-004,-1.679614e-004
-3.539201e-005,-3.047445e-004
6.789921e-004,-3.942046e-004
1.467279e-003,-4.745890e-004
2.152007e-003,-5.690731e-004
2.588775e-003,-6.784671e-004
2.694767e-003,-7.902921e-004
2.489104e-003,-8.948243e-004
2.077295e-003,-9.931979e-004
1.601793e-003,-1.090113e-003
1.214943e-003,-1.190918e-003
1.027271e-003,-1.293505e-003
1.058712e-003,-1.387827e-003
1.228718e-003,-1.470318e-003
1.399535e-003,-1.542113e-003
1.436162e-003,-1.608398e-003
1.269235e-003,-1.666093e-003
9.194973e-004,-1.700451e-003
4.895377e-004,-1.685865e-003
1.098185e-004,-1.595757e-003
-1.405724e-004,-1.424454e-003
-2.890242e-004,-1.183787e-003
-4.454172e-004,-8.962828e-004
-7.277349e-004,-5.896553e-004
-1.175683e-003,-2.852967e-004
-1.704016e-003,9.175954e-006
-2.155044e-003,2.863077e-004
-2.421318e-003,5.331332e-004
-2.489872e-003,7.306910e-004
-2.428449e-003,8.600192e-004
-2.350982e-003,9.125285e-004
-2.366054e-003,8.959978e-004
-2.506889e-003,8.384645e-004
-2.693588e-003,7.725039e-004
-2.763763e-003,7.143224e-004
-2.563450e-003,6.637580e-004
-2.041275e-003,6.086557e-004
-1.271788e-003,5.413986e-004
-3.963114e-004,4.553419e-004
4.341113e-004,3.475684e-004
1.108628e-003,2.161334e-004
1.600821e-003,5.617490e-005
1.949101e-003,-1.352242e-004
2.221209e-003,-3.540124e-004
2.442915e-003,-5.886829e-004
2.584723e-003,-8.168708e-004
2.612275e-003,-1.015401e-003
2.503042e-003,-1.161422e-003
2.285063e-003,-1.245047e-003
2.037589e-003,-1.260282e-003
1.852995e-003,-1.211176e-003
1.768073e-003,-1.101944e-003
1.728043e-003,-9.478196e-004
1.640851e-003,-7.755442e-004
1.410070e-003,-6.125065e-004
9.335970e-004,-4.664857e-004
1.451488e-004,-3.311612e-004
-9.769914e-004,-1.877334e-004
-2.370754e-003,-1.399939e-005
-3.823350e-003,1.994406e-004
-4.961543e-003,4.540453e-004
-4.968512e-003,7.490044e-004
-4.968674e-003,1.086587e-003
-4.504191e-003,1.454152e-003
-3.534224e-003,1.809400e-003
-2.631841e-003,2.085722e-003
-1.984552e-003,2.223802e-003
-1.679869e-003,2.194630e-003
-1.708878e-003,2.006796e-003
-1.964455e-003,1.701302e-003
-2.269949e-003,1.335033e-003
-2.443035e-003,9.648756e-004
-2.365892e-003,6.341000e-004
-2.004972e-003,3.713920e-004
-1.387989e-003,1.850168e-004
-6.027826e-004,6.298164e-005
2.125679e-004,-1.562004e-005
8.733086e-004,-7.201877e-005
1.167782e-003,-1.201522e-004
9.647136e-004,-1.648822e-004
4.433490e-004,-2.084778e-004
7.416415e-005,-2.483458e-004
2.889007e-004,-2.835140e-004
1.166485e-003,-3.123616e-004
2.382465e-003,-3.339163e-004
3.479493e-003,-3.496366e-004
4.132460e-003,-3.617915e-004
4.273783e-003,-3.710293e-004
4.050130e-003,-3.791325e-004
3.737989e-003,-3.922598e-004
3.607201e-003,-4.108973e-004
3.778506e-003,-4.314796e-004
4.139916e-003,-4.520619e-004
4.386907e-003,-4.753993e-004
4.227432e-003,-5.029504e-004
3.572195e-003,-5.269361e-004
2.544045e-003,-5.428185e-004
1.389487e-003,-5.587008e-004
3.968363e-004,-5.971103e-004
-2.041020e-004,-6.807360e-004
-3.698948e-004,-8.324291e-004
-2.708729e-004,-1.055431e-003
-1.801163e-004,-1.325756e-003
-3.071755e-004,-1.606129e-003
-6.969426e-004,-1.867378e-003
-1.273409e-003,-2.091191e-003
-1.888285e-003,-2.249205e-003
-2.327482e-003,-2.319055e-003
-2.395550e-003,-2.299121e-003
-2.035440e-003,-2.201881e-003
-1.384586e-003,-2.022313e-003
-7.214144e-004,-1.738050e-003
-3.185201e-004,-1.327052e-003
-3.049066e-004,-7.870508e-004
-6.167202e-004,-1.483515e-004
-1.047004e-003,5.238955e-004
-1.320084e-003,1.150441e-003
-1.185731e-003,1.666782e-003
-5.572423e-004,2.034671e-003
4.206599e-004,2.259619e-003
1.446372e-003,2.393648e-003
2.237902e-003,2.496722e-003
2.610654e-003,2.576944e-003
2.486836e-003,2.581158e-003
1.905667e-003,2.429788e-003
1.031971e-003,2.090260e-003
1.312112e-004,1.609897e-003
-5.272602e-004,1.084642e-003
-8.204363e-004,6.071971e-004
-7.945059e-004,2.384984e-004
-5.964621e-004,5.864920e-007
-4.045768e-004,-1.102662e-004
-3.572537e-004,-1.104282e-004
-4.870680e-004,-2.939559e-005
-7.178490e-004,1.046324e-004
-9.262649e-004,2.890628e-004
-1.003246e-003,5.460985e-004
-9.092480e-004,8.906497e-004
-6.964564e-004,1.307320e-003
-4.734545e-004,1.735498e-003
-3.298647e-004,2.101280e-003
-2.652006e-004,2.352969e-003
-2.151224e-004,2.471439e-003
-1.233935e-004,2.463822e-003
2.522042e-005,2.351024e-003
2.211574e-004,2.158328e-003
4.517764e-004,1.911663e-003
7.127018e-004,1.631452e-003
1.004420e-003,1.328713e-003
1.314613e-003,9.998818e-004
1.611193e-003,6.459308e-004
1.849754e-003,2.871180e-004
1.997396e-003,-4.025397e-005
2.018465e-003,-2.990722e-004
1.849430e-003,-4.737787e-004
1.413797e-003,-5.744212e-004
6.728336e-004,-6.304958e-004
-3.266234e-004,-6.693914e-004
-1.406789e-003,-7.087733e-004
-2.360058e-003,-7.549619e-004
-3.066177e-003,-8.039057e-004
-3.510400e-003,-8.515528e-004
-3.719789e-003,-8.906106e-004
-3.712010e-003,-9.136238e-004
-3.507969e-003,-9.189720e-004
-3.145914e-003,-9.147583e-004
-2.660689e-003,-9.107067e-004
-2.100591e-003,-9.163790e-004
-1.537575e-003,-9.364750e-004
-1.031445e-003,-9.662951e-004
-5.959758e-004,-9.959530e-004
-2.207947e-004,-1.015887e-003
9.231547e-005,-1.022532e-003
3.316860e-004,-1.013780e-003
4.911583e-004,-9.928738e-004
5.689497e-004,-9.667812e-004
5.712186e-004,-9.429576e-004
5.234093e-004,-9.283718e-004
4.744656e-004,-9.189720e-004
4.820827e-004,-9.079515e-004
5.872631e-004,-8.990379e-004
7.990826e-004,-8.983897e-004
1.088045e-003,-9.084377e-004
1.401967e-003,-9.317751e-004
1.689795e-003,-9.682399e-004
1.911177e-003,-1.011511e-003
2.022678e-003,-1.045869e-003
1.975031e-003,-1.057376e-003
1.728529e-003,-1.037766e-003
1.309589e-003,-9.855808e-004
8.374922e-004,-9.061688e-004
4.627969e-004,-8.019609e-004
2.699391e-004,-6.739292e-004
2.355812e-004,-5.342290e-004
2.754493e-004,-4.027940e-004
3.120761e-004,-2.925897e-004
3.052694e-004,-2.041020e-004
2.491947e-004,-1.332795e-004
1.639484e-004,-8.482193e-005
8.875003e-005,-6.002594e-005
7.124698e-005,-5.727083e-005
1.394765e-004,-7.428769e-005
2.965178e-004,-1.084835e-004
5.096338e-004,-1.608306e-004
7.123777e-004,-2.321393e-004
8.254994e-004,-3.092824e-004
8.036205e-004,-3.629260e-004
6.516031e-004,-3.630881e-004
4.243874e-004,-2.891863e-004
1.890685e-004,-1.297140e-004
-7.030578e-006,1.151667e-004
-1.605064e-004,4.310321e-004
-2.906449e-004,7.857933e-004
-4.105732e-004,1.142175e-003
-5.251534e-004,1.478786e-003
-6.225546e-004,1.787035e-003
-6.778188e-004,2.053957e-003
-6.796016e-004,2.248436e-003
-6.535091e-004,2.327038e-003
-6.556159e-004,2.269505e-003
-7.377830e-004,2.085236e-003
-8.988759e-004,1.800648e-003
-1.063372e-003,1.446210e-003
-1.119123e-003,1.059198e-003
-9.614331e-004,6.859610e-004
-5.193190e-004,3.707437e-004
1.670276e-004,1.445005e-004
8.940530e-004,1.241726e-005
1.363395e-003,-4.155049e-005
1.303431e-003,-4.657452e-005
6.201624e-004,-2.858527e-005
-4.486585e-004,-2.654814e-006
-1.420240e-003,2.813760e-005
-1.902871e-003,6.022653e-005
-1.780187e-003,8.648112e-005
-1.208096e-003,1.007429e-004
-5.258016e-004,1.005808e-004
-8.271508e-005,8.826383e-005
2.855407e-006,6.460230e-005
-1.848162e-004,3.105477e-005
-5.339049e-004,-7.354709e-006
-9.264270e-004,-4.641245e-005
-1.217010e-003,-8.384954e-005
-1.329483e-003,-1.169109e-004
-1.349255e-003,-1.477033e-004
-1.469022e-003,-1.878955e-004
-1.807576e-003,-2.485079e-004
-2.262170e-003,-3.326198e-004
-2.572201e-003,-4.400691e-004
-2.509158e-003,-5.590250e-004
-2.008051e-003,-6.679329e-004
-1.167580e-003,-7.416725e-004
-1.789819e-004,-7.688995e-004
7.478700e-004,-7.557723e-004
1.462579e-003,-7.121767e-004
1.897888e-003,-6.447575e-004
2.045206e-003,-5.522182e-004
1.951369e-003,-4.309934e-004
1.667106e-003,-2.856209e-004
1.233742e-003,-1.287416e-004
7.253428e-004,2.133085e-005
2.350950e-004,1.469315e-004
-1.831956e-004,2.347709e-004
-5.371462e-004,2.817699e-004
-8.465288e-004,2.968419e-004
-1.076824e-003,2.973281e-004
-1.140191e-003,2.919800e-004
-9.380957e-004,2.717218e-004
-4.410415e-004,2.169437e-004
2.760976e-004,1.138702e-004
1.078484e-003,-3.215070e-005
1.796921e-003,-1.956746e-004
2.258809e-003,-3.397507e-004
2.390082e-003,-4.313175e-004
2.270964e-003,-4.596790e-004
2.046988e-003,-4.353692e-004
1.818637e-003,-3.792946e-004
1.623996e-003,-3.164132e-004
1.477489e-003,-2.788141e-004
1.384625e-003,-2.968033e-004
1.325310e-003,-3.833462e-004
1.244277e-003,-5.387668e-004
1.085290e-003,-7.525309e-004
8.311716e-004,-1.008918e-003
5.141716e-004,-1.276164e-003
2.034923e-004,-1.516669e-003
-2.048200e-005,-1.692834e-003
-1.148040e-004,-1.774677e-003
-9.794922e-005,-1.744047e-003
-3.895745e-005,-1.593002e-003
-2.664048e-005,-1.326404e-003
-1.405724e-004,-9.588401e-004
-4.164075e-004,-4.985746e-004
-8.089297e-004,3.413401e-005
-1.182814e-003,6.008766e-004
-1.361572e-003,1.148982e-003
-1.236134e-003,1.630317e-003
-8.162226e-004,2.019275e-003
-2.229016e-004,2.318773e-003
3.692851e-004,2.552634e-003
8.348991e-004,2.740955e-003
1.170861e-003,2.886329e-003
1.458041e-003,2.985189e-003
1.793193e-003,3.020358e-003
2.222182e-003,2.960393e-003
2.695577e-003,2.772234e-003
3.087615e-003,2.447778e-003
3.260216e-003,2.025920e-003
3.125539e-003,1.582346e-003
2.693794e-003,1.197926e-003
2.096905e-003,9.180387e-004
1.540533e-003,7.353909e-004
1.190471e-003,6.031455e-004
1.100849e-003,4.786793e-004
1.234229e-003,3.404375e-004
1.491103e-003,1.939304e-004
1.714591e-003,5.455425e-005
1.696116e-003,-6.586029e-005
1.265831e-003,-1.630995e-004
4.033189e-004,-2.395943e-004
-7.400519e-004,-3.016653e-004
-1.874347e-003,-3.535262e-004
-2.670737e-003,-3.989045e-004
-2.870888e-003,-4.400691e-004
-2.410136e-003,-4.852853e-004
-1.463998e-003,-5.389289e-004
-3.472056e-004,-5.977586e-004
6.193521e-004,-6.528608e-004
1.249949e-003,-6.941874e-004
1.544422e-003,-7.163903e-004
1.598228e-003,-7.244936e-004
1.524812e-003,-7.225489e-004
1.413473e-003,-7.123387e-004
1.320123e-003,-7.018045e-004
1.252866e-003,-6.948357e-004
1.147037e-003,-6.940254e-004
8.921082e-004,-7.037492e-004
3.710679e-004,-7.278970e-004
-4.771820e-004,-7.646859e-004
-1.590895e-003,-8.081193e-004
-2.816110e-003,-8.497701e-004
-4.007133e-003,-8.833176e-004
-4.968512e-003,-9.107067e-004
-4.968674e-003,-9.452265e-004
-4.968512e-003,-1.009080e-003
-4.968350e-003,-1.116368e-003
-4.968350e-003,-1.261578e-003
-4.968350e-003,-1.418944e-003
-4.968512e-003,-1.549082e-003
-4.968350e-003,-1.613422e-003
-4.968350e-003,-1.582954e-003
-3.792071e-003,-1.446981e-003
-2.243046e-003,-1.218955e-003
-9.708329e-004,-9.215650e-004
-1.399241e-004,-5.838210e-004
2.504913e-004,-2.371633e-004
3.488649e-004,8.242948e-005
3.482167e-004,3.381686e-004
3.898674e-004,5.037994e-004
5.245438e-004,5.725152e-004
7.316634e-004,5.561466e-004
9.643894e-004,4.809482e-004
1.167944e-003,3.811159e-004
1.282524e-003,2.905214e-004
1.284793e-003,2.269918e-004
1.218184e-003,1.866375e-004
1.158544e-003,1.496866e-004
1.166809e-003,1.085220e-004
1.273448e-003,7.935024e-005
1.487213e-003,9.053275e-005
1.799838e-003,1.639484e-004
2.187337e-003,2.968419e-004
2.596068e-003,4.647417e-004
2.951480e-003,6.316690e-004
3.191662e-003,7.697488e-004
3.304461e-003,8.687708e-004
3.312240e-003,9.389452e-004
3.240768e-003,9.980991e-004
3.099932e-003,1.052877e-003
2.856833e-003,1.094690e-003
2.419092e-003,1.108952e-003
1.670023e-003,1.086263e-003
5.240576e-004,1.030836e-003
-9.528436e-004,9.546655e-004
-2.418563e-003,8.677984e-004
-3.436336e-003,7.729901e-004
-3.685431e-003,6.712130e-004
-3.132300e-003,5.623050e-004
-2.053916e-003,4.464283e-004
-8.588458e-004,3.266619e-004
1.096565e-004,2.085163e-004
6.908230e-004,9.426025e-005
9.261420e-004,-1.950961e-005
9.749237e-004,-1.349001e-004
1.006689e-003,-2.511010e-004
1.116245e-003,-3.690845e-004
1.293383e-003,-4.797751e-004
1.452693e-003,-5.630766e-004
1.504068e-003,-6.032689e-004
1.400670e-003,-6.003517e-004
1.148820e-003,-5.671282e-004
7.924379e-004,-5.214258e-004
4.094774e-004,-4.719959e-004
1.054428e-004,-4.207833e-004
-1.853722e-005,-3.601709e-004
1.005808e-004,-2.849726e-004
4.618245e-004,-1.909747e-004
9.741134e-004,-8.239095e-005
1.487213e-003,3.494434e-005
1.855589e-003,1.493625e-004
1.988483e-003,2.491947e-004
1.840354e-003,3.336308e-004
1.406829e-003,4.089912e-004
7.441425e-004,4.752759e-004
-3.441962e-005,5.127130e-004
-7.577171e-004,4.931031e-004
-1.247154e-003,4.041292e-004
-1.393661e-003,2.535705e-004
-1.204045e-003,6.346784e-005
-7.782993e-004,-1.340898e-004
-2.323013e-004,-3.062031e-004
3.418961e-004,-4.343968e-004
8.605054e-004,-5.102433e-004
1.255459e-003,-5.384427e-004
1.511847e-003,-5.319601e-004
1.657058e-003,-5.037607e-004
1.697898e-003,-4.651892e-004
1.601145e-003,-4.233763e-004
1.360640e-003,-3.789705e-004
1.074270e-003,-3.300267e-004
8.859497e-004,-2.758969e-004
8.666640e-004,-2.284118e-004
9.629308e-004,-1.972953e-004
1.053201e-003,-1.883817e-004
1.034726e-003,-1.966470e-004
8.684467e-004,-2.115570e-004
5.809425e-004,-2.225774e-004
2.363916e-004,-2.212809e-004
-8.806324e-005,-1.997262e-004
-3.369955e-004,-1.574272e-004
-4.954954e-004,-1.010285e-004
-5.893312e-004,-4.074016e-005
-6.538332e-004,1.501031e-005
-6.987253e-004,6.492643e-005
-7.027769e-004,1.090082e-004
-6.463782e-004,1.479039e-004
-5.256396e-004,1.795066e-004
-3.541745e-004,2.033302e-004
-1.658546e-004,2.211574e-004
2.207145e-006,2.329882e-004
1.187321e-004,2.373639e-004
1.626518e-004,2.359054e-004
1.308870e-004,2.318537e-004
3.932010e-005,2.261814e-004
-7.671866e-005,2.201850e-004
-1.833576e-004,2.148369e-004
-2.684419e-004,2.106232e-004
-3.481781e-004,2.088404e-004
-4.587066e-004,2.109473e-004
-6.254718e-004,2.188885e-004
-8.342119e-004,2.326641e-004
-9.899565e-004,2.513016e-004
-9.590021e-004,2.707494e-004
-7.090974e-004,2.863077e-004
-3.802670e-004,2.968419e-004
-1.676373e-004,3.054314e-004
-1.532135e-004,3.156415e-004
-2.715212e-004,3.255275e-004
-3.692465e-004,3.307136e-004
-2.864312e-004,3.352514e-004
4.320967e-005,3.433547e-004
5.449640e-004,3.530786e-004
1.048826e-003,3.616681e-004
1.368743e-003,3.652335e-004
1.381060e-003,3.613439e-004
1.082373e-003,3.504856e-004
6.067110e-004,3.350894e-004
1.286181e-004,3.119140e-004
-3.138202e-004,2.796630e-004
-7.954782e-004,2.402811e-004
-1.327215e-003,2.008992e-004
-1.875806e-003,1.658931e-004
-2.449518e-003,1.412592e-004
-3.073795e-003,1.325077e-004
-3.704717e-003,1.399627e-004
-4.219926e-003,1.618415e-004
-4.517966e-003,1.906891e-004
-4.587007e-003,2.088404e-004
-4.474370e-003,1.957132e-004
-4.246667e-003,1.355869e-004
-3.938741e-003,3.316162e-005
-3.560479e-003,-8.854943e-005
-3.130193e-003,-2.045882e-004
-2.728108e-003,-3.018274e-004
-2.498785e-003,-3.839945e-004
-2.527957e-003,-4.600031e-004
-2.682406e-003,-5.394151e-004
-2.695533e-003,-6.347094e-004
-2.401384e-003,-7.538275e-004
-1.826214e-003,-8.966069e-004
-1.120095e-003,-1.048786e-003
-4.530343e-004,-1.188000e-003
6.557468e-005,-1.297070e-003
4.234150e-004,-1.358331e-003
6.914712e-004,-1.351524e-003
9.533690e-004,-1.263847e-003
1.228880e-003,-1.097730e-003
1.471817e-003,-8.726213e-004
1.634531e-003,-6.165582e-004
1.710702e-003,-3.438023e-004
1.721398e-003,-5.532604e-005
1.698223e-003,2.415777e-004
1.683637e-003,5.316747e-004
1.722046e-003,8.029722e-004
1.844730e-003,1.049474e-003
2.045854e-003,1.260483e-003
2.284577e-003,1.415742e-003
2.492832e-003,1.500016e-003
2.604333e-003,1.512333e-003
2.605306e-003,1.462741e-003
2.557010e-003,1.362422e-003
2.567544e-003,1.212188e-003
2.725073e-003,1.008957e-003
3.061523e-003,7.606731e-004
3.563929e-003,4.882411e-004
4.160984e-003,2.193747e-004
4.712825e-003,-2.015787e-005
4.959168e-003,-2.115570e-004
4.959330e-003,-3.439643e-004
4.702452e-003,-4.152731e-004
4.241046e-003,-4.254832e-004
3.840416e-003,-3.826980e-004
3.531354e-003,-3.013411e-004
3.164597e-003,-1.989159e-004
2.528973e-003,-1.007043e-004
1.502609e-003,-2.761287e-005
1.660552e-004,1.014835e-005
-1.156236e-003,7.555301e-006
-2.080332e-003,-4.057810e-005
-2.444007e-003,-1.383035e-004
-2.373023e-003,-2.793003e-004
-2.178058e-003,-4.434724e-004
-2.184216e-003,-6.013241e-004
-2.588246e-003,-7.283832e-004
-3.276053e-003,-8.042298e-004
-3.870025e-003,-8.092538e-004
-3.991575e-003,-7.390795e-004
-3.513641e-003,-6.005137e-004
-2.609638e-003,-3.984183e-004
-1.599322e-003,-1.553203e-004
-7.603101e-004,9.296373e-005
-2.094502e-004,3.002453e-004
7.384002e-005,4.378388e-004
1.310491e-004,5.109303e-004
-2.064406e-005,5.401021e-004
-3.648708e-004,5.410745e-004
-8.543079e-004,5.169268e-004
-1.380858e-003,4.710622e-004
-1.777756e-003,4.248736e-004
-1.904167e-003,4.016982e-004
-1.716333e-003,4.026706e-004
-1.280053e-003,4.143393e-004
-7.176869e-004,4.239012e-004
-1.337657e-004,4.294114e-004
4.135290e-004,4.388112e-004
9.177146e-004,4.639314e-004
1.399860e-003,5.162785e-004
1.884760e-003,6.037938e-004
2.369175e-003,7.337703e-004
2.795247e-003,9.006977e-004
3.041751e-003,1.078484e-003
2.977248e-003,1.236984e-003
2.547286e-003,1.356102e-003
1.857371e-003,1.415256e-003
1.139744e-003,1.387543e-003
6.208107e-004,1.245573e-003
4.033189e-004,9.901578e-004
4.475628e-004,6.579236e-004
6.242140e-004,3.067279e-004
7.825520e-004,-1.999580e-005
8.157754e-004,-3.000446e-004
7.007089e-004,-5.248293e-004
4.874308e-004,-6.902979e-004
2.603772e-004,-7.958024e-004
1.140322e-004,-8.522011e-004
1.278078e-004,-8.750523e-004
3.357376e-004,-8.802384e-004
6.948746e-004,-8.804005e-004
1.111869e-003,-8.849383e-004
1.506985e-003,-8.957966e-004
1.854778e-003,-9.094102e-004
2.170159e-003,-9.204306e-004
2.473546e-003,-9.231857e-004
2.762672e-003,-9.126515e-004
2.992158e-003,-8.867210e-004
3.075460e-003,-8.518770e-004
2.929763e-003,-8.269189e-004
2.516169e-003,-8.355084e-004
1.834844e-003,-8.938519e-004
9.198214e-004,-1.004543e-003
-1.643960e-004,-1.157694e-003
-1.301932e-003,-1.336938e-003
-2.375616e-003,-1.520883e-003
-3.293394e-003,-1.689755e-003
-4.011995e-003,-1.822972e-003
-4.534497e-003,-1.905140e-003
-4.880185e-003,-1.927667e-003
-4.968350e-003,-1.873537e-003
-4.968512e-003,-1.722816e-003
-4.968350e-003,-1.454436e-003
-4.968350e-003,-1.062238e-003
-4.968512e-003,-5.648594e-004
-4.723629e-003,-2.168618e-006
-4.105669e-003,5.773771e-004
-3.190968e-003,1.135369e-003
-2.028147e-003,1.645551e-003
-7.630652e-004,2.093177e-003
3.924605e-004,2.472574e-003
1.217698e-003,2.771748e-003
1.569218e-003,2.961528e-003
1.382681e-003,3.006258e-003
6.937401e-004,2.883411e-003
-2.893484e-004,2.599796e-003
-1.177142e-003,2.193010e-003
-1.606615e-003,1.727394e-003
-1.408085e-003,1.275717e-003
-6.559400e-004,8.877325e-004
3.717161e-004,5.846701e-004
1.303268e-003,3.713920e-004
1.846513e-003,2.378501e-004
1.861099e-003,1.730240e-004
1.357236e-003,1.586002e-004
4.997478e-004,1.759412e-004
-4.241867e-004,2.099749e-004
-1.118636e-003,2.453052e-004
-1.420888e-003,2.645909e-004
-1.332725e-003,2.529222e-004
-9.766672e-004,2.031682e-004
-5.196431e-004,1.203528e-004
-9.730096e-005,1.371378e-005
2.002510e-004,-1.015147e-004
3.358997e-004,-2.079916e-004
3.216380e-004,-2.946965e-004
2.090025e-004,-3.611433e-004
8.113296e-005,-4.083043e-004
2.878586e-005,-4.386105e-004
1.041462e-004,-4.512515e-004
3.031625e-004,-4.497930e-004
5.731634e-004,-4.382863e-004
8.391128e-004,-4.253211e-004
1.048015e-003,-4.175420e-004
1.177181e-003,-4.202971e-004
1.230177e-003,-4.352071e-004
1.222884e-003,-4.587066e-004
1.183016e-003,-4.865818e-004
1.141851e-003,-5.120260e-004
1.130669e-003,-5.308256e-004
1.172157e-003,-5.434667e-004
1.269235e-003,-5.536768e-004
1.404722e-003,-5.609698e-004
1.546205e-003,-5.643732e-004
1.662082e-003,-5.716661e-004
1.729987e-003,-5.922483e-004
1.740198e-003,-6.285510e-004
1.692550e-003,-6.763602e-004
1.595797e-003,-7.301659e-004
1.477813e-003,-7.842957e-004
1.379926e-003,-8.329154e-004
1.328227e-003,-8.706765e-004
1.308779e-003,-8.917450e-004
1.294355e-003,-8.904485e-004
1.287386e-003,-8.625733e-004
1.309751e-003,-8.100641e-004
1.354157e-003,-7.296797e-004
1.363071e-003,-6.154237e-004
1.277986e-003,-4.668098e-004
1.059522e-003,-2.995585e-004
6.747784e-004,-1.428413e-004
1.046324e-004,-2.761287e-005
-6.157478e-004,3.121684e-005
-1.398199e-003,3.413401e-005
-2.146131e-003,-8.720959e-007
-2.761818e-003,-5.095028e-005
-3.138945e-003,-9.519411e-005
-3.227109e-003,-1.196660e-004
-3.120307e-003,-1.185315e-004
-3.022906e-003,-8.757704e-005
-3.026147e-003,-2.275091e-005
-3.016585e-003,7.027458e-005
-2.843661e-003,1.811273e-004
-2.486306e-003,2.947351e-004
-2.051809e-003,3.957018e-004
-1.659610e-003,4.749518e-004
-1.356872e-003,5.282713e-004
-1.115071e-003,5.647360e-004
-8.787798e-004,5.965008e-004
-5.851175e-004,6.302104e-004
-1.987538e-004,6.606788e-004
2.359054e-004,6.744543e-004
6.164349e-004,6.580857e-004
8.212856e-004,6.023352e-004
7.647247e-004,5.133613e-004
4.858102e-004,4.096394e-004
1.564933e-004,3.136967e-004
-3.231277e-005,2.372019e-004
2.197911e-005,1.773998e-004
2.893870e-004,1.232699e-004
6.511169e-004,6.395404e-005
9.760582e-004,-7.192643e-006
1.162109e-003,-8.141856e-005
1.162109e-003,-1.318209e-004
9.948577e-004,-1.243659e-004
7.183740e-004,-3.928157e-005
3.825745e-004,1.237561e-004
5.772582e-006,3.465960e-004
-3.938804e-004,6.093040e-004
-7.612825e-004,8.958358e-004
-1.025449e-003,1.180099e-003
-1.118799e-003,1.433407e-003
-9.993564e-004,1.632262e-003
-6.551297e-004,1.758511e-003
-1.366828e-004,1.801945e-003
4.279528e-004,1.765804e-003
9.015080e-004,1.669375e-003
1.215915e-003,1.546205e-003
1.381222e-003,1.425628e-003
1.462255e-003,1.299055e-003
1.559008e-003,1.133586e-003
1.767263e-003,9.021563e-004
2.128345e-003,6.028214e-004
2.609357e-003,2.576221e-004
3.139152e-003,-1.050801e-004
3.630863e-003,-4.616237e-004
3.988869e-003,-7.958024e-004
4.116416e-003,-1.092382e-003
3.978497e-003,-1.330618e-003
3.672190e-003,-1.489766e-003
3.382577e-003,-1.552647e-003
3.262161e-003,-1.505162e-003
3.318236e-003,-1.339045e-003
3.395542e-003,-1.057700e-003
3.264592e-003,-6.922426e-004
2.719725e-003,-2.985861e-004
1.666134e-003,5.909208e-005
2.000889e-004,3.308757e-004
-1.391068e-003,5.015305e-004
-2.825510e-003,5.846701e-004
-3.988171e-003,6.059006e-004
-4.867544e-003,5.841838e-004
-4.968512e-003,5.271368e-004
-4.968512e-003,4.423766e-004
-4.968512e-003,3.559958e-004
-4.968674e-003,2.919800e-004
-4.939502e-003,2.577842e-004
-3.662742e-003,2.316917e-004
-2.313869e-003,1.712413e-004
-1.126740e-003,5.131294e-005
-1.906506e-004,-1.146419e-004
4.775448e-004,-2.916173e-004
8.825464e-004,-4.390967e-004
1.030674e-003,-5.301774e-004
9.293833e-004,-5.502735e-004
6.208107e-004,-5.092709e-004
1.756171e-004,-4.366657e-004
-3.217614e-004,-3.705430e-004
-7.492896e-004,-3.389403e-004
-9.724535e-004,-3.473677e-004
-9.184858e-004,-3.767015e-004
-6.170443e-004,-3.987424e-004
-1.809267e-004,-3.896668e-004
2.422259e-004,-3.413713e-004
5.402642e-004,-2.583939e-004
6.660269e-004,-1.524032e-004
6.504686e-004,-4.203669e-005
5.849942e-004,4.936815e-005
5.657084e-004,1.132219e-004
6.413930e-004,1.488763e-004
7.990826e-004,1.526038e-004
9.767064e-004,1.078737e-004
1.108142e-003,4.151929e-006
1.175723e-003,-1.530514e-004
1.223532e-003,-3.379679e-004
1.314289e-003,-5.086227e-004
1.470844e-003,-6.209339e-004
1.653817e-003,-6.483230e-004
1.777149e-003,-5.914380e-004
1.766452e-003,-4.747511e-004
1.589801e-003,-3.322956e-004
1.264049e-003,-1.883817e-004
8.373301e-004,-5.321920e-005
3.613439e-004,7.140904e-005
-1.399241e-004,1.845306e-004
-6.556159e-004,2.901973e-004
-1.133546e-003,3.887330e-004
-1.498355e-003,4.791655e-004
-1.716009e-003,5.587396e-004
-1.813573e-003,6.237278e-004
-1.864137e-003,6.793162e-004
-1.939984e-003,7.326358e-004
-2.055536e-003,7.786624e-004
-2.143538e-003,7.940586e-004
-2.098970e-003,7.517595e-004
-1.866568e-003,6.399344e-004
-1.488632e-003,4.712243e-004
-1.061752e-003,2.749631e-004
-6.698776e-004,8.534666e-005
-3.478539e-004,-7.056019e-005
-7.688073e-005,-1.807646e-004
1.846927e-004,-2.481838e-004
4.582590e-004,-2.859450e-004
7.246946e-004,-3.057169e-004
9.457519e-004,-3.180339e-004
1.090801e-003,-3.309991e-004
1.127752e-003,-3.472056e-004
1.003771e-003,-3.687603e-004
6.689441e-004,-3.955011e-004
1.537382e-004,-4.235384e-004
-4.013355e-004,-4.467137e-004
-8.167088e-004,-4.598410e-004
-9.789361e-004,-4.645409e-004
-8.821832e-004,-4.659995e-004
-6.044033e-004,-4.689167e-004
-2.532078e-004,-4.719959e-004
7.610894e-005,-4.826922e-004
3.174242e-004,-5.006815e-004
4.190393e-004,-5.194810e-004
3.475684e-004,-5.316359e-004
1.188942e-004,-5.332566e-004
-1.754164e-004,-5.280706e-004
-4.107352e-004,-5.217500e-004
-4.817198e-004,-5.188328e-004
-3.378059e-004,-5.238568e-004
1.095867e-005,-5.386047e-004
5.031512e-004,-5.705316e-004
1.054660e-003,-6.185030e-004
1.573270e-003,-6.761982e-004
1.947480e-003,-7.355141e-004
2.057847e-003,-7.883473e-004
1.845703e-003,-8.285395e-004
1.388353e-003,-8.483115e-004
8.771982e-004,-8.353463e-004
5.078511e-004,-7.719788e-004
3.756057e-004,-6.549676e-004
4.336251e-004,-4.946851e-004
5.060683e-004,-3.130099e-004
4.088291e-004,-1.255003e-004
7.157111e-005,6.897806e-005
-4.488206e-004,2.816078e-004
-1.022208e-003,5.185474e-004
-1.519424e-003,7.733142e-004
-1.864785e-003,1.021761e-003
-2.047757e-003,1.235849e-003
-2.125062e-003,1.392405e-003
-2.174330e-003,1.477327e-003
-2.221005e-003,1.487861e-003
-2.231539e-003,1.440214e-003
-2.154234e-003,1.364853e-003
-1.938687e-003,1.287062e-003
-1.559940e-003,1.212026e-003
-1.034362e-003,1.122079e-003
-4.031182e-004,1.000530e-003
2.872801e-004,8.465679e-004
9.796236e-004,6.757508e-004
1.613462e-003,5.172509e-004
2.138231e-003,3.948915e-004
2.510335e-003,3.190449e-004
2.696387e-003,2.867939e-004
2.685043e-003,2.867939e-004
2.504825e-003,3.042970e-004
2.233688e-003,3.253654e-004
1.963362e-003,3.414099e-004
1.756890e-003,3.482167e-004
1.645713e-003,3.480546e-004
1.592556e-003,3.461098e-004
1.483972e-003,3.422202e-004
1.198736e-003,3.316860e-004
6.715371e-004,3.117519e-004
-5.321920e-005,2.838767e-004
-8.259465e-004,2.508154e-004
-1.518452e-003,2.161334e-004
-2.056509e-003,1.825859e-004
-2.332182e-003,1.495245e-004
-2.269625e-003,1.175977e-004
-1.930098e-003,8.923623e-005
-1.486363e-003,6.314371e-005
-1.062238e-003,3.899597e-005
-6.653398e-004,1.468618e-005
-2.567732e-004,-1.092015e-005
1.688103e-004,-3.863332e-005
5.673291e-004,-6.829127e-005
8.822222e-004,-9.956988e-005
1.090638e-003,-1.326312e-004
1.205381e-003,-1.655305e-004
1.261618e-003,-1.966470e-004
1.289655e-003,-2.274394e-004
1.295165e-003,-2.634179e-004
1.248328e-003,-3.107410e-004
1.108142e-003,-3.724878e-004
8.676364e-004,-4.517378e-004
5.378332e-004,-5.446012e-004
1.339663e-004,-6.408680e-004
-2.608248e-004,-7.272488e-004
-4.880404e-004,-7.833233e-004
-4.126800e-004,-7.959644e-004
-8.975362e-006,-7.653341e-004
6.229175e-004,-7.014804e-004
1.295813e-003,-6.125065e-004
1.822203e-003,-4.977643e-004
2.094149e-003,-3.595226e-004
2.103063e-003,-1.992400e-004
1.914094e-003,-2.939559e-005
1.629669e-003,1.318594e-004
1.323203e-003,2.691288e-004
9.839993e-004,3.794953e-004
5.219508e-004,4.610142e-004
-1.814128e-004,5.078511e-004
-1.163366e-003,5.251921e-004
-2.276269e-003,5.213025e-004
-3.246395e-003,4.961824e-004
-3.848794e-003,4.287631e-004
-4.019774e-003,2.858215e-004
-3.805847e-003,4.385793e-005
-3.292259e-003,-2.780038e-004
-2.596349e-003,-6.232028e-004
-1.863489e-003,-9.261029e-004
-1.222034e-003,-1.133546e-003
-7.429690e-004,-1.220738e-003
-4.502792e-004,-1.193349e-003
-3.450988e-004,-1.070827e-003
-4.130042e-004,-8.755385e-004
-6.518884e-004,-6.222305e-004
-1.035173e-003,-3.222476e-004
-1.447143e-003,1.371378e-005
-1.702882e-003,3.683128e-004
-1.675493e-003,7.139983e-004
-1.413595e-003,1.011550e-003
-1.144081e-003,1.228232e-003
-1.043114e-003,1.348809e-003
-1.037280e-003,1.382194e-003
-8.876934e-004,1.354481e-003
-3.932322e-004,1.296786e-003
4.666864e-004,1.226287e-003
1.522867e-003,1.138448e-003
2.521680e-003,1.015602e-003
3.261513e-003,8.548332e-004
3.650473e-003,6.767232e-004
3.703307e-003,5.119027e-004
3.506558e-003,3.853296e-004
3.176266e-003,3.007315e-004
2.793627e-003,2.425500e-004
2.381006e-003,1.926339e-004
1.901939e-003,1.420695e-004
1.310400e-003,9.053275e-005
6.178935e-004,3.251336e-005
-1.023250e-004,-3.636440e-005
-7.705202e-004,-1.156143e-004
-1.360924e-003,-1.979435e-004
-1.896226e-003,-2.673075e-004
-2.400088e-003,-3.157650e-004
-2.887095e-003,-3.400748e-004
-3.336665e-003,-3.468815e-004
-3.616553e-003,-3.438023e-004
-3.507159e-003,-3.331060e-004
-2.855654e-003,-3.183580e-004
-1.711147e-003,-2.984240e-004
-2.974516e-004,-2.739521e-004
1.075890e-003,-2.480217e-004
2.155086e-003,-2.232257e-004
2.861046e-003,-2.034537e-004
3.227641e-003,-1.912988e-004
3.349353e-003,-1.851404e-004
3.325043e-003,-1.822232e-004
3.214351e-003,-1.801163e-004
3.014523e-003,-1.773612e-004
2.667701e-003,-1.731475e-004
2.120890e-003,-1.736337e-004
1.402615e-003,-1.864369e-004
6.409068e-004,-2.102605e-004
-1.358292e-006,-2.412149e-004
-3.967976e-004,-2.818933e-004
-5.084606e-004,-3.356990e-004
-3.943667e-004,-3.995528e-004
-1.747682e-004,-4.659995e-004
1.727922e-005,-5.358497e-004
1.213252e-004,-6.150996e-004
1.714034e-004,-7.142835e-004
2.399570e-004,-8.387497e-004
3.783608e-004,-9.813671e-004
5.678153e-004,-1.120743e-003
7.141604e-004,-1.227706e-003
7.096225e-004,-1.268709e-003
5.260024e-004,-1.222682e-003
2.433604e-004,-1.090275e-003
-8.489166e-006,-8.912588e-004
-1.433275e-004,-6.499436e-004
-1.512687e-004,-3.927460e-004
-6.213279e-005,-1.446240e-004
6.314371e-005,7.448828e-005
1.080358e-004,2.555152e-004
-9.017008e-005,3.822504e-004
-6.369784e-004,4.279528e-004
-1.458163e-003,3.778746e-004
-2.342554e-003,2.427121e-004
-3.064719e-003,7.059871e-005
-3.460646e-003,-7.282909e-005
-3.469235e-003,-1.439758e-004
-3.144455e-003,-1.402483e-004
-2.633138e-003,-1.003802e-004
-2.099618e-003,-7.769106e-005
-1.659286e-003,-9.746302e-005
-1.350390e-003,-1.506204e-004
-1.135653e-003,-1.932436e-004
-9.577056e-004,-1.609926e-004
-7.663065e-004,-2.238346e-007
-5.236948e-004,3.039728e-004
-2.008607e-004,7.139983e-004
1.986303e-004,1.169402e-003
6.306967e-004,1.603738e-003
1.031809e-003,1.962066e-003
1.338113e-003,2.219102e-003
1.516547e-003,2.382789e-003
1.574242e-003,2.492508e-003
1.543612e-003,2.586344e-003
1.447021e-003,2.662353e-003
1.291600e-003,2.666243e-003
1.089018e-003,2.529297e-003
8.799533e-004,2.220885e-003
7.188602e-004,1.771963e-003
6.407447e-004,1.261780e-003
6.564650e-004,7.755831e-004
7.447907e-004,3.629646e-004
8.423541e-004,3.932010e-005
8.630985e-004,-1.953505e-004
7.248566e-004,-3.506090e-004
3.875985e-004,-4.439586e-004
-8.239095e-005,-4.938748e-004
-5.254775e-004,-5.222362e-004
-7.970989e-004,-5.437909e-004
-8.385876e-004,-5.627525e-004
-6.755499e-004,-5.742591e-004
-3.789705e-004,-5.729626e-004
-4.430560e-005,-5.565940e-004
2.389846e-004,-5.246671e-004
4.046154e-004,-4.778303e-004
4.315182e-004,-4.235384e-004
3.508097e-004,-3.663294e-004
2.299089e-004,-3.138202e-004
1.362352e-004,-2.754107e-004
1.093323e-004,-2.592042e-004
1.508211e-004,-2.726556e-004
2.261814e-004,-3.154408e-004
2.905214e-004,-3.797808e-004
3.102934e-004,-4.544929e-004
2.979764e-004,-5.249913e-004
3.030004e-004,-5.831727e-004
3.639370e-004,-6.246614e-004
4.888894e-004,-6.465403e-004
6.731578e-004,-6.526987e-004
8.982667e-004,-6.567503e-004
1.125159e-003,-6.705259e-004
1.307806e-003,-6.993735e-004
1.401480e-003,-7.371347e-004
1.372633e-003,-7.745718e-004
1.229691e-003,-8.035815e-004
1.040074e-003,-8.189777e-004
9.044252e-004,-8.227052e-004
9.175525e-004,-8.196260e-004
1.126779e-003,-8.103882e-004
1.491913e-003,-7.888335e-004
1.875847e-003,-7.476690e-004
2.076646e-003,-6.773326e-004
1.925115e-003,-5.745832e-004
1.421739e-003,-4.470379e-004
7.705591e-004,-3.177098e-004
2.054371e-004,-2.139880e-004
-2.183637e-004,-1.559686e-004
-5.822003e-004,-1.468929e-004
-8.810487e-004,-1.739578e-004
-9.975737e-004,-2.135018e-004
-8.556045e-004,-2.465631e-004
-4.851232e-004,-2.643903e-004
2.035846e-005,-2.697385e-004
5.323229e-004,-2.671454e-004
9.053976e-004,-2.635799e-004
9.872407e-004,-2.645523e-004
6.131936e-004,-2.726556e-004
-3.026377e-004,-2.852967e-004
-1.614394e-003,-2.968033e-004
-2.978014e-003,-3.023136e-004
-4.066773e-003,-2.974516e-004
-4.669499e-003,-2.794623e-004
-4.727033e-003,-2.436459e-004
-4.321704e-003,-1.877334e-004
-3.671980e-003,-1.173971e-004
-3.076226e-003,-5.030202e-005
-2.825996e-003,-3.141010e-006
-3.034575e-003,1.614476e-005
-3.544758e-003,1.582063e-005
-4.020098e-003,1.501031e-005
-4.141648e-003,2.797553e-005
-3.770354e-003,5.941620e-005
-2.978662e-003,1.154908e-004
-1.958783e-003,2.013854e-004
-9.293442e-004,3.128864e-004
-5.808115e-005,4.415663e-004
5.896941e-004,5.811046e-004
1.006202e-003,7.246946e-004
1.187067e-003,8.621261e-004
1.177830e-003,9.839993e-004
1.087397e-003,1.078808e-003
1.001016e-003,1.135044e-003
9.149595e-004,1.148820e-003
8.026481e-004,1.127265e-003
6.608408e-004,1.083670e-003
4.989374e-004,1.034402e-003
3.428685e-004,9.979371e-004
2.725321e-004,9.891854e-004
3.770643e-004,1.012361e-003
6.540340e-004,1.057415e-003
1.004258e-003,1.098256e-003
1.312506e-003,1.098580e-003
1.500016e-003,1.035860e-003
1.524002e-003,9.160939e-004
1.383167e-003,7.703970e-004
1.136341e-003,6.386379e-004
8.865980e-004,5.491778e-004
7.251808e-004,5.023408e-004
6.900126e-004,4.749518e-004
7.613214e-004,4.401077e-004
8.896773e-004,3.765781e-004
1.025812e-003,2.712356e-004
1.134558e-003,1.219734e-004
1.198736e-003,-5.840528e-005
1.229853e-003,-2.558008e-004
1.258863e-003,-4.569239e-004
1.316234e-003,-6.515643e-004
1.417849e-003,-8.301602e-004
1.562087e-003,-9.693743e-004
1.722857e-003,-1.054297e-003
1.849430e-003,-1.084117e-003
1.900481e-003,-1.073906e-003
1.874874e-003,-1.036956e-003
1.805348e-003,-9.742362e-004
1.708919e-003,-8.778074e-004
1.573270e-003,-7.426449e-004
1.377981e-003,-5.737729e-004
1.103280e-003,-3.805911e-004
7.298806e-004,-1.734716e-004
2.666978e-004,3.705119e-005
-2.246843e-004,2.393087e-004
-6.369784e-004,4.250357e-004
-8.614388e-004,5.974732e-004
-8.291878e-004,7.571077e-004
-5.322842e-004,8.955116e-004
-2.939559e-005,9.841614e-004
5.567948e-004,9.982612e-004
1.075080e-003,9.323005e-004
1.409260e-003,8.013516e-004
1.498882e-003,6.315070e-004
1.336816e-003,4.503179e-004
9.930751e-004,2.799871e-004
5.989318e-004,1.308870e-004
2.790148e-004,5.610517e-006
5.066468e-005,-9.065628e-005
-1.619650e-004,-1.564548e-004
-4.175420e-004,-1.948643e-004
-6.629088e-004,-2.136638e-004
-7.368106e-004,-2.261429e-004
-4.578962e-004,-2.460769e-004
2.581083e-004,-2.788141e-004
1.302782e-003,-3.222476e-004
2.350214e-003,-3.697327e-004
3.019385e-003,-4.167317e-004
3.004475e-003,-4.630823e-004
2.174696e-003,-5.084606e-004
7.185361e-004,-5.510838e-004
-8.842900e-004,-5.849554e-004
-2.094270e-003,-6.035930e-004
-2.638324e-003,-5.959758e-004
-2.492789e-003,-5.590250e-004
-1.867216e-003,-5.032745e-004
-1.113126e-003,-4.470379e-004
-6.129927e-004,-4.042526e-004
-6.601537e-004,-3.737844e-004
-1.321866e-003,-3.452609e-004
-2.398143e-003,-3.016653e-004
-3.536168e-003,-2.245222e-004
-4.411812e-003,-1.078352e-004
-4.829296e-003,3.802358e-005
-4.725898e-003,1.835583e-004
-4.149751e-003,2.923041e-004
-3.253039e-003,3.440029e-004
-2.243856e-003,3.438409e-004
-1.324621e-003,3.138588e-004
-6.176926e-004,2.769079e-004
-1.324691e-004,2.508154e-004
1.949028e-004,2.394708e-004
4.333010e-004,2.331503e-004
6.258347e-004,2.188885e-004
7.762314e-004,1.927960e-004
8.608295e-004,1.563313e-004
8.579124e-004,1.158149e-004
7.833623e-004,7.789165e-005
6.924436e-004,4.936815e-005
6.486859e-004,3.235129e-005
6.964952e-004,2.522042e-005
8.326302e-004,2.068259e-005
1.018519e-003,1.257933e-005
1.206678e-003,1.002961e-007
1.357723e-003,-1.691656e-005
1.437945e-003,-3.441962e-005
1.434542e-003,-5.176061e-005
1.355292e-003,-7.363943e-005
1.228070e-003,-1.063766e-004
1.081563e-003,-1.517549e-004
9.391072e-004,-2.112329e-004
8.151271e-004,-2.875656e-004
7.088122e-004,-3.830221e-004
6.084936e-004,-4.987367e-004
4.931031e-004,-6.280648e-004
3.535648e-004,-7.517206e-004
2.023578e-004,-8.457185e-004
5.147500e-005,-8.885037e-004
-1.041077e-004,-8.722972e-004
-2.878898e-004,-8.084435e-004
-5.198052e-004,-7.163903e-004
-7.883473e-004,-6.131548e-004
-1.052352e-003,-5.104054e-004
-1.253151e-003,-4.168937e-004
-1.346500e-003,-3.356990e-004
-1.312629e-003,-2.664971e-004
-1.162880e-003,-2.042641e-004
-9.379336e-004,-1.329553e-004
-6.864083e-004,-3.766092e-005
-4.484965e-004,9.361199e-005
-2.444563e-004,2.705873e-004
-8.077030e-005,4.969927e-004
5.115087e-005,7.553250e-004
1.603829e-004,1.000854e-003
2.551911e-004,1.182043e-003
3.375204e-004,1.269721e-003
4.135290e-004,1.264859e-003
4.939134e-004,1.187716e-003
6.026593e-004,1.072973e-003
7.535422e-004,9.588792e-004
9.348936e-004,8.716880e-004
1.125807e-003,8.274441e-004
1.297596e-003,8.277682e-004
1.418173e-003,8.590469e-004
1.471655e-003,8.953495e-004
1.472303e-003,9.070183e-004
1.442321e-003,8.801154e-004
1.388029e-003,8.219338e-004
1.287224e-003,7.588904e-004
1.117865e-003,7.212912e-004
8.844911e-004,7.253428e-004
6.154625e-004,7.561353e-004
3.569682e-004,7.823899e-004
1.453108e-004,7.673178e-004
1.160693e-005,6.890402e-004
-2.631635e-005,5.507984e-004
4.061663e-005,3.752816e-004
2.070577e-004,1.974959e-004
4.444835e-004,4.628891e-005
7.084881e-004,-6.229485e-005
9.528828e-004,-1.272830e-004
1.130831e-003,-1.528894e-004
1.212188e-003,-1.465688e-004
1.207326e-003,-1.264727e-004
1.137313e-003,-1.271210e-004
1.007661e-003,-1.880575e-004
8.055653e-004,-3.326198e-004
5.172509e-004,-5.522182e-004
1.534141e-004,-8.120089e-004
-2.514251e-004,-1.059645e-003
-6.421645e-004,-1.241320e-003
-9.849326e-004,-1.317329e-003
-1.305012e-003,-1.270816e-003
-1.648914e-003,-1.114585e-003
-2.017775e-003,-8.831556e-004
-2.372212e-003,-6.159099e-004
-2.646265e-003,-3.449367e-004
-2.726812e-003,-9.195280e-005
-2.514020e-003,1.276457e-004
-2.007079e-003,3.064038e-004
-1.322028e-003,4.405939e-004
-6.723086e-004,5.284334e-004
-2.982619e-004,5.697600e-004
-3.579019e-004,5.657084e-004
-8.048780e-004,5.253541e-004
-1.385720e-003,4.718725e-004
-1.819407e-003,4.365423e-004
-1.975638e-003,4.354078e-004
-1.890230e-003,4.444835e-004
-1.706123e-003,4.098015e-004
-1.581495e-003,2.859836e-004
-1.563668e-003,7.173317e-005
-1.591867e-003,-1.925954e-004
-1.585385e-003,-4.496309e-004
-1.508403e-003,-6.575607e-004
-1.367083e-003,-7.972610e-004
-1.192538e-003,-8.753765e-004
-1.024152e-003,-9.111929e-004
-8.867210e-004,-9.257787e-004
-7.651721e-004,-9.333958e-004
-6.107238e-004,-9.377715e-004
-3.877220e-004,-9.335579e-004
-1.000561e-004,-9.171893e-004
2.051129e-004,-8.860728e-004
4.696036e-004,-8.418289e-004
6.697544e-004,-7.922369e-004
8.220959e-004,-7.429690e-004
9.580689e-004,-6.958081e-004
1.098904e-003,-6.415162e-004
1.250597e-003,-5.700454e-004
1.401318e-003,-4.849611e-004
1.537453e-003,-3.959873e-004
1.645065e-003,-3.159271e-004
1.716536e-003,-2.512630e-004
1.753487e-003,-1.974573e-004
1.766290e-003,-1.498101e-004
1.763859e-003,-1.114006e-004
1.753325e-003,-8.854943e-005
1.736146e-003,-8.757704e-005
1.719129e-003,-1.013526e-004
1.710864e-003,-1.183694e-004
1.723667e-003,-1.255003e-004
1.759970e-003,-1.138316e-004
1.812965e-003,-8.206682e-005
1.869202e-003,-3.506788e-005
1.909556e-003,2.149292e-005
1.919604e-003,8.453633e-005
1.895619e-003,1.482280e-004
1.845540e-003,2.140265e-004
1.782659e-003,2.936006e-004
1.703895e-003,3.932708e-004
1.590449e-003,5.089855e-004
1.416390e-003,6.285898e-004
1.142337e-003,7.360392e-004
7.477079e-004,8.222580e-004
2.417397e-004,8.901635e-004
-3.214373e-004,9.420244e-004
-8.309705e-004,9.814063e-004
-1.184111e-003,1.006202e-003
-1.350228e-003,1.005392e-003
-1.393013e-003,9.664963e-004
-1.430450e-003,8.953495e-004
-1.541789e-003,8.162616e-004
-1.723140e-003,7.577559e-004
-1.913405e-003,7.363633e-004
-2.033171e-003,7.532181e-004
-2.042571e-003,7.895208e-004
-1.965914e-003,8.186926e-004
-1.849065e-003,8.148030e-004
-1.694941e-003,7.609973e-004
-1.458487e-003,6.676476e-004
-1.094975e-003,5.621430e-004
-6.021344e-004,4.689553e-004
-3.101625e-005,4.029947e-004
5.208163e-004,3.587509e-004
9.609861e-004,3.179104e-004
1.244115e-003,2.610255e-004
1.361288e-003,1.720516e-004
1.322068e-003,4.693717e-005
1.185447e-003,-1.008664e-004
1.090638e-003,-2.444563e-004
1.205219e-003,-3.536883e-004
1.591745e-003,-4.107352e-004
2.154114e-003,-4.139766e-004
2.718104e-003,-3.794566e-004
3.079836e-003,-3.266234e-004
3.036240e-003,-2.758969e-004
2.512280e-003,-2.370013e-004
1.677640e-003,-2.162569e-004
8.541849e-004,-2.118811e-004
2.741528e-004,-2.188499e-004
-4.625038e-005,-2.308428e-004
-1.908126e-004,-2.434839e-004
-2.172293e-004,-2.564491e-004
-1.293899e-004,-2.711970e-004
6.832980e-005,-2.911311e-004
2.940868e-004,-3.173856e-004
3.336308e-004,-3.483401e-004
-1.180453e-004,-3.825359e-004
-1.239699e-003,-4.154351e-004
-2.782238e-003,-4.463896e-004
-4.163851e-003,-4.676201e-004
-4.801745e-003,-4.694029e-004
-4.399010e-003,-4.561135e-004
-3.110422e-003,-4.373140e-004
-1.459136e-003,-4.256453e-004
-6.715681e-005,-4.319658e-004
6.274553e-004,-4.598410e-004
5.874252e-004,-5.089468e-004
9.685330e-005,-5.698834e-004
-4.538446e-004,-6.244993e-004
-7.912645e-004,-6.515643e-004
-8.478253e-004,-6.288751e-004
-7.126629e-004,-5.484907e-004
-5.390910e-004,-4.206212e-004
-4.465517e-004,-2.681178e-004
-4.810716e-004,-1.073490e-004
-6.168823e-004,5.941620e-005
-7.823510e-004,2.373639e-004
-8.687317e-004,4.260080e-004
-7.724650e-004,6.070351e-004
-4.648651e-004,7.590525e-004
-1.464765e-005,8.671501e-004
4.603659e-004,9.222524e-004
8.579124e-004,9.209559e-004
1.135044e-003,8.739569e-004
1.298569e-003,8.118858e-004
1.375226e-003,7.584042e-004
1.389487e-003,7.122156e-004
1.344109e-003,6.469032e-004
1.206515e-003,5.311884e-004
8.853014e-004,3.561579e-004
2.556773e-004,1.380179e-004
-7.283832e-004,-8.417367e-005
-1.945008e-003,-2.619593e-004
-3.181568e-003,-3.499608e-004
-4.218792e-003,-3.334301e-004
-4.855713e-003,-2.355427e-004
-4.947119e-003,-1.060525e-004
-4.474046e-003,1.079661e-005
-3.580088e-003,9.928428e-005
-2.457297e-003,1.657311e-004
-1.262388e-003,2.205092e-004
-1.139937e-004,2.676702e-004
8.634226e-004,3.052694e-004
1.550905e-003,3.299033e-004
1.899508e-003,3.347652e-004
1.962066e-003,3.169380e-004
1.894322e-003,2.895490e-004
1.874550e-003,2.701012e-004
1.999503e-003,2.741528e-004
2.243736e-003,3.028383e-004
2.495425e-003,3.446512e-004
2.637881e-003,3.722023e-004
2.607737e-003,3.574544e-004
2.436919e-003,2.936006e-004
2.220885e-003,2.004130e-004
2.058495e-003,1.103047e-004
2.007282e-003,4.531652e-005
2.066598e-003,1.306552e-005
2.190092e-003,5.124321e-006
2.301756e-003,9.824215e-006
2.310183e-003,2.230325e-005
2.126725e-003,4.726130e-005
1.692874e-003,7.416415e-005
1.015926e-003,7.157111e-005
1.986303e-004,2.207145e-006
-5.502735e-004,-1.598582e-004
-1.022370e-003,-4.076560e-004
-1.117016e-003,-7.027769e-004
-8.551183e-004,-9.821774e-004
-3.481781e-004,-1.181032e-003
2.615117e-004,-1.262550e-003
8.524022e-004,-1.222844e-003
1.341030e-003,-1.076824e-003
1.666944e-003,-8.475012e-004
1.790924e-003,-5.687489e-004
1.712971e-003,-2.768693e-004
1.490779e-003,-5.479652e-007
1.195819e-003,2.491947e-004
8.846532e-004,4.658761e-004
5.814288e-004,6.389620e-004
2.754493e-004,7.485182e-004
-6.974985e-005,7.846588e-004
-4.805854e-004,7.564594e-004
-9.288579e-004,6.882299e-004
-1.381182e-003,6.097901e-004
-1.862840e-003,5.281092e-004
-2.441090e-003,4.349216e-004
-3.135866e-003,3.208276e-004
-3.870025e-003,1.882582e-004
-4.501111e-003,4.871989e-005
-4.872730e-003,-8.109443e-005
-4.837724e-003,-1.869231e-004
-4.332400e-003,-2.652006e-004
-3.438443e-003,-3.183580e-004
-2.355681e-003,-3.493125e-004
-1.314573e-003,-3.638984e-004
-4.898231e-004,-3.661673e-004
5.325772e-005,-3.638984e-004
3.537269e-004,-3.629260e-004
5.036374e-004,-3.676259e-004
5.973112e-004,-3.765395e-004
6.976296e-004,-3.838324e-004
8.374922e-004,-3.825359e-004
1.013009e-003,-3.692465e-004
1.183178e-003,-3.452609e-004
1.291276e-003,-3.162512e-004
1.296138e-003,-2.885380e-004
1.195981e-003,-2.661730e-004
1.018681e-003,-2.478596e-004
8.152892e-004,-2.293842e-004
6.556547e-004,-2.110708e-004
5.932595e-004,-1.916230e-004
6.392861e-004,-1.689338e-004
7.716935e-004,-1.412206e-004
9.507760e-004,-1.115627e-004
1.142337e-003,-8.158062e-005
1.320934e-003,-4.932962e-005
1.466631e-003,-1.221667e-005
1.563060e-003,2.910999e-005
1.603738e-003,7.610894e-005
1.600173e-003,1.347766e-004
1.568246e-003,2.112714e-004
1.515737e-003,2.986247e-004
1.443293e-003,3.845193e-004
1.336978e-003,4.600418e-004
1.174264e-003,5.203301e-004
9.394314e-004,5.650602e-004
6.441481e-004,5.968250e-004
3.313618e-004,6.208107e-004
4.158902e-005,6.353966e-004
-2.344082e-004,6.290760e-004
-5.518941e-004,5.924492e-004
-9.392301e-004,5.248679e-004
-1.349255e-003,4.308700e-004
-1.685541e-003,3.227724e-004
-1.866892e-003,2.205092e-004
-1.844041e-003,1.425557e-004
-1.597377e-003,9.912221e-005
-1.162718e-003,8.777764e-005
-6.463782e-004,1.010670e-004
-2.183637e-004,1.232699e-004
-2.971972e-005,1.381800e-004
-7.282909e-005,1.338042e-004
-1.737958e-004,1.083599e-004
-1.368449e-004,6.962632e-005
9.328786e-005,2.846173e-005
4.098015e-004,-5.247859e-006
6.582477e-004,-2.809907e-005
7.577559e-004,-4.187462e-005
7.396046e-004,-5.095028e-005
7.114052e-004,-6.067420e-005
7.765555e-004,-7.590833e-005
9.708721e-004,-9.486997e-005
1.249625e-003,-1.118868e-004
1.543450e-003,-1.243659e-004
1.809562e-003,-1.327933e-004
2.017006e-003,-1.384655e-004
2.142445e-003,-1.418689e-004
2.186041e-003,-1.457585e-004
2.168376e-003,-1.512687e-004
2.103387e-003,-1.605064e-004
1.965469e-003,-1.715269e-004
1.691902e-003,-1.844921e-004
1.253352e-003,-1.982676e-004
6.796404e-004,-2.141500e-004
2.473423e-005,-2.332737e-004
-6.604778e-004,-2.533699e-004
-1.348931e-003,-2.718453e-004
-2.012913e-003,-2.883759e-004
-2.601859e-003,-3.074997e-004
-3.063746e-003,-3.313232e-004
-3.414133e-003,-3.577399e-004
-3.769544e-003,-3.833462e-004
-4.277136e-003,-3.979321e-004
-4.968350e-003,-3.878840e-004
-4.968512e-003,-3.480160e-004
-4.968674e-003,-2.859450e-004
-4.968674e-003,-2.130156e-004
-4.968512e-003,-1.413827e-004
-4.711474e-003,-7.931171e-005
-3.490790e-003,-2.955766e-005
-2.307710e-003,8.041497e-006
-1.327863e-003,3.818565e-005
-5.849554e-004,6.427817e-005
-2.307504e-005,8.777764e-005
4.334631e-004,1.099806e-004
8.535367e-004,1.342904e-004
1.277500e-003,1.649207e-004
1.712971e-003,2.109473e-004
2.147793e-003,2.744769e-004
2.558145e-003,3.464339e-004
2.901401e-003,4.067223e-004
3.110953e-003,4.405939e-004
3.114843e-003,4.336251e-004
2.883736e-003,3.767402e-004
2.475653e-003,2.692908e-004
2.007282e-003,1.127357e-004
1.605845e-003,-8.887356e-005
1.377657e-003,-3.340784e-004
1.345892e-003,-6.147755e-004
1.449290e-003,-8.996862e-004
1.593204e-003,-1.141001e-003
1.683799e-003,-1.287022e-003
1.637934e-003,-1.292046e-003
1.413311e-003,-1.136950e-003
1.017061e-003,-8.269189e-004
4.875929e-004,-3.908012e-004
-1.094559e-004,1.244044e-004
-7.027769e-004,6.635960e-004
-1.237430e-003,1.181881e-003
-1.640001e-003,1.645227e-003
-1.817948e-003,2.027540e-003
-1.696724e-003,2.313425e-003
-1.273085e-003,2.487646e-003
-6.295234e-004,2.531404e-003
9.539470e-005,2.436595e-003
7.426839e-004,2.225099e-003
1.207164e-003,1.946345e-003
1.476355e-003,1.650413e-003
1.611517e-003,1.360478e-003
1.722532e-003,1.073946e-003
1.906639e-003,7.775280e-004
2.170645e-003,4.666864e-004
2.425088e-003,1.702689e-004
2.519087e-003,-6.180866e-005
2.278419e-003,-1.924333e-004
1.592070e-003,-2.290601e-004
5.493398e-004,-2.123673e-004
-5.750695e-004,-1.917850e-004
-1.513428e-003,-2.063709e-004
-2.165255e-003,-2.703867e-004
-2.529254e-003,-3.720016e-004
-2.603966e-003,-4.817198e-004
-2.353088e-003,-5.684248e-004
-1.780349e-003,-6.165582e-004
-9.756948e-004,-6.303337e-004
-1.118868e-004,-6.167202e-004
6.125454e-004,-5.799314e-004
1.049474e-003,-5.236948e-004
1.144120e-003,-4.514136e-004
9.293833e-004,-3.656811e-004
5.350781e-004,-2.713591e-004
1.676758e-004,-1.783336e-004
6.744974e-006,-9.649064e-005
9.312580e-005,-3.733679e-005
3.346032e-004,-7.030578e-006
5.939078e-004,-1.358292e-006
7.823899e-004,-8.165035e-006
8.765499e-004,-2.145439e-005
9.032908e-004,-4.706071e-005
9.126905e-004,-9.308726e-005
9.373245e-004,-1.668270e-004
9.689272e-004,-2.718453e-004
9.758961e-004,-3.966356e-004
9.271143e-004,-5.223983e-004
8.092928e-004,-6.288751e-004
6.572754e-004,-7.076389e-004
5.206542e-004,-7.688995e-004
4.329769e-004,-8.304843e-004
4.096394e-004,-9.027654e-004
4.355699e-004,-9.891463e-004
4.640934e-004,-1.083954e-003
4.464283e-004,-1.164177e-003
3.631267e-004,-1.204693e-003
2.537325e-004,-1.191728e-003
1.974959e-004,-1.127550e-003
2.699391e-004,-1.024801e-003
4.947237e-004,-8.951484e-004
8.329543e-004,-7.390795e-004
1.210081e-003,-5.489769e-004
1.547663e-003,-3.222476e-004
1.790276e-003,-6.310517e-005
1.925601e-003,2.151610e-004
1.984269e-003,4.832171e-004
2.005175e-003,7.042743e-004
2.002258e-003,8.561297e-004
1.965631e-003,9.395934e-004
1.879574e-003,9.810822e-004
1.703409e-003,1.010092e-003
1.356264e-003,1.036022e-003
7.767176e-004,1.046881e-003
-2.048200e-005,1.018843e-003
-9.209168e-004,9.321384e-004
-1.750529e-003,7.870898e-004
-2.333965e-003,5.999042e-004
-2.562315e-003,3.981328e-004
-2.467345e-003,2.068957e-004
-2.188592e-003,4.564065e-005
-1.877751e-003,-7.363943e-005
-1.638704e-003,-1.494860e-004
-1.536279e-003,-1.916230e-004
-1.640973e-003,-2.149604e-004
-2.027823e-003,-2.272773e-004
-2.664579e-003,-2.267911e-004
-3.369565e-003,-2.099363e-004
-3.944413e-003,-1.812508e-004
-4.291073e-003,-1.582375e-004
-4.428181e-003,-1.643960e-004
-4.383451e-003,-2.185258e-004
-4.125117e-003,-3.324577e-004
-3.588030e-003,-5.057055e-004
-2.767166e-003,-7.261143e-004
-1.778404e-003,-9.662951e-004
-8.304843e-004,-1.191728e-003
-1.622891e-004,-1.366272e-003
3.186510e-005,-1.453139e-003
-2.668213e-004,-1.430288e-003
-8.319429e-004,-1.298529e-003
-1.331752e-003,-1.082172e-003
-1.539196e-003,-8.090917e-004
-1.404844e-003,-4.997091e-004
-1.018966e-003,-1.736337e-004
-5.423322e-004,1.487142e-004
-1.420310e-004,4.501558e-004
8.810177e-005,7.225877e-004
1.483901e-004,9.595275e-004
1.070634e-004,1.153844e-003
6.249545e-005,1.304241e-003
1.070634e-004,1.416715e-003
2.759355e-004,1.503420e-003
5.373470e-004,1.574080e-003
8.318199e-004,1.628048e-003
1.101659e-003,1.646199e-003
1.321744e-003,1.596931e-003
1.507633e-003,1.457069e-003
1.700654e-003,1.228556e-003
1.899995e-003,9.381349e-004
2.048933e-003,6.232416e-004
2.060116e-003,3.250413e-004
1.884112e-003,7.157111e-005
1.592070e-003,-1.203142e-004
1.336492e-003,-2.441321e-004
1.241522e-003,-3.013411e-004
1.336006e-003,-3.071755e-004
1.560791e-003,-2.789762e-004
1.825606e-003,-2.310048e-004
2.048285e-003,-1.768750e-004
2.168214e-003,-1.305243e-004
2.147307e-003,-1.010285e-004
1.970331e-003,-8.854943e-005
1.673427e-003,-8.984595e-005
1.344595e-003,-1.008664e-004
1.083994e-003,-1.135075e-004
9.400796e-004,-1.255003e-004
9.086389e-004,-1.352242e-004
9.533690e-004,-1.421931e-004
9.690893e-004,-1.447861e-004
7.963275e-004,-1.430034e-004
3.055935e-004,-1.349001e-004
-5.194810e-004,-1.172350e-004
-1.515210e-003,-9.260107e-005
-2.382423e-003,-6.391550e-005
-2.871212e-003,-3.377136e-005
-2.886771e-003,-3.465141e-006
-2.486144e-003,2.473423e-005
-1.824917e-003,4.985435e-005
-1.083630e-003,6.897806e-005
-4.188385e-004,8.016057e-005
7.546067e-005,8.291568e-005
3.816021e-004,8.048470e-005
5.366987e-004,7.497447e-005
5.911527e-004,6.525056e-005
5.900182e-004,4.726130e-005
5.687877e-004,1.776542e-005
5.579292e-004,-2.469570e-005
5.877494e-004,-6.942573e-005
6.681338e-004,-1.081593e-004
7.781762e-004,-1.326312e-004
8.755776e-004,-1.423551e-004
9.204697e-004,-1.421931e-004
8.822222e-004,-1.347380e-004
7.409012e-004,-1.203142e-004
5.013684e-004,-1.058904e-004
2.021958e-004,-9.470791e-005
-7.056019e-005,-8.741498e-005
-2.269532e-004,-7.817725e-005
-2.329496e-004,-6.391550e-005
-1.182074e-004,-4.754691e-005
5.325772e-005,-3.312309e-005
2.206712e-004,-2.420950e-005
3.527545e-004,-2.113026e-005
4.412422e-004,-2.712668e-005
4.963444e-004,-4.203669e-005
5.316747e-004,-6.180866e-005
5.524190e-004,-8.060823e-005
5.566327e-004,-9.065628e-005
5.392918e-004,-8.871149e-005
4.909963e-004,-7.866345e-005
4.094774e-004,-6.796714e-005
2.971661e-004,-6.375344e-005
1.611932e-004,-6.845333e-005
2.230325e-005,-7.833932e-005
-9.438378e-005,-8.530812e-005
-1.724993e-004,-8.465986e-005
-2.066950e-004,-7.817725e-005
-1.997262e-004,-7.477388e-005
-1.520790e-004,-8.077030e-005
-7.201877e-005,-9.373552e-005
2.278944e-005,-1.058904e-004
1.143563e-004,-1.081593e-004
1.919856e-004,-9.875954e-005
2.504913e-004,-8.190475e-005
2.867939e-004,-6.796714e-005
2.866318e-004,-6.375344e-005
2.245608e-004,-6.796714e-005
1.039842e-004,-7.850138e-005
-2.226472e-005,-8.854943e-005
-8.141856e-005,-9.065628e-005
-2.923353e-005,-8.320128e-005
1.338042e-004,-7.072225e-005
3.665301e-004,-5.970181e-005
6.109247e-004,-4.803310e-005
8.099410e-004,-3.117831e-005
9.266282e-004,-1.682422e-006
9.392693e-004,4.466826e-005
8.318199e-004,1.125736e-004
6.118971e-004,1.979821e-004
3.208276e-004,2.858215e-004
6.096713e-006,3.602095e-004
-2.969654e-004,4.054258e-004
-5.629146e-004,4.164462e-004
-7.726270e-004,4.020224e-004
-9.132997e-004,3.734989e-004
-1.001787e-003,3.461098e-004
-1.051541e-003,3.222862e-004
-1.067586e-003,2.987867e-004
-1.109723e-003,2.683184e-004
-1.273247e-003,2.278021e-004
-1.609370e-003,1.843686e-004
-2.084546e-003,1.472556e-004
-2.592298e-003,1.229458e-004
-2.967155e-003,1.124116e-004
-3.007186e-003,1.112771e-004
-2.567339e-003,1.083599e-004
-1.679220e-003,9.636710e-005
-5.629146e-004,7.627100e-005
4.623107e-004,5.909208e-005
1.131479e-003,5.374392e-005
1.395160e-003,6.573675e-005
1.386084e-003,9.588091e-005
1.273611e-003,1.401247e-004
1.141527e-003,1.940925e-004
9.912923e-004,2.419018e-004
8.173960e-004,2.704253e-004
6.365310e-004,2.777182e-004
4.657141e-004,2.632944e-004
3.133726e-004,2.299089e-004
1.718896e-004,1.843686e-004
4.061663e-005,1.339663e-004
-8.222889e-005,8.421220e-005
-2.092881e-004,4.110282e-005
-3.601709e-004,3.827799e-006
-5.450874e-004,-2.728874e-005
-7.484793e-004,-4.657452e-005
-9.217271e-004,-4.754691e-005
-1.002922e-003,-3.231277e-005
-9.541402e-004,-1.043395e-005
-7.889956e-004,5.772582e-006
-5.583767e-004,8.851824e-006
-3.058790e-004,-2.006553e-006
-6.002594e-005,-1.853722e-005
1.636242e-004,-3.231277e-005
3.657197e-004,-4.300908e-005
5.473950e-004,-5.662256e-005
6.974676e-004,-7.477388e-005
7.783383e-004,-9.292520e-005
7.409012e-004,-1.101041e-004
5.600362e-004,-1.279313e-004
2.765838e-004,-1.442999e-004
-1.497178e-005,-1.579134e-004
-2.123673e-004,-1.668270e-004
-2.558008e-004,-1.690959e-004
-1.663408e-004,-1.655305e-004
-2.210265e-005,-1.582375e-004
6.978839e-005,-1.553203e-004
9.106227e-007,-1.598582e-004
-2.771934e-004,-1.700683e-004
-6.844635e-004,-1.810887e-004
-1.052514e-003,-1.909747e-004
-1.208745e-003,-2.011848e-004
-1.057700e-003,-2.102605e-004
-6.185030e-004,-2.159328e-004
-1.059602e-005,-2.157707e-004
5.977973e-004,-2.034537e-004
1.061629e-003,-1.828714e-004
1.293869e-003,-1.621271e-004
1.274097e-003,-1.460826e-004
1.062763e-003,-1.326312e-004
7.728280e-004,-1.196660e-004
5.255162e-004,-1.071869e-004
4.154738e-004,-9.632857e-005
4.694416e-004,-9.211487e-005
6.319932e-004,-9.827335e-005
7.859553e-004,-1.122110e-004
7.810934e-004,-1.277692e-004
5.157923e-004,-1.370070e-004
5.196120e-005,-1.345760e-004
-3.942046e-004,-1.230693e-004
-5.985689e-004,-1.079973e-004
-4.734545e-004,-8.676672e-005
-8.968389e-005,-5.824322e-005
3.955397e-004,-1.902341e-005
8.301992e-004,3.024445e-005
1.125320e-003,9.280167e-005
1.264859e-003,1.673517e-004
1.269559e-003,2.431983e-004
1.170861e-003,3.102934e-004
1.003771e-003,3.663680e-004
8.165857e-004,4.130428e-004
6.600305e-004,4.530729e-004
5.785116e-004,4.942376e-004
5.851563e-004,5.355643e-004
6.402585e-004,5.738117e-004
6.564650e-004,6.018490e-004
5.533914e-004,6.049282e-004
3.245551e-004,5.623050e-004
-2.978945e-006,4.618245e-004
-4.105732e-004,3.000832e-004
-8.586837e-004,9.393612e-005
-1.282160e-003,-1.311726e-004
-1.624442e-003,-3.491504e-004
-1.872078e-003,-5.416840e-004
-2.037547e-003,-7.095836e-004
-2.123604e-003,-8.653284e-004
-2.096053e-003,-1.010539e-003
-1.936256e-003,-1.121716e-003
-1.691051e-003,-1.154939e-003
-1.446333e-003,-1.070827e-003
-1.269357e-003,-8.596561e-004
-1.170659e-003,-5.450874e-004
-1.113612e-003,-1.783336e-004
-1.023504e-003,1.863134e-004
-8.149261e-004,5.217887e-004
-4.191627e-004,8.279303e-004
1.801549e-004,1.111059e-003
9.329488e-004,1.370040e-003
1.745708e-003,1.584777e-003
2.524111e-003,1.721398e-003
3.182424e-003,1.742467e-003
3.635077e-003,1.631614e-003
3.795523e-003,1.409908e-003
3.618384e-003,1.131803e-003
3.172376e-003,8.525642e-004
2.649874e-003,6.037938e-004
2.276636e-003,3.838710e-004
2.168862e-003,1.790204e-004
2.278905e-003,-1.270286e-005
2.465443e-003,-1.737958e-004
2.561872e-003,-2.797865e-004
2.383437e-003,-3.073376e-004
1.804214e-003,-2.499665e-004
8.561297e-004,-1.225832e-004
-2.987481e-004,4.450620e-005
-1.454760e-003,2.102990e-004
-2.502189e-003,3.337929e-004
-3.389661e-003,3.864641e-004
-4.051377e-003,3.587509e-004
-4.433205e-003,2.568118e-004
-4.529797e-003,1.046324e-004
-4.385233e-003,-5.856735e-005
-4.055752e-003,-1.908126e-004
-3.591595e-003,-2.762210e-004
-3.033764e-003,-3.298647e-004
-2.426180e-003,-3.831841e-004
-1.808224e-003,-4.549791e-004
-1.210852e-003,-5.403875e-004
-6.567503e-004,-6.160720e-004
-1.721751e-004,-6.536711e-004
2.279642e-004,-6.332509e-004
5.473950e-004,-5.494631e-004
7.744487e-004,-4.170558e-004
8.637467e-004,-2.671454e-004
7.929241e-004,-1.313347e-004
6.091419e-004,-2.631635e-005
3.952156e-004,4.726130e-005
2.282883e-004,9.701536e-005
1.809652e-004,1.235941e-004
3.060797e-004,1.310491e-004
6.046041e-004,1.326697e-004
9.792994e-004,1.422316e-004
1.280255e-003,1.624898e-004
1.394998e-003,1.757791e-004
1.309103e-003,1.524417e-004
1.093880e-003,6.816773e-005
8.705535e-004,-7.558420e-005
7.875760e-004,-2.476975e-004
9.590413e-004,-4.049009e-004
1.384301e-003,-5.118640e-004
1.901291e-003,-5.551354e-004
2.276798e-003,-5.437909e-004
2.335304e-003,-4.967919e-004
2.053471e-003,-4.361795e-004
1.542153e-003,-3.799429e-004
9.724927e-004,-3.455850e-004
5.093097e-004,-3.395886e-004
2.414156e-004,-3.554710e-004
1.291043e-004,-3.833462e-004
6.233338e-005,-4.146248e-004
-7.104638e-005,-4.433104e-004
-3.595226e-004,-4.645409e-004
-8.037436e-004,-4.763717e-004
-1.296584e-003,-4.742648e-004
-1.722492e-003,-4.553032e-004
-2.023285e-003,-4.211074e-004
-2.190375e-003,-3.754050e-004
-2.216792e-003,-3.279199e-004
-2.072715e-003,-2.827037e-004
-1.726706e-003,-2.429977e-004
-1.203559e-003,-2.049123e-004
-5.975965e-004,-1.660166e-004
-4.187462e-005,-1.258245e-004
3.344411e-004,-8.773911e-005
4.558281e-004,-5.646050e-005
3.493511e-004,-3.279896e-005
1.532520e-004,-1.367526e-005
4.223728e-005,5.934648e-006
1.148425e-004,2.878586e-005
3.465960e-004,5.293359e-005
6.339379e-004,7.335383e-005
8.692570e-004,8.777764e-005
9.874027e-004,9.523264e-005
9.755720e-004,9.685330e-005
8.579124e-004,9.312580e-005
6.665131e-004,8.323981e-005
4.208219e-004,7.027458e-005
1.493625e-004,5.925414e-005
-1.114006e-004,5.115087e-005
-3.334301e-004,4.742337e-005
-4.945230e-004,5.098881e-005
-5.856037e-004,5.974033e-005
-6.308199e-004,6.881599e-005
-6.650157e-004,7.432621e-005
-7.082871e-004,7.643307e-005
-7.515585e-004,7.400208e-005
-7.569068e-004,6.751948e-005
-6.802498e-004,5.893001e-005
-5.055434e-004,4.807163e-005
-2.528836e-004,3.526847e-005
3.672706e-005,2.246531e-005
3.162898e-004,1.209313e-005
5.491778e-004,5.610517e-006
7.177258e-004,5.124321e-006
8.289027e-004,1.160693e-005
9.003736e-004,1.808955e-005
9.533690e-004,2.035846e-005
9.977750e-004,2.019640e-005
1.028081e-003,2.748934e-005
1.028892e-003,4.969229e-005
9.909682e-004,7.870197e-005
9.272764e-004,1.047945e-004
8.720121e-004,1.213252e-004
8.637467e-004,1.156529e-004
9.246834e-004,7.513654e-005
1.034564e-003,-2.816880e-006
1.132451e-003,-1.055663e-004
1.161299e-003,-2.207947e-004
1.107169e-003,-3.441264e-004
9.895095e-004,-4.781544e-004
8.344129e-004,-6.128307e-004
6.721854e-004,-7.217386e-004
5.251921e-004,-7.761925e-004
4.098015e-004,-7.616066e-004
3.457857e-004,-6.721465e-004
3.422202e-004,-5.071641e-004
3.746333e-004,-2.676316e-004
4.078567e-004,4.061663e-005
4.002396e-004,4.034809e-004
2.748010e-004,7.956792e-004
-3.182657e-005,1.184799e-003
-5.410357e-004,1.535347e-003
-1.232893e-003,1.817017e-003
-2.024582e-003,2.021544e-003
-2.757929e-003,2.155248e-003
-3.266653e-003,2.229637e-003
-3.483497e-003,2.257026e-003
-3.446546e-003,2.240981e-003
-3.219492e-003,2.177289e-003
-2.883691e-003,2.051850e-003
-2.535736e-003,1.858182e-003
-2.241587e-003,1.605845e-003
-2.035764e-003,1.311372e-003
-1.927991e-003,9.990715e-004
-1.909191e-003,6.987641e-004
-1.957163e-003,4.383250e-004
-2.018909e-003,2.373639e-004
-2.030416e-003,9.555677e-005
-1.941766e-003,3.665733e-006
-1.730109e-003,-5.402952e-005
-1.404844e-003,-8.984595e-005
-9.930359e-004,-1.139937e-004
-5.420081e-004,-1.326312e-004
-1.264727e-004,-1.473791e-004
1.568175e-004,-1.582375e-004
2.537325e-004,-1.669890e-004
1.934442e-004,-1.768750e-004
7.092284e-005,-1.921092e-004
-1.844488e-006,-2.135018e-004
6.200925e-005,-2.404046e-004
2.892249e-004,-2.731418e-004
6.425274e-004,-3.078238e-004
1.044126e-003,-3.428299e-004
1.420604e-003,-3.779981e-004
1.728043e-003,-4.112214e-004
1.953962e-003,-4.441207e-004
2.109222e-003,-4.755614e-004
2.220399e-003,-5.048952e-004
2.324769e-003,-5.319601e-004
2.457177e-003,-5.561078e-004
2.631885e-003,-5.800935e-004
2.822799e-003,-6.026206e-004
2.978707e-003,-6.194753e-004
3.042723e-003,-6.303337e-004
2.968334e-003,-6.332509e-004
2.724911e-003,-6.272545e-004
2.326714e-003,-6.113721e-004
1.854292e-003,-5.906277e-004
1.466793e-003,-5.728005e-004
1.313803e-003,-5.595111e-004
1.442645e-003,-5.468701e-004
1.793193e-003,-5.355255e-004
2.263509e-003,-5.267740e-004
2.740145e-003,-5.198052e-004
3.101391e-003,-5.144570e-004
3.244820e-003,-5.117019e-004
3.115167e-003,-5.052193e-004
2.738200e-003,-4.854474e-004
2.226395e-003,-4.462276e-004
1.740684e-003,-3.909633e-004
1.387219e-003,-3.327818e-004
1.133424e-003,-2.836761e-004
8.327923e-004,-2.489941e-004
3.687990e-004,-2.288980e-004
-2.350565e-004,-2.198223e-004
-8.669490e-004,-2.120432e-004
-1.426723e-003,-2.005366e-004
-1.903519e-003,-1.861127e-004
-2.444007e-003,-1.721751e-004
-3.222733e-003,-1.566169e-004
-4.176168e-003,-1.355484e-004
-4.968512e-003,-1.054042e-004
-4.968512e-003,-6.715681e-005
-4.968674e-003,-2.469570e-005
-4.968512e-003,1.987227e-005
-4.968350e-003,6.119892e-005
-4.968512e-003,9.231547e-005
-4.968674e-003,1.128978e-004
-4.968512e-003,1.261871e-004
-4.588951e-003,1.308870e-004
-3.510886e-003,1.250527e-004
-2.252122e-003,1.056048e-004
-1.061752e-003,7.157111e-005
-1.118868e-004,2.603075e-005
5.379952e-004,-2.372331e-005
9.297074e-004,-6.910160e-005
1.154330e-003,-1.021629e-004
1.291924e-003,-1.219349e-004
1.392080e-003,-1.318209e-004
1.458852e-003,-1.363587e-004
1.474896e-003,-1.451102e-004
1.450910e-003,-1.660166e-004
1.431625e-003,-2.034537e-004
1.466469e-003,-2.485079e-004
1.576835e-003,-2.799486e-004
1.737280e-003,-2.775176e-004
1.889622e-003,-2.345703e-004
1.983134e-003,-1.574272e-004
1.992696e-003,-5.840528e-005
1.912960e-003,5.179914e-005
1.748139e-003,1.662173e-004
1.522219e-003,2.825802e-004
1.278310e-003,3.961880e-004
1.062115e-003,5.015305e-004
9.156077e-004,5.817529e-004
8.818981e-004,6.078454e-004
9.698996e-004,5.569569e-004
1.081401e-003,4.336251e-004
1.046233e-003,2.686426e-004
7.349047e-004,1.034980e-004
1.231079e-004,-2.518189e-005
-6.713362e-004,-9.843541e-005
-1.375186e-003,-1.139937e-004
-1.697372e-003,-8.482193e-005
-1.497221e-003,-2.809907e-005
-8.643559e-004,4.142696e-005
-5.289507e-005,1.185701e-004
6.613270e-004,2.031682e-004
1.111707e-003,2.903593e-004
1.276690e-003,3.678266e-004
1.224829e-003,4.239012e-004
1.052715e-003,4.511282e-004
8.418679e-004,4.399457e-004
6.506307e-004,3.785229e-004
5.159543e-004,2.598910e-004
4.475628e-004,8.923623e-005
4.243874e-004,-1.167488e-004
4.101256e-004,-3.309991e-004
3.623164e-004,-5.240189e-004
2.464396e-004,-6.655019e-004
4.677511e-005,-7.436173e-004
-2.081536e-004,-7.622549e-004
-4.554653e-004,-7.248178e-004
-6.183409e-004,-6.243373e-004
-6.476747e-004,-4.535205e-004
-5.458977e-004,-2.217671e-004
-3.541745e-004,4.531652e-005
-1.397621e-004,3.180725e-004
3.721326e-005,5.739738e-004
1.428799e-004,7.958413e-004
1.806411e-004,9.762202e-004
1.746447e-004,1.122079e-003
1.564933e-004,1.251570e-003
1.498487e-004,1.378629e-003
1.769136e-004,1.497423e-003
2.654013e-004,1.577808e-003
4.375147e-004,1.576835e-003
6.924436e-004,1.469062e-003
9.950198e-004,1.259835e-003
1.277176e-003,9.893475e-004
1.447669e-003,7.081639e-004
1.416715e-003,4.584211e-004
1.126131e-003,2.628082e-004
5.817529e-004,1.250527e-004
-1.099421e-004,3.640293e-005
-7.484793e-004,-1.740276e-005
-1.154453e-003,-5.111234e-005
-1.277460e-003,-7.120844e-005
-1.167256e-003,-8.141856e-005
-9.165410e-004,-8.352541e-005
-6.168823e-004,-7.574627e-005
-3.585502e-004,-6.472583e-005
-2.256567e-004,-6.359137e-005
-2.695764e-004,-8.725291e-005
-4.603272e-004,-1.361966e-004
-6.961322e-004,-1.971332e-004
-8.928794e-004,-2.507768e-004
-1.035659e-003,-2.784900e-004
-1.159153e-003,-2.749245e-004
-1.297557e-003,-2.491561e-004
-1.441146e-003,-2.141500e-004
-1.552323e-003,-1.784957e-004
-1.605319e-003,-1.457585e-004
-1.599808e-003,-1.173971e-004
-1.544058e-003,-9.503204e-005
-1.455894e-003,-8.222889e-005
-1.348121e-003,-7.590833e-005
-1.218955e-003,-6.796714e-005
-1.041493e-003,-5.581224e-005
-7.868888e-004,-4.057810e-005
-4.593548e-004,-2.518189e-005
-9.243900e-005,-1.724069e-005
2.673460e-004,-2.858527e-005
5.958526e-004,-7.137051e-005
8.909738e-004,-1.444620e-004
1.157734e-003,-2.382978e-004
1.397753e-003,-3.344025e-004
1.597904e-003,-4.113835e-004
1.725288e-003,-4.523860e-004
1.753163e-003,-4.572480e-004
1.682664e-003,-4.509274e-004
1.550743e-003,-4.614617e-004
1.431300e-003,-5.035987e-004
1.393377e-003,-5.742591e-004
1.452207e-003,-6.655019e-004
1.524650e-003,-7.664686e-004
1.457879e-003,-8.763488e-004
1.140555e-003,-9.839601e-004
6.201624e-004,-1.075527e-003
9.490851e-005,-1.128522e-003
-2.186879e-004,-1.120905e-003
-2.292221e-004,-1.041007e-003
-6.382317e-006,-8.896381e-004
2.780424e-004,-6.792775e-004
4.569625e-004,-4.342347e-004
4.694416e-004,-1.864369e-004
3.752816e-004,3.478228e-005
2.830664e-004,2.088404e-004
2.684805e-004,3.294171e-004
3.564820e-004,3.973225e-004
5.360505e-004,4.221185e-004
7.828761e-004,4.157979e-004
1.064708e-003,3.979707e-004
1.336330e-003,3.934329e-004
1.506013e-003,4.240633e-004
1.444590e-003,4.817585e-004
1.062601e-003,5.285954e-004
3.687990e-004,5.213025e-004
-5.381186e-004,4.475628e-004
-1.526717e-003,3.326584e-004
-2.476907e-003,2.208333e-004
-3.232619e-003,1.488763e-004
-3.609747e-003,1.307250e-004
-3.503107e-003,1.516314e-004
-2.961969e-003,1.822617e-004
-2.168334e-003,1.955511e-004
-1.366758e-003,1.772377e-004
-7.919128e-004,1.297526e-004
-5.685869e-004,6.460230e-005
-6.716604e-004,-4.275467e-006
-9.760190e-004,-6.164659e-005
-1.320732e-003,-9.908367e-005
-1.565613e-003,-1.102662e-004
-1.620715e-003,-9.649064e-005
-1.463187e-003,-6.083626e-005
-1.131115e-003,-1.416145e-005
-7.045596e-004,3.299956e-005
-2.775176e-004,6.946425e-005
6.152305e-005,9.280167e-005
2.359054e-004,1.078737e-004
2.281262e-004,1.163011e-004
1.036600e-004,1.161391e-004
-3.571614e-005,1.104668e-004
-1.049180e-004,1.022015e-004
-6.829127e-005,9.507057e-005
5.893001e-005,9.377406e-005
2.192126e-004,9.928428e-005
3.615060e-004,1.094944e-004
4.717105e-004,1.219734e-004
5.611706e-004,1.334801e-004
6.490100e-004,1.435281e-004
7.538663e-004,1.526038e-004
8.783326e-004,1.652449e-004
1.018519e-003,1.822617e-004
1.162434e-003,2.015475e-004
1.262266e-003,2.159713e-004
1.234715e-003,2.276400e-004
1.027919e-003,2.367157e-004
6.851507e-004,2.422259e-004
3.402755e-004,2.453052e-004
1.472556e-004,2.482223e-004
1.877720e-004,2.513016e-004
4.334631e-004,2.519498e-004
7.786624e-004,2.440086e-004
1.100687e-003,2.308813e-004
1.324175e-003,2.159713e-004
1.425304e-003,2.034923e-004
1.407963e-003,1.913374e-004
1.297596e-003,1.783722e-004
1.117379e-003,1.636242e-004
8.856256e-004,1.474177e-004
6.274553e-004,1.284560e-004
3.660439e-004,1.081979e-004
1.122495e-004,8.631905e-005
-1.302002e-004,6.249545e-005
-3.566054e-004,3.915804e-005
-5.480045e-004,1.873781e-005
-6.619364e-004,-1.034161e-006
-6.535091e-004,-2.064406e-005
-5.032745e-004,-3.895745e-005
-2.235498e-004,-5.727083e-005
1.506590e-004,-7.444975e-005
5.670050e-004,-8.725291e-005
9.674687e-004,-9.665270e-005
1.303268e-003,-1.052422e-004
1.547502e-003,-1.159385e-004
1.687364e-003,-1.259865e-004
1.699843e-003,-1.358725e-004
1.554957e-003,-1.452723e-004
1.245087e-003,-1.509446e-004
8.143168e-004,-1.415448e-004
3.441650e-004,-1.144799e-004
-7.882551e-005,-7.898758e-005
-3.938804e-004,-5.208474e-005
-5.820383e-004,-4.625038e-005
-6.439472e-004,-6.051213e-005
-6.134789e-004,-8.644259e-005
-5.859278e-004,-1.185315e-004
-6.953219e-004,-1.528894e-004
-1.033390e-003,-1.956746e-004
-1.572257e-003,-2.575835e-004
-2.175951e-003,-3.402368e-004
-2.695209e-003,-4.292107e-004
-3.023392e-003,-4.972781e-004
-3.109125e-003,-5.220741e-004
-2.952569e-003,-4.985746e-004
-2.582087e-003,-4.400691e-004
-2.037061e-003,-3.643846e-004
-1.363355e-003,-2.862691e-004
-6.186650e-004,-2.071812e-004
1.226217e-004,-1.290658e-004
7.807693e-004,-4.997789e-005
1.303431e-003,3.591673e-005
1.674885e-003,1.227837e-004
1.899670e-003,1.970097e-004
1.989617e-003,2.419018e-004
1.969845e-003,2.457913e-004
1.887840e-003,2.096508e-004
1.792869e-003,1.438522e-004
1.680233e-003,6.768154e-005
1.464200e-003,6.258778e-006
1.063087e-003,-2.096820e-005
5.052580e-004,-1.497178e-005
-7.347736e-005,1.436204e-005
-5.159156e-004,5.828175e-005
-6.846256e-004,1.146805e-004
-4.805854e-004,1.895547e-004
9.426025e-005,2.876042e-004
8.882187e-004,4.106118e-004
1.672778e-003,5.516087e-004
2.239036e-003,6.955228e-004
2.444698e-003,8.266338e-004
2.247788e-003,9.326246e-004
1.727719e-003,1.011226e-003
1.066977e-003,1.069408e-003
4.521006e-004,1.118352e-003
9.662150e-006,1.156113e-003
-1.872472e-004,1.171833e-003
-1.478653e-004,1.148334e-003
1.014835e-005,1.070542e-003
6.832980e-005,9.365142e-004
-2.126914e-004,7.540284e-004
-9.295062e-004,5.451261e-004
-1.899791e-003,3.415720e-004
-2.761980e-003,1.701068e-004
-3.214792e-003,4.596478e-005
-3.154828e-003,-2.712668e-005
-2.702988e-003,-5.937768e-005
-2.112908e-003,-6.667062e-005
-1.640163e-003,-7.137051e-005
-1.432233e-003,-8.773911e-005
-1.465132e-003,-1.183694e-004
-1.613260e-003,-1.528894e-004
-1.757498e-003,-1.885437e-004
-1.844527e-003,-2.274394e-004
-1.879209e-003,-2.741142e-004
-1.893633e-003,-3.274337e-004
-1.954407e-003,-3.854531e-004
-2.120363e-003,-4.504412e-004
-2.350657e-003,-5.292050e-004
-2.481282e-003,-6.266062e-004
-2.319865e-003,-7.394037e-004
-1.774839e-003,-8.632215e-004
-9.207547e-004,-9.859049e-004
5.131294e-005,-1.085899e-003
9.269523e-004,-1.142136e-003
1.555281e-003,-1.147646e-003
1.889298e-003,-1.111019e-003
1.965955e-003,-1.044248e-003
1.879412e-003,-9.591642e-004
1.736956e-003,-8.594940e-004
1.616379e-003,-7.483172e-004
1.554632e-003,-6.266062e-004
1.541829e-003,-4.988988e-004
1.551715e-003,-3.770257e-004
1.557550e-003,-2.786520e-004
1.537940e-003,-2.182017e-004
1.483648e-003,-1.977815e-004
1.398725e-003,-1.985918e-004
1.313641e-003,-1.872472e-004
1.283334e-003,-1.357104e-004
1.356588e-003,-3.296103e-005
1.526757e-003,9.863601e-005
1.731446e-003,2.151610e-004
1.883788e-003,2.686426e-004
1.929653e-003,2.399570e-004
1.854292e-003,1.482280e-004
1.673751e-003,4.126489e-005
1.421576e-003,-3.231277e-005
1.135855e-003,-3.620233e-005
8.371680e-004,3.624086e-005
5.384815e-004,1.673517e-004
2.589186e-004,3.252034e-004
2.684107e-005,4.785172e-004
-1.402483e-004,6.076833e-004
-2.421874e-004,7.055709e-004
-2.852967e-004,7.763935e-004
-2.833519e-004,8.365198e-004
-2.695764e-004,9.028045e-004
-3.010170e-004,9.859442e-004
-4.259694e-004,1.070542e-003
-6.497815e-004,1.118352e-003
-9.345302e-004,1.092583e-003
-1.205666e-003,9.797857e-004
-1.368055e-003,7.966516e-004
-1.346014e-003,5.835356e-004
-1.113288e-003,3.825745e-004
-6.990494e-004,2.166196e-004
-1.822232e-004,8.405014e-005
3.388169e-004,-2.761287e-005
7.833623e-004,-1.251762e-004
1.115921e-003,-2.029675e-004
1.334385e-003,-2.465631e-004
1.451559e-003,-2.543422e-004
1.495965e-003,-2.355427e-004
1.497099e-003,-2.058847e-004
1.476192e-003,-1.716889e-004
1.432597e-003,-1.298761e-004
1.343461e-003,-7.574627e-005
1.181395e-003,-8.165035e-006
9.541793e-004,7.302970e-005
7.075156e-004,1.611932e-004
4.992616e-004,2.410915e-004
3.611819e-004,3.025142e-004
2.710735e-004,3.485408e-004
1.722137e-004,3.885709e-004
4.800190e-006,4.320045e-004
-2.499665e-004,4.712243e-004
-5.728005e-004,4.833792e-004
-9.312889e-004,4.425387e-004
-1.271302e-003,3.242310e-004
-1.528013e-003,1.216493e-004
-1.642107e-003,-1.404103e-004
-1.579388e-003,-4.115456e-004
-1.342773e-003,-6.355198e-004
-9.927117e-004,-7.760304e-004
-6.439472e-004,-8.293499e-004
-4.258073e-004,-8.144398e-004
-3.922598e-004,-7.515585e-004
-4.878783e-004,-6.484850e-004
-5.802555e-004,-5.099192e-004
-5.436288e-004,-3.496366e-004
-3.389403e-004,-1.943781e-004
-4.462973e-005,-7.007399e-005
1.924718e-004,5.772582e-006
2.451431e-004,2.214118e-005
6.622294e-005,-2.907146e-005
-3.021515e-004,-1.439758e-004
-7.680892e-004,-3.152788e-004
-1.234027e-003,-5.317981e-004
-1.633518e-003,-7.753822e-004
-1.939497e-003,-1.021235e-003
-2.151965e-003,-1.246506e-003
-2.274811e-003,-1.441633e-003
-2.301390e-003,-1.599646e-003
-2.222140e-003,-1.693158e-003
-2.054402e-003,-1.687162e-003
-1.826700e-003,-1.545354e-003
-1.560589e-003,-1.248289e-003
-1.259309e-003,-8.191398e-004
-9.045482e-004,-3.073376e-004
-4.668098e-004,2.273159e-004
7.659513e-005,7.206430e-004
7.125397e-004,1.134720e-003
1.390622e-003,1.462417e-003
2.039209e-003,1.720264e-003
2.577755e-003,1.926249e-003
2.949211e-003,2.079402e-003
3.128456e-003,2.150062e-003
3.113060e-003,2.098201e-003
2.908208e-003,1.907936e-003
2.512766e-003,1.608600e-003
1.955259e-003,1.274907e-003
1.332927e-003,9.955061e-004
7.713694e-004,8.190167e-004
3.778746e-004,7.266394e-004
2.211574e-004,6.597064e-004
3.164518e-004,5.660325e-004
6.326414e-004,4.310321e-004
1.095176e-003,2.739907e-004
1.613300e-003,1.237561e-004
2.080698e-003,5.448452e-006
2.398023e-003,-6.910160e-005
2.519249e-003,-1.024871e-004
2.414554e-003,-1.052422e-004
2.077295e-003,-9.438378e-005
1.559170e-003,-8.352541e-005
9.206317e-004,-8.093236e-005
2.245608e-004,-8.773911e-005
-4.070078e-004,-1.015147e-004
-8.180053e-004,-1.172350e-004
-9.546264e-004,-1.298761e-004
-9.235098e-004,-1.357104e-004
-8.977414e-004,-1.386276e-004
-1.000977e-003,-1.457585e-004
-1.287833e-003,-1.639098e-004
-1.716495e-003,-1.909747e-004
-2.148400e-003,-2.245222e-004
-2.468803e-003,-2.666592e-004
-2.736698e-003,-3.198166e-004
-3.135380e-003,-3.864254e-004
-3.782833e-003,-4.611376e-004
-4.604024e-003,-5.319601e-004
-4.968512e-003,-5.869002e-004
-4.968512e-003,-6.193133e-004
-4.968512e-003,-6.230408e-004
-4.627037e-003,-6.000275e-004
-3.353520e-003,-5.505976e-004
-1.972883e-003,-4.726442e-004
-7.902921e-004,-3.684362e-004
-1.399939e-005,-2.464010e-004
2.547049e-004,-1.250141e-004
-5.479652e-007,-2.534396e-005
-6.689052e-004,3.786152e-005
-1.461567e-003,6.200925e-005
-2.012103e-003,5.730935e-005
-2.056347e-003,3.705119e-005
-1.544058e-003,1.095867e-005
-6.457299e-004,-2.275091e-005
3.615060e-004,-7.039812e-005
1.221749e-003,-1.402483e-004
1.813451e-003,-2.280877e-004
2.137259e-003,-3.199787e-004
2.267074e-003,-3.945287e-004
2.299487e-003,-4.293727e-004
2.310345e-003,-4.167317e-004
2.341300e-003,-3.593606e-004
2.402399e-003,-2.778417e-004
2.474681e-003,-2.005366e-004
2.527514e-003,-1.543479e-004
2.535131e-003,-1.489998e-004
2.497370e-003,-1.765509e-004
2.429788e-003,-2.211189e-004
2.344704e-003,-2.640662e-004
2.249733e-003,-2.916173e-004
2.156059e-003,-2.974516e-004
2.072270e-003,-2.867553e-004
1.995127e-003,-2.705488e-004
1.911987e-003,-2.549905e-004
1.811669e-003,-2.374874e-004
1.690930e-003,-2.118811e-004
1.554794e-003,-1.720131e-004
1.414932e-003,-1.157764e-004
1.288196e-003,-4.592625e-005
1.184150e-003,3.526847e-005
1.100687e-003,1.234320e-004
1.026785e-003,2.120818e-004
9.468864e-004,2.931144e-004
8.477023e-004,3.572923e-004
7.264773e-004,4.059119e-004
5.939078e-004,4.488593e-004
4.697657e-004,4.966686e-004
3.597233e-004,5.469088e-004
2.649151e-004,5.882355e-004
1.845306e-004,6.065489e-004
1.130598e-004,5.945560e-004
4.726130e-005,5.632775e-004
-1.351319e-005,5.243817e-004
-7.153257e-005,4.924549e-004
-1.263107e-004,4.728449e-004
-1.794681e-004,4.631210e-004
-2.355427e-004,4.593935e-004
-2.995585e-004,4.590694e-004
-3.645466e-004,4.545315e-004
-4.211074e-004,4.378388e-004
-4.596790e-004,4.109360e-004
-4.766958e-004,3.807918e-004
-4.719959e-004,3.556717e-004
-4.556273e-004,3.381686e-004
-4.390967e-004,3.253654e-004
-4.314796e-004,3.112658e-004
-4.381243e-004,2.942489e-004
-4.577342e-004,2.743149e-004
-4.757234e-004,2.511395e-004
-4.583824e-004,2.255332e-004
-3.788084e-004,2.000889e-004
-2.327876e-004,1.756171e-004
-3.166451e-005,1.526038e-004
1.994406e-004,1.308870e-004
4.333010e-004,1.091703e-004
6.486859e-004,8.712937e-005
8.267959e-004,6.460230e-005
9.475346e-004,3.980630e-005
9.888613e-004,1.176900e-005
9.207938e-004,-1.480971e-005
7.128638e-004,-3.863332e-005
3.501615e-004,-5.840528e-005
-1.493239e-004,-7.477388e-005
-7.162283e-004,-8.676672e-005
-1.260606e-003,-9.065628e-005
-1.712606e-003,-8.709085e-005
-2.024096e-003,-8.093236e-005
-2.161851e-003,-7.785312e-005
-2.110315e-003,-7.866345e-005
-1.892498e-003,-8.547019e-005
-1.561561e-003,-1.015147e-004
-1.184435e-003,-1.274451e-004
-8.243258e-004,-1.601823e-004
-5.387668e-004,-2.011848e-004
-3.595226e-004,-2.558008e-004
-2.728177e-004,-3.290543e-004
-2.318152e-004,-4.193247e-004
-1.958367e-004,-5.180225e-004
-1.571031e-004,-6.116962e-004
-1.271210e-004,-6.870566e-004
-1.230693e-004,-7.342176e-004
-1.431655e-004,-7.497758e-004
-1.583996e-004,-7.306521e-004
-1.496481e-004,-6.787913e-004
-1.067007e-004,-5.963000e-004
6.907040e-006,-4.920920e-004
2.333123e-004,-3.823738e-004
5.499881e-004,-2.778417e-004
8.146409e-004,-1.836818e-004
8.261476e-004,-9.730096e-005
4.781931e-004,-1.302700e-005
-1.536997e-004,7.416415e-005
-8.627353e-004,1.717275e-004
-1.453950e-003,2.848491e-004
-1.829941e-003,4.156358e-004
-1.990224e-003,5.606844e-004
-1.984714e-003,7.115673e-004
-1.862516e-003,8.590469e-004
-1.657504e-003,9.890234e-004
-1.399496e-003,1.080266e-003
-1.121229e-003,1.104252e-003
-8.340498e-004,1.042505e-003
-4.985746e-004,8.992391e-004
-7.282909e-005,7.062191e-004
4.239012e-004,5.067165e-004
9.206317e-004,3.336308e-004
1.298569e-003,2.034923e-004
1.398239e-003,1.177597e-004
1.069084e-003,6.330578e-005
2.854973e-004,2.667901e-005
-7.582033e-004,9.106227e-007
-1.692024e-003,-1.367526e-005
-2.168658e-003,-1.707863e-005
-2.004324e-003,-1.367526e-005
-1.270005e-003,-8.813297e-006
-2.857829e-004,-8.813297e-006
5.428572e-004,-1.724069e-005
9.528828e-004,-3.458168e-005
9.248455e-004,-5.759496e-005
6.187038e-004,-7.590833e-005
3.013798e-004,-8.271508e-005
2.149989e-004,-7.396356e-005
4.352458e-004,-5.030202e-005
8.358715e-004,-1.626830e-005
1.206839e-003,2.878586e-005
1.383005e-003,8.307774e-005
1.287872e-003,1.423936e-004
9.587171e-004,1.986303e-004
5.281092e-004,2.435224e-004
1.496866e-004,2.655633e-004
-5.516398e-005,2.584324e-004
-1.513384e-005,2.222919e-004
2.692908e-004,1.618415e-004
7.011951e-004,8.469840e-005
1.133748e-003,3.827799e-006
1.444752e-003,-7.558420e-005
1.561601e-003,-1.459206e-004
1.459176e-003,-2.081536e-004
1.178154e-003,-2.582318e-004
8.350612e-004,-2.945344e-004
5.791598e-004,-3.147926e-004
5.089855e-004,-3.133340e-004
6.225934e-004,-2.911311e-004
8.214476e-004,-2.587180e-004
9.796236e-004,-2.308428e-004
1.006040e-003,-2.185258e-004
8.690950e-004,-2.198223e-004
6.005525e-004,-2.300324e-004
2.759355e-004,-2.441321e-004
-4.495386e-005,-2.582318e-004
-3.449367e-004,-2.705488e-004
-6.254718e-004,-2.825416e-004
-8.447461e-004,-2.956689e-004
-9.204306e-004,-3.099306e-004
-7.807303e-004,-3.251648e-004
-4.180282e-004,-3.382920e-004
9.685330e-005,-3.421817e-004
6.405826e-004,-3.335922e-004
1.093556e-003,-3.175477e-004
1.384139e-003,-3.013411e-004
1.518330e-003,-2.942103e-004
1.552525e-003,-2.968033e-004
1.560143e-003,-3.026377e-004
1.592070e-003,-3.079858e-004
1.662406e-003,-3.109030e-004
1.748301e-003,-3.081479e-004
1.813776e-003,-2.963172e-004
1.812965e-003,-2.747625e-004
1.711674e-003,-2.489941e-004
1.507471e-003,-2.225774e-004
1.238118e-003,-1.929195e-004
9.671446e-004,-1.606685e-004
6.882299e-004,-1.292278e-004
2.806354e-004,-1.021629e-004
-3.689224e-004,-8.255302e-005
-1.194807e-003,-7.137051e-005
-1.974017e-003,-6.504996e-005
-2.525364e-003,-6.359137e-005
-2.859219e-003,-7.039812e-005
-3.122414e-003,-8.676672e-005
-3.447194e-003,-1.128592e-004
-3.853980e-003,-1.410586e-004
-4.227705e-003,-1.575893e-004
-4.374861e-003,-1.525652e-004
-4.130303e-003,-1.209625e-004
-3.460646e-003,-6.829127e-005
-2.497003e-003,-8.327101e-006
-1.470804e-003,4.612685e-005
-6.005137e-004,8.631905e-005
-3.627206e-006,1.166253e-004
3.261758e-004,1.503349e-004
4.780310e-004,1.971717e-004
5.601982e-004,2.569738e-004
6.528996e-004,3.209897e-004
7.836864e-004,3.843572e-004
9.310039e-004,4.509661e-004
1.037319e-003,5.266506e-004
1.041371e-003,6.122212e-004
9.229007e-004,7.028158e-004
7.279359e-004,7.872519e-004
5.378332e-004,8.524022e-004
4.217943e-004,8.882187e-004
4.281149e-004,8.909738e-004
5.697600e-004,8.665019e-004
7.994067e-004,8.276062e-004
1.025812e-003,7.909794e-004
1.148982e-003,7.697488e-004
1.102307e-003,7.700729e-004
9.162560e-004,7.859553e-004
7.216153e-004,8.037825e-004
6.616511e-004,8.034584e-004
7.981102e-004,7.661834e-004
1.074432e-003,6.853127e-004
1.358047e-003,5.657084e-004
1.506175e-003,4.255218e-004
1.425466e-003,2.871180e-004
1.102307e-003,1.569795e-004
6.136798e-004,3.510641e-005
9.215340e-005,-8.352541e-005
-3.489884e-004,-2.021572e-004
-6.612882e-004,-3.207890e-004
-8.431255e-004,-4.365036e-004
-9.035757e-004,-5.352014e-004
-8.570630e-004,-5.982448e-004
-7.261143e-004,-6.227166e-004
-5.433047e-004,-6.142893e-004
-3.585502e-004,-5.847933e-004
-2.235498e-004,-5.411978e-004
-1.802784e-004,-4.873921e-004
-2.468872e-004,-4.238625e-004
-4.061974e-004,-3.523917e-004
-6.099135e-004,-2.807589e-004
-7.834854e-004,-2.139880e-004
-8.637077e-004,-1.457585e-004
-8.178432e-004,-7.072225e-005
-6.578848e-004,7.231170e-006
-4.439586e-004,7.902610e-005
-2.523975e-004,1.438522e-004
-1.225832e-004,2.106232e-004
-4.414354e-005,2.853353e-004
2.846173e-005,3.551855e-004
1.678379e-004,3.927847e-004
4.273046e-004,3.786850e-004
7.738004e-004,3.151553e-004
1.106845e-003,2.260194e-004
1.319799e-003,1.370455e-004
1.348323e-003,7.011252e-005
1.202302e-003,4.158902e-005
9.763823e-004,6.136099e-005
8.039447e-004,1.252147e-004
7.603490e-004,1.987924e-004
7.880622e-004,2.346088e-004
7.357151e-004,1.910133e-004
4.815964e-004,6.217132e-005
3.494434e-005,-1.240417e-004
-4.556273e-004,-3.185201e-004
-7.898060e-004,-4.770200e-004
-8.334015e-004,-5.736109e-004
-5.823624e-004,-6.042412e-004
-1.357104e-004,-5.826865e-004
3.691231e-004,-5.334187e-004
8.054032e-004,-4.841508e-004
1.086587e-003,-4.574101e-004
1.174751e-003,-4.574101e-004
1.069732e-003,-4.755614e-004
7.819037e-004,-4.943609e-004
3.252034e-004,-4.985746e-004
-2.428356e-004,-4.851232e-004
-8.029332e-004,-4.593548e-004
-1.237268e-003,-4.261314e-004
-1.477449e-003,-3.885323e-004
-1.526069e-003,-3.420196e-004
-1.432881e-003,-2.831898e-004
-1.260282e-003,-2.146363e-004
-1.056565e-003,-1.459206e-004
-8.439358e-004,-8.206682e-005
-6.280648e-004,-2.453363e-005
-4.172179e-004,2.878586e-005
-2.298704e-004,7.805372e-005
-8.822530e-005,1.244044e-004
-6.382317e-006,1.691344e-004
2.603075e-005,2.171058e-004
3.413401e-005,2.696149e-004
4.450620e-005,3.226103e-004
8.323981e-005,3.752816e-004
1.765894e-004,4.295735e-004
3.295791e-004,4.832171e-004
5.101200e-004,5.305402e-004
6.666752e-004,5.648981e-004
7.592146e-004,5.749461e-004
7.786624e-004,5.519328e-004
7.441425e-004,5.000719e-004
6.888782e-004,4.292493e-004
6.574374e-004,3.555096e-004
7.005468e-004,2.974902e-004
8.485126e-004,2.647530e-004
1.078970e-003,2.550291e-004
1.329361e-003,2.628082e-004
1.520274e-003,2.785285e-004
1.585587e-003,2.947351e-004
1.471979e-003,3.031625e-004
1.146389e-003,2.955454e-004
6.122212e-004,2.668598e-004
-5.419158e-005,2.180782e-004
-7.027769e-004,1.543865e-004
-1.186866e-003,8.405014e-005
-1.445360e-003,1.906194e-005
-1.512779e-003,-4.284701e-005
-1.475991e-003,-1.120489e-004
-1.413919e-003,-1.998883e-004
-1.352010e-003,-3.121996e-004
-1.276974e-003,-4.496309e-004
-1.176332e-003,-6.105618e-004
-1.051703e-003,-7.920748e-004
-9.107067e-004,-9.833119e-004
-7.659824e-004,-1.157694e-003
-6.279027e-004,-1.278109e-003
-5.086227e-004,-1.313277e-003
-4.167317e-004,-1.253961e-003
-3.438023e-004,-1.110857e-003
-2.715212e-004,-9.021172e-004
-1.781716e-004,-6.426507e-004
-4.981582e-005,-3.467195e-004
1.085220e-004,-3.733679e-005
2.777182e-004,2.560015e-004
4.342734e-004,5.123889e-004
5.629533e-004,7.211292e-004
6.571133e-004,8.797912e-004
7.161052e-004,9.938853e-004
7.261531e-004,1.065842e-003
6.653786e-004,1.106035e-003
5.263265e-004,1.135855e-003
3.358997e-004,1.176371e-003
1.422316e-004,1.226449e-003
-1.318906e-005,1.250111e-003
-9.778715e-005,1.195981e-003
-9.649064e-005,1.030188e-003
-2.031993e-005,7.650489e-004
1.028497e-004,4.503179e-004
2.401191e-004,1.529279e-004
3.399513e-004,-7.444975e-005
3.350894e-004,-2.141500e-004
1.607070e-004,-2.809209e-004
-2.104225e-004,-2.984240e-004
-7.509103e-004,-2.880518e-004
-1.399172e-003,-2.648765e-004
-2.069150e-003,-2.365151e-004
-2.655665e-003,-2.083157e-004
-3.019665e-003,-1.861127e-004
-3.032306e-003,-1.755785e-004
-2.643996e-003,-1.788198e-004
-1.911946e-003,-1.901644e-004
-9.878498e-004,-1.971332e-004
-1.029732e-004,-1.916230e-004
5.049339e-004,-1.747682e-004
7.423597e-004,-1.528894e-004
6.723474e-004,-1.298761e-004
4.201737e-004,-9.989401e-005
1.336421e-004,-6.132246e-005
-4.738484e-005,-1.610624e-005
-3.636440e-005,3.008238e-005
1.581140e-004,7.335383e-005
4.571246e-004,1.094944e-004
7.716935e-004,1.375317e-004
1.045098e-003,1.574657e-004
1.240225e-003,1.728619e-004
1.321744e-003,1.856651e-004
1.258700e-003,1.927960e-004
1.021112e-003,1.877720e-004
5.987698e-004,1.615174e-004
6.784360e-005,1.153287e-004
-3.822118e-004,6.265751e-005
-5.632387e-004,1.727922e-005
-4.002010e-004,-1.562004e-005
6.168512e-005,-3.814712e-005
7.050846e-004,-5.743289e-005
1.372957e-003,-7.509801e-005
1.882005e-003,-9.098041e-005
2.084426e-003,-9.940781e-005
1.942294e-003,-9.535618e-005
1.528702e-003,-7.526008e-005
9.993956e-004,-4.754691e-005
5.483674e-004,-2.372331e-005
3.423823e-004,-1.286493e-005
4.373526e-004,-1.999580e-005
7.571077e-004,-4.138842e-005
1.147037e-003,-7.201877e-005
1.446048e-003,-1.060525e-004
1.551877e-003,-1.383035e-004
1.462741e-003,-1.671511e-004
1.251894e-003,-1.966470e-004
1.021112e-003,-2.324634e-004
8.543470e-004,-2.697385e-004
7.532181e-004,-2.951827e-004
6.477135e-004,-2.938862e-004
4.294114e-004,-2.528836e-004
-7.678839e-006,-1.723372e-004
-6.770085e-004,-6.375344e-005
-1.416026e-003,5.649903e-005
-1.937877e-003,1.658931e-004
-2.014534e-003,2.440086e-004
-1.624604e-003,2.843629e-004
-9.682399e-004,2.942489e-004
-3.309991e-004,2.850112e-004
5.536457e-005,2.613496e-004
1.067393e-004,2.214815e-004
-1.013526e-004,1.654069e-004
-4.010113e-004,9.652917e-005
-6.133168e-004,2.214118e-005
-6.173685e-004,-4.932962e-005
-3.760533e-004,-1.130213e-004
8.502253e-005,-1.595340e-004
6.942263e-004,-1.791439e-004
1.343461e-003,-1.742820e-004
1.899508e-003,-1.528894e-004
2.222992e-003,-1.269589e-004
2.218292e-003,-1.034594e-004
1.883140e-003,-8.692878e-005
1.323527e-003,-7.250496e-005
7.154569e-004,-5.743289e-005
2.592428e-004,-4.138842e-005
1.009049e-004,-2.550602e-005
2.592428e-004,-1.043395e-005
6.438239e-004,2.855407e-006
1.126617e-003,1.371378e-005
1.576997e-003,2.197911e-005
1.897077e-003,3.008238e-005
2.032727e-003,3.721326e-005
1.934515e-003,3.980630e-005
1.523678e-003,4.158902e-005
7.337703e-004,4.807163e-005
-3.695707e-004,5.909208e-005
-1.550541e-003,6.897806e-005
-2.569770e-003,7.270556e-005
-3.330345e-003,6.573675e-005
-3.888500e-003,4.920609e-005
-4.370162e-003,3.494434e-005
-4.848906e-003,3.413401e-005
-4.968512e-003,4.677511e-005
-4.968674e-003,6.379197e-005
-4.968512e-003,8.016057e-005
-4.896068e-003,9.620504e-005
-3.952354e-003,1.122495e-004
-2.894226e-003,1.273216e-004
-1.976934e-003,1.338042e-004
-1.327701e-003,1.245665e-004
-9.165410e-004,9.798775e-005
-6.277406e-004,6.022653e-005
-3.626019e-004,1.565857e-005
-9.616651e-005,-3.474375e-005
1.409351e-004,-8.935975e-005
3.201794e-004,-1.415448e-004
4.459421e-004,-1.793060e-004
5.459364e-004,-2.005366e-004
6.519272e-004,-2.107467e-004
8.007033e-004,-2.169052e-004
9.951819e-004,-2.203085e-004
1.195495e-003,-2.212809e-004
1.334061e-003,-2.149604e-004
1.327092e-003,-1.985918e-004
1.126617e-003,-1.692580e-004
8.079963e-004,-1.287416e-004
5.292437e-004,-8.158062e-005
4.323286e-004,-3.150244e-005
5.645740e-004,2.489629e-005
8.686088e-004,9.652917e-005
1.233418e-003,1.900409e-004
1.550419e-003,3.004074e-004
1.755756e-003,4.026706e-004
1.832737e-003,4.678209e-004
1.800810e-003,4.744656e-004
1.700654e-003,4.166082e-004
1.574729e-003,3.122381e-004
1.458365e-003,1.918236e-004
1.370364e-003,8.712937e-005
1.321420e-003,1.938607e-005
1.311858e-003,-6.058186e-006
1.330496e-003,2.855407e-006
1.362747e-003,3.543054e-005
1.395646e-003,8.275361e-005
1.419794e-003,1.412592e-004
1.424494e-003,2.033302e-004
1.402615e-003,2.628082e-004
1.349295e-003,3.020280e-004
1.265183e-003,3.059176e-004
1.147686e-003,2.658874e-004
1.001016e-003,1.817755e-004
8.449472e-004,6.168512e-005
7.130259e-004,-7.995997e-005
6.347483e-004,-2.293842e-004
5.974732e-004,-3.741085e-004
5.444778e-004,-4.985746e-004
4.273046e-004,-5.787970e-004
2.195368e-004,-5.937069e-004
-8.757704e-005,-5.426564e-004
-4.473620e-004,-4.450931e-004
-7.648479e-004,-3.211132e-004
-9.471713e-004,-1.828714e-004
-9.549505e-004,-3.685060e-005
-8.133054e-004,1.138702e-004
-5.920863e-004,2.649151e-004
-3.715154e-004,4.049396e-004
-2.083157e-004,5.242196e-004
-1.161005e-004,6.212969e-004
-7.607040e-005,6.960090e-004
-5.224680e-005,7.459252e-004
-1.805102e-005,7.720177e-004
2.927205e-005,7.840106e-004
7.546067e-005,7.875760e-004
9.523264e-005,7.762314e-004
6.217132e-005,7.340944e-004
-2.939559e-005,6.483617e-004
-1.449482e-004,5.229231e-004
-2.280877e-004,3.746333e-004
-2.605007e-004,2.263435e-004
-2.930758e-004,9.879808e-005
-3.805911e-004,-1.844488e-006
-5.173742e-004,-8.012204e-005
-6.441093e-004,-1.486757e-004
-6.974287e-004,-2.237119e-004
-6.664743e-004,-3.156029e-004
-5.959758e-004,-4.269418e-004
-5.455735e-004,-5.431426e-004
-5.374703e-004,-6.420024e-004
-5.256396e-004,-6.949978e-004
-4.253211e-004,-6.833291e-004
-1.825473e-004,-6.048895e-004
1.757791e-004,-4.736166e-004
5.488536e-004,-3.010170e-004
8.442989e-004,-9.811128e-005
1.033916e-003,1.257009e-004
1.138610e-003,3.568061e-004
1.199709e-003,5.752703e-004
1.243953e-003,7.648868e-004
1.259997e-003,9.036149e-004
1.217050e-003,9.773547e-004
1.078159e-003,9.843234e-004
8.246890e-004,9.428347e-004
4.692795e-004,8.734707e-004
5.666109e-005,7.987585e-004
-3.408851e-004,7.279359e-004
-6.361681e-004,6.464170e-004
-8.087676e-004,5.242196e-004
-9.735880e-004,3.441650e-004
-1.282485e-003,1.185701e-004
-1.783104e-003,-1.180453e-004
-2.404950e-003,-3.316474e-004
-2.997300e-003,-4.951713e-004
-3.384799e-003,-5.982448e-004
-3.421264e-003,-6.494574e-004
-3.051916e-003,-6.667984e-004
-2.360381e-003,-6.739292e-004
-1.562371e-003,-6.860842e-004
-9.098963e-004,-7.039114e-004
-5.612939e-004,-7.194696e-004
-5.092709e-004,-7.215765e-004
-6.251476e-004,-7.016424e-004
-7.629031e-004,-6.611261e-004
-8.061745e-004,-6.133168e-004
-6.813843e-004,-5.736109e-004
-4.207833e-004,-5.497872e-004
-2.005366e-004,-5.421702e-004
-2.699005e-004,-5.501114e-004
-7.812165e-004,-5.659938e-004
-1.646483e-003,-5.762039e-004
-2.560209e-003,-5.692351e-004
-3.151586e-003,-5.400634e-004
-3.170548e-003,-4.964678e-004
-2.599752e-003,-4.530343e-004
-1.624280e-003,-4.212695e-004
-5.118640e-004,-4.045768e-004
4.793275e-004,-4.011734e-004
1.181557e-003,-4.019837e-004
1.564680e-003,-3.935563e-004
1.685419e-003,-3.650328e-004
1.636962e-003,-3.134961e-004
1.503744e-003,-2.452666e-004
1.350106e-003,-1.647201e-004
1.230987e-003,-7.526008e-005
1.191119e-003,2.505836e-005
1.250273e-003,1.278078e-004
1.389812e-003,2.156472e-004
1.556901e-003,2.709115e-004
1.682178e-003,2.877662e-004
1.713133e-003,2.717218e-004
1.620593e-003,2.420638e-004
1.400508e-003,2.146748e-004
1.096149e-003,1.971717e-004
7.929241e-004,1.887444e-004
5.832114e-004,1.856651e-004
5.149820e-004,1.814514e-004
5.814288e-004,1.662173e-004
7.274497e-004,1.381800e-004
8.838429e-004,1.056048e-004
9.979371e-004,8.064677e-005
1.046395e-003,7.076078e-005
1.040398e-003,7.578480e-005
1.005392e-003,9.247754e-005
9.629308e-004,1.200286e-004
9.222524e-004,1.581140e-004
8.900014e-004,2.036544e-004
8.708776e-004,2.569738e-004
8.684467e-004,3.192070e-004
8.840049e-004,3.910019e-004
9.191732e-004,4.717105e-004
9.827028e-004,5.506363e-004
1.084318e-003,6.204865e-004
1.213970e-003,6.786680e-004
1.345244e-003,7.212912e-004
1.448317e-003,7.420356e-004
1.510551e-003,7.360392e-004
1.539560e-003,6.950366e-004
1.548312e-003,6.178935e-004
1.549122e-003,5.049339e-004
1.544746e-003,3.608578e-004
1.529188e-003,1.999268e-004
1.479758e-003,4.466826e-005
1.380412e-003,-8.287715e-005
1.224505e-003,-1.697442e-004
1.011550e-003,-2.071812e-004
7.353909e-004,-1.990780e-004
3.929467e-004,-1.605064e-004
-2.113026e-005,-1.081593e-004
-5.251534e-004,-5.062615e-005
-1.123174e-003,8.851824e-006
-1.782456e-003,7.335383e-005
-2.419373e-003,1.461212e-004
-2.890498e-003,2.247229e-004
-3.048674e-003,2.931144e-004
-2.827293e-003,3.321722e-004
-2.287938e-003,3.307136e-004
-1.588464e-003,2.901973e-004
-9.094102e-004,2.336365e-004
-3.955011e-004,1.919856e-004
-1.128592e-004,1.906891e-004
-4.025397e-005,2.359054e-004
-1.016767e-004,3.036487e-004
-2.159328e-004,3.464339e-004
-3.402368e-004,3.213138e-004
-4.766958e-004,2.229401e-004
-6.293613e-004,8.242948e-005
-7.774890e-004,-6.197072e-005
-8.823453e-004,-1.844921e-004
-9.150825e-004,-2.770314e-004
-8.721352e-004,-3.376438e-004
-7.663065e-004,-3.707051e-004
-6.196374e-004,-3.784843e-004
-4.588687e-004,-3.549848e-004
-3.023136e-004,-2.927517e-004
-1.519170e-004,-1.989159e-004
-8.651231e-006,-9.989401e-005
1.179218e-004,-2.712668e-005
2.060853e-004,2.531276e-006
2.488706e-004,-1.302700e-005
2.513016e-004,-6.099833e-005
2.263435e-004,-1.136696e-004
1.848548e-004,-1.423551e-004
1.276457e-004,-1.365208e-004
5.341979e-005,-1.075111e-004
-3.020592e-005,-7.752899e-005
-1.029732e-004,-6.586029e-005
-1.345760e-004,-7.850138e-005
-1.060525e-004,-1.083214e-004
-1.480971e-005,-1.396000e-004
1.192183e-004,-1.566169e-004
2.644289e-004,-1.541859e-004
3.927847e-004,-1.318209e-004
4.919686e-004,-9.843541e-005
5.623050e-004,-6.537409e-005
6.059006e-004,-3.928157e-005
6.109247e-004,-2.194059e-005
5.428572e-004,-1.286493e-005
3.608578e-004,-3.627206e-006
5.066468e-005,1.533444e-005
-3.288923e-004,4.742337e-005
-6.489712e-004,8.875003e-005
-7.966127e-004,1.279698e-004
-7.494517e-004,1.555210e-004
-5.752315e-004,1.714034e-004
-3.745947e-004,1.843686e-004
-2.344082e-004,2.015475e-004
-1.914609e-004,2.216436e-004
-2.193361e-004,2.383363e-004
-2.400805e-004,2.482223e-004
-1.788198e-004,2.423880e-004
3.827799e-006,2.099749e-004
2.936006e-004,1.438522e-004
6.271312e-004,4.904402e-005
9.335970e-004,-5.937768e-005
1.163730e-003,-1.569410e-004
1.285927e-003,-2.183637e-004
1.287062e-003,-2.277635e-004
1.179126e-003,-1.877334e-004
9.616343e-004,-1.161005e-004
6.070351e-004,-3.506788e-005
1.009049e-004,3.818565e-005
-4.938748e-004,9.766362e-005
-1.033552e-003,1.470936e-004
-1.364490e-003,1.961994e-004
-1.397065e-003,2.535705e-004
-1.135491e-003,3.190449e-004
-6.599916e-004,3.796573e-004
-7.752899e-005,4.263322e-004
5.097958e-004,4.537212e-004
9.955061e-004,4.595556e-004
1.280255e-003,4.449697e-004
1.294355e-003,4.099636e-004
1.008147e-003,3.564820e-004
4.496696e-004,2.824181e-004
-2.684419e-004,1.850168e-004
-9.596504e-004,6.670914e-005
-1.482473e-003,-6.278104e-005
-1.803363e-003,-1.857886e-004
-1.970614e-003,-2.851347e-004
-2.072877e-003,-3.523917e-004
-2.217602e-003,-3.886944e-004
-2.465238e-003,-4.008493e-004
-2.781590e-003,-4.000390e-004
-3.048512e-003,-3.967976e-004
-3.111394e-003,-3.997148e-004
-2.840420e-003,-4.110594e-004
-2.188592e-003,-4.233763e-004
-1.241482e-003,-4.288866e-004
-2.000504e-004,-4.233763e-004
6.943883e-004,-4.068457e-004
1.277338e-003,-3.817256e-004
1.494344e-003,-3.538503e-004
1.378629e-003,-3.258130e-004
1.032781e-003,-2.984240e-004
5.882355e-004,-2.699005e-004
1.923098e-004,-2.481838e-004
-3.069211e-005,-2.404046e-004
-4.138842e-005,-2.506147e-004
1.174356e-004,-2.874036e-004
3.593992e-004,-3.535262e-004
5.958526e-004,-4.476861e-004
7.775280e-004,-5.580526e-004
8.963220e-004,-6.713362e-004
9.643894e-004,-7.714926e-004
9.862683e-004,-8.481495e-004
9.626067e-004,-8.907726e-004
9.045873e-004,-8.846141e-004
8.475402e-004,-8.280533e-004
8.473782e-004,-7.275729e-004
9.460760e-004,-5.977586e-004
1.149792e-003,-4.528722e-004
1.418983e-003,-3.081479e-004
1.694819e-003,-1.763888e-004
1.914905e-003,-6.294311e-005
2.024947e-003,3.462021e-005
1.975031e-003,1.278078e-004
1.753325e-003,2.357433e-004
1.431300e-003,3.673404e-004
1.139258e-003,5.166026e-004
9.849718e-004,6.679717e-004
1.000206e-003,8.081583e-004
1.153196e-003,9.439692e-004
1.395808e-003,1.089828e-003
1.689795e-003,1.253352e-003
1.995127e-003,1.418821e-003
2.273070e-003,1.547502e-003
2.493804e-003,1.606655e-003
2.644688e-003,1.587045e-003
2.736255e-003,1.500827e-003
2.775800e-003,1.373767e-003
2.708542e-003,1.241522e-003
2.398023e-003,1.136827e-003
1.729015e-003,1.072325e-003
7.175637e-004,1.026785e-003
-4.632444e-004,9.692514e-004
-1.545030e-003,8.755776e-004
-2.308034e-003,7.368495e-004
-2.659717e-003,5.634395e-004
-2.702016e-003,3.764160e-004
-2.730215e-003,1.942546e-004
-3.000541e-003,2.748934e-005
-3.530334e-003,-1.227452e-004
-4.142782e-003,-2.588801e-004
-4.578579e-003,-3.909633e-004
-4.595920e-003,-5.199672e-004
-4.070015e-003,-6.306578e-004
-3.051267e-003,-6.958081e-004
-1.716171e-003,-6.984011e-004
-2.934000e-004,-6.405439e-004
9.770306e-004,-5.405495e-004
1.910367e-003,-4.202971e-004
2.432381e-003,-2.943724e-004
2.522490e-003,-1.679614e-004
2.214889e-003,-4.479180e-005
1.631776e-003,7.529860e-005
9.507760e-004,1.908512e-004
3.321722e-004,2.897111e-004
-1.255003e-004,3.512959e-004
-4.081422e-004,3.629646e-004
-5.783107e-004,3.321722e-004
-7.423208e-004,2.835526e-004
-1.000329e-003,2.433604e-004
-1.402251e-003,2.205092e-004
-1.884233e-003,2.034923e-004
-2.297014e-003,1.654069e-004
-2.519692e-003,7.416415e-005
-2.532333e-003,-7.736692e-005
-2.401384e-003,-2.611490e-004
-2.229108e-003,-4.373140e-004
-2.095891e-003,-5.739350e-004
-2.028471e-003,-6.599916e-004
-1.992817e-003,-7.060182e-004
-1.920374e-003,-7.300039e-004
-1.745343e-003,-7.442656e-004
-1.446494e-003,-7.593377e-004
-1.050569e-003,-7.825130e-004
-5.979206e-004,-8.191398e-004
-1.126972e-004,-8.593319e-004
3.828986e-004,-8.854245e-004
8.522401e-004,-8.844521e-004
1.234715e-003,-8.536596e-004
1.464686e-003,-7.990437e-004
1.517357e-003,-7.282211e-004
1.442159e-003,-6.432990e-004
1.320448e-003,-5.423322e-004
1.209271e-003,-4.207833e-004
1.149144e-003,-2.778417e-004
1.157572e-003,-1.182074e-004
1.229529e-003,4.223728e-005
1.351564e-003,1.859892e-004
1.501475e-003,2.983005e-004
1.648793e-003,3.770643e-004
1.764994e-003,4.279528e-004
1.819448e-003,4.572867e-004
1.789790e-003,4.678209e-004
1.683961e-003,4.533971e-004
1.540695e-003,4.070464e-004
1.411204e-003,3.289309e-004
1.333251e-003,2.237505e-004
1.315261e-003,1.145184e-004
1.337789e-003,2.910999e-005
1.368095e-003,-1.886135e-005
1.371336e-003,-3.522994e-005
1.329037e-003,-2.809907e-005
1.249139e-003,-4.437533e-006
1.147361e-003,3.526847e-005
1.038940e-003,8.712937e-005
9.327867e-004,1.551968e-004
8.366818e-004,2.422259e-004
7.554871e-004,3.470822e-004
6.929298e-004,4.621486e-004
6.496583e-004,5.749461e-004
6.203245e-004,6.786680e-004
5.979594e-004,7.785003e-004
5.734875e-004,8.878945e-004
5.417228e-004,1.009930e-003
5.025029e-004,1.125483e-003
4.566384e-004,1.190147e-003
4.038051e-004,1.165999e-003
3.388169e-004,1.048015e-003
2.589186e-004,8.585607e-004
1.595726e-004,6.326414e-004
3.818565e-005,4.068843e-004
-1.003802e-004,2.064095e-004
-2.415391e-004,3.769945e-005
-3.645466e-004,-1.021629e-004
-4.475241e-004,-2.165810e-004
-4.796130e-004,-3.057169e-004
-4.760476e-004,-3.656811e-004
-4.747511e-004,-3.927460e-004
-5.118640e-004,-3.870737e-004
-5.893312e-004,-3.556330e-004
-6.575607e-004,-3.134961e-004
-6.557780e-004,-2.760590e-004
-5.599973e-004,-2.580697e-004
-3.985804e-004,-2.619593e-004
-2.381357e-004,-2.799486e-004
-1.431655e-004,-3.000446e-004
-1.444620e-004,-3.183580e-004
-2.310048e-004,-3.339163e-004
-3.624398e-004,-3.468815e-004
-4.930644e-004,-3.564434e-004
-5.956517e-004,-3.608192e-004
-6.659881e-004,-3.626019e-004
-7.146077e-004,-3.637363e-004
-7.648479e-004,-3.616295e-004
-8.489598e-004,-3.569296e-004
-9.990323e-004,-3.530400e-004
-1.239537e-003,-3.527159e-004
-1.577930e-003,-3.611433e-004
-1.976772e-003,-3.765395e-004
-2.339799e-003,-3.922598e-004
-2.536547e-003,-4.021458e-004
-2.473179e-003,-4.016596e-004
-2.143862e-003,-3.903150e-004
-1.632384e-003,-3.762153e-004
-1.074555e-003,-3.601709e-004
-6.019723e-004,-3.397507e-004
-3.036101e-004,-3.134961e-004
-1.924333e-004,-2.825416e-004
-2.131776e-004,-2.498044e-004
-2.888622e-004,-2.178775e-004
-3.489884e-004,-1.854645e-004
-3.472056e-004,-1.535376e-004
-2.705488e-004,-1.216107e-004
-1.462447e-004,-9.292520e-005
-8.975362e-006,-6.942573e-005
1.253768e-004,-4.884343e-005
2.404432e-004,-2.777494e-005
3.260137e-004,-6.382317e-006
3.803056e-004,1.938607e-005
3.914881e-004,5.309566e-005
3.333067e-004,9.652917e-005
2.196988e-004,1.517934e-004
1.265113e-004,2.137024e-004
1.579519e-004,2.701012e-004
3.837090e-004,3.047831e-004
7.692626e-004,3.159656e-004
1.178154e-003,3.117519e-004
1.438269e-003,3.073762e-004
1.416066e-003,3.124002e-004
1.055794e-003,3.297412e-004
4.023465e-004,3.551855e-004
-3.950149e-004,3.820883e-004
-1.101133e-003,4.059119e-004
-1.511969e-003,4.268184e-004
-1.541951e-003,4.431870e-004
-1.236944e-003,4.542074e-004
-7.387554e-004,4.579349e-004
-2.117191e-004,4.576108e-004
2.239125e-004,4.540453e-004
5.303781e-004,4.465904e-004
7.407391e-004,4.362182e-004
9.099355e-004,4.276287e-004
1.075080e-003,4.235771e-004
1.223856e-003,4.239012e-004
1.302944e-003,4.159600e-004
1.247842e-003,3.828986e-004
1.025488e-003,3.196932e-004
6.624615e-004,2.321778e-004
2.410915e-004,1.349386e-004
-1.460826e-004,4.434413e-005
-4.371519e-004,-2.048200e-005
-6.081308e-004,-5.111234e-005
-6.595054e-004,-5.435365e-005
-5.982448e-004,-3.992984e-005
-4.371519e-004,-2.550602e-005
-2.032917e-004,-2.680255e-005
6.152305e-005,-5.078821e-005
2.845250e-004,-8.935975e-005
3.871123e-004,-1.269589e-004
3.239069e-004,-1.468929e-004
1.216493e-004,-1.387897e-004
-1.313347e-004,-1.071869e-004
-3.361852e-004,-6.116039e-005
-4.097628e-004,-1.464765e-005
-3.039342e-004,2.651694e-005
-2.323711e-005,6.217132e-005
3.827366e-004,8.486046e-005
8.347370e-004,8.097089e-005
1.252866e-003,3.948217e-005
1.573594e-003,-4.641245e-005
1.749922e-003,-1.708786e-004
1.763535e-003,-3.139823e-004
1.629021e-003,-4.507654e-004
1.402939e-003,-5.578905e-004
1.176371e-003,-6.199615e-004
1.046395e-003,-6.244993e-004
1.089828e-003,-5.674524e-004
1.331144e-003,-4.549791e-004
1.726260e-003,-2.987481e-004
2.143256e-003,-1.209625e-004
2.400941e-003,4.774750e-005
2.351510e-003,1.720516e-004
1.940997e-003,2.265056e-004
1.238280e-003,2.093267e-004
4.172565e-004,1.401247e-004
-3.238683e-004,5.017848e-005
-8.478253e-004,-2.858527e-005
-1.104213e-003,-7.169464e-005
-1.162394e-003,-7.023606e-005
-1.198859e-003,-3.020592e-005
-1.428992e-003,3.640293e-005
-1.996706e-003,1.164632e-004
-2.839610e-003,1.937684e-004
-3.654477e-003,2.587566e-004
-4.070338e-003,3.072141e-004
-3.884449e-003,3.410858e-004
-3.164714e-003,3.597233e-004
-2.178544e-003,3.652335e-004
-1.227220e-003,3.649094e-004
-5.123502e-004,3.668542e-004
-7.299116e-005,3.760919e-004
1.688103e-004,3.910019e-004
2.976523e-004,4.042913e-004
3.243930e-004,4.026706e-004
1.801549e-004,3.786850e-004
-2.063709e-004,3.344411e-004
-7.855922e-004,2.782044e-004
-1.358979e-003,2.192126e-004
-1.680517e-003,1.621656e-004
-1.634814e-003,1.169494e-004
-1.284591e-003,8.858796e-005
-7.778131e-004,7.918817e-005
-2.527216e-004,8.631905e-005
2.258573e-004,1.098185e-004
7.010330e-004,1.469315e-004
1.222398e-003,1.882582e-004
1.753811e-003,2.211574e-004
2.217482e-003,2.399570e-004
2.563331e-003,2.519498e-004
2.769641e-003,2.679943e-004
2.807403e-003,2.931144e-004
2.636261e-003,3.141829e-004
2.239361e-003,3.154794e-004
1.667754e-003,2.866318e-004
1.023868e-003,2.287745e-004
4.496696e-004,1.529279e-004
9.377406e-005,7.043665e-005
1.517237e-005,-7.516774e-006
1.198666e-004,-7.072225e-005
2.055991e-004,-1.172350e-004
8.615699e-005,-1.496481e-004
-2.950206e-004,-1.721751e-004
-8.163847e-004,-1.903264e-004
-1.262226e-003,-2.092881e-004
-1.493007e-003,-2.313290e-004
-1.540654e-003,-2.519113e-004
-1.545030e-003,-2.668213e-004
-1.625739e-003,-2.757348e-004
-1.782618e-003,-2.838381e-004
-1.886502e-003,-2.979378e-004
-1.779701e-003,-3.164132e-004
-1.390420e-003,-3.347266e-004
-7.781372e-004,-3.472056e-004
-9.405965e-005,-3.512573e-004
5.050959e-004,-3.485022e-004
9.373245e-004,-3.436402e-004
1.203112e-003,-3.400748e-004
1.351564e-003,-3.378059e-004
1.443455e-003,-3.319715e-004
1.518168e-003,-3.172236e-004
1.588504e-003,-2.927517e-004
1.639069e-003,-2.647144e-004
1.624645e-003,-2.428356e-004
1.493372e-003,-2.340841e-004
1.218994e-003,-2.433218e-004
8.342508e-004,-2.689281e-004
4.260080e-004,-3.053928e-004
6.541262e-005,-3.447747e-004
-2.601766e-004,-3.792946e-004
-6.152617e-004,-4.042526e-004
-1.039224e-003,-4.164075e-004
-1.500300e-003,-4.181903e-004
-1.905950e-003,-4.094387e-004
-2.116959e-003,-3.890185e-004
-2.005620e-003,-3.496366e-004
-1.527365e-003,-2.932379e-004
-7.612825e-004,-2.264670e-004
1.271595e-004,-1.616409e-004
9.606619e-004,-1.141558e-004
1.627238e-003,-9.033215e-005
2.085884e-003,-8.077030e-005
2.344055e-003,-7.266703e-005
2.452639e-003,-5.451572e-005
2.470467e-003,-2.080613e-005
2.427843e-003,2.667901e-005
2.311318e-003,7.513654e-005
2.077295e-003,1.059290e-004
1.688175e-003,1.031738e-004
1.125483e-003,6.265751e-005
4.130428e-004,-1.724069e-005
-3.744326e-004,-1.274451e-004
-1.117664e-003,-2.468872e-004
-1.697534e-003,-3.494746e-004
-2.054078e-003,-4.086284e-004
-2.190213e-003,-4.057112e-004
-2.148400e-003,-3.386162e-004
-1.967697e-003,-2.204706e-004
-1.686675e-003,-7.039812e-005
-1.360114e-003,9.344993e-005
-1.040359e-003,2.639427e-004
-7.473448e-004,4.371906e-004
-4.659995e-004,6.068730e-004
-1.733096e-004,7.585663e-004
1.474177e-004,8.791430e-004
4.859722e-004,9.611481e-004
8.209614e-004,1.003123e-003
1.139420e-003,1.001827e-003
1.430004e-003,9.577448e-004
1.651710e-003,8.781706e-004
1.746356e-003,7.703970e-004
1.673913e-003,6.328035e-004
1.427897e-003,4.608521e-004
1.053525e-003,2.632944e-004
6.287518e-004,6.800567e-005
2.355812e-004,-8.498399e-005
-6.764301e-005,-1.614788e-004
-2.525595e-004,-1.426792e-004
-3.214373e-004,-3.117831e-005
-2.990722e-004,1.524417e-004
-2.214430e-004,3.830607e-004
-1.102662e-004,6.397723e-004
1.841368e-005,9.018321e-004
1.479039e-004,1.143634e-003
2.475741e-004,1.335682e-003
2.788527e-004,1.453503e-003
2.383363e-004,1.481865e-003
1.636242e-004,1.429680e-003
9.426025e-005,1.322392e-003
5.455425e-005,1.198736e-003
5.455425e-005,1.094204e-003
8.891209e-005,1.017385e-003
1.159770e-004,9.405658e-004
7.108491e-005,8.222580e-004
-1.086455e-004,6.274553e-004
-4.480103e-004,3.525924e-004
-8.828315e-004,3.218923e-005
-1.276326e-003,-2.788141e-004
-1.506945e-003,-5.321222e-004
-1.532551e-003,-7.034251e-004
-1.405654e-003,-7.949921e-004
-1.237592e-003,-8.272430e-004
-1.129981e-003,-8.261086e-004
-1.125443e-003,-8.158985e-004
-1.219603e-003,-8.129813e-004
-1.378103e-003,-8.248120e-004
-1.544868e-003,-8.513908e-004
-1.653776e-003,-8.907726e-004
-1.637570e-003,-9.466851e-004
-1.448277e-003,-1.015401e-003
-1.113774e-003,-1.082982e-003
-7.604721e-004,-1.133871e-003
-5.228845e-004,-1.161908e-003
-4.528722e-004,-1.166446e-003
-4.963057e-004,-1.148132e-003
-5.431426e-004,-1.106157e-003
-5.034366e-004,-1.038252e-003
-3.651949e-004,-9.461989e-004
-1.783336e-004,-8.379394e-004
1.031041e-005,-7.206041e-004
1.838824e-004,-5.995413e-004
3.482167e-004,-4.745890e-004
5.120648e-004,-3.442885e-004
6.676476e-004,-2.128535e-004
7.990826e-004,-8.871149e-005
8.942151e-004,1.549650e-005
9.588792e-004,9.652917e-005
1.020788e-003,1.608691e-004
1.106845e-003,2.180782e-004
1.226936e-003,2.811216e-004
1.368905e-003,3.555096e-004
1.501799e-003,4.284390e-004
1.590449e-003,4.726828e-004
1.605035e-003,4.683071e-004
1.525461e-003,4.157979e-004
1.357236e-003,3.316860e-004
1.132289e-003,2.406053e-004
8.880566e-004,1.647587e-004
6.522514e-004,1.161391e-004
4.371906e-004,9.247754e-005
2.504913e-004,8.599492e-005
1.020394e-004,8.988449e-005
4.244267e-007,1.004187e-004
-6.116039e-005,1.122495e-004
-1.031353e-004,1.244044e-004
-1.645581e-004,1.435281e-004
-3.073376e-004,1.767515e-004
-5.817142e-004,2.198609e-004
-1.007460e-003,2.587566e-004
-1.564802e-003,2.803113e-004
-2.161527e-003,2.854973e-004
-2.645293e-003,2.858215e-004
-2.856465e-003,2.923041e-004
-2.703798e-003,3.072141e-004
-2.210471e-003,3.214759e-004
-1.510672e-003,3.234207e-004
-7.880232e-004,3.047831e-004
-2.042641e-004,2.600531e-004
1.662173e-004,1.944166e-004
3.491891e-004,1.153287e-004
4.297355e-004,3.089271e-005
4.945617e-004,-5.030202e-005
5.943940e-004,-1.144799e-004
7.342565e-004,-1.464067e-004
8.840049e-004,-1.433275e-004
9.969646e-004,-1.104282e-004
1.033429e-003,-5.953974e-005
9.810822e-004,-1.448558e-005
8.608295e-004,-5.896120e-006
7.154569e-004,-4.965376e-005
5.918010e-004,-1.441378e-004
5.209784e-004,-2.640662e-004
5.112545e-004,-3.831841e-004
5.516087e-004,-4.849611e-004
6.216210e-004,-5.567560e-004
6.979538e-004,-5.852795e-004
7.631041e-004,-5.655076e-004
8.013516e-004,-5.068399e-004
8.019998e-004,-4.202971e-004
7.687764e-004,-3.118754e-004
7.114052e-004,-1.874093e-004
6.469032e-004,-5.435365e-005
5.965008e-004,7.821578e-005
5.875872e-004,2.007372e-004
6.494962e-004,3.112658e-004
7.893587e-004,4.055878e-004
9.839993e-004,4.781931e-004
1.197926e-003,5.211404e-004
1.398401e-003,5.328091e-004
1.559332e-003,5.188715e-004
1.659003e-003,4.934272e-004
1.686878e-003,4.778690e-004
1.645227e-003,4.822447e-004
1.534050e-003,4.963444e-004
1.345406e-003,4.984512e-004
1.080428e-003,4.662003e-004
7.634282e-004,3.950536e-004
4.224426e-004,3.015418e-004
1.295905e-004,2.096508e-004
2.623614e-007,1.470936e-004
9.814982e-005,1.286181e-004
3.624784e-004,1.466074e-004
6.018490e-004,1.746447e-004
5.644119e-004,1.837203e-004
1.086841e-004,1.551968e-004
-6.463782e-004,8.972242e-005
-1.382641e-003,5.934648e-006
-1.816490e-003,-7.444975e-005
-1.839503e-003,-1.381414e-004
-1.555240e-003,-1.814128e-004
-1.194483e-003,-2.042641e-004
-9.427955e-004,-2.060468e-004
-8.402083e-004,-1.895161e-004
-8.042298e-004,-1.630995e-004
-7.350279e-004,-1.360346e-004
-6.052136e-004,-1.143178e-004
-4.911196e-004,-1.000561e-004
-5.353634e-004,-8.579432e-005
-8.633836e-004,-6.958779e-005
-1.492683e-003,-5.062615e-005
-2.307873e-003,-2.923353e-005
-3.108315e-003,-5.896120e-006
-3.693049e-003,2.019640e-005
-3.930314e-003,5.309566e-005
-3.776837e-003,1.018773e-004
-3.295825e-003,1.725378e-004
-2.640107e-003,2.650771e-004
-1.990710e-003,3.707437e-004
-1.487173e-003,4.754380e-004
-1.179087e-003,5.595500e-004
-1.030473e-003,6.081695e-004
-9.496023e-004,6.157866e-004
-8.500942e-004,5.896941e-004
-6.844635e-004,5.462606e-004
-4.452552e-004,5.000719e-004
-1.465688e-004,4.564763e-004
1.884202e-004,4.099636e-004
5.303781e-004,3.540510e-004
8.473782e-004,2.856594e-004
1.108466e-003,2.098128e-004
1.290303e-003,1.323456e-004
1.380736e-003,5.682316e-005
1.379764e-003,-1.027188e-005
1.313317e-003,-6.845333e-005
1.227260e-003,-1.167488e-004
1.163730e-003,-1.524032e-004
1.148820e-003,-1.780095e-004
1.178964e-003,-1.953505e-004
1.235687e-003,-2.113949e-004
1.300351e-003,-2.285739e-004
1.363881e-003,-2.476975e-004
1.421576e-003,-2.658489e-004
1.474410e-003,-2.844864e-004
1.522219e-003,-3.042584e-004
1.561601e-003,-3.271096e-004
1.593204e-003,-3.514194e-004
1.612490e-003,-3.736223e-004
