-5.963000e-004,1.084642e-003
-1.002436e-003,7.580801e-004
-1.336614e-003,3.722023e-004
-1.572419e-003,1.614476e-005
-1.690889e-003,-2.400805e-004
-1.687648e-003,-3.635742e-004
-1.591219e-003,-3.684362e-004
-1.460594e-003,-3.042584e-004
-1.344231e-003,-2.285739e-004
-1.251854e-003,-1.747682e-004
-1.160287e-003,-1.562927e-004
-1.038576e-003,-1.854645e-004
-8.795901e-004,-2.757348e-004
-7.160662e-004,-4.237005e-004
-5.925725e-004,-6.091032e-004
-5.340669e-004,-7.953162e-004
-5.400634e-004,-9.324234e-004
-6.018102e-004,-9.849326e-004
-7.105560e-004,-9.487920e-004
-8.530114e-004,-8.465288e-004
-1.008756e-003,-7.144455e-004
-1.129009e-003,-5.820383e-004
-1.143108e-003,-4.715097e-004
-1.007136e-003,-3.980942e-004
-7.366485e-004,-3.541745e-004
-3.888564e-004,-3.136581e-004
-4.851930e-005,-2.494803e-004
2.231022e-004,-1.546721e-004
4.076947e-004,-4.090223e-005
5.062304e-004,6.800567e-005
5.245438e-004,1.561692e-004
4.640934e-004,2.292607e-004
3.221241e-004,3.062417e-004
1.030118e-004,4.078567e-004
-1.635857e-004,5.399400e-004
-4.199730e-004,6.830437e-004
-5.964621e-004,8.013516e-004
-6.316302e-004,8.605054e-004
-5.034366e-004,8.423541e-004
-2.447804e-004,7.520836e-004
9.377406e-005,6.130316e-004
4.801379e-004,4.475628e-004
9.073424e-004,2.697770e-004
1.376846e-003,9.247754e-005
1.873902e-003,-7.655660e-005
2.360586e-003,-2.277635e-004
2.769803e-003,-3.588744e-004
3.023113e-003,-4.744269e-004
3.039482e-003,-5.804176e-004
2.770614e-003,-6.706879e-004
2.220723e-003,-7.321107e-004
1.466955e-003,-7.556102e-004
6.671614e-004,-7.450759e-004
1.403791e-005,-7.092595e-004
-3.831841e-004,-6.541573e-004
-5.287188e-004,-5.776625e-004
-4.953333e-004,-4.846370e-004
-3.878840e-004,-3.841565e-004
-3.016653e-004,-2.760590e-004
-2.906449e-004,-1.613168e-004
-3.634122e-004,-3.490581e-005
-5.097571e-004,1.057669e-004
-6.949978e-004,2.545429e-004
-8.518770e-004,3.932708e-004
-8.992000e-004,5.020167e-004
-7.760304e-004,5.652222e-004
-4.706994e-004,5.780254e-004
-3.296103e-005,5.470709e-004
4.475628e-004,4.861343e-004
8.830326e-004,4.049396e-004
1.223370e-003,3.075383e-004
1.457717e-003,1.843686e-004
1.598390e-003,1.873781e-005
1.669051e-003,-1.865989e-004
1.688012e-003,-4.083043e-004
1.659489e-003,-6.021344e-004
1.568894e-003,-7.222248e-004
1.399049e-003,-7.392416e-004
1.143634e-003,-6.539953e-004
8.104272e-004,-4.930644e-004
4.289252e-004,-2.874036e-004
3.786152e-005,-5.921561e-005
-3.282440e-004,1.765894e-004
-6.394094e-004,4.117463e-004
-8.675972e-004,6.321552e-004
-9.970875e-004,8.154513e-004
-1.015401e-003,9.232248e-004
-9.196203e-004,9.222524e-004
-7.246558e-004,8.175581e-004
-4.577342e-004,6.710509e-004
-1.760647e-004,5.918010e-004
4.871989e-005,6.681338e-004
1.577899e-004,9.003736e-004
1.227837e-004,1.200195e-003
-5.013995e-005,1.460472e-003
-3.087962e-004,1.624159e-003
-5.679386e-004,1.688012e-003
-7.439415e-004,1.671644e-003
-7.729512e-004,1.573432e-003
-6.345474e-004,1.376846e-003
-3.590364e-004,1.074594e-003
-1.383732e-005,6.833679e-004
3.132105e-004,2.540567e-004
5.381573e-004,-1.285796e-004
5.930975e-004,-3.930701e-004
4.574487e-004,-5.322842e-004
1.658931e-004,-5.940311e-004
-2.178775e-004,-6.538332e-004
-6.155858e-004,-7.839716e-004
-9.496023e-004,-1.021883e-003
-1.161098e-003,-1.361734e-003
-1.233865e-003,-1.763981e-003
-1.184435e-003,-2.177085e-003
-1.042790e-003,-2.547243e-003
-8.335636e-004,-2.804279e-003
-5.791211e-004,-2.864568e-003
-2.990722e-004,-2.668306e-003
-2.064406e-005,-2.231215e-003
2.222919e-004,-1.658962e-003
4.000776e-004,-1.105509e-003
4.978030e-004,-7.014804e-004
5.153061e-004,-5.018159e-004
4.692795e-004,-4.747511e-004
3.816021e-004,-5.272602e-004
2.692908e-004,-5.437909e-004
1.365593e-004,-4.316416e-004
-1.156841e-005,-1.660166e-004
-1.538618e-004,1.950649e-004
-2.575835e-004,5.498260e-004
-2.993964e-004,8.021619e-004
-2.841623e-004,8.979426e-004
-2.313290e-004,8.415438e-004
-1.601823e-004,6.725095e-004
-6.942573e-005,4.363802e-004
5.115087e-005,1.681620e-004
1.887444e-004,-1.003802e-004
3.143450e-004,-3.353749e-004
3.960259e-004,-5.044090e-004
4.123946e-004,-5.838210e-004
3.576164e-004,-5.758798e-004
2.456293e-004,-5.118640e-004
1.120874e-004,-4.342347e-004
-4.275467e-006,-3.752429e-004
-7.477388e-005,-3.535262e-004
-9.373552e-005,-3.697327e-004
-7.444975e-005,-4.139766e-004
-4.057810e-005,-4.734545e-004
-1.010982e-005,-5.356876e-004
9.824215e-006,-5.820383e-004
2.570662e-005,-5.967862e-004
5.293359e-005,-5.750695e-004
1.000946e-004,-5.061917e-004
1.628139e-004,-3.731361e-004
2.138645e-004,-1.741199e-004
2.106232e-004,8.048470e-005
1.242423e-004,3.639370e-004
-4.851930e-005,6.331276e-004
-2.890242e-004,8.491609e-004
-5.671282e-004,9.940475e-004
-8.379394e-004,1.070866e-003
-1.038252e-003,1.107655e-003
-1.095461e-003,1.154006e-003
-9.672674e-004,1.270693e-003
-6.797637e-004,1.513630e-003
-3.096065e-004,1.891891e-003
5.617490e-005,2.302404e-003
3.498373e-004,2.548907e-003
5.391297e-004,2.478894e-003
6.272933e-004,2.066436e-003
6.407447e-004,1.402939e-003
6.127074e-004,6.501445e-004
5.704083e-004,-4.722278e-005
5.266506e-004,-5.972724e-004
4.812723e-004,-9.298304e-004
4.260080e-004,-9.876877e-004
3.564820e-004,-7.645238e-004
2.788527e-004,-3.292164e-004
2.222919e-004,1.900409e-004
2.263435e-004,6.511169e-004
3.234207e-004,9.640653e-004
5.255162e-004,1.117055e-003
8.088066e-004,1.148010e-003
1.119972e-003,1.112679e-003
1.399860e-003,1.072001e-003
1.591259e-003,1.057739e-003
1.631938e-003,1.046233e-003
1.455124e-003,9.909682e-004
1.006364e-003,8.697432e-004
2.906835e-004,7.010330e-004
-5.646973e-004,5.256782e-004
-1.325108e-003,3.759298e-004
-1.795583e-003,2.574601e-004
-1.908057e-003,1.568175e-004
-1.730757e-003,5.568870e-005
-1.419754e-003,-5.483985e-005
-1.148294e-003,-1.600202e-004
-1.038414e-003,-2.387840e-004
-1.124795e-003,-2.840002e-004
-1.367731e-003,-3.024756e-004
-1.667876e-003,-3.091203e-004
-1.902547e-003,-3.186821e-004
-1.971262e-003,-3.384541e-004
-1.821352e-003,-3.703810e-004
-1.458001e-003,-4.073319e-004
-9.408508e-004,-4.403932e-004
-3.643846e-004,-4.716718e-004
1.573037e-004,-5.102433e-004
5.140096e-004,-5.582146e-004
6.473894e-004,-6.035930e-004
5.760806e-004,-6.304958e-004
3.710679e-004,-6.338991e-004
1.154908e-004,-6.236890e-004
-1.214487e-004,-6.165582e-004
-3.016653e-004,-6.241752e-004
-4.219178e-004,-6.408680e-004
-4.956574e-004,-6.533470e-004
-5.217500e-004,-6.504298e-004
-4.865818e-004,-6.251476e-004
-3.762153e-004,-5.692351e-004
-1.870851e-004,-4.799371e-004
7.092284e-005,-3.609812e-004
3.769022e-004,-2.227395e-004
7.041123e-004,-8.368748e-005
1.018843e-003,3.348575e-005
1.285765e-003,1.070634e-004
1.480568e-003,1.273216e-004
1.592556e-003,1.007429e-004
1.630641e-003,4.693717e-005
1.608600e-003,-1.205460e-005
1.542477e-003,-5.743289e-005
1.447669e-003,-7.655660e-005
1.330496e-003,-6.294311e-005
1.174913e-003,-1.643037e-005
9.481829e-004,5.406805e-005
6.272933e-004,1.376938e-004
2.292607e-004,2.229401e-004
-1.843300e-004,3.080245e-004
-5.339049e-004,3.918123e-004
-7.496137e-004,4.687933e-004
-7.883473e-004,5.237334e-004
-6.488092e-004,5.307022e-004
-3.726499e-004,4.710622e-004
-3.134038e-005,3.576164e-004
3.010556e-004,2.240746e-004
5.691118e-004,1.007429e-004
7.480320e-004,-5.409925e-006
8.430023e-004,-1.005423e-004
8.752534e-004,-1.767130e-004
8.695811e-004,-2.091260e-004
8.507816e-004,-1.961608e-004
8.368439e-004,-1.455964e-004
8.368439e-004,-4.706071e-005
8.554814e-004,1.114392e-004
8.937289e-004,3.198552e-004
9.460760e-004,5.436675e-004
9.990715e-004,7.342565e-004
1.029054e-003,8.504574e-004
1.017061e-003,8.749293e-004
9.454277e-004,8.217718e-004
8.026481e-004,7.284221e-004
5.830494e-004,6.347483e-004
3.033245e-004,5.614947e-004
6.420843e-006,4.999099e-004
-2.587180e-004,4.146635e-004
-4.449310e-004,2.707494e-004
-5.172121e-004,5.341979e-005
-4.835025e-004,-2.340841e-004
-3.982562e-004,-5.692351e-004
-3.403989e-004,-9.210788e-004
-3.880461e-004,-1.251854e-003
-5.877105e-004,-1.505162e-003
-9.209168e-004,-1.617798e-003
-1.297232e-003,-1.553944e-003
-1.610343e-003,-1.338235e-003
-1.778567e-003,-1.051217e-003
-1.759929e-003,-7.956403e-004
-1.557671e-003,-6.395715e-004
-1.212634e-003,-5.799314e-004
-7.977472e-004,-5.715040e-004
-3.997148e-004,-5.668041e-004
-9.859748e-005,-5.442770e-004
6.784360e-005,-5.136467e-004
1.357490e-004,-5.110537e-004
1.929580e-004,-5.826865e-004
3.034866e-004,-7.536653e-004
4.645796e-004,-1.013132e-003
6.410689e-004,-1.318463e-003
7.870898e-004,-1.606939e-003
8.496471e-004,-1.804497e-003
7.804451e-004,-1.853279e-003
5.791598e-004,-1.736754e-003
3.119140e-004,-1.482473e-003
6.800567e-005,-1.164339e-003
-8.222889e-005,-8.826694e-004
-1.138316e-004,-7.121767e-004
-4.916756e-005,-6.608020e-004
6.103686e-005,-6.622606e-004
1.543865e-004,-6.217443e-004
1.858272e-004,-4.679443e-004
1.633001e-004,-1.794681e-004
1.269974e-004,2.146748e-004
1.099806e-004,6.567892e-004
1.201907e-004,1.086263e-003
1.383420e-004,1.463065e-003
1.172735e-004,1.760618e-003
-4.113403e-006,1.962228e-003
-2.642282e-004,2.064978e-003
-6.646916e-004,2.080374e-003
-1.172280e-003,2.029809e-003
-1.693482e-003,1.932408e-003
-2.105939e-003,1.810210e-003
-2.318406e-003,1.688499e-003
-2.303172e-003,1.587370e-003
-2.097349e-003,1.524488e-003
-1.768194e-003,1.536805e-003
-1.372431e-003,1.654627e-003
-9.457127e-004,1.858830e-003
-5.157535e-004,2.084588e-003
-1.196660e-004,2.252488e-003
2.054371e-004,2.315532e-003
4.345975e-004,2.271126e-003
5.653843e-004,2.154276e-003
6.187038e-004,2.012144e-003
6.349103e-004,1.876495e-003
6.595443e-004,1.757701e-003
7.174017e-004,1.646848e-003
8.097790e-004,1.526919e-003
9.173905e-004,1.365988e-003
1.021761e-003,1.119810e-003
1.110897e-003,7.676419e-004
1.173778e-003,3.333067e-004
1.201653e-003,-1.201522e-004
1.183664e-003,-5.181845e-004
1.108790e-003,-8.196260e-004
9.745996e-004,-1.029663e-003
7.935724e-004,-1.188325e-003
5.869390e-004,-1.333211e-003
3.752816e-004,-1.469346e-003
1.790204e-004,-1.565289e-003
2.133085e-005,-1.584736e-003
-6.083626e-005,-1.514562e-003
-3.587821e-005,-1.374213e-003
9.231547e-005,-1.203072e-003
2.782044e-004,-1.045707e-003
4.632831e-004,-9.319372e-004
6.063868e-004,-8.697041e-004
6.989262e-004,-8.520390e-004
7.498147e-004,-8.729455e-004
7.686144e-004,-9.197823e-004
7.619697e-004,-9.662951e-004
7.368495e-004,-9.752086e-004
7.028158e-004,-9.154066e-004
6.593822e-004,-7.841337e-004
5.943940e-004,-6.120203e-004
4.854860e-004,-4.434724e-004
3.138588e-004,-3.167374e-004
7.205730e-005,-2.525595e-004
-2.251705e-004,-2.530457e-004
-5.470322e-004,-3.081479e-004
-8.534976e-004,-4.019837e-004
-1.104051e-003,-5.079744e-004
-1.263523e-003,-5.940311e-004
-1.318463e-003,-6.355198e-004
-1.270492e-003,-6.223925e-004
-1.131115e-003,-5.719902e-004
-9.303166e-004,-5.167259e-004
-7.134732e-004,-4.817198e-004
-5.147812e-004,-4.729683e-004
-3.467195e-004,-4.817198e-004
-1.950263e-004,-4.953333e-004
-2.469570e-005,-5.019780e-004
1.731861e-004,-5.010056e-004
3.652335e-004,-4.958195e-004
4.932652e-004,-4.903093e-004
5.172509e-004,-4.836646e-004
4.512903e-004,-4.656754e-004
3.585888e-004,-4.256453e-004
3.057555e-004,-3.591985e-004
3.195311e-004,-2.713591e-004
3.662059e-004,-1.734716e-004
3.598854e-004,-7.850138e-005
2.060853e-004,9.175954e-006
-1.191798e-004,9.134307e-005
-5.384427e-004,1.728619e-004
-9.223754e-004,2.412535e-004
-1.174225e-003,2.529222e-004
-1.261578e-003,1.641104e-004
-1.202748e-003,-2.583016e-005
-1.041331e-003,-2.713591e-004
-8.350222e-004,-4.888507e-004
-6.374646e-004,-5.922483e-004
-4.713477e-004,-5.262878e-004
-3.199787e-004,-2.731418e-004
-1.527273e-004,1.500107e-004
5.196120e-005,6.888782e-004
2.916559e-004,1.273773e-003
5.355643e-004,1.839868e-003
7.468975e-004,2.330118e-003
9.026425e-004,2.692660e-003
9.992336e-004,2.877091e-003
1.047367e-003,2.858129e-003
1.059360e-003,2.657977e-003
1.048826e-003,2.344866e-003
1.020950e-003,2.013765e-003
9.650377e-004,1.739387e-003
8.823843e-004,1.535347e-003
7.883863e-004,1.351564e-003
7.016813e-004,1.112841e-003
6.362069e-004,7.595387e-004
5.898562e-004,2.699391e-004
5.538776e-004,-3.467195e-004
5.164405e-004,-1.054621e-003
4.749518e-004,-1.761874e-003
4.261701e-004,-2.314517e-003
3.561579e-004,-2.582249e-003
2.485465e-004,-2.536061e-003
9.847395e-005,-2.252446e-003
-7.331530e-005,-1.859761e-003
-2.246843e-004,-1.478584e-003
-3.165753e-004,-1.183625e-003
-3.356990e-004,-1.006649e-003
-2.943724e-004,-9.427955e-004
-2.203085e-004,-9.607848e-004
-1.473791e-004,-1.012160e-003
-1.128592e-004,-1.026745e-003
-1.404103e-004,-9.525195e-004
-2.172293e-004,-7.917507e-004
-3.091203e-004,-5.904656e-004
-3.807532e-004,-4.014975e-004
-4.131662e-004,-2.556388e-004
-4.115456e-004,-1.558065e-004
-4.055492e-004,-8.044617e-005
-4.298589e-004,-2.816880e-006
-5.027883e-004,9.409818e-005
-6.180168e-004,2.141886e-004
-7.491275e-004,3.538890e-004
-8.586837e-004,5.033132e-004
-9.170272e-004,6.457687e-004
-9.115170e-004,7.676419e-004
-8.445840e-004,8.645570e-004
-7.283832e-004,9.423485e-004
-5.747453e-004,1.013819e-003
-3.950149e-004,1.086101e-003
-2.065330e-004,1.150765e-003
-2.647842e-005,1.170537e-003
1.276457e-004,1.096311e-003
2.372019e-004,8.997253e-004
2.876042e-004,6.070351e-004
2.791768e-004,3.033245e-004
2.414156e-004,8.583286e-005
2.234263e-004,3.665733e-006
2.618358e-004,4.547859e-005
3.666921e-004,1.561692e-004
5.149820e-004,2.621599e-004
6.375034e-004,3.080245e-004
6.494962e-004,2.832284e-004
4.861343e-004,2.180782e-004
1.253768e-004,1.527658e-004
-3.920977e-004,1.033359e-004
-9.549505e-004,6.638502e-005
-1.411164e-003,3.478228e-005
-1.622336e-003,5.864920e-007
-1.525745e-003,-4.041603e-005
-1.168066e-003,-9.227693e-005
-6.786292e-004,-1.426792e-004
-2.097743e-004,-1.674752e-004
1.274836e-004,-1.449482e-004
2.974902e-004,-6.391550e-005
3.333067e-004,6.508849e-005
2.934386e-004,2.161334e-004
2.303951e-004,3.509718e-004
1.811273e-004,4.422146e-004
1.573037e-004,4.756001e-004
1.504969e-004,4.389733e-004
1.446626e-004,3.393030e-004
1.381800e-004,2.143507e-004
1.472556e-004,1.169494e-004
1.992786e-004,9.847395e-005
3.232586e-004,1.992786e-004
5.237334e-004,4.183910e-004
7.762314e-004,7.003848e-004
1.043315e-003,9.648756e-004
1.298082e-003,1.139420e-003
1.545719e-003,1.228070e-003
1.807455e-003,1.307968e-003
2.093825e-003,1.406180e-003
2.387327e-003,1.378305e-003
2.656033e-003,9.682790e-004
2.856022e-003,9.490851e-005
2.948400e-003,-1.034525e-003
2.914042e-003,-2.081791e-003
2.744521e-003,-2.790018e-003
2.431247e-003,-3.021610e-003
1.969359e-003,-2.751608e-003
1.362098e-003,-2.038682e-003
6.264829e-004,-9.975737e-004
-1.801163e-004,2.261814e-004
-9.410129e-004,1.417363e-003
-1.506135e-003,2.377927e-003
-1.760577e-003,2.968983e-003
-1.711634e-003,3.113384e-003
-1.497221e-003,2.809834e-003
-1.316842e-003,2.133531e-003
-1.358655e-003,1.198736e-003
-1.732378e-003,1.218114e-004
-2.416456e-003,-9.484679e-004
-3.245422e-003,-1.840313e-003
-3.975530e-003,-2.414836e-003
-4.390096e-003,-2.588408e-003
-4.372593e-003,-2.380154e-003
-3.937282e-003,-1.910002e-003
-3.215926e-003,-1.343907e-003
-2.410460e-003,-8.283774e-004
-1.698344e-003,-4.433104e-004
-1.148294e-003,-1.943781e-004
-7.295177e-004,-2.988179e-005
-3.848048e-004,1.177597e-004
-8.628052e-005,2.908455e-004
1.456350e-004,4.841895e-004
2.739907e-004,6.524134e-004
2.916559e-004,7.472217e-004
2.164575e-004,7.431700e-004
8.680524e-005,6.452826e-004
-6.342931e-005,4.824068e-004
-2.000504e-004,2.853353e-004
-2.780038e-004,6.800567e-005
-2.535319e-004,-1.608306e-004
-1.079973e-004,-3.911253e-004
1.417454e-004,-6.147755e-004
4.517764e-004,-8.225431e-004
7.613214e-004,-1.012322e-003
1.015602e-003,-1.186866e-003
1.188688e-003,-1.346338e-003
1.291276e-003,-1.475666e-003
1.347512e-003,-1.552161e-003
1.374091e-003,-1.560589e-003
1.374578e-003,-1.517317e-003
1.339085e-003,-1.474856e-003
1.252542e-003,-1.475828e-003
1.115597e-003,-1.509538e-003
9.523966e-004,-1.521045e-003
7.947069e-004,-1.449736e-003
6.689441e-004,-1.259795e-003
5.908285e-004,-9.585159e-004
5.671670e-004,-5.796073e-004
5.913147e-004,-1.666649e-004
6.519272e-004,2.394708e-004
7.391184e-004,6.010387e-004
8.447851e-004,8.895152e-004
9.731410e-004,1.093069e-003
1.136179e-003,1.227098e-003
1.340706e-003,1.321420e-003
1.584128e-003,1.399211e-003
1.842785e-003,1.468900e-003
2.064978e-003,1.523354e-003
2.173238e-003,1.549770e-003
2.096094e-003,1.544746e-003
1.798703e-003,1.526595e-003
1.327903e-003,1.515088e-003
8.175581e-004,1.514440e-003
4.204978e-004,1.492885e-003
2.190506e-004,1.400994e-003
1.876099e-004,1.229853e-003
2.337985e-004,1.032457e-003
2.694529e-004,8.726604e-004
2.504913e-004,7.642386e-004
1.751309e-004,6.204865e-004
7.043665e-005,3.287688e-004
-2.339918e-005,-1.232314e-004
-7.752899e-005,-6.115342e-004
-8.968389e-005,-9.572194e-004
-6.748094e-005,-1.035335e-003
-2.583016e-005,-8.552803e-004
1.322759e-005,-5.450874e-004
2.862379e-005,-2.781658e-004
1.646890e-005,-1.865989e-004
-1.821308e-005,-3.245165e-004
-7.801519e-005,-6.721465e-004
-1.759026e-004,-1.147484e-003
-3.271096e-004,-1.621525e-003
-5.410357e-004,-1.951166e-003
-8.102262e-004,-2.028147e-003
-1.104861e-003,-1.822486e-003
-1.363031e-003,-1.382803e-003
-1.505324e-003,-8.011505e-004
-1.473722e-003,-1.849783e-004
-1.273409e-003,3.736609e-004
-9.787740e-004,8.128582e-004
-6.961322e-004,1.095987e-003
-5.094330e-004,1.226449e-003
-4.425001e-004,1.255945e-003
-4.666478e-004,1.264373e-003
-5.465460e-004,1.316720e-003
-6.561021e-004,1.438755e-003
-7.849440e-004,1.605521e-003
-9.225374e-004,1.758025e-003
-1.058996e-003,1.832251e-003
-1.176656e-003,1.790924e-003
-1.242616e-003,1.630317e-003
-1.220413e-003,1.380412e-003
-1.089141e-003,1.092907e-003
-8.674352e-004,8.164236e-004
-6.165582e-004,5.781874e-004
-4.264556e-004,3.833848e-004
-3.757291e-004,2.243987e-004
-4.984126e-004,9.069481e-005
-7.711684e-004,-3.490581e-005
-1.128036e-003,-1.590478e-004
-1.480042e-003,-2.616352e-004
-1.735133e-003,-3.258130e-004
-1.830427e-003,-3.579019e-004
-1.740319e-003,-3.794566e-004
-1.464322e-003,-4.074939e-004
-1.036307e-003,-4.420138e-004
-5.110537e-004,-4.742648e-004
4.969229e-005,-5.274223e-004
5.624671e-004,-7.000218e-004
9.303557e-004,-1.086872e-003
1.074432e-003,-1.637894e-003
9.825408e-004,-2.174979e-003
7.433321e-004,-2.502999e-003
5.127130e-004,-2.514020e-003
4.195254e-004,-2.207554e-003
5.089855e-004,-1.664635e-003
7.386322e-004,-1.004867e-003
1.003123e-003,-3.313232e-004
1.199871e-003,2.874421e-004
1.283983e-003,7.924379e-004
1.267452e-003,1.139906e-003
1.190471e-003,1.314451e-003
1.090638e-003,1.345406e-003
9.921027e-004,1.293707e-003
9.125285e-004,1.230015e-003
8.715259e-004,1.199709e-003
8.861118e-004,1.209595e-003
9.512621e-004,1.249787e-003
1.028243e-003,1.310237e-003
1.068273e-003,1.378143e-003
1.031160e-003,1.435676e-003
8.942151e-004,1.462579e-003
6.574374e-004,1.443617e-003
3.555096e-004,1.379115e-003
5.325772e-005,1.282200e-003
-1.699062e-004,1.153196e-003
-2.614731e-004,9.849718e-004
-2.196603e-004,7.838485e-004
-8.903562e-005,5.796460e-004
7.221937e-005,4.109360e-004
2.073819e-004,3.026763e-004
2.780424e-004,2.490327e-004
2.702632e-004,2.164575e-004
1.999268e-004,1.714034e-004
9.328786e-005,9.523264e-005
-3.198864e-005,-9.785688e-006
-1.762268e-004,-1.316588e-004
-3.447747e-004,-2.562870e-004
-5.196431e-004,-3.760533e-004
-6.573986e-004,-4.976023e-004
-7.188214e-004,-6.578848e-004
-6.904599e-004,-9.017931e-004
-5.943552e-004,-1.230624e-003
-4.749131e-004,-1.591867e-003
-3.635742e-004,-1.913081e-003
-2.687660e-004,-2.132193e-003
-1.851404e-004,-2.210795e-003
-9.632857e-005,-2.143214e-003
1.484824e-005,-1.948249e-003
1.511452e-004,-1.669497e-003
2.987867e-004,-1.357359e-003
4.337872e-004,-1.056727e-003
5.386435e-004,-7.967748e-004
6.042800e-004,-5.906277e-004
6.358828e-004,-4.389346e-004
6.391241e-004,-3.324577e-004
6.216210e-004,-2.579077e-004
5.866149e-004,-2.024813e-004
5.352402e-004,-1.545100e-004
4.707381e-004,-9.973194e-005
3.992672e-004,-2.728874e-005
3.242310e-004,6.103686e-005
2.563256e-004,1.564933e-004
2.083542e-004,2.386605e-004
1.803169e-004,2.876042e-004
1.425557e-004,2.997591e-004
6.849186e-005,3.039728e-004
-2.696461e-005,3.568061e-004
-9.000802e-005,5.250300e-004
-7.914964e-005,8.384645e-004
1.002961e-007,1.261131e-003
1.046324e-004,1.725612e-003
1.783722e-004,2.146821e-003
1.853410e-004,2.382789e-003
1.164632e-004,2.292032e-003
-2.210265e-005,1.849592e-003
-2.003745e-004,1.175561e-003
-3.788084e-004,4.864584e-004
-5.381186e-004,8.527692e-006
-6.899738e-004,-1.198280e-004
-8.560906e-004,9.182927e-005
-1.024963e-003,4.940755e-004
-1.158991e-003,8.924323e-004
-1.243751e-003,1.135855e-003
-1.287346e-003,1.133748e-003
-1.294964e-003,8.397611e-004
-1.281836e-003,2.347709e-004
-1.285564e-003,-6.528608e-004
-1.345690e-003,-1.700613e-003
-1.452653e-003,-2.711578e-003
-1.531093e-003,-3.464698e-003
-1.487983e-003,-3.835505e-003
-1.262226e-003,-3.832263e-003
-8.645180e-004,-3.545731e-003
-3.694086e-004,-3.091460e-003
1.423936e-004,-2.564422e-003
6.162729e-004,-2.018424e-003
1.037319e-003,-1.489928e-003
1.414770e-003,-9.987081e-004
1.755594e-003,-5.502735e-004
2.055578e-003,-1.271210e-004
2.303701e-003,2.934386e-004
2.473222e-003,7.127018e-004
2.536590e-003,1.079942e-003
2.467874e-003,1.294679e-003
2.246815e-003,1.281714e-003
1.875685e-003,1.050770e-003
1.389325e-003,7.193465e-004
8.582365e-004,4.354078e-004
3.668542e-004,2.864697e-004
-2.388537e-005,2.712356e-004
-2.984240e-004,3.376824e-004
-4.788027e-004,4.284390e-004
-5.836589e-004,5.106062e-004
-6.168823e-004,5.652222e-004
-5.729626e-004,5.836976e-004
-4.390967e-004,5.608465e-004
-2.157707e-004,4.984512e-004
5.795762e-005,4.128807e-004
3.072141e-004,3.260137e-004
4.603659e-004,2.397949e-004
4.772207e-004,1.383420e-004
3.477304e-004,2.207145e-006
9.928428e-005,-1.741199e-004
-1.959987e-004,-3.661673e-004
-4.449310e-004,-5.290429e-004
-5.799314e-004,-6.181788e-004
-6.027826e-004,-6.134789e-004
-5.886829e-004,-5.290429e-004
-6.249856e-004,-3.980942e-004
-7.290315e-004,-2.546664e-004
-8.274051e-004,-1.216107e-004
-8.154123e-004,-1.756482e-005
-6.458920e-004,3.786152e-005
-3.509331e-004,2.603075e-005
-3.085418e-005,-5.435365e-005
1.997648e-004,-1.810887e-004
2.686426e-004,-3.133340e-004
1.705930e-004,-4.228902e-004
-4.219875e-005,-4.919299e-004
-2.844864e-004,-4.925782e-004
-4.762096e-004,-3.608192e-004
-5.630766e-004,-1.934754e-005
-5.201293e-004,5.313505e-004
-3.634122e-004,1.197278e-003
-1.530514e-004,1.854130e-003
9.662150e-006,2.416175e-003
-1.358292e-006,2.836250e-003
-2.739521e-004,3.063792e-003
-7.829992e-004,3.052447e-003
-1.385558e-003,2.804972e-003
-1.901736e-003,2.363341e-003
-2.203664e-003,1.777635e-003
-2.250177e-003,1.127752e-003
-2.063964e-003,5.156302e-004
-1.698830e-003,1.128280e-005
-1.226896e-003,-3.540124e-004
-7.394037e-004,-5.925725e-004
-3.262992e-004,-7.585274e-004
-3.782299e-005,-9.296683e-004
1.323456e-004,-1.137274e-003
2.271538e-004,-1.291074e-003
2.918179e-004,-1.232406e-003
3.585888e-004,-8.834797e-004
4.441593e-004,-3.019894e-004
5.460985e-004,3.628026e-004
6.572754e-004,9.509380e-004
7.694247e-004,1.365178e-003
8.763879e-004,1.590935e-003
9.754099e-004,1.682178e-003
1.062277e-003,1.723991e-003
1.131641e-003,1.772125e-003
1.176857e-003,1.801783e-003
1.192416e-003,1.717995e-003
1.174913e-003,1.438107e-003
1.127265e-003,9.645515e-004
1.055794e-003,3.760919e-004
9.703859e-004,-2.105846e-004
8.867600e-004,-6.896496e-004
8.180443e-004,-9.859049e-004
7.819037e-004,-1.065479e-003
7.955172e-004,-9.549505e-004
8.574262e-004,-7.372968e-004
9.331108e-004,-5.073262e-004
9.650377e-004,-3.306750e-004
9.037769e-004,-2.266291e-004
7.266394e-004,-1.752544e-004
4.371906e-004,-1.421931e-004
7.967438e-005,-9.843541e-005
-2.679557e-004,-3.992984e-005
-5.236948e-004,2.311357e-005
-6.415162e-004,7.740546e-005
-6.285510e-004,1.210010e-004
-5.217500e-004,1.616794e-004
-3.535262e-004,2.036544e-004
-1.504584e-004,2.401191e-004
5.552663e-005,2.543808e-004
2.308813e-004,2.297469e-004
3.477304e-004,1.652449e-004
3.918123e-004,7.772959e-005
3.747954e-004,-1.205460e-005
3.248792e-004,-8.644259e-005
2.728562e-004,-1.360346e-004
2.462775e-004,-1.674752e-004
2.663737e-004,-2.028055e-004
3.349273e-004,-2.658489e-004
4.464283e-004,-3.692465e-004
5.815908e-004,-5.089468e-004
7.094605e-004,-6.800878e-004
7.989206e-004,-8.800763e-004
8.245269e-004,-1.094165e-003
7.833623e-004,-1.299015e-003
6.841783e-004,-1.466753e-003
5.326470e-004,-1.570312e-003
3.474063e-004,-1.593812e-003
1.595726e-004,-1.536765e-003
-5.896120e-006,-1.404358e-003
-1.314967e-004,-1.208745e-003
-2.049123e-004,-9.716432e-004
-2.198223e-004,-7.248178e-004
-1.820611e-004,-5.019780e-004
-1.081593e-004,-3.251648e-004
-1.772689e-005,-2.031296e-004
6.849186e-005,-1.302002e-004
1.279698e-004,-9.162867e-005
1.440143e-004,-6.618442e-005
1.229458e-004,-4.009191e-005
9.798775e-005,-9.461558e-006
1.107909e-004,2.181705e-005
1.871237e-004,5.050261e-005
3.242310e-004,7.870197e-005
4.926169e-004,1.106288e-004
6.477135e-004,1.501728e-004
7.467355e-004,2.038164e-004
7.666696e-004,2.770700e-004
6.995744e-004,3.545372e-004
5.449640e-004,4.002396e-004
3.062417e-004,3.796573e-004
3.017472e-006,2.848491e-004
-3.128478e-004,1.376938e-004
-5.925725e-004,-2.712668e-005
-8.175191e-004,-1.861127e-004
-9.922255e-004,-3.241924e-004
-1.128847e-003,-4.347209e-004
-1.230462e-003,-5.100812e-004
-1.267899e-003,-5.411978e-004
-1.211014e-003,-5.110537e-004
-1.061752e-003,-3.946908e-004
-8.591699e-004,-1.822232e-004
-6.638812e-004,9.247754e-005
-5.577285e-004,3.760919e-004
-6.215822e-004,6.295622e-004
-8.776453e-004,8.451093e-004
-1.246182e-003,1.030350e-003
-1.581171e-003,1.186095e-003
-1.747774e-003,1.292410e-003
-1.691375e-003,1.311858e-003
-1.453950e-003,1.210729e-003
-1.133384e-003,9.794616e-004
-8.095779e-004,6.329655e-004
-5.193190e-004,2.023578e-004
-2.752487e-004,-2.619593e-004
-8.368748e-005,-7.000218e-004
4.126489e-005,-1.058996e-003
8.793970e-005,-1.295774e-003
6.362991e-005,-1.381668e-003
-6.176923e-008,-1.316680e-003
-4.851930e-005,-1.130467e-003
-2.242678e-005,-8.773212e-004
1.052807e-004,-6.055377e-004
2.939248e-004,-3.340784e-004
4.553419e-004,-7.898758e-005
5.054200e-004,1.180839e-004
3.853296e-004,2.146748e-004
7.027458e-005,2.122438e-004
-4.053871e-004,1.457970e-004
-9.272373e-004,6.362991e-005
-1.353469e-003,7.555301e-006
-1.567719e-003,-3.303076e-006
-1.525907e-003,3.056858e-005
-1.258985e-003,8.210535e-005
-8.462047e-004,7.562274e-005
-3.856151e-004,-9.551824e-005
3.413401e-005,-4.518998e-004
3.566440e-004,-8.914209e-004
5.571189e-004,-1.245534e-003
6.344241e-004,-1.369514e-003
6.084936e-004,-1.202424e-003
5.198439e-004,-7.710064e-004
4.232529e-004,-1.673132e-004
3.665301e-004,5.214646e-004
3.720403e-004,1.231960e-003
4.347596e-004,1.900481e-003
5.329712e-004,2.440971e-003
6.434998e-004,2.772072e-003
7.507871e-004,2.846136e-003
8.449472e-004,2.678073e-003
9.172284e-004,2.350214e-003
9.592033e-004,1.977462e-003
9.734652e-004,1.655761e-003
9.805959e-004,1.442321e-003
1.021923e-003,1.343299e-003
1.139744e-003,1.319799e-003
1.337464e-003,1.293707e-003
1.560629e-003,1.169564e-003
1.704543e-003,8.702294e-004
1.653168e-003,3.777126e-004
1.336816e-003,-2.485079e-004
7.964896e-004,-8.983897e-004
1.986303e-004,-1.474532e-003
-2.572594e-004,-1.911784e-003
-4.557894e-004,-2.160393e-003
-4.079801e-004,-2.179030e-003
-2.068571e-004,-1.971100e-003
3.883391e-005,-1.616825e-003
2.488706e-004,-1.241968e-003
3.817642e-004,-9.497644e-004
4.368664e-004,-7.748959e-004
4.269804e-004,-6.919185e-004
3.639370e-004,-6.491333e-004
2.624841e-004,-6.040792e-004
1.406109e-004,-5.379565e-004
2.748934e-005,-4.497930e-004
-5.143648e-005,-3.334301e-004
-9.794922e-005,-1.436516e-004
-1.292278e-004,2.196988e-004
-1.613168e-004,8.404093e-004
-1.976194e-004,1.685744e-003
-2.327876e-004,2.608223e-003
-2.668213e-004,3.405104e-003
-3.060411e-004,3.891629e-003
-3.614674e-004,3.964883e-003
-4.373140e-004,3.610929e-003
-5.164018e-004,2.919066e-003
-5.656697e-004,2.052336e-003
-5.423322e-004,1.190633e-003
-4.246728e-004,4.345975e-004
-2.285739e-004,-2.287359e-004
-6.058186e-006,-8.330774e-004
1.858272e-004,-1.371458e-003
3.200173e-004,-1.819569e-003
4.167703e-004,-2.191996e-003
5.148199e-004,-2.574470e-003
6.238899e-004,-3.096808e-003
7.088122e-004,-3.810385e-003
7.115673e-004,-4.605158e-003
5.801322e-004,-4.968674e-003
2.939248e-004,-4.968350e-003
-9.681477e-005,-4.968350e-003
-4.784786e-004,-4.165634e-003
-7.390795e-004,-3.154017e-003
-8.162226e-004,-2.277404e-003
-7.128249e-004,-1.685217e-003
-4.781544e-004,-1.343583e-003
-1.844921e-004,-1.103564e-003
9.426025e-005,-8.264327e-004
2.992729e-004,-4.533584e-004
3.851676e-004,-1.497178e-005
3.422202e-004,4.190393e-004
2.172679e-004,7.877381e-004
9.426025e-005,1.065518e-003
4.272347e-005,1.260969e-003
8.210535e-005,1.408287e-003
1.830721e-004,1.556901e-003
2.850112e-004,1.739063e-003
3.196932e-004,1.947318e-003
2.435224e-004,2.134180e-003
5.649903e-005,2.243574e-003
-2.105846e-004,2.239036e-003
-5.188328e-004,2.116352e-003
-8.191398e-004,1.893998e-003
-1.045545e-003,1.595473e-003
-1.140839e-003,1.257566e-003
-1.103564e-003,9.391072e-004
-9.787740e-004,7.049226e-004
-8.243258e-004,5.830494e-004
-7.016424e-004,5.347540e-004
-6.402197e-004,4.825689e-004
-6.306578e-004,3.666921e-004
-6.546435e-004,1.955511e-004
-7.003459e-004,2.489629e-005
-7.685754e-004,-9.341139e-005
-8.403703e-004,-1.433275e-004
-8.614388e-004,-1.374932e-004
-7.690616e-004,-7.655660e-005
-5.324463e-004,5.390598e-005
-1.794681e-004,2.425500e-004
2.127300e-004,4.448076e-004
5.674912e-004,6.306967e-004
8.517539e-004,7.848209e-004
1.066005e-003,9.052355e-004
1.228718e-003,9.896717e-004
1.359829e-003,1.038453e-003
1.470682e-003,1.053525e-003
1.548636e-003,1.048988e-003
1.561763e-003,1.039426e-003
1.493372e-003,1.009606e-003
1.360316e-003,9.279247e-004
1.202788e-003,7.935724e-004
1.060656e-003,6.410689e-004
9.583930e-004,5.203301e-004
9.057217e-004,4.702519e-004
8.976185e-004,4.989374e-004
9.177146e-004,5.874252e-004
9.279247e-004,7.073536e-004
8.650433e-004,8.344129e-004
6.608408e-004,9.593654e-004
2.801492e-004,1.088856e-003
-2.627696e-004,1.225963e-003
-9.218892e-004,1.356912e-003
-1.627197e-003,1.453179e-003
-2.290369e-003,1.469386e-003
-2.826806e-003,1.359991e-003
-3.158717e-003,1.096149e-003
-3.201502e-003,6.796404e-004
-2.905408e-003,1.641104e-004
-2.302362e-003,-3.512573e-004
-1.505486e-003,-7.494517e-004
-6.778188e-004,-9.427955e-004
2.570662e-005,-9.184858e-004
5.109303e-004,-7.445897e-004
7.802831e-004,-5.277464e-004
9.063699e-004,-3.570916e-004
9.780029e-004,-2.663351e-004
1.061467e-003,-2.379736e-004
1.174588e-003,-2.305186e-004
1.290141e-003,-2.159328e-004
1.358371e-003,-1.942160e-004
1.340219e-003,-1.895161e-004
1.244277e-003,-2.207947e-004
1.112031e-003,-2.865932e-004
9.579068e-004,-3.579019e-004
7.695867e-004,-3.898288e-004
5.448020e-004,-3.373197e-004
2.817699e-004,-2.041020e-004
-3.458168e-005,-4.868137e-005
-4.207833e-004,4.693717e-005
-8.462047e-004,3.073064e-005
-1.231758e-003,-9.827335e-005
-1.489766e-003,-3.008550e-004
-1.563830e-003,-5.253154e-004
-1.456056e-003,-7.447518e-004
-1.232244e-003,-9.499265e-004
-9.781258e-004,-1.142136e-003
-7.492896e-004,-1.317329e-003
-5.530285e-004,-1.461567e-003
-3.604950e-004,-1.542437e-003
-1.276072e-004,-1.529148e-003
1.735102e-004,-1.422347e-003
5.378332e-004,-1.251530e-003
9.428347e-004,-1.055431e-003
1.356912e-003,-8.729455e-004
1.725612e-003,-7.369727e-004
1.959635e-003,-6.737672e-004
1.951532e-003,-6.914323e-004
1.642958e-003,-7.878611e-004
1.089990e-003,-9.588401e-004
4.757621e-004,-1.175035e-003
8.527692e-006,-1.374376e-003
-2.058847e-004,-1.488956e-003
-1.994021e-004,-1.477125e-003
-7.704279e-005,-1.338559e-003
5.763349e-005,-1.105995e-003
1.394765e-004,-8.330774e-004
1.573037e-004,-5.810658e-004
1.475797e-004,-4.224039e-004
1.534141e-004,-4.637306e-004
1.916615e-004,-8.171950e-004
2.535705e-004,-1.482311e-003
3.125623e-004,-2.354547e-003
3.422202e-004,-3.243315e-003
3.308757e-004,-3.914107e-003
2.812837e-004,-4.170820e-003
2.151610e-004,-3.913296e-003
1.620036e-004,-3.143969e-003
1.404489e-004,-1.924587e-003
1.555210e-004,-3.796187e-004
2.041406e-004,1.276042e-003
2.713977e-004,2.806268e-003
3.368721e-004,4.075737e-003
3.783608e-004,4.959005e-003
3.806297e-004,4.959168e-003
3.444891e-004,4.959168e-003
2.913317e-004,4.959005e-003
2.425500e-004,4.959005e-003
2.112714e-004,4.663394e-003
1.965235e-004,4.251094e-003
1.893926e-004,3.933928e-003
1.783722e-004,3.717893e-003
1.532520e-004,3.525195e-003
1.056048e-004,3.232989e-003
4.353380e-005,2.740145e-003
-1.853722e-005,2.011496e-003
-6.861539e-005,1.092583e-003
-9.405965e-005,1.106288e-004
-8.903562e-005,-7.491275e-004
-6.035007e-005,-1.332563e-003
-2.955766e-005,-1.587167e-003
-1.237873e-005,-1.546975e-003
-4.599598e-006,-1.299501e-003
-7.100305e-007,-9.319372e-004
-2.492749e-006,-5.110537e-004
-1.464765e-005,-8.222889e-005
-5.208474e-005,3.151553e-004
-1.366828e-004,6.446343e-004
-2.898345e-004,8.804395e-004
-5.076503e-004,1.001502e-003
-7.573929e-004,9.874027e-004
-9.957909e-004,8.073480e-004
-1.194321e-003,4.517764e-004
-1.347311e-003,-4.106429e-005
-1.454922e-003,-5.799314e-004
-1.516993e-003,-1.048624e-003
-1.537575e-003,-1.354928e-003
-1.515858e-003,-1.483446e-003
-1.437095e-003,-1.499976e-003
-1.272761e-003,-1.516183e-003
-1.016535e-003,-1.637732e-003
-6.914323e-004,-1.932042e-003
-3.376438e-004,-2.411270e-003
9.338019e-006,-3.007672e-003
3.287688e-004,-3.553186e-003
5.979594e-004,-3.865001e-003
7.882243e-004,-3.851225e-003
8.755776e-004,-3.541517e-003
8.677984e-004,-3.033602e-003
8.070238e-004,-2.392633e-003
7.456010e-004,-1.613746e-003
7.123777e-004,-7.170386e-004
7.070294e-004,2.060853e-004
7.071915e-004,1.015440e-003
6.872575e-004,1.586397e-003
6.287518e-004,1.844244e-003
5.321609e-004,1.756890e-003
4.096394e-004,1.355616e-003
2.699391e-004,7.585663e-004
1.169494e-004,1.602208e-004
-4.219875e-005,-2.391081e-004
-1.912988e-004,-3.574158e-004
-3.178718e-004,-2.728177e-004
-4.073319e-004,-1.486757e-004
-4.582204e-004,-1.323071e-004
-4.705373e-004,-2.921034e-004
-4.390967e-004,-6.543194e-004
-3.650328e-004,-1.247478e-003
-2.480217e-004,-2.029282e-003
-9.114248e-005,-2.826968e-003
7.951231e-005,-3.386095e-003
2.161334e-004,-3.482363e-003
2.702632e-004,-3.043975e-003
2.281262e-004,-2.216954e-003
1.208390e-004,-1.283781e-003
-2.006553e-006,-5.031124e-004
-1.078352e-004,3.834771e-005
-1.857886e-004,4.407560e-004
-2.455907e-004,8.716880e-004
-2.908069e-004,1.433569e-003
-3.086341e-004,2.117973e-003
-2.729798e-004,2.824906e-003
-1.643960e-004,3.420824e-003
-6.382317e-006,3.802978e-003
1.479039e-004,3.937494e-003
2.446569e-004,3.849491e-003
2.477361e-004,3.598774e-003
1.409351e-004,3.260540e-003
-5.646050e-005,2.906911e-003
-2.728177e-004,2.588451e-003
-4.139766e-004,2.325580e-003
-4.183523e-004,2.107439e-003
-3.123616e-004,1.909232e-003
-2.169052e-004,1.702598e-003
-2.579077e-004,1.462093e-003
-4.791268e-004,1.183664e-003
-8.346980e-004,8.883807e-004
-1.202910e-003,6.122212e-004
-1.433529e-003,3.947294e-004
-1.427533e-003,2.558394e-004
-1.180221e-003,1.876099e-004
-7.640376e-004,1.676758e-004
-2.940482e-004,1.744826e-004
1.182459e-004,1.934442e-004
3.918123e-004,2.162954e-004
4.913204e-004,2.415777e-004
4.234150e-004,2.723701e-004
2.255332e-004,3.093210e-004
-3.928157e-005,3.454615e-004
-2.997205e-004,3.751195e-004
-4.805854e-004,4.025085e-004
-5.191569e-004,4.307079e-004
-3.826980e-004,4.509661e-004
-8.384954e-005,4.511282e-004
3.096451e-004,4.439973e-004
7.054088e-004,4.649037e-004
1.028892e-003,5.268127e-004
1.252218e-003,6.044420e-004
1.381870e-003,6.462549e-004
1.444752e-003,6.033076e-004
1.446535e-003,4.517764e-004
1.361936e-003,2.005751e-004
1.155951e-003,-1.152902e-004
8.472161e-004,-4.655133e-004
5.269747e-004,-8.405324e-004
2.978143e-004,-1.218469e-003
2.078681e-004,-1.549082e-003
2.297469e-004,-1.792018e-003
2.947351e-004,-1.939173e-003
3.443271e-004,-2.003837e-003
3.777126e-004,-2.005134e-003
4.072085e-004,-1.973693e-003
4.311941e-004,-1.960080e-003
4.527488e-004,-1.951166e-003
4.931031e-004,-1.846148e-003
5.856425e-004,-1.536927e-003
7.514353e-004,-9.875257e-004
9.698996e-004,-2.395943e-004
1.177830e-003,6.018490e-004
1.300513e-003,1.393701e-003
1.288683e-003,2.034347e-003
1.136989e-003,2.493966e-003
8.982667e-004,2.781958e-003
6.512789e-004,2.897836e-003
4.574487e-004,2.828147e-003
3.452995e-004,2.569327e-003
3.269861e-004,2.164000e-003
4.141773e-004,1.683637e-003
5.883976e-004,1.194036e-003
7.846588e-004,7.363633e-004
9.306798e-004,3.303894e-004
9.721686e-004,-4.511593e-005
8.810877e-004,-4.577342e-004
6.311828e-004,-9.970875e-004
2.266676e-004,-1.710013e-003
-2.627696e-004,-2.515802e-003
-7.334072e-004,-3.213657e-003
-1.119447e-003,-3.601157e-003
-1.427533e-003,-3.582682e-003
-1.705475e-003,-3.200692e-003
-1.974341e-003,-2.589380e-003
-2.182434e-003,-1.899467e-003
-2.235915e-003,-1.246668e-003
-2.078874e-003,-6.967805e-004
-1.742102e-003,-2.789762e-004
-1.314411e-003,4.800190e-006
-8.946622e-004,1.657311e-004
-5.588629e-004,2.224539e-004
-3.352128e-004,2.015475e-004
-2.086398e-004,1.321835e-004
-1.488377e-004,3.040651e-005
-1.358725e-004,-1.021629e-004
-1.703924e-004,-2.606628e-004
-2.423494e-004,-4.034423e-004
-3.027998e-004,-4.588687e-004
-2.945344e-004,-4.100870e-004
-1.959987e-004,-3.413713e-004
-2.712668e-005,-3.663294e-004
1.767515e-004,-4.967919e-004
3.903536e-004,-6.492953e-004
5.968250e-004,-7.209282e-004
8.000550e-004,-6.554538e-004
1.021923e-003,-4.561135e-004
1.276528e-003,-1.686097e-004
1.549932e-003,1.704310e-004
1.798217e-003,5.482053e-004
1.968224e-003,9.412141e-004
2.026244e-003,1.290627e-003
1.970655e-003,1.509902e-003
1.796435e-003,1.526433e-003
1.480244e-003,1.316558e-003
9.874027e-004,9.042631e-004
3.156415e-004,3.587509e-004
-4.434724e-004,-1.951884e-004
-1.122040e-003,-6.024585e-004
-1.591705e-003,-7.544757e-004
-1.817786e-003,-6.460540e-004
-1.864461e-003,-3.920977e-004
-1.840962e-003,-1.639098e-004
-1.842420e-003,-8.255302e-005
-1.900764e-003,-1.585616e-004
-1.972883e-003,-3.159271e-004
-1.974179e-003,-4.337485e-004
-1.824917e-003,-3.867496e-004
-1.498355e-003,-1.441378e-004
-1.028204e-003,2.146748e-004
-4.956574e-004,5.725152e-004
9.175954e-006,8.483506e-004
4.175806e-004,1.002475e-003
6.930918e-004,1.007175e-003
8.355473e-004,8.541849e-004
8.723363e-004,5.768909e-004
8.426782e-004,2.605393e-004
7.804451e-004,8.365628e-006
7.036261e-004,-1.191798e-004
6.162729e-004,-1.326312e-004
5.190336e-004,-8.384954e-005
4.245494e-004,-2.809907e-005
3.535648e-004,-1.529591e-005
3.193690e-004,-9.308726e-005
3.183966e-004,-2.864312e-004
3.362238e-004,-5.591870e-004
3.576164e-004,-8.238396e-004
3.673404e-004,-9.978978e-004
3.587509e-004,-1.041493e-003
3.347652e-004,-9.722915e-004
3.086727e-004,-8.479874e-004
2.952213e-004,-7.110422e-004
2.961937e-004,-5.504355e-004
2.961937e-004,-3.102548e-004
2.769079e-004,4.531652e-005
2.305572e-004,4.691174e-004
1.584381e-004,8.426782e-004
7.108491e-005,1.067625e-003
-1.772689e-005,1.114786e-003
-9.956988e-005,9.989094e-004
-1.749302e-004,7.613214e-004
-2.473734e-004,4.911583e-004
-3.110651e-004,2.989488e-004
-3.485022e-004,2.487085e-004
-3.337542e-004,3.517821e-004
-2.506147e-004,5.973112e-004
-1.068628e-004,9.507760e-004
7.627100e-005,1.332278e-003
2.707494e-004,1.637448e-003
4.480489e-004,1.766290e-003
5.806184e-004,1.661272e-003
6.516031e-004,1.332927e-003
6.569512e-004,8.499712e-004
6.067110e-004,2.944109e-004
5.201680e-004,-2.707109e-004
4.180668e-004,-7.980713e-004
3.132105e-004,-1.235486e-003
2.090025e-004,-1.524934e-003
1.023635e-004,-1.664959e-003
-5.085794e-006,-1.786022e-003
-1.050801e-004,-2.081791e-003
-1.835197e-004,-2.584518e-003
-2.311669e-004,-3.096160e-003
-2.549905e-004,-3.320783e-003
-2.810830e-004,-3.052888e-003
-3.465574e-004,-2.269787e-003
-4.860956e-004,-1.120257e-003
-7.154180e-004,1.564933e-004
-1.024963e-003,1.312993e-003
-1.371783e-003,2.212782e-003
-1.681165e-003,2.809509e-003
-1.862192e-003,3.105443e-003
-1.848741e-003,3.142070e-003
-1.637408e-003,2.990051e-003
-1.285239e-003,2.730097e-003
-8.844521e-004,2.430599e-003
-5.209396e-004,2.136125e-003
-2.387840e-004,1.874388e-003
-3.247483e-005,1.663541e-003
1.289422e-004,1.492723e-003
2.699391e-004,1.331954e-003
4.015361e-004,1.141365e-003
5.213025e-004,8.921082e-004
6.250244e-004,5.862907e-004
7.172396e-004,2.613496e-004
7.977861e-004,-3.150244e-005
8.558056e-004,-2.545043e-004
8.637467e-004,-3.909633e-004
7.934103e-004,-4.437966e-004
6.410689e-004,-4.285624e-004
4.401077e-004,-3.613053e-004
2.543808e-004,-2.572594e-004
1.336421e-004,-1.290658e-004
9.182927e-005,1.306552e-005
1.158149e-004,1.644345e-004
1.856651e-004,3.240689e-004
2.864697e-004,4.615004e-004
4.109360e-004,5.224369e-004
5.454503e-004,4.739794e-004
6.660269e-004,3.321722e-004
7.349047e-004,1.522796e-004
7.089743e-004,-6.706447e-006
5.585775e-004,-1.178833e-004
2.858215e-004,-2.026434e-004
-7.671866e-005,-3.228959e-004
-4.669719e-004,-5.447632e-004
-8.189777e-004,-9.171893e-004
-1.089303e-003,-1.452977e-003
-1.262064e-003,-2.077415e-003
-1.320408e-003,-2.620173e-003
-1.235486e-003,-2.909460e-003
-1.006325e-003,-2.863595e-003
-6.849497e-004,-2.518233e-003
-3.499608e-004,-1.991520e-003
-7.817725e-005,-1.415378e-003
5.730935e-005,-8.910968e-004
1.873781e-005,-4.703753e-004
-1.532135e-004,-1.553203e-004
-3.379679e-004,7.481241e-005
-4.036044e-004,2.329882e-004
-2.760590e-004,3.064038e-004
1.079661e-005,2.764217e-004
3.393030e-004,1.611932e-004
5.809425e-004,2.586868e-005
6.551685e-004,-6.148453e-005
5.435055e-004,-6.586029e-005
3.065659e-004,6.582909e-006
6.427817e-005,1.265113e-004
-6.472583e-005,2.391467e-004
-3.571614e-005,2.331503e-004
1.088461e-004,2.586868e-005
2.801492e-004,-3.348887e-004
4.020224e-004,-7.042355e-004
4.414042e-004,-9.329096e-004
4.106118e-004,-9.222133e-004
3.438409e-004,-6.463782e-004
2.751252e-004,-1.596961e-004
2.305572e-004,4.392974e-004
2.153231e-004,1.047205e-003
2.135403e-004,1.583804e-003
2.187264e-004,1.977462e-003
2.603772e-004,2.178262e-003
3.880847e-004,2.187175e-003
6.318311e-004,2.081346e-003
9.838373e-004,1.983296e-003
1.396618e-003,1.977138e-003
1.800810e-003,2.080860e-003
2.127859e-003,2.249571e-003
2.327038e-003,2.397861e-003
2.364962e-003,2.455719e-003
2.220723e-003,2.394296e-003
1.889298e-003,2.232554e-003
1.400346e-003,2.011658e-003
8.075100e-004,1.774069e-003
1.923098e-004,1.552201e-003
-3.462333e-004,1.350592e-003
-7.254661e-004,1.149144e-003
-9.293442e-004,9.100975e-004
-1.010863e-003,5.995801e-004
-1.039224e-003,1.949028e-004
-1.050893e-003,-3.152788e-004
-1.076175e-003,-9.275614e-004
-1.147160e-003,-1.601591e-003
-1.273571e-003,-2.239157e-003
-1.420402e-003,-2.711091e-003
-1.544544e-003,-2.926801e-003
-1.655235e-003,-2.889526e-003
-1.788939e-003,-2.695695e-003
-1.945656e-003,-2.467993e-003
-2.059102e-003,-2.286155e-003
-2.018261e-003,-2.162662e-003
-1.749881e-003,-2.061208e-003
-1.281674e-003,-1.937553e-003
-7.220627e-004,-1.767870e-003
-1.971332e-004,-1.565613e-003
2.086784e-004,-1.366758e-003
4.801379e-004,-1.197886e-003
6.439860e-004,-1.068072e-003
7.311772e-004,-9.718052e-004
7.619697e-004,-8.962828e-004
7.556491e-004,-8.319429e-004
7.336082e-004,-7.710064e-004
7.097846e-004,-7.095836e-004
6.841783e-004,-6.429748e-004
6.533858e-004,-5.729626e-004
6.164349e-004,-4.979264e-004
5.671670e-004,-4.207833e-004
4.867825e-004,-3.449367e-004
3.611819e-004,-2.794623e-004
1.968476e-004,-2.335979e-004
8.203562e-006,-2.190120e-004
-1.713648e-004,-2.413770e-004
-2.987481e-004,-2.950206e-004
-3.394265e-004,-3.830221e-004
-2.807589e-004,-5.104054e-004
-1.394379e-004,-6.522125e-004
2.748934e-005,-7.520447e-004
1.393144e-004,-7.176869e-004
1.592484e-004,-4.718339e-004
1.184080e-004,-2.777494e-005
6.573675e-005,5.227611e-004
2.278944e-005,1.089504e-003
-1.821308e-005,1.592394e-003
-8.352541e-005,1.918146e-003
-1.912988e-004,1.915877e-003
-3.502849e-004,1.539722e-003
-5.356876e-004,9.447795e-004
-6.800878e-004,4.049396e-004
-7.034251e-004,1.590864e-004
-5.598353e-004,2.948972e-004
-2.624455e-004,7.417115e-004
1.234320e-004,1.337789e-003
5.148199e-004,1.922522e-003
8.507816e-004,2.362369e-003
1.108952e-003,2.535131e-003
1.298245e-003,2.373065e-003
1.436649e-003,1.925925e-003
1.534860e-003,1.340382e-003
1.594014e-003,7.927621e-004
1.610545e-003,4.002396e-004
1.585425e-003,1.832341e-004
1.525623e-003,9.426025e-005
1.434380e-003,8.469840e-005
1.314127e-003,1.331559e-004
1.167458e-003,2.206712e-004
1.006364e-003,3.263378e-004
8.475402e-004,4.320045e-004
7.120535e-004,5.237334e-004
6.281036e-004,5.691118e-004
6.102764e-004,5.250300e-004
6.454446e-004,3.621543e-004
6.890402e-004,8.210535e-005
6.947125e-004,-2.791382e-004
6.342620e-004,-6.677708e-004
5.008822e-004,-1.033390e-003
3.057555e-004,-1.339532e-003
6.362991e-005,-1.572581e-003
-2.209568e-004,-1.721033e-003
-5.363359e-004,-1.759929e-003
-8.518770e-004,-1.663176e-003
-1.129009e-003,-1.421698e-003
-1.333049e-003,-1.040845e-003
-1.441795e-003,-5.287188e-004
-1.438878e-003,7.254349e-005
-1.314573e-003,6.806127e-004
-1.071475e-003,1.220615e-003
-7.306521e-004,1.643931e-003
-3.467195e-004,1.906639e-003
7.555301e-006,1.962714e-003
2.592428e-004,1.807617e-003
3.655576e-004,1.520761e-003
3.420582e-004,1.237146e-003
2.477361e-004,1.069246e-003
1.430419e-004,1.039750e-003
6.784360e-005,1.079942e-003
3.559260e-005,1.077997e-003
3.915804e-005,9.410520e-004
6.703327e-005,6.396103e-004
1.078737e-004,2.002510e-004
1.616794e-004,-3.507711e-004
2.245608e-004,-1.013456e-003
2.615117e-004,-1.748746e-003
2.077060e-004,-2.422453e-003
1.176900e-005,-2.827779e-003
-3.204649e-004,-2.803955e-003
-7.197938e-004,-2.337206e-003
-1.080713e-003,-1.588302e-003
-1.327215e-003,-8.152502e-004
-1.487335e-003,-2.570974e-004
-1.678734e-003,-3.749886e-005
-1.988117e-003,-1.556445e-004
-2.370754e-003,-5.350393e-004
-2.684837e-003,-1.034200e-003
-2.789207e-003,-1.465132e-003
-2.627790e-003,-1.661069e-003
-2.251473e-003,-1.550216e-003
-1.784401e-003,-1.156236e-003
-1.342611e-003,-5.736109e-004
-9.899565e-004,8.388807e-005
-7.308142e-004,7.101087e-004
-5.368221e-004,1.226936e-003
-3.851289e-004,1.570029e-003
-2.673075e-004,1.692712e-003
-1.737958e-004,1.589152e-003
-7.299116e-005,1.301810e-003
7.059871e-005,9.209559e-004
2.657254e-004,5.496639e-004
4.835413e-004,2.795009e-004
6.783439e-004,1.616794e-004
8.164236e-004,1.898788e-004
8.893532e-004,3.119140e-004
9.071803e-004,4.555039e-004
8.830326e-004,5.527431e-004
8.245269e-004,5.639257e-004
7.379840e-004,4.718725e-004
6.376655e-004,2.814457e-004
5.483674e-004,2.019640e-005
5.007202e-004,-2.721694e-004
5.119027e-004,-5.481666e-004
5.802943e-004,-7.547998e-004
6.913091e-004,-8.518770e-004
8.160995e-004,-8.264327e-004
9.238730e-004,-6.993735e-004
9.925888e-004,-5.155915e-004
1.012361e-003,-3.224097e-004
1.000044e-003,-1.441378e-004
9.908061e-004,1.776542e-005
1.024030e-003,1.725378e-004
1.121431e-003,3.289309e-004
1.280579e-003,4.854860e-004
1.458852e-003,6.259967e-004
1.576349e-003,7.242084e-004
1.538912e-003,7.603490e-004
1.271828e-003,7.316634e-004
7.731522e-004,6.498204e-004
1.663793e-004,5.360505e-004
-3.502849e-004,4.162841e-004
-6.274165e-004,3.086727e-004
-6.385990e-004,2.159713e-004
-4.624341e-004,1.261871e-004
-2.169052e-004,2.975825e-005
5.448452e-006,-6.667062e-005
1.657311e-004,-1.407345e-004
2.845250e-004,-1.773612e-004
3.982949e-004,-1.958367e-004
5.169268e-004,-2.331117e-004
6.128695e-004,-2.971275e-004
6.341000e-004,-3.512573e-004
5.339436e-004,-3.271096e-004
3.109416e-004,-1.702304e-004
1.695509e-005,1.172735e-004
-2.609869e-004,4.793275e-004
-4.407173e-004,8.417058e-004
-4.830164e-004,1.148982e-003
-4.011734e-004,1.382032e-003
-2.410529e-004,1.556901e-003
-5.030202e-005,1.684771e-003
1.359110e-004,1.746680e-003
3.013798e-004,1.689309e-003
4.375147e-004,1.426601e-003
5.417228e-004,9.263040e-004
5.997422e-004,2.694529e-004
5.812666e-004,-3.815635e-004
4.605280e-004,-8.693800e-004
2.265056e-004,-1.101620e-003
-1.075111e-004,-1.047328e-003
-4.927403e-004,-7.468587e-004
-8.483115e-004,-3.368335e-004
-1.098216e-003,-5.273300e-005
-1.200155e-003,-9.017008e-005
-1.162232e-003,-4.635685e-004
-1.019777e-003,-1.015563e-003
-8.149261e-004,-1.538224e-003
-5.752315e-004,-1.884882e-003
-3.062031e-004,-1.972721e-003
-1.010982e-005,-1.767870e-003
2.807975e-004,-1.269843e-003
5.169268e-004,-5.361738e-004
6.506307e-004,2.786906e-004
6.558168e-004,9.543414e-004
5.311884e-004,1.324013e-003
2.877662e-004,1.336816e-003
-7.671866e-005,1.073135e-003
-5.640491e-004,6.984400e-004
-1.159639e-003,3.756057e-004
-1.791694e-003,2.002510e-004
-2.344661e-003,1.932822e-004
-2.692616e-003,3.177483e-004
-2.756794e-003,5.034753e-004
-2.545947e-003,6.827196e-004
-2.138514e-003,8.139926e-004
-1.627035e-003,8.786568e-004
-1.092382e-003,8.806016e-004
-5.993792e-004,8.376542e-004
-1.835197e-004,7.665075e-004
1.423936e-004,6.692683e-004
3.952156e-004,5.465847e-004
6.174073e-004,3.992672e-004
8.313337e-004,2.333123e-004
1.009768e-003,6.249545e-005
1.090801e-003,-1.010285e-004
1.025002e-003,-2.449425e-004
8.203132e-004,-3.536883e-004
5.495019e-004,-4.013355e-004
3.156415e-004,-3.878840e-004
1.921477e-004,-3.687603e-004
1.874478e-004,-4.416897e-004
2.628082e-004,-6.826808e-004
3.694472e-004,-1.084117e-003
4.629590e-004,-1.539520e-003
5.371849e-004,-1.873051e-003
6.229175e-004,-1.907246e-003
7.452769e-004,-1.588302e-003
8.984288e-004,-1.017021e-003
1.039912e-003,-3.645466e-004
1.125969e-003,2.175920e-004
1.139906e-003,6.310208e-004
1.095500e-003,8.201511e-004
1.025812e-003,7.833623e-004
9.587171e-004,5.781874e-004
9.036149e-004,2.991108e-004
8.511057e-004,3.364782e-005
7.796348e-004,-1.823853e-004
6.710509e-004,-3.522297e-004
5.135234e-004,-4.941989e-004
3.086727e-004,-6.313061e-004
7.886404e-005,-8.034194e-004
-1.383035e-004,-1.067262e-003
-3.047445e-004,-1.453625e-003
-3.828600e-004,-1.925722e-003
-3.502849e-004,-2.389877e-003
-2.143121e-004,-2.722760e-003
-1.399939e-005,-2.825672e-003
1.932822e-004,-2.670575e-003
3.623164e-004,-2.305765e-003
4.738173e-004,-1.816166e-003
5.300540e-004,-1.280378e-003
5.431813e-004,-7.338934e-004
5.151440e-004,-1.494860e-004
4.313562e-004,5.055821e-004
2.756114e-004,1.201005e-003
5.585077e-005,1.856399e-003
-2.016710e-004,2.371769e-003
-4.575721e-004,2.663326e-003
-6.567503e-004,2.688932e-003
-7.450759e-004,2.446805e-003
-7.011562e-004,1.969845e-003
-5.504355e-004,1.326120e-003
-3.434782e-004,6.418792e-004
-1.271210e-004,8.145709e-005
6.006447e-005,-2.209568e-004
1.790204e-004,-2.454286e-004
2.020337e-004,-8.741498e-005
1.263492e-004,8.016057e-005
-1.902341e-005,6.914012e-005
-1.833576e-004,-2.775176e-004
-3.222476e-004,-1.032742e-003
-3.924218e-004,-2.110477e-003
-3.697327e-004,-3.230188e-003
-2.600145e-004,-4.016046e-003
-9.146661e-005,-4.186216e-003
9.474644e-005,-3.694993e-003
2.576221e-004,-2.735563e-003
3.696093e-004,-1.603212e-003
4.166082e-004,-5.559457e-004
4.051016e-004,2.592428e-004
3.653956e-004,8.170719e-004
3.336308e-004,1.155303e-003
3.354135e-004,1.314613e-003
3.689610e-004,1.344433e-003
4.104497e-004,1.308941e-003
4.451317e-004,1.266804e-003
4.790034e-004,1.265021e-003
5.256782e-004,1.336168e-003
5.802943e-004,1.493372e-003
6.106006e-004,1.732580e-003
5.734875e-004,2.032564e-003
4.428628e-004,2.350376e-003
2.235884e-004,2.629129e-003
-4.462973e-005,2.817451e-003
-2.959930e-004,2.888922e-003
-4.706994e-004,2.850026e-003
-5.332566e-004,2.745655e-003
-4.783165e-004,2.655222e-003
-3.293785e-004,2.646147e-003
-1.303623e-004,2.729287e-003
6.881599e-005,2.854564e-003
2.386605e-004,2.943376e-003
3.786850e-004,2.933814e-003
5.007202e-004,2.810968e-003
6.080075e-004,2.606116e-003
6.964952e-004,2.369986e-003
7.585663e-004,2.147955e-003
7.846588e-004,1.968224e-003
7.514353e-004,1.825282e-003
6.386379e-004,1.684447e-003
4.454559e-004,1.505689e-003
1.795066e-004,1.262266e-003
-1.480274e-004,9.476967e-004
-5.095950e-004,5.618189e-004
-8.518770e-004,1.009049e-004
-1.109885e-003,-4.309934e-004
-1.259957e-003,-1.000653e-003
-1.363679e-003,-1.550703e-003
-1.523638e-003,-2.002055e-003
-1.800445e-003,-2.292638e-003
-2.158934e-003,-2.397333e-003
-2.486631e-003,-2.338827e-003
-2.667982e-003,-2.168172e-003
-2.623900e-003,-1.921994e-003
-2.334613e-003,-1.620229e-003
-1.840313e-003,-1.351848e-003
-1.227868e-003,-1.278919e-003
-6.073205e-004,-1.489766e-003
-7.623246e-005,-1.907571e-003
3.132105e-004,-2.346120e-003
5.551741e-004,-2.620010e-003
6.793162e-004,-2.618228e-003
7.279359e-004,-2.355520e-003
7.321496e-004,-1.983093e-003
7.133500e-004,-1.666579e-003
6.832058e-004,-1.469184e-003
6.418792e-004,-1.359141e-003
5.943940e-004,-1.265468e-003
5.512846e-004,-1.128684e-003
5.225990e-004,-8.928794e-004
5.144958e-004,-4.992229e-004
5.263265e-004,6.654708e-005
5.606844e-004,7.666696e-004
6.125454e-004,1.525298e-003
6.734819e-004,2.238550e-003
7.298806e-004,2.782444e-003
7.624559e-004,3.054230e-003
7.532181e-004,3.008365e-003
6.909850e-004,2.673212e-003
5.845079e-004,2.149738e-003
4.577728e-004,1.577484e-003
3.268240e-004,1.074594e-003
1.963614e-004,6.840162e-004
6.687121e-005,3.762539e-004
-5.078821e-005,9.750156e-005
-1.235555e-004,-1.998883e-004
-1.180453e-004,-5.397392e-004
-2.680255e-005,-9.465230e-004
1.281319e-004,-1.424616e-003
3.088348e-004,-1.938525e-003
4.783552e-004,-2.414836e-003
6.185417e-004,-2.757442e-003
7.198326e-004,-2.889364e-003
7.812555e-004,-2.797148e-003
8.042688e-004,-2.533954e-003
7.836864e-004,-2.188268e-003
7.206430e-004,-1.824431e-003
6.224313e-004,-1.466104e-003
4.921307e-004,-1.117016e-003
3.384927e-004,-7.901301e-004
1.749688e-004,-5.050572e-004
2.181705e-005,-2.690902e-004
-9.568031e-005,-7.914964e-005
-1.592099e-004,7.092284e-005
-1.682856e-004,1.837203e-004
-1.449482e-004,2.707494e-004
-1.282554e-004,3.597233e-004
-1.609926e-004,4.749518e-004
-2.692523e-004,6.258347e-004
-4.588687e-004,8.225822e-004
-7.133111e-004,1.119324e-003
-9.906049e-004,1.566787e-003
-1.228193e-003,2.126239e-003
-1.360276e-003,2.680829e-003
-1.355252e-003,3.111763e-003
-1.225924e-003,3.329581e-003
-1.006163e-003,3.277395e-003
-7.319486e-004,2.931708e-003
-4.306693e-004,2.328497e-003
-1.308485e-004,1.576349e-003
1.380179e-004,8.250132e-004
3.456236e-004,1.867996e-004
4.542074e-004,-3.209511e-004
4.352458e-004,-7.389174e-004
2.931144e-004,-1.109561e-003
7.659513e-005,-1.453788e-003
-1.310105e-004,-1.792180e-003
-2.541802e-004,-2.153748e-003
-2.643903e-004,-2.515964e-003
-1.864369e-004,-2.779159e-003
-7.720486e-005,-2.816758e-003
6.258778e-006,-2.539950e-003
2.603075e-005,-1.963645e-003
-2.275091e-005,-1.210041e-003
-1.224211e-004,-4.510895e-004
-2.553146e-004,1.798307e-004
-3.990665e-004,6.339379e-004
-5.191569e-004,9.206317e-004
-5.862520e-004,1.050770e-003
-5.932208e-004,1.029054e-003
-5.531906e-004,8.768741e-004
-4.728062e-004,6.444722e-004
-3.459091e-004,3.897054e-004
-1.718510e-004,1.360731e-004
4.483033e-005,-1.289037e-004
2.879283e-004,-4.399070e-004
5.323229e-004,-8.369670e-004
7.543526e-004,-1.344231e-003
9.399176e-004,-1.925560e-003
1.072649e-003,-2.443845e-003
1.128076e-003,-2.721788e-003
1.095014e-003,-2.652424e-003
9.966405e-004,-2.237698e-003
8.872462e-004,-1.566909e-003
8.206373e-004,-7.862405e-004
8.167478e-004,-5.419158e-005
8.548332e-004,5.110924e-004
8.882187e-004,8.671501e-004
8.752534e-004,1.032943e-003
7.977861e-004,1.055146e-003
6.472273e-004,9.862683e-004
4.172565e-004,8.692570e-004
1.195424e-004,7.452769e-004
-2.117191e-004,6.509548e-004
-5.345531e-004,6.033076e-004
-8.095779e-004,5.893700e-004
-9.991943e-004,5.655463e-004
-1.089465e-003,4.786793e-004
-1.080389e-003,2.879283e-004
-9.743983e-004,-1.367526e-005
-7.831613e-004,-3.817256e-004
-5.413599e-004,-7.300039e-004
-2.896725e-004,-9.546264e-004
-6.326724e-005,-9.855808e-004
1.163011e-004,-8.128192e-004
2.362295e-004,-4.728062e-004
3.015418e-004,4.800190e-006
3.287688e-004,5.861287e-004
3.394651e-004,1.215267e-003
3.564820e-004,1.835492e-003
3.940812e-004,2.394134e-003
4.555039e-004,2.829444e-003
5.379952e-004,3.081295e-003
6.409068e-004,3.095071e-003
7.551629e-004,2.860560e-003
8.588848e-004,2.434812e-003
9.269523e-004,1.950397e-003
9.347314e-004,1.540371e-003
8.595330e-004,1.269073e-003
7.099467e-004,1.112679e-003
5.341057e-004,9.854579e-004
3.893813e-004,7.948689e-004
3.130485e-004,4.726828e-004
3.059176e-004,-1.513384e-005
3.339549e-004,-6.496195e-004
3.571303e-004,-1.320732e-003
3.525924e-004,-1.849389e-003
3.264999e-004,-2.055374e-003
3.085106e-004,-1.848741e-003
3.245551e-004,-1.298853e-003
3.843572e-004,-5.966241e-004
4.913204e-004,4.547859e-005
6.350724e-004,4.892136e-004
7.715315e-004,7.175637e-004
8.452713e-004,8.007033e-004
8.160995e-004,8.253373e-004
6.789921e-004,8.475402e-004
4.602039e-004,8.854635e-004
1.983062e-004,9.274385e-004
-6.553616e-005,9.459140e-004
-2.854588e-004,9.076665e-004
-4.188385e-004,7.992447e-004
-4.386105e-004,6.263209e-004
-3.616295e-004,4.023465e-004
-2.601766e-004,1.365593e-004
-2.332737e-004,-1.679614e-004
-3.627639e-004,-4.901472e-004
-6.878669e-004,-7.786234e-004
-1.171470e-003,-9.700225e-004
-1.713092e-003,-1.027394e-003
-2.184054e-003,-9.598124e-004
-2.470100e-003,-8.298361e-004
-2.519530e-003,-7.620928e-004
-2.355520e-003,-9.120032e-004
-2.042085e-003,-1.326080e-003
-1.652318e-003,-1.883261e-003
-1.259309e-003,-2.384529e-003
-9.139480e-004,-2.658744e-003
-6.332509e-004,-2.615635e-003
-4.287245e-004,-2.243370e-003
-3.151167e-004,-1.584088e-003
-2.710350e-004,-7.290315e-004
-2.152845e-004,1.754550e-004
-5.451572e-005,9.517483e-004
2.636185e-004,1.473762e-003
7.310151e-004,1.698547e-003
1.278797e-003,1.662406e-003
1.799514e-003,1.454314e-003
2.176479e-003,1.182043e-003
2.309049e-003,9.331108e-004
2.137097e-003,7.660213e-004
1.690930e-003,7.078398e-004
1.106197e-003,7.585663e-004
5.388056e-004,8.953495e-004
7.367795e-005,1.080428e-003
-3.019894e-004,1.253190e-003
-6.437852e-004,1.361612e-003
-9.580297e-004,1.385274e-003
-1.184597e-003,1.304727e-003
-1.258175e-003,1.057577e-003
-1.168391e-003,5.815908e-004
-9.778016e-004,-6.877746e-005
-7.914266e-004,-7.364865e-004
-6.930530e-004,-1.251206e-003
-6.946736e-004,-1.496573e-003
-7.544757e-004,-1.433691e-003
-8.193018e-004,-1.108102e-003
-8.520390e-004,-6.342233e-004
-8.481495e-004,-1.350622e-004
-8.350222e-004,2.748010e-004
-8.661387e-004,4.924549e-004
-9.883359e-004,4.297355e-004
-1.204855e-003,6.233338e-005
-1.444874e-003,-4.951713e-004
-1.587167e-003,-1.012808e-003
-1.518290e-003,-1.259309e-003
-1.194969e-003,-1.127550e-003
-6.749016e-004,-6.880290e-004
-9.308726e-005,-1.118868e-004
4.089912e-004,4.428628e-004
7.473837e-004,8.955116e-004
9.060458e-004,1.234553e-003
9.143112e-004,1.477813e-003
8.430023e-004,1.656086e-003
7.791486e-004,1.805024e-003
7.872519e-004,1.944401e-003
8.862739e-004,2.062871e-003
1.047853e-003,2.130290e-003
1.221263e-003,2.125590e-003
1.369391e-003,2.045854e-003
1.476517e-003,1.901453e-003
1.537940e-003,1.703733e-003
1.556901e-003,1.463389e-003
1.537940e-003,1.191281e-003
1.487537e-003,8.969702e-004
1.407639e-003,5.888838e-004
1.301810e-003,2.726942e-004
1.179288e-003,-6.229485e-005
1.054174e-003,-4.395829e-004
9.395934e-004,-8.732696e-004
8.358715e-004,-1.356062e-003
7.227498e-004,-1.851172e-003
5.708945e-004,-2.297824e-003
3.582647e-004,-2.628600e-003
8.745350e-005,-2.792124e-003
-2.162569e-004,-2.775432e-003
-4.937127e-004,-2.607856e-003
-6.774947e-004,-2.349361e-003
-7.290315e-004,-2.066071e-003
-6.606399e-004,-1.803525e-003
-5.186707e-004,-1.585709e-003
-3.587123e-004,-1.407437e-003
-2.224154e-004,-1.251530e-003
-1.256624e-004,-1.103402e-003
-6.018800e-005,-9.624055e-004
-6.382317e-006,-8.387497e-004
5.017848e-005,-7.441035e-004
1.099806e-004,-6.818705e-004
1.658931e-004,-6.434610e-004
2.167816e-004,-6.175305e-004
2.741528e-004,-5.930586e-004
3.485408e-004,-5.514079e-004
4.405939e-004,-4.762096e-004
5.418848e-004,-3.784843e-004
6.326414e-004,-2.955068e-004
6.953608e-004,-2.621213e-004
7.165913e-004,-2.666592e-004
6.940642e-004,-2.394322e-004
6.400964e-004,-6.942573e-005
5.660325e-004,3.004074e-004
4.721967e-004,8.196649e-004
3.555096e-004,1.385112e-003
2.148369e-004,1.905667e-003
6.492643e-005,2.318611e-003
-7.137051e-005,2.559441e-003
-1.676373e-004,2.568193e-003
-2.081536e-004,2.319908e-003
-1.896782e-004,1.859478e-003
-1.232314e-004,1.294355e-003
-2.647842e-005,7.394425e-004
7.205730e-005,2.623220e-004
1.399627e-004,-1.339277e-004
1.618415e-004,-4.903093e-004
1.368834e-004,-8.731075e-004
6.346784e-005,-1.373403e-003
-6.099833e-005,-2.061046e-003
-2.086398e-004,-2.923560e-003
-3.285682e-004,-3.814760e-003
-3.911253e-004,-4.502570e-003
-4.100870e-004,-4.811469e-003
-4.207833e-004,-4.761390e-003
-4.476861e-004,-4.504191e-003
-4.841508e-004,-4.165796e-003
-5.061917e-004,-3.776351e-003
-4.812336e-004,-3.295176e-003
-3.763774e-004,-2.667658e-003
-1.919471e-004,-1.874833e-003
3.640293e-005,-9.543023e-004
2.469258e-004,1.582063e-005
3.754436e-004,9.412141e-004
3.919743e-004,1.753649e-003
3.119140e-004,2.428006e-003
1.887444e-004,2.963796e-003
6.849186e-005,3.371880e-003
-3.539201e-005,3.663600e-003
-1.240417e-004,3.847708e-003
-1.989159e-004,3.938142e-003
-2.491561e-004,3.956942e-003
-2.609869e-004,3.930363e-003
-2.212809e-004,3.870398e-003
-1.387897e-004,3.768458e-003
-5.694670e-005,3.609956e-003
-3.215070e-005,3.392625e-003
-9.098041e-005,3.129591e-003
-2.076674e-004,2.839168e-003
-3.147926e-004,2.536428e-003
-3.395886e-004,2.227368e-003
-2.634179e-004,1.913770e-003
-1.405724e-004,1.607628e-003
-5.419158e-005,1.327254e-003
-7.688073e-005,1.084804e-003
-2.444563e-004,8.729845e-004
-5.308256e-004,6.705648e-004
-8.526873e-004,4.580970e-004
-1.104861e-003,2.355812e-004
-1.193997e-003,1.906194e-005
-1.084441e-003,-1.771992e-004
-8.081193e-004,-3.442885e-004
-4.407173e-004,-4.849611e-004
-7.137051e-005,-6.055377e-004
2.162954e-004,-7.162283e-004
3.582647e-004,-8.155743e-004
3.253654e-004,-8.844521e-004
1.399627e-004,-8.927174e-004
-1.357104e-004,-8.188156e-004
-4.177041e-004,-6.714982e-004
-6.407059e-004,-5.003574e-004
-7.744097e-004,-3.630881e-004
-8.259465e-004,-2.912931e-004
-8.287016e-004,-2.668213e-004
-8.214086e-004,-2.417012e-004
-8.181673e-004,-1.760647e-004
-7.923990e-004,-8.044617e-005
-7.123387e-004,-3.465141e-006
-5.770142e-004,8.365628e-006
-4.144627e-004,-5.208474e-005
-2.661730e-004,-1.507825e-004
-1.885437e-004,-2.245222e-004
-2.373254e-004,-2.131776e-004
-4.143007e-004,-9.665270e-005
-6.353577e-004,8.972242e-005
-7.661444e-004,2.671840e-004
-7.027769e-004,3.462718e-004
-4.238625e-004,2.579462e-004
2.207145e-006,-4.236082e-005
4.532350e-004,-5.549733e-004
8.146409e-004,-1.191242e-003
1.034564e-003,-1.770625e-003
1.134072e-003,-2.090542e-003
1.177992e-003,-2.016316e-003
1.224505e-003,-1.562371e-003
1.310237e-003,-8.784557e-004
1.446697e-003,-1.598582e-004
1.608762e-003,4.388112e-004
1.721722e-003,8.530504e-004
1.679747e-003,1.092097e-003
1.385436e-003,1.191281e-003
8.267959e-004,1.179937e-003
1.315353e-004,1.083183e-003
-4.809095e-004,9.263040e-004
-8.227052e-004,7.300428e-004
-8.225431e-004,5.279472e-004
-5.426564e-004,3.689610e-004
-1.308485e-004,2.931144e-004
2.483844e-004,2.905214e-004
4.783552e-004,3.030004e-004
5.208163e-004,2.519498e-004
4.028327e-004,8.064677e-005
1.816135e-004,-2.193361e-004
-8.368748e-005,-6.183409e-004
-3.297026e-004,-1.056727e-003
-4.864197e-004,-1.434988e-003
-5.011677e-004,-1.645187e-003
-3.656811e-004,-1.628332e-003
-1.264727e-004,-1.413919e-003
1.370455e-004,-1.088168e-003
3.509718e-004,-7.416725e-004
4.751139e-004,-4.356933e-004
4.984512e-004,-1.836818e-004
4.401077e-004,4.094075e-005
3.329825e-004,2.631324e-004
2.124059e-004,4.657141e-004
1.163011e-004,5.939078e-004
6.962632e-005,5.890459e-004
8.550872e-005,4.149876e-004
1.665414e-004,7.335383e-005
3.033245e-004,-3.993907e-004
4.807861e-004,-9.296683e-004
6.757508e-004,-1.400792e-003
8.598572e-004,-1.686351e-003
1.007823e-003,-1.712120e-003
1.095662e-003,-1.494628e-003
1.099228e-003,-1.137274e-003
9.909682e-004,-7.693857e-004
7.488423e-004,-4.836646e-004
3.877606e-004,-3.237062e-004
-3.134038e-005,-2.912931e-004
-4.227281e-004,-3.574158e-004
-7.194696e-004,-4.659995e-004
-9.029275e-004,-5.531906e-004
-9.980599e-004,-5.757177e-004
-1.045707e-003,-5.258016e-004
-1.075527e-003,-4.267797e-004
-1.091085e-003,-3.052308e-004
-1.067586e-003,-1.707166e-004
-9.677536e-004,-2.793700e-005
-7.653341e-004,1.145184e-004
-4.637306e-004,2.431983e-004
-1.024871e-004,3.478926e-004
2.391467e-004,4.263322e-004
4.720346e-004,4.841895e-004
5.590637e-004,5.272989e-004
5.332953e-004,5.535535e-004
4.572867e-004,5.631154e-004
3.827366e-004,5.648981e-004
3.311998e-004,5.661946e-004
3.018659e-004,5.647360e-004
2.960316e-004,5.548500e-004
3.146691e-004,5.311884e-004
3.430306e-004,4.801379e-004
3.380065e-004,3.783608e-004
2.519498e-004,2.093267e-004
7.546067e-005,-2.696461e-005
-1.447861e-004,-3.031239e-004
-3.303509e-004,-5.682627e-004
-4.115456e-004,-7.601480e-004
-3.553089e-004,-8.214086e-004
-1.733096e-004,-7.108802e-004
8.356394e-005,-4.358554e-004
3.405996e-004,-5.775702e-005
5.363746e-004,3.093210e-004
6.362069e-004,5.084993e-004
6.373413e-004,4.284390e-004
5.676532e-004,8.810177e-005
4.687933e-004,-3.747568e-004
3.723644e-004,-7.708443e-004
2.999212e-004,-9.356647e-004
2.644289e-004,-7.710064e-004
2.713977e-004,-2.927517e-004
3.064038e-004,3.772264e-004
3.368721e-004,1.053201e-003
3.341170e-004,1.553984e-003
2.923041e-004,1.743277e-003
2.271538e-004,1.557388e-003
1.631380e-004,1.062925e-003
1.210010e-004,5.211404e-004
9.652917e-005,2.696149e-004
5.617490e-005,4.966686e-004
-3.863332e-005,1.164540e-003
-2.031296e-004,2.071622e-003
-4.078181e-004,2.947590e-003
-5.954896e-004,3.538485e-003
-7.125008e-004,3.643828e-003
-7.189835e-004,3.186800e-003
-6.086170e-004,2.303052e-003
-4.120317e-004,1.279607e-003
-1.820611e-004,3.861400e-004
3.316162e-005,-2.519113e-004
1.971717e-004,-6.373025e-004
2.931144e-004,-8.259465e-004
3.153174e-004,-8.810487e-004
2.626462e-004,-8.787798e-004
1.539003e-004,-8.982276e-004
2.910999e-005,-9.773155e-004
-5.775702e-005,-1.082820e-003
-7.104638e-005,-1.138084e-003
-6.382317e-006,-1.074717e-003
1.057669e-004,-8.739179e-004
2.166196e-004,-5.817142e-004
2.773941e-004,-2.690902e-004
2.537325e-004,1.403791e-005
1.258630e-004,2.352571e-004
-9.892161e-005,3.574544e-004
-3.888564e-004,3.636129e-004
-7.043975e-004,2.903593e-004
-1.013294e-003,2.141886e-004
-1.296098e-003,2.064095e-004
-1.553134e-003,2.923041e-004
-1.788290e-003,4.449697e-004
-1.985524e-003,6.060627e-004
-2.098160e-003,7.164293e-004
-2.068016e-003,7.465734e-004
-1.848093e-003,6.982779e-004
-1.440012e-003,6.020110e-004
-9.129756e-004,4.932652e-004
-3.757291e-004,3.919743e-004
6.087479e-005,2.963557e-004
3.196932e-004,1.897167e-004
3.801436e-004,5.034055e-005
2.769079e-004,-1.358725e-004
9.020862e-005,-3.645466e-004
-8.125649e-005,-6.107238e-004
-1.532135e-004,-8.343739e-004
-8.660465e-005,-1.011997e-003
9.701536e-005,-1.143270e-003
3.349273e-004,-1.241644e-003
5.577672e-004,-1.315060e-003
7.110811e-004,-1.367407e-003
7.736384e-004,-1.400792e-003
7.597008e-004,-1.415216e-003
7.094605e-004,-1.411002e-003
6.627856e-004,-1.398847e-003
6.433378e-004,-1.401765e-003
6.637580e-004,-1.432557e-003
7.157810e-004,-1.472425e-003
7.830382e-004,-1.474856e-003
8.519160e-004,-1.399334e-003
9.078286e-004,-1.233703e-003
9.449415e-004,-9.995184e-004
9.686031e-004,-7.345417e-004
9.804339e-004,-4.659995e-004
9.674687e-004,-2.136638e-004
9.232248e-004,2.408596e-005
8.446231e-004,2.654013e-004
7.396046e-004,5.264886e-004
6.302104e-004,8.019998e-004
5.315126e-004,1.072973e-003
4.405939e-004,1.323851e-003
3.449753e-004,1.535184e-003
2.248849e-004,1.691092e-003
7.140904e-005,1.779904e-003
-1.133454e-004,1.795462e-003
-3.143064e-004,1.745222e-003
-5.013297e-004,1.650251e-003
-6.291993e-004,1.550905e-003
-6.473506e-004,1.495802e-003
-5.164018e-004,1.502609e-003
-2.326255e-004,1.535509e-003
1.675138e-004,1.535184e-003
6.118971e-004,1.445238e-003
1.019492e-003,1.245411e-003
1.318016e-003,9.535311e-004
1.460634e-003,5.955285e-004
1.419308e-003,1.913374e-004
1.187230e-003,-2.318152e-004
7.841726e-004,-6.350336e-004
2.589186e-004,-1.000005e-003
-3.173856e-004,-1.328673e-003
-8.616009e-004,-1.611477e-003
-1.299825e-003,-1.818110e-003
-1.573878e-003,-1.907246e-003
-1.661231e-003,-1.846148e-003
-1.573392e-003,-1.649400e-003
-1.345690e-003,-1.383289e-003
-1.023504e-003,-1.129333e-003
-6.426507e-004,-9.424714e-004
-2.293842e-004,-8.283774e-004
1.874478e-004,-7.504240e-004
5.632775e-004,-6.379507e-004
8.433265e-004,-4.212695e-004
9.758961e-004,-8.044617e-005
9.418624e-004,3.503235e-004
7.652109e-004,8.005413e-004
4.994237e-004,1.178964e-003
2.031682e-004,1.397753e-003
-6.456377e-005,1.399049e-003
-2.468872e-004,1.191767e-003
-3.143064e-004,8.439748e-004
-2.874036e-004,4.694416e-004
-2.175534e-004,1.749688e-004
-1.622891e-004,6.582909e-006
-1.723372e-004,-6.326724e-005
-2.767073e-004,-1.024871e-004
-4.379622e-004,-1.791439e-004
-5.574043e-004,-3.519055e-004
-5.348772e-004,-6.774947e-004
-3.614674e-004,-1.176170e-003
-1.470550e-004,-1.777594e-003
-5.986387e-005,-2.315003e-003
-1.972953e-004,-2.589218e-003
-4.938748e-004,-2.472045e-003
-7.812165e-004,-1.985200e-003
-9.176755e-004,-1.294315e-003
-8.650042e-004,-6.301716e-004
-6.808981e-004,-1.780095e-004
-4.608134e-004,4.151929e-006
-2.827037e-004,-7.840905e-006
-1.775233e-004,-6.602235e-005
-1.313347e-004,-3.344723e-005
-1.055663e-004,1.396385e-004
-5.662256e-005,4.093153e-004
3.624086e-005,6.825576e-004
1.645966e-004,8.754155e-004
3.020280e-004,9.452657e-004
4.247115e-004,8.721742e-004
5.172509e-004,6.584098e-004
5.788357e-004,3.577785e-004
6.141660e-004,7.853991e-005
6.243761e-004,-6.569822e-005
6.055765e-004,-2.485776e-005
5.601982e-004,1.540623e-004
5.089855e-004,3.675024e-004
4.786793e-004,5.331332e-004
4.851619e-004,6.279415e-004
5.326470e-004,6.676476e-004
6.167590e-004,6.770474e-004
7.219395e-004,6.794783e-004
8.261476e-004,7.015193e-004
9.039390e-004,7.444666e-004
9.357039e-004,7.750969e-004
9.182008e-004,7.712074e-004
8.643950e-004,7.569456e-004
7.856312e-004,7.877381e-004
6.888782e-004,9.091251e-004
5.777013e-004,1.119162e-003
4.508040e-004,1.317692e-003
3.000832e-004,1.261456e-003
1.260251e-004,7.183740e-004
-5.095028e-005,-2.590421e-004
-1.883817e-004,-1.308091e-003
-2.378116e-004,-2.008537e-003
-1.823853e-004,-2.093135e-003
-5.354332e-005,-1.523314e-003
8.583286e-005,-5.003574e-004
1.730240e-004,6.511169e-004
1.736723e-004,1.611841e-003
8.939829e-005,2.173075e-003
-6.764301e-005,2.237416e-003
-2.865932e-004,1.867743e-003
-5.489769e-004,1.289007e-003
-8.137916e-004,7.767176e-004
-1.032418e-003,5.260024e-004
-1.164987e-003,5.661946e-004
-1.195780e-003,7.971379e-004
-1.148781e-003,1.076215e-003
-1.072286e-003,1.307158e-003
-1.006163e-003,1.478948e-003
-9.562470e-004,1.594987e-003
-9.011448e-004,1.613138e-003
-7.993678e-004,1.492075e-003
-6.094273e-004,1.245897e-003
-3.110651e-004,9.165801e-004
7.108491e-005,5.444778e-004
4.804620e-004,1.767515e-004
8.428403e-004,-1.214487e-004
1.098418e-003,-2.815692e-004
1.214133e-003,-2.723315e-004
1.189012e-003,-1.331174e-004
1.046233e-003,4.385793e-005
8.185305e-004,1.534141e-004
5.331332e-004,1.172735e-004
2.077060e-004,-9.308726e-005
-1.417068e-004,-4.561135e-004
-4.890127e-004,-9.111929e-004
-7.982334e-004,-1.374700e-003
-1.014266e-003,-1.771112e-003
-1.076013e-003,-2.052295e-003
-9.539781e-004,-2.198802e-003
-6.802498e-004,-2.219547e-003
-3.412093e-004,-2.144672e-003
-4.997789e-005,-2.001407e-003
8.405014e-005,-1.801418e-003
1.403791e-005,-1.557834e-003
-2.284118e-004,-1.301446e-003
-5.611319e-004,-1.068072e-003
-9.092480e-004,-8.863969e-004
-1.232568e-003,-7.635514e-004
-1.496249e-003,-6.843015e-004
-1.654911e-003,-6.256338e-004
-1.661393e-003,-5.663179e-004
-1.501273e-003,-4.997091e-004
-1.206152e-003,-4.342347e-004
-8.314567e-004,-3.844807e-004
-4.365036e-004,-3.606571e-004
-8.303922e-005,-3.608192e-004
1.806411e-004,-3.723258e-004
3.367100e-004,-3.804291e-004
3.991052e-004,-3.768636e-004
4.172565e-004,-3.593606e-004
4.569625e-004,-3.306750e-004
5.679773e-004,-2.916173e-004
7.535422e-004,-2.412149e-004
9.710342e-004,-1.799543e-004
1.162109e-003,-1.112386e-004
1.274583e-003,-3.085418e-005
1.283010e-003,6.784360e-005
1.189498e-003,1.804790e-004
1.021274e-003,2.921420e-004
8.125341e-004,3.850055e-004
5.968250e-004,4.509661e-004
4.000776e-004,4.908342e-004
2.448189e-004,5.089855e-004
1.381800e-004,5.028270e-004
6.962632e-005,4.696036e-004
3.056858e-005,4.119083e-004
1.031041e-005,3.490270e-004
-3.951337e-006,3.094830e-004
-6.868513e-006,3.221241e-004
2.748934e-005,4.067223e-004
1.336421e-004,5.507984e-004
3.253654e-004,6.977918e-004
5.751082e-004,7.716935e-004
8.125341e-004,7.232360e-004
9.609861e-004,5.483674e-004
9.768684e-004,2.858215e-004
8.661778e-004,8.203562e-006
6.705648e-004,-2.024813e-004
4.694416e-004,-2.985861e-004
3.422202e-004,-2.872415e-004
3.107795e-004,-2.160948e-004
3.355756e-004,-1.303623e-004
3.310377e-004,-3.587821e-005
2.149989e-004,9.523264e-005
-2.161646e-005,2.760976e-004
-3.149546e-004,4.890515e-004
-5.624284e-004,7.107570e-004
-6.671225e-004,9.229007e-004
-5.907898e-004,1.107979e-003
-3.702189e-004,1.240549e-003
-8.935975e-005,1.287224e-003
1.675138e-004,1.229367e-003
3.354135e-004,1.085614e-003
3.858158e-004,8.947013e-004
3.394651e-004,6.856368e-004
2.519498e-004,4.764104e-004
1.874478e-004,2.854973e-004
1.905271e-004,1.318594e-004
2.705873e-004,2.457216e-005
3.987811e-004,-4.057810e-005
5.256782e-004,-7.785312e-005
6.088178e-004,-1.062146e-004
6.378276e-004,-1.451102e-004
6.353966e-004,-2.097743e-004
6.310208e-004,-3.026377e-004
6.365310e-004,-4.185144e-004
6.439860e-004,-5.467080e-004
6.420412e-004,-6.656639e-004
6.219451e-004,-7.381071e-004
5.809425e-004,-7.288694e-004
5.198439e-004,-6.189891e-004
4.564763e-004,-4.049009e-004
4.203358e-004,-1.088076e-004
4.329769e-004,2.281262e-004
4.966686e-004,5.637637e-004
5.794840e-004,8.684467e-004
6.396103e-004,1.118676e-003
6.386379e-004,1.299703e-003
5.410745e-004,1.409260e-003
3.149933e-004,1.443131e-003
-5.581224e-005,1.397591e-003
-5.275843e-004,1.274097e-003
-9.750465e-004,1.088856e-003
-1.262550e-003,8.724983e-004
-1.328673e-003,6.571133e-004
-1.214255e-003,4.616624e-004
-1.046193e-003,2.884145e-004
-9.828256e-004,1.276457e-004
-1.128036e-003,-3.409549e-005
-1.458325e-003,-2.143121e-004
-1.823459e-003,-4.334244e-004
-2.033819e-003,-7.060182e-004
-1.954732e-003,-1.015239e-003
-1.572257e-003,-1.310198e-003
-9.970875e-004,-1.528176e-003
-3.993907e-004,-1.616015e-003
5.763349e-005,-1.558644e-003
2.793389e-004,-1.387503e-003
2.551911e-004,-1.158829e-003
2.862379e-005,-9.243201e-004
-3.373197e-004,-7.183352e-004
-7.637134e-004,-5.442770e-004
-1.151212e-003,-3.867496e-004
-1.409382e-003,-2.290601e-004
-1.493007e-003,-7.315322e-005
-1.407761e-003,6.330578e-005
-1.187514e-003,1.566554e-004
-8.765109e-004,1.906891e-004
-5.227224e-004,1.631380e-004
-1.812508e-004,1.013911e-004
1.023635e-004,5.277153e-005
2.955454e-004,5.115087e-005
3.760919e-004,1.033359e-004
3.383307e-004,1.898788e-004
2.060853e-004,2.762596e-004
2.813760e-005,3.287688e-004
-1.323071e-004,3.299033e-004
-2.194982e-004,2.817699e-004
-2.131776e-004,1.997648e-004
-1.182074e-004,8.696731e-005
4.191315e-005,-7.898758e-005
2.417397e-004,-3.191683e-004
4.590694e-004,-6.144513e-004
6.746164e-004,-9.037378e-004
8.658536e-004,-1.121392e-003
1.003285e-003,-1.229165e-003
1.071677e-003,-1.224465e-003
1.079618e-003,-1.122202e-003
1.049312e-003,-9.393922e-004
1.004258e-003,-6.828429e-004
9.650377e-004,-3.506090e-004
9.433209e-004,4.709924e-005
9.303557e-004,4.681450e-004
9.068561e-004,8.220959e-004
8.562917e-004,9.687652e-004
7.773659e-004,8.029722e-004
6.870955e-004,3.804677e-004
6.128695e-004,-7.558420e-005
5.783495e-004,-3.204649e-004
5.892079e-004,-2.250084e-004
6.368551e-004,2.355812e-004
7.107570e-004,1.000206e-003
7.997309e-004,1.945373e-003
8.885428e-004,2.898322e-003
9.621205e-004,3.650473e-003
1.009444e-003,3.990976e-003
1.015602e-003,3.784016e-003
9.648756e-004,3.038347e-003
8.475402e-004,1.897888e-003
6.593822e-004,5.558224e-004
3.966742e-004,-7.792717e-004
6.411610e-005,-1.944035e-003
-3.096065e-004,-2.925018e-003
-6.747396e-004,-3.735510e-003
-9.818533e-004,-4.389123e-003
-1.193349e-003,-4.903523e-003
-1.290102e-003,-4.968350e-003
-1.271788e-003,-4.968350e-003
-1.149105e-003,-4.968350e-003
-9.523575e-004,-4.170009e-003
-7.222248e-004,-2.806062e-003
-5.034366e-004,-1.177628e-003
-3.303509e-004,3.803056e-004
-2.151224e-004,1.544260e-003
-1.488377e-004,2.222992e-003
-1.110765e-004,2.502556e-003
-7.688073e-005,2.546314e-003
-3.312309e-005,2.509525e-003
1.484824e-005,2.480353e-003
5.779555e-005,2.474356e-003
9.409818e-005,2.445995e-003
1.273216e-004,2.329794e-003
1.665414e-004,2.082319e-003
2.180782e-004,1.701464e-003
2.746390e-004,1.225315e-003
3.171001e-004,7.280980e-004
3.255275e-004,2.882525e-004
2.974902e-004,-4.138842e-005
2.367157e-004,-2.502906e-004
1.462832e-004,-3.689224e-004
3.948217e-005,-4.366657e-004
-6.294311e-005,-4.794509e-004
-1.444620e-004,-5.071641e-004
-2.026434e-004,-5.112157e-004
-2.476975e-004,-4.830164e-004
-2.887001e-004,-4.251591e-004
-3.196545e-004,-3.459091e-004
-3.178718e-004,-2.600145e-004
-2.647144e-004,-1.833576e-004
-1.579134e-004,-1.319829e-004
-2.113026e-005,-1.122110e-004
1.164632e-004,-1.250141e-004
2.190506e-004,-1.660166e-004
2.534084e-004,-2.162569e-004
2.184023e-004,-2.530457e-004
1.555210e-004,-2.596904e-004
1.260251e-004,-2.301945e-004
1.702689e-004,-1.671511e-004
2.887387e-004,-7.720486e-005
4.409181e-004,3.721326e-005
5.692738e-004,1.795066e-004
6.308587e-004,3.477304e-004
6.096281e-004,5.297299e-004
5.156302e-004,7.015193e-004
3.741471e-004,8.418679e-004
2.175920e-004,9.410520e-004
7.740546e-005,1.003123e-003
-1.173047e-005,1.045584e-003
-2.826114e-005,1.096149e-003
1.112074e-005,1.168754e-003
5.423012e-005,1.253839e-003
3.721326e-005,1.313965e-003
-8.595638e-005,1.302134e-003
-3.311612e-004,1.188364e-003
-6.786292e-004,9.695755e-004
-1.074717e-003,6.553305e-004
-1.449574e-003,2.725321e-004
-1.728650e-003,-1.287416e-004
-1.851334e-003,-4.757234e-004
-1.793152e-003,-7.094215e-004
-1.577605e-003,-8.074710e-004
-1.260444e-003,-7.967748e-004
-8.962828e-004,-7.244936e-004
-5.285567e-004,-6.246614e-004
-1.793060e-004,-5.107295e-004
1.407730e-004,-3.731361e-004
4.235771e-004,-1.921092e-004
6.592202e-004,3.429608e-005
8.361956e-004,2.788527e-004
9.470484e-004,5.036374e-004
9.908061e-004,6.657028e-004
9.765443e-004,7.298806e-004
9.207938e-004,6.660269e-004
8.347370e-004,4.674968e-004
7.258290e-004,1.783722e-004
5.987698e-004,-1.128592e-004
4.584211e-004,-3.120375e-004
3.159656e-004,-3.668155e-004
1.864754e-004,-2.917793e-004
8.323981e-005,-1.558065e-004
1.549650e-005,-3.506788e-005
-1.010982e-005,3.380988e-005
6.744974e-006,9.263960e-005
5.974033e-005,2.522740e-004
1.398006e-004,5.691118e-004
2.333123e-004,1.002799e-003
3.261758e-004,1.458852e-003
4.086671e-004,1.834196e-003
4.746277e-004,2.023651e-003
5.151440e-004,1.925277e-003
5.203301e-004,1.495316e-003
4.875929e-004,8.015137e-004
4.295735e-004,1.072688e-006
3.756057e-004,-7.267626e-004
3.542131e-004,-1.272598e-003
3.767402e-004,-1.611963e-003
4.378388e-004,-1.781160e-003
5.201680e-004,-1.853279e-003
6.075213e-004,-1.917781e-003
6.791542e-004,-2.052457e-003
7.164293e-004,-2.274811e-003
6.955228e-004,-2.513209e-003
5.786736e-004,-2.652424e-003
3.255275e-004,-2.594566e-003
-5.937768e-005,-2.315975e-003
-5.057055e-004,-1.887636e-003
-9.124894e-004,-1.439850e-003
-1.196266e-003,-1.083306e-003
-1.319111e-003,-8.557665e-004
-1.286212e-003,-7.360002e-004
-1.148132e-003,-6.899738e-004
-9.894704e-004,-7.100698e-004
-9.048723e-004,-7.831613e-004
-9.604607e-004,-8.509046e-004
-1.161422e-003,-8.345360e-004
-1.455408e-003,-6.799257e-004
-1.739347e-003,-3.828600e-004
-1.901736e-003,2.408596e-005
-1.870944e-003,4.900239e-004
-1.644701e-003,9.545035e-004
-1.286860e-003,1.366636e-003
-8.990379e-004,1.692550e-003
-5.674524e-004,1.909556e-003
-3.361852e-004,2.013441e-003
-2.041020e-004,2.025109e-003
-1.306864e-004,1.985079e-003
-5.759496e-005,1.920091e-003
6.444023e-005,1.836303e-003
2.610255e-004,1.732419e-003
5.319988e-004,1.606331e-003
8.475402e-004,1.446048e-003
1.152710e-003,1.235849e-003
1.379115e-003,9.825408e-004
1.469710e-003,7.313393e-004
1.412339e-003,5.498260e-004
1.241197e-003,4.895377e-004
1.002475e-003,5.542018e-004
7.326358e-004,7.054088e-004
4.666864e-004,8.890290e-004
2.412535e-004,1.051905e-003
8.113296e-005,1.155141e-003
-6.058186e-006,1.158220e-003
-2.777494e-005,9.953440e-004
-1.416145e-005,5.728393e-004
-6.176923e-008,-1.924333e-004
-1.318906e-005,-1.227706e-003
-6.974985e-005,-2.271732e-003
-1.660166e-004,-3.025823e-003
-2.699005e-004,-3.302469e-003
-3.355370e-004,-3.088218e-003
-3.206269e-004,-2.520340e-003
-2.102605e-004,-1.817462e-003
-2.080613e-005,-1.193187e-003
2.083542e-004,-8.030953e-004
4.308700e-004,-6.888393e-004
6.054144e-004,-7.447518e-004
7.104329e-004,-7.954782e-004
7.496527e-004,-7.147697e-004
7.365254e-004,-4.689167e-004
6.900126e-004,-1.008664e-004
6.308587e-004,3.182346e-004
5.775391e-004,7.274497e-004
5.448020e-004,1.094528e-003
5.339436e-004,1.391432e-003
5.405883e-004,1.578618e-003
5.542018e-004,1.621728e-003
5.600362e-004,1.513954e-003
5.509604e-004,1.285927e-003
5.279472e-004,9.953440e-004
5.060683e-004,6.964952e-004
5.055821e-004,4.373526e-004
5.368608e-004,2.444948e-004
5.940699e-004,1.213252e-004
6.540340e-004,6.314371e-005
6.892023e-004,6.281957e-005
6.833679e-004,9.296373e-005
6.287518e-004,1.138702e-004
5.216266e-004,1.043083e-004
3.673404e-004,7.108491e-005
1.979821e-004,3.899597e-005
6.330578e-005,3.462021e-005
4.962256e-006,5.795762e-005
3.721326e-005,8.421220e-005
1.363972e-004,9.879808e-005
2.673460e-004,1.197045e-004
3.871123e-004,1.773998e-004
4.572867e-004,2.987867e-004
4.545315e-004,4.990995e-004
3.809539e-004,7.627800e-004
2.581083e-004,1.033916e-003
1.111150e-004,1.236497e-003
-4.138842e-005,1.302944e-003
-1.921092e-004,1.187716e-003
-3.410472e-004,8.877325e-004
-4.916058e-004,4.543695e-004
-6.395715e-004,-7.678839e-006
-7.776510e-004,-3.718396e-004
-8.938519e-004,-5.632387e-004
-9.797465e-004,-6.011620e-004
-1.015239e-003,-5.870623e-004
-9.551126e-004,-6.570745e-004
-7.494517e-004,-9.544643e-004
-3.818876e-004,-1.570799e-003
1.039842e-004,-2.416618e-003
6.042800e-004,-3.232295e-003
9.956681e-004,-3.734375e-003
1.172157e-003,-3.754634e-003
1.083346e-003,-3.292583e-003
7.752590e-004,-2.485820e-003
3.877606e-004,-1.523314e-003
7.610894e-005,-5.540010e-004
-7.931171e-005,3.295791e-004
-9.243900e-005,1.092745e-003
-2.696461e-005,1.738253e-003
4.450620e-005,2.230123e-003
6.897806e-005,2.548259e-003
1.922400e-005,2.722642e-003
-1.039456e-004,2.788765e-003
-2.656868e-004,2.758621e-003
-4.154351e-004,2.638692e-003
-5.259637e-004,2.435623e-003
-6.113721e-004,2.154276e-003
-7.090974e-004,1.824310e-003
-8.638698e-004,1.512819e-003
-1.125929e-003,1.272962e-003
-1.519100e-003,1.109600e-003
-1.988765e-003,9.773547e-004
-2.407867e-003,8.016757e-004
-2.637514e-003,5.097958e-004
-2.591487e-003,4.612685e-005
-2.279835e-003,-6.009999e-004
-1.791370e-003,-1.360762e-003
-1.244399e-003,-2.068988e-003
-7.400519e-004,-2.522447e-003
-3.496366e-004,-2.582412e-003
-8.935975e-005,-2.252608e-003
5.763349e-005,-1.686838e-003
1.221355e-004,-1.105995e-003
1.480659e-004,-6.958081e-004
1.856651e-004,-5.373082e-004
2.707494e-004,-5.911139e-004
4.093153e-004,-7.272488e-004
5.778633e-004,-8.030953e-004
7.256670e-004,-7.316245e-004
8.084825e-004,-5.110537e-004
8.029722e-004,-1.995642e-004
7.052467e-004,1.302388e-004
5.245438e-004,4.130428e-004
2.958695e-004,6.102764e-004
8.145709e-005,7.071915e-004
-5.370539e-005,7.096225e-004
-7.655660e-005,6.357207e-004
4.313994e-006,5.039615e-004
1.530900e-004,3.279585e-004
3.290929e-004,1.252147e-004
4.982892e-004,-6.310517e-005
6.407447e-004,-1.911368e-004
7.499768e-004,-2.287359e-004
8.263097e-004,-1.827094e-004
8.762258e-004,-9.373552e-005
9.044252e-004,-1.254080e-005
9.156077e-004,3.235129e-005
9.160939e-004,3.721326e-005
9.092872e-004,1.225520e-005
8.891911e-004,-2.777494e-005
8.473782e-004,-6.731888e-005
7.679661e-004,-9.503204e-005
6.379896e-004,-1.070249e-004
4.726828e-004,-1.058904e-004
3.031625e-004,-9.162867e-005
1.370455e-004,-6.342931e-005
-5.159854e-005,-2.809907e-005
-2.875656e-004,5.934648e-006
-5.760419e-004,2.813760e-005
-9.128135e-004,2.586868e-005
-1.279729e-003,-3.465141e-006
-1.617474e-003,-5.289507e-005
-1.839179e-003,-1.101041e-004
-1.861544e-003,-1.583996e-004
-1.640811e-003,-1.755785e-004
-1.206476e-003,-1.475412e-004
-6.559400e-004,-8.077030e-005
-1.115627e-004,-3.789272e-006
3.354135e-004,4.920609e-005
6.363689e-004,5.601284e-005
7.775280e-004,1.873781e-005
7.786624e-004,-1.529591e-005
6.981159e-004,3.397195e-005
6.230795e-004,1.707551e-004
6.370172e-004,3.101313e-004
7.759072e-004,3.913261e-004
1.025812e-003,4.219564e-004
1.327740e-003,3.863020e-004
1.605035e-003,2.256952e-004
1.790600e-003,-5.354332e-005
1.855751e-003,-3.436402e-004
1.802107e-003,-4.984126e-004
1.651386e-003,-4.225660e-004
1.429194e-003,-1.157764e-004
1.160165e-003,3.438409e-004
8.759017e-004,8.642329e-004
6.002283e-004,1.367122e-003
3.485408e-004,1.736794e-003
1.247285e-004,1.821879e-003
-6.602235e-005,1.514278e-003
-2.190120e-004,8.115617e-004
-3.314853e-004,-1.629374e-004
-4.037664e-004,-1.161746e-003
-4.429862e-004,-1.912432e-003
-4.690787e-004,-2.209499e-003
-5.021401e-004,-1.993303e-003
-5.525423e-004,-1.376482e-003
-6.092652e-004,-5.815520e-004
-6.517263e-004,1.534141e-004
-6.685811e-004,6.729957e-004
-6.619364e-004,9.664963e-004
-6.309819e-004,1.129372e-003
-5.718282e-004,1.273448e-003
-4.844750e-004,1.465496e-003
-3.763774e-004,1.695792e-003
-2.609869e-004,1.897402e-003
-1.532135e-004,1.972600e-003
-6.488790e-005,1.842947e-003
-2.492749e-006,1.501637e-003
4.402000e-005,1.030836e-003
9.863601e-005,5.579292e-004
1.689724e-004,1.916615e-004
2.469258e-004,-2.096820e-005
3.208276e-004,-1.058904e-004
3.734989e-004,-1.506204e-004
3.696093e-004,-2.630937e-004
2.840388e-004,-4.885266e-004
1.316974e-004,-7.935334e-004
-4.625038e-005,-1.098702e-003
-2.078295e-004,-1.329646e-003
-3.151167e-004,-1.433043e-003
-3.530400e-004,-1.387665e-003
-3.410472e-004,-1.209393e-003
-3.165753e-004,-9.419852e-004
-3.068514e-004,-6.334129e-004
-3.214373e-004,-3.267854e-004
-3.515814e-004,-5.046408e-005
-3.758912e-004,1.777239e-004
-3.637363e-004,3.461098e-004
-2.935620e-004,4.449697e-004
-1.770371e-004,4.770586e-004
-5.856735e-005,4.511282e-004
1.646890e-005,3.854917e-004
2.943412e-005,3.086727e-004
-2.654814e-006,2.483844e-004
-5.467778e-005,2.187264e-004
-9.794922e-005,2.159713e-004
-1.083214e-004,2.367157e-004
-7.898758e-005,2.772320e-004
-2.728874e-005,3.287688e-004
2.505836e-005,3.833848e-004
6.978839e-005,4.360561e-004
1.145184e-004,4.788414e-004
1.671896e-004,5.005581e-004
2.187264e-004,4.913204e-004
2.491947e-004,4.482110e-004
2.326641e-004,3.846814e-004
1.422316e-004,3.299033e-004
-2.258885e-005,3.034866e-004
-2.070192e-004,2.568118e-004
-3.314853e-004,6.654708e-005
-3.506090e-004,-3.326198e-004
-2.741142e-004,-8.711627e-004
-1.504584e-004,-1.375186e-003
-3.766092e-005,-1.675169e-003
3.235129e-005,-1.701585e-003
5.925414e-005,-1.465132e-003
6.103686e-005,-1.005353e-003
6.152305e-005,-3.663294e-004
8.032264e-005,3.556717e-004
1.321835e-004,9.856200e-004
2.200230e-004,1.356912e-003
3.430306e-004,1.393053e-003
4.961824e-004,1.156275e-003
6.725095e-004,8.029722e-004
8.614778e-004,4.710622e-004
1.052229e-003,2.250470e-004
1.234877e-003,6.038860e-005
1.384787e-003,-6.715681e-005
1.459500e-003,-2.256567e-004
1.403101e-003,-4.954954e-004
1.168754e-003,-9.290201e-004
7.686144e-004,-1.498193e-003
3.112658e-004,-2.062667e-003
-5.727083e-005,-2.416294e-003
-2.515871e-004,-2.409487e-003
-2.815692e-004,-2.039654e-003
-2.212809e-004,-1.452329e-003
-1.558065e-004,-8.505805e-004
-1.496481e-004,-3.909633e-004
-2.339220e-004,-1.232314e-004
-4.128421e-004,4.151929e-006
-6.810602e-004,7.675720e-005
-1.029987e-003,1.514693e-004
-1.434178e-003,2.354192e-004
-1.827672e-003,2.989488e-004
-2.119552e-003,3.083486e-004
-2.232026e-003,2.516257e-004
-2.138676e-003,1.527658e-004
-1.881802e-003,4.709924e-005
-1.560264e-003,-3.668853e-005
-1.269357e-003,-8.433573e-005
-1.042466e-003,-9.713889e-005
-8.434496e-004,-8.482193e-005
-6.019723e-004,-5.646050e-005
-2.700626e-004,-1.788895e-005
1.545486e-004,2.927205e-005
6.234037e-004,8.858796e-005
1.066005e-003,1.584381e-004
1.413797e-003,2.308813e-004
1.618486e-003,2.991108e-004
1.663378e-003,3.564820e-004
1.557550e-003,4.010500e-004
1.337626e-003,4.459421e-004
1.056119e-003,5.114165e-004
7.640765e-004,5.882355e-004
5.059062e-004,6.305345e-004
3.039728e-004,5.809425e-004
1.394765e-004,4.180668e-004
-3.036798e-005,1.639484e-004
-2.431597e-004,-1.339277e-004
-5.369841e-004,-4.219178e-004
-9.426335e-004,-6.591813e-004
-1.438553e-003,-8.194639e-004
-1.926046e-003,-8.820211e-004
-2.263466e-003,-8.238396e-004
-2.336072e-003,-6.220684e-004
-2.118904e-003,-2.669833e-004
-1.689106e-003,2.112714e-004
-1.193835e-003,7.456010e-004
-7.799200e-004,1.267128e-003
-5.317981e-004,1.722208e-003
-4.429862e-004,2.074377e-003
-4.400691e-004,2.307266e-003
-4.387725e-004,2.429140e-003
-3.739464e-004,2.470953e-003
-2.139880e-004,2.464957e-003
3.948217e-005,2.412447e-003
3.603715e-004,2.281498e-003
6.939021e-004,2.025272e-003
9.673066e-004,1.623510e-003
1.134234e-003,1.108952e-003
1.194523e-003,5.584154e-004
1.182854e-003,5.423012e-005
1.141527e-003,-3.504470e-004
1.103117e-003,-6.535091e-004
1.081077e-003,-8.859106e-004
1.073460e-003,-1.074393e-003
1.076053e-003,-1.217334e-003
1.073622e-003,-1.297719e-003
1.047529e-003,-1.302743e-003
9.817304e-004,-1.236620e-003
8.786568e-004,-1.111506e-003
7.601869e-004,-9.405267e-004
6.619753e-004,-7.499378e-004
6.075213e-004,-5.823624e-004
6.021731e-004,-4.681064e-004
6.365310e-004,-4.100870e-004
6.935780e-004,-3.984183e-004
7.520836e-004,-4.238625e-004
7.840106e-004,-4.775062e-004
7.640765e-004,-5.437909e-004
6.939021e-004,-6.014861e-004
6.096281e-004,-6.342233e-004
5.567948e-004,-6.494574e-004
5.546879e-004,-6.625847e-004
5.883976e-004,-6.710121e-004
6.196762e-004,-6.577228e-004
6.063868e-004,-6.031067e-004
5.295678e-004,-4.941989e-004
3.989431e-004,-3.355370e-004
2.423880e-004,-1.556445e-004
9.231547e-005,-3.182657e-005
-1.983374e-005,-8.611845e-005
-7.234290e-005,-3.541745e-004
-5.872941e-005,-7.214144e-004
7.717366e-006,-1.001787e-003
9.717743e-005,-1.059483e-003
1.697827e-004,-8.671111e-004
1.879340e-004,-5.024642e-004
1.456350e-004,-9.292520e-005
6.152305e-005,2.619979e-004
-3.766092e-005,5.307022e-004
-1.267968e-004,7.434942e-004
-1.851404e-004,9.543414e-004
-2.026434e-004,1.192254e-003
-1.878955e-004,1.449290e-003
-1.677994e-004,1.697736e-003
-1.703924e-004,1.902588e-003
-2.165810e-004,2.036616e-003
-3.215994e-004,2.097391e-003
-4.911196e-004,2.095284e-003
-7.314624e-004,2.035320e-003
-1.018642e-003,1.909394e-003
-1.274867e-003,1.708433e-003
-1.400792e-003,1.436000e-003
-1.330780e-003,1.115759e-003
-1.066127e-003,7.801210e-004
-6.635571e-004,4.572867e-004
-2.028055e-004,1.676758e-004
2.394708e-004,-7.704279e-005
6.104385e-004,-2.768693e-004
8.919462e-004,-4.429862e-004
1.081401e-003,-5.911139e-004
1.184150e-003,-7.314624e-004
1.202464e-003,-8.667869e-004
1.146875e-003,-9.917393e-004
1.035860e-003,-1.101295e-003
9.003736e-004,-1.187190e-003
7.772038e-004,-1.240023e-003
6.895264e-004,-1.252827e-003
6.409068e-004,-1.222358e-003
6.135177e-004,-1.150401e-003
5.755944e-004,-1.038900e-003
5.042856e-004,-8.828315e-004
3.994293e-004,-6.727948e-004
2.645909e-004,-4.180282e-004
1.059290e-004,-1.611547e-004
-7.801519e-005,2.943412e-005
-3.023136e-004,8.599492e-005
-5.937069e-004,-1.529591e-005
-9.431197e-004,-2.110708e-004
-1.276164e-003,-3.854531e-004
-1.480528e-003,-4.543308e-004
-1.473397e-003,-4.172179e-004
-1.246344e-003,-3.439643e-004
-8.688938e-004,-3.378059e-004
-4.637306e-004,-4.940368e-004
-1.532135e-004,-8.457185e-004
-1.983374e-005,-1.305012e-003
-8.028410e-005,-1.673386e-003
-2.840002e-004,-1.763008e-003
-5.287188e-004,-1.502731e-003
-7.133111e-004,-9.596504e-004
-7.698719e-004,-2.885380e-004
-6.787913e-004,3.381686e-004
-4.745890e-004,7.951931e-004
-2.235498e-004,1.045260e-003
4.151929e-006,1.120945e-003
1.556830e-004,1.091287e-003
2.018716e-004,1.026136e-003
1.396385e-004,9.702237e-004
-1.189254e-005,9.261420e-004
-2.122053e-004,8.712018e-004
-4.107352e-004,7.875760e-004
-5.612939e-004,6.763991e-004
-6.309819e-004,5.514466e-004
-6.107238e-004,4.282770e-004
-5.133225e-004,3.219621e-004
-3.666535e-004,2.433604e-004
-2.058847e-004,1.924718e-004
-6.958779e-005,1.553589e-004
2.489629e-005,1.190562e-004
8.680524e-005,8.631905e-005
1.436902e-004,6.930219e-005
2.200230e-004,7.821578e-005
3.245551e-004,1.169494e-004
4.358940e-004,1.686482e-004
5.097958e-004,2.151610e-004
4.999099e-004,2.347709e-004
3.824125e-004,2.133783e-004
1.671896e-004,1.449867e-004
-1.062146e-004,4.969229e-005
-3.802670e-004,-4.398147e-005
-5.987309e-004,-1.091317e-004
-7.257902e-004,-1.334415e-004
-7.496137e-004,-1.144799e-004
-6.791154e-004,-5.986387e-005
-5.421702e-004,1.452411e-005
-3.731361e-004,1.026876e-004
-2.039399e-004,2.039785e-004
-6.099833e-005,3.153174e-004
3.737532e-005,4.135290e-004
8.486046e-005,4.629590e-004
9.150514e-005,4.328148e-004
7.594687e-005,3.174242e-004
5.050261e-005,1.433661e-004
1.744129e-005,-4.981582e-005
-2.080613e-005,-2.319772e-004
-4.495386e-005,-3.878840e-004
-2.161646e-005,-5.087847e-004
6.946425e-005,-5.818762e-004
2.198609e-004,-5.898174e-004
4.065602e-004,-5.296912e-004
6.135177e-004,-4.209454e-004
8.348991e-004,-2.929138e-004
1.059522e-003,-1.622891e-004
1.262266e-003,-2.307504e-005
1.411690e-003,1.336421e-004
1.481379e-003,2.952213e-004
1.470196e-003,4.328148e-004
1.411528e-003,5.234093e-004
1.343785e-003,5.616568e-004
1.282686e-003,5.554983e-004
1.215591e-003,5.182233e-004
1.101821e-003,4.577728e-004
8.712018e-004,3.879227e-004
4.459421e-004,3.378445e-004
-2.076674e-004,3.504856e-004
-1.006163e-003,4.498317e-004
-1.768681e-003,6.135177e-004
-2.321324e-003,7.859553e-004
-2.569284e-003,9.306798e-004
-2.508834e-003,1.059522e-003
-2.210471e-003,1.169402e-003
-1.790883e-003,1.210891e-003
-1.381020e-003,1.128724e-003
-1.065317e-003,9.044252e-004
-8.384255e-004,5.559844e-004
-6.395715e-004,1.141943e-004
-4.136524e-004,-3.794566e-004
-1.431655e-004,-8.763488e-004
1.577899e-004,-1.344880e-003
4.563143e-004,-1.748422e-003
7.104329e-004,-2.036089e-003
8.875704e-004,-2.161365e-003
9.861062e-004,-2.090380e-003
1.021923e-003,-1.840800e-003
1.021112e-003,-1.493007e-003
1.003933e-003,-1.182976e-003
9.762202e-004,-1.045059e-003
9.238730e-004,-1.123498e-003
8.164236e-004,-1.338559e-003
6.420412e-004,-1.523476e-003
4.295735e-004,-1.535306e-003
2.263435e-004,-1.357845e-003
9.393612e-005,-1.091247e-003
8.534666e-005,-8.437737e-004
2.055991e-004,-6.455678e-004
4.008879e-004,-4.621100e-004
5.968250e-004,-2.642282e-004
7.094605e-004,-8.903562e-005
6.554927e-004,-3.020592e-005
3.778746e-004,-1.908126e-004
-9.940781e-005,-5.578905e-004
-6.609641e-004,-9.619193e-004
-1.161908e-003,-1.166608e-003
-1.463187e-003,-1.003246e-003
-1.487659e-003,-4.389346e-004
-1.259633e-003,4.495075e-004
-8.852624e-004,1.505689e-003
-4.946851e-004,2.552310e-003
-1.838438e-004,3.424876e-003
7.069105e-006,3.984007e-003
9.053275e-005,4.147047e-003
1.101427e-004,3.921935e-003
1.125736e-004,3.418393e-003
1.333180e-004,2.805134e-003
1.952270e-004,2.227692e-003
2.960316e-004,1.749597e-003
4.172565e-004,1.357561e-003
5.383193e-004,9.899958e-004
6.379896e-004,5.626292e-004
7.086502e-004,-6.176923e-008
7.454390e-004,-7.197938e-004
7.436562e-004,-1.526069e-003
7.023296e-004,-2.256011e-003
6.332897e-004,-2.713198e-003
5.558224e-004,-2.768463e-003
4.896998e-004,-2.431690e-003
4.451317e-004,-1.856196e-003
4.203358e-004,-1.248613e-003
4.067223e-004,-7.703581e-004
4.008879e-004,-4.822060e-004
3.995914e-004,-3.496366e-004
3.982949e-004,-2.877277e-004
3.812780e-004,-2.149604e-004
3.287688e-004,-7.931171e-005
2.323399e-004,1.326697e-004
1.127357e-004,3.722023e-004
3.827799e-006,5.691118e-004
-6.472583e-005,6.906608e-004
-7.704279e-005,7.483562e-004
-3.587821e-005,7.770417e-004
3.932010e-005,8.088066e-004
1.268354e-004,8.522401e-004
2.200230e-004,8.875704e-004
3.180725e-004,8.869221e-004
4.157979e-004,8.395990e-004
4.900239e-004,7.665075e-004
5.101200e-004,7.037881e-004
4.657141e-004,6.736440e-004
3.649094e-004,6.605167e-004
2.268297e-004,6.172452e-004
7.999851e-005,4.824068e-004
-4.835724e-005,2.039785e-004
-1.410586e-004,-2.438080e-004
-1.947022e-004,-8.363187e-004
-2.084778e-004,-1.472587e-003
-1.823853e-004,-1.982445e-003
-1.227452e-004,-2.206257e-003
-5.111234e-005,-2.084222e-003
1.720949e-006,-1.666093e-003
1.095867e-005,-1.091734e-003
-4.544006e-005,-5.296912e-004
-1.807646e-004,-1.079973e-004
-3.745947e-004,1.412592e-004
-5.745832e-004,2.551911e-004
-7.084492e-004,2.973281e-004
-7.100698e-004,3.098072e-004
-5.497872e-004,3.127243e-004
-2.575835e-004,3.138588e-004
8.680524e-005,3.164518e-004
3.798194e-004,3.221241e-004
5.433434e-004,3.299033e-004
5.499881e-004,3.469201e-004
4.204978e-004,3.850055e-004
2.072198e-004,4.530729e-004
-3.490581e-005,5.465847e-004
-2.721694e-004,6.561409e-004
-4.922541e-004,7.807693e-004
-6.933771e-004,9.232248e-004
-8.713248e-004,1.082211e-003
-1.004543e-003,1.238929e-003
-1.069044e-003,1.364043e-003
-1.051866e-003,1.430490e-003
-9.646744e-004,1.434866e-003
-8.348601e-004,1.394187e-003
-6.875428e-004,1.337626e-003
-5.426564e-004,1.293707e-003
-4.217557e-004,1.269883e-003
-3.356990e-004,1.251408e-003
-2.652006e-004,1.214133e-003
-1.661787e-004,1.131803e-003
1.002961e-007,9.767064e-004
2.346088e-004,7.331221e-004
5.020167e-004,4.018603e-004
7.645627e-004,9.662150e-006
1.006851e-003,-3.784843e-004
1.226125e-003,-6.855980e-004
1.420766e-003,-8.607905e-004
1.579104e-003,-9.037378e-004
1.683799e-003,-8.577113e-004
1.722046e-003,-7.842957e-004
1.688499e-003,-7.325969e-004
1.591583e-003,-7.201179e-004
1.435514e-003,-7.379451e-004
1.204246e-003,-7.593377e-004
8.799533e-004,-7.625790e-004
4.683071e-004,-7.324349e-004
-4.599598e-006,-6.522125e-004
-5.120260e-004,-5.212637e-004
-1.037604e-003,-3.619536e-004
-1.550865e-003,-2.073433e-004
-1.998813e-003,-8.077030e-005
-2.313220e-003,5.772582e-006
-2.433959e-003,4.612685e-005
-2.340448e-003,3.559260e-005
-2.080332e-003,-1.950961e-005
-1.752798e-003,-1.031353e-004
-1.464646e-003,-1.843300e-004
-1.287184e-003,-2.305186e-004
-1.246830e-003,-2.222533e-004
-1.303877e-003,-1.639098e-004
-1.368703e-003,-8.465986e-005
-1.340828e-003,-2.907146e-005
-1.165635e-003,-4.171256e-005
-8.588458e-004,-1.639098e-004
-4.950092e-004,-4.168937e-004
-1.749302e-004,-7.834854e-004
3.170304e-005,-1.187838e-003
1.245665e-004,-1.519424e-003
1.553589e-004,-1.676952e-003
1.843686e-004,-1.623470e-003
2.600531e-004,-1.399009e-003
4.033189e-004,-1.085899e-003
6.118971e-004,-7.398899e-004
8.583986e-004,-3.682741e-004
1.105062e-003,2.295151e-005
1.316072e-003,4.051016e-004
1.471979e-003,7.515975e-004
1.570191e-003,1.037319e-003
1.615245e-003,1.239739e-003
1.607142e-003,1.332278e-003
1.542477e-003,1.289169e-003
1.426114e-003,1.096959e-003
1.269397e-003,7.703970e-004
1.089990e-003,3.590750e-004
9.058838e-004,-7.817725e-005
7.251808e-004,-5.001953e-004
5.401021e-004,-8.907726e-004
3.428685e-004,-1.246344e-003
1.304008e-004,-1.548110e-003
-1.020008e-004,-1.724599e-003
-3.522297e-004,-1.680679e-003
-6.042412e-004,-1.394148e-003
-8.376152e-004,-9.335579e-004
-1.037280e-003,-4.164075e-004
-1.183787e-003,2.732727e-005
-1.250234e-003,2.825802e-004
-1.200479e-003,2.984626e-004
-1.008756e-003,1.128978e-004
-6.834911e-004,-1.635857e-004
-2.794623e-004,-3.893426e-004
1.242423e-004,-4.556273e-004
4.496696e-004,-3.397507e-004
6.460929e-004,-8.952183e-005
6.968193e-004,2.167816e-004
6.157866e-004,4.989374e-004
4.435111e-004,6.914712e-004
2.368777e-004,7.477079e-004
5.374392e-005,6.760749e-004
-5.905355e-005,5.488536e-004
-7.995997e-005,4.652279e-004
-1.594417e-005,4.982892e-004
1.069013e-004,6.550064e-004
2.522740e-004,8.723363e-004
3.871123e-004,1.059036e-003
4.885653e-004,1.156761e-003
5.610085e-004,1.152548e-003
6.271312e-004,1.078321e-003
7.078398e-004,9.836752e-004
8.031343e-004,8.898393e-004
8.843291e-004,8.000550e-004
9.071803e-004,7.201568e-004
8.467299e-004,6.601926e-004
7.065432e-004,6.106006e-004
5.170888e-004,5.485295e-004
3.205035e-004,4.467524e-004
1.607070e-004,2.999212e-004
5.066468e-005,1.376938e-004
-2.907146e-005,1.938607e-005
-9.908367e-005,-1.010982e-005
-1.587237e-004,5.163707e-005
-1.956746e-004,1.479039e-004
-1.953505e-004,1.897167e-004
-1.596961e-004,1.007429e-004
-1.162626e-004,-1.532135e-004
-1.114006e-004,-5.651835e-004
-1.848162e-004,-1.084117e-003
-3.306750e-004,-1.606939e-003
-4.870680e-004,-1.998489e-003
-5.760419e-004,-2.146779e-003
-5.450874e-004,-2.018585e-003
-3.875599e-004,-1.681165e-003
-1.295519e-004,-1.261902e-003
1.845306e-004,-8.739179e-004
4.963444e-004,-5.810658e-004
7.535422e-004,-4.159214e-004
9.319764e-004,-3.773498e-004
1.040560e-003,-4.230522e-004
1.098256e-003,-4.878783e-004
1.117217e-003,-5.104054e-004
1.105386e-003,-4.593548e-004
1.067787e-003,-3.335922e-004
1.000044e-003,-1.517549e-004
9.084769e-004,3.170304e-005
7.974620e-004,1.039842e-004
6.384758e-004,-6.261898e-005
3.691231e-004,-5.175362e-004
-9.470791e-005,-1.182490e-003
-8.053642e-004,-1.830914e-003
-1.712120e-003,-2.166551e-003
-2.631517e-003,-1.948087e-003
-3.315111e-003,-1.097892e-003
-3.585437e-003,2.945730e-004
-3.409433e-003,1.975517e-003
-2.898115e-003,3.672676e-003
-2.262008e-003,4.959005e-003
-1.717144e-003,4.959168e-003
-1.386693e-003,4.959005e-003
-1.261092e-003,4.959168e-003
-1.229165e-003,4.959005e-003
-1.159315e-003,4.959005e-003
-9.842842e-004,4.423534e-003
-7.214144e-004,3.548695e-003
-4.104111e-004,2.839168e-003
-7.023606e-005,2.206299e-003
2.905214e-004,1.507633e-003
6.488480e-004,6.083316e-004
9.682790e-004,-5.982448e-004
1.215105e-003,-2.104156e-003
1.375064e-003,-3.735024e-003
1.454638e-003,-4.968512e-003
1.481379e-003,-4.968512e-003
1.486241e-003,-4.968512e-003
1.473438e-003,-4.968674e-003
1.421739e-003,-4.789752e-003
1.312830e-003,-3.951868e-003
1.160165e-003,-3.336503e-003
1.001827e-003,-2.932797e-003
8.780085e-004,-2.578360e-003
8.115617e-004,-2.108856e-003
8.007033e-004,-1.465942e-003
8.287407e-004,-6.988873e-004
8.718501e-004,6.654708e-005
9.107458e-004,6.864472e-004
9.363521e-004,1.069246e-003
9.553138e-004,1.206515e-003
9.763823e-004,1.163244e-003
1.002799e-003,1.044774e-003
1.024840e-003,9.536931e-004
1.013333e-003,9.535311e-004
9.241972e-004,1.047529e-003
7.174017e-004,1.193874e-003
3.715541e-004,1.334547e-003
-1.047560e-004,1.422549e-003
-6.653398e-004,1.426925e-003
-1.219927e-003,1.336006e-003
-1.663014e-003,1.167620e-003
-1.915188e-003,9.577448e-004
-1.952787e-003,7.470596e-004
-1.809683e-003,5.699221e-004
-1.555240e-003,4.498317e-004
-1.264171e-003,3.948915e-004
-9.920634e-004,3.958639e-004
-7.654962e-004,4.297355e-004
-5.817142e-004,4.671726e-004
-4.181903e-004,4.932652e-004
-2.548284e-004,5.054200e-004
-8.287715e-005,4.971547e-004
9.247754e-005,4.498317e-004
2.626462e-004,3.516200e-004
4.219564e-004,2.075439e-004
5.670050e-004,3.721326e-005
6.989262e-004,-1.353863e-004
8.240407e-004,-2.895104e-004
9.402417e-004,-4.112214e-004
1.038615e-003,-4.980884e-004
1.103117e-003,-5.533527e-004
1.114300e-003,-5.773384e-004
1.067139e-003,-5.752315e-004
9.831890e-004,-5.561078e-004
9.015080e-004,-5.290429e-004
8.556435e-004,-5.010056e-004
8.519160e-004,-4.778303e-004
8.676364e-004,-4.591928e-004
8.616399e-004,-4.394208e-004
7.841726e-004,-4.144627e-004
5.961767e-004,-3.799429e-004
2.851732e-004,-3.326198e-004
-1.183694e-004,-2.687660e-004
-5.360117e-004,-1.872472e-004
-8.851003e-004,-9.681477e-005
-1.106806e-003,-8.327101e-006
-1.179087e-003,6.233338e-005
-1.120257e-003,1.020394e-004
-9.784499e-004,1.033359e-004
-8.043919e-004,6.751948e-005
-6.326026e-004,7.555301e-006
-4.899852e-004,-5.451572e-005
-3.969597e-004,-1.031353e-004
-3.611433e-004,-1.433275e-004
-3.818876e-004,-1.906506e-004
-4.611376e-004,-2.540181e-004
-5.896553e-004,-3.256510e-004
-7.400519e-004,-4.071698e-004
-8.769971e-004,-5.115399e-004
-9.742362e-004,-6.361681e-004
-1.021883e-003,-7.554481e-004
-1.015725e-003,-8.296740e-004
-9.541402e-004,-8.368049e-004
-8.330774e-004,-8.060125e-004
-6.567503e-004,-8.081193e-004
-4.389346e-004,-8.825073e-004
-1.925954e-004,-9.935220e-004
7.092284e-005,-1.059645e-003
3.433547e-004,-9.987081e-004
6.157866e-004,-7.625790e-004
8.677984e-004,-3.585502e-004
1.060656e-003,1.535762e-004
1.145255e-003,6.772094e-004
1.091611e-003,1.116407e-003
9.235489e-004,1.413149e-003
7.029778e-004,1.567111e-003
4.905101e-004,1.607952e-003
3.171001e-004,1.576673e-003
1.898788e-004,1.513792e-003
1.023635e-004,1.444752e-003
3.624086e-005,1.382519e-003
-2.988179e-005,1.336168e-003
-1.120489e-004,1.304403e-003
-2.162569e-004,1.272152e-003
-3.462333e-004,1.219481e-003
-5.050572e-004,1.131965e-003
-6.766844e-004,1.016250e-003
-8.191398e-004,8.940530e-004
-8.878555e-004,7.875760e-004
-8.627353e-004,7.086502e-004
-7.554481e-004,6.475514e-004
-5.836589e-004,5.728393e-004
-3.640605e-004,4.512903e-004
-9.940781e-005,2.798251e-004
2.099749e-004,9.766362e-005
5.495019e-004,-3.360929e-005
8.917841e-004,-7.542214e-005
1.200357e-003,-4.171256e-005
1.439080e-003,1.792748e-005
1.581211e-003,6.071273e-005
1.614273e-003,6.719535e-005
1.533078e-003,3.105477e-005
1.347512e-003,-4.041603e-005
1.079780e-003,-1.331174e-004
7.660213e-004,-2.266291e-004
4.501558e-004,-3.010170e-004
1.791825e-004,-3.509331e-004
-3.141010e-006,-3.848048e-004
-6.861539e-005,-4.188385e-004
-2.388537e-005,-4.595169e-004
8.842590e-005,-5.052193e-004
2.115956e-004,-5.449253e-004
2.893870e-004,-5.668041e-004
2.782044e-004,-5.693972e-004
1.667035e-004,-5.630766e-004
-2.031993e-005,-5.671282e-004
-2.329496e-004,-5.950035e-004
-4.144627e-004,-6.520505e-004
-5.214258e-004,-7.347037e-004
-5.363359e-004,-8.243258e-004
-4.655133e-004,-8.881796e-004
-3.356990e-004,-9.001724e-004
-1.799543e-004,-8.552803e-004
-2.113026e-005,-7.690616e-004
1.265113e-004,-6.684191e-004
2.440086e-004,-5.765280e-004
3.047831e-004,-5.074882e-004
2.850112e-004,-4.677822e-004
1.710792e-004,-4.580583e-004
-3.830919e-005,-4.760476e-004
-3.074997e-004,-5.181845e-004
-5.606457e-004,-5.724764e-004
-7.176869e-004,-6.185030e-004
-7.408622e-004,-6.400577e-004
-6.429748e-004,-6.314681e-004
-4.698891e-004,-5.984068e-004
-2.605007e-004,-5.552975e-004
-3.474375e-005,-5.136467e-004
1.932822e-004,-4.744269e-004
3.973225e-004,-4.246728e-004
5.392918e-004,-3.394265e-004
5.943940e-004,-1.930815e-004
5.676532e-004,2.619281e-005
4.819206e-004,2.991108e-004
3.678266e-004,5.798081e-004
2.513016e-004,8.233925e-004
1.457970e-004,1.000206e-003
4.239934e-005,1.107979e-003
-7.137051e-005,1.162434e-003
-1.977815e-004,1.183988e-003
-3.217614e-004,1.185447e-003
-4.160834e-004,1.162271e-003
-4.658375e-004,1.123052e-003
-4.760476e-004,1.083346e-003
-4.668098e-004,1.033267e-003
-4.588687e-004,9.577448e-004
-4.758855e-004,8.630985e-004
-5.282326e-004,7.917897e-004
-6.034309e-004,7.846588e-004
-6.747396e-004,8.407335e-004
-7.079630e-004,9.207938e-004
-6.807360e-004,9.856200e-004
-6.022964e-004,1.017385e-003
-4.953333e-004,1.042343e-003
-3.762153e-004,1.099228e-003
-2.514251e-004,1.195333e-003
-1.217728e-004,1.297758e-003
6.258778e-006,1.349943e-003
1.265113e-004,1.273286e-003
2.370398e-004,9.308419e-004
3.503235e-004,1.863134e-004
4.809482e-004,-8.951484e-004
6.350724e-004,-2.008051e-003
8.023240e-004,-2.803631e-003
9.561241e-004,-3.049809e-003
1.064384e-003,-2.728919e-003
1.107655e-003,-2.042895e-003
1.072325e-003,-1.304849e-003
9.517483e-004,-7.778131e-004
7.464114e-004,-5.993792e-004
4.705760e-004,-7.627411e-004
1.539003e-004,-1.123660e-003
-1.635857e-004,-1.475991e-003
-4.254832e-004,-1.663500e-003
-5.682627e-004,-1.628170e-003
-5.554595e-004,-1.394634e-003
-4.160834e-004,-1.029987e-003
-2.219292e-004,-6.065101e-004
-5.597430e-005,-1.914609e-004
1.128280e-005,1.524417e-004
-5.095028e-005,3.720403e-004
-2.049123e-004,4.449697e-004
-3.491504e-004,3.900295e-004
-3.734602e-004,2.705873e-004
-2.136638e-004,1.754550e-004
1.023635e-004,1.762653e-004
4.734932e-004,2.927903e-004
7.807693e-004,4.668485e-004
9.428347e-004,5.627912e-004
9.256558e-004,4.495075e-004
7.470596e-004,1.587623e-004
4.626348e-004,-5.613637e-005
1.485521e-004,1.007429e-004
-1.386276e-004,7.214533e-004
-3.791325e-004,1.641824e-003
-5.650214e-004,2.593637e-003
-6.836532e-004,3.325691e-003
-7.243316e-004,3.643504e-003
-6.915944e-004,3.459882e-003
-6.053757e-004,2.828147e-003
-4.976023e-004,1.918308e-003
-4.133283e-004,9.441312e-004
-3.809152e-004,1.007429e-004
-4.003631e-004,-4.789647e-004
-4.311555e-004,-7.778131e-004
-4.000390e-004,-8.791040e-004
-2.462390e-004,-9.214030e-004
3.332369e-005,-1.047004e-003
3.790091e-004,-1.349255e-003
6.963331e-004,-1.838693e-003
8.752534e-004,-2.455676e-003
7.956792e-004,-3.054185e-003
3.579406e-004,-3.422722e-003
-4.143007e-004,-3.388527e-003
-1.284267e-003,-2.923236e-003
-1.936580e-003,-2.158610e-003
-2.166389e-003,-1.303391e-003
-1.959107e-003,-5.345531e-004
-1.484094e-003,4.855783e-005
-9.873635e-004,4.282770e-004
-6.580469e-004,6.428516e-004
-5.758798e-004,7.524078e-004
-7.356761e-004,8.314957e-004
-1.055593e-003,9.491552e-004
-1.387989e-003,1.145741e-003
-1.573392e-003,1.407801e-003
-1.494790e-003,1.681530e-003
-1.125767e-003,1.905343e-003
-5.549733e-004,2.034509e-003
4.272347e-005,2.059954e-003
5.046097e-004,2.000313e-003
7.603490e-004,1.881843e-003
8.327923e-004,1.720264e-003
8.062135e-004,1.524164e-003
7.788245e-004,1.289007e-003
8.066997e-004,9.958302e-004
8.909738e-004,6.225934e-004
1.019168e-003,1.631380e-004
1.183988e-003,-3.426678e-004
1.367609e-003,-8.116848e-004
1.536643e-003,-1.164987e-003
1.649603e-003,-1.379562e-003
1.659489e-003,-1.484256e-003
1.535671e-003,-1.512779e-003
1.279445e-003,-1.480204e-003
9.373245e-004,-1.384424e-003
5.916389e-004,-1.220251e-003
3.240689e-004,-9.862292e-004
1.743205e-004,-6.875428e-004
1.295905e-004,-3.423437e-004
1.483901e-004,1.938607e-005
1.889064e-004,3.640991e-004
2.321778e-004,6.528996e-004
2.743149e-004,8.549952e-004
3.269861e-004,9.616343e-004
4.062361e-004,9.801098e-004
5.178991e-004,9.248455e-004
6.584098e-004,8.182063e-004
8.060515e-004,7.057329e-004
9.227386e-004,6.456067e-004
9.642274e-004,6.678096e-004
9.049114e-004,7.580801e-004
7.420356e-004,8.606675e-004
5.002340e-004,9.060458e-004
2.417397e-004,8.491609e-004
3.980630e-005,6.901747e-004
-5.872941e-005,4.514523e-004
-4.835724e-005,1.652449e-004
4.061663e-005,-1.185315e-004
1.592484e-004,-3.519055e-004
2.707494e-004,-5.144570e-004
3.563199e-004,-6.157478e-004
4.112601e-004,-6.833291e-004
4.402698e-004,-7.536653e-004
4.480489e-004,-8.376152e-004
4.410801e-004,-9.129756e-004
4.235771e-004,-9.413370e-004
3.997535e-004,-8.933656e-004
3.684748e-004,-7.680892e-004
3.279585e-004,-5.838210e-004
2.798251e-004,-3.745947e-004
2.232643e-004,-1.736337e-004
1.590864e-004,1.072688e-006
9.409818e-005,1.490383e-004
3.899597e-005,2.798251e-004
-6.176923e-008,4.060740e-004
-2.518189e-005,5.294057e-004
-4.138842e-005,6.447964e-004
-5.095028e-005,7.509492e-004
-5.775702e-005,8.486747e-004
-5.727083e-005,9.374866e-004
-5.305713e-005,1.009120e-003
-5.370539e-005,1.051905e-003
-7.072225e-005,1.074108e-003
-1.011905e-004,1.089018e-003
-1.349001e-004,1.093394e-003
-1.596961e-004,1.064060e-003
-1.712027e-004,9.796236e-004
-1.728234e-004,8.365198e-004
-1.684476e-004,6.477135e-004
-1.588858e-004,4.315182e-004
-1.386276e-004,1.936063e-004
-1.067007e-004,-6.440170e-005
-6.699475e-005,-3.327818e-004
-2.858527e-005,-5.914380e-004
-2.031993e-005,-8.168708e-004
-7.509801e-005,-9.922255e-004
-2.092881e-004,-1.111343e-003
-4.086284e-004,-1.182976e-003
-6.340612e-004,-1.226248e-003
-8.368049e-004,-1.269681e-003
-9.755327e-004,-1.340666e-003
-1.032580e-003,-1.444712e-003
-1.004705e-003,-1.564316e-003
-8.927174e-004,-1.664635e-003
-7.040734e-004,-1.707582e-003
-4.645409e-004,-1.666093e-003
-2.117191e-004,-1.534496e-003
1.338965e-005,-1.335642e-003
1.744826e-004,-1.107616e-003
2.579462e-004,-8.825073e-004
2.837146e-004,-6.787913e-004
2.892249e-004,-4.979264e-004
3.044590e-004,-3.308371e-004
3.321722e-004,-1.736337e-004
3.623164e-004,-3.134038e-005
3.850055e-004,8.567078e-005
3.910019e-004,1.684862e-004
3.683128e-004,2.154851e-004
3.156415e-004,2.350950e-004
2.389846e-004,2.373639e-004
1.545486e-004,2.286124e-004
8.567078e-005,2.146748e-004
3.753739e-005,1.992786e-004
1.558884e-006,1.936063e-004
-4.236082e-005,2.242366e-004
-1.139937e-004,3.111037e-004
-2.357047e-004,4.519385e-004
-4.099249e-004,6.268070e-004
-6.052136e-004,7.945448e-004
-7.737615e-004,9.076665e-004
-8.808867e-004,9.011839e-004
-9.220513e-004,6.786680e-004
-9.246443e-004,2.013854e-004
-9.257787e-004,-4.407173e-004
-9.481438e-004,-1.067748e-003
-9.912532e-004,-1.496411e-003
-1.049272e-003,-1.585223e-003
-1.119609e-003,-1.259147e-003
-1.192538e-003,-5.518941e-004
-1.234837e-003,3.952156e-004
-1.210203e-003,1.355454e-003
-1.099027e-003,2.120080e-003
-9.045482e-004,2.534807e-003
-6.385990e-004,2.509201e-003
-3.297026e-004,2.064005e-003
-1.740276e-005,1.372633e-003
2.636185e-004,6.906608e-004
4.956961e-004,2.359054e-004
6.856368e-004,9.571884e-005
8.491609e-004,2.227781e-004
9.912923e-004,4.788414e-004
1.106035e-003,7.151327e-004
1.171509e-003,8.337647e-004
1.164216e-003,8.112376e-004
1.074594e-003,6.900126e-004
9.117182e-004,5.310264e-004
6.877437e-004,3.817642e-004
4.127187e-004,2.665357e-004
1.111150e-004,1.879340e-004
-1.812508e-004,1.406109e-004
-4.254832e-004,1.216493e-004
-5.906277e-004,1.420695e-004
-6.667984e-004,2.031682e-004
-6.629088e-004,2.819319e-004
-5.959758e-004,3.551855e-004
-4.907955e-004,4.166082e-004
-3.664914e-004,4.558281e-004
-2.297083e-004,4.384871e-004
-8.563225e-005,3.085106e-004
6.476436e-005,3.299956e-005
2.273159e-004,-3.473677e-004
4.025085e-004,-7.227109e-004
5.916389e-004,-9.708329e-004
7.903311e-004,-1.018966e-003
9.739513e-004,-8.889899e-004
1.112355e-003,-6.813843e-004
1.186419e-003,-5.147812e-004
1.190795e-003,-4.758855e-004
1.122727e-003,-6.024585e-004
9.666584e-004,-8.834797e-004
7.203188e-004,-1.257851e-003
4.057499e-004,-1.608398e-003
4.904402e-005,-1.810169e-003
-3.107410e-004,-1.779377e-003
-6.136410e-004,-1.522179e-003
-8.233535e-004,-1.125281e-003
-9.620814e-004,-6.953219e-004
-1.085413e-003,-3.066893e-004
-1.222196e-003,5.124321e-006
-1.349904e-003,2.295848e-004
-1.451195e-003,3.571303e-004
-1.553944e-003,3.752816e-004
-1.705313e-003,2.960316e-004
-1.931394e-003,1.686482e-004
-2.190861e-003,6.427817e-005
-2.372374e-003,4.369587e-005
-2.352602e-003,1.294284e-004
-2.062505e-003,2.879283e-004
-1.523476e-003,4.636072e-004
-8.171950e-004,6.041179e-004
-4.738484e-005,6.862851e-004
6.823955e-004,7.172396e-004
1.294193e-003,7.177258e-004
1.741332e-003,7.071915e-004
1.994803e-003,6.992503e-004
2.054767e-003,6.945504e-004
1.946345e-003,6.823955e-004
1.713295e-003,6.472273e-004
1.419632e-003,5.854804e-004
1.144930e-003,5.067165e-004
9.517483e-004,4.227667e-004
8.632605e-004,3.389789e-004
8.572642e-004,2.475741e-004
8.838429e-004,1.354248e-004
8.922703e-004,-4.761664e-006
8.558056e-004,-1.629374e-004
7.843347e-004,-3.170615e-004
7.094605e-004,-4.415277e-004
6.642442e-004,-5.212637e-004
6.741302e-004,-5.548113e-004
7.491665e-004,-5.522182e-004
8.771982e-004,-5.230465e-004
1.030350e-003,-4.684305e-004
1.180423e-003,-3.898288e-004
1.302944e-003,-2.945344e-004
1.383329e-003,-1.930815e-004
1.420604e-003,-9.908367e-005
1.419308e-003,-2.809907e-005
1.384139e-003,9.824215e-006
1.321744e-003,-3.465141e-006
1.240225e-003,-9.892161e-005
1.140879e-003,-2.807589e-004
1.015764e-003,-4.969540e-004
8.462437e-004,-6.739292e-004
6.133557e-004,-7.522068e-004
3.230965e-004,-7.076389e-004
1.727922e-005,-5.523803e-004
-2.501286e-004,-3.237062e-004
-4.311555e-004,-6.553616e-005
-5.005194e-004,1.921477e-004
-4.697270e-004,4.264942e-004
-3.767015e-004,6.294001e-004
-2.723315e-004,8.165857e-004
-2.201465e-004,1.018357e-003
-2.716832e-004,1.240549e-003
-4.185144e-004,1.461445e-003
-5.972724e-004,1.640203e-003
-7.342176e-004,1.744735e-003
-7.697099e-004,1.756890e-003
-6.742534e-004,1.666134e-003
-4.543308e-004,1.471655e-003
-1.460826e-004,1.189823e-003
1.931201e-004,8.519160e-004
4.982892e-004,4.971547e-004
7.070294e-004,1.670276e-004
7.806072e-004,-1.067007e-004
7.023296e-004,-3.065273e-004
4.812723e-004,-4.298589e-004
1.613553e-004,-4.873921e-004
-1.817370e-004,-5.026262e-004
-4.713477e-004,-5.044090e-004
-6.680949e-004,-5.225603e-004
-7.731132e-004,-5.870623e-004
-8.146020e-004,-7.108802e-004
-8.167088e-004,-8.628974e-004
-8.120089e-004,-9.799085e-004
-8.585216e-004,-1.014104e-003
-9.946565e-004,-1.002922e-003
-1.189297e-003,-1.064993e-003
-1.352173e-003,-1.261254e-003
-1.384910e-003,-1.527689e-003
-1.234837e-003,-1.727354e-003
-9.178375e-004,-1.729785e-003
-4.932265e-004,-1.465294e-003
-3.814712e-005,-9.450645e-004
3.642611e-004,-2.491561e-004
6.261588e-004,5.204921e-004
6.665131e-004,1.267776e-003
4.461041e-004,1.921225e-003
2.230325e-005,2.428816e-003
-4.321279e-004,2.757162e-003
-7.162283e-004,2.893136e-003
-7.165525e-004,2.842895e-003
-4.583824e-004,2.628968e-003
-6.683268e-005,2.295922e-003
3.060797e-004,1.895132e-003
