6.540340e-004,5.642498e-004
5.799701e-004,6.070351e-004
4.730070e-004,6.363689e-004
3.563199e-004,6.460929e-004
2.592428e-004,6.268070e-004
2.008992e-004,5.710566e-004
1.798307e-004,4.837033e-004
1.806411e-004,3.817642e-004
1.919856e-004,2.850112e-004
2.171058e-004,2.106232e-004
2.616738e-004,1.673517e-004
3.211517e-004,1.540623e-004
3.767402e-004,1.629760e-004
4.282770e-004,1.827479e-004
4.997478e-004,2.004130e-004
6.036317e-004,2.055991e-004
6.976296e-004,1.911753e-004
6.888782e-004,1.513072e-004
4.781931e-004,8.064677e-005
4.531652e-005,-1.318906e-005
-4.870680e-004,-1.088076e-004
-9.244822e-004,-1.754164e-004
-1.130791e-003,-1.932436e-004
-1.089627e-003,-1.637477e-004
-8.859106e-004,-1.079973e-004
-6.361681e-004,-4.932962e-005
-4.275900e-004,-9.299493e-006
-2.945344e-004,6.096713e-006
-2.287359e-004,5.448452e-006
-2.019951e-004,2.369211e-006
-1.865989e-004,4.151929e-006
-1.679614e-004,8.851824e-006
-1.442999e-004,8.203562e-006
-1.180453e-004,-3.627206e-006
-8.968389e-005,-2.583016e-005
-6.132246e-005,-5.451572e-005
-3.604027e-005,-8.595638e-005
-1.432352e-005,-1.208004e-004
6.258778e-006,-1.562927e-004
2.262738e-005,-1.865989e-004
3.283749e-005,-2.075054e-004
4.418206e-005,-2.151224e-004
6.492643e-005,-2.120432e-004
9.296373e-005,-2.052365e-004
1.182459e-004,-1.916230e-004
1.282940e-004,-1.567789e-004
1.187321e-004,-9.746302e-005
9.636710e-005,-3.215070e-005
7.465034e-005,9.013889e-006
5.633696e-005,4.313994e-006
3.915804e-005,-4.689865e-005
2.278944e-005,-1.157764e-004
8.527692e-006,-1.553203e-004
-9.461558e-006,-1.339277e-004
-3.522994e-005,-5.791909e-005
-6.261898e-005,3.964424e-005
-7.056019e-005,1.218114e-004
-3.036798e-005,1.670276e-004
7.254349e-005,1.744826e-004
2.242366e-004,1.451488e-004
3.859779e-004,7.302970e-005
5.156302e-004,-5.548811e-005
5.859666e-004,-2.467252e-004
5.979594e-004,-4.865818e-004
5.781874e-004,-7.538275e-004
5.658705e-004,-1.029987e-003
5.895320e-004,-1.290102e-003
6.472273e-004,-1.514076e-003
7.109190e-004,-1.690727e-003
7.564594e-004,-1.813248e-003
7.673178e-004,-1.867865e-003
7.410632e-004,-1.836424e-003
6.799645e-004,-1.705151e-003
5.830494e-004,-1.471290e-003
4.350837e-004,-1.153967e-003
2.226160e-004,-8.126572e-004
-4.819517e-005,-5.123502e-004
-3.650328e-004,-2.626076e-004
-7.356761e-004,-1.805102e-005
-1.183625e-003,2.723701e-004
-1.723950e-003,6.271312e-004
-2.340609e-003,1.019168e-003
-2.985307e-003,1.397105e-003
-3.579926e-003,1.717995e-003
-4.024312e-003,1.961255e-003
-4.221223e-003,2.115380e-003
-4.102590e-003,2.171617e-003
-3.670035e-003,2.127049e-003
-2.988548e-003,2.017006e-003
-2.165093e-003,1.906639e-003
-1.321218e-003,1.854616e-003
-5.732867e-004,1.880871e-003
-1.918548e-005,1.972762e-003
2.892249e-004,2.097391e-003
3.642611e-004,2.210513e-003
2.560015e-004,2.266426e-003
3.932010e-005,2.235795e-003
-1.930815e-004,2.105656e-003
-3.475298e-004,1.876333e-003
-3.540124e-004,1.561601e-003
-1.880575e-004,1.188850e-003
1.208390e-004,8.021619e-004
5.034753e-004,4.451317e-004
8.656915e-004,1.504969e-004
1.133910e-003,-7.072225e-005
1.278797e-003,-2.235498e-004
1.320609e-003,-3.285682e-004
1.314937e-003,-4.112214e-004
1.319799e-003,-4.893369e-004
1.364043e-003,-5.747453e-004
1.439404e-003,-6.723086e-004
1.522543e-003,-7.797579e-004
1.587208e-003,-8.898003e-004
1.622862e-003,-9.917393e-004
1.640041e-003,-1.080875e-003
1.660623e-003,-1.162232e-003
1.689471e-003,-1.241806e-003
1.718643e-003,-1.319111e-003
1.728367e-003,-1.387989e-003
1.700978e-003,-1.437095e-003
1.631614e-003,-1.460432e-003
1.524002e-003,-1.454598e-003
1.379764e-003,-1.420888e-003
1.202302e-003,-1.361897e-003
1.017709e-003,-1.284267e-003
8.590469e-004,-1.195131e-003
7.444666e-004,-1.103564e-003
6.699165e-004,-1.014590e-003
6.138419e-004,-9.311269e-004
5.540397e-004,-8.570630e-004
4.793275e-004,-7.901301e-004
3.906778e-004,-7.270867e-004
2.957075e-004,-6.624226e-004
2.023578e-004,-5.890070e-004
1.065772e-004,-5.050572e-004
8.527692e-006,-4.188385e-004
-8.287715e-005,-3.384541e-004
-1.481895e-004,-2.729798e-004
-1.679614e-004,-2.340841e-004
-1.331174e-004,-2.316531e-004
-5.500191e-005,-2.642282e-004
3.640293e-005,-3.151167e-004
1.119254e-004,-3.588744e-004
1.547106e-004,-3.707051e-004
1.563313e-004,-3.386162e-004
1.132219e-004,-2.666592e-004
3.251336e-005,-1.760647e-004
-6.553616e-005,-1.029732e-004
-1.626133e-004,-7.299116e-005
-2.517492e-004,-7.688073e-005
-3.463953e-004,-9.065628e-005
-4.713477e-004,-1.003802e-004
-6.444334e-004,-1.060525e-004
-8.541459e-004,-9.162867e-005
-1.060131e-003,-1.967167e-005
-1.217496e-003,1.124116e-004
-1.300960e-003,2.671840e-004
-1.302581e-003,4.099636e-004
-1.228841e-003,5.313505e-004
-1.089303e-003,6.422033e-004
-9.026034e-004,7.514353e-004
-7.014804e-004,8.575883e-004
-5.191569e-004,9.622826e-004
-3.801049e-004,1.080428e-003
-2.885380e-004,1.233742e-003
-2.311669e-004,1.440862e-003
-1.836818e-004,1.689471e-003
-1.266348e-004,1.932894e-003
-4.770897e-005,2.115056e-003
5.163707e-005,2.198358e-003
1.594105e-004,2.163028e-003
2.619979e-004,1.983945e-003
3.462718e-004,1.619945e-003
4.054258e-004,1.052715e-003
4.404318e-004,3.456236e-004
4.501558e-004,-3.436402e-004
4.240633e-004,-8.462047e-004
3.512959e-004,-1.075851e-003
2.305572e-004,-1.043600e-003
8.048470e-005,-8.348601e-004
-5.727083e-005,-5.562698e-004
-1.366828e-004,-2.804347e-004
-1.337657e-004,-4.398147e-005
-5.565017e-005,1.483901e-004
6.492643e-005,2.927903e-004
1.842065e-004,3.820883e-004
2.671840e-004,4.161220e-004
3.044590e-004,4.193634e-004
3.115899e-004,4.375147e-004
3.122381e-004,5.055821e-004
3.151553e-004,6.144901e-004
3.077003e-004,7.114052e-004
2.705873e-004,7.230740e-004
2.020337e-004,5.883976e-004
1.266733e-004,2.662116e-004
8.275361e-005,-2.601766e-004
1.026876e-004,-9.659709e-004
1.958752e-004,-1.753771e-003
3.491891e-004,-2.449193e-003
5.321609e-004,-2.866674e-003
7.096225e-004,-2.908650e-003
8.478644e-004,-2.613852e-003
9.209559e-004,-2.115663e-003
9.115561e-004,-1.575985e-003
8.136685e-004,-1.134033e-003
6.292380e-004,-8.711627e-004
3.610198e-004,-7.896438e-004
2.392390e-005,-8.264327e-004
-3.546606e-004,-8.941760e-004
-7.457242e-004,-9.183238e-004
-1.122688e-003,-8.517149e-004
-1.456705e-003,-6.886772e-004
-1.708068e-003,-4.471999e-004
-1.847768e-003,-1.634236e-004
-1.883423e-003,1.263492e-004
-1.845824e-003,3.901916e-004
-1.767384e-003,5.969870e-004
-1.669334e-003,7.146465e-004
-1.570637e-003,7.105949e-004
-1.485066e-003,5.598741e-004
-1.427533e-003,2.712356e-004
-1.386044e-003,-9.454585e-005
-1.323001e-003,-4.326141e-004
-1.199507e-003,-6.384369e-004
-1.010701e-003,-6.561021e-004
-7.820268e-004,-4.964678e-004
-5.389289e-004,-2.258187e-004
-2.958309e-004,6.865393e-005
-5.662256e-005,3.279585e-004
1.757791e-004,5.232473e-004
3.950536e-004,6.443101e-004
5.930975e-004,7.068674e-004
7.600249e-004,7.613214e-004
8.911358e-004,8.637467e-004
9.909682e-004,1.044612e-003
1.067949e-003,1.282848e-003
1.124510e-003,1.519788e-003
1.149955e-003,1.694495e-003
1.128886e-003,1.774069e-003
1.053039e-003,1.763373e-003
9.329488e-004,1.698061e-003
7.950310e-004,1.614597e-003
6.783439e-004,1.535671e-003
6.036317e-004,1.463065e-003
5.754323e-004,1.387056e-003
5.817529e-004,1.288683e-003
6.044420e-004,1.154330e-003
6.201624e-004,9.758961e-004
5.955285e-004,7.503009e-004
4.989374e-004,4.958582e-004
3.224483e-004,2.666978e-004
7.789165e-005,1.263492e-004
-2.047502e-004,1.043083e-004
-4.766958e-004,1.814514e-004
-6.729569e-004,2.973281e-004
-7.288694e-004,3.846814e-004
-6.175305e-004,4.099636e-004
-3.692465e-004,3.843572e-004
-5.516398e-005,3.470822e-004
2.404432e-004,3.203414e-004
4.606900e-004,2.942489e-004
5.835356e-004,2.444948e-004
6.149763e-004,1.633001e-004
5.781874e-004,5.714729e-005
5.033132e-004,-5.889148e-005
4.320045e-004,-1.712027e-004
4.060740e-004,-2.692523e-004
4.428628e-004,-3.481781e-004
5.269747e-004,-4.104111e-004
6.118971e-004,-4.716718e-004
6.550064e-004,-5.515700e-004
6.405826e-004,-6.624226e-004
5.773771e-004,-7.933713e-004
4.895377e-004,-9.175134e-004
3.991052e-004,-1.005029e-003
3.253654e-004,-1.033228e-003
2.884145e-004,-9.920634e-004
3.023522e-004,-8.881796e-004
3.657197e-004,-7.369727e-004
4.559901e-004,-5.606457e-004
5.355643e-004,-3.856151e-004
5.616568e-004,-2.327876e-004
5.135234e-004,-1.091317e-004
4.038051e-004,-1.918548e-005
2.608634e-004,3.737532e-005
1.056048e-004,6.492643e-005
-5.565017e-005,6.849186e-005
-2.123673e-004,5.212327e-005
-3.425058e-004,1.971020e-005
-4.164075e-004,-1.691656e-005
-4.081422e-004,-4.074016e-005
-3.188442e-004,-4.090223e-005
-1.768750e-004,-1.659243e-005
-2.291298e-005,2.554455e-005
1.090082e-004,7.643307e-005
2.010613e-004,1.257009e-004
2.548670e-004,1.702689e-004
2.803113e-004,2.044647e-004
2.918179e-004,2.159713e-004
3.141829e-004,1.932822e-004
3.687990e-004,1.295905e-004
4.689553e-004,2.441009e-005
6.052523e-004,-1.161005e-004
7.413874e-004,-2.789762e-004
8.203132e-004,-4.501171e-004
7.613214e-004,-6.223925e-004
4.955341e-004,-7.860785e-004
1.857574e-005,-9.301545e-004
-5.651835e-004,-1.047004e-003
-1.069044e-003,-1.129981e-003
-1.336290e-003,-1.172442e-003
-1.318463e-003,-1.170984e-003
-1.079255e-003,-1.131926e-003
-7.484793e-004,-1.085413e-003
-4.476861e-004,-1.053486e-003
-2.452666e-004,-1.030473e-003
-1.468929e-004,-9.787740e-004
-1.159385e-004,-8.515528e-004
-1.021629e-004,-6.207718e-004
-7.088431e-005,-2.955068e-004
-1.237873e-005,9.037068e-005
5.552663e-005,4.896998e-004
1.085220e-004,8.575883e-004
1.282940e-004,1.155789e-003
1.106288e-004,1.365178e-003
6.557468e-005,1.492885e-003
1.176900e-005,1.561439e-003
-2.858527e-005,1.596121e-003
-4.965376e-005,1.600821e-003
-5.840528e-005,1.531781e-003
-6.586029e-005,1.316234e-003
-8.401160e-005,9.214421e-004
-1.165867e-004,4.002396e-004
-1.596961e-004,-1.340898e-004
-2.058847e-004,-5.572423e-004
-2.476975e-004,-7.855922e-004
-2.804347e-004,-7.979092e-004
-3.109030e-004,-6.322784e-004
-3.467195e-004,-3.587123e-004
-3.841565e-004,-4.851930e-005
-4.104111e-004,2.443328e-004
-4.173799e-004,4.864584e-004
-4.034423e-004,6.627856e-004
-3.825359e-004,7.687764e-004
-3.736223e-004,8.097790e-004
-3.809152e-004,8.050791e-004
-3.835083e-004,7.741245e-004
-3.593606e-004,7.305289e-004
-3.018274e-004,6.828817e-004
-2.237119e-004,6.376655e-004
-1.413827e-004,5.976353e-004
-7.299116e-005,5.653843e-004
-2.777494e-005,5.368608e-004
-1.196227e-006,4.994237e-004
1.971020e-005,4.339493e-004
3.672706e-005,3.234207e-004
4.385793e-005,1.712413e-004
3.769945e-005,9.106227e-007
2.068259e-005,-1.556445e-004
-1.610624e-005,-2.703867e-004
-8.644259e-005,-3.358611e-004
-1.914609e-004,-3.651949e-004
-3.086341e-004,-3.823738e-004
-3.995528e-004,-4.042526e-004
-4.282383e-004,-4.332623e-004
-3.830221e-004,-4.617858e-004
-2.773555e-004,-4.835025e-004
-1.478653e-004,-4.886886e-004
-3.182657e-005,-4.737787e-004
5.325772e-005,-4.507654e-004
1.120874e-004,-4.331002e-004
1.571416e-004,-4.290486e-004
1.974959e-004,-4.356933e-004
2.352571e-004,-4.387725e-004
2.689667e-004,-4.227281e-004
2.945730e-004,-3.862634e-004
3.077003e-004,-3.402368e-004
3.083486e-004,-3.027998e-004
2.955454e-004,-2.875656e-004
2.762596e-004,-2.943724e-004
2.597290e-004,-3.159271e-004
2.496809e-004,-3.376438e-004
2.441707e-004,-3.485022e-004
2.368777e-004,-3.522297e-004
2.258573e-004,-3.600088e-004
2.091646e-004,-3.773498e-004
1.914995e-004,-3.955011e-004
1.773998e-004,-4.006872e-004
1.691344e-004,-3.835083e-004
1.692965e-004,-3.418575e-004
1.696206e-004,-2.810830e-004
1.550348e-004,-2.122053e-004
1.094944e-004,-1.421931e-004
2.846173e-005,-6.780507e-005
-7.153257e-005,1.906194e-005
-1.608306e-004,1.166253e-004
-2.110708e-004,2.093267e-004
-2.109087e-004,2.756114e-004
-1.687718e-004,2.984626e-004
-1.028112e-004,2.754493e-004
-3.360929e-005,2.222919e-004
1.338965e-005,1.623277e-004
1.841368e-005,1.171115e-004
-1.464765e-005,9.685330e-005
-6.245691e-005,1.015532e-004
-1.020008e-004,1.232699e-004
-1.172350e-004,1.500107e-004
-1.029732e-004,1.741585e-004
-6.472583e-005,1.966855e-004
-1.675450e-005,2.172679e-004
3.299956e-005,2.342847e-004
8.145709e-005,2.467637e-004
1.292664e-004,2.540567e-004
1.772377e-004,2.579462e-004
2.300710e-004,2.594049e-004
2.887387e-004,2.587566e-004
3.511338e-004,2.610255e-004
4.025085e-004,2.639427e-004
4.349216e-004,2.598910e-004
4.506420e-004,2.470879e-004
4.598797e-004,2.237505e-004
4.702519e-004,1.913374e-004
4.845136e-004,1.492004e-004
5.041235e-004,1.025256e-004
5.277851e-004,5.617490e-005
5.446399e-004,1.663096e-005
5.404262e-004,-1.367526e-005
5.225990e-004,-3.279896e-005
5.175750e-004,-4.381940e-005
5.467468e-004,-5.629844e-005
6.117350e-004,-8.514606e-005
6.908230e-004,-1.404103e-004
7.572698e-004,-2.203085e-004
7.926000e-004,-3.040963e-004
7.877381e-004,-3.679500e-004
7.439804e-004,-3.950149e-004
6.665131e-004,-3.809152e-004
5.627912e-004,-3.334301e-004
4.401077e-004,-2.673075e-004
3.072141e-004,-1.958367e-004
1.621656e-004,-1.276072e-004
4.962256e-006,-5.808115e-005
-1.592099e-004,1.306552e-005
-3.212752e-004,8.421220e-005
-4.711856e-004,1.522796e-004
-6.035930e-004,2.130541e-004
-7.196317e-004,2.611876e-004
-8.282154e-004,2.936006e-004
-9.364750e-004,3.112658e-004
-1.054621e-003,3.208276e-004
-1.188973e-003,3.243930e-004
-1.331266e-003,3.180725e-004
-1.464484e-003,2.999212e-004
-1.577443e-003,2.725321e-004
-1.660421e-003,2.359054e-004
-1.704341e-003,1.940925e-004
-1.697858e-003,1.548727e-004
-1.622173e-003,1.224596e-004
-1.455894e-003,8.956036e-005
-1.201776e-003,4.774750e-005
-8.927174e-004,1.234753e-006
-5.779866e-004,-3.863332e-005
-2.987481e-004,-5.743289e-005
-8.465986e-005,-4.495386e-005
3.705119e-005,-1.682422e-006
6.087479e-005,6.330578e-005
1.565857e-005,1.393144e-004
-4.803310e-005,2.090025e-004
-7.963584e-005,2.556773e-004
-5.078821e-005,2.631324e-004
3.980630e-005,2.198609e-004
1.699448e-004,1.365593e-004
3.099692e-004,4.839576e-005
4.407560e-004,1.720949e-006
5.517708e-004,1.517237e-005
6.355586e-004,6.638502e-005
6.880678e-004,1.078737e-004
7.044364e-004,1.020394e-004
6.809369e-004,3.915804e-005
6.274553e-004,-5.970181e-005
5.660325e-004,-1.622891e-004
5.157923e-004,-2.426735e-004
4.882411e-004,-2.867553e-004
4.921307e-004,-2.922655e-004
5.263265e-004,-2.603387e-004
5.798081e-004,-1.922712e-004
6.373413e-004,-9.195280e-005
6.780197e-004,3.575467e-005
6.785059e-004,1.806411e-004
6.167590e-004,3.297412e-004
4.854860e-004,4.721967e-004
2.919800e-004,5.981215e-004
6.038860e-005,7.013571e-004
-1.643960e-004,7.814175e-004
-3.201407e-004,8.457575e-004
-3.554710e-004,9.002115e-004
-2.582318e-004,9.358659e-004
-5.030202e-005,9.337591e-004
2.302331e-004,8.741189e-004
5.423710e-004,7.566215e-004
8.446231e-004,5.958526e-004
1.095987e-003,4.192013e-004
1.267290e-003,2.621599e-004
1.349295e-003,1.466074e-004
1.347675e-003,7.157111e-005
1.277500e-003,1.160693e-005
1.149306e-003,-6.261898e-005
9.760582e-004,-1.737958e-004
7.762314e-004,-3.206269e-004
5.736496e-004,-4.839888e-004
3.918123e-004,-6.371404e-004
2.654013e-004,-7.536653e-004
2.336365e-004,-8.205983e-004
3.044590e-004,-8.421530e-004
4.417284e-004,-8.261086e-004
5.905044e-004,-7.802441e-004
6.953608e-004,-7.042355e-004
7.188602e-004,-5.966241e-004
6.496583e-004,-4.585445e-004
5.039615e-004,-2.987481e-004
3.080245e-004,-1.366828e-004
8.810177e-005,1.112074e-005
-1.279313e-004,1.357490e-004
-3.128478e-004,2.325020e-004
-4.282383e-004,3.013798e-004
-4.457413e-004,3.474063e-004
-3.694086e-004,3.825745e-004
-2.454286e-004,4.281149e-004
-1.415448e-004,4.790034e-004
-1.180453e-004,5.031512e-004
-2.062088e-004,4.582590e-004
-4.014975e-004,3.198552e-004
-6.736051e-004,1.114392e-004
-9.727777e-004,-1.092938e-004
-1.234999e-003,-2.870794e-004
-1.408409e-003,-3.896668e-004
-1.479718e-003,-4.131662e-004
-1.480042e-003,-3.841565e-004
-1.458650e-003,-3.447747e-004
-1.452491e-003,-3.259751e-004
-1.463187e-003,-3.361852e-004
-1.458001e-003,-3.666535e-004
-1.394634e-003,-4.006872e-004
-1.251530e-003,-4.128421e-004
-1.036956e-003,-3.643846e-004
-7.889956e-004,-2.331117e-004
-5.491390e-004,-3.539201e-005
-3.444506e-004,1.731861e-004
-1.890299e-004,3.347652e-004
-8.190475e-005,4.162841e-004
-8.165035e-006,4.088291e-004
5.050261e-005,3.183966e-004
1.062531e-004,1.571416e-004
1.644345e-004,-4.722278e-005
2.265056e-004,-2.506147e-004
2.989488e-004,-3.989045e-004
3.791712e-004,-4.543308e-004
4.576108e-004,-4.073319e-004
5.214646e-004,-2.911311e-004
5.619809e-004,-1.669890e-004
5.845079e-004,-1.010285e-004
5.990939e-004,-1.230693e-004
6.238899e-004,-2.002124e-004
6.705648e-004,-2.616352e-004
7.413874e-004,-2.395943e-004
8.297130e-004,-1.105903e-004
9.269523e-004,9.312580e-005
1.025164e-003,3.094830e-004
1.109438e-003,4.814344e-004
1.162758e-003,5.817529e-004
1.158220e-003,6.156246e-004
1.074756e-003,6.012007e-004
8.992391e-004,5.595500e-004
6.289139e-004,5.096338e-004
2.594049e-004,4.566384e-004
-2.167431e-004,3.984569e-004
-7.578791e-004,3.326584e-004
-1.269681e-003,2.642668e-004
-1.651021e-003,1.978200e-004
-1.847606e-003,1.367214e-004
-1.870458e-003,8.080883e-005
-1.776946e-003,2.959619e-005
-1.619580e-003,-1.724069e-005
-1.421050e-003,-6.261898e-005
-1.181518e-003,-1.105903e-004
-9.024413e-004,-1.632615e-004
-5.912760e-004,-2.214430e-004
-2.630937e-004,-2.825416e-004
4.871989e-005,-3.387782e-004
3.064038e-004,-3.776739e-004
4.806241e-004,-3.895047e-004
5.574431e-004,-3.666535e-004
5.431813e-004,-3.151167e-004
4.626348e-004,-2.483458e-004
3.470822e-004,-1.750923e-004
2.231022e-004,-1.005423e-004
1.153287e-004,-2.615429e-005
4.272347e-005,4.920609e-005
1.808955e-005,1.222976e-004
5.244739e-005,1.806411e-004
1.394765e-004,2.065715e-004
2.572980e-004,1.859892e-004
3.864641e-004,1.224596e-004
5.083373e-004,3.769945e-005
6.104385e-004,-4.349527e-005
6.896885e-004,-9.956988e-005
7.635903e-004,-1.196660e-004
8.509436e-004,-1.075111e-004
9.449415e-004,-7.801519e-005
9.980991e-004,-5.208474e-005
9.318143e-004,-4.916756e-005
6.892023e-004,-8.320128e-005
3.120761e-004,-1.624512e-004
-5.694670e-005,-2.904828e-004
-2.661730e-004,-4.638926e-004
-2.569353e-004,-6.629088e-004
-7.947377e-005,-8.494460e-004
1.551968e-004,-9.825015e-004
3.441650e-004,-1.043762e-003
4.415663e-004,-1.038252e-003
4.563143e-004,-9.844464e-004
4.334631e-004,-8.920691e-004
4.162841e-004,-7.572309e-004
4.354078e-004,-5.726385e-004
4.979651e-004,-3.384541e-004
5.867769e-004,-6.440170e-005
6.699165e-004,2.281262e-004
7.127018e-004,5.033132e-004
6.935780e-004,7.224257e-004
6.063868e-004,8.551573e-004
4.580970e-004,8.838429e-004
2.725321e-004,8.071859e-004
7.756752e-005,6.598685e-004
-1.023250e-004,4.982892e-004
-2.554767e-004,3.657197e-004
-3.797808e-004,2.666978e-004
-4.758855e-004,1.675138e-004
-5.434667e-004,3.429608e-005
-5.843072e-004,-1.279313e-004
-5.940311e-004,-2.681178e-004
-5.695592e-004,-3.079858e-004
-5.159156e-004,-1.853024e-004
-4.437966e-004,1.148425e-004
-3.653570e-004,5.504743e-004
-2.912931e-004,1.042829e-003
-2.248464e-004,1.512009e-003
-1.669890e-004,1.897726e-003
-1.198280e-004,2.164486e-003
-8.595638e-005,2.315532e-003
-6.586029e-005,2.382303e-003
-5.532604e-005,2.412123e-003
-5.046408e-005,2.437243e-003
-4.949169e-005,2.438378e-003
-5.176061e-005,2.342759e-003
-5.581224e-005,2.072109e-003
-5.500191e-005,1.599038e-003
-4.414354e-005,9.729789e-004
-2.809907e-005,3.060797e-004
-2.275091e-005,-2.711970e-004
-3.814712e-005,-6.669604e-004
-6.958779e-005,-8.580354e-004
-9.859748e-005,-8.838038e-004
-1.094559e-004,-8.178432e-004
-9.049421e-005,-7.369727e-004
-4.155049e-005,-6.901358e-004
2.295151e-005,-6.870566e-004
8.372601e-005,-7.131490e-004
1.187321e-004,-7.497758e-004
1.112771e-004,-7.864026e-004
6.444023e-005,-8.202742e-004
-7.516774e-006,-8.539838e-004
-8.563225e-005,-8.834797e-004
-1.504584e-004,-9.013069e-004
-1.843300e-004,-9.053585e-004
-1.783336e-004,-9.000103e-004
-1.342519e-004,-8.833176e-004
-6.472583e-005,-8.400462e-004
2.019640e-005,-7.552860e-004
1.103047e-004,-6.335750e-004
1.942546e-004,-4.982505e-004
2.470879e-004,-3.716775e-004
2.427121e-004,-2.682799e-004
1.670276e-004,-1.848162e-004
1.792748e-005,-1.094559e-004
-1.891920e-004,-3.247483e-005
-4.040906e-004,4.126489e-005
-5.541630e-004,9.588091e-005
-5.805797e-004,1.235941e-004
-4.690787e-004,1.310491e-004
-2.507768e-004,1.226217e-004
2.149292e-005,7.562274e-005
2.927903e-004,-4.057810e-005
5.153061e-004,-2.418632e-004
6.601926e-004,-5.191569e-004
7.297186e-004,-8.436117e-004
7.384702e-004,-1.168553e-003
7.008709e-004,-1.447305e-003
6.358828e-004,-1.642270e-003
5.627912e-004,-1.732540e-003
4.879170e-004,-1.718440e-003
3.922984e-004,-1.622336e-003
2.427121e-004,-1.476315e-003
1.209313e-005,-1.311332e-003
-2.982619e-004,-1.133871e-003
-6.366542e-004,-9.278856e-004
-9.167031e-004,-6.719845e-004
-1.069044e-003,-3.630881e-004
-1.078930e-003,-2.096820e-005
-9.859049e-004,3.222862e-004
-8.616009e-004,6.352345e-004
-7.739235e-004,8.890290e-004
-7.596618e-004,1.062439e-003
-8.199501e-004,1.142662e-003
-9.280476e-004,1.138934e-003
-1.025287e-003,1.087559e-003
-1.046193e-003,1.036347e-003
-9.577056e-004,1.013495e-003
-7.834854e-004,1.020950e-003
-5.867381e-004,1.038778e-003
-4.201350e-004,1.041857e-003
-2.989102e-004,9.976128e-004
-2.110708e-004,8.840049e-004
-1.363587e-004,7.165913e-004
-6.504996e-005,5.460985e-004
4.800190e-006,4.251977e-004
7.675720e-005,3.885709e-004
1.529279e-004,4.417284e-004
2.331503e-004,5.616568e-004
3.143450e-004,7.063812e-004
3.940812e-004,8.455954e-004
4.741415e-004,9.742755e-004
5.572810e-004,1.081887e-003
6.410689e-004,1.149792e-003
7.148086e-004,1.152385e-003
7.686144e-004,1.074432e-003
7.995688e-004,9.194973e-004
8.089686e-004,7.198326e-004
8.052412e-004,5.240576e-004
8.016757e-004,3.689610e-004
8.130203e-004,2.663737e-004
8.428403e-004,2.012234e-004
8.749293e-004,1.297526e-004
8.739569e-004,-4.599598e-006
8.131823e-004,-2.472114e-004
7.029778e-004,-6.103997e-004
5.956905e-004,-1.062238e-003
5.472330e-004,-1.531093e-003
5.798081e-004,-1.922319e-003
6.893643e-004,-2.163148e-003
8.455954e-004,-2.225057e-003
1.003447e-003,-2.124738e-003
1.111707e-003,-1.911946e-003
1.141689e-003,-1.633842e-003
1.095662e-003,-1.318949e-003
9.927510e-004,-9.833119e-004
8.527263e-004,-6.429748e-004
6.917953e-004,-3.149546e-004
5.138475e-004,-1.010982e-005
3.151553e-004,2.587566e-004
1.030118e-004,4.734932e-004
-9.260107e-005,6.373413e-004
-2.245222e-004,7.718556e-004
-2.580697e-004,9.023183e-004
-1.940539e-004,1.031809e-003
-7.347736e-005,1.146713e-003
3.802358e-005,1.237470e-003
8.016057e-005,1.302296e-003
8.851824e-006,1.337464e-003
-1.961608e-004,1.322554e-003
-5.176983e-004,1.232284e-003
-8.901244e-004,1.054660e-003
-1.223007e-003,8.091307e-004
-1.436933e-003,5.456123e-004
-1.495925e-003,3.321722e-004
-1.413757e-003,2.237505e-004
-1.239861e-003,2.433604e-004
-1.037928e-003,3.668542e-004
-8.661387e-004,5.256782e-004
-7.512344e-004,6.277795e-004
-6.868945e-004,6.012007e-004
-6.394094e-004,4.328148e-004
-5.719902e-004,1.709172e-004
-4.682684e-004,-1.029732e-004
-3.345645e-004,-3.199787e-004
-1.951884e-004,-4.530343e-004
-7.347736e-005,-5.146191e-004
2.133085e-005,-5.366600e-004
9.199134e-005,-5.501114e-004
1.420695e-004,-5.708557e-004
1.668655e-004,-5.958138e-004
1.472556e-004,-6.105618e-004
5.779555e-005,-6.034309e-004
-1.144799e-004,-5.729626e-004
-3.449367e-004,-5.241810e-004
-5.797693e-004,-4.650271e-004
-7.572309e-004,-3.967976e-004
-8.225431e-004,-3.238683e-004
-7.478310e-004,-2.548284e-004
-5.510838e-004,-2.010227e-004
-2.844864e-004,-1.694200e-004
-4.437533e-006,-1.540238e-004
2.378501e-004,-1.451102e-004
4.138531e-004,-1.350622e-004
5.276231e-004,-1.173971e-004
6.026593e-004,-1.018388e-004
6.611650e-004,-1.058904e-004
7.143224e-004,-1.538618e-004
7.618076e-004,-2.635799e-004
7.995688e-004,-4.311555e-004
8.251752e-004,-6.313061e-004
8.321440e-004,-8.225431e-004
8.133444e-004,-9.612711e-004
7.631041e-004,-1.012970e-003
6.890402e-004,-9.724535e-004
6.096281e-004,-8.590078e-004
5.548500e-004,-6.992114e-004
5.376711e-004,-5.225603e-004
5.485295e-004,-3.468815e-004
5.626292e-004,-1.840059e-004
5.525811e-004,-4.965376e-005
4.968306e-004,4.207521e-005
3.979707e-004,8.518459e-005
2.736666e-004,9.263960e-005
1.394765e-004,9.069481e-005
6.582909e-006,1.090082e-004
-1.151281e-004,1.647587e-004
-2.288980e-004,2.602152e-004
-3.426678e-004,3.976466e-004
-4.449310e-004,5.684635e-004
-5.100812e-004,7.438183e-004
-5.138087e-004,8.891911e-004
-4.471999e-004,9.817304e-004
-3.134961e-004,1.028729e-003
-1.206384e-004,1.060818e-003
1.107909e-004,1.104252e-003
3.529166e-004,1.165675e-003
5.679773e-004,1.232608e-003
7.209671e-004,1.284631e-003
7.945448e-004,1.294517e-003
7.904932e-004,1.249787e-003
7.216153e-004,1.148496e-003
5.986077e-004,9.979371e-004
4.261701e-004,8.144788e-004
2.154851e-004,6.211348e-004
-1.027188e-005,4.316803e-004
-2.259808e-004,2.446569e-004
-4.204592e-004,4.758544e-005
-5.959758e-004,-1.648822e-004
-7.481552e-004,-3.796187e-004
-8.698662e-004,-5.669662e-004
-9.659709e-004,-6.925668e-004
-1.061265e-003,-7.379451e-004
-1.170173e-003,-7.113663e-004
-1.274219e-003,-6.420024e-004
-1.327701e-003,-5.635628e-004
-1.294315e-003,-5.011677e-004
-1.176170e-003,-4.655133e-004
-1.014915e-003,-4.580583e-004
-8.536596e-004,-4.731304e-004
-7.264384e-004,-5.042469e-004
-6.415162e-004,-5.458977e-004
-5.749074e-004,-5.890070e-004
-4.859335e-004,-6.225546e-004
-3.509331e-004,-6.395715e-004
-1.768750e-004,-6.415162e-004
8.041497e-006,-6.296854e-004
1.683241e-004,-6.024585e-004
2.666978e-004,-5.501114e-004
2.678322e-004,-4.606514e-004
1.725378e-004,-3.251648e-004
3.980630e-005,-1.499722e-004
-5.532604e-005,4.888196e-005
-6.326724e-005,2.478982e-004
1.679302e-005,4.256839e-004
1.459591e-004,5.721910e-004
2.793389e-004,6.853127e-004
3.866261e-004,7.676419e-004
4.602039e-004,8.209614e-004
5.080132e-004,8.389507e-004
5.454503e-004,8.068618e-004
5.854804e-004,7.198326e-004
6.287518e-004,5.830494e-004
6.691061e-004,4.183910e-004
7.033019e-004,2.564877e-004
7.300428e-004,1.286181e-004
7.431700e-004,5.277153e-005
7.331221e-004,2.505836e-005
6.943883e-004,2.457216e-005
6.389620e-004,2.748934e-005
5.977973e-004,1.079661e-005
6.033076e-004,-5.613637e-005
6.739681e-004,-1.909747e-004
8.000550e-004,-3.925839e-004
9.433209e-004,-6.369784e-004
1.053688e-003,-8.917450e-004
1.093880e-003,-1.107940e-003
1.047043e-003,-1.242454e-003
9.182008e-004,-1.271788e-003
7.193465e-004,-1.193349e-003
4.576108e-004,-1.022856e-003
1.443384e-004,-7.787855e-004
-1.877334e-004,-4.800992e-004
-4.796130e-004,-1.441378e-004
-6.702017e-004,2.111094e-004
-7.283832e-004,5.644119e-004
-6.638812e-004,8.908117e-004
-5.220741e-004,1.156761e-003
-3.600088e-004,1.331954e-003
-2.259808e-004,1.401804e-003
-1.418689e-004,1.372146e-003
-1.029732e-004,1.259349e-003
-9.146661e-005,1.085290e-003
-8.482193e-005,8.870842e-004
-7.396356e-005,7.055709e-004
-6.748094e-005,5.605224e-004
-7.461182e-005,4.318424e-004
-1.041077e-004,2.801492e-004
-1.514308e-004,7.546067e-005
-2.057227e-004,-1.749302e-004
-2.592042e-004,-4.287245e-004
-3.065273e-004,-6.206098e-004
-3.454229e-004,-6.979149e-004
-3.689224e-004,-6.392473e-004
-3.698948e-004,-4.543308e-004
-3.420196e-004,-1.759026e-004
-2.859450e-004,1.436902e-004
-2.143121e-004,4.459421e-004
-1.433275e-004,6.906608e-004
-8.482193e-005,8.690950e-004
-4.608832e-005,9.940475e-004
-2.680255e-005,1.067787e-003
-1.821308e-005,1.064708e-003
-9.623623e-006,9.387831e-004
5.124321e-006,6.483617e-004
2.505836e-005,1.973338e-004
4.483033e-005,-3.475298e-004
5.568870e-005,-8.878555e-004
5.179914e-005,-1.329970e-003
3.526847e-005,-1.607263e-003
1.193106e-005,-1.688458e-003
-4.761664e-006,-1.579388e-003
-4.113403e-006,-1.307442e-003
1.776542e-005,-9.132997e-004
5.747142e-005,-4.467137e-004
1.049566e-004,3.462021e-005
1.459591e-004,4.827309e-004
1.701068e-004,8.640709e-004
1.796687e-004,1.156113e-003
1.783722e-004,1.350754e-003
1.736723e-004,1.460310e-003
1.731861e-004,1.509092e-003
1.798307e-004,1.515088e-003
1.905271e-004,1.480244e-003
2.023578e-004,1.383491e-003
2.102990e-004,1.186905e-003
2.085163e-004,8.679605e-004
1.971717e-004,4.525868e-004
1.871237e-004,1.646890e-005
1.953890e-004,-3.489884e-004
2.269918e-004,-5.825245e-004
2.666978e-004,-6.719845e-004
2.905214e-004,-6.491333e-004
2.801492e-004,-5.672903e-004
2.271538e-004,-4.771820e-004
1.376938e-004,-4.091146e-004
4.223728e-005,-3.692465e-004
-2.420950e-005,-3.470436e-004
-4.673658e-005,-3.295405e-004
-4.284701e-005,-3.102548e-004
-5.062615e-005,-2.908069e-004
-9.503204e-005,-2.752487e-004
-1.750923e-004,-2.734659e-004
-2.582318e-004,-2.927517e-004
-3.107410e-004,-3.308371e-004
-3.131719e-004,-3.792946e-004
-2.642282e-004,-4.295348e-004
-1.843300e-004,-4.706994e-004
-1.070249e-004,-4.929024e-004
-6.942573e-005,-4.877163e-004
-9.260107e-005,-4.525481e-004
-1.686097e-004,-3.925839e-004
-2.535319e-004,-3.198166e-004
-2.938862e-004,-2.554767e-004
-2.488320e-004,-2.139880e-004
-1.047560e-004,-2.002124e-004
1.091703e-004,-2.039399e-004
3.279585e-004,-2.139880e-004
4.783552e-004,-2.241981e-004
5.143337e-004,-2.324634e-004
4.182289e-004,-2.451045e-004
1.926339e-004,-2.684419e-004
-1.417068e-004,-2.961551e-004
-5.259637e-004,-3.118754e-004
-8.701903e-004,-3.015032e-004
-1.087196e-003,-2.642282e-004
-1.134033e-003,-2.151224e-004
-1.027880e-003,-1.776853e-004
-8.306464e-004,-1.660166e-004
-6.293613e-004,-1.788198e-004
-5.068399e-004,-2.071812e-004
-5.099192e-004,-2.365151e-004
-6.311440e-004,-2.567732e-004
-8.223811e-004,-2.627696e-004
-1.018318e-003,-2.558008e-004
-1.162718e-003,-2.418632e-004
-1.223007e-003,-2.293842e-004
-1.196914e-003,-2.288980e-004
-1.112316e-003,-2.496423e-004
-9.912532e-004,-2.953447e-004
-8.460426e-004,-3.528779e-004
-6.969426e-004,-3.984183e-004
-5.604835e-004,-3.995528e-004
-4.249970e-004,-3.324577e-004
-2.643903e-004,-2.002124e-004
-6.488790e-005,-4.673658e-005
1.680000e-004,6.103686e-005
4.193634e-004,7.675720e-005
6.731578e-004,7.717366e-006
9.151215e-004,-9.665270e-005
1.133100e-003,-1.708786e-004
1.311210e-003,-1.757406e-004
1.425304e-003,-1.180453e-004
1.444428e-003,-2.858527e-005
1.366474e-003,5.893001e-005
1.237632e-003,1.195424e-004
1.119648e-003,1.381800e-004
1.060332e-003,1.093323e-004
1.073297e-003,4.126489e-005
1.140231e-003,-4.868137e-005
1.222884e-003,-1.340898e-004
1.280255e-003,-1.857886e-004
1.288845e-003,-1.851404e-004
1.243142e-003,-1.426792e-004
1.150279e-003,-7.590833e-005
1.020950e-003,1.679302e-005
8.755776e-004,1.623277e-004
7.332841e-004,3.772264e-004
5.982835e-004,6.373413e-004
4.632831e-004,8.822222e-004
3.237448e-004,1.043964e-003
1.756171e-004,1.084642e-003
1.338965e-005,1.020464e-003
-1.655305e-004,9.073424e-004
-3.472056e-004,8.110755e-004
-4.948471e-004,7.833623e-004
-5.632387e-004,8.558056e-004
-5.215878e-004,1.034402e-003
-3.720016e-004,1.287548e-003
-1.536997e-004,1.545719e-003
5.585077e-005,1.730312e-003
1.670276e-004,1.791410e-003
1.287802e-004,1.725288e-003
-6.067420e-005,1.560467e-003
-3.543365e-004,1.339733e-003
-6.796016e-004,1.101335e-003
-9.614331e-004,8.653674e-004
-1.152184e-003,6.350724e-004
-1.252502e-003,4.081808e-004
-1.293019e-003,1.913374e-004
-1.280053e-003,3.341602e-006
-1.191242e-003,-1.407345e-004
-1.016859e-003,-2.347323e-004
-7.829992e-004,-2.877277e-004
-5.309877e-004,-3.191683e-004
-3.034480e-004,-3.402368e-004
-1.232314e-004,-3.598467e-004
1.079661e-005,-3.914495e-004
1.117633e-004,-4.484965e-004
1.911753e-004,-5.342290e-004
2.556773e-004,-6.330888e-004
3.128864e-004,-7.043975e-004
3.686369e-004,-7.097457e-004
4.284390e-004,-6.415162e-004
4.956961e-004,-5.343911e-004
5.752703e-004,-4.517378e-004
6.644063e-004,-4.582204e-004
7.562974e-004,-5.896553e-004
8.365198e-004,-8.345360e-004
8.888670e-004,-1.145377e-003
9.053976e-004,-1.464970e-003
8.901635e-004,-1.723950e-003
8.575883e-004,-1.867865e-003
8.237166e-004,-1.877588e-003
7.956792e-004,-1.767384e-003
7.739625e-004,-1.574850e-003
7.499768e-004,-1.324621e-003
7.169155e-004,-1.023828e-003
6.720233e-004,-6.799257e-004
6.161107e-004,-3.096065e-004
5.514466e-004,6.930219e-005
4.833792e-004,4.418904e-004
4.166082e-004,7.987585e-004
3.530786e-004,1.124186e-003
2.903593e-004,1.399860e-003
2.299089e-004,1.608276e-003
1.712413e-004,1.734525e-003
1.122495e-004,1.778121e-003
5.358185e-005,1.760132e-003
-8.489166e-006,1.714267e-003
-7.428769e-005,1.654303e-003
-1.389517e-004,1.561925e-003
-1.932436e-004,1.396780e-003
-2.326255e-004,1.132938e-003
-2.566112e-004,7.938966e-004
-2.622834e-004,4.470765e-004
-2.520733e-004,1.654069e-004
-2.323013e-004,-1.448558e-005
-2.117191e-004,-9.811128e-005
-2.008607e-004,-1.199901e-004
-2.047502e-004,-1.212866e-004
-2.225774e-004,-1.370070e-004
-2.457528e-004,-1.762268e-004
-2.622834e-004,-2.256567e-004
-2.637420e-004,-2.664971e-004
-2.472114e-004,-2.891863e-004
-2.105846e-004,-2.938862e-004
-1.575893e-004,-2.840002e-004
-9.713889e-005,-2.650386e-004
-3.506788e-005,-2.412149e-004
2.441009e-005,-2.172293e-004
7.578480e-005,-1.924333e-004
1.141943e-004,-1.679614e-004
1.363972e-004,-1.485136e-004
1.404489e-004,-1.368449e-004
1.320215e-004,-1.327933e-004
1.185701e-004,-1.303623e-004
1.043083e-004,-1.251762e-004
9.296373e-005,-1.138316e-004
8.161915e-005,-1.013526e-004
6.541262e-005,-9.632857e-005
3.494434e-005,-1.013526e-004
-2.258885e-005,-1.156143e-004
-1.209625e-004,-1.355484e-004
-2.587180e-004,-1.559686e-004
-4.143007e-004,-1.643960e-004
-5.556216e-004,-1.358725e-004
-6.573986e-004,-3.944364e-005
-7.097457e-004,1.349386e-004
-7.178490e-004,3.556717e-004
-6.932151e-004,5.490156e-004
-6.510781e-004,6.540340e-004
-6.045654e-004,6.520892e-004
-5.640491e-004,5.708945e-004
-5.340669e-004,4.590694e-004
-5.076503e-004,3.498373e-004
-4.726442e-004,2.521119e-004
-4.259694e-004,1.441764e-004
-3.762153e-004,-1.432352e-005
-3.345645e-004,-2.548284e-004
-3.058790e-004,-5.697213e-004
-2.906449e-004,-9.094102e-004
-2.805968e-004,-1.223169e-003
-2.652006e-004,-1.497059e-003
-2.415391e-004,-1.733999e-003
-2.196603e-004,-1.926694e-003
-2.113949e-004,-2.043543e-003
-2.118811e-004,-2.038357e-003
-2.005366e-004,-1.885206e-003
-1.525652e-004,-1.605805e-003
-5.192267e-005,-1.258499e-003
8.518459e-005,-9.082757e-004
2.125679e-004,-5.956517e-004
2.744769e-004,-3.326198e-004
2.310434e-004,-1.011905e-004
8.145709e-005,1.430419e-004
-1.360346e-004,4.122325e-004
-3.583881e-004,6.611650e-004
-5.267740e-004,8.266338e-004
-6.097514e-004,8.802774e-004
-6.097514e-004,8.386266e-004
-5.549733e-004,7.514353e-004
-4.765338e-004,6.785059e-004
-3.945287e-004,6.574374e-004
-3.151167e-004,6.934160e-004
-2.366771e-004,7.642386e-004
-1.464067e-004,8.300372e-004
-4.349527e-005,8.655295e-004
6.249545e-005,8.671501e-004
1.508211e-004,8.434886e-004
2.000889e-004,8.063756e-004
1.999268e-004,7.684522e-004
1.506590e-004,7.319876e-004
6.557468e-005,6.783439e-004
-3.425755e-005,5.820770e-004
-1.321450e-004,4.350837e-004
-2.084778e-004,2.595669e-004
-2.305186e-004,8.113296e-005
-1.671511e-004,-8.417367e-005
-8.813297e-006,-2.460769e-004
2.208333e-004,-4.246728e-004
4.691174e-004,-6.230408e-004
6.859610e-004,-8.129813e-004
8.386266e-004,-9.536540e-004
9.295454e-004,-1.010863e-003
9.841614e-004,-9.719674e-004
1.029702e-003,-8.405324e-004
1.082859e-003,-6.311440e-004
1.155141e-003,-3.544986e-004
1.245411e-003,-1.237873e-005
1.347675e-003,3.853296e-004
1.461120e-003,8.049170e-004
1.590611e-003,1.193712e-003
1.728529e-003,1.525623e-003
1.847647e-003,1.823500e-003
1.906801e-003,2.102901e-003
1.875198e-003,2.317639e-003
1.741656e-003,2.383762e-003
1.516223e-003,2.254433e-003
1.213322e-003,1.955745e-003
8.447851e-004,1.565815e-003
4.227667e-004,1.140879e-003
-1.399939e-005,6.755888e-004
-4.186764e-004,1.257009e-004
-7.591756e-004,-5.535148e-004
-1.037280e-003,-1.342935e-003
-1.281998e-003,-2.149210e-003
-1.521531e-003,-2.839447e-003
-1.764629e-003,-3.302956e-003
-2.009672e-003,-3.499218e-003
-2.235753e-003,-3.449139e-003
-2.399601e-003,-3.183027e-003
-2.453731e-003,-2.731674e-003
-2.372537e-003,-2.141917e-003
-2.163634e-003,-1.504028e-003
-1.868675e-003,-9.270753e-004
-1.548758e-003,-4.779923e-004
-1.266278e-003,-1.619650e-004
-1.065479e-003,6.379197e-005
-9.586780e-004,2.564877e-004
-9.225374e-004,4.715484e-004
-9.128135e-004,7.360392e-004
-8.865589e-004,1.034564e-003
-8.123330e-004,1.317368e-003
-6.774947e-004,1.526919e-003
-4.875542e-004,1.638582e-003
-2.536940e-004,1.658679e-003
9.824215e-006,1.611680e-003
2.874421e-004,1.539398e-003
5.493398e-004,1.510551e-003
7.584042e-004,1.595311e-003
8.702294e-004,1.809076e-003
8.442989e-004,2.099822e-003
6.671614e-004,2.387489e-003
3.780367e-004,2.606116e-003
7.221937e-005,2.722318e-003
-1.528894e-004,2.722642e-003
-2.436459e-004,2.594610e-003
-1.976194e-004,2.345676e-003
-4.754691e-005,2.022516e-003
1.545486e-004,1.664675e-003
3.572923e-004,1.273124e-003
5.242196e-004,8.277682e-004
6.666752e-004,3.311998e-004
8.337647e-004,-1.867610e-004
1.075728e-003,-6.922426e-004
1.404722e-003,-1.165473e-003
1.783307e-003,-1.613584e-003
2.154276e-003,-2.065260e-003
2.462202e-003,-2.550322e-003
2.657977e-003,-3.065043e-003
2.682773e-003,-3.571175e-003
2.473222e-003,-4.003243e-003
1.988320e-003,-4.281835e-003
1.265831e-003,-4.328997e-003
4.621486e-004,-4.085735e-003
-1.903264e-004,-3.541841e-003
-5.262878e-004,-2.771704e-003
-5.373082e-004,-1.911298e-003
-3.353749e-004,-1.110695e-003
-7.947377e-005,-4.763717e-004
1.091703e-004,-4.268495e-005
1.837203e-004,2.208333e-004
1.660552e-004,3.696093e-004
1.156529e-004,4.574487e-004
9.312580e-005,5.204921e-004
1.269974e-004,5.760806e-004
1.978200e-004,6.274553e-004
2.584324e-004,6.692683e-004
2.553532e-004,6.963331e-004
1.513072e-004,7.058950e-004
-5.273300e-005,6.955228e-004
-3.019894e-004,6.676476e-004
-5.060296e-004,6.360448e-004
-5.758798e-004,6.256726e-004
-4.694029e-004,6.580857e-004
-2.081536e-004,7.233981e-004
1.323456e-004,7.814175e-004
4.683071e-004,7.943827e-004
7.381460e-004,7.339324e-004
9.076665e-004,5.733255e-004
9.460760e-004,2.968419e-004
8.212856e-004,-4.900550e-005
5.363746e-004,-3.339163e-004
1.457970e-004,-4.475241e-004
-2.574215e-004,-3.792946e-004
-5.627525e-004,-2.233878e-004
-6.755499e-004,-1.044318e-004
-5.702075e-004,-7.072225e-005
-3.036101e-004,-6.910160e-005
2.441009e-005,-3.847125e-005
3.227724e-004,7.485573e-007
5.383193e-004,-1.520357e-006
6.528996e-004,-4.349527e-005
6.648925e-004,-5.516398e-005
5.858046e-004,8.048470e-005
4.443214e-004,4.639314e-004
2.837146e-004,1.115921e-003
1.355869e-004,1.984269e-003
9.013889e-006,2.970441e-003
-1.015147e-004,3.930849e-003
-2.065330e-004,4.667932e-003
-3.183580e-004,4.919299e-003
-4.433104e-004,4.413810e-003
-5.792832e-004,3.052933e-003
-7.078009e-004,1.026461e-003
-7.852681e-004,-1.193673e-003
-7.596618e-004,-2.962455e-003
-6.113721e-004,-3.951544e-003
-3.637363e-004,-4.063046e-003
-6.294311e-005,-3.469398e-003
2.409294e-004,-2.513371e-003
4.827309e-004,-1.524610e-003
5.686256e-004,-6.912703e-004
3.952156e-004,-7.088431e-005
-8.303922e-005,3.546993e-004
-7.854302e-004,6.277795e-004
-1.500462e-003,7.817416e-004
-1.984552e-003,8.404093e-004
-2.093622e-003,8.267959e-004
-1.853279e-003,7.644006e-004
-1.422671e-003,6.780197e-004
-9.993564e-004,5.838597e-004
-7.227109e-004,4.893756e-004
-6.361681e-004,4.005638e-004
-7.078009e-004,3.302274e-004
-8.620871e-004,3.031625e-004
-1.020749e-003,3.511338e-004
-1.138733e-003,4.770586e-004
-1.198697e-003,6.379896e-004
-1.174873e-003,7.809313e-004
-1.038576e-003,8.729845e-004
-7.868888e-004,9.066941e-004
-4.536825e-004,8.903255e-004
-1.096179e-004,8.300372e-004
1.613553e-004,7.080019e-004
3.033245e-004,4.982892e-004
3.154794e-004,2.059233e-004
2.391467e-004,-1.180453e-004
1.415833e-004,-3.951770e-004
1.009049e-004,-5.533527e-004
1.675138e-004,-5.669662e-004
3.465960e-004,-4.724821e-004
6.096281e-004,-3.554710e-004
9.154457e-004,-3.167374e-004
1.218832e-003,-4.259694e-004
1.479272e-003,-6.893255e-004
1.665647e-003,-1.067910e-003
1.768235e-003,-1.507107e-003
1.794652e-003,-1.940308e-003
1.765318e-003,-2.281618e-003
1.700167e-003,-2.438173e-003
1.619945e-003,-2.364433e-003
1.533402e-003,-2.091353e-003
1.434056e-003,-1.712768e-003
1.304241e-003,-1.333049e-003
1.132614e-003,-1.017021e-003
9.211180e-004,-7.807303e-004
6.810990e-004,-5.967862e-004
4.352458e-004,-4.356933e-004
2.104611e-004,-2.827037e-004
1.095867e-005,-1.353863e-004
-1.744440e-004,6.907040e-006
-3.441264e-004,1.477418e-004
-4.706994e-004,3.106175e-004
-5.442770e-004,5.456123e-004
-6.044033e-004,8.994011e-004
-7.146077e-004,1.371174e-003
-9.105446e-004,1.883140e-003
-1.176656e-003,2.344704e-003
-1.459460e-003,2.688284e-003
-1.706934e-003,2.833333e-003
-1.890554e-003,2.703194e-003
-1.979204e-003,2.306456e-003
-1.935284e-003,1.748463e-003
-1.732378e-003,1.165999e-003
-1.383937e-003,6.809369e-004
-9.455507e-004,3.686369e-004
-4.980884e-004,2.621599e-004
-1.199901e-004,3.551855e-004
1.438522e-004,5.817529e-004
2.919800e-004,8.269579e-004
3.495132e-004,9.689272e-004
3.519442e-004,9.170663e-004
3.226103e-004,6.276174e-004
2.561635e-004,8.615699e-005
1.316974e-004,-6.949978e-004
-5.889148e-005,-1.669821e-003
-2.908069e-004,-2.738481e-003
-5.301774e-004,-3.735024e-003
-7.522068e-004,-4.467078e-003
-9.298304e-004,-4.789428e-003
-1.030797e-003,-4.671443e-003
-1.028690e-003,-4.200478e-003
-9.355026e-004,-3.539248e-003
-7.795958e-004,-2.835234e-003
-5.851175e-004,-2.157151e-003
-3.567675e-004,-1.487335e-003
-8.709085e-005,-7.838095e-004
2.320158e-004,-5.402952e-005
5.885597e-004,6.285898e-004
9.511001e-004,1.184474e-003
1.264373e-003,1.570839e-003
1.466307e-003,1.793517e-003
1.527405e-003,1.880385e-003
1.468738e-003,1.852185e-003
1.344433e-003,1.722208e-003
1.211053e-003,1.517681e-003
1.114138e-003,1.276690e-003
1.090801e-003,1.026299e-003
1.146875e-003,7.548388e-004
1.257080e-003,4.337872e-004
1.391432e-003,6.071273e-005
1.505202e-003,-3.447747e-004
1.538750e-003,-7.290315e-004
1.432111e-003,-1.009080e-003
1.162920e-003,-1.109723e-003
7.695867e-004,-9.975737e-004
3.237448e-004,-6.933771e-004
-1.024871e-004,-2.519113e-004
-4.538446e-004,2.540567e-004
-7.040734e-004,7.665075e-004
-8.470150e-004,1.246546e-003
-8.943381e-004,1.663541e-003
-8.870451e-004,1.995938e-003
-9.121653e-004,2.237254e-003
-1.040683e-003,2.380844e-003
-1.251692e-003,2.416499e-003
-1.453950e-003,2.345028e-003
-1.547948e-003,2.185879e-003
-1.479556e-003,1.977300e-003
-1.259633e-003,1.768073e-003
-9.541402e-004,1.582670e-003
-6.308199e-004,1.404235e-003
-3.232200e-004,1.190147e-003
-5.111234e-005,8.912979e-004
1.574657e-004,4.752759e-004
2.765838e-004,-6.375344e-005
2.981384e-004,-6.873807e-004
2.378501e-004,-1.302419e-003
1.526038e-004,-1.760415e-003
1.325077e-004,-1.922156e-003
2.446569e-004,-1.750043e-003
4.736553e-004,-1.324784e-003
6.815852e-004,-7.964507e-004
6.642442e-004,-3.005308e-004
2.807975e-004,9.004655e-005
-4.107352e-004,3.671783e-004
-1.160611e-003,5.556603e-004
-1.685379e-003,6.776956e-004
-1.794125e-003,7.462493e-004
-1.453788e-003,7.707212e-004
-7.977472e-004,7.614834e-004
-5.224680e-005,7.251808e-004
5.731634e-004,6.524134e-004
9.724927e-004,5.263265e-004
1.156761e-003,3.559958e-004
1.195657e-003,1.730240e-004
1.167620e-003,9.662150e-006
1.134882e-003,-1.261486e-004
1.131155e-003,-2.504527e-004
1.169564e-003,-3.739464e-004
1.245411e-003,-4.836646e-004
1.331468e-003,-5.527044e-004
1.379115e-003,-5.809038e-004
1.339409e-003,-5.925725e-004
1.187230e-003,-6.191512e-004
9.301936e-004,-6.797637e-004
5.914768e-004,-7.765166e-004
2.239125e-004,-8.949863e-004
-8.773911e-005,-1.008756e-003
-2.548284e-004,-1.101782e-003
-2.321393e-004,-1.203235e-003
-5.224680e-005,-1.388799e-003
1.811273e-004,-1.699803e-003
3.389789e-004,-2.079036e-003
3.328204e-004,-2.408191e-003
1.457970e-004,-2.560371e-003
-1.407345e-004,-2.448707e-003
-3.728119e-004,-2.047595e-003
-4.126800e-004,-1.392365e-003
-2.099363e-004,-5.797693e-004
1.623277e-004,2.401191e-004
5.519328e-004,9.182008e-004
8.251752e-004,1.374415e-003
9.235489e-004,1.617352e-003
8.588848e-004,1.725450e-003
6.755888e-004,1.795786e-003
4.261701e-004,1.894646e-003
1.587623e-004,2.033213e-003
-8.725291e-005,2.180693e-003
-2.793003e-004,2.306942e-003
-3.948528e-004,2.405478e-003
-4.237005e-004,2.482622e-003
-3.783222e-004,2.542586e-003
-2.888622e-004,2.582941e-003
-1.898403e-004,2.605144e-003
-1.126972e-004,2.601578e-003
-7.914964e-005,2.554741e-003
-1.057284e-004,2.445346e-003
-1.843300e-004,2.247626e-003
-2.815692e-004,1.938566e-003
-3.779981e-004,1.520274e-003
-4.865818e-004,1.024678e-003
-6.413542e-004,5.046097e-004
-8.653284e-004,-1.805102e-005
-1.161908e-003,-5.963000e-004
-1.517965e-003,-1.294153e-003
-1.892823e-003,-2.104966e-003
-2.205123e-003,-2.952083e-003
-2.332182e-003,-3.720762e-003
-2.177085e-003,-4.298204e-003
-1.726219e-003,-4.614396e-003
-1.054621e-003,-4.631899e-003
-3.002067e-004,-4.329645e-003
3.678266e-004,-3.706824e-003
8.136685e-004,-2.810762e-003
9.861062e-004,-1.767870e-003
9.344073e-004,-7.633893e-004
7.849830e-004,4.515445e-005
6.582477e-004,6.024973e-004
6.034696e-004,9.389452e-004
6.123833e-004,1.104900e-003
6.613270e-004,1.141527e-003
7.371737e-004,1.082049e-003
8.421920e-004,9.579068e-004
9.676307e-004,8.113996e-004
1.080104e-003,6.809369e-004
1.139582e-003,5.948802e-004
1.141851e-003,5.636016e-004
1.124186e-003,5.794840e-004
1.115272e-003,6.341000e-004
1.112355e-003,7.352289e-004
1.092259e-003,8.972943e-004
1.024840e-003,1.123700e-003
9.075044e-004,1.402453e-003
7.893587e-004,1.694981e-003
7.413874e-004,1.940997e-003
8.097790e-004,2.076322e-003
9.843234e-004,2.049581e-003
1.200519e-003,1.831279e-003
1.345244e-003,1.417849e-003
1.285765e-003,8.376542e-004
9.402417e-004,1.488763e-004
3.407616e-004,-5.616181e-004
-3.504470e-004,-1.195617e-003
-9.427955e-004,-1.679545e-003
-1.342611e-003,-1.987469e-003
-1.566261e-003,-2.136083e-003
-1.680679e-003,-2.160879e-003
-1.731406e-003,-2.088760e-003
-1.712282e-003,-1.932691e-003
-1.598512e-003,-1.710337e-003
-1.388637e-003,-1.449412e-003
-1.109399e-003,-1.180545e-003
-8.055263e-004,-9.291821e-004
-5.176983e-004,-6.993735e-004
-2.686040e-004,-4.916058e-004
-6.861539e-005,-3.238683e-004
7.562274e-005,-2.194982e-004
1.642725e-004,-1.793060e-004
2.062474e-004,-1.682856e-004
2.308813e-004,-1.297140e-004
2.701012e-004,-2.323711e-005
3.389789e-004,1.401247e-004
4.258460e-004,2.830664e-004
5.107683e-004,3.070520e-004
5.809425e-004,1.811273e-004
6.540340e-004,-1.886135e-005
7.558112e-004,-1.712027e-004
8.827084e-004,-1.867610e-004
9.742755e-004,-3.749886e-005
9.449415e-004,2.419018e-004
7.387943e-004,5.606844e-004
3.490270e-004,8.088066e-004
-1.794681e-004,8.934048e-004
-7.334072e-004,7.668316e-004
-1.188325e-003,4.401077e-004
-1.491549e-003,-1.934754e-005
-1.659286e-003,-5.170500e-004
-1.730595e-003,-9.711570e-004
-1.730433e-003,-1.324946e-003
-1.664473e-003,-1.539196e-003
-1.537413e-003,-1.597540e-003
-1.362545e-003,-1.497221e-003
-1.155425e-003,-1.256716e-003
-9.447403e-004,-9.038999e-004
-7.434553e-004,-4.757234e-004
-5.561078e-004,-3.069211e-005
-4.052250e-004,3.751195e-004
-3.139823e-004,7.287462e-004
-2.721694e-004,1.059036e-003
-2.366771e-004,1.400184e-003
-1.624512e-004,1.762725e-003
-3.620233e-005,2.159624e-003
1.281319e-004,2.635936e-003
2.997591e-004,3.193283e-003
4.559901e-004,3.764892e-003
5.783495e-004,4.285452e-003
6.378276e-004,4.705694e-003
5.926113e-004,4.959492e-003
4.052637e-004,4.959168e-003
6.249545e-005,4.959168e-003
-3.752429e-004,4.582198e-003
-7.747339e-004,3.970393e-003
-9.862292e-004,3.194417e-003
-9.168651e-004,2.330118e-003
-5.726385e-004,1.444104e-003
-4.835724e-005,5.875872e-004
5.088235e-004,-1.707166e-004
9.499656e-004,-7.465345e-004
1.180099e-003,-1.101782e-003
1.181395e-003,-1.309874e-003
9.899958e-004,-1.549406e-003
6.682958e-004,-1.992169e-003
3.008936e-004,-2.709633e-003
-7.030578e-006,-3.679273e-003
-1.797922e-004,-4.799314e-003
-2.110708e-004,-4.968512e-003
-1.475412e-004,-4.968350e-003
-3.814712e-005,-4.968350e-003
8.242948e-005,-4.968350e-003
1.814514e-004,-4.968512e-003
2.297469e-004,-4.968350e-003
2.208333e-004,-3.511210e-003
1.843686e-004,-2.091839e-003
1.718896e-004,-8.765109e-004
2.208333e-004,6.881599e-005
3.354135e-004,7.697488e-004
4.833792e-004,1.299055e-003
6.062248e-004,1.711836e-003
6.637580e-004,2.017979e-003
6.483617e-004,2.196089e-003
5.689497e-004,2.226719e-003
4.355699e-004,2.105008e-003
2.712356e-004,1.847161e-003
1.111150e-004,1.483648e-003
-4.761664e-006,1.053201e-003
-4.560212e-005,6.080075e-004
-6.868513e-006,2.025199e-004
7.092284e-005,-1.138316e-004
1.253768e-004,-3.172236e-004
1.226217e-004,-4.240246e-004
6.038860e-005,-4.869059e-004
-4.689865e-005,-5.689110e-004
-1.729855e-004,-7.068285e-004
-2.750866e-004,-8.966069e-004
-3.094444e-004,-1.096596e-003
-2.434839e-004,-1.251530e-003
-6.699475e-005,-1.324459e-003
2.151610e-004,-1.312304e-003
5.807805e-004,-1.233541e-003
9.878889e-004,-1.105995e-003
1.367447e-003,-9.343682e-004
1.664027e-003,-7.152559e-004
1.856399e-003,-4.549791e-004
1.951369e-003,-1.663408e-004
1.974221e-003,1.402868e-004
1.942132e-003,4.488593e-004
1.854778e-003,7.423597e-004
1.714753e-003,1.030188e-003
1.538588e-003,1.336330e-003
1.348971e-003,1.653006e-003
1.165189e-003,1.918470e-003
9.998818e-004,2.046340e-003
8.538608e-004,1.976490e-003
7.117294e-004,1.706488e-003
5.384815e-004,1.285441e-003
2.887387e-004,7.665075e-004
-6.099833e-005,1.279698e-004
-4.794509e-004,-6.979149e-004
-9.051964e-004,-1.653614e-003
-1.270005e-003,-2.552591e-003
-1.509700e-003,-3.179299e-003
-1.593164e-003,-3.372644e-003
-1.568854e-003,-3.077684e-003
-1.544220e-003,-2.338016e-003
-1.589760e-003,-1.268547e-003
-1.695589e-003,-4.592625e-005
-1.788939e-003,1.121269e-003
-1.794935e-003,2.069677e-003
-1.677276e-003,2.721345e-003
-1.451681e-003,3.081619e-003
-1.163366e-003,3.234448e-003
-8.598181e-004,3.297005e-003
-5.776625e-004,3.363129e-003
-3.621157e-004,3.470741e-003
-2.491561e-004,3.615953e-003
-2.621213e-004,3.775913e-003
-4.029561e-004,3.913670e-003
-6.185030e-004,3.970393e-003
-8.030953e-004,3.890494e-003
-8.697041e-004,3.680131e-003
-7.961266e-004,3.394245e-003
-6.338991e-004,3.087615e-003
-4.447690e-004,2.755055e-003
-2.624455e-004,2.321204e-003
-1.037836e-004,1.719939e-003
2.084466e-005,9.574206e-004
9.814982e-005,1.175977e-004
1.341283e-004,-6.864083e-004
1.506590e-004,-1.369189e-003
1.717275e-004,-1.888771e-003
2.211574e-004,-2.219709e-003
3.289309e-004,-2.361192e-003
5.175750e-004,-2.334289e-003
7.940586e-004,-2.186323e-003
1.152061e-003,-1.979528e-003
1.562249e-003,-1.770949e-003
1.995289e-003,-1.595433e-003
2.426709e-003,-1.461891e-003
2.805134e-003,-1.350714e-003
3.027327e-003,-1.228679e-003
2.966714e-003,-1.072772e-003
2.533835e-003,-8.816970e-004
1.754135e-003,-6.781430e-004
7.695867e-004,-4.930644e-004
-1.995642e-004,-3.403989e-004
-9.215650e-004,-2.190120e-004
-1.286536e-003,-1.342519e-004
-1.307929e-003,-9.940781e-005
-1.105023e-003,-1.267968e-004
-8.507425e-004,-2.058847e-004
-6.685811e-004,-3.147926e-004
-6.053757e-004,-4.360174e-004
-7.073147e-004,-5.606457e-004
-1.035983e-003,-6.911082e-004
-1.561561e-003,-8.460426e-004
-2.123280e-003,-1.050407e-003
-2.529416e-003,-1.308253e-003
-2.646103e-003,-1.586843e-003
-2.439794e-003,-1.831886e-003
-1.979204e-003,-1.991196e-003
-1.392203e-003,-2.026203e-003
-8.100641e-004,-1.926046e-003
-3.340784e-004,-1.720709e-003
-2.955766e-005,-1.477773e-003
8.388807e-005,-1.285888e-003
3.299956e-005,-1.199507e-003
-1.339277e-004,-1.204045e-003
-3.885323e-004,-1.234027e-003
-7.089354e-004,-1.214741e-003
-1.043276e-003,-1.105509e-003
-1.315384e-003,-9.226995e-004
-1.475991e-003,-7.181731e-004
-1.551999e-003,-5.455735e-004
-1.594946e-003,-4.224039e-004
-1.608560e-003,-3.167374e-004
-1.553944e-003,-1.729855e-004
-1.390582e-003,5.455425e-005
-1.112964e-003,3.845193e-004
-7.656582e-004,7.992447e-004
-4.206212e-004,1.249949e-003
-1.323071e-004,1.676830e-003
7.756752e-005,2.021868e-003
2.125679e-004,2.247788e-003
2.934386e-004,2.346324e-003
3.628026e-004,2.338221e-003
4.768966e-004,2.262860e-003
6.754267e-004,2.155248e-003
9.535311e-004,2.032889e-003
1.263400e-003,1.911015e-003
1.534212e-003,1.790600e-003
1.715077e-003,1.646524e-003
1.785414e-003,1.426276e-003
1.752839e-003,1.082211e-003
1.647982e-003,6.214589e-004
1.512657e-003,1.307250e-004
1.409746e-003,-2.603387e-004
1.395808e-003,-4.489826e-004
1.487051e-003,-3.779981e-004
1.646199e-003,-5.402952e-005
1.807941e-003,4.182289e-004
1.903722e-003,8.906497e-004
1.884112e-003,1.258863e-003
1.744087e-003,1.487699e-003
1.527729e-003,1.597094e-003
1.295489e-003,1.605035e-003
1.090801e-003,1.488510e-003
9.384590e-004,1.220129e-003
8.527263e-004,8.029722e-004
8.339267e-004,2.971661e-004
8.558056e-004,-2.002124e-004
8.598572e-004,-6.306578e-004
7.663454e-004,-1.007460e-003
5.342677e-004,-1.392689e-003
2.051129e-004,-1.844527e-003
-1.151281e-004,-2.409001e-003
-3.126857e-004,-3.111070e-003
-3.345645e-004,-3.934851e-003
-2.003745e-004,-4.772897e-003
1.646890e-005,-4.968512e-003
2.326641e-004,-4.968350e-003
3.973225e-004,-4.968350e-003
4.978030e-004,-4.294314e-003
5.399400e-004,-2.955162e-003
5.412365e-004,-1.491063e-003
5.096338e-004,-1.452723e-004
4.404318e-004,9.355418e-004
3.234207e-004,1.743925e-003
1.633001e-004,2.348593e-003
-1.254080e-005,2.804809e-003
-1.677994e-004,3.136721e-003
-2.699005e-004,3.336225e-003
-2.993964e-004,3.397649e-003
-2.536940e-004,3.362966e-003
-1.449482e-004,3.287119e-003
-2.492749e-006,3.189069e-003
1.367214e-004,3.047261e-003
2.474120e-004,2.828471e-003
3.253654e-004,2.474194e-003
3.893813e-004,1.885247e-003
4.726828e-004,9.935612e-004
6.075213e-004,-1.394379e-004
8.034584e-004,-1.296584e-003
1.014954e-003,-2.238994e-003
1.143472e-003,-2.806548e-003
1.077349e-003,-2.936687e-003
7.392805e-004,-2.643510e-003
1.389903e-004,-2.004486e-003
-5.851175e-004,-1.162232e-003
-1.238403e-003,-3.194925e-004
-1.700937e-003,2.926282e-004
-1.949870e-003,4.960203e-004
-2.027985e-003,2.245608e-004
-1.999624e-003,-4.488206e-004
-1.929287e-003,-1.318463e-003
-1.882937e-003,-2.137055e-003
-1.909029e-003,-2.715143e-003
-2.017613e-003,-2.946087e-003
-2.170603e-003,-2.816758e-003
-2.294907e-003,-2.395550e-003
-2.308196e-003,-1.785049e-003
-2.137704e-003,-1.073258e-003
-1.761388e-003,-3.058790e-004
-1.235972e-003,4.893756e-004
-6.705259e-004,1.267938e-003
-1.893541e-004,1.970493e-003
1.159770e-004,2.520869e-003
2.213195e-004,2.832523e-003
1.590864e-004,2.855374e-003
5.934648e-006,2.623620e-003
-1.412206e-004,2.254108e-003
-2.094502e-004,1.887516e-003
-1.765509e-004,1.628048e-003
-6.278104e-005,1.508282e-003
8.648112e-005,1.499854e-003
2.242366e-004,1.542153e-003
3.329825e-004,1.572298e-003
4.235771e-004,1.539074e-003
5.149820e-004,1.413473e-003
6.237278e-004,1.194036e-003
7.653730e-004,9.125285e-004
9.577448e-004,6.216210e-004
1.199871e-003,3.689610e-004
1.459986e-003,1.769136e-004
1.679261e-003,3.462021e-005
1.797731e-003,-8.255302e-005
1.778931e-003,-1.835197e-004
1.629507e-003,-2.658489e-004
1.393863e-003,-3.232200e-004
1.127427e-003,-3.562813e-004
8.754155e-004,-3.825359e-004
6.796404e-004,-4.209454e-004
5.601982e-004,-4.859335e-004
4.939134e-004,-5.766901e-004
4.276287e-004,-6.732810e-004
3.107795e-004,-7.533412e-004
9.069481e-005,-8.076332e-004
-2.660110e-004,-8.270809e-004
-7.249799e-004,-7.983954e-004
-1.186380e-003,-7.168766e-004
-1.543734e-003,-5.901415e-004
-1.735457e-003,-4.345588e-004
-1.747936e-003,-2.752487e-004
-1.594136e-003,-1.370070e-004
-1.304849e-003,-3.344723e-005
-9.188099e-004,4.288554e-005
-5.055434e-004,1.159770e-004
-1.940539e-004,2.017096e-004
-1.277692e-004,2.944109e-004
-3.447747e-004,3.832228e-004
-7.178490e-004,4.739794e-004
-1.039386e-003,5.718669e-004
-1.161908e-003,6.640821e-004
-1.059483e-003,7.277738e-004
-8.071469e-004,7.514353e-004
-5.134846e-004,7.344186e-004
-2.635799e-004,6.929298e-004
-8.352541e-005,6.571133e-004
5.552663e-005,6.624615e-004
1.955511e-004,7.279359e-004
3.566440e-004,8.439748e-004
5.235714e-004,9.648756e-004
6.606788e-004,1.026785e-003
7.420356e-004,9.908061e-004
7.575939e-004,8.407335e-004
7.013571e-004,5.614947e-004
5.760806e-004,1.649207e-004
4.029947e-004,-2.666592e-004
2.258573e-004,-5.998655e-004
9.750156e-005,-7.407002e-004
4.353380e-005,-7.018045e-004
5.747142e-005,-5.731247e-004
1.093323e-004,-4.334244e-004
1.634622e-004,-2.867553e-004
1.937684e-004,-7.444975e-005
2.169437e-004,2.743149e-004
2.807975e-004,7.436562e-004
4.054258e-004,1.205219e-003
5.655463e-004,1.485430e-003
7.191843e-004,1.449938e-003
8.507816e-004,1.032133e-003
9.736272e-004,2.589186e-004
1.114624e-003,-7.199558e-004
1.283010e-003,-1.652318e-003
1.453665e-003,-2.313382e-003
1.582184e-003,-2.584356e-003
1.639717e-003,-2.472855e-003
1.635503e-003,-2.093946e-003
1.604711e-003,-1.611801e-003
1.576511e-003,-1.167418e-003
1.554146e-003,-8.418289e-004
1.506013e-003,-6.582089e-004
1.379115e-003,-6.186650e-004
1.119162e-003,-7.321107e-004
7.037881e-004,-9.847705e-004
1.597346e-004,-1.315870e-003
-4.193247e-004,-1.622660e-003
-8.805625e-004,-1.806766e-003
-1.095299e-003,-1.830427e-003
-1.068072e-003,-1.719899e-003
-9.685640e-004,-1.532551e-003
-1.023666e-003,-1.307767e-003
-1.324784e-003,-1.057214e-003
-1.740805e-003,-7.761925e-004
-2.027175e-003,-4.677822e-004
-2.007403e-003,-1.502963e-004
-1.658476e-003,1.504969e-004
-1.099513e-003,4.098015e-004
-5.350393e-004,6.125454e-004
-1.600202e-004,7.551629e-004
-7.218083e-005,8.400852e-004
-2.566112e-004,8.635847e-004
-6.311440e-004,8.216097e-004
-1.099027e-003,7.083260e-004
-1.602726e-003,5.285954e-004
-2.116797e-003,3.002453e-004
-2.588408e-003,4.985435e-005
-2.945276e-003,-1.974573e-004
-3.126790e-003,-4.196489e-004
-3.089353e-003,-5.975965e-004
-2.802172e-003,-7.076389e-004
-2.275783e-003,-7.266005e-004
-1.598512e-003,-6.424887e-004
-9.215650e-004,-4.601652e-004
-3.846427e-004,-2.037779e-004
-4.041603e-005,7.740546e-005
1.592484e-004,3.218000e-004
3.070520e-004,5.109303e-004
4.731691e-004,6.857989e-004
6.692683e-004,8.977805e-004
8.554814e-004,1.163568e-003
9.917786e-004,1.477813e-003
1.072649e-003,1.826417e-003
1.122727e-003,2.152817e-003
1.170051e-003,2.322987e-003
1.228556e-003,2.202734e-003
1.288683e-003,1.770666e-003
1.328875e-003,1.138934e-003
1.341516e-003,4.947237e-004
1.340544e-003,9.500085e-006
1.349781e-003,-2.337599e-004
1.392567e-003,-2.527216e-004
1.480244e-003,-1.352242e-004
1.590773e-003,1.306552e-005
1.662082e-003,1.103047e-004
1.625779e-003,1.193804e-004
1.434704e-003,3.672706e-005
1.089180e-003,-1.669890e-004
6.517651e-004,-5.437909e-004
2.456293e-004,-1.047652e-003
-1.520357e-006,-1.493494e-003
-2.501983e-005,-1.683758e-003
1.475797e-004,-1.506945e-003
4.222805e-004,-9.771534e-004
6.984400e-004,-1.938919e-004
9.112320e-004,7.107570e-004
1.035860e-003,1.586073e-003
1.076539e-003,2.318611e-003
1.052229e-003,2.851809e-003
9.935612e-004,3.174483e-003
9.342453e-004,3.303326e-003
8.943772e-004,3.267023e-003
8.776844e-004,3.084374e-003
8.695811e-004,2.787954e-003
8.457575e-004,2.443726e-003
7.812555e-004,2.145524e-003
6.564650e-004,1.996262e-003
4.707381e-004,2.076970e-003
2.469258e-004,2.388623e-003
2.068259e-005,2.820530e-003
-1.710407e-004,3.185990e-003
-2.972895e-004,3.301705e-003
-3.425058e-004,3.040292e-003
-3.050687e-004,2.344055e-003
-2.088019e-004,1.241035e-003
-1.003802e-004,-1.042698e-004
-2.761287e-005,-1.380372e-003
-1.383732e-005,-2.288749e-003
-5.192267e-005,-2.701692e-003
-1.161005e-004,-2.702340e-003
-1.878955e-004,-2.520340e-003
-2.569353e-004,-2.377236e-003
-3.068514e-004,-2.364109e-003
-3.157650e-004,-2.435580e-003
-2.728177e-004,-2.499596e-003
-1.870851e-004,-2.495868e-003
-8.060823e-005,-2.418239e-003
1.501031e-005,-2.295393e-003
7.043665e-005,-2.167848e-003
7.416415e-005,-2.069636e-003
2.667901e-005,-2.004810e-003
-5.678463e-005,-1.937391e-003
-1.543479e-004,-1.825728e-003
-2.470493e-004,-1.678896e-003
-3.149546e-004,-1.558482e-003
-3.428299e-004,-1.520558e-003
-3.303509e-004,-1.570637e-003
-2.898345e-004,-1.648590e-003
-2.297083e-004,-1.660421e-003
-1.340898e-004,-1.543572e-003
2.489629e-005,-1.298853e-003
2.462775e-004,-9.771534e-004
4.768966e-004,-6.465403e-004
6.344241e-004,-3.595226e-004
6.285898e-004,-1.439758e-004
4.007258e-004,5.864920e-007
-2.728874e-005,7.497447e-005
-5.374703e-004,7.546067e-005
-9.761810e-004,-3.627206e-006
-1.241806e-003,-1.530514e-004
-1.290426e-003,-3.465574e-004
-1.130629e-003,-5.282326e-004
-8.175191e-004,-6.293613e-004
-4.337485e-004,-6.197995e-004
-5.565017e-005,-5.420081e-004
2.726942e-004,-5.042469e-004
5.401021e-004,-6.277406e-004
7.614834e-004,-9.753707e-004
9.692514e-004,-1.512131e-003
1.173130e-003,-2.103021e-003
1.349457e-003,-2.542867e-003
1.459176e-003,-2.646427e-003
1.487861e-003,-2.340934e-003
1.455448e-003,-1.697534e-003
1.393377e-003,-8.836418e-004
1.323527e-003,-8.320128e-005
1.246708e-003,5.652222e-004
1.144768e-003,1.008147e-003
1.010416e-003,1.262752e-003
8.293889e-004,1.374091e-003
5.381573e-004,1.391432e-003
3.137890e-005,1.366150e-003
-7.831613e-004,1.345730e-003
-1.904329e-003,1.363719e-003
-3.215116e-003,1.435028e-003
-4.515859e-003,1.546043e-003
-4.968512e-003,1.659813e-003
-4.968674e-003,1.737280e-003
-4.968512e-003,1.757863e-003
-4.968512e-003,1.717022e-003
-4.266115e-003,1.613624e-003
-2.831182e-003,1.451883e-003
-1.502731e-003,1.252380e-003
-5.227224e-004,1.055632e-003
1.825161e-005,9.039390e-004
1.893926e-004,8.240407e-004
1.526038e-004,8.135065e-004
6.978839e-005,8.498091e-004
5.974033e-005,9.045873e-004
1.791825e-004,9.549896e-004
4.182289e-004,9.914545e-004
7.208050e-004,1.005230e-003
1.013009e-003,9.904819e-004
1.234067e-003,9.258178e-004
1.349295e-003,7.721797e-004
1.349295e-003,5.204921e-004
1.260159e-003,2.600531e-004
1.129210e-003,1.315353e-004
1.005716e-003,2.039785e-004
9.031286e-004,4.449697e-004
7.919518e-004,7.665075e-004
6.313449e-004,1.063249e-003
4.049396e-004,1.199384e-003
1.273216e-004,1.028243e-003
-1.629374e-004,5.175750e-004
-4.240246e-004,-1.875713e-004
-6.293613e-004,-8.272430e-004
-7.679272e-004,-1.173577e-003
-8.210845e-004,-1.130953e-003
-7.695478e-004,-7.594998e-004
-6.279027e-004,-2.230636e-004
-4.306693e-004,2.999212e-004
-2.096122e-004,6.836920e-004
1.436204e-005,8.512677e-004
2.292607e-004,7.721797e-004
4.277907e-004,4.869446e-004
6.052523e-004,1.203528e-004
7.725039e-004,-1.571031e-004
9.501277e-004,-2.105846e-004
1.156761e-003,-1.221667e-005
1.396780e-003,3.644232e-004
1.652034e-003,8.018378e-004
1.888974e-003,1.201329e-003
2.065788e-003,1.503258e-003
2.146821e-003,1.662406e-003
2.110194e-003,1.642796e-003
1.951532e-003,1.439242e-003
1.676830e-003,1.088045e-003
1.311534e-003,6.605167e-004
9.212800e-004,2.328261e-004
5.824011e-004,-1.603444e-004
3.472443e-004,-5.682627e-004
2.276400e-004,-1.056079e-003
1.984683e-004,-1.601591e-003
2.114335e-004,-2.095728e-003
2.240746e-004,-2.395063e-003
2.072198e-004,-2.389715e-003
1.451488e-004,-2.051971e-003
3.867184e-005,-1.448763e-003
-8.352541e-005,-7.068285e-004
-1.692580e-004,1.971020e-005
-1.773612e-004,5.843459e-004
-1.050801e-004,8.934048e-004
3.105477e-005,9.418624e-004
2.109473e-004,8.204753e-004
4.263322e-004,6.669993e-004
6.733199e-004,5.864528e-004
9.314902e-004,6.075213e-004
1.157247e-003,6.937401e-004
1.298569e-003,7.874139e-004
1.306672e-003,8.352232e-004
1.159030e-003,7.960034e-004
8.776844e-004,6.491721e-004
5.031512e-004,4.033189e-004
8.275361e-005,9.215340e-005
-3.240303e-004,-2.472114e-004
-6.630709e-004,-5.841451e-004
-9.013069e-004,-8.948243e-004
-1.027070e-003,-1.151212e-003
-1.046193e-003,-1.320084e-003
-9.675916e-004,-1.381020e-003
-7.958024e-004,-1.323487e-003
-5.311498e-004,-1.138895e-003
-1.765509e-004,-8.361567e-004
2.367157e-004,-4.528722e-004
6.399344e-004,-3.830919e-005
9.564483e-004,3.726885e-004
1.133586e-003,7.519216e-004
1.145417e-003,1.071839e-003
9.912923e-004,1.297920e-003
6.870955e-004,1.394836e-003
2.663737e-004,1.344919e-003
-2.141500e-004,1.167782e-003
-6.783050e-004,9.313281e-004
-1.040197e-003,7.039502e-004
-1.222682e-003,5.020167e-004
-1.196752e-003,2.696149e-004
-9.995184e-004,-8.287715e-005
-7.090974e-004,-6.162340e-004
-4.065215e-004,-1.327701e-003
-1.650443e-004,-2.160717e-003
-4.381940e-005,-3.017720e-003
-8.871149e-005,-3.761927e-003
-2.956689e-004,-4.238239e-003
-5.658317e-004,-4.311332e-003
-7.539895e-004,-3.941658e-003
-7.513965e-004,-3.241695e-003
-5.470322e-004,-2.429908e-003
-2.220912e-004,-1.720871e-003
9.426025e-005,-1.234189e-003
2.778803e-004,-9.512230e-004
2.347709e-004,-7.562584e-004
-9.843541e-005,-5.301774e-004
-6.958081e-004,-2.175534e-004
-1.432557e-003,1.735102e-004
-2.157151e-003,5.866149e-004
-2.731188e-003,9.593654e-004
-3.035223e-003,1.251408e-003
-3.003620e-003,1.452207e-003
-2.675761e-003,1.557712e-003
-2.166875e-003,1.557712e-003
-1.602239e-003,1.457717e-003
-1.066451e-003,1.292086e-003
-5.844692e-004,1.113328e-003
-1.506204e-004,9.974508e-004
2.446569e-004,1.023057e-003
5.974732e-004,1.205705e-003
8.921082e-004,1.453665e-003
1.102469e-003,1.606980e-003
1.226287e-003,1.516547e-003
1.298082e-003,1.080266e-003
1.364367e-003,2.684805e-004
1.440862e-003,-8.304843e-004
1.505689e-003,-1.982445e-003
1.523354e-003,-2.915294e-003
1.453017e-003,-3.409271e-003
1.259025e-003,-3.382044e-003
9.455899e-004,-2.917563e-003
5.937457e-004,-2.220519e-003
3.224483e-004,-1.523800e-003
2.184023e-004,-9.867153e-004
2.867939e-004,-6.517263e-004
4.287631e-004,-4.702132e-004
4.817585e-004,-3.710293e-004
3.644232e-004,-3.045825e-004
1.443384e-004,-2.271153e-004
-5.791909e-005,-7.120844e-005
-1.912988e-004,2.232643e-004
-2.822175e-004,6.088178e-004
-3.820497e-004,9.321384e-004
-5.245051e-004,1.095662e-003
-6.985632e-004,1.161299e-003
-8.327533e-004,1.307158e-003
-8.431255e-004,1.674399e-003
-6.940254e-004,2.257998e-003
-4.237005e-004,2.932356e-003
-1.156143e-004,3.539619e-003
1.526038e-004,3.976390e-003
3.415720e-004,4.220625e-003
4.548557e-004,4.292583e-003
5.247059e-004,4.221922e-003
5.835356e-004,4.037975e-003
6.430136e-004,3.765378e-003
7.003848e-004,3.427631e-003
7.543526e-004,3.047099e-003
8.165857e-004,2.652629e-003
8.966461e-004,2.274691e-003
9.937233e-004,1.943104e-003
1.104900e-003,1.672130e-003
1.227098e-003,1.455934e-003
1.350592e-003,1.268586e-003
1.454638e-003,1.079294e-003
1.498396e-003,8.673123e-004
1.418659e-003,6.306967e-004
1.169240e-003,3.927847e-004
7.880622e-004,2.300710e-004
3.948915e-004,2.213195e-004
1.227837e-004,3.472443e-004
2.667901e-005,4.903480e-004
5.844381e-005,5.183853e-004
1.206769e-004,3.675024e-004
1.368834e-004,5.844381e-005
7.578480e-005,-3.483401e-004
-5.840528e-005,-7.758683e-004
-2.439701e-004,-1.168066e-003
-4.475241e-004,-1.510510e-003
-6.262821e-004,-1.819407e-003
-7.454000e-004,-2.121173e-003
-7.708443e-004,-2.423101e-003
-7.071526e-004,-2.700233e-003
-6.003517e-004,-2.900384e-003
-5.005194e-004,-2.977041e-003
-4.258073e-004,-2.940739e-003
-3.587123e-004,-2.870240e-003
-2.720074e-004,-2.846416e-003
-1.619650e-004,-2.881098e-003
-5.451572e-005,-2.908488e-003
-3.951337e-006,-2.847065e-003
-6.051213e-005,-2.650479e-003
-2.327876e-004,-2.320675e-003
-4.799371e-004,-1.886502e-003
-7.390795e-004,-1.402737e-003
-9.463610e-004,-9.483058e-004
-1.053810e-003,-6.052136e-004
-1.046355e-003,-4.324520e-004
-9.364750e-004,-4.374760e-004
-7.585274e-004,-5.886829e-004
-5.525423e-004,-8.651663e-004
-3.413713e-004,-1.282809e-003
-1.412206e-004,-1.806118e-003
2.100672e-005,-2.311762e-003
1.135460e-004,-2.657934e-003
1.127357e-004,-2.749015e-003
1.257933e-005,-2.552753e-003
-1.616409e-004,-2.103508e-003
-3.489884e-004,-1.484580e-003
-4.621100e-004,-7.992057e-004
-4.248349e-004,-1.590478e-004
-2.170672e-004,3.180725e-004
1.227837e-004,5.734875e-004
5.110924e-004,6.608408e-004
8.592089e-004,6.977918e-004
1.102631e-003,7.932483e-004
1.207488e-003,1.012199e-003
1.171671e-003,1.384787e-003
1.041371e-003,1.917984e-003
8.885428e-004,2.586182e-003
7.760693e-004,3.320667e-003
7.326358e-004,4.000700e-003
7.449528e-004,4.478637e-003
7.530560e-004,4.648321e-003
6.810990e-004,4.497274e-003
4.794896e-004,4.115443e-003
1.618415e-004,3.660521e-003
-1.963229e-004,3.257623e-003
-4.946851e-004,2.942404e-003
-6.687432e-004,2.665757e-003
-7.121767e-004,2.331738e-003
-6.562641e-004,1.852995e-003
-5.493010e-004,1.194685e-003
-4.446069e-004,4.020224e-004
-4.118697e-004,-3.976080e-004
-5.201293e-004,-1.053810e-003
-7.752200e-004,-1.474856e-003
-1.101782e-003,-1.641459e-003
-1.398685e-003,-1.590571e-003
-1.581819e-003,-1.387827e-003
-1.590733e-003,-1.115395e-003
-1.401278e-003,-8.554424e-004
-1.055755e-003,-6.698776e-004
-6.496195e-004,-5.894933e-004
-2.985861e-004,-6.091032e-004
-1.118868e-004,-6.941874e-004
-1.768750e-004,-7.920748e-004
-5.288809e-004,-8.515528e-004
-1.104375e-003,-8.392359e-004
-1.726706e-003,-7.463724e-004
-2.160393e-003,-5.899795e-004
-2.229108e-003,-3.935563e-004
-1.903519e-003,-1.734716e-004
-1.305660e-003,5.423012e-005
-6.236890e-004,2.710735e-004
-1.967167e-005,4.527488e-004
4.255218e-004,5.733255e-004
7.148086e-004,6.013628e-004
8.968081e-004,5.016926e-004
1.025164e-003,2.577842e-004
1.132127e-003,-1.225832e-004
1.227098e-003,-6.283889e-004
1.310237e-003,-1.208096e-003
1.379926e-003,-1.739509e-003
1.441348e-003,-2.092001e-003
1.502447e-003,-2.192482e-003
1.573432e-003,-2.056995e-003
1.655761e-003,-1.767384e-003
1.730798e-003,-1.445846e-003
1.768073e-003,-1.197724e-003
1.746032e-003,-1.053324e-003
1.659651e-003,-9.564091e-004
1.507795e-003,-8.154123e-004
1.303755e-003,-5.614560e-004
1.088694e-003,-1.791439e-004
9.039390e-004,2.861456e-004
7.721797e-004,7.486803e-004
6.911471e-004,1.114948e-003
6.483617e-004,1.310886e-003
6.347483e-004,1.314289e-003
6.538720e-004,1.167944e-003
7.253428e-004,9.582310e-004
8.618020e-004,7.948689e-004
1.042829e-003,7.684522e-004
1.208784e-003,8.909738e-004
1.282524e-003,1.093718e-003
1.199060e-003,1.283497e-003
9.306798e-004,1.370202e-003
4.749518e-004,1.287548e-003
-1.290658e-004,1.007823e-003
-7.654962e-004,5.495019e-004
-1.249423e-003,-1.886135e-005
-1.426399e-003,-5.928966e-004
-1.247965e-003,-1.053648e-003
-7.841337e-004,-1.313763e-003
-1.828714e-004,-1.355252e-003
3.859779e-004,-1.244399e-003
7.681281e-004,-1.097406e-003
8.381404e-004,-1.028204e-003
5.449640e-004,-1.106482e-003
-4.722278e-005,-1.361248e-003
-7.880232e-004,-1.787804e-003
-1.502245e-003,-2.320513e-003
-2.052781e-003,-2.805900e-003
-2.371402e-003,-3.038950e-003
-2.457135e-003,-2.849009e-003
-2.369619e-003,-2.204799e-003
-2.214198e-003,-1.244561e-003
-2.083411e-003,-1.904885e-004
-2.039816e-003,7.381460e-004
-2.097998e-003,1.410232e-003
-2.218088e-003,1.815234e-003
-2.313707e-003,2.016358e-003
-2.281294e-003,2.117325e-003
-2.034630e-003,2.207109e-003
-1.553296e-003,2.341786e-003
-8.821832e-004,2.552959e-003
-1.049180e-004,2.845650e-003
6.869333e-004,3.168649e-003
1.407963e-003,3.416124e-003
1.985403e-003,3.507206e-003
2.351024e-003,3.428928e-003
2.453288e-003,3.173024e-003
2.295273e-003,2.689904e-003
1.956069e-003,1.927384e-003
1.573594e-003,9.157698e-004
1.271180e-003,-2.462390e-004
1.106359e-003,-1.411002e-003
1.075890e-003,-2.410946e-003
1.147686e-003,-3.096322e-003
1.280741e-003,-3.367620e-003
1.443941e-003,-3.191454e-003
1.628534e-003,-2.621631e-003
1.836303e-003,-1.806766e-003
2.057523e-003,-9.515471e-004
2.247788e-003,-2.652006e-004
2.347135e-003,9.814982e-005
2.313263e-003,6.249545e-005
2.136611e-003,-3.405610e-004
1.832575e-003,-9.353406e-004
1.412177e-003,-1.454922e-003
8.590469e-004,-1.661231e-003
1.368834e-004,-1.441308e-003
-7.324349e-004,-8.393980e-004
-1.630439e-003,-1.173047e-005
-2.411594e-003,8.467299e-004
-2.939604e-003,1.576997e-003
-3.124359e-003,2.075674e-003
-2.970072e-003,2.290573e-003
-2.587760e-003,2.232068e-003
-2.142566e-003,1.970169e-003
-1.766250e-003,1.605683e-003
-1.513752e-003,1.236660e-003
-1.366921e-003,9.258178e-004
-1.291074e-003,6.935780e-004
-1.270168e-003,5.195198e-004
-1.288967e-003,3.645853e-004
-1.307281e-003,1.924718e-004
-1.259957e-003,-1.302700e-005
-1.086710e-003,-2.519113e-004
-7.708443e-004,-5.118640e-004
-3.540124e-004,-7.750580e-004
7.708133e-005,-1.026259e-003
4.315182e-004,-1.251530e-003
6.496583e-004,-1.432881e-003
7.110811e-004,-1.549730e-003
6.256726e-004,-1.586195e-003
4.337872e-004,-1.535468e-003
2.081922e-004,-1.402413e-003
2.489629e-005,-1.190918e-003
-6.586029e-005,-9.038999e-004
-6.261898e-005,-5.518941e-004
6.744974e-006,-1.647201e-004
1.098185e-004,2.109473e-004
2.192126e-004,5.281092e-004
3.177483e-004,7.611593e-004
3.927847e-004,8.935668e-004
4.388112e-004,9.172284e-004
4.629590e-004,8.587227e-004
4.717105e-004,7.246946e-004
4.700898e-004,4.391353e-004
4.611762e-004,-9.114248e-005
4.423766e-004,-8.147640e-004
4.211461e-004,-1.516507e-003
4.123946e-004,-1.938687e-003
4.302217e-004,-1.910812e-003
4.838654e-004,-1.417161e-003
5.694359e-004,-5.891691e-004
6.671614e-004,3.788470e-004
7.473837e-004,1.313154e-003
7.927621e-004,2.106466e-003
8.052412e-004,2.684070e-003
8.013516e-004,3.001072e-003
7.947069e-004,3.059092e-003
7.888725e-004,2.915501e-003
7.736384e-004,2.658139e-003
7.261531e-004,2.365448e-003
6.198382e-004,2.082967e-003
4.428628e-004,1.835168e-003
2.243987e-004,1.642796e-003
1.112074e-005,1.534698e-003
-1.694200e-004,1.529188e-003
-3.204649e-004,1.591259e-003
-4.280762e-004,1.637448e-003
-4.428242e-004,1.565977e-003
-3.395886e-004,1.286900e-003
-1.515928e-004,7.468975e-004
5.212327e-005,-3.798505e-005
2.067336e-004,-9.377715e-004
2.563256e-004,-1.747936e-003
1.736723e-004,-2.284535e-003
-6.176923e-008,-2.447087e-003
-1.502963e-004,-2.238508e-003
-1.473791e-004,-1.749071e-003
8.648112e-005,-1.129819e-003
5.076890e-004,-5.395772e-004
9.720065e-004,-1.005423e-004
1.324985e-003,1.253768e-004
1.453828e-003,1.320215e-004
1.288845e-003,-5.013995e-005
7.844968e-004,-3.663294e-004
-7.461182e-005,-7.494517e-004
-1.195617e-003,-1.126091e-003
-2.340934e-003,-1.442767e-003
-3.225326e-003,-1.689268e-003
-3.620929e-003,-1.889743e-003
-3.472477e-003,-2.058778e-003
-2.901681e-003,-2.189078e-003
-2.127331e-003,-2.267032e-003
-1.346014e-003,-2.292152e-003
-6.843015e-004,-2.279187e-003
-1.948643e-004,-2.245477e-003
1.359110e-004,-2.185027e-003
3.548613e-004,-2.070284e-003
5.089855e-004,-1.867865e-003
6.297242e-004,-1.551027e-003
7.245325e-004,-1.105995e-003
7.862795e-004,-5.395772e-004
8.157754e-004,1.043083e-004
8.368439e-004,7.441425e-004
8.806016e-004,1.298569e-003
9.642274e-004,1.734039e-003
1.077025e-003,2.074864e-003
1.181719e-003,2.360586e-003
1.230663e-003,2.590882e-003
1.191767e-003,2.714377e-003
1.067301e-003,2.669971e-003
8.914600e-004,2.434974e-003
7.055709e-004,2.058333e-003
5.436675e-004,1.632586e-003
4.143393e-004,1.238118e-003
2.986247e-004,9.037769e-004
1.820997e-004,6.138419e-004
5.649903e-005,3.427064e-004
-9.956988e-005,8.080883e-005
-2.953447e-004,-1.585616e-004
-4.977643e-004,-3.523917e-004
-6.449196e-004,-4.857715e-004
-6.800878e-004,-5.611319e-004
-5.847933e-004,-5.912760e-004
-3.940425e-004,-5.961379e-004
-1.616409e-004,-6.178547e-004
7.708133e-005,-6.979149e-004
3.077003e-004,-8.408565e-004
5.256782e-004,-9.996805e-004
7.225877e-004,-1.115719e-003
8.823843e-004,-1.162556e-003
9.906441e-004,-1.149591e-003
1.044126e-003,-1.094813e-003
1.065518e-003,-9.700225e-004
1.085939e-003,-6.945116e-004
1.129210e-003,-2.118811e-004
1.199547e-003,4.488593e-004
1.269883e-003,1.174913e-003
1.292896e-003,1.821068e-003
1.226936e-003,2.259781e-003
1.041046e-003,2.420875e-003
7.430080e-004,2.299811e-003
3.793332e-004,1.944563e-003
9.106227e-007,1.448803e-003
-3.485022e-004,9.285730e-004
-6.557780e-004,4.916445e-004
-9.288579e-004,2.012234e-004
-1.177628e-003,8.356394e-005
-1.402251e-003,1.401247e-004
-1.595108e-003,2.973281e-004
-1.735781e-003,4.321665e-004
-1.799635e-003,4.274666e-004
-1.772408e-003,2.146748e-004
-1.654911e-003,-1.841680e-004
-1.477611e-003,-6.410300e-004
-1.288157e-003,-9.901187e-004
-1.127550e-003,-1.146674e-003
-1.031931e-003,-1.146836e-003
-1.030959e-003,-1.052190e-003
-1.110533e-003,-9.243201e-004
-1.198048e-003,-8.045539e-004
-1.191566e-003,-6.808981e-004
-1.017508e-003,-4.929024e-004
-6.794395e-004,-1.998883e-004
-2.491561e-004,1.415833e-004
1.809652e-004,3.984569e-004
5.399400e-004,4.508040e-004
8.049170e-004,2.384984e-004
9.836752e-004,-2.370013e-004
1.078484e-003,-9.121653e-004
1.081725e-003,-1.662366e-003
9.878889e-004,-2.334613e-003
8.149651e-004,-2.798607e-003
6.050903e-004,-2.989196e-003
4.112601e-004,-2.933446e-003
2.754493e-004,-2.716116e-003
2.177540e-004,-2.422291e-003
2.487085e-004,-2.106749e-003
3.726885e-004,-1.814707e-003
5.582534e-004,-1.582143e-003
7.268014e-004,-1.399982e-003
7.780141e-004,-1.222682e-003
6.511169e-004,-9.923875e-004
3.511338e-004,-6.716604e-004
-6.553616e-005,-2.635799e-004
-5.199672e-004,1.950649e-004
-9.369612e-004,6.422033e-004
-1.263037e-003,1.013009e-003
-1.475342e-003,1.260321e-003
-1.579226e-003,1.361612e-003
-1.588140e-003,1.298245e-003
-1.495925e-003,1.031809e-003
-1.296260e-003,5.705704e-004
-1.001301e-003,2.149292e-005
-6.467023e-004,-4.556273e-004
-2.830278e-004,-7.504240e-004
5.487838e-005,-8.233535e-004
3.436788e-004,-6.729569e-004
5.613327e-004,-3.152788e-004
7.016813e-004,2.222919e-004
7.778521e-004,8.869221e-004
8.185305e-004,1.582346e-003
8.433265e-004,2.193010e-003
8.451093e-004,2.630426e-003
8.154513e-004,2.870608e-003
7.629421e-004,2.953911e-003
7.162672e-004,2.952614e-003
7.041123e-004,2.929601e-003
7.326358e-004,2.909829e-003
7.819037e-004,2.870608e-003
8.219338e-004,2.770127e-003
8.250132e-004,2.590396e-003
7.867657e-004,2.357345e-003
7.339324e-004,2.124780e-003
7.107570e-004,1.935649e-003
7.480320e-004,1.807779e-003
8.397611e-004,1.733553e-003
9.488311e-004,1.679585e-003
1.027433e-003,1.606818e-003
1.030674e-003,1.492885e-003
9.297074e-004,1.331792e-003
7.148086e-004,1.133424e-003
4.007258e-004,9.138250e-004
2.667901e-005,6.951987e-004
-3.525538e-004,4.879170e-004
-6.796016e-004,2.923041e-004
-8.904485e-004,1.056048e-004
-9.439300e-004,-7.120844e-005
-8.538218e-004,-2.276015e-004
-6.927288e-004,-3.413713e-004
-5.416840e-004,-3.969597e-004
-4.682684e-004,-3.908012e-004
-5.115399e-004,-3.360231e-004
-6.395715e-004,-2.561249e-004
-7.329211e-004,-1.718510e-004
-6.561021e-004,-9.940781e-005
-3.601709e-004,-4.333321e-005
7.302970e-005,-8.813297e-006
4.837033e-004,-1.156841e-005
7.452769e-004,-7.850138e-005
8.553194e-004,-2.326255e-004
9.120423e-004,-4.768579e-004
1.003933e-003,-7.825130e-004
1.141689e-003,-1.106482e-003
1.271180e-003,-1.411326e-003
1.324661e-003,-1.662042e-003
1.250759e-003,-1.825565e-003
1.056119e-003,-1.875968e-003
7.870898e-004,-1.803363e-003
4.802999e-004,-1.618284e-003
1.208390e-004,-1.352659e-003
-3.332680e-004,-1.062562e-003
-8.847762e-004,-8.133054e-004
-1.478421e-003,-6.432990e-004
-2.013886e-003,-5.418460e-004
-2.365567e-003,-4.645409e-004
-2.425694e-003,-3.666535e-004
-2.157800e-003,-2.340841e-004
-1.633680e-003,-9.665270e-005
-1.019615e-003,-2.696461e-005
-5.117019e-004,-1.109144e-004
-2.489941e-004,-4.108973e-004
-2.455907e-004,-9.461989e-004
-4.032803e-004,-1.679383e-003
-5.920863e-004,-2.483875e-003
-7.165525e-004,-3.164876e-003
-7.363244e-004,-3.537627e-003
-6.624226e-004,-3.511859e-003
-5.392530e-004,-3.116256e-003
-4.190006e-004,-2.472531e-003
-3.331060e-004,-1.735133e-003
-2.844864e-004,-1.051866e-003
-2.603387e-004,-5.355255e-004
-2.464010e-004,-2.246843e-004
-2.147983e-004,-8.093236e-005
-1.284175e-004,-1.902341e-005
4.045456e-005,6.995045e-005
2.871180e-004,2.641047e-004
5.759185e-004,5.752703e-004
8.624502e-004,9.389452e-004
1.106197e-003,1.243953e-003
1.288845e-003,1.382843e-003
1.412015e-003,1.294031e-003
1.492399e-003,9.925888e-004
1.545233e-003,5.614947e-004
1.579104e-003,1.218114e-004
1.596283e-003,-2.133397e-004
1.599525e-003,-3.846427e-004
1.590125e-003,-3.935563e-004
1.573270e-003,-2.796244e-004
1.560791e-003,-9.162867e-005
1.564680e-003,1.047945e-004
1.579915e-003,2.590807e-004
1.585587e-003,3.814401e-004
1.553498e-003,5.133613e-004
1.440214e-003,6.836920e-004
1.218994e-003,8.885428e-004
8.998874e-004,1.096149e-003
5.261644e-004,1.270531e-003
1.477418e-004,1.402128e-003
-2.169052e-004,1.514440e-003
-5.834968e-004,1.623996e-003
-9.794224e-004,1.668727e-003
-1.423805e-003,1.519464e-003
-1.908705e-003,1.127103e-003
-2.411432e-003,5.943940e-004
-2.871537e-003,1.143563e-004
-3.189834e-003,-1.378173e-004
-3.283994e-003,-1.054042e-004
-3.122252e-003,1.613553e-004
-2.726002e-003,5.930975e-004
-2.115824e-003,1.173292e-003
-1.319922e-003,1.888650e-003
-4.172179e-004,2.613247e-003
4.478869e-004,3.122622e-003
1.119486e-003,3.213865e-003
1.506661e-003,2.837223e-003
1.592718e-003,2.142769e-003
1.436000e-003,1.410394e-003
1.158058e-003,8.890290e-004
8.911358e-004,6.567892e-004
7.209671e-004,6.234037e-004
6.691061e-004,6.167590e-004
7.076777e-004,4.785172e-004
7.828761e-004,1.059290e-004
8.331164e-004,-5.301774e-004
8.173960e-004,-1.366596e-003
6.997365e-004,-2.247908e-003
4.310321e-004,-2.948842e-003
-1.221667e-005,-3.261143e-003
-5.933828e-004,-3.103453e-003
-1.226896e-003,-2.567015e-003
-1.812762e-003,-1.853765e-003
-2.256173e-003,-1.167094e-003
-2.496192e-003,-6.322784e-004
-2.527147e-003,-2.794623e-004
-2.403977e-003,-7.590833e-005
-2.205285e-003,3.688912e-005
-1.972559e-003,1.107909e-004
-1.692510e-003,1.725378e-004
-1.335480e-003,2.256952e-004
-8.951484e-004,2.644289e-004
-3.953390e-004,2.958695e-004
1.128978e-004,3.357376e-004
5.789978e-004,3.890571e-004
9.835132e-004,4.454559e-004
1.324661e-003,4.791655e-004
1.599687e-003,4.602039e-004
1.787359e-003,3.791712e-004
1.868392e-003,2.579462e-004
1.850564e-003,1.279698e-004
1.770504e-003,-1.156841e-005
1.668565e-003,-2.070192e-004
1.572135e-003,-5.264499e-004
1.499692e-003,-1.014753e-003
1.469872e-003,-1.667714e-003
1.494506e-003,-2.447735e-003
1.557550e-003,-3.309762e-003
1.609411e-003,-4.176978e-003
1.593690e-003,-4.915840e-003
1.473762e-003,-4.968512e-003
1.242980e-003,-4.968512e-003
9.241972e-004,-4.968350e-003
5.592257e-004,-4.227705e-003
1.924718e-004,-3.230188e-003
-1.434896e-004,-2.123280e-003
-4.123559e-004,-9.919014e-004
-5.807417e-004,1.039842e-004
-6.382749e-004,1.117055e-003
-5.959758e-004,2.018141e-003
-4.799371e-004,2.779851e-003
-3.436402e-004,3.352270e-003
-2.677937e-004,3.710924e-003
-3.040963e-004,3.894222e-003
-4.384484e-004,3.982386e-003
-5.969483e-004,4.031816e-003
-6.698776e-004,4.022903e-003
-5.585388e-004,3.871856e-003
-2.293842e-004,3.506071e-003
2.699391e-004,2.935597e-003
8.472161e-004,2.268695e-003
1.407801e-003,1.659489e-003
1.878440e-003,1.231798e-003
2.191389e-003,1.034078e-003
2.269019e-003,1.036022e-003
2.033051e-003,1.155141e-003
1.447021e-003,1.299541e-003
5.840218e-004,1.404722e-003
-3.541745e-004,1.440700e-003
-1.147808e-003,1.405856e-003
-1.705799e-003,1.321258e-003
-2.030903e-003,1.219481e-003
-2.177410e-003,1.112679e-003
-2.198964e-003,9.818925e-004
-2.118742e-003,8.037825e-004
-1.930908e-003,5.862907e-004
-1.627359e-003,3.671783e-004
-1.228679e-003,1.963614e-004
-7.948300e-004,1.031738e-004
-4.133283e-004,8.502253e-005
-1.734716e-004,1.093323e-004
-1.229073e-004,1.300767e-004
-2.417012e-004,1.253768e-004
-4.514136e-004,1.127357e-004
-6.609641e-004,1.261871e-004
-7.907783e-004,1.892305e-004
-7.959644e-004,3.064038e-004
-6.736051e-004,4.691174e-004
-4.488206e-004,6.575995e-004
-1.652063e-004,8.381404e-004
1.265113e-004,9.682790e-004
3.793332e-004,1.001340e-003
5.572810e-004,8.995633e-004
6.443101e-004,6.439860e-004
6.569512e-004,2.522740e-004
6.235657e-004,-2.058847e-004
5.697600e-004,-6.223925e-004
5.190336e-004,-9.004966e-004
4.939134e-004,-1.001301e-003
5.109303e-004,-9.684019e-004
5.760806e-004,-9.048723e-004
6.793162e-004,-9.176755e-004
7.896828e-004,-1.080389e-003
8.762258e-004,-1.428992e-003
9.201455e-004,-1.948411e-003
9.182008e-004,-2.535250e-003
8.679605e-004,-3.007348e-003
7.785003e-004,-3.199233e-003
6.744543e-004,-3.050457e-003
5.864528e-004,-2.625683e-003
5.295678e-004,-2.071743e-003
5.083373e-004,-1.549730e-003
5.272989e-004,-1.170011e-003
5.673291e-004,-9.688881e-004
5.754323e-004,-9.152445e-004
4.971547e-004,-9.455507e-004
3.221241e-004,-9.995184e-004
7.205730e-005,-1.036631e-003
-2.175534e-004,-1.035173e-003
-5.023021e-004,-9.907669e-004
-7.371347e-004,-9.137859e-004
-8.959587e-004,-8.311326e-004
-9.980599e-004,-7.750580e-004
-1.072124e-003,-7.476690e-004
-1.115071e-003,-7.115284e-004
-1.122526e-003,-6.330888e-004
-1.124795e-003,-5.023021e-004
-1.190269e-003,-3.334301e-004
-1.382965e-003,-1.543479e-004
-1.710013e-003,1.079661e-005
-2.083088e-003,1.263492e-004
-2.358437e-003,9.717743e-005
-2.424073e-003,-2.068571e-004
-2.260063e-003,-8.191398e-004
-1.935608e-003,-1.590409e-003
-1.561561e-003,-2.262980e-003
-1.238403e-003,-2.600725e-003
-1.029338e-003,-2.470424e-003
-9.458748e-004,-1.879695e-003
-9.470092e-004,-9.577056e-004
-9.585159e-004,1.124116e-004
-9.074653e-004,1.141689e-003
-7.428070e-004,2.021058e-003
-4.467137e-004,2.723776e-003
-2.745081e-005,3.246765e-003
4.843516e-004,3.590022e-003
1.022571e-003,3.761003e-003
1.502933e-003,3.784340e-003
1.849106e-003,3.694069e-003
2.015386e-003,3.514337e-003
1.999179e-003,3.262809e-003
1.829820e-003,2.944511e-003
1.561439e-003,2.566086e-003
1.254649e-003,2.157517e-003
9.682790e-004,1.772449e-003
7.457631e-004,1.465010e-003
6.136798e-004,1.270045e-003
5.741358e-004,1.191605e-003
6.109247e-004,1.202950e-003
6.960090e-004,1.264697e-003
7.990826e-004,1.339895e-003
8.909738e-004,1.390622e-003
9.554758e-004,1.382519e-003
9.914545e-004,1.292410e-003
1.007823e-003,1.123214e-003
1.023219e-003,8.922703e-004
1.055308e-003,6.165970e-004
1.100363e-003,2.997591e-004
1.143958e-003,-6.504996e-005
1.171509e-003,-4.893369e-004
1.172157e-003,-9.502506e-004
1.147361e-003,-1.380534e-003
1.097769e-003,-1.691213e-003
1.012685e-003,-1.817624e-003
8.718501e-004,-1.756526e-003
6.723474e-004,-1.569502e-003
4.425387e-004,-1.356224e-003
2.323399e-004,-1.204045e-003
8.615699e-005,-1.135005e-003
3.105477e-005,-1.071800e-003
6.508849e-005,-9.131377e-004
1.597346e-004,-6.351956e-004
2.723701e-004,-2.927517e-004
3.658818e-004,3.299956e-005
4.282770e-004,2.937627e-004
4.483731e-004,4.702519e-004
3.945674e-004,5.397780e-004
2.474120e-004,4.884033e-004
6.508849e-005,3.292550e-004
-3.020592e-005,9.328786e-005
4.596478e-005,-1.802784e-004
2.785285e-004,-4.685925e-004
5.836976e-004,-7.612825e-004
8.778464e-004,-1.044897e-003
1.095176e-003,-1.299177e-003
1.178154e-003,-1.504838e-003
1.099714e-003,-1.678248e-003
9.084769e-004,-1.848741e-003
6.976296e-004,-2.018424e-003
5.214646e-004,-2.137866e-003
3.329825e-004,-2.138514e-003
1.792748e-005,-2.001893e-003
-4.741028e-004,-1.803687e-003
-1.061914e-003,-1.675493e-003
-1.605643e-003,-1.682138e-003
-1.989089e-003,-1.744047e-003
-2.155207e-003,-1.696237e-003
-2.114528e-003,-1.424778e-003
-1.951166e-003,-9.468472e-004
-1.819893e-003,-3.789705e-004
-1.856034e-003,1.433661e-004
-2.064288e-003,5.446399e-004
-2.328617e-003,8.355473e-004
-2.506241e-003,1.070218e-003
-2.482093e-003,1.298082e-003
-2.199288e-003,1.535833e-003
-1.674845e-003,1.755108e-003
-1.007622e-003,1.907936e-003
-3.441264e-004,1.935163e-003
1.835583e-004,1.791410e-003
5.140096e-004,1.453990e-003
6.588960e-004,9.287350e-004
6.776956e-004,2.817699e-004
6.459308e-004,-3.606571e-004
6.256726e-004,-8.588458e-004
6.528996e-004,-1.128360e-003
7.386322e-004,-1.159315e-003
8.694191e-004,-1.002274e-003
1.014143e-003,-7.369727e-004
1.135044e-003,-4.403932e-004
1.200033e-003,-1.710407e-004
1.183826e-003,4.353380e-005
1.074432e-003,1.991165e-004
8.760638e-004,3.080245e-004
6.232416e-004,3.864641e-004
3.616681e-004,4.469145e-004
1.234320e-004,4.979651e-004
-8.692878e-005,5.438296e-004
-2.820554e-004,5.796460e-004
-4.805854e-004,6.016869e-004
-7.050458e-004,6.104385e-004
-9.671054e-004,6.068730e-004
-1.255906e-003,6.003904e-004
-1.536927e-003,5.895320e-004
-1.752474e-003,5.533914e-004
-1.841286e-003,4.498317e-004
-1.772732e-003,2.569738e-004
-1.562533e-003,9.106227e-007
-1.275678e-003,-2.538560e-004
-9.862292e-004,-4.538446e-004
-7.447518e-004,-5.689110e-004
-5.651835e-004,-5.799314e-004
-4.266177e-004,-4.776682e-004
-2.841623e-004,-2.736280e-004
-9.389759e-005,-1.108221e-005
1.663793e-004,2.522740e-004
4.845136e-004,4.624728e-004
8.232304e-004,5.898562e-004
1.145741e-003,6.306967e-004
1.410718e-003,6.034696e-004
1.585587e-003,5.430193e-004
1.651224e-003,5.065545e-004
1.616866e-003,5.692738e-004
1.516385e-003,7.671557e-004
1.378143e-003,1.070380e-003
1.203760e-003,1.388029e-003
9.525587e-004,1.586721e-003
5.721910e-004,1.499206e-003
4.483033e-005,1.004258e-003
-5.809038e-004,1.470936e-004
-1.207610e-003,-8.256224e-004
-1.726219e-003,-1.579712e-003
-2.037709e-003,-1.868513e-003
-2.073039e-003,-1.590085e-003
-1.804983e-003,-8.092538e-004
-1.276488e-003,2.576221e-004
-6.131548e-004,1.300838e-003
2.230325e-005,2.056874e-003
4.832171e-004,2.377117e-003
6.963331e-004,2.257350e-003
6.917953e-004,1.838572e-003
5.864528e-004,1.339247e-003
5.310264e-004,9.446174e-004
6.363689e-004,7.337703e-004
9.214421e-004,6.815852e-004
1.325471e-003,7.016813e-004
1.749111e-003,7.063812e-004
2.120080e-003,6.457687e-004
2.411475e-003,5.183853e-004
2.628319e-003,3.587509e-004
2.772396e-003,2.080301e-004
2.837060e-003,9.312580e-005
2.802703e-003,1.906194e-005
2.632533e-003,-3.020592e-005
2.291222e-003,-8.060823e-005
1.782659e-003,-1.632615e-004
1.160651e-003,-2.989102e-004
5.164405e-004,-4.711856e-004
-6.650855e-005,-6.329267e-004
-5.489769e-004,-7.287074e-004
-9.434438e-004,-7.065044e-004
-1.288481e-003,-5.364979e-004
-1.610343e-003,-2.292221e-004
-1.891688e-003,1.571416e-004
-2.097025e-003,5.401021e-004
-2.196533e-003,8.452713e-004
-2.182434e-003,1.037805e-003
-2.093622e-003,1.131317e-003
-1.992493e-003,1.186743e-003
-1.943549e-003,1.293059e-003
-1.980824e-003,1.494020e-003
-2.080656e-003,1.737605e-003
-2.151479e-003,1.895943e-003
-2.082115e-003,1.837113e-003
-1.805793e-003,1.496289e-003
-1.362383e-003,9.088010e-004
-8.875313e-004,1.874478e-004
-5.267740e-004,-5.319601e-004
-3.360231e-004,-1.145701e-003
-2.613110e-004,-1.612125e-003
-1.927574e-004,-1.927829e-003
-3.474375e-005,-2.113070e-003
2.440086e-004,-2.186647e-003
6.078454e-004,-2.171737e-003
9.859442e-004,-2.089084e-003
1.308941e-003,-1.948897e-003
1.527405e-003,-1.755067e-003
1.629021e-003,-1.515048e-003
1.632910e-003,-1.245534e-003
1.567598e-003,-9.776396e-004
1.460958e-003,-7.389174e-004
1.338761e-003,-5.470322e-004
1.225963e-003,-4.117076e-004
1.137962e-003,-3.363473e-004
1.079942e-003,-3.055549e-004
1.062763e-003,-2.950206e-004
1.098580e-003,-2.903207e-004
1.169726e-003,-3.005308e-004
1.233742e-003,-3.525538e-004
1.256270e-003,-4.672960e-004
1.226449e-003,-6.350336e-004
1.150765e-003,-8.123330e-004
1.046719e-003,-9.444162e-004
9.282488e-004,-9.870394e-004
7.781762e-004,-9.205926e-004
5.579292e-004,-7.585274e-004
2.386605e-004,-5.575664e-004
-1.332795e-004,-3.929081e-004
-4.434724e-004,-3.136581e-004
-6.040792e-004,-3.173856e-004
-6.097514e-004,-3.632501e-004
-5.230465e-004,-4.180282e-004
-4.207833e-004,-4.700511e-004
-3.661673e-004,-5.319601e-004
-3.966356e-004,-6.204477e-004
-5.110537e-004,-7.300039e-004
-6.608020e-004,-8.371290e-004
-7.812165e-004,-9.173513e-004
-8.264327e-004,-9.570573e-004
-7.873750e-004,-9.523575e-004
-6.988873e-004,-9.183238e-004
-6.189891e-004,-9.361509e-004
-5.860899e-004,-1.100971e-003
-6.065101e-004,-1.407275e-003
-6.585331e-004,-1.720061e-003
-7.045596e-004,-1.830914e-003
-7.058561e-004,-1.589436e-003
-6.398956e-004,-9.795844e-004
-5.055434e-004,-1.021629e-004
-3.256510e-004,8.781706e-004
-1.267968e-004,1.783793e-003
6.330578e-005,2.464470e-003
2.235884e-004,2.806754e-003
3.511338e-004,2.782120e-003
4.543695e-004,2.479867e-003
5.470709e-004,2.078105e-003
6.394482e-004,1.757052e-003
7.206430e-004,1.605197e-003
7.562974e-004,1.594176e-003
7.118915e-004,1.624159e-003
5.650602e-004,1.584777e-003
3.279585e-004,1.383977e-003
4.223728e-005,9.789753e-004
-2.436459e-004,4.143393e-004
-4.831784e-004,-1.838438e-004
-6.454058e-004,-6.807360e-004
-7.306521e-004,-1.003570e-003
-7.586894e-004,-1.148781e-003
-7.677651e-004,-1.148781e-003
-8.037436e-004,-1.038414e-003
-8.938519e-004,-8.522011e-004
-1.027880e-003,-6.199615e-004
-1.161908e-003,-3.617915e-004
-1.257040e-003,-8.644259e-005
-1.294477e-003,1.947408e-004
-1.276812e-003,4.550177e-004
-1.214579e-003,6.545202e-004
-1.121554e-003,7.509492e-004
-1.015077e-003,7.068674e-004
-9.048723e-004,5.096338e-004
-7.857543e-004,1.855030e-004
-6.526987e-004,-2.003745e-004
-5.070020e-004,-5.593491e-004
-3.546606e-004,-8.077952e-004
-2.092881e-004,-8.880175e-004
-7.493595e-005,-7.851060e-004
6.087479e-005,-5.352014e-004
2.188885e-004,-2.165810e-004
4.067223e-004,8.097089e-005
6.104385e-004,2.937627e-004
8.057273e-004,3.973225e-004
9.733030e-004,3.995914e-004
1.114462e-003,3.303894e-004
1.242818e-003,2.542187e-004
1.357561e-003,2.501671e-004
1.434542e-003,3.738230e-004
1.435838e-003,6.331276e-004
1.334547e-003,9.844856e-004
1.130345e-003,1.345081e-003
8.481885e-004,1.637124e-003
5.425331e-004,1.812479e-003
2.678322e-004,1.865799e-003
5.293359e-005,1.828199e-003
-1.011905e-004,1.750894e-003
-2.002124e-004,1.680557e-003
-2.402425e-004,1.641500e-003
-2.434839e-004,1.624969e-003
-2.392702e-004,1.584128e-003
-2.355427e-004,1.475058e-003
-2.139880e-004,1.275069e-003
-1.478653e-004,9.781651e-004
-4.074016e-005,5.666808e-004
7.983644e-005,1.501031e-005
1.906891e-004,-6.450817e-004
2.884145e-004,-1.285239e-003
4.012120e-004,-1.732216e-003
5.509604e-004,-1.852792e-003
7.350668e-004,-1.638218e-003
9.321384e-004,-1.217658e-003
1.105873e-003,-7.834854e-004
1.210405e-003,-4.945230e-004
1.213322e-003,-4.162455e-004
1.108142e-003,-5.501114e-004
9.092872e-004,-8.295119e-004
6.470652e-004,-1.108588e-003
3.806297e-004,-1.220413e-003
1.911753e-004,-1.071637e-003
1.329939e-004,-6.935392e-004
2.021958e-004,-2.392702e-004
3.428685e-004,1.015532e-004
4.606900e-004,2.185644e-004
4.282770e-004,1.193804e-004
1.514693e-004,-1.370070e-004
-3.608192e-004,-5.198052e-004
-9.961150e-004,-9.906049e-004
-1.567071e-003,-1.473073e-003
-1.896712e-003,-1.879047e-003
-1.900278e-003,-2.141431e-003
-1.619256e-003,-2.255039e-003
-1.177304e-003,-2.259901e-003
-6.995356e-004,-2.189565e-003
-2.650386e-004,-2.014858e-003
9.539470e-005,-1.656855e-003
3.864641e-004,-1.076824e-003
6.355586e-004,-3.462333e-004
8.677984e-004,3.840331e-004
1.100038e-003,9.924268e-004
1.348323e-003,1.445238e-003
1.610059e-003,1.771800e-003
1.853968e-003,2.013927e-003
2.025758e-003,2.192037e-003
2.069191e-003,2.308725e-003
1.961417e-003,2.360586e-003
1.717995e-003,2.340490e-003
1.375226e-003,2.233526e-003
9.805959e-004,2.029809e-003
6.021731e-004,1.751704e-003
3.120761e-004,1.450586e-003
1.271595e-004,1.189498e-003
-1.237873e-005,1.027109e-003
-1.887058e-004,9.917786e-004
-4.329382e-004,1.054660e-003
-7.491275e-004,1.155951e-003
-1.150725e-003,1.241197e-003
-1.619580e-003,1.274421e-003
-2.084546e-003,1.230177e-003
-2.460700e-003,1.076701e-003
-2.701692e-003,8.008654e-004
-2.824700e-003,4.180668e-004
-2.886122e-003,-3.101625e-005
-2.901681e-003,-5.013297e-004
-2.824862e-003,-9.679157e-004
-2.607694e-003,-1.411326e-003
-2.281942e-003,-1.792504e-003
-1.946304e-003,-2.048729e-003
-1.688782e-003,-2.113394e-003
-1.534334e-003,-1.964455e-003
-1.464484e-003,-1.643890e-003
-1.426236e-003,-1.237430e-003
-1.334832e-003,-8.389117e-004
-1.110209e-003,-5.274223e-004
-7.225489e-004,-3.449367e-004
-2.194982e-004,-2.963172e-004
2.798251e-004,-3.566054e-004
6.512789e-004,-4.854474e-004
8.253373e-004,-6.561021e-004
7.817416e-004,-8.802384e-004
5.569569e-004,-1.177142e-003
2.535705e-004,-1.517965e-003
-2.006553e-006,-1.822000e-003
-1.126972e-004,-2.005782e-003
-4.414354e-005,-2.025230e-003
1.733481e-004,-1.873699e-003
4.705760e-004,-1.567882e-003
7.809313e-004,-1.142622e-003
1.064546e-003,-6.266062e-004
1.311048e-003,-4.113403e-006
1.528216e-003,7.246946e-004
1.725612e-003,1.483486e-003
1.903884e-003,2.148604e-003
2.063843e-003,2.614868e-003
2.201437e-003,2.839654e-003
2.300297e-003,2.834792e-003
2.330766e-003,2.633343e-003
2.268046e-003,2.266750e-003
2.097067e-003,1.777797e-003
1.805348e-003,1.235039e-003
1.381708e-003,7.303669e-004
8.593710e-004,3.436788e-004
3.354135e-004,1.078737e-004
-7.137051e-005,2.262738e-005
-2.768693e-004,5.941620e-005
-2.932379e-004,1.616794e-004
-2.357047e-004,2.485465e-004
-2.498044e-004,2.585945e-004
-4.061974e-004,1.973338e-004
-6.721465e-004,1.355869e-004
-9.431197e-004,1.470936e-004
-1.088330e-003,2.098128e-004
-9.975737e-004,2.030061e-004
-6.441093e-004,4.207521e-005
-1.167488e-004,-2.512630e-004
4.268184e-004,-5.551354e-004
8.381404e-004,-7.167145e-004
1.035536e-003,-6.274165e-004
1.022247e-003,-2.652006e-004
8.642329e-004,3.096451e-004
6.459308e-004,9.848097e-004
4.294114e-004,1.635665e-003
2.389846e-004,2.155572e-003
7.935024e-005,2.474681e-003
-4.706071e-005,2.580672e-003
-1.434896e-004,2.501908e-003
-2.138259e-004,2.280687e-003
-2.569353e-004,1.961904e-003
-2.592042e-004,1.592718e-003
-2.073433e-004,1.218832e-003
-9.535618e-005,8.794671e-004
6.087479e-005,5.906665e-004
2.237505e-004,3.422202e-004
3.548613e-004,1.090082e-004
4.370285e-004,-1.305243e-004
4.751139e-004,-3.805911e-004
4.861343e-004,-6.207718e-004
4.888894e-004,-8.180053e-004
4.935893e-004,-9.538161e-004
4.971547e-004,-1.027556e-003
4.811103e-004,-1.054134e-003
4.258460e-004,-1.056403e-003
3.274723e-004,-1.059645e-003
2.007372e-004,-1.085737e-003
7.076078e-005,-1.148294e-003
-3.652646e-005,-1.246182e-003
-9.811128e-005,-1.367893e-003
-1.057284e-004,-1.493980e-003
-6.715681e-005,-1.602239e-003
-1.034161e-006,-1.679058e-003
8.064677e-005,-1.721520e-003
1.767515e-004,-1.735619e-003
2.809595e-004,-1.726544e-003
3.822504e-004,-1.694293e-003
4.772207e-004,-1.635625e-003
5.746220e-004,-1.551675e-003
6.755888e-004,-1.447143e-003
7.600249e-004,-1.329808e-003
7.838485e-004,-1.206638e-003
6.893643e-004,-1.088978e-003
4.294114e-004,-9.930359e-004
-7.100305e-007,-9.395542e-004
-5.403875e-004,-9.374474e-004
-1.085089e-003,-9.839601e-004
-1.532551e-003,-1.068720e-003
-1.820866e-003,-1.173090e-003
-1.934311e-003,-1.258175e-003
-1.894281e-003,-1.254609e-003
-1.743236e-003,-1.102106e-003
-1.530931e-003,-8.115227e-004
-1.304849e-003,-4.567618e-004
-1.099675e-003,-1.175591e-004
-9.296683e-004,1.618415e-004
-7.902921e-004,3.790091e-004
-6.616123e-004,4.990995e-004
-5.317981e-004,4.514523e-004
-4.027940e-004,2.171058e-004
-2.867553e-004,-1.264727e-004
-2.023193e-004,-4.136524e-004
-1.609926e-004,-4.716718e-004
-1.514308e-004,-2.039399e-004
-1.533756e-004,3.574544e-004
-1.410586e-004,1.066167e-003
-8.595638e-005,1.743439e-003
2.797553e-005,2.239847e-003
2.004130e-004,2.453612e-003
4.063981e-004,2.312453e-003
6.182176e-004,1.783469e-003
8.254994e-004,9.078286e-004
1.028081e-003,-1.426792e-004
1.224343e-003,-1.067262e-003
1.400184e-003,-1.594298e-003
1.527729e-003,-1.610991e-003
1.546043e-003,-1.195131e-003
1.385436e-003,-5.595111e-004
1.009444e-003,8.712937e-005
4.508040e-004,6.221072e-004
-1.668270e-004,1.018519e-003
-6.878669e-004,1.287224e-003
-1.019939e-003,1.434380e-003
-1.165311e-003,1.453503e-003
-1.181194e-003,1.342651e-003
-1.120581e-003,1.105711e-003
-1.006163e-003,7.506250e-004
-8.369670e-004,3.185587e-004
-6.172064e-004,-9.811128e-005
-3.760533e-004,-3.885323e-004
-1.778474e-004,-4.864197e-004
-8.903562e-005,-4.061974e-004
-1.209625e-004,-2.253326e-004
-2.485079e-004,-3.652646e-005
-4.399070e-004,8.453633e-005
-6.685811e-004,9.782569e-005
-9.111929e-004,5.001642e-005
-1.141164e-003,3.526847e-005
-1.333373e-003,1.145184e-004
-1.454274e-003,2.953834e-004
-1.458487e-003,5.423710e-004
-1.325108e-003,7.930862e-004
-1.074068e-003,9.870786e-004
-7.593377e-004,1.077349e-003
-4.659995e-004,1.043964e-003
-2.964792e-004,9.016701e-004
-3.105789e-004,6.955228e-004
-4.710235e-004,4.903480e-004
-6.640433e-004,3.412479e-004
-7.723029e-004,2.637806e-004
-7.322728e-004,2.339606e-004
-5.486528e-004,1.989545e-004
-2.723315e-004,9.750156e-005
3.948217e-005,-1.263107e-004
3.527545e-004,-5.050572e-004
6.569512e-004,-1.007298e-003
9.465622e-004,-1.516507e-003
1.221425e-003,-1.866082e-003
1.478948e-003,-1.908219e-003
1.704381e-003,-1.603536e-003
1.871471e-003,-1.054134e-003
1.945211e-003,-4.449310e-004
1.880547e-003,6.071273e-005
1.647010e-003,3.916502e-004
1.246384e-003,5.730013e-004
7.099467e-004,6.702406e-004
1.239182e-004,7.397667e-004
-3.617915e-004,8.076721e-004
-6.139652e-004,8.647192e-004
-5.776625e-004,8.825464e-004
-2.739521e-004,8.238787e-004
2.172679e-004,6.528996e-004
7.626179e-004,3.545372e-004
1.211864e-003,-4.446767e-005
1.452855e-003,-4.718339e-004
1.450262e-003,-8.249741e-004
1.265669e-003,-1.023990e-003
1.027919e-003,-1.038252e-003
8.692570e-004,-8.919071e-004
8.639088e-004,-6.441093e-004
9.964785e-004,-3.541745e-004
1.201329e-003,-6.602235e-005
1.395970e-003,1.983062e-004
1.504716e-003,4.271425e-004
1.511847e-003,6.138419e-004
1.469386e-003,7.512733e-004
1.442159e-003,8.384645e-004
1.438269e-003,8.844911e-004
1.364853e-003,9.070183e-004
1.083832e-003,9.229007e-004
4.981271e-004,9.412141e-004
-3.744326e-004,9.598516e-004
-1.387827e-003,9.668204e-004
-2.353737e-003,9.566103e-004
-3.117390e-003,9.360280e-004
-3.578630e-003,9.207938e-004
-3.708445e-003,9.271143e-004
-3.525472e-003,9.575827e-004
-3.076874e-003,9.940475e-004
-2.425046e-003,1.008633e-003
-1.634652e-003,1.001989e-003
-7.781372e-004,1.040074e-003
5.811968e-005,1.203922e-003
7.794728e-004,1.489482e-003
1.315099e-003,1.814262e-003
1.634531e-003,2.086208e-003
1.760456e-003,2.247950e-003
1.760942e-003,2.275015e-003
1.710864e-003,2.132073e-003
1.661758e-003,1.749273e-003
1.629021e-003,1.102793e-003
1.600335e-003,2.997591e-004
1.552688e-003,-4.642168e-004
1.469872e-003,-1.005677e-003
1.332278e-003,-1.228355e-003
1.116245e-003,-1.114423e-003
8.138306e-004,-7.329211e-004
4.533971e-004,-2.429977e-004
1.083599e-004,1.448246e-004
-1.459206e-004,2.655633e-004
-2.812451e-004,8.388807e-005
-3.191683e-004,-3.065273e-004
-3.096065e-004,-7.547998e-004
-2.971275e-004,-1.137598e-003
-3.011791e-004,-1.401440e-003
-3.282440e-004,-1.546165e-003
-3.904771e-004,-1.585223e-003
-5.082985e-004,-1.522503e-003
-6.971046e-004,-1.364328e-003
-9.656468e-004,-1.141326e-003
-1.295774e-003,-9.084377e-004
-1.627359e-003,-7.298418e-004
-1.866082e-003,-6.434610e-004
-1.932205e-003,-6.470265e-004
-1.801094e-003,-7.053699e-004
-1.504190e-003,-7.789475e-004
-1.106644e-003,-8.442599e-004
-6.894876e-004,-8.910968e-004
-3.233821e-004,-9.201065e-004
-4.673658e-005,-9.466851e-004
1.331559e-004,-9.855808e-004
2.354192e-004,-1.045383e-003
2.872801e-004,-1.128684e-003
3.141829e-004,-1.229327e-003
3.282826e-004,-1.333211e-003
3.333067e-004,-1.425264e-003
3.276344e-004,-1.493332e-003
3.169380e-004,-1.522017e-003
3.151553e-004,-1.491387e-003
3.391410e-004,-1.401116e-003
4.029947e-004,-1.276488e-003
5.010443e-004,-1.140677e-003
6.029835e-004,-9.949806e-004
6.725095e-004,-8.265948e-004
6.898505e-004,-6.279027e-004
6.584098e-004,-4.157593e-004
6.096281e-004,-2.640662e-004
5.807805e-004,-3.125237e-004
6.054144e-004,-6.421645e-004
6.981159e-004,-1.175683e-003
8.486747e-004,-1.712768e-003
1.030674e-003,-2.017775e-003
1.211215e-003,-1.924425e-003
1.355940e-003,-1.399982e-003
1.439404e-003,-5.591870e-004
1.460958e-003,3.884089e-004
1.449290e-003,1.208460e-003
1.435514e-003,1.724477e-003
1.436811e-003,1.841813e-003
1.444266e-003,1.604873e-003
1.418335e-003,1.202626e-003
1.306996e-003,8.797912e-004
1.054660e-003,8.186926e-004
6.200004e-004,1.069408e-003
3.591673e-005,1.562087e-003
-5.742591e-004,2.158814e-003
-1.086710e-003,2.714538e-003
-1.461891e-003,3.119056e-003
-1.735781e-003,3.319695e-003
-1.971262e-003,3.317426e-003
-2.197506e-003,3.143852e-003
-2.390040e-003,2.844030e-003
-2.490682e-003,2.442592e-003
-2.457135e-003,1.944239e-003
-2.296852e-003,1.369391e-003
-2.058940e-003,7.783383e-004
-1.818110e-003,2.490327e-004
-1.664148e-003,-1.596961e-004
-1.663014e-003,-4.339106e-004
-1.790397e-003,-5.924104e-004
-1.935122e-003,-6.689052e-004
-1.955056e-003,-6.932151e-004
-1.755715e-003,-6.774947e-004
-1.343259e-003,-6.244993e-004
-8.202742e-004,-5.413599e-004
-3.293785e-004,-4.468758e-004
1.501031e-005,-3.590364e-004
1.712413e-004,-2.864312e-004
1.722137e-004,-2.169052e-004
9.215340e-005,-1.209625e-004
8.365628e-006,3.283749e-005
-2.339918e-005,2.618358e-004
1.517237e-005,5.438296e-004
1.184080e-004,8.146409e-004
2.715597e-004,9.878889e-004
4.590694e-004,9.917786e-004
6.629477e-004,8.092928e-004
8.562917e-004,5.023408e-004
1.012685e-003,1.717275e-004
1.118352e-003,-1.049180e-004
1.178478e-003,-3.031239e-004
1.210729e-003,-4.316416e-004
1.229853e-003,-5.040849e-004
1.235687e-003,-5.287188e-004
1.209595e-003,-5.117019e-004
1.129210e-003,-4.732924e-004
1.000368e-003,-4.285624e-004
8.575883e-004,-3.632501e-004
7.360392e-004,-2.548284e-004
6.488480e-004,-9.260107e-005
5.929354e-004,1.127357e-004
5.674912e-004,3.352514e-004
5.733255e-004,5.401021e-004
6.118971e-004,6.883920e-004
6.624615e-004,7.496527e-004
6.799645e-004,7.136742e-004
6.182176e-004,5.801322e-004
4.529109e-004,3.508097e-004
1.974959e-004,2.035846e-005
-1.011905e-004,-4.107352e-004
-3.802670e-004,-9.288579e-004
-5.826865e-004,-1.508403e-003
-6.719845e-004,-2.118742e-003
-6.251476e-004,-2.699747e-003
-4.397449e-004,-3.150776e-003
-1.402483e-004,-3.358706e-003
2.093267e-004,-3.260819e-003
5.203301e-004,-2.892929e-003
7.026537e-004,-2.378371e-003
6.977918e-004,-1.860085e-003
5.290816e-004,-1.437743e-003
3.004074e-004,-1.145701e-003
1.406109e-004,-9.685640e-004
1.234320e-004,-8.622491e-004
2.415777e-004,-7.765166e-004
4.268184e-004,-6.700397e-004
6.042800e-004,-5.245051e-004
7.256670e-004,-3.569296e-004
7.817416e-004,-2.126914e-004
7.880622e-004,-1.293899e-004
7.574318e-004,-1.008664e-004
6.832058e-004,-8.822530e-005
5.446399e-004,-4.738484e-005
3.146691e-004,4.790957e-005
-2.907146e-005,2.072198e-004
-4.823681e-004,4.170944e-004
-1.000815e-003,6.477135e-004
-1.512131e-003,8.637467e-004
-1.932205e-003,1.043153e-003
-2.187620e-003,1.182043e-003
-2.230891e-003,1.282686e-003
-2.054402e-003,1.354481e-003
-1.699803e-003,1.419470e-003
-1.260606e-003,1.505851e-003
-8.773212e-004,1.614273e-003
-6.744154e-004,1.706650e-003
-6.797637e-004,1.741494e-003
-7.932093e-004,1.699357e-003
-8.466908e-004,1.582994e-003
-6.969426e-004,1.409746e-003
-2.987481e-004,1.208622e-003
2.854973e-004,1.022085e-003
9.154457e-004,8.806016e-004
1.434542e-003,7.841726e-004
1.715564e-003,7.104329e-004
1.688985e-003,6.375034e-004
1.385922e-003,5.525811e-004
9.365142e-004,4.530729e-004
5.130371e-004,3.363859e-004
2.550291e-004,2.083542e-004
2.169437e-004,8.826383e-005
3.558337e-004,-9.785688e-006
5.780254e-004,-9.486997e-005
8.130203e-004,-1.835197e-004
1.021923e-003,-2.635799e-004
1.157410e-003,-3.003688e-004
1.144606e-003,-2.674695e-004
8.977805e-004,-1.679614e-004
3.919743e-004,-3.134038e-005
-2.660110e-004,1.281319e-004
-8.692179e-004,3.357376e-004
-1.232893e-003,6.191900e-004
-1.287833e-003,9.786512e-004
-1.093516e-003,1.383491e-003
-7.778131e-004,1.782497e-003
-4.535205e-004,2.111166e-003
-1.789819e-004,2.302729e-003
3.186510e-005,2.307590e-003
1.786963e-004,2.108898e-003
2.679943e-004,1.741818e-003
3.012177e-004,1.293869e-003
2.717218e-004,8.757396e-004
1.798307e-004,5.757565e-004
5.536457e-005,4.143393e-004
-6.942573e-005,3.292550e-004
-1.814128e-004,2.148369e-004
-2.715212e-004,-2.599222e-005
-3.332680e-004,-4.538446e-004
-3.708672e-004,-1.082010e-003
-3.861013e-004,-1.855385e-003
-3.760533e-004,-2.643186e-003
-3.491504e-004,-3.260981e-003
-3.467195e-004,-3.541517e-003
-4.074939e-004,-3.420454e-003
-4.997091e-004,-2.983848e-003
-5.327704e-004,-2.417591e-003
-4.194868e-004,-1.894605e-003
-1.399241e-004,-1.499814e-003
2.263435e-004,-1.220738e-003
5.556603e-004,-9.935220e-004
7.593766e-004,-7.586894e-004
8.015137e-004,-4.966299e-004
6.932539e-004,-2.282497e-004
4.811103e-004,4.962256e-006
2.355812e-004,1.718896e-004
3.121684e-005,2.568118e-004
-7.655660e-005,2.683184e-004
-7.444975e-005,2.286124e-004
8.689758e-006,1.642725e-004
1.321835e-004,9.588091e-005
2.668598e-004,3.494434e-005
3.987811e-004,-1.432352e-005
5.177371e-004,-5.159854e-005
6.120591e-004,-7.461182e-005
6.608408e-004,-8.806324e-005
6.394482e-004,-1.128592e-004
5.475571e-004,-1.755785e-004
4.086671e-004,-2.958309e-004
2.513016e-004,-4.531963e-004
1.038221e-004,-5.458977e-004
-1.270286e-005,-4.384484e-004
-8.384954e-005,-5.467778e-005
-9.260107e-005,5.961767e-004
-3.587821e-005,1.417363e-003
6.687121e-005,2.259943e-003
1.770756e-004,2.924901e-003
2.571359e-004,3.163300e-003
2.871180e-004,2.803675e-003
2.731804e-004,1.915391e-003
2.414156e-004,7.924379e-004
2.146748e-004,-1.956746e-004
1.994406e-004,-7.640376e-004
1.916615e-004,-8.108745e-004
1.832341e-004,-3.893426e-004
1.785342e-004,3.094830e-004
1.914995e-004,9.914545e-004
2.350950e-004,1.338113e-003
3.161277e-004,1.111707e-003
4.222805e-004,2.564877e-004
5.221128e-004,-1.037442e-003
5.827253e-004,-2.368647e-003
5.950422e-004,-3.362758e-003
5.778633e-004,-3.775216e-003
5.465847e-004,-3.548324e-003
4.955341e-004,-2.799579e-003
4.219564e-004,-1.768032e-003
3.333067e-004,-7.374589e-004
2.386605e-004,5.228533e-005
1.451488e-004,4.903480e-004
4.969229e-005,6.326414e-004
-5.224680e-005,6.316690e-004
-1.457585e-004,6.420412e-004
-1.942160e-004,7.532181e-004
-1.616409e-004,9.750858e-004
-3.279896e-005,1.256594e-003
1.647587e-004,1.504716e-003
3.705817e-004,1.614435e-003
5.285954e-004,1.513144e-003
6.063868e-004,1.198088e-003
6.013628e-004,7.553250e-004
5.248679e-004,3.096451e-004
3.770643e-004,-3.182657e-005
1.564933e-004,-2.105846e-004
-1.013526e-004,-2.217671e-004
-3.280820e-004,-1.154523e-004
-4.716718e-004,7.231170e-006
-5.206155e-004,2.943412e-005
-4.993849e-004,-1.237176e-004
-4.614617e-004,-4.165696e-004
-4.765338e-004,-7.347037e-004
-6.011620e-004,-9.640261e-004
-8.531735e-004,-1.054783e-003
-1.212148e-003,-1.026421e-003
-1.618932e-003,-9.329096e-004
-2.005134e-003,-8.186536e-004
-2.328292e-003,-6.990494e-004
-2.569446e-003,-5.574043e-004
-2.715467e-003,-3.663294e-004
-2.745773e-003,-1.031353e-004
-2.623576e-003,2.422259e-004
-2.315003e-003,6.507927e-004
-1.828483e-003,1.073460e-003
-1.223817e-003,1.459176e-003
-5.977586e-004,1.777959e-003
-5.338126e-005,2.024623e-003
3.310377e-004,2.200627e-003
5.316747e-004,2.301270e-003
5.811046e-004,2.306132e-003
5.336195e-004,2.184582e-003
4.308700e-004,1.929166e-003
2.992729e-004,1.573594e-003
1.673517e-004,1.183826e-003
7.529860e-005,8.357094e-004
5.957827e-005,5.903424e-004
1.321835e-004,4.713863e-004
2.605393e-004,4.551798e-004
3.824125e-004,4.825689e-004
4.410801e-004,4.874308e-004
4.089912e-004,4.167703e-004
2.963557e-004,2.532463e-004
1.423936e-004,2.084466e-005
6.907040e-006,-2.321393e-004
-4.219875e-005,-4.403932e-004
3.526847e-005,-5.527044e-004
2.102990e-004,-5.574043e-004
3.973225e-004,-4.841508e-004
5.097958e-004,-3.857772e-004
5.068787e-004,-3.083100e-004
4.044533e-004,-2.788141e-004
2.772320e-004,-2.890242e-004
2.140265e-004,-3.076617e-004
2.741528e-004,-3.018274e-004
4.585832e-004,-2.574215e-004
6.906608e-004,-1.982676e-004
8.426782e-004,-1.679614e-004
8.083204e-004,-2.110708e-004
5.824011e-004,-3.587123e-004
2.783665e-004,-6.298475e-004
5.277153e-005,-1.021883e-003
-3.465141e-006,-1.475828e-003
1.052807e-004,-1.878237e-003
3.146691e-004,-2.115824e-003
5.507984e-004,-2.146293e-003
7.721797e-004,-2.028633e-003
9.686031e-004,-1.868675e-003
1.153682e-003,-1.748909e-003
1.344595e-003,-1.681165e-003
1.532267e-003,-1.628008e-003
1.680719e-003,-1.542113e-003
1.752515e-003,-1.404844e-003
1.718319e-003,-1.225600e-003
1.546529e-003,-1.023990e-003
1.240549e-003,-8.212466e-004
8.867600e-004,-6.395715e-004
6.146522e-004,-4.969540e-004
5.131993e-004,-4.029561e-004
5.725152e-004,-3.501228e-004
6.900126e-004,-3.243544e-004
7.313393e-004,-3.188442e-004
6.067110e-004,-3.493125e-004
2.952213e-004,-4.361795e-004
-1.545100e-004,-5.666421e-004
-6.356818e-004,-6.928909e-004
-1.025125e-003,-7.663065e-004
-1.222520e-003,-7.810544e-004
-1.197400e-003,-7.705202e-004
-9.948185e-004,-7.684134e-004
-7.009942e-004,-7.692237e-004
-4.123559e-004,-7.374589e-004
-2.229016e-004,-6.364922e-004
-1.885437e-004,-4.444448e-004
-2.768693e-004,-1.595340e-004
-3.929081e-004,2.075439e-004
-4.413656e-004,6.300483e-004
-3.839945e-004,1.075566e-003
-2.491561e-004,1.532754e-003
-1.084835e-004,2.015709e-003
-4.333321e-005,2.530918e-003
-1.062146e-004,3.042723e-003
-2.929138e-004,3.483706e-003
-5.413599e-004,3.789526e-003
-7.679272e-004,3.932632e-003
-9.029275e-004,3.928418e-003
-9.155686e-004,3.827936e-003
-8.209225e-004,3.688721e-003
-6.528608e-004,3.535892e-003
-4.475241e-004,3.351622e-003
-2.288980e-004,3.087129e-003
-9.137427e-006,2.700601e-003
2.018716e-004,2.190741e-003
3.888950e-004,1.615083e-003
5.269747e-004,1.061467e-003
5.890459e-004,6.120591e-004
5.606844e-004,3.059176e-004
4.535592e-004,1.255389e-004
3.067279e-004,8.527692e-006
1.704310e-004,-1.261486e-004
7.999851e-005,-3.509331e-004
5.131294e-005,-6.883531e-004
7.691926e-005,-1.097082e-003
1.352628e-004,-1.490901e-003
2.046267e-004,-1.781970e-003
2.623220e-004,-1.918753e-003
2.918179e-004,-1.907409e-003
2.858215e-004,-1.820055e-003
2.474120e-004,-1.761712e-003
1.863134e-004,-1.780025e-003
1.085220e-004,-1.848093e-003
2.619281e-005,-1.892661e-003
-4.187462e-005,-1.849551e-003
-8.093236e-005,-1.688296e-003
-8.628052e-005,-1.422833e-003
-6.099833e-005,-1.092220e-003
-1.108221e-005,-7.407002e-004
4.564065e-005,-4.049009e-004
8.956036e-005,-1.173971e-004
1.039842e-004,1.009049e-004
7.805372e-005,2.372019e-004
1.760335e-005,2.966799e-004
-6.035007e-005,3.196932e-004
-1.345760e-004,3.559958e-004
-1.793060e-004,4.204978e-004
-1.767130e-004,5.119027e-004
-1.225832e-004,6.417171e-004
-2.599222e-005,8.180443e-004
9.669123e-005,1.015926e-003
2.313675e-004,1.188688e-003
3.705817e-004,1.271666e-003
5.117406e-004,1.176371e-003
6.558168e-004,8.230684e-004
7.982723e-004,2.513016e-004
9.214421e-004,-3.752429e-004
1.006851e-003,-8.776453e-004
1.032943e-003,-1.156236e-003
9.814063e-004,-1.207448e-003
8.452713e-004,-1.078282e-003
6.225934e-004,-8.484736e-004
3.297412e-004,-6.243373e-004
7.231170e-006,-5.125122e-004
-2.830278e-004,-5.943552e-004
-4.951713e-004,-8.757006e-004
-6.538332e-004,-1.274705e-003
-8.244879e-004,-1.695589e-003
-1.029825e-003,-2.118580e-003
-1.223007e-003,-2.564746e-003
-1.336614e-003,-3.000541e-003
-1.334021e-003,-3.292745e-003
-1.233055e-003,-3.261629e-003
-1.094975e-003,-2.801848e-003
-9.936841e-004,-1.974828e-003
-9.967634e-004,-9.876877e-004
-1.136950e-003,-9.373552e-005
-1.393985e-003,5.264886e-004
-1.700937e-003,8.344129e-004
-1.978879e-003,9.120423e-004
-2.164282e-003,8.912979e-004
-2.214685e-003,8.953495e-004
-2.099456e-003,9.932371e-004
-1.803200e-003,1.184961e-003
-1.345204e-003,1.435514e-003
-7.854302e-004,1.709729e-003
-2.149604e-004,1.961580e-003
2.707494e-004,2.130776e-003
6.076833e-004,2.141635e-003
7.843347e-004,1.897402e-003
8.271200e-004,1.295165e-003
7.807693e-004,3.075383e-004
6.917953e-004,-8.974173e-004
6.007145e-004,-2.017127e-003
5.368608e-004,-2.796824e-003
5.174129e-004,-3.085301e-003
5.376711e-004,-2.861164e-003
5.804563e-004,-2.215333e-003
6.234037e-004,-1.307442e-003
6.506307e-004,-3.104168e-004
6.637580e-004,6.008766e-004
6.823955e-004,1.290303e-003
7.284221e-004,1.699357e-003
8.203132e-004,1.836303e-003
9.666584e-004,1.768073e-003
1.132775e-003,1.588018e-003
1.222236e-003,1.382194e-003
1.113814e-003,1.202464e-003
7.233981e-004,1.067301e-003
8.502253e-005,9.864303e-004
-6.061860e-004,9.671446e-004
-1.109723e-003,1.000854e-003
-1.281998e-003,1.060170e-003
-1.137274e-003,1.107169e-003
-8.115227e-004,1.108952e-003
-4.672960e-004,1.047853e-003
-1.976194e-004,9.267902e-004
-2.238346e-007,7.603490e-004
1.872858e-004,5.631154e-004
4.211461e-004,3.478926e-004
7.076777e-004,1.349386e-004
1.009444e-003,-4.738484e-005
1.269235e-003,-1.700683e-004
1.431625e-003,-2.115570e-004
1.471979e-003,-1.652063e-004
1.398077e-003,-2.939559e-005
1.242980e-003,1.808031e-004
1.048339e-003,4.292493e-004
8.477023e-004,6.691061e-004
6.661890e-004,8.546711e-004
5.174129e-004,9.569344e-004
3.953777e-004,9.825408e-004
2.829043e-004,9.595275e-004
1.605450e-004,9.115561e-004
1.193106e-005,8.464058e-004
-1.742820e-004,7.590525e-004
-3.826980e-004,6.447964e-004
-5.449253e-004,5.080132e-004
-5.844692e-004,3.730126e-004
-4.690787e-004,2.884145e-004
-2.279256e-004,2.812837e-004
7.902610e-005,3.449753e-004
3.812780e-004,4.490213e-004
6.131936e-004,5.582534e-004
7.326358e-004,6.417171e-004
7.297186e-004,6.804507e-004
6.167590e-004,6.705648e-004
4.336251e-004,6.159487e-004
2.396328e-004,5.203301e-004
6.978839e-005,3.995914e-004
-7.898758e-005,2.827423e-004
-2.198223e-004,1.991165e-004
-3.379679e-004,1.446626e-004
-3.959873e-004,7.157111e-005
-3.734602e-004,-8.271508e-005
-2.776796e-004,-3.519055e-004
-1.426792e-004,-7.251419e-004
-7.516774e-006,-1.168877e-003
1.000946e-004,-1.641783e-003
1.743205e-004,-2.072715e-003
2.279642e-004,-2.361678e-003
2.762596e-004,-2.389553e-003
3.294171e-004,-2.088112e-003
3.809539e-004,-1.534820e-003
4.167703e-004,-9.029275e-004
4.404318e-004,-3.452609e-004
4.689553e-004,6.703327e-005
5.036374e-004,3.281205e-004
5.224369e-004,4.457800e-004
5.012064e-004,4.310321e-004
4.206599e-004,2.893870e-004
2.618358e-004,5.212327e-005
2.084466e-005,-2.245222e-004
-2.564491e-004,-4.941989e-004
-4.810716e-004,-7.172007e-004
-5.598353e-004,-8.518770e-004
-4.431483e-004,-8.735937e-004
-1.656925e-004,-8.048780e-004
1.782101e-004,-7.303280e-004
4.841895e-004,-7.207661e-004
6.827196e-004,-7.599859e-004
7.566215e-004,-7.695478e-004
7.397667e-004,-6.940254e-004
