9.266282e-004,5.665187e-004
1.138286e-003,9.613102e-004
1.329037e-003,1.515088e-003
1.423845e-003,2.129804e-003
1.345568e-003,2.704004e-003
1.052391e-003,3.145797e-003
5.995801e-004,3.391490e-003
1.349386e-004,3.421311e-003
-2.170672e-004,3.255354e-003
-4.368278e-004,2.937380e-003
-5.749074e-004,2.513901e-003
-6.551297e-004,2.034185e-003
-6.424887e-004,1.551715e-003
-4.912817e-004,1.110572e-003
-1.916230e-004,7.374978e-004
2.138645e-004,4.389733e-004
6.426895e-004,2.070577e-004
1.009606e-003,2.376183e-005
1.259025e-003,-1.237176e-004
1.368905e-003,-2.462390e-004
1.338113e-003,-3.553089e-004
1.183016e-003,-4.600031e-004
9.447795e-004,-5.625904e-004
6.963331e-004,-6.617744e-004
5.127130e-004,-7.569068e-004
4.461041e-004,-8.465288e-004
5.093097e-004,-9.342061e-004
6.595443e-004,-1.022046e-003
8.032963e-004,-1.103726e-003
8.397611e-004,-1.158180e-003
7.002227e-004,-1.153318e-003
3.371962e-004,-1.073420e-003
-2.476975e-004,-9.471713e-004
-9.583539e-004,-8.343739e-004
-1.636759e-003,-7.878611e-004
-2.133166e-003,-8.215707e-004
-2.364757e-003,-9.160548e-004
-2.336720e-003,-1.041007e-003
-2.124738e-003,-1.170659e-003
-1.821676e-003,-1.285078e-003
-1.495438e-003,-1.354766e-003
-1.171146e-003,-1.335804e-003
-8.512287e-004,-1.212796e-003
-5.350393e-004,-1.011349e-003
-2.345703e-004,-7.676030e-004
3.008238e-005,-5.211017e-004
2.342847e-004,-3.074997e-004
3.628026e-004,-1.583996e-004
4.190393e-004,-8.984595e-005
4.196875e-004,-1.047560e-004
3.935950e-004,-1.864369e-004
3.731747e-004,-2.909690e-004
3.835469e-004,-3.664914e-004
4.263322e-004,-3.885323e-004
4.921307e-004,-3.739464e-004
5.700842e-004,-3.658432e-004
6.462549e-004,-4.013355e-004
7.083260e-004,-5.039228e-004
7.541905e-004,-6.933771e-004
7.903311e-004,-9.633779e-004
8.151271e-004,-1.248613e-003
8.251752e-004,-1.447953e-003
8.206373e-004,-1.478584e-003
7.987585e-004,-1.329970e-003
7.464114e-004,-1.075527e-003
6.541961e-004,-8.392359e-004
5.285954e-004,-6.935392e-004
3.890571e-004,-5.851175e-004
2.683184e-004,-3.993907e-004
1.999268e-004,-8.190475e-005
1.940925e-004,3.370341e-004
2.182402e-004,7.695867e-004
2.080301e-004,1.099714e-003
8.907416e-005,1.211701e-003
-1.848162e-004,1.033753e-003
-6.157478e-004,5.746220e-004
-1.177628e-003,-5.824322e-005
-1.786994e-003,-6.888393e-004
-2.297014e-003,-1.170335e-003
-2.572201e-003,-1.455246e-003
-2.566691e-003,-1.562695e-003
-2.350495e-003,-1.534982e-003
-2.045326e-003,-1.441146e-003
-1.735781e-003,-1.377617e-003
-1.435150e-003,-1.418619e-003
-1.118312e-003,-1.540006e-003
-7.522068e-004,-1.638056e-003
-3.300267e-004,-1.597215e-003
1.018773e-004,-1.352010e-003
4.775448e-004,-9.215650e-004
7.517595e-004,-3.755671e-004
9.123664e-004,2.067336e-004
9.707100e-004,7.606731e-004
9.546655e-004,1.249463e-003
9.120423e-004,1.642472e-003
8.917841e-004,1.933056e-003
9.173905e-004,2.168214e-003
9.836752e-004,2.410340e-003
1.069894e-003,2.694604e-003
1.153034e-003,3.019385e-003
1.204733e-003,3.355511e-003
1.191281e-003,3.650635e-003
1.079294e-003,3.816430e-003
8.543470e-004,3.720324e-003
5.436675e-004,3.290523e-003
2.034923e-004,2.612599e-003
-1.141558e-004,1.889622e-003
-3.591985e-004,1.321906e-003
-4.963057e-004,1.016250e-003
-5.029504e-004,9.627688e-004
-3.908012e-004,1.072163e-003
-2.016710e-004,1.217536e-003
2.693341e-006,1.249625e-003
1.680000e-004,1.007985e-003
2.642668e-004,3.754436e-004
2.918179e-004,-6.452437e-004
2.626462e-004,-1.886016e-003
1.817755e-004,-3.091460e-003
6.557468e-005,-4.002757e-003
-5.321920e-005,-4.452815e-003
-1.404103e-004,-4.415702e-003
-1.820611e-004,-3.990764e-003
-1.861127e-004,-3.340069e-003
-1.818991e-004,-2.612394e-003
-1.906506e-004,-1.910650e-003
-2.207947e-004,-1.298367e-003
-2.708729e-004,-8.069849e-004
-3.332680e-004,-4.454172e-004
-3.992286e-004,-1.985918e-004
-4.663236e-004,-3.215070e-005
-5.364979e-004,9.280167e-005
-6.097514e-004,2.005751e-004
-6.881910e-004,2.892249e-004
-7.737615e-004,3.394651e-004
-8.628974e-004,3.362238e-004
-9.449024e-004,2.895490e-004
-1.008108e-003,2.329882e-004
-1.042304e-003,2.023578e-004
-1.032580e-003,2.091646e-004
-9.658089e-004,2.354192e-004
-8.395600e-004,2.480603e-004
-6.669604e-004,2.171058e-004
-4.661616e-004,1.346145e-004
-2.475355e-004,1.274139e-005
-8.813297e-006,-1.139937e-004
2.568118e-004,-2.180396e-004
5.444778e-004,-2.812451e-004
8.483506e-004,-2.985861e-004
1.162758e-003,-2.794623e-004
1.481054e-003,-2.382978e-004
1.764345e-003,-1.817370e-004
1.931111e-003,-1.185315e-004
1.894808e-003,-5.257093e-005
1.631938e-003,1.873781e-005
1.236984e-003,1.073875e-004
8.802774e-004,2.268297e-004
6.773715e-004,3.845193e-004
6.287518e-004,5.733255e-004
6.498204e-004,7.874139e-004
6.441481e-004,1.020626e-003
5.444778e-004,1.254811e-003
3.311998e-004,1.459176e-003
2.003433e-005,1.594825e-003
-3.441264e-004,1.593366e-003
-6.907841e-004,1.380412e-003
-9.460369e-004,9.825408e-004
-1.047004e-003,5.310264e-004
-9.513851e-004,1.749688e-004
-6.598296e-004,1.112074e-005
-2.193361e-004,6.832980e-005
2.880904e-004,3.128864e-004
7.776900e-004,6.710509e-004
1.186743e-003,1.055146e-003
1.478461e-003,1.371174e-003
1.642796e-003,1.527243e-003
1.684933e-003,1.468576e-003
1.615893e-003,1.193388e-003
1.461769e-003,7.605111e-004
1.268911e-003,2.741528e-004
1.083832e-003,-1.421931e-004
9.276005e-004,-3.572537e-004
8.032963e-004,-3.008550e-004
7.099467e-004,-1.464765e-005
6.334517e-004,3.777126e-004
5.478812e-004,7.468975e-004
4.342734e-004,1.017709e-003
2.846870e-004,1.182530e-003
7.594687e-005,1.274421e-003
-2.382978e-004,1.316882e-003
-6.877048e-004,1.317044e-003
-1.237106e-003,1.277338e-003
-1.788939e-003,1.198250e-003
-2.224409e-003,1.068922e-003
-2.475124e-003,8.793051e-004
-2.570095e-003,6.344241e-004
-2.598618e-003,3.538890e-004
-2.630383e-003,6.022653e-005
-2.663930e-003,-2.382978e-004
-2.649182e-003,-5.549733e-004
-2.517585e-003,-8.799143e-004
-2.214036e-003,-1.158505e-003
-1.732864e-003,-1.316842e-003
-1.140677e-003,-1.305660e-003
-5.458977e-004,-1.144243e-003
-4.835724e-005,-9.160548e-004
2.957075e-004,-7.120146e-004
4.783552e-004,-5.818762e-004
5.251921e-004,-5.245051e-004
4.841895e-004,-5.170500e-004
4.098015e-004,-5.337428e-004
3.525924e-004,-5.622663e-004
3.396272e-004,-6.097514e-004
3.744712e-004,-7.000218e-004
4.286011e-004,-8.641939e-004
4.556660e-004,-1.102916e-003
4.284390e-004,-1.368541e-003
3.546993e-004,-1.582954e-003
2.678322e-004,-1.640649e-003
1.957132e-004,-1.452167e-003
1.560072e-004,-9.951427e-004
1.658931e-004,-3.465574e-004
2.391467e-004,2.911697e-004
3.798194e-004,6.595443e-004
5.725152e-004,6.125454e-004
7.713694e-004,2.064095e-004
9.152836e-004,-3.387782e-004
9.864303e-004,-7.771649e-004
1.036671e-003,-9.478196e-004
1.134558e-003,-8.183295e-004
1.303107e-003,-4.634065e-004
1.505040e-003,2.505836e-005
1.665971e-003,5.399400e-004
1.714267e-003,9.428347e-004
1.623186e-003,1.089180e-003
1.415094e-003,8.989150e-004
1.131155e-003,4.234150e-004
8.139926e-004,-1.546721e-004
5.036374e-004,-6.084549e-004
2.349330e-004,-7.878611e-004
1.857574e-005,-6.761982e-004
-1.634236e-004,-3.650328e-004
-3.300267e-004,1.517237e-005
-4.875542e-004,3.597233e-004
-6.275786e-004,6.046041e-004
-7.353520e-004,7.233981e-004
-7.998540e-004,7.091364e-004
-8.064987e-004,5.629533e-004
-7.441035e-004,3.145071e-004
-6.319543e-004,3.575467e-005
-5.429805e-004,-1.924333e-004
-5.585388e-004,-3.207890e-004
-7.159042e-004,-3.319715e-004
-9.727777e-004,-2.387840e-004
-1.211986e-003,-7.380149e-005
-1.302581e-003,1.201907e-004
-1.163366e-003,2.944109e-004
-7.988816e-004,3.945674e-004
-2.880518e-004,3.572923e-004
2.555152e-004,1.451488e-004
7.263153e-004,-2.109087e-004
1.062763e-003,-5.998655e-004
1.252380e-003,-8.679214e-004
1.322392e-003,-8.706765e-004
1.311534e-003,-5.664800e-004
1.242818e-003,-5.646050e-005
1.118676e-003,4.736553e-004
9.438071e-004,8.410576e-004
7.413874e-004,9.091251e-004
5.511225e-004,6.170832e-004
4.054258e-004,2.311357e-005
3.117519e-004,-6.818705e-004
2.480603e-004,-1.266764e-003
1.978200e-004,-1.573230e-003
1.705930e-004,-1.554430e-003
1.707551e-004,-1.277623e-003
1.466074e-004,-8.885037e-004
5.864920e-007,-5.517320e-004
-3.371576e-004,-3.888564e-004
-8.191398e-004,-4.471999e-004
-1.275678e-003,-7.274108e-004
-1.535468e-003,-1.187514e-003
-1.532713e-003,-1.724275e-003
-1.334832e-003,-2.170441e-003
-1.074231e-003,-2.342068e-003
-8.598181e-004,-2.135597e-003
-7.439415e-004,-1.598998e-003
-7.142835e-004,-9.090860e-004
-7.220627e-004,-2.791382e-004
-7.144455e-004,1.480659e-004
-6.554538e-004,3.485408e-004
-5.256396e-004,3.992672e-004
-3.225718e-004,4.026706e-004
-6.731888e-005,4.290873e-004
1.965235e-004,4.994237e-004
4.187151e-004,5.986077e-004
5.584154e-004,6.911471e-004
5.992560e-004,7.428459e-004
5.553362e-004,7.355530e-004
4.697657e-004,6.725095e-004
3.937570e-004,5.874252e-004
3.747954e-004,5.404262e-004
4.388112e-004,5.956905e-004
5.746220e-004,7.832003e-004
7.227498e-004,1.083183e-003
7.682902e-004,1.440862e-003
6.013628e-004,1.781848e-003
1.971717e-004,2.038237e-003
-3.425058e-004,2.172589e-003
-8.397221e-004,2.181503e-003
-1.119285e-003,2.088639e-003
-1.067910e-003,1.931759e-003
-6.831670e-004,1.746356e-003
-9.146661e-005,1.549770e-003
5.148199e-004,1.345892e-003
9.778409e-004,1.143472e-003
1.234553e-003,9.595275e-004
1.302944e-003,8.041067e-004
1.243142e-003,6.660269e-004
1.117865e-003,5.277851e-004
9.731410e-004,3.759298e-004
8.225822e-004,2.083542e-004
6.342620e-004,2.862379e-005
3.717161e-004,-1.571031e-004
3.526847e-005,-3.350507e-004
-3.327818e-004,-4.828543e-004
-6.625847e-004,-5.817142e-004
-8.841280e-004,-6.444334e-004
-9.400405e-004,-7.432932e-004
-8.013126e-004,-9.474955e-004
-4.864197e-004,-1.232082e-003
-6.618442e-005,-1.475828e-003
3.720403e-004,-1.550703e-003
7.632662e-004,-1.410678e-003
1.072163e-003,-1.117826e-003
1.290303e-003,-7.771649e-004
1.422225e-003,-4.540067e-004
1.463713e-003,-1.592099e-004
1.400832e-003,1.218114e-004
1.236173e-003,4.109360e-004
9.932371e-004,7.520836e-004
7.003848e-004,1.167296e-003
3.679886e-004,1.624483e-003
6.420843e-006,2.071946e-003
-3.679500e-004,2.464795e-003
-7.338934e-004,2.770614e-003
-1.057538e-003,2.935921e-003
-1.314897e-003,2.876605e-003
-1.507107e-003,2.549879e-003
-1.644701e-003,2.021058e-003
-1.718440e-003,1.444428e-003
-1.724599e-003,9.995577e-004
-1.692024e-003,8.170719e-004
-1.674521e-003,9.198214e-004
-1.687000e-003,1.222722e-003
-1.693320e-003,1.588504e-003
-1.634328e-003,1.880385e-003
-1.468860e-003,1.983620e-003
-1.212310e-003,1.823500e-003
-9.246443e-004,1.390946e-003
-6.655019e-004,7.619697e-004
-4.540067e-004,7.043665e-005
-2.648765e-004,-5.439529e-004
-5.483985e-005,-9.928738e-004
2.112714e-004,-1.266440e-003
5.525811e-004,-1.411813e-003
9.556379e-004,-1.512779e-003
1.366798e-003,-1.645997e-003
1.690768e-003,-1.842258e-003
1.828848e-003,-2.083411e-003
1.762239e-003,-2.315975e-003
1.556901e-003,-2.490196e-003
1.318016e-003,-2.577063e-003
1.133262e-003,-2.577711e-003
1.031647e-003,-2.516126e-003
9.841614e-004,-2.418077e-003
9.402417e-004,-2.303821e-003
8.752534e-004,-2.187458e-003
7.844968e-004,-2.075470e-003
6.561409e-004,-1.965104e-003
4.655520e-004,-1.851982e-003
2.033302e-004,-1.735457e-003
-1.186936e-004,-1.615529e-003
-4.818819e-004,-1.500300e-003
-8.768350e-004,-1.407923e-003
-1.282809e-003,-1.359790e-003
-1.641945e-003,-1.364003e-003
-1.882288e-003,-1.391879e-003
-1.953435e-003,-1.381344e-003
-1.832858e-003,-1.276326e-003
-1.522179e-003,-1.054459e-003
-1.061914e-003,-7.368106e-004
-5.288809e-004,-3.703810e-004
-1.108221e-005,-8.002969e-006
4.294114e-004,3.114278e-004
7.749349e-004,6.031455e-004
1.045422e-003,9.399176e-004
1.278959e-003,1.356426e-003
1.510064e-003,1.809724e-003
1.747167e-003,2.215861e-003
1.978758e-003,2.499315e-003
2.174210e-003,2.600282e-003
2.274691e-003,2.482946e-003
2.193658e-003,2.159786e-003
1.867095e-003,1.701302e-003
1.301810e-003,1.219481e-003
5.835356e-004,8.018378e-004
-1.264727e-004,4.632831e-004
-6.789533e-004,1.667035e-004
-1.022856e-003,-1.230693e-004
-1.193349e-003,-4.248349e-004
-1.269843e-003,-7.539895e-004
-1.326242e-003,-1.117664e-003
-1.394148e-003,-1.494952e-003
-1.447467e-003,-1.825565e-003
-1.430126e-003,-2.022475e-003
-1.289453e-003,-2.010320e-003
-1.012646e-003,-1.767870e-003
-6.395715e-004,-1.350228e-003
-2.358668e-004,-8.528493e-004
1.362352e-004,-3.499608e-004
4.305459e-004,1.148425e-004
6.315070e-004,4.994237e-004
7.506250e-004,7.430080e-004
8.015137e-004,7.994067e-004
7.887104e-004,6.810990e-004
7.075156e-004,4.626348e-004
5.507984e-004,2.508154e-004
3.363859e-004,1.378558e-004
1.120874e-004,1.600588e-004
-8.012204e-005,2.822560e-004
-2.271153e-004,4.161220e-004
-3.339163e-004,4.655520e-004
-4.055492e-004,3.581026e-004
-4.395829e-004,6.622294e-005
-4.313175e-004,-3.689224e-004
-3.859393e-004,-8.189777e-004
-3.185201e-004,-1.111343e-003
-2.496423e-004,-1.124147e-003
-1.984297e-004,-8.413427e-004
-1.681235e-004,-3.434782e-004
-1.524032e-004,2.342847e-004
-1.337657e-004,7.765555e-004
-8.287715e-005,1.242332e-003
1.565857e-005,1.633234e-003
1.302388e-004,1.967576e-003
2.067336e-004,2.254919e-003
2.049509e-004,2.478732e-003
1.086841e-004,2.596068e-003
-7.736692e-005,2.569003e-003
-3.070135e-004,2.393972e-003
-4.906334e-004,2.104846e-003
-5.444391e-004,1.772773e-003
-4.378002e-004,1.485592e-003
-2.073433e-004,1.295327e-003
7.935024e-005,1.186905e-003
3.619922e-004,1.089342e-003
5.995801e-004,9.191732e-004
7.817416e-004,6.122212e-004
9.122044e-004,1.357490e-004
1.007499e-003,-5.070020e-004
1.082373e-003,-1.260282e-003
1.140231e-003,-1.998651e-003
1.148982e-003,-2.553564e-003
1.027433e-003,-2.780132e-003
6.867713e-004,-2.640269e-003
1.022015e-004,-2.236401e-003
-6.476747e-004,-1.764143e-003
-1.390744e-003,-1.404520e-003
-1.935932e-003,-1.238241e-003
-2.125062e-003,-1.221872e-003
-1.902709e-003,-1.242130e-003
-1.349580e-003,-1.194159e-003
-6.460540e-004,-1.013942e-003
2.369211e-006,-6.844635e-004
4.331389e-004,-2.451045e-004
5.906665e-004,2.177540e-004
5.023408e-004,6.387999e-004
2.284504e-004,9.898337e-004
-1.575893e-004,1.210243e-003
-5.634008e-004,1.135693e-003
-8.992000e-004,6.480376e-004
-1.121554e-003,-1.444620e-004
-1.238889e-003,-9.367992e-004
-1.287184e-003,-1.413919e-003
-1.301770e-003,-1.380372e-003
-1.312467e-003,-7.982334e-004
-1.334021e-003,2.013854e-004
-1.345042e-003,1.374415e-003
-1.287346e-003,2.480839e-003
-1.111506e-003,3.338980e-003
-8.006644e-004,3.843819e-003
-3.773498e-004,3.956132e-003
9.896015e-005,3.698283e-003
5.488536e-004,3.188907e-003
8.938910e-004,2.603523e-003
1.091935e-003,2.096742e-003
1.146875e-003,1.743601e-003
1.109600e-003,1.526109e-003
1.055632e-003,1.354481e-003
1.051743e-003,1.127752e-003
1.137151e-003,7.870898e-004
1.306186e-003,3.459477e-004
1.517843e-003,-1.336036e-004
1.725774e-003,-5.830107e-004
1.881519e-003,-9.709949e-004
1.907612e-003,-1.306956e-003
1.741170e-003,-1.605156e-003
1.403587e-003,-1.850037e-003
1.004582e-003,-1.995896e-003
6.725095e-004,-1.996220e-003
4.760863e-004,-1.845500e-003
4.039671e-004,-1.602401e-003
3.914881e-004,-1.366596e-003
3.663680e-004,-1.223007e-003
2.905214e-004,-1.216200e-003
1.824238e-004,-1.336290e-003
1.145184e-004,-1.537089e-003
1.642725e-004,-1.754905e-003
3.670162e-004,-1.941929e-003
6.979538e-004,-2.076443e-003
1.088856e-003,-2.152776e-003
1.452693e-003,-2.159582e-003
1.718805e-003,-2.082601e-003
1.850078e-003,-1.907084e-003
1.840354e-003,-1.634328e-003
1.704381e-003,-1.283619e-003
1.465496e-003,-8.909347e-004
1.145903e-003,-4.954954e-004
7.528940e-004,-1.310105e-004
2.871180e-004,1.801549e-004
-2.311669e-004,4.268184e-004
-7.444277e-004,6.117350e-004
-1.175035e-003,7.540284e-004
-1.459136e-003,8.848152e-004
-1.575337e-003,1.022409e-003
-1.555727e-003,1.151413e-003
-1.466429e-003,1.232284e-003
-1.361897e-003,1.222722e-003
-1.265954e-003,1.100038e-003
-1.181842e-003,8.940530e-004
-1.101458e-003,7.203188e-004
-1.027070e-003,7.063812e-004
-9.794224e-004,8.700673e-004
-9.860670e-004,1.122241e-003
-1.056241e-003,1.334709e-003
-1.166446e-003,1.409097e-003
-1.270654e-003,1.290465e-003
-1.322028e-003,9.580689e-004
-1.286536e-003,4.475628e-004
-1.166770e-003,-1.227452e-004
-1.000815e-003,-5.940311e-004
-8.348601e-004,-8.585216e-004
-6.902979e-004,-8.966069e-004
-5.624284e-004,-7.771649e-004
-4.306693e-004,-6.142893e-004
-2.771934e-004,-5.347152e-004
-9.065628e-005,-6.408680e-004
1.234320e-004,-9.431197e-004
3.464339e-004,-1.335642e-003
5.545259e-004,-1.668362e-003
7.280980e-004,-1.819407e-003
8.546711e-004,-1.732864e-003
9.413761e-004,-1.434502e-003
1.005716e-003,-1.002922e-003
1.032295e-003,-5.149432e-004
9.697376e-004,-1.918548e-005
7.689385e-004,4.649037e-004
4.287631e-004,9.421865e-004
3.332369e-005,1.431300e-003
-2.616352e-004,1.928518e-003
-3.391024e-004,2.391703e-003
-1.955125e-004,2.754245e-003
6.914012e-005,2.948238e-003
3.261758e-004,2.921011e-003
5.015305e-004,2.647281e-003
6.052523e-004,2.179234e-003
6.939021e-004,1.665485e-003
8.165857e-004,1.278472e-003
9.823787e-004,1.127427e-003
1.168916e-003,1.229691e-003
1.338761e-003,1.531295e-003
1.458365e-003,1.937432e-003
1.510551e-003,2.351834e-003
1.481054e-003,2.671105e-003
1.367122e-003,2.790061e-003
1.177992e-003,2.609520e-003
9.225765e-004,2.064978e-003
6.037938e-004,1.139096e-003
2.243987e-004,-9.940781e-005
-2.199844e-004,-1.415054e-003
-7.246558e-004,-2.505268e-003
-1.253313e-003,-3.160986e-003
-1.753771e-003,-3.317218e-003
-2.192644e-003,-3.051754e-003
-2.567015e-003,-2.530712e-003
-2.874454e-003,-1.940632e-003
-3.103615e-003,-1.424778e-003
-3.243640e-003,-1.047166e-003
-3.265843e-003,-8.058504e-004
-3.118039e-003,-6.620985e-004
-2.760684e-003,-5.664800e-004
-2.212416e-003,-4.872300e-004
-1.564964e-003,-4.243487e-004
-9.348544e-004,-3.977700e-004
-4.089525e-004,-4.324520e-004
-1.432352e-005,-5.347152e-004
2.914938e-004,-6.844635e-004
5.903424e-004,-8.270809e-004
9.460760e-004,-9.017931e-004
1.372633e-003,-8.812108e-004
1.831117e-003,-7.825130e-004
2.251354e-003,-6.449196e-004
2.560738e-003,-5.003574e-004
2.710811e-003,-3.711913e-004
2.697522e-003,-2.700626e-004
2.544531e-003,-2.073433e-004
2.278256e-003,-1.865989e-004
1.929815e-003,-1.880575e-004
1.534050e-003,-1.964849e-004
1.120945e-003,-2.331117e-004
7.246946e-004,-3.528779e-004
3.863020e-004,-5.899795e-004
1.383420e-004,-9.160548e-004
-1.513384e-005,-1.259471e-003
-1.078352e-004,-1.542275e-003
-2.008607e-004,-1.690889e-003
-3.629260e-004,-1.641945e-003
-6.491333e-004,-1.375672e-003
-1.073258e-003,-9.345302e-004
-1.557834e-003,-3.917736e-004
-1.944522e-003,1.673517e-004
-2.072715e-003,6.522514e-004
-1.877264e-003,9.543414e-004
-1.423319e-003,9.590413e-004
-8.536596e-004,6.522514e-004
-3.092824e-004,1.752929e-004
1.240803e-004,-2.387840e-004
4.295735e-004,-3.886944e-004
6.464170e-004,-1.969711e-004
8.225822e-004,2.632944e-004
9.690893e-004,8.242028e-004
1.050446e-003,1.330820e-003
1.021761e-003,1.672130e-003
8.624502e-004,1.750084e-003
6.102764e-004,1.522057e-003
3.553475e-004,1.066977e-003
1.929580e-004,5.801322e-004
1.506590e-004,2.785285e-004
1.477418e-004,2.846870e-004
7.140904e-005,5.601982e-004
-1.125351e-004,9.481829e-004
-3.509331e-004,1.259511e-003
-5.650214e-004,1.364691e-003
-7.009942e-004,1.249625e-003
-7.531792e-004,9.937233e-004
-7.629031e-004,6.987641e-004
-7.925610e-004,4.247115e-004
-8.899623e-004,1.743205e-004
-1.051866e-003,-8.579432e-005
-1.217496e-003,-3.689224e-004
-1.295126e-003,-6.394094e-004
-1.220738e-003,-8.225431e-004
-9.909290e-004,-8.567389e-004
-6.666363e-004,-7.348658e-004
-3.450988e-004,-5.013297e-004
-1.128592e-004,-2.318152e-004
1.403791e-005,-7.030578e-006
8.956036e-005,1.052807e-004
1.910133e-004,8.291568e-005
3.772264e-004,-4.592625e-005
6.571133e-004,-2.220912e-004
9.763823e-004,-3.875599e-004
1.247194e-003,-5.175362e-004
1.418335e-003,-6.105618e-004
1.500178e-003,-6.794395e-004
1.547826e-003,-7.278970e-004
1.617352e-003,-7.275729e-004
1.730312e-003,-6.262821e-004
1.859478e-003,-4.073319e-004
1.923170e-003,-1.057284e-004
1.827065e-003,2.226160e-004
1.524650e-003,5.195198e-004
1.078321e-003,7.405770e-004
6.417171e-004,8.564538e-004
3.537269e-004,8.618020e-004
2.530843e-004,7.838485e-004
2.793389e-004,6.781818e-004
3.339549e-004,6.405826e-004
3.401134e-004,7.809313e-004
2.718839e-004,1.121431e-003
1.500107e-004,1.553174e-003
3.348575e-005,1.914580e-003
-1.545797e-005,2.075188e-003
3.721326e-005,1.957690e-003
1.605450e-004,1.538912e-003
2.427121e-004,8.681226e-004
1.701068e-004,6.703327e-005
-8.757704e-005,-7.032631e-004
-4.634065e-004,-1.300960e-003
-8.342119e-004,-1.687810e-003
-1.062400e-003,-1.982283e-003
-1.051541e-003,-2.371240e-003
-8.097400e-004,-2.905084e-003
-4.502792e-004,-3.453515e-003
-1.209625e-004,-3.807792e-003
7.610894e-005,-3.786561e-003
1.166253e-004,-3.309438e-003
2.667901e-005,-2.423587e-003
-1.499722e-004,-1.244561e-003
-3.770257e-004,7.319176e-005
-6.235270e-004,1.311210e-003
-8.641939e-004,2.262374e-003
-1.089141e-003,2.812751e-003
-1.299825e-003,2.971576e-003
-1.488956e-003,2.878225e-003
-1.619094e-003,2.722156e-003
-1.626549e-003,2.643391e-003
-1.462053e-003,2.698656e-003
-1.130467e-003,2.865908e-003
-6.988873e-004,3.025382e-003
-2.700626e-004,3.012416e-003
6.719535e-005,2.711459e-003
2.757735e-004,2.122187e-003
3.791712e-004,1.389812e-003
4.331389e-004,7.293945e-004
4.780310e-004,2.940868e-004
5.242196e-004,1.090082e-004
5.670050e-004,1.075496e-004
6.140039e-004,1.816135e-004
6.801266e-004,2.308813e-004
7.679661e-004,1.866375e-004
8.603434e-004,2.570662e-005
9.368383e-004,-2.276015e-004
9.828649e-004,-5.217500e-004
9.877268e-004,-8.060125e-004
9.288971e-004,-1.051703e-003
7.631041e-004,-1.258661e-003
4.572867e-004,-1.441471e-003
3.267542e-005,-1.614070e-003
-4.371519e-004,-1.776946e-003
-8.611146e-004,-1.906436e-003
-1.150725e-003,-1.970128e-003
-1.236296e-003,-1.940470e-003
-1.085899e-003,-1.815517e-003
-7.115284e-004,-1.617149e-003
-1.783336e-004,-1.380372e-003
4.054258e-004,-1.145215e-003
9.219283e-004,-9.447403e-004
1.284307e-003,-7.906163e-004
1.435676e-003,-6.750637e-004
1.339409e-003,-5.760419e-004
9.737893e-004,-4.601652e-004
3.564820e-004,-3.181960e-004
-4.168937e-004,-1.681235e-004
-1.186542e-003,-3.766092e-005
-1.804335e-003,4.904402e-005
-2.180489e-003,7.659513e-005
-2.307710e-003,3.899597e-005
-2.227650e-003,-5.710876e-005
-1.999462e-003,-1.900023e-004
-1.672090e-003,-3.287302e-004
-1.273409e-003,-4.509274e-004
-8.194639e-004,-5.390910e-004
-3.262992e-004,-5.787970e-004
1.717275e-004,-5.655076e-004
6.170832e-004,-5.115399e-004
9.523966e-004,-4.342347e-004
1.140717e-003,-3.449367e-004
1.185285e-003,-2.454286e-004
1.127752e-003,-1.318209e-004
1.029540e-003,-8.002969e-006
9.442933e-004,1.085220e-004
8.911358e-004,1.966855e-004
8.449472e-004,2.402811e-004
7.632662e-004,2.427121e-004
6.243761e-004,2.341226e-004
4.454559e-004,2.462775e-004
2.786906e-004,2.853353e-004
1.793446e-004,3.376824e-004
1.761032e-004,3.880847e-004
2.707494e-004,4.326527e-004
4.371906e-004,4.743035e-004
6.378276e-004,5.104441e-004
8.413817e-004,5.303781e-004
1.027757e-003,5.238955e-004
1.176695e-003,4.884033e-004
1.257080e-003,4.209840e-004
1.241684e-003,2.936006e-004
1.114786e-003,3.332369e-005
8.812498e-004,-4.256453e-004
5.546879e-004,-1.043276e-003
1.696206e-004,-1.665607e-003
-2.113949e-004,-2.098321e-003
-5.176983e-004,-2.196857e-003
-7.011562e-004,-1.916646e-003
-7.465345e-004,-1.318463e-003
-6.736051e-004,-5.455735e-004
-5.236948e-004,2.028440e-004
-3.502849e-004,7.423597e-004
-2.013469e-004,1.036833e-003
-9.827335e-005,1.191281e-003
-3.085418e-005,1.347512e-003
2.813760e-005,1.596931e-003
1.052807e-004,1.957528e-003
2.153231e-004,2.367555e-003
3.734989e-004,2.732852e-003
5.835356e-004,2.950345e-003
8.347370e-004,2.934462e-003
1.088045e-003,2.662677e-003
1.266804e-003,2.228826e-003
1.280093e-003,1.826093e-003
1.100363e-003,1.633558e-003
7.851450e-004,1.699681e-003
4.386491e-004,1.925439e-003
1.809652e-004,2.137907e-003
9.555677e-005,2.204516e-003
1.809652e-004,2.097715e-003
3.485408e-004,1.885733e-003
4.704139e-004,1.661596e-003
4.098015e-004,1.485754e-003
3.397195e-005,1.371174e-003
-7.173628e-004,1.278148e-003
-1.722168e-003,1.144444e-003
-2.715143e-003,9.188490e-004
-3.443953e-003,5.835356e-004
-3.779430e-003,1.608691e-004
-3.718655e-003,-3.013411e-004
-3.353844e-003,-7.471828e-004
-2.822431e-003,-1.130629e-003
-2.246125e-003,-1.423968e-003
-1.695589e-003,-1.625091e-003
-1.191728e-003,-1.755877e-003
-7.348658e-004,-1.844041e-003
-3.355370e-004,-1.910974e-003
-2.923353e-005,-1.968831e-003
1.527658e-004,-2.016965e-003
2.182402e-004,-2.052295e-003
2.164575e-004,-2.079684e-003
2.046267e-004,-2.098321e-003
2.294227e-004,-2.098321e-003
3.164518e-004,-2.070609e-003
4.548557e-004,-2.017613e-003
6.190279e-004,-1.951652e-003
7.862795e-004,-1.877426e-003
9.368383e-004,-1.753284e-003
1.055470e-003,-1.480690e-003
1.128238e-003,-1.002598e-003
1.156275e-003,-3.810773e-004
1.163568e-003,2.441707e-004
1.172482e-003,7.421977e-004
1.189337e-003,1.038940e-003
1.226125e-003,1.100849e-003
1.293383e-003,9.332729e-004
1.385598e-003,5.935837e-004
1.474410e-003,2.166196e-004
1.501799e-003,-4.074016e-005
1.407153e-003,-9.956988e-005
1.167782e-003,3.624086e-005
8.162616e-004,3.096451e-004
4.002396e-004,6.232416e-004
-5.872941e-005,8.580745e-004
-5.671282e-004,9.002115e-004
-1.113288e-003,6.629477e-004
-1.643242e-003,1.234320e-004
-2.062343e-003,-6.373025e-004
-2.274325e-003,-1.425912e-003
-2.212416e-003,-2.022475e-003
-1.866730e-003,-2.289073e-003
-1.308901e-003,-2.237860e-003
-6.719845e-004,-2.019072e-003
-9.600444e-005,-1.833345e-003
3.193690e-004,-1.844527e-003
5.582534e-004,-2.126197e-003
6.835299e-004,-2.626493e-003
7.749349e-004,-3.166820e-003
8.771982e-004,-3.495004e-003
9.870786e-004,-3.380261e-003
1.052067e-003,-2.738967e-003
1.005068e-003,-1.669659e-003
7.961654e-004,-3.883702e-004
4.204978e-004,8.509436e-004
-4.868137e-005,1.835006e-003
-4.844750e-004,2.470467e-003
-8.251361e-004,2.724911e-003
-1.125281e-003,2.581644e-003
-1.470804e-003,2.028675e-003
-1.872726e-003,1.152061e-003
-2.256173e-003,1.736723e-004
-2.502513e-003,-6.061860e-004
-2.481282e-003,-9.523575e-004
-2.106263e-003,-7.765166e-004
-1.408571e-003,-1.439758e-004
-5.418460e-004,7.509492e-004
2.880904e-004,1.691254e-003
9.224145e-004,2.520707e-003
1.309427e-003,3.139639e-003
1.488834e-003,3.491485e-003
1.536481e-003,3.564740e-003
1.524002e-003,3.392463e-003
1.491265e-003,3.055688e-003
1.443941e-003,2.652953e-003
1.372308e-003,2.270315e-003
1.275069e-003,1.962390e-003
1.157247e-003,1.744898e-003
1.040074e-003,1.598066e-003
9.525587e-004,1.476192e-003
9.115561e-004,1.334223e-003
9.146354e-004,1.152223e-003
9.394314e-004,9.350556e-004
9.629308e-004,6.976296e-004
9.716824e-004,4.542074e-004
9.651998e-004,2.090025e-004
9.535311e-004,-4.284701e-005
9.515863e-004,-2.992343e-004
9.669825e-004,-5.387668e-004
9.976128e-004,-7.267626e-004
1.036184e-003,-8.387497e-004
1.071191e-003,-8.792660e-004
1.087559e-003,-8.721352e-004
1.084480e-003,-8.449082e-004
1.068760e-003,-8.176812e-004
1.047043e-003,-7.964507e-004
1.019492e-003,-7.758683e-004
9.805959e-004,-7.590136e-004
9.274385e-004,-7.690616e-004
8.647192e-004,-8.392359e-004
7.935724e-004,-9.758569e-004
7.081639e-004,-1.144891e-003
6.135177e-004,-1.289940e-003
5.161164e-004,-1.365300e-003
4.151496e-004,-1.349741e-003
3.089969e-004,-1.241806e-003
1.979821e-004,-1.055431e-003
9.393612e-005,-8.274051e-004
9.013889e-006,-6.395715e-004
-5.759496e-005,-6.016482e-004
-1.196660e-004,-7.398899e-004
-1.937298e-004,-9.555988e-004
-2.919414e-004,-1.090437e-003
-4.258073e-004,-1.011997e-003
-6.092652e-004,-6.348715e-004
-8.092538e-004,4.969229e-005
-9.444162e-004,9.562862e-004
-9.376095e-004,1.939214e-003
-7.697099e-004,2.828309e-003
-4.951713e-004,3.456803e-003
-2.102605e-004,3.696176e-003
-3.858999e-007,3.515309e-003
1.000946e-004,3.011930e-003
1.130598e-004,2.380520e-003
9.053275e-005,1.824148e-003
8.340187e-005,1.458690e-003
1.130598e-004,1.267290e-003
1.253768e-004,1.131479e-003
9.662150e-006,9.088010e-004
-3.416954e-004,5.055821e-004
-9.565711e-004,-1.023250e-004
-1.777594e-003,-8.805625e-004
-2.675275e-003,-1.716495e-003
-3.440874e-003,-2.404626e-003
-3.849118e-003,-2.705581e-003
-3.765816e-003,-2.482903e-003
-3.216089e-003,-1.783591e-003
-2.361516e-003,-8.291878e-004
-1.426399e-003,7.367795e-005
-6.097514e-004,6.676476e-004
-2.599222e-005,8.669881e-004
3.234207e-004,7.365254e-004
5.131993e-004,4.321665e-004
6.261588e-004,1.247285e-004
7.021675e-004,-7.590833e-005
7.400909e-004,-1.720131e-004
7.211292e-004,-2.532078e-004
6.099523e-004,-4.269418e-004
3.741471e-004,-7.569068e-004
2.693341e-006,-1.230299e-003
-4.883645e-004,-1.772246e-003
-1.039062e-003,-2.267194e-003
-1.556375e-003,-2.595863e-003
-1.944359e-003,-2.678678e-003
-2.142079e-003,-2.504944e-003
-2.142079e-003,-2.154883e-003
-1.964455e-003,-1.764467e-003
-1.638866e-003,-1.427047e-003
-1.188162e-003,-1.127712e-003
-6.424887e-004,-8.019609e-004
-5.467778e-005,-4.121938e-004
5.003960e-004,2.424803e-005
9.506139e-004,4.438352e-004
1.266642e-003,7.605111e-004
1.453341e-003,9.049114e-004
1.534536e-003,8.684467e-004
1.525623e-003,7.290703e-004
1.429356e-003,6.083316e-004
1.262752e-003,5.853184e-004
1.061629e-003,6.595443e-004
8.673123e-004,7.741245e-004
7.102708e-004,8.509436e-004
6.086557e-004,8.195029e-004
5.741358e-004,6.402585e-004
6.075213e-004,3.256896e-004
7.028158e-004,-4.981582e-005
8.498091e-004,-3.801049e-004
1.032295e-003,-5.608077e-004
1.229367e-003,-5.170500e-004
1.421576e-003,-2.425115e-004
1.588018e-003,1.667035e-004
1.710702e-003,5.449640e-004
1.778607e-003,7.428459e-004
1.794976e-003,6.673234e-004
1.766938e-003,2.759355e-004
1.697412e-003,-4.334244e-004
1.588504e-003,-1.391879e-003
1.453179e-003,-2.432339e-003
1.310400e-003,-3.312032e-003
1.185447e-003,-3.811357e-003
1.067301e-003,-3.834856e-003
9.160939e-004,-3.482525e-003
7.092984e-004,-3.022420e-003
4.671726e-004,-2.678516e-003
2.261814e-004,-2.477879e-003
8.689758e-006,-2.290045e-003
-1.977815e-004,-1.947439e-003
-4.134903e-004,-1.341638e-003
-6.479988e-004,-4.690787e-004
-8.914209e-004,5.778633e-004
-1.129333e-003,1.657382e-003
-1.373079e-003,2.647605e-003
-1.655073e-003,3.458910e-003
-1.985524e-003,4.033437e-003
-2.297986e-003,4.355952e-003
-2.487279e-003,4.450599e-003
-2.490196e-003,4.370376e-003
-2.321648e-003,4.181080e-003
-2.058940e-003,3.939925e-003
-1.807576e-003,3.676728e-003
-1.656207e-003,3.394570e-003
-1.628170e-003,3.093936e-003
-1.668362e-003,2.788603e-003
-1.689268e-003,2.514711e-003
-1.636273e-003,2.311642e-003
-1.527365e-003,2.197385e-003
-1.427533e-003,2.155897e-003
-1.375510e-003,2.147631e-003
-1.354117e-003,2.129318e-003
-1.330780e-003,2.067733e-003
-1.291560e-003,1.944401e-003
-1.229165e-003,1.758025e-003
-1.129657e-003,1.510388e-003
-9.696984e-004,1.162758e-003
-7.099077e-004,6.485239e-004
-3.109030e-004,-2.226472e-005
2.373639e-004,-7.251419e-004
9.065320e-004,-1.296908e-003
1.630155e-003,-1.618284e-003
2.324121e-003,-1.646645e-003
2.912908e-003,-1.419916e-003
3.337522e-003,-1.026583e-003
3.535243e-003,-5.612939e-004
3.450806e-003,-1.120489e-004
3.107387e-003,2.467637e-004
2.632047e-003,4.644175e-004
2.196575e-003,5.289196e-004
1.922846e-003,4.668485e-004
1.819124e-003,3.247172e-004
1.817017e-003,1.555210e-004
1.829658e-003,1.558884e-006
1.796596e-003,-1.096179e-004
1.700978e-003,-1.768750e-004
1.568732e-003,-2.212809e-004
1.453665e-003,-2.737901e-004
1.413797e-003,-3.608192e-004
1.477327e-003,-4.906334e-004
1.616866e-003,-6.494574e-004
1.747004e-003,-8.017988e-004
1.771963e-003,-8.998482e-004
1.643606e-003,-9.132997e-004
1.367933e-003,-8.606284e-004
9.711962e-004,-7.962886e-004
4.584211e-004,-7.833233e-004
-1.705545e-004,-8.625733e-004
-8.713248e-004,-1.029501e-003
-1.565775e-003,-1.238241e-003
-2.161203e-003,-1.435150e-003
-2.567502e-003,-1.580847e-003
-2.733943e-003,-1.651831e-003
-2.678678e-003,-1.634814e-003
-2.476096e-003,-1.525745e-003
-2.209174e-003,-1.345690e-003
-1.931718e-003,-1.140677e-003
-1.662852e-003,-9.658089e-004
-1.405492e-003,-8.658146e-004
-1.181518e-003,-8.588458e-004
-1.069693e-003,-9.390680e-004
-1.181194e-003,-1.084927e-003
-1.540979e-003,-1.273085e-003
-1.998327e-003,-1.477449e-003
-2.296852e-003,-1.651669e-003
-2.244991e-003,-1.740967e-003
-1.828159e-003,-1.712444e-003
-1.192052e-003,-1.571609e-003
-5.356876e-004,-1.351038e-003
-1.497178e-005,-1.096758e-003
2.981384e-004,-8.518770e-004
4.164462e-004,-6.491333e-004
4.099636e-004,-5.144570e-004
3.694472e-004,-4.449310e-004
3.671783e-004,-3.990665e-004
4.358940e-004,-3.175477e-004
5.681394e-004,-1.605064e-004
7.342565e-004,7.221937e-005
8.825464e-004,3.375204e-004
9.559621e-004,5.793219e-004
9.339211e-004,7.606731e-004
8.378163e-004,8.708776e-004
7.083260e-004,9.188490e-004
5.812666e-004,9.216042e-004
4.720346e-004,9.002115e-004
3.806297e-004,8.665019e-004
3.156415e-004,8.248511e-004
3.062417e-004,7.785003e-004
3.720403e-004,7.336082e-004
4.937514e-004,6.916333e-004
6.195141e-004,6.563030e-004
6.929298e-004,6.465791e-004
6.827196e-004,6.904988e-004
5.934216e-004,7.849830e-004
4.568005e-004,9.104217e-004
3.187208e-004,1.042181e-003
2.124059e-004,1.149144e-003
1.514693e-004,1.195171e-003
1.352628e-004,1.160651e-003
1.566554e-004,1.051743e-003
1.989545e-004,8.959978e-004
2.391467e-004,7.300428e-004
2.665357e-004,5.943940e-004
2.812837e-004,5.119027e-004
2.738286e-004,4.660382e-004
2.368777e-004,4.128807e-004
1.897167e-004,2.973281e-004
1.607070e-004,8.097089e-005
1.691344e-004,-2.481838e-004
2.154851e-004,-6.732810e-004
2.885766e-004,-1.133060e-003
3.704196e-004,-1.529148e-003
4.433490e-004,-1.756526e-003
5.016926e-004,-1.758632e-003
5.554983e-004,-1.559454e-003
6.156246e-004,-1.258013e-003
6.728336e-004,-9.714811e-004
6.906608e-004,-7.684134e-004
6.282657e-004,-6.502678e-004
4.731691e-004,-5.766901e-004
2.532463e-004,-5.037607e-004
7.231170e-006,-4.091146e-004
-2.373254e-004,-2.969654e-004
-4.676201e-004,-1.823853e-004
-6.612882e-004,-6.002594e-005
-7.812165e-004,1.116012e-004
-7.896438e-004,4.041292e-004
-6.622606e-004,8.919462e-004
-4.032803e-004,1.578780e-003
-5.662256e-005,2.354265e-003
2.958695e-004,3.040940e-003
5.606844e-004,3.484030e-003
6.660269e-004,3.587105e-003
5.929354e-004,3.308836e-003
3.733368e-004,2.652467e-003
6.573675e-005,1.688337e-003
-2.583939e-004,6.034696e-004
-5.180225e-004,-3.681121e-004
-6.763602e-004,-1.095623e-003
-7.765166e-004,-1.587978e-003
-8.886658e-004,-1.905626e-003
-1.055107e-003,-2.109342e-003
-1.261740e-003,-2.263628e-003
-1.439364e-003,-2.459890e-003
-1.490414e-003,-2.782076e-003
-1.347797e-003,-3.224030e-003
-1.041493e-003,-3.660473e-003
-6.888393e-004,-3.929665e-003
-4.162455e-004,-3.946034e-003
-2.888622e-004,-3.709741e-003
-3.006929e-004,-3.248015e-003
-3.966356e-004,-2.585328e-003
-5.131605e-004,-1.742102e-003
-6.000275e-004,-7.507482e-004
-6.126686e-004,3.201794e-004
-5.099192e-004,1.360802e-003
-2.710350e-004,2.278905e-003
7.853991e-005,3.030730e-003
4.506420e-004,3.611253e-003
7.190223e-004,4.025821e-003
7.778521e-004,4.272000e-003
5.871011e-004,4.341527e-003
1.921477e-004,4.220625e-003
-3.162512e-004,3.901353e-003
-8.322670e-004,3.403645e-003
-1.240834e-003,2.794275e-003
-1.440984e-003,2.166917e-003
-1.375996e-003,1.616217e-003
-1.058024e-003,1.201167e-003
-5.693972e-004,9.323005e-004
-3.911951e-005,7.788245e-004
4.098015e-004,6.749405e-004
6.793162e-004,5.524190e-004
7.246946e-004,3.666921e-004
5.960147e-004,1.125736e-004
4.226047e-004,-1.700683e-004
3.368721e-004,-4.165696e-004
4.072085e-004,-5.731247e-004
6.219451e-004,-6.194753e-004
9.172284e-004,-5.768522e-004
1.208622e-003,-4.838267e-004
1.431300e-003,-3.720016e-004
1.551553e-003,-2.626076e-004
1.561439e-003,-1.718510e-004
1.462579e-003,-1.057284e-004
1.277014e-003,-6.618442e-005
1.041533e-003,-5.419158e-005
7.830382e-004,-6.861539e-005
5.151440e-004,-9.503204e-005
2.493568e-004,-1.190177e-004
-7.516774e-006,-1.370070e-004
-2.421874e-004,-1.595340e-004
-4.353692e-004,-1.987538e-004
-5.728005e-004,-2.634179e-004
-6.330888e-004,-3.515814e-004
-5.971103e-004,-4.437966e-004
-4.574101e-004,-5.097571e-004
-2.246843e-004,-5.279084e-004
7.513654e-005,-4.932265e-004
3.997535e-004,-3.846427e-004
7.034640e-004,-1.874093e-004
9.502898e-004,5.423012e-005
1.122403e-003,2.551911e-004
1.233580e-003,2.887387e-004
1.322878e-003,5.406805e-005
1.404397e-003,-4.120317e-004
1.435352e-003,-9.700225e-004
1.350430e-003,-1.465456e-003
1.126779e-003,-1.790883e-003
7.891966e-004,-1.904329e-003
3.769022e-004,-1.815031e-003
-1.052422e-004,-1.569826e-003
-6.718224e-004,-1.266278e-003
-1.284267e-003,-1.045707e-003
-1.814545e-003,-1.013942e-003
-2.100104e-003,-1.173252e-003
-2.032523e-003,-1.416675e-003
-1.614718e-003,-1.600781e-003
-9.593263e-004,-1.617474e-003
-2.426735e-004,-1.425750e-003
3.756057e-004,-1.059969e-003
8.217718e-004,-6.411921e-004
1.119648e-003,-3.488263e-004
1.342651e-003,-2.874036e-004
1.561277e-003,-3.943667e-004
1.797245e-003,-5.010056e-004
2.016358e-003,-4.548170e-004
2.148604e-003,-1.932436e-004
2.138556e-003,2.584324e-004
1.965793e-003,8.345750e-004
1.652196e-003,1.470196e-003
1.247032e-003,2.101280e-003
8.204753e-004,2.658301e-003
4.409181e-004,3.077891e-003
1.334801e-004,3.319371e-003
-1.436516e-004,3.402349e-003
-4.478482e-004,3.380308e-003
-8.089297e-004,3.294898e-003
-1.231596e-003,3.161194e-003
-1.739347e-003,2.979517e-003
-2.366540e-003,2.732366e-003
-3.076550e-003,2.420388e-003
-3.728865e-003,2.091232e-003
-4.125441e-003,1.815558e-003
-4.098052e-003,1.665485e-003
-3.577171e-003,1.731608e-003
-2.624548e-003,2.039695e-003
-1.430936e-003,2.496073e-003
-2.702246e-004,2.951155e-003
5.875872e-004,3.284850e-003
1.003771e-003,3.399918e-003
1.007175e-003,3.183559e-003
7.405770e-004,2.550527e-003
3.953777e-004,1.534050e-003
1.483901e-004,3.297412e-004
1.005808e-004,-7.667927e-004
2.529222e-004,-1.521045e-003
5.175750e-004,-1.910164e-003
7.652109e-004,-2.109828e-003
8.759017e-004,-2.399277e-003
7.747728e-004,-3.018044e-003
4.464283e-004,-4.065963e-003
-6.569822e-005,-4.968512e-003
-6.787913e-004,-4.968350e-003
-1.312953e-003,-4.968350e-003
-1.917294e-003,-4.968350e-003
-2.450814e-003,-4.968350e-003
-2.837016e-003,-4.968188e-003
-2.966345e-003,-4.968350e-003
-2.749339e-003,-4.968350e-003
-2.191347e-003,-4.108910e-003
-1.407599e-003,-2.693913e-003
-5.804176e-004,-1.598674e-003
1.156529e-004,-8.073090e-004
5.760806e-004,-2.355427e-004
8.011895e-004,2.104611e-004
8.684467e-004,5.966629e-004
8.677984e-004,9.429968e-004
8.593710e-004,1.233742e-003
8.632605e-004,1.442321e-003
8.723363e-004,1.542640e-003
8.681226e-004,1.530161e-003
8.412196e-004,1.427897e-003
8.028102e-004,1.273448e-003
7.741245e-004,1.103442e-003
7.710453e-004,9.332729e-004
8.054032e-004,7.593766e-004
8.817361e-004,5.796460e-004
9.959922e-004,4.167703e-004
1.140393e-003,3.038107e-004
1.310400e-003,2.658874e-004
1.499854e-003,3.101313e-004
1.701626e-003,4.174185e-004
1.887677e-003,5.572810e-004
2.008255e-003,7.044364e-004
2.023327e-003,8.475402e-004
1.923170e-003,9.770306e-004
1.718319e-003,1.087073e-003
1.437135e-003,1.184150e-003
1.128238e-003,1.282848e-003
8.436506e-004,1.398725e-003
6.161107e-004,1.522543e-003
4.535592e-004,1.620431e-003
3.501615e-004,1.662892e-003
2.908455e-004,1.649603e-003
2.645909e-004,1.608438e-003
2.372019e-004,1.582346e-003
1.308870e-004,1.598876e-003
-1.201522e-004,1.670347e-003
-5.010056e-004,1.795462e-003
-9.197823e-004,1.946183e-003
-1.245534e-003,2.069677e-003
-1.355900e-003,2.120242e-003
-1.183787e-003,2.075674e-003
-7.693857e-004,1.950883e-003
-2.626076e-004,1.788007e-003
1.388282e-004,1.636800e-003
3.008936e-004,1.538912e-003
2.292607e-004,1.507309e-003
3.494434e-005,1.527568e-003
-1.650443e-004,1.563060e-003
-3.066893e-004,1.574242e-003
-3.690845e-004,1.540371e-003
-3.426678e-004,1.467279e-003
-2.314910e-004,1.380898e-003
-5.305713e-005,1.304889e-003
1.701068e-004,1.243953e-003
4.091532e-004,1.180423e-003
6.443101e-004,1.095176e-003
8.647192e-004,9.817304e-004
1.059360e-003,8.428403e-004
1.199709e-003,6.810990e-004
1.256270e-003,5.031512e-004
1.223208e-003,3.232586e-004
1.115434e-003,1.634622e-004
9.669825e-004,4.580272e-005
8.118858e-004,-2.194059e-005
6.616511e-004,-4.932962e-005
5.028270e-004,-6.180866e-005
3.060797e-004,-9.649064e-005
2.748934e-005,-1.874093e-004
-3.596847e-004,-3.452609e-004
-8.322670e-004,-5.457356e-004
-1.324297e-003,-7.423208e-004
-1.752474e-003,-8.936898e-004
-2.046461e-003,-9.839601e-004
-2.180003e-003,-1.024639e-003
-2.163148e-003,-1.039386e-003
-2.036737e-003,-1.051703e-003
-1.865272e-003,-1.081848e-003
-1.694455e-003,-1.140839e-003
-1.513590e-003,-1.230624e-003
-1.271140e-003,-1.360276e-003
-9.181616e-004,-1.589274e-003
-4.523860e-004,-2.016641e-003
5.163707e-005,-2.649182e-003
4.564763e-004,-3.355303e-003
6.355586e-004,-3.977151e-003
5.551741e-004,-4.416998e-003
3.080245e-004,-4.604996e-003
4.450620e-005,-4.476477e-003
-1.227452e-004,-4.000002e-003
-1.716889e-004,-3.200692e-003
-1.386276e-004,-2.152127e-003
-6.974985e-005,-9.829877e-004
1.938607e-005,1.498487e-004
1.433661e-004,1.115921e-003
3.245551e-004,1.902912e-003
5.511225e-004,2.550690e-003
7.767176e-004,3.057795e-003
9.643894e-004,3.395542e-003
1.119486e-003,3.551612e-003
1.280093e-003,3.536540e-003
1.484944e-003,3.354053e-003
1.754946e-003,3.011444e-003
2.077943e-003,2.541614e-003
2.392351e-003,2.005500e-003
2.627995e-003,1.465658e-003
2.722480e-003,9.511001e-004
2.644688e-003,4.545315e-004
2.407423e-003,-3.944364e-005
2.058981e-003,-5.335807e-004
1.635989e-003,-1.018642e-003
1.166323e-003,-1.484256e-003
6.692683e-004,-1.886502e-003
1.304008e-004,-2.157962e-003
-4.950092e-004,-2.261684e-003
-1.226896e-003,-2.192158e-003
-2.046136e-003,-1.970290e-003
-2.910918e-003,-1.655397e-003
-3.742317e-003,-1.336128e-003
-4.407761e-003,-1.088330e-003
-4.736594e-003,-9.367992e-004
-4.594948e-003,-8.547941e-004
-3.982985e-003,-7.946679e-004
-3.069419e-003,-7.065044e-004
-2.118904e-003,-5.658317e-004
-1.382317e-003,-3.885323e-004
-9.998425e-004,-2.151224e-004
-9.709949e-004,-9.146661e-005
-1.178276e-003,-5.127441e-005
-1.441471e-003,-1.141558e-004
-1.586033e-003,-2.869174e-004
-1.511807e-003,-5.280706e-004
-1.211986e-003,-7.434553e-004
-7.585274e-004,-8.252983e-004
-2.609869e-004,-7.141214e-004
1.840444e-004,-4.423380e-004
5.131993e-004,-1.078352e-004
6.989262e-004,1.927960e-004
7.399287e-004,4.162841e-004
6.603546e-004,5.767288e-004
5.046097e-004,7.075156e-004
3.299033e-004,8.352232e-004
2.018716e-004,9.674687e-004
1.806411e-004,1.087883e-003
2.851732e-004,1.171185e-003
4.830550e-004,1.200033e-003
7.060571e-004,1.166161e-003
8.859497e-004,1.072649e-003
9.877268e-004,9.428347e-004
1.016575e-003,8.165857e-004
1.010254e-003,7.133500e-004
1.013333e-003,6.211348e-004
1.043964e-003,5.167646e-004
1.089342e-003,4.068843e-004
1.126293e-003,3.342791e-004
1.153358e-003,3.384927e-004
1.187554e-003,4.269804e-004
1.244763e-003,5.836976e-004
1.338599e-003,7.797969e-004
1.471331e-003,1.000854e-003
1.621403e-003,1.263238e-003
1.749922e-003,1.571001e-003
1.818151e-003,1.876495e-003
1.796435e-003,2.098850e-003
1.671158e-003,2.168538e-003
1.447345e-003,2.071622e-003
1.150116e-003,1.844082e-003
8.115617e-004,1.539884e-003
4.653899e-004,1.206678e-003
1.412592e-004,8.650433e-004
-1.319829e-004,5.025029e-004
-3.237062e-004,8.518459e-005
-4.005251e-004,-4.502792e-004
-3.394265e-004,-1.168066e-003
-1.502963e-004,-2.041113e-003
1.143563e-004,-2.913674e-003
3.736609e-004,-3.565178e-003
5.545259e-004,-3.807305e-003
6.216210e-004,-3.570527e-003
5.843459e-004,-2.934094e-003
4.764104e-004,-2.102535e-003
3.365480e-004,-1.318949e-003
1.947408e-004,-7.846198e-004
6.444023e-005,-5.888450e-004
-3.895745e-005,-7.146077e-004
-1.075111e-004,-1.075527e-003
-1.629374e-004,-1.534982e-003
-2.572594e-004,-1.913405e-003
-4.334244e-004,-2.042247e-003
-6.937013e-004,-1.837558e-003
-1.001949e-003,-1.350876e-003
-1.316032e-003,-7.515585e-004
-1.596729e-003,-2.331117e-004
-1.808387e-003,8.340187e-005
-1.910002e-003,1.919856e-004
-1.850199e-003,1.475797e-004
-1.595433e-003,-2.177852e-005
-1.139057e-003,-3.089583e-004
-5.117019e-004,-6.682570e-004
1.897167e-004,-1.048300e-003
7.716935e-004,-1.377617e-003
1.012523e-003,-1.543734e-003
7.911414e-004,-1.429964e-003
1.710792e-004,-9.675916e-004
-6.022964e-004,-1.525652e-004
-1.192214e-003,9.392693e-004
-1.351686e-003,2.148928e-003
-1.029338e-003,3.308836e-003
-3.710293e-004,4.270218e-003
3.747954e-004,4.926106e-003
9.788133e-004,4.959005e-003
1.339247e-003,4.959005e-003
1.487537e-003,4.959005e-003
1.521571e-003,4.620770e-003
1.523840e-003,4.199394e-003
1.514926e-003,3.790337e-003
1.464362e-003,3.404780e-003
1.323527e-003,3.021168e-003
1.069246e-003,2.621026e-003
7.397667e-004,2.205813e-003
4.282770e-004,1.787845e-003
2.180782e-004,1.384787e-003
1.268354e-004,1.015278e-003
1.135460e-004,6.917953e-004
1.064152e-004,4.140152e-004
3.672706e-005,1.733481e-004
-1.327933e-004,-4.236082e-005
-3.812394e-004,-2.376495e-004
-6.316302e-004,-4.112214e-004
-8.016367e-004,-5.674524e-004
-8.531735e-004,-7.120146e-004
-8.016367e-004,-8.530114e-004
-6.883531e-004,-9.956289e-004
-5.476804e-004,-1.141164e-003
-3.848048e-004,-1.280378e-003
-1.909747e-004,-1.391717e-003
1.630683e-005,-1.457677e-003
1.876099e-004,-1.477935e-003
2.597290e-004,-1.461891e-003
1.932822e-004,-1.420078e-003
1.549650e-005,-1.361086e-003
-1.817370e-004,-1.290102e-003
-2.930758e-004,-1.213121e-003
-2.554767e-004,-1.144243e-003
-7.720486e-005,-1.095137e-003
1.705930e-004,-1.066776e-003
3.908399e-004,-1.039386e-003
5.138475e-004,-9.914152e-004
5.161164e-004,-9.163790e-004
4.269804e-004,-8.306464e-004
3.091589e-004,-7.573929e-004
2.120818e-004,-7.027769e-004
1.208390e-004,-6.196374e-004
-4.932962e-005,-4.671340e-004
-3.630881e-004,-2.721694e-004
-8.026091e-004,-1.018388e-004
-1.279405e-003,4.151929e-006
-1.663986e-003,3.867184e-005
-1.821514e-003,-2.168618e-006
-1.686351e-003,-1.204763e-004
-1.311818e-003,-2.778417e-004
-8.343739e-004,-4.099249e-004
-3.932322e-004,-4.846370e-004
-6.035007e-005,-5.160777e-004
1.728619e-004,-5.528665e-004
3.564820e-004,-6.489712e-004
5.363746e-004,-8.499322e-004
7.274497e-004,-1.177952e-003
9.126905e-004,-1.617474e-003
1.074108e-003,-2.095242e-003
1.210405e-003,-2.496355e-003
1.323203e-003,-2.714171e-003
1.400994e-003,-2.699099e-003
1.408773e-003,-2.485334e-003
1.296300e-003,-2.177734e-003
1.036671e-003,-1.900602e-003
6.464170e-004,-1.739347e-003
1.790204e-004,-1.729137e-003
-3.039342e-004,-1.854899e-003
-7.698719e-004,-2.029444e-003
-1.213931e-003,-2.119228e-003
-1.620067e-003,-2.023771e-003
-1.948087e-003,-1.722330e-003
-2.176599e-003,-1.266602e-003
-2.332992e-003,-7.437794e-004
-2.458431e-003,-2.311669e-004
-2.579170e-003,2.367157e-004
-2.701854e-003,6.640821e-004
-2.812545e-003,1.072811e-003
-2.857761e-003,1.483486e-003
-2.753229e-003,1.915877e-003
-2.432663e-003,2.366096e-003
-1.893309e-003,2.795734e-003
-1.224465e-003,3.150659e-003
-5.679386e-004,3.391166e-003
-3.879538e-005,3.511420e-003
3.266619e-004,3.542536e-003
5.678153e-004,3.515309e-003
7.522457e-004,3.418069e-003
9.230627e-004,3.195228e-003
1.073622e-003,2.775637e-003
1.171833e-003,2.114570e-003
1.193550e-003,1.210891e-003
1.143958e-003,1.362352e-004
1.064870e-003,-9.192961e-004
1.012523e-003,-1.711958e-003
1.021274e-003,-2.080008e-003
1.082373e-003,-1.995086e-003
1.153196e-003,-1.557509e-003
1.190633e-003,-9.426335e-004
1.179775e-003,-3.287302e-004
1.128238e-003,1.529279e-004
1.056443e-003,4.441593e-004
9.775168e-004,5.614947e-004
8.854635e-004,5.661946e-004
7.686144e-004,5.381573e-004
6.308587e-004,5.452881e-004
5.012064e-004,6.195141e-004
4.200116e-004,7.465734e-004
4.217943e-004,8.856256e-004
5.260024e-004,9.955061e-004
7.125397e-004,1.049150e-003
9.240351e-004,1.044450e-003
1.086911e-003,9.890234e-004
1.127265e-003,8.924323e-004
1.004582e-003,7.648868e-004
7.569456e-004,6.238899e-004
4.935893e-004,4.845136e-004
3.311998e-004,3.621543e-004
3.331446e-004,2.754493e-004
4.775448e-004,2.417397e-004
6.796404e-004,2.564877e-004
8.465679e-004,2.940868e-004
9.271143e-004,3.290929e-004
9.230627e-004,3.461098e-004
8.702294e-004,3.383307e-004
8.165857e-004,3.122381e-004
8.002172e-004,2.811216e-004
8.230684e-004,2.764217e-004
8.509436e-004,3.504856e-004
8.430023e-004,5.193577e-004
7.786624e-004,7.515975e-004
6.660269e-004,9.854579e-004
5.315126e-004,1.149792e-003
4.115842e-004,1.171995e-003
3.355756e-004,1.008795e-003
3.159656e-004,6.716992e-004
3.418961e-004,2.282883e-004
3.875985e-004,-2.217671e-004
4.226047e-004,-5.663179e-004
4.286011e-004,-7.504240e-004
4.070464e-004,-8.193018e-004
3.709058e-004,-8.936898e-004
3.289309e-004,-1.085899e-003
2.854973e-004,-1.448926e-003
2.451431e-004,-1.978393e-003
2.132162e-004,-2.642052e-003
1.827479e-004,-3.412026e-003
1.359110e-004,-4.211012e-003
4.953022e-005,-4.853931e-003
-9.924574e-005,-4.968512e-003
-3.215994e-004,-4.787483e-003
-6.129927e-004,-3.871159e-003
-9.317751e-004,-2.495382e-003
-1.200642e-003,-9.249684e-004
-1.349417e-003,5.102821e-004
-1.346014e-003,1.553822e-003
-1.213607e-003,2.192686e-003
-1.010539e-003,2.545503e-003
-7.932093e-004,2.743062e-003
-5.891691e-004,2.870608e-003
-3.995528e-004,2.975141e-003
-2.115570e-004,3.081295e-003
-1.027188e-005,3.203007e-003
2.059233e-004,3.335415e-003
3.991052e-004,3.435410e-003
4.786793e-004,3.430386e-003
3.334687e-004,3.263296e-003
-1.130213e-004,2.925225e-003
-8.398842e-004,2.458636e-003
-1.693158e-003,1.938566e-003
-2.440604e-003,1.436486e-003
-2.869592e-003,1.005392e-003
-2.868457e-003,6.663511e-004
-2.465886e-003,3.963501e-004
-1.802390e-003,1.548727e-004
-1.058348e-003,-8.482193e-005
-3.933943e-004,-3.233821e-004
1.023635e-004,-5.416840e-004
4.298976e-004,-7.157421e-004
6.579236e-004,-8.288636e-004
8.472161e-004,-8.838038e-004
1.012523e-003,-8.995241e-004
1.129534e-003,-9.060067e-004
1.162758e-003,-9.298304e-004
1.112031e-003,-9.803947e-004
1.027271e-003,-1.051379e-003
9.767064e-004,-1.125119e-003
1.001502e-003,-1.189297e-003
1.100363e-003,-1.231758e-003
1.227584e-003,-1.243265e-003
1.316558e-003,-1.225600e-003
1.303431e-003,-1.185569e-003
1.140231e-003,-1.116692e-003
8.151271e-004,-9.624055e-004
3.587509e-004,-6.833291e-004
-1.736337e-004,-3.144685e-004
-7.175248e-004,6.460230e-005
-1.220900e-003,3.764160e-004
-1.657180e-003,5.717048e-004
-2.004810e-003,6.243761e-004
-2.234619e-003,5.337815e-004
-2.320027e-003,3.521062e-004
-2.252608e-003,1.918236e-004
-2.052295e-003,1.279698e-004
-1.765277e-003,1.227837e-004
-1.457677e-003,1.010670e-004
-1.204855e-003,3.802358e-005
-1.043762e-003,-3.328516e-005
-9.476576e-004,-9.503204e-005
-8.556045e-004,-1.757406e-004
-7.129870e-004,-2.998826e-004
-5.050572e-004,-4.653512e-004
-2.543422e-004,-6.478368e-004
3.665733e-006,-8.319429e-004
2.363916e-004,-1.032418e-003
4.192013e-004,-1.287833e-003
5.404262e-004,-1.615853e-003
6.086557e-004,-1.971586e-003
6.524134e-004,-2.248556e-003
7.023296e-004,-2.343851e-003
7.734763e-004,-2.228460e-003
8.712018e-004,-1.958459e-003
9.924268e-004,-1.647618e-003
1.119486e-003,-1.419105e-003
1.213160e-003,-1.367893e-003
1.235363e-003,-1.527041e-003
1.175237e-003,-1.846796e-003
1.045260e-003,-2.217440e-003
8.712018e-004,-2.512399e-003
6.848265e-004,-2.625035e-003
5.037994e-004,-2.517585e-003
3.407616e-004,-2.225705e-003
2.062474e-004,-1.817138e-003
1.013911e-004,-1.353469e-003
2.813760e-005,-8.735937e-004
-8.327101e-006,-3.953390e-004
3.827799e-006,7.805372e-005
7.870197e-005,5.482053e-004
2.175920e-004,1.007175e-003
3.926226e-004,1.432273e-003
5.590637e-004,1.795948e-003
6.691061e-004,2.079402e-003
6.963331e-004,2.281012e-003
6.438239e-004,2.406937e-003
5.426951e-004,2.474194e-003
4.344354e-004,2.501908e-003
3.653956e-004,2.500773e-003
3.402755e-004,2.473060e-003
3.255275e-004,2.430274e-003
2.957075e-004,2.385382e-003
2.615117e-004,2.343569e-003
2.444948e-004,2.308239e-003
2.535705e-004,2.286522e-003
2.678322e-004,2.276474e-003
2.397949e-004,2.244385e-003
1.462832e-004,2.146659e-003
1.452411e-005,1.959797e-003
-9.470791e-005,1.709243e-003
-1.295519e-004,1.456583e-003
-7.801519e-005,1.259511e-003
3.008238e-005,1.127103e-003
1.467694e-004,1.015440e-003
2.273159e-004,8.538608e-004
2.519498e-004,5.861287e-004
2.203471e-004,1.845306e-004
1.300767e-004,-3.470436e-004
-1.983374e-005,-9.290201e-004
-2.068571e-004,-1.414082e-003
-3.783222e-004,-1.652642e-003
-4.804233e-004,-1.557834e-003
-5.133225e-004,-1.156236e-003
-5.298533e-004,-5.828486e-004
-5.852795e-004,-1.156841e-005
-7.243316e-004,4.170944e-004
-9.740742e-004,6.245382e-004
-1.291074e-003,5.559844e-004
-1.561723e-003,1.759412e-004
-1.650535e-003,-4.168937e-004
-1.470318e-003,-9.816912e-004
-1.020749e-003,-1.282322e-003
-4.010113e-004,-1.193835e-003
2.263435e-004,-7.248178e-004
6.832058e-004,-1.156841e-005
8.590469e-004,7.344186e-004
7.579181e-004,1.332927e-003
4.984512e-004,1.679423e-003
2.551911e-004,1.746842e-003
1.571416e-004,1.582994e-003
2.396328e-004,1.293545e-003
4.543695e-004,9.955061e-004
6.906608e-004,7.642386e-004
8.109135e-004,6.047662e-004
7.118915e-004,4.721967e-004
4.000776e-004,3.047831e-004
1.452411e-005,3.737532e-005
-2.426735e-004,-3.781601e-004
-1.955125e-004,-9.115170e-004
2.077060e-004,-1.417647e-003
8.407335e-004,-1.685703e-003
1.456745e-003,-1.561561e-003
1.860937e-003,-1.042304e-003
1.998693e-003,-2.825416e-004
1.918146e-003,4.718725e-004
1.693523e-003,9.721686e-004
1.376198e-003,1.052715e-003
9.551517e-004,7.154569e-004
3.987811e-004,1.342904e-004
-2.746004e-004,-4.314796e-004
-9.794224e-004,-7.611204e-004
-1.587329e-003,-7.497758e-004
-1.949708e-003,-4.262935e-004
-1.966724e-003,8.583286e-005
-1.671603e-003,6.379896e-004
-1.220251e-003,1.107169e-003
-8.001782e-004,1.412987e-003
-5.352014e-004,1.518654e-003
-4.484965e-004,1.436973e-003
-4.836646e-004,1.221101e-003
-5.642111e-004,9.532070e-004
-6.309819e-004,7.062191e-004
-6.457299e-004,5.208163e-004
-5.843072e-004,4.036430e-004
-4.439586e-004,3.303894e-004
-2.441321e-004,2.647530e-004
-2.485776e-005,1.765894e-004
1.649207e-004,4.499239e-005
2.782044e-004,-1.293899e-004
2.939248e-004,-3.172236e-004
2.020337e-004,-4.839888e-004
-2.816880e-006,-6.061860e-004
-2.969654e-004,-6.773326e-004
-6.201236e-004,-7.065044e-004
-8.813728e-004,-7.181731e-004
-9.852567e-004,-7.343796e-004
-8.684076e-004,-7.727891e-004
-5.232086e-004,-8.671111e-004
-1.853722e-005,-1.057052e-003
5.266506e-004,-1.351848e-003
9.909682e-004,-1.717954e-003
1.287386e-003,-2.069312e-003
1.373119e-003,-2.258928e-003
1.259835e-003,-2.148238e-003
1.016575e-003,-1.721520e-003
7.355530e-004,-1.085413e-003
4.919686e-004,-3.956632e-004
3.188828e-004,2.177540e-004
2.200230e-004,6.658648e-004
1.900409e-004,9.136630e-004
2.177540e-004,9.814063e-004
2.932765e-004,9.300316e-004
4.008879e-004,8.279303e-004
5.198439e-004,7.058950e-004
6.232416e-004,5.663567e-004
6.838542e-004,4.057499e-004
6.866092e-004,2.174299e-004
6.263209e-004,-1.756482e-005
5.104441e-004,-3.335922e-004
3.673404e-004,-7.418346e-004
2.331503e-004,-1.201452e-003
1.292664e-004,-1.641135e-003
6.589881e-005,-1.987631e-003
4.434413e-005,-2.210633e-003
5.957827e-005,-2.325375e-003
8.810177e-005,-2.368809e-003
9.490851e-005,-2.354709e-003
5.309566e-005,-2.259415e-003
-5.516398e-005,-2.049378e-003
-2.400805e-004,-1.715361e-003
-4.763717e-004,-1.290588e-003
-6.896496e-004,-8.240017e-004
-7.902921e-004,-3.316474e-004
-7.058561e-004,1.689724e-004
-4.305072e-004,6.362069e-004
-4.398147e-005,1.028892e-003
3.386548e-004,1.313154e-003
6.235657e-004,1.468089e-003
7.656972e-004,1.492237e-003
7.684522e-004,1.402777e-003
6.721854e-004,1.233904e-003
5.240576e-004,1.018519e-003
3.568061e-004,7.763935e-004
1.866375e-004,5.225990e-004
1.160693e-005,2.765838e-004
-1.640719e-004,5.228533e-005
-3.083100e-004,-1.571031e-004
-3.899909e-004,-3.703810e-004
-3.984183e-004,-6.018102e-004
-3.525538e-004,-8.598181e-004
-3.123616e-004,-1.144081e-003
-3.591985e-004,-1.417647e-003
-5.251534e-004,-1.601429e-003
-7.572309e-004,-1.609694e-003
-9.713190e-004,-1.401927e-003
-1.111181e-003,-1.024639e-003
-1.163366e-003,-5.830107e-004
-1.128522e-003,-1.734716e-004
-1.004056e-003,1.628139e-004
-7.927231e-004,4.396215e-004
-5.233706e-004,6.833679e-004
-2.483458e-004,9.118802e-004
-1.448558e-005,1.131803e-003
1.535762e-004,1.348323e-003
2.597290e-004,1.575053e-003
3.243930e-004,1.825120e-003
3.726885e-004,2.085236e-003
4.298976e-004,2.324445e-003
5.131993e-004,2.519897e-003
6.196762e-004,2.658139e-003
7.263153e-004,2.735445e-003
8.045929e-004,2.751490e-003
8.332785e-004,2.703194e-003
8.084825e-004,2.602875e-003
7.357151e-004,2.486673e-003
6.211348e-004,2.376306e-003
4.749518e-004,2.254271e-003
3.140208e-004,2.078591e-003
1.611932e-004,1.821393e-003
3.818565e-005,1.496451e-003
-4.835724e-005,1.162271e-003
-1.079973e-004,8.822222e-004
-1.692580e-004,6.705648e-004
-2.509389e-004,4.814344e-004
-3.460712e-004,2.407673e-004
-4.139766e-004,-9.632857e-005
-4.049009e-004,-5.219121e-004
-2.943724e-004,-1.018480e-003
-9.794922e-005,-1.546813e-003
1.291043e-004,-2.046623e-003
3.221241e-004,-2.491817e-003
4.414042e-004,-2.860840e-003
4.898618e-004,-3.113501e-003
4.997478e-004,-3.211551e-003
5.128751e-004,-3.137649e-003
5.532294e-004,-2.888391e-003
6.123833e-004,-2.479824e-003
6.475514e-004,-1.952949e-003
6.055765e-004,-1.354279e-003
4.587452e-004,-7.368106e-004
2.334744e-004,-1.687718e-004
1.274139e-005,2.851732e-004
-1.222590e-004,5.982835e-004
-1.546721e-004,7.783383e-004
-1.308485e-004,8.449472e-004
-1.148040e-004,8.191788e-004
-1.754164e-004,7.326358e-004
-3.817256e-004,6.355586e-004
-7.603101e-004,5.746220e-004
-1.259957e-003,5.648981e-004
-1.771922e-003,5.854804e-004
-2.172710e-003,5.953664e-004
-2.385826e-003,5.600362e-004
-2.408353e-003,4.749518e-004
-2.283238e-003,3.569682e-004
-2.044354e-003,2.333123e-004
-1.697858e-003,1.231079e-004
-1.228841e-003,4.094075e-005
-6.379507e-004,-3.627206e-006
1.906194e-005,-4.113403e-006
6.083316e-004,3.462021e-005
9.781651e-004,1.023635e-004
1.028567e-003,1.949028e-004
7.548388e-004,3.156415e-004
2.918179e-004,4.668485e-004
-1.363587e-004,6.368551e-004
-3.402368e-004,8.060515e-004
-2.514251e-004,9.558000e-004
7.935024e-005,1.072325e-003
5.238955e-004,1.142986e-003
9.250075e-004,1.156275e-003
1.138124e-003,1.110897e-003
1.068273e-003,1.023219e-003
7.136742e-004,9.225765e-004
1.751309e-004,8.452713e-004
-3.959873e-004,8.115617e-004
-8.460426e-004,8.101031e-004
-1.050407e-003,8.099410e-004
-9.572194e-004,7.791486e-004
-6.181788e-004,7.039502e-004
-1.784957e-004,5.840218e-004
2.055991e-004,4.300596e-004
4.345975e-004,2.673460e-004
4.989374e-004,1.331559e-004
4.710622e-004,5.131294e-005
4.469145e-004,1.112074e-005
4.859722e-004,-1.302700e-005
5.858046e-004,-4.592625e-005
7.050846e-004,-1.073490e-004
7.861174e-004,-2.018331e-004
7.773659e-004,-3.326198e-004
6.561409e-004,-5.016539e-004
4.469145e-004,-7.014804e-004
1.971717e-004,-9.087619e-004
-4.722278e-005,-1.089627e-003
-2.384598e-004,-1.217658e-003
-3.366714e-004,-1.290426e-003
-3.258130e-004,-1.338721e-003
-2.104225e-004,-1.361248e-003
-1.529591e-005,-1.290426e-003
2.185644e-004,-1.027394e-003
4.524247e-004,-5.091089e-004
6.564650e-004,1.970097e-004
8.079963e-004,8.912979e-004
8.989150e-004,1.370850e-003
9.381349e-004,1.530161e-003
9.417002e-004,1.366960e-003
9.214421e-004,9.170663e-004
8.825464e-004,2.290986e-004
8.337647e-004,-5.507597e-004
7.974620e-004,-1.188000e-003
8.091307e-004,-1.509214e-003
9.003736e-004,-1.487821e-003
1.075890e-003,-1.235323e-003
1.314937e-003,-9.355026e-004
1.569866e-003,-7.770028e-004
1.789304e-003,-8.721352e-004
1.927222e-003,-1.209555e-003
1.928680e-003,-1.651507e-003
1.723019e-003,-1.984714e-003
1.282200e-003,-2.036575e-003
6.857989e-004,-1.762846e-003
9.361199e-005,-1.273571e-003
-3.439643e-004,-7.700340e-004
-5.721523e-004,-4.185144e-004
-6.251476e-004,-2.622834e-004
-5.907898e-004,-2.212809e-004
-5.565940e-004,-1.749302e-004
-5.728005e-004,-2.761287e-005
-6.517263e-004,2.375260e-004
-7.870508e-004,5.702463e-004
-9.684019e-004,8.831946e-004
-1.176656e-003,1.086911e-003
-1.381182e-003,1.114138e-003
-1.538061e-003,9.501277e-004
-1.614394e-003,6.426895e-004
-1.601429e-003,2.660495e-004
-1.504676e-003,-1.092938e-004
-1.325756e-003,-4.331002e-004
-1.072286e-003,-6.807360e-004
-7.705202e-004,-8.462047e-004
-4.640547e-004,-9.335579e-004
-1.971332e-004,-9.508989e-004
2.855407e-006,-9.142721e-004
1.331559e-004,-8.431255e-004
2.073819e-004,-7.556102e-004
2.477361e-004,-6.546435e-004
2.744769e-004,-5.360117e-004
3.025142e-004,-3.951770e-004
3.328204e-004,-2.319772e-004
3.569682e-004,-5.305713e-005
3.665301e-004,1.295905e-004
3.545372e-004,3.008936e-004
3.179104e-004,4.508040e-004
2.603772e-004,5.764047e-004
1.947408e-004,6.705648e-004
1.299146e-004,7.198326e-004
7.821578e-005,7.143224e-004
4.499239e-005,6.585719e-004
2.603075e-005,5.713807e-004
9.175954e-006,4.807861e-004
-1.610624e-005,4.062361e-004
-5.289507e-005,3.568061e-004
-9.081835e-005,3.243930e-004
-1.020008e-004,2.974902e-004
-4.722278e-005,2.731804e-004
9.312580e-005,2.582704e-004
3.002453e-004,2.611876e-004
5.341057e-004,2.851732e-004
7.666696e-004,3.269861e-004
9.885372e-004,3.760919e-004
1.205219e-003,4.271425e-004
1.421901e-003,4.879170e-004
1.633558e-003,5.734875e-004
1.834682e-003,6.940642e-004
2.006472e-003,8.632605e-004
2.113922e-003,1.075566e-003
2.109384e-003,1.307482e-003
1.953314e-003,1.540533e-003
1.619297e-003,1.771152e-003
1.070866e-003,1.987996e-003
2.545429e-004,2.143580e-003
-8.274051e-004,2.140176e-003
-2.050836e-003,1.851699e-003
-3.226136e-003,1.246059e-003
-4.141810e-003,4.595556e-004
-4.621203e-003,-2.739521e-004
-4.589924e-003,-7.718167e-004
-4.109721e-003,-9.834740e-004
-3.340555e-003,-9.625676e-004
-2.455676e-003,-8.204363e-004
-1.593002e-003,-6.659881e-004
-8.573871e-004,-5.773384e-004
-3.083100e-004,-5.924104e-004
6.330578e-005,-6.899738e-004
3.467581e-004,-7.923990e-004
6.443101e-004,-8.113607e-004
9.754099e-004,-7.090974e-004
1.259511e-003,-5.350393e-004
1.374739e-003,-3.882082e-004
1.224018e-003,-3.408851e-004
7.890346e-004,-3.895047e-004
1.454729e-004,-4.710235e-004
-5.426564e-004,-5.133225e-004
-1.113612e-003,-4.737787e-004
-1.479718e-003,-3.472056e-004
-1.620229e-003,-1.629374e-004
-1.552809e-003,3.299956e-005
-1.331590e-003,2.004130e-004
-1.059483e-003,3.180725e-004
-8.536596e-004,3.812780e-004
-7.664686e-004,4.055878e-004
-7.817027e-004,4.247115e-004
-8.484736e-004,4.676588e-004
-9.021172e-004,5.446399e-004
-8.846141e-004,6.556547e-004
-7.392416e-004,7.917897e-004
-4.360174e-004,9.305178e-004
2.207145e-006,1.040236e-003
4.976409e-004,1.091935e-003
9.415382e-004,1.055308e-003
1.237632e-003,9.120423e-004
1.356264e-003,6.666752e-004
1.358371e-003,3.615060e-004
1.345568e-003,6.670914e-005
1.386408e-003,-1.561307e-004
1.482027e-003,-2.950206e-004
1.587370e-003,-4.013355e-004
1.652520e-003,-5.520562e-004
1.646199e-003,-8.060125e-004
1.566625e-003,-1.186380e-003
1.439404e-003,-1.681003e-003
1.294679e-003,-2.213226e-003
1.133586e-003,-2.646751e-003
9.277626e-004,-2.848037e-003
6.533858e-004,-2.754039e-003
3.248792e-004,-2.397333e-003
-1.383732e-005,-1.881802e-003
-3.052308e-004,-1.322839e-003
-4.929024e-004,-8.131433e-004
-5.355255e-004,-4.037664e-004
-4.185144e-004,-1.007043e-004
-1.647201e-004,1.210010e-004
1.678379e-004,2.955454e-004
4.994237e-004,4.508040e-004
7.574318e-004,5.901803e-004
8.971323e-004,7.052467e-004
9.024804e-004,7.877381e-004
7.844968e-004,8.410576e-004
5.760806e-004,8.598572e-004
3.378445e-004,8.136685e-004
1.404489e-004,6.817472e-004
4.645098e-005,4.835413e-004
8.923623e-005,2.704253e-004
2.576221e-004,1.062531e-004
4.935893e-004,4.110282e-005
7.028158e-004,1.103047e-004
7.841726e-004,3.438409e-004
6.832058e-004,7.553250e-004
4.161220e-004,1.293059e-003
4.645098e-005,1.855913e-003
-3.316474e-004,2.343407e-003
-6.210960e-004,2.679208e-003
-7.638755e-004,2.796382e-003
-7.533412e-004,2.633667e-003
-6.282268e-004,2.178100e-003
-4.522240e-004,1.506661e-003
-3.010170e-004,7.707212e-004
-2.329496e-004,1.276457e-004
-2.595283e-004,-3.162512e-004
-3.473677e-004,-5.326084e-004
-4.457413e-004,-5.677765e-004
-5.084606e-004,-5.126743e-004
-5.099192e-004,-4.744269e-004
-4.441207e-004,-5.212637e-004
-3.154408e-004,-6.444334e-004
-1.430034e-004,-7.779752e-004
4.628891e-005,-8.475012e-004
2.315296e-004,-8.157364e-004
3.974845e-004,-6.954839e-004
5.319988e-004,-5.235327e-004
6.324793e-004,-3.253268e-004
7.003848e-004,-1.013526e-004
7.323117e-004,1.501728e-004
7.253428e-004,4.260080e-004
6.793162e-004,7.075156e-004
6.005525e-004,9.671446e-004
5.063924e-004,1.177668e-003
4.209840e-004,1.317855e-003
3.679886e-004,1.374415e-003
3.671783e-004,1.342813e-003
4.251977e-004,1.229042e-003
5.221128e-004,1.047853e-003
6.177314e-004,8.164236e-004
6.537099e-004,5.524190e-004
5.648981e-004,2.749631e-004
3.004074e-004,3.341602e-006
-1.154523e-004,-2.488320e-004
-5.656697e-004,-4.778303e-004
-9.097343e-004,-6.906220e-004
-1.053162e-003,-8.974173e-004
-9.931979e-004,-1.097244e-003
-8.113607e-004,-1.246020e-003
-6.142893e-004,-1.258985e-003
-4.596790e-004,-1.076662e-003
-3.491504e-004,-7.082871e-004
-2.480217e-004,-2.433218e-004
-1.237176e-004,1.795066e-004
3.980630e-005,4.329769e-004
2.337985e-004,4.337872e-004
4.204978e-004,1.352628e-004
5.493398e-004,-4.514136e-004
5.811046e-004,-1.181842e-003
4.984512e-004,-1.805631e-003
3.073762e-004,-2.083574e-003
3.915804e-005,-1.931880e-003
-2.559629e-004,-1.453301e-003
-5.196431e-004,-8.970932e-004
-7.154180e-004,-5.710179e-004
-8.462047e-004,-6.632329e-004
-9.369612e-004,-1.155911e-003
-9.943324e-004,-1.868513e-003
-1.003246e-003,-2.542057e-003
-9.447403e-004,-2.933770e-003
-8.060125e-004,-2.897467e-003
-5.878726e-004,-2.429422e-003
-3.089583e-004,-1.644701e-003
-8.489166e-006,-7.155800e-004
2.566497e-004,1.714034e-004
4.368664e-004,8.720121e-004
5.268127e-004,1.338761e-003
5.563086e-004,1.610869e-003
5.589016e-004,1.766614e-003
5.302161e-004,1.880709e-003
4.438352e-004,1.995613e-003
2.942489e-004,2.119918e-003
6.735741e-005,2.235471e-003
-2.643903e-004,2.303215e-003
-6.945116e-004,2.281012e-003
-1.133871e-003,2.149738e-003
-1.436609e-003,1.922036e-003
-1.494628e-003,1.628210e-003
-1.301122e-003,1.311858e-003
-9.466851e-004,1.024192e-003
-5.530285e-004,8.203132e-004
-2.198223e-004,7.405770e-004
7.069105e-006,7.666696e-004
1.329939e-004,8.159374e-004
1.867996e-004,7.951931e-004
1.965235e-004,6.533858e-004
1.728619e-004,3.927847e-004
1.221355e-004,5.536457e-005
6.995045e-005,-3.037722e-004
4.871989e-005,-6.319543e-004
8.875003e-005,-8.891520e-004
2.010613e-004,-1.035659e-003
3.645853e-004,-1.053000e-003
5.271368e-004,-9.675916e-004
6.407447e-004,-8.363187e-004
6.836920e-004,-7.097457e-004
6.632718e-004,-6.053757e-004
6.071971e-004,-5.095950e-004
5.402642e-004,-4.031182e-004
4.730070e-004,-2.857829e-004
4.065602e-004,-1.802784e-004
3.522683e-004,-1.057284e-004
3.360618e-004,-5.402952e-005
3.806297e-004,7.231170e-006
4.900239e-004,1.007429e-004
6.376655e-004,2.080301e-004
7.789865e-004,2.582704e-004
8.663398e-004,1.667035e-004
8.720121e-004,-1.047560e-004
8.015137e-004,-5.287188e-004
6.825576e-004,-1.001625e-003
5.435055e-004,-1.384261e-003
3.973225e-004,-1.570799e-003
2.493568e-004,-1.544706e-003
1.210010e-004,-1.403547e-003
3.656499e-005,-1.305012e-003
2.693341e-006,-1.380858e-003
-3.951337e-006,-1.669334e-003
-3.458168e-005,-2.104480e-003
-1.559686e-004,-2.542867e-003
-4.215936e-004,-2.818217e-003
-8.215707e-004,-2.806872e-003
-1.250234e-003,-2.477879e-003
-1.559940e-003,-1.899629e-003
-1.644376e-003,-1.205017e-003
-1.489766e-003,-5.426564e-004
-1.164501e-003,-1.626830e-005
-7.698719e-004,3.425444e-004
-3.922598e-004,5.592257e-004
-7.995997e-005,6.804507e-004
1.521176e-004,7.493285e-004
3.015418e-004,7.911414e-004
3.731747e-004,8.118858e-004
3.793332e-004,8.130203e-004
3.352514e-004,8.019998e-004
2.574601e-004,7.900069e-004
1.620036e-004,7.938966e-004
5.309566e-005,8.316578e-004
-7.201877e-005,9.070183e-004
-2.125294e-004,9.958302e-004
-3.476919e-004,1.059522e-003
-4.425001e-004,1.060494e-003
-4.643789e-004,9.864303e-004
-3.990665e-004,8.496471e-004
-2.668213e-004,6.648925e-004
-1.300382e-004,4.696036e-004
-6.618442e-005,3.339549e-004
-1.314967e-004,3.341170e-004
-3.262992e-004,4.984512e-004
-5.953276e-004,7.887104e-004
-8.450702e-004,1.134234e-003
-9.743983e-004,1.470358e-003
-9.163790e-004,1.733715e-003
-6.627468e-004,1.878602e-003
-2.749245e-004,1.900805e-003
1.464453e-004,1.831927e-003
5.115786e-004,1.705516e-003
7.647247e-004,1.542964e-003
8.856256e-004,1.356750e-003
8.947013e-004,1.160975e-003
8.498091e-004,9.940475e-004
8.112376e-004,9.109079e-004
8.183684e-004,9.415382e-004
8.741189e-004,1.070056e-003
9.465622e-004,1.250111e-003
9.707100e-004,1.429194e-003
8.974564e-004,1.577484e-003
7.329599e-004,1.674885e-003
5.292437e-004,1.685095e-003
3.652335e-004,1.582184e-003
3.073762e-004,1.422063e-003
3.681507e-004,1.333413e-003
5.076890e-004,1.401967e-003
6.452826e-004,1.610383e-003
7.007089e-004,1.870012e-003
6.285898e-004,2.068705e-003
4.342734e-004,2.103711e-003
1.806411e-004,1.908098e-003
-4.268495e-005,1.493047e-003
-1.614788e-004,9.512621e-004
-1.524032e-004,3.913261e-004
-4.430560e-005,-1.669890e-004
8.502253e-005,-8.267568e-004
1.308870e-004,-1.673386e-003
2.765140e-005,-2.656151e-003
-1.822232e-004,-3.625629e-003
-3.747568e-004,-4.424292e-003
-4.441207e-004,-4.941771e-003
-3.728119e-004,-4.968512e-003
-2.318152e-004,-4.909358e-003
-1.399241e-004,-4.342610e-003
-1.862748e-004,-3.479770e-003
-3.851289e-004,-2.464914e-003
-6.761982e-004,-1.486525e-003
-9.658089e-004,-7.053699e-004
-1.180059e-003,-1.900023e-004
-1.291398e-003,9.960841e-005
-1.298529e-003,2.610255e-004
-1.205666e-003,3.824125e-004
-1.015563e-003,5.172509e-004
-7.449139e-004,6.810990e-004
-4.185144e-004,8.582365e-004
-7.542214e-005,1.012037e-003
2.435224e-004,1.095987e-003
4.987754e-004,1.084318e-003
6.572754e-004,9.890234e-004
7.092984e-004,8.451093e-004
6.700786e-004,6.867713e-004
5.713807e-004,5.354022e-004
4.561522e-004,3.973225e-004
3.644232e-004,2.663737e-004
3.164518e-004,1.362352e-004
3.205035e-004,6.744974e-006
3.778746e-004,-1.169109e-004
4.833792e-004,-2.297083e-004
6.250244e-004,-3.366714e-004
7.872519e-004,-4.386105e-004
9.603378e-004,-5.309877e-004
1.146551e-003,-6.027826e-004
1.359991e-003,-6.418404e-004
1.613300e-003,-6.411921e-004
1.907774e-003,-6.006758e-004
2.215213e-003,-5.317981e-004
2.468522e-003,-4.499550e-004
2.560575e-003,-3.674638e-004
2.374362e-003,-2.930758e-004
1.850240e-003,-2.290601e-004
1.052877e-003,-1.681235e-004
1.746447e-004,-1.007043e-004
-5.470322e-004,-2.161646e-005
-9.656468e-004,6.930219e-005
-1.073582e-003,1.691344e-004
-9.573814e-004,2.694529e-004
-7.319486e-004,3.553475e-004
-4.956574e-004,4.187151e-004
-3.374817e-004,4.611762e-004
-3.147926e-004,4.856481e-004
-4.384484e-004,4.961824e-004
-6.881910e-004,4.955341e-004
-1.049272e-003,4.833792e-004
-1.513752e-003,4.619866e-004
-2.048243e-003,4.378388e-004
-2.571877e-003,4.135290e-004
-2.963104e-003,3.859779e-004
-3.089515e-003,3.537269e-004
-2.871537e-003,3.211517e-004
-2.328617e-003,2.885766e-004
-1.573392e-003,2.572980e-004
-7.543136e-004,2.219677e-004
-7.192643e-006,1.707551e-004
5.786736e-004,9.685330e-005
9.754099e-004,7.393236e-006
1.201653e-003,-8.465986e-005
1.305537e-003,-1.707166e-004
1.341354e-003,-2.462390e-004
1.351726e-003,-3.159271e-004
1.366150e-003,-3.849669e-004
1.400994e-003,-4.569239e-004
1.452531e-003,-5.274223e-004
1.503744e-003,-5.883588e-004
1.519788e-003,-6.322784e-004
1.453179e-003,-6.643674e-004
1.265345e-003,-6.901358e-004
9.462381e-004,-7.170386e-004
5.034753e-004,-7.667927e-004
-3.053005e-005,-9.115170e-004
-5.812279e-004,-1.225924e-003
-1.059158e-003,-1.683110e-003
-1.391392e-003,-2.150831e-003
-1.529310e-003,-2.461673e-003
-1.481501e-003,-2.484686e-003
-1.331590e-003,-2.132031e-003
-1.203072e-003,-1.381668e-003
-1.167742e-003,-3.023136e-004
-1.200155e-003,9.543414e-004
-1.235810e-003,2.182962e-003
-1.224465e-003,3.210300e-003
-1.145539e-003,3.903298e-003
-9.993564e-004,4.192750e-003
-8.113607e-004,4.090971e-003
-6.330888e-004,3.687424e-003
-5.189948e-004,3.130239e-003
-5.035987e-004,2.563979e-003
-5.948414e-004,2.076970e-003
-7.776510e-004,1.683961e-003
-1.017994e-003,1.340868e-003
-1.250720e-003,9.839993e-004
-1.390258e-003,5.444778e-004
-1.377617e-003,-3.069211e-005
-1.193024e-003,-7.219006e-004
-8.585216e-004,-1.388475e-003
-4.245108e-004,-1.832048e-003
5.779555e-005,-1.898981e-003
5.441537e-004,-1.564154e-003
9.976128e-004,-9.478196e-004
1.380898e-003,-2.642282e-004
1.660461e-003,2.756114e-004
1.821393e-003,5.551741e-004
1.882329e-003,5.838597e-004
1.882491e-003,4.555039e-004
1.854940e-003,2.801492e-004
1.816206e-003,1.372076e-004
1.756890e-003,6.038860e-005
1.621566e-003,4.256141e-005
1.342651e-003,2.846173e-005
9.105837e-004,-7.444975e-005
3.929467e-004,-3.549848e-004
-9.843541e-005,-8.591699e-004
-4.421759e-004,-1.566909e-003
-5.559457e-004,-2.382423e-003
-4.402311e-004,-3.147697e-003
-1.883817e-004,-3.674897e-003
6.379197e-005,-3.808602e-003
2.107852e-004,-3.503107e-003
2.248849e-004,-2.849333e-003
1.445005e-004,-2.028310e-003
3.915804e-005,-1.237592e-003
-3.490581e-005,-6.395715e-004
-4.641245e-005,-3.154408e-004
8.365628e-006,-2.512630e-004
1.145184e-004,-3.614674e-004
2.514636e-004,-5.374703e-004
3.989431e-004,-6.920806e-004
5.417228e-004,-7.872129e-004
6.658648e-004,-8.184915e-004
7.618076e-004,-7.857543e-004
8.073480e-004,-6.727948e-004
7.632662e-004,-4.546549e-004
6.311828e-004,-1.318209e-004
4.666864e-004,2.448189e-004
3.485408e-004,6.000663e-004
3.331446e-004,8.724983e-004
4.274666e-004,1.032619e-003
5.858046e-004,1.081887e-003
7.379840e-004,1.042181e-003
8.261476e-004,9.553138e-004
8.357094e-004,8.715259e-004
7.900069e-004,8.318199e-004
7.319876e-004,8.502954e-004
6.901747e-004,9.089631e-004
6.550064e-004,9.792994e-004
5.838597e-004,1.042667e-003
4.297355e-004,1.105386e-003
1.859892e-004,1.182692e-003
-1.070249e-004,1.278472e-003
-3.797808e-004,1.380412e-003
-5.703696e-004,1.468251e-003
-6.604778e-004,1.519464e-003
-6.732810e-004,1.520599e-003
-6.408680e-004,1.469062e-003
-5.903036e-004,1.368257e-003
-5.373082e-004,1.235687e-003
-4.809095e-004,1.091287e-003
-4.034423e-004,9.570965e-004
-2.801106e-004,8.475402e-004
-9.665270e-005,7.608352e-004
1.540623e-004,6.895264e-004
4.616624e-004,6.268070e-004
8.023240e-004,5.723531e-004
1.145093e-003,5.302161e-004
1.456583e-003,5.037994e-004
1.712646e-003,4.931031e-004
1.884760e-003,4.961824e-004
1.915715e-003,5.036374e-004
1.741170e-003,4.999099e-004
1.319475e-003,4.747897e-004
6.504686e-004,4.289252e-004
-2.031296e-004,3.713920e-004
-1.076986e-003,3.357376e-004
-1.775811e-003,4.013741e-004
-2.181137e-003,6.201624e-004
-2.277890e-003,9.570965e-004
-2.144186e-003,1.321096e-003
-1.930260e-003,1.620269e-003
-1.803363e-003,1.777311e-003
-1.885206e-003,1.745546e-003
-2.174979e-003,1.530485e-003
-2.534278e-003,1.193064e-003
-2.773001e-003,8.084825e-004
-2.763115e-003,3.798194e-004
-2.471072e-003,-1.699062e-004
-1.944035e-003,-8.603043e-004
-1.288157e-003,-1.595271e-003
-6.389232e-004,-2.238022e-003
-1.196660e-004,-2.683054e-003
1.814514e-004,-2.886771e-003
2.218057e-004,-2.819351e-003
9.175954e-006,-2.449680e-003
-4.006872e-004,-1.779701e-003
-9.149204e-004,-8.862348e-004
-1.426399e-003,8.113296e-005
-1.835127e-003,9.353797e-004
-2.062505e-003,1.544098e-003
-2.062991e-003,1.860288e-003
-1.839503e-003,1.891567e-003
-1.438553e-003,1.683961e-003
-9.311269e-004,1.309265e-003
-3.969597e-004,8.592089e-004
7.627100e-005,4.098015e-004
4.143393e-004,-7.192643e-006
5.947181e-004,-4.078181e-004
6.425274e-004,-8.079573e-004
5.934216e-004,-1.193349e-003
4.804620e-004,-1.513103e-003
3.443271e-004,-1.702720e-003
2.491947e-004,-1.715523e-003
2.522740e-004,-1.555565e-003
3.723644e-004,-1.276488e-003
5.663567e-004,-9.588401e-004
7.666696e-004,-6.844635e-004
9.314902e-004,-5.151053e-004
1.064546e-003,-4.778303e-004
1.188040e-003,-5.612939e-004
1.313479e-003,-7.131490e-004
1.431625e-003,-8.557665e-004
1.530161e-003,-9.137859e-004
1.607142e-003,-8.369670e-004
1.675371e-003,-6.201236e-004
1.756566e-003,-3.065273e-004
1.863368e-003,3.105477e-005
1.980217e-003,3.294171e-004
2.072433e-003,5.504743e-004
2.108898e-003,6.848265e-004
2.067084e-003,7.488423e-004
1.944239e-003,7.746107e-004
1.755432e-003,7.921138e-004
1.527081e-003,8.203132e-004
1.277500e-003,8.723363e-004
1.017547e-003,9.647136e-004
7.757452e-004,1.089180e-003
5.862907e-004,1.208136e-003
4.553419e-004,1.271828e-003
3.615060e-004,1.252380e-003
2.746390e-004,1.150116e-003
1.586002e-004,9.844856e-004
-3.409549e-005,7.750969e-004
-3.136581e-004,5.341057e-004
-6.257959e-004,2.767458e-004
-8.705144e-004,2.359977e-005
-9.546264e-004,-2.112329e-004
-8.447461e-004,-4.303451e-004
-5.825245e-004,-6.515643e-004
-2.564491e-004,-8.995241e-004
3.769945e-005,-1.179573e-003
2.422259e-004,-1.456705e-003
3.418961e-004,-1.678896e-003
3.532407e-004,-1.803200e-003
3.117519e-004,-1.816490e-003
2.537325e-004,-1.735457e-003
2.044647e-004,-1.607750e-003
1.707551e-004,-1.481825e-003
1.519555e-004,-1.378751e-003
1.428799e-004,-1.287995e-003
1.321835e-004,-1.186704e-003
1.111150e-004,-1.045221e-003
7.935024e-005,-8.465288e-004
4.320967e-005,-5.990551e-004
6.258778e-006,-3.203028e-004
-3.053005e-005,-2.194059e-005
-7.509801e-005,3.276344e-004
-1.293899e-004,7.760693e-004
-1.846542e-004,1.256594e-003
-2.282497e-004,1.602604e-003
-2.483458e-004,1.715077e-003
-2.350565e-004,1.627400e-003
-1.815749e-004,1.457717e-003
-9.697683e-005,1.313479e-003
-4.437533e-006,1.240225e-003
7.108491e-005,1.235201e-003
1.188942e-004,1.298893e-003
1.355869e-004,1.448966e-003
1.174356e-004,1.654951e-003
7.448828e-005,1.789790e-003
2.149292e-005,1.677802e-003
-3.360929e-005,1.172644e-003
-8.352541e-005,2.483844e-004
-1.259865e-004,-9.768293e-004
-1.648822e-004,-2.278863e-003
-2.062088e-004,-3.409757e-003
-2.496423e-004,-4.131762e-003
-3.015032e-004,-4.299176e-003
-3.809152e-004,-3.920752e-003
-5.000332e-004,-3.160500e-003
-6.345474e-004,-2.263304e-003
-7.186593e-004,-1.447143e-003
-6.792775e-004,-8.251361e-004
-4.805854e-004,-3.969597e-004
-1.365208e-004,-8.903562e-005
2.947351e-004,1.726999e-004
7.225877e-004,4.119083e-004
1.048339e-003,6.050903e-004
1.192254e-003,7.118915e-004
1.112517e-003,7.161052e-004
8.186926e-004,6.287518e-004
3.546993e-004,4.801379e-004
-2.152845e-004,3.164518e-004
-7.980713e-004,1.822617e-004
-1.303877e-003,1.090082e-004
-1.674521e-003,9.669123e-005
-1.887799e-003,1.210010e-004
-1.952625e-003,1.509831e-004
-1.903681e-003,1.645966e-004
-1.783266e-003,1.626518e-004
-1.618122e-003,1.623277e-004
-1.416188e-003,1.801549e-004
-1.183949e-003,2.192126e-004
-9.424714e-004,2.725321e-004
-7.204420e-004,3.349273e-004
-5.267740e-004,4.049396e-004
-3.400748e-004,4.879170e-004
-1.316588e-004,5.872631e-004
9.490851e-005,6.908230e-004
2.991108e-004,7.760693e-004
4.269804e-004,8.368439e-004
4.402698e-004,9.198214e-004
3.355756e-004,1.091287e-003
1.483901e-004,1.369715e-003
-4.997789e-005,1.713295e-003
-1.692580e-004,2.042450e-003
-1.498101e-004,2.257836e-003
6.096713e-006,2.271126e-003
2.397949e-004,2.042126e-003
4.634451e-004,1.605521e-003
5.802943e-004,1.067949e-003
5.208163e-004,5.814288e-004
2.684805e-004,2.756114e-004
-1.224211e-004,1.910133e-004
-5.481666e-004,2.621599e-004
-8.936898e-004,3.619922e-004
-1.064507e-003,3.649094e-004
-1.023504e-003,1.803169e-004
-7.962886e-004,-2.311669e-004
-4.434724e-004,-8.463667e-004
-3.458168e-005,-1.570150e-003
3.702575e-004,-2.266221e-003
7.284221e-004,-2.834585e-003
1.015116e-003,-3.214468e-003
1.217050e-003,-3.359517e-003
1.339733e-003,-3.234564e-003
1.400184e-003,-2.828103e-003
1.412177e-003,-2.165255e-003
1.372146e-003,-1.301284e-003
1.263562e-003,-3.087962e-004
1.085128e-003,7.178878e-004
8.582365e-004,1.640041e-003
6.174073e-004,2.318125e-003
3.913261e-004,2.646795e-003
2.000889e-004,2.607899e-003
6.362991e-005,2.299487e-003
-3.141010e-006,1.900481e-003
-1.027188e-005,1.579590e-003
2.408596e-005,1.428221e-003
7.951231e-005,1.444104e-003
1.166253e-004,1.557063e-003
9.523264e-005,1.677154e-003
2.748934e-005,1.724801e-003
-4.057810e-005,1.659489e-003
-9.098041e-005,1.488672e-003
-1.737958e-004,1.256270e-003
-3.758912e-004,1.015764e-003
-7.431312e-004,8.049170e-004
-1.214417e-003,6.425274e-004
-1.643890e-003,5.339436e-004
-1.884882e-003,4.760863e-004
-1.864785e-003,4.632831e-004
-1.609856e-003,4.773828e-004
-1.203721e-003,4.887274e-004
-7.385933e-004,4.658761e-004
-2.768693e-004,3.901916e-004
1.587623e-004,2.704253e-004
5.700842e-004,1.312112e-004
9.608240e-004,-2.006553e-006
1.319799e-003,-1.112386e-004
1.616704e-003,-1.885437e-004
1.823824e-003,-2.404046e-004
1.915877e-003,-2.788141e-004
1.884760e-003,-3.131719e-004
1.740846e-003,-3.433161e-004
1.505202e-003,-3.685983e-004
1.201005e-003,-3.854531e-004
8.656915e-004,-3.958252e-004
5.470709e-004,-4.110594e-004
2.905214e-004,-4.455793e-004
1.323456e-004,-5.079744e-004
8.388807e-005,-5.950035e-004
1.197045e-004,-6.969426e-004
1.914995e-004,-8.019609e-004
2.532463e-004,-8.975794e-004
2.903593e-004,-9.731018e-004
3.033245e-004,-1.023504e-003
2.986247e-004,-1.047490e-003
2.842008e-004,-1.047976e-003
2.684805e-004,-1.029501e-003
2.605393e-004,-9.996805e-004
2.704253e-004,-9.658089e-004
3.042970e-004,-9.299924e-004
3.636129e-004,-8.902864e-004
4.428628e-004,-8.468530e-004
5.360505e-004,-8.056884e-004
6.457687e-004,-7.674409e-004
7.750969e-004,-7.329211e-004
9.162560e-004,-6.964564e-004
1.045584e-003,-6.420024e-004
1.128238e-003,-5.583767e-004
1.118514e-003,-4.510895e-004
9.694134e-004,-3.395886e-004
6.608408e-004,-2.478596e-004
2.106232e-004,-1.857886e-004
-3.271096e-004,-1.496481e-004
-8.825073e-004,-1.321450e-004
-1.376806e-003,-1.331174e-004
-1.724761e-003,-1.561307e-004
-1.867054e-003,-1.951884e-004
-1.798663e-003,-2.323013e-004
-1.571285e-003,-2.449425e-004
-1.267899e-003,-2.238740e-004
-9.729397e-004,-1.687718e-004
-7.431312e-004,-9.389759e-005
-6.035930e-004,-2.226472e-005
-5.507597e-004,2.003433e-005
-5.642111e-004,9.662150e-006
-6.162340e-004,-6.521203e-005
-6.851118e-004,-2.028055e-004
-7.577171e-004,-3.799429e-004
-8.168708e-004,-5.476804e-004
-8.471771e-004,-6.497815e-004
-8.440978e-004,-6.395715e-004
-8.107124e-004,-4.898231e-004
-7.458862e-004,-2.222533e-004
-6.533470e-004,1.022015e-004
-5.462218e-004,4.104497e-004
-4.374760e-004,6.597064e-004
-3.366714e-004,8.434886e-004
-2.421874e-004,9.728169e-004
-1.480274e-004,1.047853e-003
-5.451572e-005,1.058874e-003
3.413401e-005,1.002313e-003
1.128978e-004,8.985908e-004
1.761032e-004,7.755831e-004
2.161334e-004,6.443101e-004
2.219677e-004,4.900239e-004
1.880961e-004,2.957075e-004
1.252147e-004,6.362991e-005
5.730935e-005,-1.830335e-004
2.207145e-006,-4.105732e-004
-2.793700e-005,-5.940311e-004
-2.307504e-005,-7.220627e-004
1.825161e-005,-7.927231e-004
9.004655e-005,-8.003402e-004
1.793446e-004,-7.374589e-004
2.555152e-004,-5.971103e-004
2.735045e-004,-3.831841e-004
2.090025e-004,-1.193418e-004
9.960841e-005,1.641104e-004
2.262738e-005,4.496696e-004
4.807163e-005,7.306910e-004
1.918236e-004,1.003771e-003
4.091532e-004,1.263725e-003
6.266450e-004,1.503258e-003
7.950310e-004,1.715888e-003
9.133389e-004,1.898698e-003
1.007337e-003,2.055578e-003
1.090801e-003,2.180693e-003
1.167133e-003,2.231582e-003
1.234229e-003,2.162055e-003
1.282524e-003,1.958987e-003
1.297758e-003,1.654465e-003
1.269721e-003,1.295813e-003
1.192091e-003,9.010218e-004
1.069408e-003,4.373526e-004
9.188490e-004,-1.396000e-004
7.621317e-004,-8.346980e-004
6.120591e-004,-1.597053e-003
4.603659e-004,-2.362813e-003
2.785285e-004,-3.049485e-003
2.862379e-005,-3.548810e-003
-3.118754e-004,-3.757227e-003
-7.248178e-004,-3.626439e-003
-1.166770e-003,-3.183675e-003
-1.591867e-003,-2.535736e-003
-1.932853e-003,-1.822000e-003
-2.112259e-003,-1.169525e-003
-2.099132e-003,-6.637191e-004
-1.953759e-003,-3.235441e-004
-1.771436e-003,-1.146419e-004
-1.604346e-003,1.727922e-005
-1.433367e-003,1.242423e-004
-1.197400e-003,2.521119e-004
-8.504183e-004,4.582590e-004
-4.130042e-004,7.613214e-004
3.753739e-005,1.098580e-003
4.182289e-004,1.374091e-003
6.812610e-004,1.528540e-003
8.144788e-004,1.558684e-003
8.227442e-004,1.500665e-003
7.224257e-004,1.400508e-003
5.524190e-004,1.301324e-003
3.572923e-004,1.237956e-003
1.611932e-004,1.220939e-003
-4.138842e-005,1.224667e-003
-2.731418e-004,1.188364e-003
-5.441150e-004,1.013171e-003
-8.372911e-004,5.623050e-004
-1.114261e-003,-2.172293e-004
-1.328673e-003,-1.227220e-003
-1.433691e-003,-2.261846e-003
-1.387179e-003,-3.100373e-003
-1.186542e-003,-3.573444e-003
-8.752144e-004,-3.591757e-003
-5.176983e-004,-3.193075e-003
-1.632615e-004,-2.520016e-003
1.822617e-004,-1.713578e-003
5.355643e-004,-8.697041e-004
9.109079e-004,-6.116039e-005
1.297434e-003,6.666752e-004
1.667916e-003,1.315910e-003
1.986862e-003,1.892053e-003
2.215537e-003,2.333197e-003
2.320718e-003,2.537238e-003
2.279877e-003,2.479867e-003
2.079563e-003,2.253623e-003
1.731608e-003,2.024623e-003
1.284469e-003,1.947480e-003
8.060515e-004,2.078105e-003
3.603715e-004,2.348755e-003
7.879432e-006,2.605144e-003
-2.039399e-004,2.690229e-003
-2.570974e-004,2.507742e-003
-1.712027e-004,2.042613e-003
-3.465141e-006,1.348971e-003
1.720516e-004,5.365367e-004
2.790148e-004,-2.331117e-004
2.560015e-004,-7.787855e-004
8.113296e-005,-9.834740e-004
-1.958367e-004,-8.324291e-004
-4.698891e-004,-4.282383e-004
-6.408680e-004,4.871989e-005
-6.552918e-004,4.226047e-004
-5.071641e-004,6.008766e-004
-2.438080e-004,5.764047e-004
4.871989e-005,3.934329e-004
2.864697e-004,1.062531e-004
4.222805e-004,-2.371633e-004
4.529109e-004,-5.873864e-004
4.078567e-004,-8.898003e-004
3.234207e-004,-1.098378e-003
2.279642e-004,-1.193511e-003
1.373696e-004,-1.188811e-003
4.823370e-005,-1.128360e-003
-7.250496e-005,-1.050245e-003
-2.605007e-004,-9.716432e-004
-5.147812e-004,-8.930415e-004
-7.911025e-004,-8.063366e-004
-1.015563e-003,-7.053699e-004
-1.117016e-003,-5.953276e-004
-1.059321e-003,-4.916058e-004
-8.510666e-004,-4.173799e-004
-5.373082e-004,-3.935563e-004
-1.861127e-004,-4.222419e-004
1.385041e-004,-4.792889e-004
3.978086e-004,-5.350393e-004
5.859666e-004,-5.621043e-004
7.206430e-004,-5.450874e-004
8.177201e-004,-4.935506e-004
8.676364e-004,-4.261314e-004
8.269579e-004,-3.626019e-004
6.481997e-004,-3.198166e-004
3.188828e-004,-3.005308e-004
-1.136696e-004,-2.979378e-004
-5.562698e-004,-2.955068e-004
-9.077895e-004,-2.793003e-004
-1.089141e-003,-2.397564e-004
-1.081848e-003,-1.757406e-004
-9.267511e-004,-9.503204e-005
-6.924047e-004,-1.156841e-005
-4.428242e-004,6.849186e-005
-2.203085e-004,1.501728e-004
-4.430560e-005,2.478982e-004
7.951231e-005,3.593992e-004
1.522796e-004,4.726828e-004
1.806411e-004,5.738117e-004
1.733481e-004,6.516031e-004
1.422316e-004,6.989262e-004
1.070634e-004,7.157810e-004
8.826383e-005,7.045984e-004
9.199134e-005,6.606788e-004
1.112771e-004,5.854804e-004
1.307250e-004,4.935893e-004
1.406109e-004,4.091532e-004
1.328318e-004,3.482167e-004
1.075496e-004,3.143450e-004
6.978839e-005,2.979764e-004
2.635488e-005,2.793389e-004
-9.137427e-006,2.321778e-004
-1.869928e-005,1.310491e-004
1.889987e-005,-3.506788e-005
1.208390e-004,-2.512630e-004
3.023522e-004,-4.755614e-004
5.621430e-004,-6.616123e-004
8.750914e-004,-7.800820e-004
1.206678e-003,-8.199501e-004
1.533240e-003,-7.802441e-004
1.845216e-003,-6.776568e-004
2.135476e-003,-5.441150e-004
2.383762e-003,-4.237005e-004
2.559927e-003,-3.426678e-004
2.630912e-003,-2.891863e-004
2.573865e-003,-2.261429e-004
2.373227e-003,-1.267968e-004
2.018141e-003,1.873781e-005
1.515250e-003,1.968476e-004
9.028045e-004,3.694472e-004
2.214815e-004,4.974789e-004
-5.123502e-004,5.501501e-004
-1.305174e-003,5.091476e-004
-2.144672e-003,3.720403e-004
-2.964238e-003,1.509831e-004
-3.694021e-003,-1.287416e-004
-4.267087e-003,-4.152731e-004
-4.601593e-003,-6.439472e-004
-4.624444e-003,-7.609584e-004
-4.336776e-003,-7.504240e-004
-3.842636e-003,-6.304958e-004
-3.282373e-003,-4.403932e-004
-2.736374e-003,-2.188499e-004
-2.193778e-003,5.610517e-006
-1.593488e-003,2.137024e-004
-8.865589e-004,3.948915e-004
-8.482193e-005,5.388056e-004
7.268014e-004,6.378276e-004
1.430166e-003,6.898505e-004
1.902263e-003,7.011951e-004
2.012793e-003,6.917953e-004
1.685257e-003,6.828817e-004
9.940475e-004,6.900126e-004
1.908512e-004,7.183740e-004
-4.217557e-004,7.637524e-004
-6.776568e-004,8.146409e-004
-5.985689e-004,8.533746e-004
-3.071755e-004,8.653674e-004
4.969229e-005,8.465679e-004
3.697714e-004,7.992447e-004
6.190279e-004,7.293945e-004
8.094548e-004,6.520892e-004
9.658480e-004,5.793219e-004
1.101335e-003,5.266506e-004
1.216077e-003,5.138475e-004
1.304565e-003,5.459364e-004
1.368257e-003,6.002283e-004
1.405856e-003,6.417171e-004
1.408449e-003,6.404206e-004
1.368905e-003,5.791598e-004
1.296624e-003,4.535592e-004
1.213646e-003,2.932765e-004
1.147037e-003,1.686482e-004
1.117379e-003,1.688103e-004
1.122241e-003,3.221241e-004
1.098580e-003,5.449640e-004
9.467243e-004,7.214533e-004
6.144901e-004,7.820658e-004
1.432040e-004,7.274497e-004
-3.582261e-004,6.047662e-004
-7.478310e-004,4.702519e-004
-8.964449e-004,3.508097e-004
-7.598239e-004,2.362295e-004
-4.100870e-004,9.960841e-005
7.069105e-006,-7.201877e-005
3.451374e-004,-2.540181e-004
5.290816e-004,-3.925839e-004
5.648981e-004,-4.395829e-004
5.104441e-004,-3.966356e-004
4.261701e-004,-3.248407e-004
3.472443e-004,-3.275957e-004
2.814457e-004,-5.061917e-004
2.237505e-004,-9.223754e-004
1.569795e-004,-1.575174e-003
6.719535e-005,-2.383395e-003
-5.013995e-005,-3.180920e-003
-1.848162e-004,-3.765168e-003
-3.100927e-004,-3.988819e-003
-3.963114e-004,-3.820271e-003
-4.356933e-004,-3.346065e-003
-4.369898e-004,-2.720329e-003
-4.165696e-004,-2.093946e-003
-3.895047e-004,-1.562371e-003
-3.629260e-004,-1.145377e-003
-3.284061e-004,-8.149261e-004
-2.767073e-004,-5.241810e-004
-2.044261e-004,-2.384598e-004
-1.144799e-004,5.001642e-005
-1.643037e-005,3.198552e-004
7.983644e-005,5.460985e-004
1.676758e-004,7.208050e-004
2.448189e-004,8.483506e-004
3.117519e-004,9.382969e-004
3.725265e-004,9.927510e-004
4.263322e-004,1.011713e-003
4.650658e-004,9.946957e-004
4.757621e-004,9.434830e-004
4.418904e-004,8.577504e-004
3.467581e-004,7.400909e-004
1.970097e-004,6.167590e-004
4.320967e-005,5.598741e-004
-5.159854e-005,6.494962e-004
-5.143648e-005,8.930806e-004
4.742337e-005,1.217374e-003
2.198609e-004,1.529836e-003
4.240633e-004,1.741332e-003
6.018490e-004,1.731608e-003
7.018434e-004,1.309751e-003
6.921195e-004,3.585888e-004
5.556603e-004,-9.436059e-004
3.042970e-004,-2.178058e-003
-1.626830e-005,-2.991627e-003
-3.449367e-004,-3.201665e-003
-6.309819e-004,-2.812707e-003
-8.342119e-004,-1.977907e-003
-9.434438e-004,-9.111929e-004
-9.978978e-004,1.728619e-004
-1.064831e-003,1.077835e-003
-1.192214e-003,1.693685e-003
-1.367569e-003,2.005823e-003
-1.531417e-003,2.079402e-003
-1.613908e-003,2.023651e-003
-1.572095e-003,1.947642e-003
-1.395768e-003,1.923656e-003
-1.111992e-003,1.980379e-003
-7.867267e-004,2.106953e-003
-4.862577e-004,2.254433e-003
-2.556388e-004,2.352969e-003
-1.287416e-004,2.339193e-003
-1.201522e-004,2.183448e-003
-2.149604e-004,1.908746e-003
-3.762153e-004,1.567273e-003
-5.689110e-004,1.212350e-003
-7.716547e-004,8.846532e-004
-9.649985e-004,6.068730e-004
-1.115557e-003,3.884089e-004
-1.173901e-003,2.268297e-004
-1.101458e-003,1.201907e-004
-8.933656e-004,9.280167e-005
-5.869002e-004,1.730240e-004
-2.370013e-004,3.615060e-004
9.652917e-005,6.292380e-004
3.725265e-004,9.125285e-004
5.634395e-004,1.131479e-003
6.584098e-004,1.221263e-003
6.729957e-004,1.149630e-003
6.473894e-004,9.261420e-004
6.331276e-004,6.033076e-004
6.665131e-004,2.759355e-004
7.498147e-004,3.640293e-005
8.663398e-004,-6.504996e-005
9.930751e-004,-3.928157e-005
1.111707e-003,3.996837e-005
1.209108e-003,5.066468e-005
1.283497e-003,-1.384655e-004
1.336492e-003,-6.416783e-004
1.371822e-003,-1.495276e-003
1.391270e-003,-2.605911e-003
1.377657e-003,-3.765492e-003
1.294679e-003,-4.717795e-003
1.096959e-003,-4.968512e-003
7.546768e-004,-4.968512e-003
3.021901e-004,-4.873865e-003
-1.634236e-004,-4.181516e-003
-5.467080e-004,-3.436174e-003
-8.011505e-004,-2.798283e-003
-9.304786e-004,-2.308034e-003
-9.700225e-004,-1.910326e-003
-9.632158e-004,-1.527365e-003
-9.367992e-004,-1.124147e-003
-8.983897e-004,-7.147697e-004
-8.641939e-004,-3.528779e-004
-8.509046e-004,-9.324933e-005
-8.418289e-004,4.418206e-005
-7.885094e-004,8.194328e-005
-6.415162e-004,6.103686e-005
-3.885323e-004,9.662150e-006
-8.158062e-005,-7.234290e-005
1.743205e-004,-1.874093e-004
2.811216e-004,-3.125237e-004
2.130541e-004,-4.086284e-004
5.374392e-005,-4.467137e-004
-4.074016e-005,-4.151110e-004
3.932010e-005,-3.267854e-004
2.897111e-004,-2.126914e-004
6.214589e-004,-9.811128e-005
9.254937e-004,-2.168618e-006
1.127427e-003,5.714729e-005
1.202140e-003,9.361199e-005
1.176533e-003,1.816135e-004
1.112193e-003,3.863020e-004
1.069408e-003,7.034640e-004
1.067301e-003,1.090638e-003
1.072325e-003,1.513954e-003
1.043153e-003,1.961904e-003
9.579068e-004,2.413420e-003
8.186926e-004,2.806430e-003
6.394482e-004,3.058281e-003
4.320045e-004,3.112250e-003
1.939304e-004,2.970927e-003
-1.005423e-004,2.703356e-003
-4.637306e-004,2.403858e-003
-8.517149e-004,2.130614e-003
-1.161422e-003,1.902912e-003
-1.287671e-003,1.730798e-003
-1.191566e-003,1.636800e-003
-9.184858e-004,1.653979e-003
-5.677765e-004,1.794814e-003
-2.606628e-004,2.029161e-003
-9.956988e-005,2.291060e-003
-1.196660e-004,2.513901e-003
-2.627696e-004,2.649712e-003
-4.057112e-004,2.651333e-003
-4.284004e-004,2.484404e-003
-2.776796e-004,2.153628e-003
1.857574e-005,1.711836e-003
3.806297e-004,1.253676e-003
7.263153e-004,8.833567e-004
1.000854e-003,6.551685e-004
1.171833e-003,5.407503e-004
1.227584e-003,4.417284e-004
1.178316e-003,2.354192e-004
1.044774e-003,-1.665028e-004
8.459196e-004,-7.802441e-004
6.047662e-004,-1.523314e-003
3.621543e-004,-2.227164e-003
1.678379e-004,-2.711253e-003
6.217132e-005,-2.873481e-003
5.163707e-005,-2.723084e-003
1.098185e-004,-2.353413e-003
1.983062e-004,-1.895578e-003
2.850112e-004,-1.464322e-003
3.572923e-004,-1.135977e-003
4.143393e-004,-9.377715e-004
4.587452e-004,-8.538218e-004
4.918066e-004,-8.484736e-004
5.136854e-004,-8.791040e-004
5.195198e-004,-9.149204e-004
5.025029e-004,-9.403646e-004
4.559901e-004,-9.543023e-004
3.806297e-004,-9.525195e-004
2.804733e-004,-9.351785e-004
1.655690e-004,-9.043861e-004
5.244739e-005,-8.594940e-004
-4.560212e-005,-8.074710e-004
-1.185315e-004,-7.570688e-004
-1.618029e-004,-7.189835e-004
-1.799543e-004,-6.945116e-004
-1.883817e-004,-6.776568e-004
-1.977815e-004,-6.676087e-004
-2.146363e-004,-6.703638e-004
-2.431597e-004,-6.838153e-004
-2.924276e-004,-6.919185e-004
-3.702189e-004,-6.723086e-004
-4.695649e-004,-6.078067e-004
-5.698834e-004,-4.967919e-004
-6.470265e-004,-3.577399e-004
-6.864083e-004,-2.617972e-004
-6.815463e-004,-3.309991e-004
-6.361681e-004,-6.150996e-004
-5.637249e-004,-1.020263e-003
-4.737787e-004,-1.369351e-003
-3.710293e-004,-1.498842e-003
-2.580697e-004,-1.326566e-003
-1.483515e-004,-8.633836e-004
-6.521203e-005,-1.900023e-004
-3.360929e-005,5.765668e-004
-6.699475e-005,1.309751e-003
-1.507825e-004,1.899670e-003
-2.442942e-004,2.265615e-003
-2.870794e-004,2.354752e-003
-2.126914e-004,2.170645e-003
9.013889e-006,1.800324e-003
3.383307e-004,1.401318e-003
6.772094e-004,1.140555e-003
9.130147e-004,1.087721e-003
9.611481e-004,1.176695e-003
7.775280e-004,1.251408e-003
3.874365e-004,1.135369e-003
-1.144799e-004,7.201568e-004
-6.008379e-004,7.546067e-005
-9.669433e-004,-5.849554e-004
-1.153480e-003,-1.038576e-003
-1.158505e-003,-1.165960e-003
-1.037118e-003,-9.614331e-004
-8.752144e-004,-5.121881e-004
-7.483172e-004,5.260946e-005
-6.679329e-004,6.057385e-004
-5.695592e-004,1.037967e-003
-3.713534e-004,1.273773e-003
-5.273300e-005,1.292572e-003
3.226103e-004,1.141689e-003
6.546823e-004,9.102596e-004
8.553194e-004,6.864472e-004
8.752534e-004,5.102821e-004
6.964952e-004,3.877606e-004
3.292550e-004,2.989488e-004
-1.789819e-004,2.174299e-004
-7.418346e-004,1.313732e-004
-1.251692e-003,4.612685e-005
-1.600294e-003,-2.356124e-005
-1.741454e-003,-6.699475e-005
-1.723626e-003,-7.315322e-005
-1.640649e-003,-4.025397e-005
-1.571933e-003,2.765140e-005
-1.559454e-003,1.206769e-004
-1.612936e-003,2.177540e-004
-1.693968e-003,2.948972e-004
-1.717468e-003,3.305515e-004
-1.603212e-003,3.167760e-004
-1.329321e-003,2.560015e-004
-9.478196e-004,1.626518e-004
-5.494631e-004,5.811968e-005
-2.131776e-004,-1.659243e-005
2.910999e-005,-3.247483e-005
1.984683e-004,7.069105e-006
3.448133e-004,7.481241e-005
5.089855e-004,1.376938e-004
6.934160e-004,1.654069e-004
8.720121e-004,1.323456e-004
1.017223e-003,3.380988e-005
1.115110e-003,-9.924574e-005
1.164702e-003,-1.807646e-004
1.177181e-003,-1.036215e-004
1.170861e-003,1.620036e-004
1.154492e-003,5.362125e-004
1.130993e-003,8.802774e-004
1.096797e-003,1.061467e-003
1.047529e-003,9.789753e-004
9.809202e-004,5.974732e-004
9.000494e-004,-3.604027e-005
8.105893e-004,-7.941817e-004
7.193465e-004,-1.511159e-003
6.363689e-004,-2.049054e-003
5.686256e-004,-2.339637e-003
5.187094e-004,-2.396036e-003
4.890515e-004,-2.309655e-003
4.767345e-004,-2.211767e-003
4.739794e-004,-2.210471e-003
4.707381e-004,-2.337044e-003
4.605280e-004,-2.533630e-003
4.469145e-004,-2.703312e-003
4.467524e-004,-2.760035e-003
4.790034e-004,-2.657610e-003
5.529052e-004,-2.413377e-003
6.566271e-004,-2.097998e-003
7.723419e-004,-1.788777e-003
8.895152e-004,-1.516669e-003
1.004582e-003,-1.264171e-003
1.108304e-003,-1.010053e-003
1.186257e-003,-7.468587e-004
1.221912e-003,-4.859335e-004
1.201978e-003,-2.465631e-004
1.113490e-003,-4.446767e-005
9.519104e-004,1.107909e-004
7.136742e-004,2.127300e-004
4.102877e-004,2.696149e-004
7.043665e-005,3.015418e-004
-2.554767e-004,3.315239e-004
-4.984126e-004,3.803056e-004
-6.021344e-004,4.665244e-004
-5.716661e-004,5.984457e-004
-4.846370e-004,7.746107e-004
-4.360174e-004,9.835132e-004
-4.779923e-004,1.204084e-003
-6.076446e-004,1.408773e-003
-7.865646e-004,1.568570e-003
-9.510609e-004,1.661110e-003
-1.032742e-003,1.677640e-003
-1.004543e-003,1.622052e-003
-9.233478e-004,1.512981e-003
-8.979035e-004,1.373119e-003
-1.001787e-003,1.226125e-003
-1.192376e-003,1.095338e-003
-1.318139e-003,1.000692e-003
-1.235810e-003,9.511001e-004
-9.163790e-004,9.415382e-004
-4.457413e-004,9.549896e-004
3.089271e-005,9.697376e-004
4.013741e-004,9.681169e-004
6.379896e-004,9.467243e-004
7.812555e-004,9.180387e-004
8.921082e-004,9.005356e-004
1.002799e-003,9.053976e-004
1.102145e-003,9.387831e-004
1.150279e-003,9.984232e-004
1.116245e-003,1.071839e-003
9.911302e-004,1.144444e-003
7.914656e-004,1.201005e-003
5.632775e-004,1.231474e-003
3.668542e-004,1.232608e-003
2.401191e-004,1.208622e-003
1.924718e-004,1.162920e-003
2.175920e-004,1.096473e-003
2.916559e-004,1.010254e-003
3.747954e-004,9.096113e-004
4.256839e-004,7.985964e-004
4.143393e-004,6.812610e-004
3.389789e-004,5.627912e-004
2.206712e-004,4.490213e-004
8.567078e-005,3.457857e-004
-3.685060e-005,2.581083e-004
-1.230693e-004,1.892305e-004
-1.687718e-004,1.386662e-004
-1.815749e-004,9.442231e-005
-1.642339e-004,3.818565e-005
-1.237176e-004,-3.863332e-005
-8.984595e-005,-1.284175e-004
-1.133454e-004,-2.141500e-004
-2.183637e-004,-2.831898e-004
-3.604950e-004,-3.282440e-004
-4.580583e-004,-3.501228e-004
-4.465517e-004,-3.535262e-004
-3.107410e-004,-3.423437e-004
-8.222889e-005,-3.217614e-004
1.736723e-004,-2.993964e-004
3.859779e-004,-2.817312e-004
5.068787e-004,-2.726556e-004
5.242196e-004,-2.771934e-004
4.529109e-004,-3.167374e-004
3.089969e-004,-4.248349e-004
1.010670e-004,-5.990551e-004
-1.580754e-004,-7.974231e-004
-4.525481e-004,-9.606228e-004
-7.731132e-004,-1.032094e-003
-1.118474e-003,-9.766672e-004
-1.481663e-003,-7.993678e-004
-1.814221e-003,-5.504355e-004
-2.036737e-003,-2.987481e-004
-2.086977e-003,-1.005423e-004
-1.944522e-003,1.274139e-005
-1.636759e-003,2.862379e-005
-1.230137e-003,-4.576419e-005
-8.050401e-004,-1.713648e-004
-4.324520e-004,-2.679557e-004
-1.532135e-004,-2.519113e-004
2.992031e-005,-8.060823e-005
1.498487e-004,2.363916e-004
2.433604e-004,6.444722e-004
3.326584e-004,1.059360e-003
4.214702e-004,1.403263e-003
5.055821e-004,1.639879e-003
5.788357e-004,1.775528e-003
6.375034e-004,1.836627e-003
6.804507e-004,1.859640e-003
7.076777e-004,1.877791e-003
7.201568e-004,1.897077e-003
7.258290e-004,1.874064e-003
7.272876e-004,1.735660e-003
7.243705e-004,1.430166e-003
7.151327e-004,9.499656e-004
7.047605e-004,3.109416e-004
7.016813e-004,-4.520619e-004
7.123777e-004,-1.268385e-003
7.316634e-004,-2.048406e-003
7.339324e-004,-2.712388e-003
6.778577e-004,-3.230350e-003
5.284334e-004,-3.639567e-003
2.723701e-004,-4.026905e-003
-7.526008e-005,-4.452654e-003
-4.770200e-004,-4.868193e-003
-8.674352e-004,-4.968188e-003
-1.162232e-003,-4.968350e-003
-1.275516e-003,-4.546976e-003
-1.163529e-003,-3.685917e-003
-8.562527e-004,-2.610287e-003
-4.496309e-004,-1.512941e-003
-6.488790e-005,-5.619422e-004
2.085163e-004,1.475797e-004
3.527545e-004,6.089798e-004
4.072085e-004,8.945392e-004
4.298976e-004,1.106845e-003
4.632831e-004,1.328065e-003
5.106062e-004,1.571811e-003
5.452881e-004,1.790762e-003
5.370228e-004,1.920415e-003
4.793275e-004,1.935001e-003
3.945674e-004,1.852833e-003
3.188828e-004,1.709729e-003
2.848491e-004,1.533240e-003
3.044590e-004,1.324499e-003
3.582647e-004,1.066815e-003
4.190393e-004,7.561353e-004
4.621486e-004,4.161220e-004
4.781931e-004,8.372601e-005
4.772207e-004,-2.136638e-004
4.684692e-004,-4.770200e-004
4.579349e-004,-7.400519e-004
4.451317e-004,-1.085575e-003
4.269804e-004,-1.584574e-003
3.866261e-004,-2.197830e-003
2.903593e-004,-2.801686e-003
1.130598e-004,-3.259846e-003
-1.387897e-004,-3.460160e-003
-4.287245e-004,-3.333748e-003
-7.215765e-004,-2.866999e-003
-9.931979e-004,-2.109342e-003
-1.224465e-003,-1.157532e-003
-1.385072e-003,-1.473791e-004
-1.437257e-003,7.713694e-004
-1.345366e-003,1.494506e-003
-1.100647e-003,1.997396e-003
-7.520447e-004,2.320718e-003
-3.969597e-004,2.536914e-003
-1.292278e-004,2.713080e-003
1.128280e-005,2.886653e-003
5.050261e-005,3.067195e-003
4.628891e-005,3.240606e-003
5.941620e-005,3.375608e-003
1.282940e-004,3.436221e-003
2.773941e-004,3.399269e-003
5.055821e-004,3.261999e-003
7.903311e-004,3.045316e-003
1.085614e-003,2.785524e-003
1.330982e-003,2.520059e-003
1.459986e-003,2.271774e-003
1.424007e-003,2.038561e-003
1.207002e-003,1.798541e-003
8.384645e-004,1.536319e-003
3.944053e-004,1.255297e-003
-1.189254e-005,9.684411e-004
-2.922655e-004,6.921195e-004
-4.275900e-004,4.402698e-004
-4.447690e-004,2.214815e-004
-3.959873e-004,3.380988e-005
-3.379679e-004,-1.408965e-004
-2.966413e-004,-3.295405e-004
-2.355427e-004,-5.480045e-004
-6.553616e-005,-8.006644e-004
2.757735e-004,-1.065479e-003
7.371737e-004,-1.307118e-003
1.147686e-003,-1.509376e-003
1.292572e-003,-1.687162e-003
1.016412e-003,-1.842906e-003
3.268240e-004,-1.937553e-003
-5.706937e-004,-1.911784e-003
-1.358007e-003,-1.751177e-003
-1.791694e-003,-1.493332e-003
-1.789749e-003,-1.168715e-003
-1.432881e-003,-7.829992e-004
-9.327476e-004,-3.262992e-004
-5.332566e-004,2.219677e-004
-3.695707e-004,8.737948e-004
-4.058733e-004,1.585587e-003
-4.789647e-004,2.274529e-003
-4.423380e-004,2.886491e-003
-2.600145e-004,3.414990e-003
2.623614e-007,3.850464e-003
2.278021e-004,4.145264e-003
3.234207e-004,4.224190e-003
2.428742e-004,4.029062e-003
-3.951337e-006,3.546102e-003
-3.768636e-004,2.805296e-003
-8.141157e-004,1.859964e-003
-1.221062e-003,7.815796e-004
-1.491549e-003,-3.227338e-004
-1.568206e-003,-1.303715e-003
-1.458650e-003,-2.047109e-003
-1.225438e-003,-2.511427e-003
-9.641882e-004,-2.750473e-003
-7.424829e-004,-2.879640e-003
-5.364979e-004,-2.985631e-003
-2.590421e-004,-3.066015e-003
1.266733e-004,-3.045271e-003
5.467468e-004,-2.852089e-003
8.705535e-004,-2.488575e-003
9.968026e-004,-2.042733e-003
9.078286e-004,-1.627197e-003
6.645683e-004,-1.322677e-003
3.645853e-004,-1.151860e-003
9.377406e-005,-1.079417e-003
-9.551824e-005,-1.037766e-003
-1.796301e-004,-9.737500e-004
-1.583996e-004,-8.813728e-004
-5.176061e-005,-7.980713e-004
1.041462e-004,-7.737615e-004
2.735045e-004,-8.382635e-004
4.300596e-004,-9.930359e-004
5.627912e-004,-1.218469e-003
6.705648e-004,-1.478745e-003
7.548388e-004,-1.727678e-003
8.243649e-004,-1.911946e-003
9.013460e-004,-1.983741e-003
1.005878e-003,-1.922967e-003
1.142013e-003,-1.749557e-003
1.299703e-003,-1.506945e-003
1.458527e-003,-1.239861e-003
1.596769e-003,-9.766672e-004
1.694333e-003,-7.311383e-004
1.730474e-003,-5.196431e-004
1.692874e-003,-3.663294e-004
1.584777e-003,-2.985861e-004
1.418173e-003,-3.329439e-004
1.210405e-003,-4.600031e-004
9.776788e-004,-6.455678e-004
7.340944e-004,-8.316188e-004
4.979651e-004,-9.565711e-004
2.958695e-004,-9.732639e-004
1.500107e-004,-8.677593e-004
5.811968e-005,-6.676087e-004
8.041497e-006,-4.295348e-004
-1.464765e-005,-2.062088e-004
-2.469570e-005,-2.210265e-005
-3.733679e-005,1.430419e-004
-6.910160e-005,3.297412e-004
-1.433275e-004,5.683015e-004
-2.744383e-004,8.658536e-004
-4.603272e-004,1.208298e-003
-6.710121e-004,1.563222e-003
-8.475012e-004,1.892378e-003
-9.353406e-004,2.163189e-003
-9.128135e-004,2.342597e-003
-7.958024e-004,2.401751e-003
-6.290372e-004,2.330442e-003
-4.672960e-004,2.157517e-003
-3.546606e-004,1.952828e-003
-3.154408e-004,1.795300e-003
-3.601709e-004,1.716050e-003
-4.694029e-004,1.673913e-003
-5.967862e-004,1.582346e-003
-6.852738e-004,1.353509e-003
-6.943495e-004,9.405658e-004
-6.125065e-004,3.423823e-004
-4.564377e-004,-3.724878e-004
-2.619593e-004,-1.052028e-003
-6.553616e-005,-1.528662e-003
1.065772e-004,-1.698992e-003
2.543808e-004,-1.559130e-003
3.926226e-004,-1.184111e-003
5.238955e-004,-6.959701e-004
6.319932e-004,-2.165810e-004
6.969814e-004,1.654069e-004
7.102708e-004,4.190393e-004
6.817472e-004,5.613327e-004
6.261588e-004,6.245382e-004
5.477191e-004,6.418792e-004
4.496696e-004,6.379896e-004
3.420582e-004,6.245382e-004
2.415777e-004,5.999042e-004
1.618415e-004,5.645740e-004
1.057669e-004,5.331332e-004
5.811968e-005,5.311884e-004
-1.108221e-005,5.751082e-004
-1.282554e-004,6.582477e-004
-3.027998e-004,7.546768e-004
-5.236948e-004,8.368439e-004
-7.603101e-004,8.836808e-004
-9.638641e-004,8.878945e-004
-1.080875e-003,8.827084e-004
-1.075851e-003,9.360280e-004
-9.395542e-004,1.087721e-003
-6.888393e-004,1.322716e-003
-3.666535e-004,1.583642e-003
-3.976777e-005,1.784766e-003
2.090025e-004,1.847647e-003
3.193690e-004,1.736308e-003
2.906835e-004,1.481541e-003
1.906891e-004,1.157085e-003
1.116012e-004,8.511057e-004
1.159770e-004,6.261588e-004
2.226160e-004,4.841895e-004
4.063981e-004,3.514580e-004
6.099523e-004,1.201907e-004
7.736384e-004,-2.846485e-004
8.444610e-004,-8.784557e-004
7.801210e-004,-1.628332e-003
5.647360e-004,-2.497489e-003
2.284504e-004,-3.464373e-003
-1.608306e-004,-4.465295e-003
-5.275843e-004,-4.968350e-003
-8.108745e-004,-4.968188e-003
-9.585159e-004,-4.968512e-003
-9.376095e-004,-4.968188e-003
-7.551240e-004,-3.964995e-003
-4.600031e-004,-2.669603e-003
-1.361966e-004,-1.346338e-003
1.172735e-004,-1.055663e-004
2.143507e-004,9.839993e-004
1.120874e-004,1.887840e-003
-1.729855e-004,2.598175e-003
-5.640491e-004,3.101229e-003
-9.593263e-004,3.376904e-003
-1.280378e-003,3.413531e-003
-1.489280e-003,3.247737e-003
-1.578740e-003,2.966228e-003
-1.561723e-003,2.665594e-003
-1.463349e-003,2.421361e-003
-1.305822e-003,2.271612e-003
-1.103726e-003,2.209540e-003
-8.685697e-004,2.201599e-003
-5.898174e-004,2.195927e-003
-2.378116e-004,2.148928e-003
2.135403e-004,2.029323e-003
7.514353e-004,1.824958e-003
1.302458e-003,1.536643e-003
1.743601e-003,1.178802e-003
1.956069e-003,7.844968e-004
1.893188e-003,4.140152e-004
1.619621e-003,1.359110e-004
1.284145e-003,-1.497178e-005
1.031323e-003,-4.479180e-005
9.209559e-004,9.986281e-006
9.298695e-004,9.944634e-005
9.929130e-004,1.697827e-004
1.039426e-003,1.879340e-004
1.024516e-003,1.440143e-004
9.421865e-004,4.871989e-005
7.974620e-004,-7.704279e-005
5.606844e-004,-2.112329e-004
1.911753e-004,-3.290543e-004
-2.895104e-004,-4.134903e-004
-7.711684e-004,-4.541688e-004
-1.114099e-003,-4.531963e-004
-1.216038e-003,-4.248349e-004
-1.060455e-003,-3.942046e-004
-7.288694e-004,-3.856151e-004
-3.538503e-004,-4.108973e-004
-5.111234e-005,-4.601652e-004
1.175977e-004,-5.180225e-004
1.464453e-004,-5.728005e-004
7.335383e-005,-6.206098e-004
-4.479180e-005,-6.642053e-004
-1.720131e-004,-7.173628e-004
-3.128478e-004,-7.977472e-004
-4.984126e-004,-9.131377e-004
-7.520447e-004,-1.050731e-003
-1.050569e-003,-1.177790e-003
-1.323325e-003,-1.246020e-003
-1.495925e-003,-1.220089e-003
-1.536927e-003,-1.106482e-003
-1.447143e-003,-9.427955e-004
-1.246020e-003,-7.760304e-004
-9.596504e-004,-6.400577e-004
-6.202856e-004,-5.358497e-004
-2.775176e-004,-4.293727e-004
5.286387e-006,-2.961551e-004
1.714034e-004,-1.420310e-004
2.099749e-004,7.555301e-006
1.688103e-004,1.203528e-004
1.114392e-004,1.670276e-004
8.988449e-005,1.318594e-004
1.347766e-004,2.327564e-005
2.532463e-004,-1.292278e-004
4.289252e-004,-2.921034e-004
6.279415e-004,-4.395829e-004
8.160995e-004,-5.608077e-004
9.726548e-004,-6.729569e-004
1.085776e-003,-8.149261e-004
1.150116e-003,-1.026097e-003
1.165675e-003,-1.326890e-003
1.136503e-003,-1.697696e-003
1.065356e-003,-2.099132e-003
9.485070e-004,-2.479662e-003
7.835244e-004,-2.769435e-003
5.836976e-004,-2.890660e-003
3.756057e-004,-2.787424e-003
1.767515e-004,-2.454866e-003
6.096713e-006,-1.961700e-003
-1.070249e-004,-1.433853e-003
-1.389517e-004,-9.839601e-004
-8.595638e-005,-6.658260e-004
3.478228e-005,-4.570859e-004
2.025199e-004,-2.815692e-004
3.955397e-004,-5.532604e-005
5.845079e-004,2.636185e-004
7.323117e-004,6.470652e-004
8.112376e-004,1.010254e-003
8.076721e-004,1.211539e-003
7.313393e-004,1.121107e-003
6.020110e-004,7.383081e-004
4.448076e-004,2.007372e-004
2.903593e-004,-2.995585e-004
1.756171e-004,-6.146134e-004
1.211631e-004,-6.693914e-004
1.175977e-004,-4.556273e-004
1.386662e-004,-1.999580e-005
1.436902e-004,5.462606e-004
9.701536e-005,1.122403e-003
-1.902341e-005,1.596121e-003
-1.885437e-004,1.894971e-003
-3.886944e-004,2.006796e-003
-5.974344e-004,1.977624e-003
-7.846198e-004,1.882978e-003
-9.060067e-004,1.794328e-003
-9.264270e-004,1.755594e-003
-8.340498e-004,1.773097e-003
-6.449196e-004,1.819772e-003
-4.068457e-004,1.855264e-003
-1.760647e-004,1.844730e-003
1.396819e-006,1.770504e-003
1.062531e-004,1.639555e-003
1.582761e-004,1.474572e-003
1.926339e-004,1.309913e-003
2.287745e-004,1.170375e-003
2.697770e-004,1.065032e-003
3.060797e-004,9.810822e-004
3.196932e-004,9.005356e-004
2.947351e-004,8.157754e-004
2.143507e-004,7.255049e-004
6.249545e-005,6.332897e-004
-1.660166e-004,5.404262e-004
-4.444448e-004,4.451317e-004
-7.082871e-004,3.451374e-004
-8.755385e-004,2.427121e-004
-8.881796e-004,1.417454e-004
-7.366485e-004,4.628891e-005
-4.622720e-004,-4.041603e-005
-1.473791e-004,-1.209625e-004
1.227837e-004,-2.018331e-004
2.973281e-004,-2.898345e-004
3.722023e-004,-3.778360e-004
3.845193e-004,-4.309934e-004
3.932708e-004,-4.131662e-004
4.506420e-004,-3.369955e-004
5.777013e-004,-2.574215e-004
7.551629e-004,-2.227395e-004
9.395934e-004,-2.532078e-004
1.072325e-003,-3.462333e-004
1.094852e-003,-4.932265e-004
9.757340e-004,-6.833291e-004
7.214533e-004,-8.920691e-004
3.749574e-004,-1.086385e-003
-1.270286e-005,-1.229813e-003
-3.873979e-004,-1.305660e-003
-6.920806e-004,-1.324135e-003
-8.710006e-004,-1.311818e-003
-8.922312e-004,-1.279081e-003
-7.520447e-004,-1.213769e-003
-4.676201e-004,-1.092058e-003
-6.796714e-005,-9.011448e-004
3.918123e-004,-6.580469e-004
8.421920e-004,-4.011734e-004
1.208622e-003,-1.583996e-004
1.441024e-003,6.119892e-005
1.535509e-003,2.666978e-004
1.523678e-003,4.931031e-004
1.445076e-003,8.079963e-004
1.326444e-003,1.243953e-003
1.171995e-003,1.758511e-003
9.528828e-004,2.267722e-003
6.225934e-004,2.700763e-003
1.654069e-004,3.013551e-003
-3.742705e-004,3.178535e-003
-9.111929e-004,3.183559e-003
-1.359466e-003,3.039482e-003
-1.652480e-003,2.795247e-003
-1.758957e-003,2.524921e-003
-1.682300e-003,2.281498e-003
-1.458001e-003,2.075026e-003
-1.160287e-003,1.862719e-003
-8.825073e-004,1.563060e-003
-6.724707e-004,1.081401e-003
-5.071641e-004,3.490270e-004
-3.149546e-004,-6.369784e-004
-4.236082e-005,-1.790883e-003
3.102934e-004,-2.981903e-003
7.084881e-004,-4.035170e-003
1.110572e-003,-4.765442e-003
1.463876e-003,-4.968512e-003
1.684771e-003,-4.894285e-003
1.679261e-003,-4.364814e-003
1.409584e-003,-3.609747e-003
9.460760e-004,-2.778511e-003
4.506420e-004,-1.997031e-003
7.546067e-005,-1.346824e-003
-1.280934e-004,-8.531735e-004
-2.052365e-004,-4.958195e-004
-2.515871e-004,-2.337599e-004
-3.660052e-004,-3.231277e-005
-6.066722e-004,1.258630e-004
-9.439300e-004,2.475741e-004
-1.299015e-003,3.333067e-004
-1.620553e-003,3.893813e-004
-1.884882e-003,4.227667e-004
-2.065098e-003,4.397836e-004
-2.122307e-003,4.501558e-004
-2.020692e-003,4.624728e-004
-1.780511e-003,4.859722e-004
-1.479556e-003,5.203301e-004
-1.197724e-003,5.567948e-004
-9.507368e-004,5.825632e-004
-6.971046e-004,5.836976e-004
-4.000390e-004,5.482053e-004
-7.947377e-005,4.710622e-004
1.916615e-004,3.610198e-004
3.261758e-004,2.495189e-004
2.760976e-004,1.731861e-004
4.531652e-005,1.310491e-004
-3.018274e-004,7.578480e-005
-6.633950e-004,-3.798505e-005
-9.445783e-004,-2.058847e-004
-1.079417e-003,-3.755671e-004
-1.033714e-003,-4.831784e-004
-8.176812e-004,-4.963057e-004
-4.885266e-004,-4.237005e-004
-1.305243e-004,-2.969654e-004
1.576278e-004,-1.455964e-004
2.937627e-004,2.619281e-005
2.715597e-004,2.284504e-004
1.556830e-004,4.647417e-004
3.899597e-005,7.186982e-004
-1.221667e-005,9.627688e-004
8.203562e-006,1.161137e-003
4.888196e-005,1.270207e-003
4.985435e-005,1.266966e-003
-1.383732e-005,1.155951e-003
-1.217728e-004,9.650377e-004
-2.310048e-004,7.441425e-004
-2.912931e-004,5.418848e-004
-2.626076e-004,3.827366e-004
-1.370070e-004,2.603772e-004
6.152305e-005,1.492004e-004
2.950592e-004,2.846173e-005
5.248679e-004,-1.007043e-004
7.204809e-004,-2.220912e-004
8.665019e-004,-3.185201e-004
9.700617e-004,-3.961493e-004
1.038453e-003,-4.684305e-004
1.070056e-003,-5.493010e-004
1.062115e-003,-6.347094e-004
1.021437e-003,-7.040734e-004
9.671446e-004,-7.293556e-004
9.274385e-004,-7.013183e-004
9.251696e-004,-6.317923e-004
9.528828e-004,-5.475183e-004
9.695755e-004,-4.663236e-004
9.431589e-004,-3.841565e-004
8.690950e-004,-2.840002e-004
7.781762e-004,-1.579134e-004
7.172396e-004,-6.706447e-006
7.306910e-004,2.002510e-004
8.350612e-004,5.157923e-004
1.013171e-003,9.514242e-004
1.222884e-003,1.459500e-003
1.418659e-003,1.934839e-003
1.564843e-003,2.208082e-003
1.655923e-003,2.088801e-003
1.700329e-003,1.515899e-003
1.702760e-003,6.282657e-004
1.644579e-003,-3.078238e-004
1.499692e-003,-1.022370e-003
1.257404e-003,-1.367731e-003
9.211180e-004,-1.322028e-003
5.156302e-004,-9.533298e-004
1.023635e-004,-3.929081e-004
-2.579077e-004,1.795066e-004
-5.493010e-004,5.746220e-004
-7.987196e-004,6.480376e-004
-1.041493e-003,3.464339e-004
-1.294315e-003,-2.488320e-004
-1.548596e-003,-9.267511e-004
-1.791208e-003,-1.431260e-003
-1.997031e-003,-1.573554e-003
-2.125710e-003,-1.303229e-003
-2.144510e-003,-7.325969e-004
-2.032685e-003,-8.449780e-005
-1.783591e-003,4.247115e-004
-1.401765e-003,6.768853e-004
-9.051964e-004,6.859610e-004
-3.373197e-004,5.580913e-004
2.245608e-004,4.193634e-004
6.879058e-004,3.545372e-004
9.861062e-004,3.861400e-004
1.096797e-003,4.965065e-004
1.041046e-003,6.682958e-004
8.763879e-004,8.773603e-004
6.713751e-004,1.080428e-003
4.734932e-004,1.238766e-003
3.062417e-004,1.328389e-003
1.736723e-004,1.329685e-003
5.147500e-005,1.234877e-003
-9.438378e-005,1.067463e-003
-2.632558e-004,8.791430e-004
-4.113835e-004,7.233981e-004
-4.833405e-004,6.281036e-004
-4.371519e-004,5.903424e-004
-2.603387e-004,5.848321e-004
2.278944e-005,5.621430e-004
3.572923e-004,4.485351e-004
6.725095e-004,1.229458e-004
9.070183e-004,-5.001953e-004
1.014792e-003,-1.352821e-003
9.668204e-004,-2.250177e-003
7.577559e-004,-2.979472e-003
4.179048e-004,-3.369727e-003
4.476060e-006,-3.343148e-003
-4.249970e-004,-2.933932e-003
-8.180053e-004,-2.279025e-003
-1.107778e-003,-1.551513e-003
-1.220089e-003,-8.979035e-004
-1.114261e-003,-3.958252e-004
-8.126572e-004,-5.370539e-005
-3.998769e-004,1.602208e-004
1.403791e-005,2.786906e-004
3.381686e-004,3.235827e-004
5.285954e-004,3.289309e-004
5.922872e-004,3.414099e-004
5.683015e-004,4.091532e-004
5.122268e-004,5.512846e-004
4.794896e-004,7.494906e-004
5.026649e-004,9.583930e-004
5.789978e-004,1.118352e-003
6.810990e-004,1.185447e-003
7.791486e-004,1.162596e-003
8.507816e-004,1.104576e-003
9.120423e-004,1.076863e-003
9.844856e-004,1.120783e-003
1.062115e-003,1.231635e-003
1.121917e-003,1.368743e-003
1.144282e-003,1.485268e-003
1.119810e-003,1.554308e-003
1.030998e-003,1.569056e-003
8.499712e-004,1.521895e-003
5.749461e-004,1.397753e-003
2.577842e-004,1.191605e-003
-3.377136e-005,9.285730e-004
-2.600145e-004,6.682958e-004
-4.026320e-004,4.689553e-004
-4.624341e-004,3.467581e-004
-4.766958e-004,2.564877e-004
-5.123502e-004,1.135460e-004
-6.364922e-004,-1.626133e-004
-8.988759e-004,-6.024585e-004
-1.318463e-003,-1.191242e-003
-1.859599e-003,-1.851172e-003
-2.418239e-003,-2.442225e-003
-2.849172e-003,-2.812383e-003
-3.032144e-003,-2.877371e-003
-2.908650e-003,-2.650803e-003
-2.503810e-003,-2.225057e-003
-1.910002e-003,-1.740643e-003
-1.246020e-003,-1.317977e-003
