2.115956e-004,-2.805414e-003
-4.437533e-006,-3.168441e-003
-2.131776e-004,-3.268922e-003
-4.222419e-004,-3.122739e-003
-5.988930e-004,-2.821134e-003
-6.928909e-004,-2.465238e-003
-6.630709e-004,-2.117445e-003
-5.162397e-004,-1.784239e-003
-3.084721e-004,-1.406789e-003
-1.054042e-004,-9.220513e-004
5.568870e-005,-3.485022e-004
1.718896e-004,2.237505e-004
2.671840e-004,7.243705e-004
3.671783e-004,1.145417e-003
4.845136e-004,1.496289e-003
6.096281e-004,1.775042e-003
7.214533e-004,1.962876e-003
8.036205e-004,2.035320e-003
8.460816e-004,1.983296e-003
8.451093e-004,1.814910e-003
8.019998e-004,1.565977e-003
7.242084e-004,1.290627e-003
6.235657e-004,1.040236e-003
5.135234e-004,8.313337e-004
4.112601e-004,6.481997e-004
3.331446e-004,4.545315e-004
2.775562e-004,2.104611e-004
2.292607e-004,-1.096179e-004
1.775618e-004,-5.027883e-004
1.422316e-004,-9.361509e-004
1.511452e-004,-1.370162e-003
2.072198e-004,-1.757336e-003
2.842008e-004,-2.026526e-003
3.404375e-004,-2.092163e-003
3.491891e-004,-1.892012e-003
3.068900e-004,-1.446008e-003
2.231022e-004,-8.663007e-004
1.164632e-004,-3.074997e-004
4.800190e-006,1.047945e-004
-1.007043e-004,3.274723e-004
-1.934057e-004,4.044533e-004
-2.731418e-004,4.206599e-004
-3.459091e-004,4.514523e-004
-4.130042e-004,5.392918e-004
-4.640547e-004,6.804507e-004
-4.775062e-004,8.352232e-004
-4.402311e-004,9.577448e-004
-3.695707e-004,1.023705e-003
-3.023136e-004,1.038291e-003
-2.815692e-004,1.027757e-003
-3.400748e-004,1.019816e-003
-4.831784e-004,1.025488e-003
-6.847876e-004,1.042181e-003
-8.949863e-004,1.056443e-003
-1.052028e-003,1.053850e-003
-1.109237e-003,1.030026e-003
-1.052676e-003,9.875648e-004
-9.107067e-004,9.250075e-004
-7.377830e-004,8.425161e-004
-5.839830e-004,7.447907e-004
-4.810716e-004,6.472273e-004
-4.264556e-004,5.660325e-004
-3.898288e-004,5.114165e-004
-3.363473e-004,4.830550e-004
-2.502906e-004,4.666864e-004
-1.404103e-004,4.430249e-004
-3.604027e-005,3.942432e-004
3.980630e-005,3.075383e-004
7.367795e-005,1.861513e-004
6.914012e-005,4.888196e-005
4.256141e-005,-7.850138e-005
1.419998e-005,-1.749302e-004
3.017472e-006,-2.293842e-004
2.262738e-005,-2.429977e-004
8.486046e-005,-2.232257e-004
1.996027e-004,-1.616409e-004
3.571303e-004,-4.738484e-005
5.303781e-004,1.051186e-004
6.916333e-004,2.582704e-004
8.254994e-004,3.791712e-004
9.329488e-004,4.694416e-004
1.018357e-003,5.491778e-004
1.087883e-003,6.306967e-004
1.159192e-003,7.036261e-004
1.246384e-003,7.465734e-004
1.318503e-003,7.483562e-004
1.287710e-003,7.172396e-004
1.052229e-003,6.783439e-004
5.825632e-004,6.637580e-004
-9.785688e-006,6.911471e-004
-5.251534e-004,7.447907e-004
-8.081193e-004,8.039447e-004
-8.215707e-004,8.457575e-004
-6.285510e-004,8.553194e-004
-3.298647e-004,8.464058e-004
-1.497178e-005,8.272820e-004
2.496809e-004,7.295565e-004
4.208219e-004,4.088291e-004
4.955341e-004,-2.008607e-004
5.034753e-004,-9.799085e-004
4.864584e-004,-1.698668e-003
4.696036e-004,-2.145969e-003
4.673347e-004,-2.208526e-003
4.908342e-004,-1.894767e-003
5.357263e-004,-1.312953e-003
5.593878e-004,-6.280648e-004
5.034753e-004,-2.469570e-005
3.224483e-004,3.519442e-004
-1.286493e-005,4.337872e-004
-5.110537e-004,2.284504e-004
-1.132574e-003,-1.843300e-004
-1.780673e-003,-6.760361e-004
-2.346606e-003,-1.119933e-003
-2.761494e-003,-1.416188e-003
-3.003134e-003,-1.496735e-003
-3.088218e-003,-1.343907e-003
-3.054995e-003,-9.961150e-004
-2.949004e-003,-5.556216e-004
-2.799904e-003,-1.652063e-004
-2.602183e-003,6.719535e-005
-2.303659e-003,1.346145e-004
-1.850037e-003,1.081979e-004
-1.237917e-003,7.124698e-005
-5.293671e-004,7.400208e-005
1.746447e-004,1.250527e-004
7.791486e-004,2.086784e-004
1.226125e-003,3.106175e-004
1.468576e-003,4.201737e-004
1.454800e-003,5.319988e-004
1.181395e-003,6.426895e-004
7.282600e-004,7.441425e-004
2.331503e-004,8.196649e-004
-1.556445e-004,8.572642e-004
-3.160891e-004,8.522401e-004
-1.815749e-004,8.055653e-004
2.081922e-004,7.271256e-004
7.096225e-004,6.274553e-004
1.141203e-003,5.089855e-004
1.370688e-003,3.616681e-004
1.367771e-003,1.877720e-004
1.189823e-003,5.286387e-006
9.219283e-004,-1.767130e-004
6.449584e-004,-3.554710e-004
4.195254e-004,-5.228845e-004
2.715597e-004,-6.585331e-004
1.879340e-004,-7.457242e-004
1.193804e-004,-7.852681e-004
2.846173e-005,-7.930472e-004
-8.044617e-005,-7.906163e-004
-1.645581e-004,-7.985575e-004
-1.822232e-004,-8.557665e-004
-1.204763e-004,-1.035497e-003
-2.492749e-006,-1.424616e-003
1.297526e-004,-1.997355e-003
2.415777e-004,-2.594728e-003
3.248792e-004,-3.016261e-003
3.934329e-004,-3.102966e-003
4.697657e-004,-2.779645e-003
5.645740e-004,-2.065909e-003
6.752646e-004,-1.050245e-003
7.896828e-004,1.286181e-004
8.825464e-004,1.284955e-003
9.348936e-004,2.285549e-003
9.540173e-004,3.073353e-003
9.700617e-004,3.626487e-003
1.003123e-003,3.953052e-003
1.057901e-003,4.081247e-003
1.127103e-003,4.055803e-003
1.197602e-003,3.927608e-003
1.248166e-003,3.746416e-003
1.259511e-003,3.547561e-003
1.221912e-003,3.343681e-003
1.135369e-003,3.105118e-003
1.006364e-003,2.770289e-003
8.423541e-004,2.289115e-003
6.499824e-004,1.697412e-003
4.355699e-004,1.123538e-003
2.161334e-004,7.107570e-004
1.792748e-005,5.404262e-004
-1.256624e-004,5.906665e-004
-1.822232e-004,7.640765e-004
-1.352242e-004,9.472105e-004
-8.813297e-006,1.054012e-003
1.417454e-004,1.035536e-003
2.636185e-004,8.585607e-004
3.161277e-004,5.086614e-004
2.621599e-004,-2.654814e-006
8.016057e-005,-6.249856e-004
-2.028055e-004,-1.263361e-003
-5.164018e-004,-1.808062e-003
-7.771649e-004,-2.179354e-003
-9.217271e-004,-2.361840e-003
-9.188099e-004,-2.419049e-003
-7.747339e-004,-2.465724e-003
-5.355255e-004,-2.608342e-003
-2.724935e-004,-2.884664e-003
-4.916756e-005,-3.251905e-003
9.344993e-005,-3.632922e-003
1.386662e-004,-3.950248e-003
9.215340e-005,-4.121552e-003
-3.134038e-005,-4.069204e-003
-2.078295e-004,-3.770840e-003
-4.005251e-004,-3.290315e-003
-5.577285e-004,-2.741074e-003
-6.376266e-004,-2.229757e-003
-6.189891e-004,-1.815679e-003
-5.094330e-004,-1.501921e-003
-3.402368e-004,-1.256068e-003
-1.574272e-004,-1.043438e-003
-2.492749e-006,-8.416669e-004
9.960841e-005,-6.311440e-004
1.417454e-004,-3.891806e-004
1.308870e-004,-1.152902e-004
8.793970e-005,1.577899e-004
4.045456e-005,3.897054e-004
9.175954e-006,5.480433e-004
3.179537e-006,6.206486e-004
2.522042e-005,6.067110e-004
6.638502e-005,5.159543e-004
1.125736e-004,3.663680e-004
1.812893e-004,1.861513e-004
3.104554e-004,-3.858999e-007
5.185474e-004,-1.861127e-004
7.682902e-004,-3.776739e-004
9.624446e-004,-6.000275e-004
1.021761e-003,-9.259408e-004
9.566103e-004,-1.417161e-003
8.553194e-004,-2.006430e-003
8.045929e-004,-2.489062e-003
8.138306e-004,-2.627466e-003
7.950310e-004,-2.311276e-003
6.245382e-004,-1.585060e-003
2.602152e-004,-5.742591e-004
-1.951884e-004,5.678153e-004
-5.744212e-004,1.672616e-003
-7.705202e-004,2.638854e-003
-7.833233e-004,3.404780e-003
-6.857601e-004,3.929391e-003
-5.685869e-004,4.195667e-003
-4.882024e-004,4.217383e-003
-4.546549e-004,4.053858e-003
-4.446069e-004,3.795199e-003
-4.272659e-004,3.519361e-003
-3.891806e-004,3.256813e-003
-3.356990e-004,3.005123e-003
-2.861070e-004,2.743386e-003
-2.554767e-004,2.459446e-003
-2.498044e-004,2.131749e-003
-2.781658e-004,1.711998e-003
-3.543365e-004,1.174264e-003
-4.977643e-004,5.486915e-004
-7.141214e-004,-7.493595e-005
-9.922255e-004,-5.621043e-004
-1.302905e-003,-8.073090e-004
-1.594136e-003,-7.982334e-004
-1.797690e-003,-6.230408e-004
-1.840151e-003,-4.178661e-004
-1.686351e-003,-2.887001e-004
-1.365300e-003,-2.703867e-004
-9.567332e-004,-3.121996e-004
-5.523803e-004,-3.188442e-004
-2.109087e-004,-1.989159e-004
4.661304e-005,7.562274e-005
2.320158e-004,4.422146e-004
3.683128e-004,7.780141e-004
4.781931e-004,9.517483e-004
5.712186e-004,8.640709e-004
6.381517e-004,4.926169e-004
6.611650e-004,-9.519411e-005
6.162729e-004,-7.507482e-004
4.858102e-004,-1.305336e-003
2.769079e-004,-1.647618e-003
2.116879e-005,-1.750205e-003
-2.344082e-004,-1.671603e-003
-4.510895e-004,-1.520883e-003
-6.105618e-004,-1.394796e-003
-7.061802e-004,-1.332401e-003
-7.248178e-004,-1.301932e-003
-6.502678e-004,-1.237268e-003
-4.802613e-004,-1.094651e-003
-2.358668e-004,-8.816970e-004
4.434413e-005,-6.418404e-004
3.120761e-004,-4.316416e-004
5.245438e-004,-2.904828e-004
6.564650e-004,-2.287359e-004
6.919574e-004,-2.365151e-004
6.292380e-004,-3.013411e-004
4.845136e-004,-4.120317e-004
2.885766e-004,-5.452494e-004
7.465034e-005,-6.617744e-004
-1.306864e-004,-7.217386e-004
-3.168994e-004,-6.995356e-004
-4.825302e-004,-5.946793e-004
-6.168823e-004,-4.248349e-004
-6.864083e-004,-2.162569e-004
-6.510781e-004,8.527692e-006
-4.938748e-004,2.302331e-004
-2.347323e-004,4.433490e-004
7.270556e-005,6.439860e-004
3.566440e-004,8.280924e-004
5.569569e-004,9.870786e-004
6.579236e-004,1.102956e-003
6.838542e-004,1.142986e-003
6.827196e-004,1.074108e-003
6.890402e-004,9.105837e-004
7.041123e-004,7.237222e-004
6.990883e-004,6.020110e-004
6.412309e-004,6.050903e-004
5.282713e-004,7.400909e-004
4.059119e-004,9.755720e-004
3.350894e-004,1.263238e-003
3.529166e-004,1.553336e-003
4.535592e-004,1.795462e-003
6.096281e-004,1.950883e-003
7.951931e-004,2.000313e-003
9.927510e-004,1.934191e-003
1.187554e-003,1.755918e-003
1.364691e-003,1.483161e-003
1.502609e-003,1.153196e-003
1.577160e-003,8.131823e-004
1.566949e-003,5.373470e-004
1.470358e-003,4.133669e-004
1.305862e-003,4.519385e-004
1.105549e-003,5.961767e-004
9.039390e-004,7.869278e-004
7.264773e-004,9.865924e-004
5.843459e-004,1.168916e-003
4.895377e-004,1.299865e-003
4.723587e-004,1.336006e-003
5.533914e-004,1.265021e-003
7.028158e-004,1.122403e-003
8.551573e-004,9.611481e-004
9.556379e-004,8.258235e-004
9.818925e-004,7.374978e-004
9.065320e-004,6.704027e-004
6.869333e-004,5.634395e-004
3.101313e-004,3.493511e-004
-1.840059e-004,-1.464765e-005
-7.204420e-004,-5.277464e-004
-1.219927e-003,-1.183138e-003
-1.639839e-003,-2.009186e-003
-2.000434e-003,-2.960673e-003
-2.362326e-003,-3.881369e-003
-2.753553e-003,-4.581497e-003
-3.109611e-003,-4.912112e-003
-3.317055e-003,-4.810659e-003
-3.290639e-003,-4.319435e-003
-3.023068e-003,-3.572958e-003
-2.592621e-003,-2.737832e-003
-2.130897e-003,-1.933825e-003
-1.758146e-003,-1.197724e-003
-1.539844e-003,-5.199672e-004
-1.472101e-003,9.814982e-005
-1.501597e-003,6.229175e-004
-1.547137e-003,1.014954e-003
-1.513752e-003,1.247842e-003
-1.340180e-003,1.316396e-003
-1.022370e-003,1.241846e-003
-6.095894e-004,1.076053e-003
-1.775233e-004,8.987529e-004
2.033302e-004,7.844968e-004
4.859722e-004,7.639144e-004
6.575995e-004,8.057273e-004
7.465734e-004,8.502954e-004
8.010275e-004,8.514298e-004
8.609917e-004,7.869278e-004
9.489932e-004,6.653786e-004
1.062277e-003,5.237334e-004
1.181719e-003,4.203358e-004
1.287386e-003,4.038051e-004
1.371336e-003,4.896998e-004
1.438269e-003,6.637580e-004
1.502771e-003,8.875704e-004
1.578456e-003,1.108142e-003
1.666458e-003,1.274583e-003
1.751542e-003,1.353671e-003
1.814424e-003,1.328875e-003
1.835979e-003,1.187230e-003
1.797893e-003,9.180387e-004
1.679909e-003,5.349160e-004
1.470196e-003,9.247754e-005
1.177830e-003,-3.475298e-004
8.310095e-004,-7.760304e-004
4.715484e-004,-1.241482e-003
1.532520e-004,-1.768032e-003
-6.375344e-005,-2.324565e-003
-1.345760e-004,-2.856140e-003
-4.689865e-005,-3.303766e-003
1.712413e-004,-3.624008e-003
4.615004e-004,-3.800012e-003
7.561353e-004,-3.825943e-003
9.891854e-004,-3.657394e-003
1.094204e-003,-3.209768e-003
1.017871e-003,-2.445466e-003
7.439804e-004,-1.447467e-003
2.991108e-004,-3.873979e-004
-2.695764e-004,5.512846e-004
-8.859106e-004,1.272476e-003
-1.456381e-003,1.801296e-003
-1.892661e-003,2.202896e-003
-2.135434e-003,2.531404e-003
-2.166065e-003,2.805782e-003
-2.013075e-003,3.010472e-003
-1.736105e-003,3.108198e-003
-1.402251e-003,3.060712e-003
-1.065641e-003,2.853754e-003
-7.580412e-004,2.504015e-003
-4.869059e-004,2.052499e-003
-2.438080e-004,1.561439e-003
-2.291298e-005,1.105711e-003
1.705930e-004,7.475458e-004
3.290929e-004,5.075270e-004
4.483731e-004,3.705817e-004
5.321609e-004,2.910076e-004
5.976353e-004,2.162954e-004
6.695924e-004,1.004187e-004
7.631041e-004,-7.526008e-005
8.689329e-004,-2.959930e-004
9.617964e-004,-5.267740e-004
1.026461e-003,-7.361624e-004
1.069408e-003,-9.094102e-004
1.110248e-003,-1.045545e-003
1.170537e-003,-1.149753e-003
1.260969e-003,-1.232568e-003
1.370202e-003,-1.303391e-003
1.442159e-003,-1.367083e-003
1.379439e-003,-1.421698e-003
1.090801e-003,-1.462215e-003
5.773771e-004,-1.487173e-003
-3.465141e-006,-1.504514e-003
-4.188385e-004,-1.514400e-003
-5.330946e-004,-1.492197e-003
-3.703810e-004,-1.400144e-003
-5.176061e-005,-1.209231e-003
2.905214e-004,-9.277235e-004
5.631154e-004,-6.121824e-004
7.198326e-004,-3.339163e-004
7.441425e-004,-1.417068e-004
6.399344e-004,-4.446767e-005
4.354078e-004,-2.793700e-005
1.722137e-004,-9.098041e-005
-1.011905e-004,-2.355427e-004
-3.284061e-004,-4.181903e-004
-4.687546e-004,-5.374703e-004
-5.147812e-004,-4.946851e-004
-4.963057e-004,-2.246843e-004
-4.562756e-004,3.042970e-004
-4.240246e-004,1.059684e-003
-4.105732e-004,1.949263e-003
-4.217557e-004,2.858615e-003
-4.433104e-004,3.679969e-003
-4.632444e-004,4.311707e-003
-4.731304e-004,4.676683e-003
-4.671340e-004,4.742645e-003
-4.387725e-004,4.543788e-003
-3.651949e-004,4.170546e-003
-2.096122e-004,3.724862e-003
6.362991e-005,3.274478e-003
4.558281e-004,2.818585e-003
9.032908e-004,2.298190e-003
1.269235e-003,1.641013e-003
1.422225e-003,8.242028e-004
1.312830e-003,-1.188556e-004
9.728169e-004,-1.102592e-003
4.822447e-004,-2.048243e-003
-4.965376e-005,-2.895522e-003
-5.120260e-004,-3.577495e-003
-8.671111e-004,-4.011833e-003
-1.160125e-003,-4.117824e-003
-1.457029e-003,-3.868404e-003
-1.787318e-003,-3.346876e-003
-2.131707e-003,-2.714657e-003
-2.440766e-003,-2.117283e-003
-2.666523e-003,-1.629791e-003
-2.780780e-003,-1.248451e-003
-2.771380e-003,-9.097343e-004
-2.633300e-003,-5.554595e-004
-2.390688e-003,-1.869231e-004
-2.093784e-003,1.393144e-004
-1.813573e-003,3.491891e-004
-1.639677e-003,3.921364e-004
-1.630601e-003,2.744769e-004
-1.737726e-003,1.020394e-004
-1.820541e-003,2.846173e-005
-1.722006e-003,1.250527e-004
-1.358007e-003,3.514580e-004
-7.625790e-004,6.196762e-004
-7.218083e-005,8.587227e-004
5.417228e-004,1.018357e-003
9.642274e-004,1.057577e-003
1.163730e-003,9.606619e-004
1.166161e-003,7.582422e-004
1.035860e-003,5.185474e-004
8.694191e-004,3.112658e-004
7.644006e-004,1.688103e-004
7.729901e-004,7.270556e-005
8.976185e-004,-1.805102e-005
1.103117e-003,-1.387897e-004
1.332927e-003,-3.044204e-004
1.536805e-003,-5.141329e-004
1.682502e-003,-7.716547e-004
1.754622e-003,-1.075527e-003
1.757377e-003,-1.392689e-003
1.704705e-003,-1.662852e-003
1.605845e-003,-1.820217e-003
1.463389e-003,-1.822648e-003
1.262590e-003,-1.681003e-003
9.812443e-004,-1.456867e-003
6.170832e-004,-1.235972e-003
1.953890e-004,-1.065803e-003
-2.335979e-004,-9.115170e-004
-6.055377e-004,-7.107180e-004
-8.559286e-004,-4.504412e-004
-9.325854e-004,-1.789819e-004
-8.193018e-004,3.380988e-005
-5.329325e-004,1.282940e-004
-1.182074e-004,6.508849e-005
3.566440e-004,-1.883817e-004
8.219338e-004,-6.361681e-004
1.223694e-003,-1.189783e-003
1.529350e-003,-1.690241e-003
1.719291e-003,-1.979365e-003
1.782011e-003,-1.948411e-003
1.728853e-003,-1.569178e-003
1.592880e-003,-9.149204e-004
1.419470e-003,-1.548341e-004
1.261456e-003,5.170888e-004
1.153034e-003,1.005878e-003
1.100524e-003,1.315586e-003
1.090314e-003,1.485268e-003
1.086911e-003,1.556253e-003
1.030188e-003,1.550743e-003
8.671501e-004,1.458365e-003
5.914768e-004,1.271017e-003
2.449810e-004,1.076053e-003
-1.246900e-004,1.020950e-003
-4.744269e-004,1.199709e-003
-7.389174e-004,1.603252e-003
-8.364808e-004,2.145849e-003
-7.118525e-004,2.738362e-003
-3.809152e-004,3.334281e-003
5.390598e-005,3.915614e-003
4.136911e-004,4.450275e-003
4.924549e-004,4.860144e-003
1.433661e-004,4.959005e-003
-6.099135e-004,4.916868e-003
-1.519748e-003,4.445251e-003
-2.274163e-003,3.666518e-003
-2.663444e-003,2.694929e-003
-2.649020e-003,1.714105e-003
-2.343527e-003,9.041011e-004
-1.917781e-003,3.640991e-004
-1.512941e-003,8.210535e-005
-1.217496e-003,-1.724069e-005
-1.046679e-003,-2.031993e-005
-9.557608e-004,6.096713e-006
-8.823453e-004,2.295151e-005
-7.807303e-004,8.041497e-006
-6.293613e-004,-4.965376e-005
-4.258073e-004,-1.511067e-004
-1.806025e-004,-2.846485e-004
8.729144e-005,-4.342347e-004
3.652335e-004,-5.909518e-004
6.316690e-004,-7.497758e-004
8.592089e-004,-9.074653e-004
1.015764e-003,-1.059807e-003
1.079618e-003,-1.209069e-003
1.066653e-003,-1.360600e-003
1.029378e-003,-1.521693e-003
1.025650e-003,-1.693158e-003
1.086911e-003,-1.863651e-003
1.200195e-003,-2.006430e-003
1.317206e-003,-2.097998e-003
1.390298e-003,-2.127493e-003
1.397429e-003,-2.103670e-003
1.347999e-003,-2.045326e-003
1.266804e-003,-1.980014e-003
1.141365e-003,-1.923453e-003
9.060458e-004,-1.872564e-003
5.135234e-004,-1.808224e-003
-1.196227e-006,-1.713740e-003
-5.342290e-004,-1.582143e-003
-9.750465e-004,-1.418944e-003
-1.231272e-003,-1.231110e-003
-1.246992e-003,-1.012322e-003
-1.045221e-003,-7.560964e-004
-7.314624e-004,-4.770200e-004
-4.331002e-004,-2.057227e-004
-2.266291e-004,2.700314e-005
-1.235555e-004,1.966855e-004
-9.324933e-005,2.885766e-004
-9.470791e-005,3.002453e-004
-1.102662e-004,2.397949e-004
-1.339277e-004,1.226217e-004
-1.491618e-004,-3.425755e-005
-1.413827e-004,-2.131776e-004
-1.182074e-004,-3.955011e-004
-9.454585e-005,-5.661559e-004
-8.595638e-005,-7.102319e-004
-9.162867e-005,-8.173570e-004
-9.130454e-005,-8.779695e-004
-5.370539e-005,-8.883416e-004
4.418206e-005,-8.538218e-004
1.898788e-004,-7.878611e-004
3.428685e-004,-7.103939e-004
4.508040e-004,-6.528608e-004
4.840274e-004,-6.504298e-004
4.530729e-004,-7.162283e-004
4.065602e-004,-8.124951e-004
3.934329e-004,-8.705144e-004
4.363802e-004,-8.319429e-004
5.268127e-004,-6.779809e-004
6.300483e-004,-4.306693e-004
7.005468e-004,-1.360346e-004
7.020054e-004,1.629760e-004
6.187038e-004,4.287631e-004
4.436732e-004,6.292380e-004
1.832341e-004,7.524078e-004
-1.412206e-004,8.276062e-004
-4.839888e-004,9.173905e-004
-7.766787e-004,1.065842e-003
-9.539781e-004,1.263725e-003
-9.956289e-004,1.474410e-003
-9.445783e-004,1.663541e-003
-8.591699e-004,1.808103e-003
-7.818647e-004,1.898050e-003
-7.539895e-004,1.924791e-003
-8.419910e-004,1.880060e-003
-1.076986e-003,1.761752e-003
-1.395768e-003,1.590449e-003
-1.672900e-003,1.406829e-003
-1.801742e-003,1.252056e-003
-1.749881e-003,1.136341e-003
-1.547948e-003,1.031971e-003
-1.251044e-003,8.856256e-004
-9.178375e-004,6.420412e-004
-5.896553e-004,2.764217e-004
-2.959930e-004,-2.094502e-004
-4.916756e-005,-7.833233e-004
1.483901e-004,-1.369838e-003
2.944109e-004,-1.871754e-003
3.760919e-004,-2.209661e-003
3.794953e-004,-2.350495e-003
2.973281e-004,-2.320189e-003
1.428799e-004,-2.198802e-003
-4.819517e-005,-2.078874e-003
-2.327876e-004,-2.002055e-003
-3.544986e-004,-1.943711e-003
-3.596847e-004,-1.831238e-003
-2.376495e-004,-1.584574e-003
-2.275091e-005,-1.167418e-003
2.412535e-004,-6.150996e-004
5.289196e-004,-1.335113e-005
8.154513e-004,5.475571e-004
1.078646e-003,1.013009e-003
1.305537e-003,1.374739e-003
1.490941e-003,1.650413e-003
1.636151e-003,1.859154e-003
1.746842e-003,2.006958e-003
1.820582e-003,2.085884e-003
1.846513e-003,2.096580e-003
1.805348e-003,2.054930e-003
1.697250e-003,1.996424e-003
1.555929e-003,1.951045e-003
1.439404e-003,1.909394e-003
1.386408e-003,1.826741e-003
1.386894e-003,1.652844e-003
1.396294e-003,1.379764e-003
1.365988e-003,1.036347e-003
1.261131e-003,6.540340e-004
1.072163e-003,2.657254e-004
8.198270e-004,-8.579432e-005
5.401021e-004,-3.395886e-004
2.675081e-004,-4.502792e-004
2.862379e-005,-4.167317e-004
-1.517549e-004,-2.890242e-004
-2.592042e-004,-1.465688e-004
-2.989102e-004,-6.116039e-005
-2.793003e-004,-6.391550e-005
-2.112329e-004,-1.386276e-004
-1.104282e-004,-2.389460e-004
1.436204e-005,-3.045825e-004
1.709172e-004,-2.963172e-004
3.709058e-004,-1.836818e-004
5.898562e-004,5.423012e-005
7.705591e-004,3.989431e-004
8.452713e-004,7.621317e-004
7.413874e-004,1.018519e-003
3.730126e-004,1.039426e-003
-3.262992e-004,6.973055e-004
-1.289291e-003,-4.576419e-005
-2.308196e-003,-1.031121e-003
-3.152883e-003,-1.963807e-003
-3.664849e-003,-2.572525e-003
-3.768896e-003,-2.697964e-003
-3.460808e-003,-2.343527e-003
-2.806224e-003,-1.659286e-003
-1.945494e-003,-8.525252e-004
-1.065479e-003,-9.762509e-005
-3.444506e-004,5.104441e-004
1.114392e-004,9.431589e-004
2.662116e-004,1.182692e-003
1.684862e-004,1.253352e-003
-4.446767e-005,1.254163e-003
-2.088019e-004,1.301000e-003
-2.175534e-004,1.412501e-003
-7.331530e-005,1.471979e-003
1.388282e-004,1.334385e-003
3.281205e-004,9.681169e-004
4.431870e-004,4.773828e-004
4.807861e-004,2.554455e-005
4.760863e-004,-2.622834e-004
4.914824e-004,-3.467195e-004
5.833735e-004,-2.663351e-004
7.712074e-004,-9.130454e-005
1.011550e-003,9.409818e-005
1.217212e-003,2.057612e-004
1.298569e-003,1.602208e-004
1.182530e-003,-7.769106e-005
8.413817e-004,-4.575721e-004
3.107795e-004,-8.855865e-004
-3.003688e-004,-1.316356e-003
-8.382635e-004,-1.730757e-003
-1.192376e-003,-2.080656e-003
-1.372593e-003,-2.317596e-003
-1.506297e-003,-2.426180e-003
-1.707420e-003,-2.417753e-003
-1.976610e-003,-2.314679e-003
-2.222464e-003,-2.165255e-003
-2.330886e-003,-2.036575e-003
-2.211443e-003,-1.943549e-003
-1.842258e-003,-1.827024e-003
-1.272112e-003,-1.636273e-003
-6.039171e-004,-1.390096e-003
4.661304e-005,-1.148294e-003
6.002283e-004,-9.528436e-004
1.015278e-003,-8.039057e-004
1.273935e-003,-6.773326e-004
1.371660e-003,-5.431426e-004
1.308293e-003,-3.815635e-004
1.107818e-003,-1.831956e-004
8.407335e-004,4.628891e-005
5.999042e-004,2.820940e-004
4.553419e-004,5.036374e-004
4.123946e-004,7.011951e-004
4.282770e-004,8.618020e-004
4.517764e-004,9.661721e-004
4.551798e-004,9.984232e-004
4.465904e-004,9.655239e-004
4.548557e-004,8.989150e-004
4.968306e-004,8.483506e-004
5.636016e-004,8.616399e-004
6.329655e-004,9.554758e-004
6.783439e-004,1.100200e-003
6.752646e-004,1.239253e-003
6.033076e-004,1.320123e-003
4.600418e-004,1.330982e-003
2.785285e-004,1.302458e-003
1.222976e-004,1.270045e-003
4.936815e-005,1.247842e-003
8.145709e-005,1.227422e-003
2.004130e-004,1.189498e-003
3.576164e-004,1.126131e-003
5.070407e-004,1.065032e-003
6.183797e-004,1.054822e-003
6.864472e-004,1.126131e-003
7.219395e-004,1.263562e-003
7.384702e-004,1.425304e-003
7.417115e-004,1.576511e-003
7.303669e-004,1.713781e-003
6.997365e-004,1.860937e-003
6.481997e-004,2.041802e-003
5.814288e-004,2.237578e-003
5.073649e-004,2.396403e-003
4.222805e-004,2.467063e-003
3.216380e-004,2.406613e-003
2.057612e-004,2.170482e-003
9.215340e-005,1.734687e-003
1.720949e-006,1.137313e-003
-5.240886e-005,4.841895e-004
-6.958779e-005,-9.114248e-005
-5.727083e-005,-4.852853e-004
-2.275091e-005,-6.761982e-004
2.829966e-005,-7.225489e-004
9.912221e-005,-7.300039e-004
1.971717e-004,-8.115227e-004
3.192070e-004,-1.036145e-003
4.545315e-004,-1.391554e-003
5.736496e-004,-1.804659e-003
6.410689e-004,-2.181461e-003
6.488480e-004,-2.412729e-003
6.209727e-004,-2.402357e-003
5.939078e-004,-2.112583e-003
5.858046e-004,-1.587653e-003
5.838597e-004,-9.406887e-004
5.704083e-004,-3.167374e-004
5.363746e-004,1.423936e-004
4.790034e-004,3.117519e-004
4.042913e-004,9.588091e-005
3.341170e-004,-4.622720e-004
3.030004e-004,-1.158991e-003
3.268240e-004,-1.758146e-003
3.783608e-004,-2.097673e-003
4.102877e-004,-2.106263e-003
3.880847e-004,-1.793152e-003
3.017039e-004,-1.229003e-003
1.558451e-004,-5.129984e-004
-3.604027e-005,2.511395e-004
-2.528836e-004,9.632549e-004
-4.700511e-004,1.564518e-003
-6.710121e-004,2.003555e-003
-8.496080e-004,2.239685e-003
-1.006649e-003,2.254595e-003
-1.138408e-003,2.068057e-003
-1.231434e-003,1.735174e-003
-1.255095e-003,1.339247e-003
-1.174873e-003,9.629308e-004
-9.747224e-004,6.554927e-004
-6.711741e-004,4.211461e-004
-3.220855e-004,2.350950e-004
3.017472e-006,5.828175e-005
2.503292e-004,-1.319829e-004
3.738230e-004,-3.235441e-004
3.179104e-004,-4.828543e-004
1.954813e-005,-5.812279e-004
-5.413599e-004,-6.061860e-004
-1.267250e-003,-5.664800e-004
-1.954407e-003,-4.945230e-004
-2.414836e-003,-4.324520e-004
-2.574794e-003,-4.099249e-004
-2.473990e-003,-4.421759e-004
-2.185675e-003,-5.272602e-004
-1.764629e-003,-6.518884e-004
-1.257526e-003,-7.852681e-004
-7.233592e-004,-8.863969e-004
-2.295462e-004,-9.171893e-004
1.756171e-004,-8.650042e-004
4.781931e-004,-7.525309e-004
7.047605e-004,-6.243373e-004
8.874084e-004,-5.157535e-004
1.040398e-003,-4.415277e-004
1.152872e-003,-3.909633e-004
1.186581e-003,-3.382920e-004
1.080753e-003,-2.590421e-004
8.063756e-004,-1.442999e-004
4.201737e-004,-7.678839e-006
3.656499e-005,1.370455e-004
-2.481838e-004,3.109416e-004
-4.076560e-004,6.003904e-004
-4.839888e-004,1.070056e-003
-5.486528e-004,1.675533e-003
-6.447575e-004,2.294787e-003
-7.570688e-004,2.797354e-003
-8.298361e-004,3.082591e-003
-8.128192e-004,3.083402e-003
-6.831670e-004,2.768020e-003
-4.434724e-004,2.157841e-003
-1.191798e-004,1.348809e-003
2.433604e-004,4.995857e-004
5.885597e-004,-2.199844e-004
8.574262e-004,-7.066664e-004
9.977750e-004,-9.786120e-004
9.566103e-004,-1.126578e-003
6.958470e-004,-1.268547e-003
2.524360e-004,-1.519100e-003
-2.637420e-004,-1.959269e-003
-7.210903e-004,-2.609963e-003
-1.008918e-003,-3.404733e-003
-1.070017e-003,-4.189781e-003
-9.239960e-004,-4.751504e-003
-6.484850e-004,-4.912112e-003
-3.472056e-004,-4.625578e-003
-1.115627e-004,-3.993681e-003
1.241726e-005,-3.200368e-003
3.494434e-005,-2.423263e-003
7.717366e-006,-1.779377e-003
-2.330684e-006,-1.304201e-003
5.601284e-005,-9.617572e-004
2.180782e-004,-6.726327e-004
4.950479e-004,-3.724878e-004
8.509436e-004,-4.479180e-005
1.174426e-003,2.893870e-004
1.332116e-003,6.042800e-004
1.255135e-003,9.159319e-004
9.869165e-004,1.249463e-003
6.467411e-004,1.608114e-003
3.791712e-004,1.966279e-003
3.030004e-004,2.274853e-003
4.452938e-004,2.466901e-003
7.253428e-004,2.479543e-003
1.012523e-003,2.263671e-003
1.204408e-003,1.780714e-003
1.266804e-003,1.047367e-003
1.226287e-003,2.214815e-004
1.147037e-003,-4.561135e-004
1.099714e-003,-8.189777e-004
1.128400e-003,-8.509046e-004
1.226287e-003,-6.390853e-004
1.349295e-003,-3.212752e-004
1.442483e-003,-5.921561e-005
1.461445e-003,6.744974e-006
1.377171e-003,-1.820611e-004
1.183016e-003,-5.878726e-004
9.041011e-004,-1.066289e-003
5.861287e-004,-1.382479e-003
2.728562e-004,-1.329808e-003
-1.140634e-005,-8.308084e-004
-2.496423e-004,2.084466e-005
-4.431483e-004,9.953440e-004
-6.021344e-004,1.863368e-003
-7.351899e-004,2.495263e-003
-8.489598e-004,2.838519e-003
-9.496023e-004,2.878388e-003
-1.027718e-003,2.589099e-003
-1.059969e-003,1.942780e-003
-1.024314e-003,1.021112e-003
-9.205926e-004,5.617490e-005
-7.776510e-004,-6.727948e-004
-6.408680e-004,-1.018804e-003
-5.437909e-004,-1.007784e-003
-4.742648e-004,-7.658203e-004
-3.972838e-004,-4.318037e-004
-3.000446e-004,-8.579432e-005
-1.904885e-004,2.571359e-004
-8.757704e-005,6.081695e-004
-2.404744e-005,9.755720e-004
-4.381940e-005,1.337302e-003
-1.728234e-004,1.648630e-003
-3.865875e-004,1.870499e-003
-6.142893e-004,2.014737e-003
-7.893197e-004,2.125428e-003
-8.776453e-004,2.240819e-003
-8.716490e-004,2.386030e-003
-7.732753e-004,2.552310e-003
-5.988930e-004,2.694118e-003
-3.742705e-004,2.748735e-003
-1.233935e-004,2.676129e-003
1.018773e-004,2.468684e-003
2.112714e-004,2.159624e-003
1.197045e-004,1.809724e-003
-1.856265e-004,1.496613e-003
-6.342233e-004,1.280741e-003
-1.095299e-003,1.163082e-003
-1.440336e-003,1.078484e-003
-1.620715e-003,9.387831e-004
-1.675817e-003,6.734819e-004
-1.663500e-003,2.569738e-004
-1.600619e-003,-2.992343e-004
-1.469346e-003,-9.397164e-004
-1.258661e-003,-1.556699e-003
-9.716432e-004,-2.022313e-003
-6.536711e-004,-2.252446e-003
-3.781601e-004,-2.241425e-003
-2.105846e-004,-2.073688e-003
-1.750923e-004,-1.879047e-003
-2.360289e-004,-1.760577e-003
-3.015032e-004,-1.742912e-003
-2.570974e-004,-1.771598e-003
-2.923353e-005,-1.758308e-003
3.689610e-004,-1.663500e-003
8.530504e-004,-1.517317e-003
1.310886e-003,-1.381992e-003
1.662082e-003,-1.299501e-003
1.881519e-003,-1.273247e-003
2.003392e-003,-1.284915e-003
2.088477e-003,-1.314249e-003
2.181665e-003,-1.351362e-003
2.274367e-003,-1.388637e-003
2.298353e-003,-1.415540e-003
2.175345e-003,-1.413109e-003
1.887516e-003,-1.345690e-003
1.501637e-003,-1.148943e-003
1.103604e-003,-7.663065e-004
7.648868e-004,-2.062088e-004
5.378332e-004,4.559901e-004
4.545315e-004,1.118028e-003
5.084993e-004,1.700654e-003
6.519272e-004,2.139690e-003
8.138306e-004,2.393161e-003
9.332729e-004,2.450046e-003
9.882130e-004,2.341624e-003
1.002637e-003,2.144876e-003
1.030998e-003,1.944887e-003
1.119162e-003,1.783145e-003
1.281228e-003,1.627238e-003
1.498720e-003,1.381546e-003
1.730636e-003,9.418624e-004
1.921873e-003,2.581083e-004
2.013927e-003,-6.309819e-004
1.972924e-003,-1.597053e-003
1.790276e-003,-2.451786e-003
1.479272e-003,-3.001513e-003
1.057415e-003,-3.136352e-003
5.256782e-004,-2.874130e-003
-1.468929e-004,-2.338341e-003
-9.452265e-004,-1.692996e-003
-1.778242e-003,-1.082334e-003
-2.532495e-003,-6.078067e-004
-3.094863e-003,-3.123616e-004
-3.356275e-003,-1.930815e-004
-3.253201e-003,-2.029675e-004
-2.806710e-003,-2.734659e-004
-2.139648e-003,-3.382920e-004
-1.442767e-003,-3.587123e-004
-9.131377e-004,-3.293785e-004
-6.692294e-004,-2.728177e-004
-7.053699e-004,-2.216050e-004
-9.092480e-004,-2.044261e-004
-1.121067e-003,-2.298704e-004
-1.202910e-003,-2.874036e-004
-1.084603e-003,-3.473677e-004
-7.802441e-004,-3.805911e-004
-3.833462e-004,-3.762153e-004
-3.101625e-005,-3.433161e-004
1.564933e-004,-2.968033e-004
1.206769e-004,-2.494803e-004
-1.289037e-004,-2.008607e-004
-5.371462e-004,-1.457585e-004
-1.004867e-003,-6.845333e-005
-1.403547e-003,9.539470e-005
-1.621525e-003,4.247115e-004
-1.616501e-003,9.323005e-004
-1.421212e-003,1.547015e-003
-1.131278e-003,2.145200e-003
-8.487977e-004,2.596068e-003
-6.133168e-004,2.799623e-003
-3.914495e-004,2.719076e-003
-1.324691e-004,2.370472e-003
1.723757e-004,1.768883e-003
4.615004e-004,9.408899e-004
6.224313e-004,-5.571990e-006
5.606844e-004,-8.987138e-004
2.658874e-004,-1.601915e-003
-1.885437e-004,-2.007241e-003
-6.818705e-004,-2.022151e-003
-1.081686e-003,-1.633356e-003
-1.281026e-003,-9.418232e-004
-1.221062e-003,-1.117248e-004
-9.126515e-004,6.763991e-004
-4.376381e-004,1.276204e-003
8.275361e-005,1.641013e-003
5.376711e-004,1.815558e-003
8.650433e-004,1.879250e-003
1.062115e-003,1.889946e-003
1.170051e-003,1.850402e-003
1.239090e-003,1.723343e-003
1.301162e-003,1.481541e-003
1.364043e-003,1.117704e-003
1.422873e-003,6.123833e-004
1.466631e-003,-7.412562e-005
1.478786e-003,-9.238339e-004
1.452693e-003,-1.796394e-003
1.385922e-003,-2.461510e-003
1.264049e-003,-2.718709e-003
1.032457e-003,-2.498623e-003
6.336138e-004,-1.889419e-003
7.643307e-005,-1.094651e-003
-5.377944e-004,-3.510952e-004
-1.047490e-003,1.550348e-004
-1.292857e-003,3.616681e-004
-1.181842e-003,3.404375e-004
-7.424829e-004,2.420638e-004
-1.081593e-004,2.073819e-004
5.357263e-004,2.833905e-004
1.039912e-003,4.161220e-004
1.347675e-003,5.172509e-004
1.486403e-003,5.183853e-004
1.517681e-003,3.885709e-004
1.492075e-003,1.294284e-004
1.434704e-003,-2.421874e-004
1.346054e-003,-6.933771e-004
1.208460e-003,-1.151374e-003
9.987473e-004,-1.509214e-003
7.002227e-004,-1.668848e-003
3.127243e-004,-1.599808e-003
-1.472171e-004,-1.361086e-003
-6.465403e-004,-1.064831e-003
-1.122202e-003,-8.123330e-004
-1.484580e-003,-6.408680e-004
-1.662042e-003,-5.361738e-004
-1.640325e-003,-4.679443e-004
-1.458812e-003,-4.162455e-004
-1.187352e-003,-3.750809e-004
-8.910968e-004,-3.384541e-004
-6.133168e-004,-3.023136e-004
-3.783222e-004,-2.755728e-004
-1.895161e-004,-2.681178e-004
-3.020592e-005,-2.746004e-004
1.188942e-004,-2.844864e-004
2.743149e-004,-2.864312e-004
4.478869e-004,-2.677937e-004
6.240520e-004,-2.201465e-004
7.400909e-004,-1.379794e-004
7.514353e-004,-2.258885e-005
6.888782e-004,1.242423e-004
6.362069e-004,3.070520e-004
6.767232e-004,5.206542e-004
8.360335e-004,7.379840e-004
1.076053e-003,9.159319e-004
1.318827e-003,1.007985e-003
1.484782e-003,9.817304e-004
1.523840e-003,8.506195e-004
1.417687e-003,6.695924e-004
1.178316e-003,5.031512e-004
8.233925e-004,3.963501e-004
3.603715e-004,3.850055e-004
-1.880575e-004,4.905101e-004
-7.329211e-004,6.963331e-004
-1.150725e-003,9.517483e-004
-1.377293e-003,1.190471e-003
-1.447467e-003,1.354805e-003
-1.435312e-003,1.414932e-003
-1.374862e-003,1.372957e-003
-1.244075e-003,1.237794e-003
-1.004867e-003,1.017223e-003
-6.575607e-004,7.198326e-004
-2.564491e-004,3.778746e-004
1.086841e-004,6.022653e-005
3.542131e-004,-1.562927e-004
4.339493e-004,-2.217671e-004
3.514580e-004,-1.396000e-004
1.459591e-004,3.656499e-005
-1.188556e-004,2.273159e-004
-3.754050e-004,3.589129e-004
-5.635628e-004,3.957018e-004
-6.442713e-004,3.553475e-004
-6.193133e-004,2.838767e-004
-5.280706e-004,2.237505e-004
-4.225660e-004,1.914995e-004
-3.418575e-004,1.808031e-004
-2.977757e-004,1.712413e-004
-2.726556e-004,1.449867e-004
-2.175534e-004,9.604298e-005
-7.914964e-005,2.975825e-005
1.660552e-004,-4.155049e-005
4.838654e-004,-1.073490e-004
8.023240e-004,-1.588858e-004
1.055956e-003,-1.906506e-004
1.222560e-003,-2.039399e-004
1.307806e-003,-2.049123e-004
1.329361e-003,-2.028055e-004
1.300027e-003,-2.075054e-004
1.224343e-003,-2.182017e-004
1.114462e-003,-2.337599e-004
9.802718e-004,-2.507768e-004
8.224201e-004,-2.621213e-004
6.295622e-004,-2.630937e-004
3.760919e-004,-2.572594e-004
9.500085e-006,-2.614731e-004
-5.447632e-004,-2.932379e-004
-1.311818e-003,-3.502849e-004
-2.217602e-003,-4.121938e-004
-3.116256e-003,-4.728062e-004
-3.838098e-003,-5.609698e-004
-4.229974e-003,-7.125008e-004
-4.189458e-003,-9.128135e-004
-3.722058e-003,-1.086710e-003
-2.950463e-003,-1.159477e-003
-2.054240e-003,-1.083468e-003
-1.199669e-003,-8.619250e-004
-4.964678e-004,-5.389289e-004
2.262738e-005,-1.815749e-004
3.806297e-004,1.456350e-004
6.276174e-004,3.997535e-004
8.010275e-004,5.336195e-004
9.157698e-004,4.867825e-004
9.677928e-004,2.772320e-004
9.630929e-004,6.582909e-006
9.237110e-004,-2.044261e-004
8.759017e-004,-2.849726e-004
8.392748e-004,-2.478596e-004
8.240407e-004,-1.595340e-004
8.300372e-004,-5.532604e-005
8.528884e-004,1.192183e-004
8.885428e-004,4.360561e-004
9.313281e-004,9.084769e-004
9.877268e-004,1.515899e-003
1.061953e-003,2.233526e-003
1.148334e-003,2.990376e-003
1.228070e-003,3.673162e-003
1.273448e-003,4.197936e-003
1.255945e-003,4.540546e-003
1.166161e-003,4.726114e-003
1.010092e-003,4.783810e-003
8.131823e-004,4.682680e-003
6.128695e-004,4.323700e-003
4.397836e-004,3.663276e-003
3.112658e-004,2.780986e-003
2.407673e-004,1.820420e-003
2.360674e-004,9.062079e-004
2.945730e-004,1.201907e-004
4.012120e-004,-5.052193e-004
5.222749e-004,-9.897945e-004
6.052523e-004,-1.379886e-003
6.208107e-004,-1.719413e-003
5.730013e-004,-2.068664e-003
4.689553e-004,-2.485658e-003
2.924662e-004,-2.992924e-003
5.147500e-005,-3.556427e-003
-2.023193e-004,-4.082493e-003
-3.998769e-004,-4.456057e-003
-4.852853e-004,-4.586521e-003
-4.528722e-004,-4.426561e-003
-3.397507e-004,-3.996112e-003
-1.862748e-004,-3.386095e-003
-3.951337e-006,-2.725840e-003
2.148369e-004,-2.138190e-003
4.765725e-004,-1.689917e-003
7.597008e-004,-1.342773e-003
1.019330e-003,-9.923875e-004
1.233256e-003,-5.734488e-004
1.423197e-003,-9.405965e-005
1.607790e-003,3.853296e-004
1.763535e-003,7.921138e-004
1.827065e-003,1.110572e-003
1.721722e-003,1.372146e-003
1.418659e-003,1.597094e-003
9.924268e-004,1.779904e-003
5.796460e-004,1.919929e-003
2.744769e-004,2.020085e-003
6.897806e-005,2.059630e-003
-1.143178e-004,1.972600e-003
-3.486642e-004,1.681044e-003
-6.706879e-004,1.159354e-003
-1.082820e-003,4.584211e-004
-1.544544e-003,-3.235441e-004
-1.978879e-003,-1.095299e-003
-2.280159e-003,-1.831238e-003
-2.350820e-003,-2.527471e-003
-2.158772e-003,-3.121928e-003
-1.801904e-003,-3.507807e-003
-1.488794e-003,-3.623036e-003
-1.408409e-003,-3.509914e-003
-1.616501e-003,-3.308790e-003
-1.997679e-003,-3.167144e-003
-2.326024e-003,-3.142997e-003
-2.382747e-003,-3.175410e-003
-2.074498e-003,-3.136352e-003
-1.472425e-003,-2.924370e-003
-7.585274e-004,-2.521151e-003
-1.135075e-004,-1.980824e-003
3.559958e-004,-1.375186e-003
6.170832e-004,-7.648479e-004
6.392861e-004,-2.031296e-004
3.793332e-004,2.598910e-004
-1.381414e-004,5.883976e-004
-7.778131e-004,7.757452e-004
-1.341638e-003,8.452713e-004
-1.646969e-003,8.222580e-004
-1.569988e-003,6.739681e-004
-1.103726e-003,3.780367e-004
-3.721637e-004,1.160693e-005
4.627969e-004,-2.930758e-004
1.255297e-003,-4.348830e-004
1.898536e-003,-3.595226e-004
2.313101e-003,-5.791909e-005
2.471763e-003,4.428628e-004
2.393323e-003,1.087883e-003
2.112301e-003,1.808427e-003
1.673589e-003,2.526542e-003
1.149955e-003,3.161356e-003
6.490100e-004,3.651770e-003
2.867939e-004,3.968610e-003
1.367214e-004,4.113661e-003
1.714034e-004,4.093402e-003
2.587566e-004,3.901029e-003
2.478982e-004,3.526978e-003
5.439218e-005,2.984541e-003
-3.322956e-004,2.308725e-003
-8.744040e-004,1.591259e-003
-1.514238e-003,9.950198e-004
-2.185351e-003,6.566271e-004
-2.802497e-003,6.107626e-004
-3.254984e-003,8.066997e-004
-3.442170e-003,1.134882e-003
-3.321755e-003,1.439080e-003
-2.929394e-003,1.529836e-003
-2.334127e-003,1.292248e-003
-1.589436e-003,7.979482e-004
-7.512344e-004,2.697770e-004
1.103047e-004,-6.569822e-005
9.245213e-004,-1.023250e-004
1.645875e-003,1.244044e-004
2.248922e-003,4.966686e-004
2.701087e-003,8.857877e-004
2.945645e-003,1.194360e-003
2.924738e-003,1.343299e-003
2.652143e-003,1.280903e-003
2.235795e-003,1.008147e-003
1.803890e-003,5.824011e-004
1.440700e-003,1.007429e-004
1.149955e-003,-3.371576e-004
8.515919e-004,-6.766844e-004
4.694416e-004,-9.152445e-004
2.343770e-005,-1.074393e-003
-3.760533e-004,-1.172604e-003
-6.227166e-004,-1.217172e-003
-6.501057e-004,-1.215551e-003
-4.382863e-004,-1.180870e-003
-1.821308e-005,-1.131764e-003
5.180612e-004,-1.081037e-003
1.056767e-003,-1.035173e-003
1.519302e-003,-9.935220e-004
1.880385e-003,-9.520333e-004
2.148928e-003,-9.095722e-004
2.339517e-003,-8.708386e-004
2.467063e-003,-8.424772e-004
2.534645e-003,-8.157364e-004
2.512928e-003,-7.394037e-004
2.342597e-003,-5.433047e-004
1.965631e-003,-2.068571e-004
1.379439e-003,2.295848e-004
6.814231e-004,6.751026e-004
3.364782e-005,1.024192e-003
-4.243487e-004,1.197116e-003
-6.455678e-004,1.172482e-003
-6.703638e-004,9.950198e-004
-5.773384e-004,7.490044e-004
-4.402311e-004,5.368608e-004
-3.019894e-004,4.305459e-004
-1.784957e-004,4.269804e-004
-8.465986e-005,4.499937e-004
-2.647842e-005,4.098015e-004
-1.682422e-006,2.498430e-004
4.151929e-006,-4.608832e-005
1.452411e-005,-4.668098e-004
4.888196e-005,-9.745604e-004
1.184080e-004,-1.502731e-003
2.195368e-004,-1.946304e-003
3.368721e-004,-2.176923e-003
4.459421e-004,-2.097349e-003
5.224369e-004,-1.708230e-003
5.386435e-004,-1.141001e-003
4.702519e-004,-6.146134e-004
3.012177e-004,-3.303509e-004
2.862379e-005,-3.583881e-004
-3.314853e-004,-6.262821e-004
-7.387554e-004,-1.008270e-003
-1.143594e-003,-1.449898e-003
-1.519100e-003,-1.972559e-003
-1.857979e-003,-2.560371e-003
-2.153424e-003,-3.116256e-003
-2.376912e-003,-3.505538e-003
-2.480472e-003,-3.618012e-003
-2.404139e-003,-3.394685e-003
-2.106587e-003,-2.843337e-003
-1.610667e-003,-2.015020e-003
-1.007136e-003,-9.761810e-004
-4.470379e-004,1.748067e-004
-7.623246e-005,1.277662e-003
5.860588e-005,2.191389e-003
2.327564e-005,2.840140e-003
-6.991193e-005,3.214189e-003
-1.227452e-004,3.361184e-003
-8.465986e-005,3.355349e-003
3.915804e-005,3.265726e-003
1.989545e-004,3.142718e-003
3.290929e-004,3.011444e-003
3.731747e-004,2.864774e-003
2.968419e-004,2.682611e-003
9.604298e-005,2.443888e-003
-2.045882e-004,2.147793e-003
-5.758798e-004,1.825444e-003
-9.888222e-004,1.519788e-003
-1.390582e-003,1.260645e-003
-1.713416e-003,1.063249e-003
-1.894281e-003,9.311661e-004
-1.879209e-003,8.595330e-004
-1.648428e-003,8.331164e-004
-1.254771e-003,8.282544e-004
-8.074710e-004,8.201511e-004
-4.050630e-004,7.904932e-004
-1.117248e-004,7.326358e-004
1.727922e-005,6.485239e-004
-4.187462e-005,5.496639e-004
-2.348944e-004,4.488593e-004
-4.168937e-004,3.464339e-004
-4.269418e-004,2.242366e-004
-1.990780e-004,4.855783e-005
1.989545e-004,-2.138259e-004
6.308587e-004,-5.724764e-004
9.843234e-004,-1.000653e-003
1.218508e-003,-1.429964e-003
1.348647e-003,-1.753933e-003
1.405694e-003,-1.881802e-003
1.432597e-003,-1.785535e-003
1.456907e-003,-1.496249e-003
1.481865e-003,-1.085899e-003
1.481703e-003,-6.473506e-004
1.420928e-003,-2.724935e-004
1.285279e-003,-2.437157e-005
1.077187e-003,8.534666e-005
7.958413e-004,9.733949e-005
4.195254e-004,8.242948e-005
-7.234290e-005,1.023635e-004
-6.420024e-004,1.667035e-004
-1.194969e-003,2.401191e-004
-1.634652e-003,2.631324e-004
-1.905140e-003,1.842065e-004
-1.991845e-003,-2.015787e-005
-1.939173e-003,-3.472056e-004
-1.832210e-003,-7.729512e-004
-1.717306e-003,-1.232244e-003
-1.544868e-003,-1.617798e-003
-1.227706e-003,-1.822972e-003
-7.335693e-004,-1.792828e-003
-1.154523e-004,-1.556699e-003
5.300540e-004,-1.218307e-003
1.114462e-003,-9.006586e-004
1.557874e-003,-6.979149e-004
1.784117e-003,-6.575607e-004
1.750246e-003,-7.632272e-004
1.469548e-003,-9.432817e-004
1.032619e-003,-1.112802e-003
6.120591e-004,-1.212634e-003
3.827366e-004,-1.211986e-003
4.140152e-004,-1.111019e-003
6.353966e-004,-9.319372e-004
8.994011e-004,-7.053699e-004
1.075242e-003,-4.600031e-004
1.107655e-003,-2.008607e-004
1.010254e-003,8.648112e-005
8.434886e-004,4.073705e-004
6.752646e-004,7.512733e-004
5.417228e-004,1.094528e-003
4.412422e-004,1.406504e-003
3.514580e-004,1.651872e-003
2.577842e-004,1.796759e-003
1.691344e-004,1.830955e-003
1.257009e-004,1.799514e-003
1.655690e-004,1.773583e-003
2.864697e-004,1.800972e-003
4.388112e-004,1.873740e-003
5.663567e-004,1.933056e-003
6.363689e-004,1.890271e-003
6.504686e-004,1.666782e-003
6.091419e-004,1.226936e-003
5.039615e-004,5.849942e-004
3.237448e-004,-1.857886e-004
6.087479e-005,-9.267511e-004
-2.639041e-004,-1.454922e-003
-5.849554e-004,-1.639352e-003
-8.270809e-004,-1.459946e-003
-9.551126e-004,-1.009729e-003
-9.815291e-004,-4.459034e-004
-9.478196e-004,7.918817e-005
-9.016310e-004,4.652279e-004
-8.795901e-004,6.767232e-004
-8.998482e-004,7.293945e-004
-9.402025e-004,6.682958e-004
-9.320992e-004,5.532294e-004
-8.053642e-004,4.345975e-004
-5.423322e-004,3.378445e-004
-1.823853e-004,2.639427e-004
1.999268e-004,2.012234e-004
5.378332e-004,1.282940e-004
8.031343e-004,5.990240e-005
9.943716e-004,4.758544e-005
1.124996e-003,1.056048e-004
1.218346e-003,2.065715e-004
1.279769e-003,3.183966e-004
1.279931e-003,4.138531e-004
1.161461e-003,4.966686e-004
8.825464e-004,5.671670e-004
4.597176e-004,5.535535e-004
-1.707863e-005,3.347652e-004
-4.139766e-004,-1.441378e-004
-6.178547e-004,-8.262706e-004
-5.886829e-004,-1.618608e-003
-3.660052e-004,-2.403005e-003
-4.057810e-005,-3.029227e-003
2.895490e-004,-3.330507e-003
5.660325e-004,-3.203447e-003
7.857933e-004,-2.664255e-003
9.729789e-004,-1.806118e-003
1.139258e-003,-7.489655e-004
1.273286e-003,3.597233e-004
1.351726e-003,1.352050e-003
1.355454e-003,2.104522e-003
1.272152e-003,2.548421e-003
1.106035e-003,2.670294e-003
8.840049e-004,2.525083e-003
6.326414e-004,2.224937e-003
3.653956e-004,1.909070e-003
9.604298e-005,1.694981e-003
-1.444620e-004,1.624159e-003
-3.241924e-004,1.667592e-003
-4.298589e-004,1.728529e-003
-4.642168e-004,1.653817e-003
-4.434724e-004,1.281390e-003
-3.914495e-004,5.290816e-004
-3.358611e-004,-5.011677e-004
-2.963172e-004,-1.510835e-003
-2.658489e-004,-2.186161e-003
-2.212809e-004,-2.338341e-003
-1.634236e-004,-1.988279e-003
-1.313347e-004,-1.352659e-003
-1.614788e-004,-7.338934e-004
-2.634179e-004,-3.736223e-004
-4.165696e-004,-3.567675e-004
-5.706937e-004,-6.183409e-004
-6.408680e-004,-1.031769e-003
-5.390910e-004,-1.477125e-003
-2.381357e-004,-1.850524e-003
1.895547e-004,-2.065909e-003
5.893700e-004,-2.068339e-003
7.752590e-004,-1.853603e-003
5.955285e-004,-1.484904e-003
2.878586e-005,-1.073582e-003
-7.658203e-004,-7.168766e-004
-1.529634e-003,-4.510895e-004
-2.063153e-003,-2.553146e-004
-2.300741e-003,-8.660465e-005
-2.294259e-003,8.826383e-005
-2.138676e-003,2.736666e-004
-1.940470e-003,4.289252e-004
-1.820217e-003,4.984512e-004
-1.896388e-003,4.611762e-004
-2.194589e-003,3.713920e-004
-2.610449e-003,3.452995e-004
-2.956783e-003,4.827309e-004
-3.040409e-003,7.891966e-004
-2.758901e-003,1.175075e-003
-2.145969e-003,1.502771e-003
-1.323163e-003,1.642634e-003
-4.446069e-004,1.518330e-003
3.436788e-004,1.119000e-003
9.164180e-004,5.164405e-004
1.215105e-003,-1.203142e-004
1.249301e-003,-5.974344e-004
1.077025e-003,-8.066607e-004
7.846588e-004,-7.627411e-004
4.712243e-004,-6.068342e-004
2.180782e-004,-5.630766e-004
6.897806e-005,-7.880232e-004
5.568870e-005,-1.245696e-003
2.329882e-004,-1.746640e-003
6.255105e-004,-2.084546e-003
1.174264e-003,-2.140945e-003
1.755108e-003,-1.913081e-003
2.225099e-003,-1.484418e-003
2.487484e-003,-9.716432e-004
2.509525e-003,-4.890127e-004
2.306618e-003,-1.238797e-004
1.895132e-003,1.167873e-004
1.275717e-003,3.358997e-004
4.785172e-004,6.433378e-004
-4.070078e-004,1.071515e-003
-1.231758e-003,1.579266e-003
-1.842582e-003,2.097553e-003
-2.133652e-003,2.547934e-003
-2.097673e-003,2.855050e-003
-1.815679e-003,2.966876e-003
-1.402089e-003,2.868826e-003
-9.494403e-004,2.557010e-003
-5.118640e-004,2.046178e-003
-1.156143e-004,1.423521e-003
2.383363e-004,8.292268e-004
5.592257e-004,3.979707e-004
8.507816e-004,2.004130e-004
1.099876e-003,2.175920e-004
1.275717e-003,3.428685e-004
1.351240e-003,4.530729e-004
1.321582e-003,4.997478e-004
1.203274e-003,5.167646e-004
1.029540e-003,5.631154e-004
8.459196e-004,6.666752e-004
7.065432e-004,7.955172e-004
6.533858e-004,8.831946e-004
6.964952e-004,8.804395e-004
8.162616e-004,7.938966e-004
9.736272e-004,6.723474e-004
1.127913e-003,5.726772e-004
1.242494e-003,5.271368e-004
1.298407e-003,5.240576e-004
1.296624e-003,5.307022e-004
1.265021e-003,5.201680e-004
1.228556e-003,4.828930e-004
1.200519e-003,4.234150e-004
1.180747e-003,3.418961e-004
1.159354e-003,2.096508e-004
1.114462e-003,-6.176923e-008
1.033429e-003,-2.731418e-004
9.258178e-004,-5.627525e-004
8.075100e-004,-8.073090e-004
6.809369e-004,-9.445783e-004
5.344298e-004,-9.371233e-004
3.689610e-004,-7.949921e-004
2.112714e-004,-5.786349e-004
8.242948e-005,-3.569296e-004
-2.809907e-005,-1.759026e-004
-1.588858e-004,-3.117831e-005
-3.378059e-004,1.326697e-004
-5.578905e-004,3.642611e-004
-7.833233e-004,6.817472e-004
-9.591642e-004,1.056929e-003
-1.023504e-003,1.423683e-003
-9.259408e-004,1.700005e-003
-6.567503e-004,1.825930e-003
-2.695764e-004,1.802431e-003
1.265113e-004,1.672292e-003
3.905157e-004,1.499368e-003
4.222805e-004,1.368257e-003
2.303951e-004,1.357074e-003
-8.384954e-005,1.461769e-003
-3.854531e-004,1.542964e-003
-5.775004e-004,1.337140e-003
-6.403818e-004,6.034696e-004
-6.116962e-004,-6.771705e-004
-5.491390e-004,-2.236563e-003
-5.021401e-004,-3.738103e-003
-4.815578e-004,-4.914868e-003
-4.635685e-004,-4.968512e-003
-4.160834e-004,-4.968674e-003
-3.100927e-004,-4.968674e-003
-1.298761e-004,-4.102265e-003
1.086841e-004,-2.732484e-003
3.548613e-004,-1.381831e-003
5.574431e-004,-3.598467e-004
6.960090e-004,1.830721e-004
7.715315e-004,3.230965e-004
7.781762e-004,2.665357e-004
7.174017e-004,1.756171e-004
6.093040e-004,9.507057e-005
4.934272e-004,3.665733e-006
4.021844e-004,-1.412206e-004
3.422202e-004,-3.762153e-004
3.008936e-004,-7.325969e-004
2.631324e-004,-1.204855e-003
2.104611e-004,-1.697372e-003
1.174356e-004,-2.054402e-003
-3.717473e-005,-2.152938e-003
-2.676316e-004,-1.962349e-003
-5.822003e-004,-1.529148e-003
-1.009080e-003,-9.343682e-004
-1.586033e-003,-2.661730e-004
-2.312086e-003,3.848434e-004
-3.102804e-003,9.345694e-004
-3.795961e-003,1.321906e-003
-4.202909e-003,1.514764e-003
-4.156234e-003,1.526919e-003
-3.581061e-003,1.411042e-003
-2.566853e-003,1.231960e-003
-1.344393e-003,1.042505e-003
-2.023193e-004,8.783326e-004
6.187038e-004,7.517595e-004
1.059198e-003,6.543582e-004
1.228070e-003,5.730013e-004
1.272638e-003,5.018546e-004
1.295165e-003,4.415663e-004
1.324985e-003,3.944053e-004
1.317206e-003,3.610198e-004
1.184799e-003,3.358997e-004
8.911358e-004,3.161277e-004
4.924549e-004,2.955454e-004
9.604298e-005,2.658874e-004
-1.814128e-004,2.209954e-004
-2.400805e-004,1.624898e-004
-4.949169e-005,9.588091e-005
3.072141e-004,2.797553e-005
6.833679e-004,-2.939559e-005
9.506139e-004,-6.180866e-005
1.038778e-003,-5.597430e-005
9.455899e-004,-1.205460e-005
7.379840e-004,5.779555e-005
5.122268e-004,1.320215e-004
3.274723e-004,1.940925e-004
1.785342e-004,2.367157e-004
3.510641e-005,2.650771e-004
-1.314967e-004,2.819319e-004
-3.551469e-004,2.848491e-004
-6.496195e-004,2.725321e-004
-9.760190e-004,2.475741e-004
-1.243589e-003,2.242366e-004
-1.346500e-003,2.140265e-004
-1.217658e-003,2.235884e-004
-8.628974e-004,2.534084e-004
-3.668155e-004,2.983005e-004
1.357490e-004,3.483787e-004
5.055821e-004,3.965121e-004
6.723474e-004,4.410801e-004
6.671614e-004,4.815964e-004
5.945560e-004,5.175750e-004
5.645740e-004,5.525811e-004
6.397723e-004,5.927734e-004
8.122100e-004,6.540340e-004
1.031971e-003,7.373357e-004
1.250759e-003,8.232304e-004
1.441186e-003,8.862739e-004
1.599038e-003,9.154457e-004
1.734363e-003,9.274385e-004
1.868878e-003,9.404037e-004
2.025434e-003,9.476967e-004
2.217320e-003,9.253316e-004
2.428167e-003,8.434886e-004
2.595582e-003,6.801266e-004
2.605954e-003,4.345975e-004
2.336114e-003,1.253768e-004
1.730474e-003,-2.214430e-004
8.546711e-004,-5.839830e-004
-1.729855e-004,-9.662951e-004
-1.233865e-003,-1.413919e-003
-2.237698e-003,-1.936580e-003
-3.115932e-003,-2.417104e-003
-3.807954e-003,-2.701367e-003
-4.249260e-003,-2.700719e-003
-4.420240e-003,-2.406084e-003
-4.376968e-003,-1.871916e-003
-4.214416e-003,-1.202748e-003
-3.995626e-003,-5.246671e-004
-3.722869e-003,6.362991e-005
-3.381720e-003,5.206542e-004
-2.961969e-003,8.689329e-004
-2.470586e-003,1.151089e-003
-1.922319e-003,1.379439e-003
-1.312304e-003,1.541505e-003
-6.303337e-004,1.630479e-003
1.046324e-004,1.660137e-003
8.219338e-004,1.629345e-003
1.433731e-003,1.513792e-003
1.880871e-003,1.308130e-003
2.150549e-003,1.075080e-003
2.252326e-003,9.096113e-004
2.211485e-003,8.211235e-004
2.056550e-003,7.034640e-004
1.823986e-003,4.637693e-004
1.558522e-003,1.054428e-004
1.283821e-003,-2.737901e-004
9.990715e-004,-5.444391e-004
7.060571e-004,-6.264441e-004
4.363802e-004,-5.102433e-004
2.271538e-004,-2.180396e-004
9.199134e-005,2.161334e-004
1.501031e-005,7.135121e-004
-3.004385e-005,1.145579e-003
-5.240886e-005,1.385598e-003
-3.312309e-005,1.355454e-003
7.059871e-005,1.047529e-003
2.947351e-004,5.140096e-004
6.366931e-004,-1.538618e-004
1.053525e-003,-8.257844e-004
1.480082e-003,-1.332076e-003
1.855589e-003,-1.514724e-003
2.147955e-003,-1.304849e-003
2.355562e-003,-7.737615e-004
2.489429e-003,-1.091317e-004
2.556686e-003,4.610142e-004
2.558955e-003,7.838485e-004
2.500287e-003,8.467299e-004
2.371931e-003,7.515975e-004
2.141311e-003,6.496583e-004
1.751704e-003,6.519272e-004
1.163892e-003,7.645627e-004
4.031568e-004,8.898393e-004
-4.131662e-004,8.841670e-004
-1.104861e-003,6.203245e-004
-1.532065e-003,3.202716e-005
-1.649400e-003,-8.502563e-004
-1.489928e-003,-1.886016e-003
-1.113937e-003,-2.857761e-003
-5.877105e-004,-3.539572e-003
2.262738e-005,-3.778782e-003
6.384758e-004,-3.556589e-003
1.175237e-003,-2.980283e-003
1.556577e-003,-2.230405e-003
1.752028e-003,-1.478421e-003
1.779742e-003,-8.437737e-004
1.661758e-003,-3.674638e-004
1.399860e-003,-1.302700e-005
9.856200e-004,2.974902e-004
4.145014e-004,6.114109e-004
-2.841623e-004,9.222524e-004
-1.006487e-003,1.188040e-003
-1.610019e-003,1.358857e-003
-1.981310e-003,1.397753e-003
-2.071743e-003,1.303593e-003
-1.910974e-003,1.110248e-003
-1.588464e-003,8.720121e-004
-1.219765e-003,6.491721e-004
-9.097343e-004,5.003960e-004
-7.236833e-004,4.514523e-004
-6.656639e-004,4.760863e-004
-6.656639e-004,5.157923e-004
-6.196374e-004,5.050959e-004
-4.956574e-004,3.948915e-004
-3.609812e-004,1.681620e-004
-2.904828e-004,-1.673132e-004
-3.185201e-004,-5.668041e-004
-4.491447e-004,-9.473335e-004
-6.823567e-004,-1.212958e-003
-9.919014e-004,-1.296098e-003
-1.296422e-003,-1.191728e-003
-1.477125e-003,-9.698605e-004
-1.437257e-003,-7.437794e-004
-1.152022e-003,-6.008379e-004
-6.834911e-004,-5.679386e-004
-1.645581e-004,-6.136410e-004
2.600531e-004,-6.872186e-004
4.725208e-004,-7.562584e-004
3.922984e-004,-7.661444e-004
2.149292e-005,-5.995413e-004
-5.149432e-004,-1.729855e-004
-1.012970e-003,4.710622e-004
-1.293343e-003,1.166971e-003
-1.297719e-003,1.741980e-003
-1.116530e-003,2.083940e-003
-9.202685e-004,2.152493e-003
-8.319429e-004,1.931273e-003
-8.672731e-004,1.347188e-003
-9.525195e-004,3.525924e-004
-9.936841e-004,-8.878555e-004
-9.280476e-004,-2.035926e-003
-7.457242e-004,-2.788073e-003
-4.773441e-004,-2.948356e-003
-1.676373e-004,-2.494734e-003
1.461212e-004,-1.574850e-003
4.273046e-004,-4.256453e-004
6.501445e-004,7.071915e-004
8.199891e-004,1.630317e-003
9.857821e-004,2.254757e-003
1.197926e-003,2.551986e-003
1.459500e-003,2.544045e-003
1.713619e-003,2.322501e-003
1.884598e-003,2.031592e-003
1.925277e-003,1.819610e-003
1.836303e-003,1.778931e-003
1.646686e-003,1.912474e-003
1.379926e-003,2.145849e-003
1.048015e-003,2.385544e-003
6.520892e-004,2.561548e-003
1.927960e-004,2.627023e-003
-3.141443e-004,2.571272e-003
-8.178432e-004,2.416337e-003
-1.231920e-003,2.199006e-003
-1.465618e-003,1.950883e-003
-1.463187e-003,1.682502e-003
-1.228355e-003,1.396618e-003
-8.275671e-004,1.102145e-003
-3.687603e-004,8.054032e-004
4.515445e-005,4.978030e-004
3.538890e-004,1.594105e-004
5.514466e-004,-2.261429e-004
6.665131e-004,-6.520505e-004
7.428459e-004,-1.075365e-003
8.148030e-004,-1.434016e-003
8.938910e-004,-1.687486e-003
9.776788e-004,-1.848741e-003
1.052229e-003,-1.979041e-003
1.089666e-003,-2.164282e-003
1.041371e-003,-2.474152e-003
8.423541e-004,-2.932797e-003
4.204978e-004,-3.496949e-003
-2.472114e-004,-4.043274e-003
-1.064345e-003,-4.411488e-003
-1.837882e-003,-4.481015e-003
-2.353575e-003,-4.213281e-003
-2.463941e-003,-3.659339e-003
-2.178058e-003,-2.934094e-003
-1.664635e-003,-2.162500e-003
-1.142946e-003,-1.448926e-003
-7.308142e-004,-8.534976e-004
-4.037664e-004,-3.880461e-004
-8.384954e-005,-3.490581e-005
2.757735e-004,2.316917e-004
6.710509e-004,4.302217e-004
1.085290e-003,5.639257e-004
1.506823e-003,6.315070e-004
1.924791e-003,6.441481e-004
2.325418e-003,6.266450e-004
2.701735e-003,6.023352e-004
3.063630e-003,5.848321e-004
3.396838e-003,5.798081e-004
3.602825e-003,5.812666e-004
3.515309e-003,5.804563e-004
3.042399e-003,5.736496e-004
2.287980e-003,5.689497e-004
1.497747e-003,5.728393e-004
9.206317e-004,5.846701e-004
7.054088e-004,5.969870e-004
8.263097e-004,6.029835e-004
1.115597e-003,6.094660e-004
1.336978e-003,6.587339e-004
1.296300e-003,8.118858e-004
9.126905e-004,1.081239e-003
2.466017e-004,1.417687e-003
-5.240189e-004,1.747977e-003
-1.227382e-003,1.996748e-003
-1.782456e-003,2.103063e-003
-2.149210e-003,2.033537e-003
-2.326834e-003,1.792383e-003
-2.377074e-003,1.442969e-003
-2.432015e-003,1.113328e-003
-2.661986e-003,9.245213e-004
-3.136352e-003,9.094492e-004
-3.725462e-003,1.012199e-003
-4.159475e-003,1.122079e-003
-4.200154e-003,1.122727e-003
-3.757713e-003,9.253316e-004
-2.944628e-003,4.869446e-004
-2.005620e-003,-1.668270e-004
-1.189621e-003,-9.120032e-004
-6.376266e-004,-1.550054e-003
-3.556330e-004,-1.884557e-003
-2.558008e-004,-1.817300e-003
-2.394322e-004,-1.399009e-003
-2.455907e-004,-8.197880e-004
-2.606628e-004,-3.170615e-004
-2.927517e-004,-5.791909e-005
-3.429920e-004,-8.968389e-005
-3.948528e-004,-3.376438e-004
-4.130042e-004,-6.379507e-004
-3.566054e-004,-8.136295e-004
-2.055606e-004,-7.543136e-004
2.732727e-005,-4.647030e-004
2.948972e-004,-5.305713e-005
5.310264e-004,3.362238e-004
6.786680e-004,6.104385e-004
7.130259e-004,7.558112e-004
6.488480e-004,8.021619e-004
5.243817e-004,7.908173e-004
3.874365e-004,7.405770e-004
2.887387e-004,6.396103e-004
2.746390e-004,4.709002e-004
3.639370e-004,2.384984e-004
5.302161e-004,-3.458168e-005
7.195085e-004,-3.201407e-004
8.744431e-004,-5.956517e-004
9.585551e-004,-8.497701e-004
9.637412e-004,-1.079579e-003
9.084769e-004,-1.282646e-003
8.389507e-004,-1.452005e-003
8.060515e-004,-1.548434e-003
8.428403e-004,-1.518452e-003
9.579068e-004,-1.322352e-003
1.135855e-003,-9.611089e-004
1.341192e-003,-4.682684e-004
1.536967e-003,9.620504e-005
1.689309e-003,6.503066e-004
1.776014e-003,1.073135e-003
1.792221e-003,1.203274e-003
1.741170e-003,8.963220e-004
1.625941e-003,1.780480e-004
1.458527e-003,-7.202800e-004
1.262914e-003,-1.491873e-003
1.064870e-003,-1.890230e-003
8.835187e-004,-1.756688e-003
7.157810e-004,-1.116692e-003
5.383193e-004,-2.011848e-004
3.239069e-004,6.845024e-004
6.006447e-005,1.345730e-003
-2.451045e-004,1.735498e-003
-5.844692e-004,1.881681e-003
-9.538161e-004,1.851699e-003
-1.329483e-003,1.747815e-003
-1.656207e-003,1.676668e-003
-1.863165e-003,1.701626e-003
-1.890878e-003,1.822689e-003
-1.722492e-003,1.978434e-003
-1.396903e-003,2.061088e-003
-9.849326e-004,1.968062e-003
-5.886829e-004,1.646199e-003
-3.297026e-004,1.122890e-003
-2.770314e-004,5.031512e-004
-3.883702e-004,-6.618442e-005
-5.429805e-004,-4.413656e-004
-6.209339e-004,-5.484907e-004
-5.585388e-004,-4.160834e-004
-3.694086e-004,-1.606685e-004
-1.123730e-004,7.221937e-005
1.689724e-004,1.819376e-004
4.587452e-004,1.649207e-004
7.457631e-004,9.523264e-005
1.004258e-003,6.119892e-005
1.192254e-003,1.116012e-004
1.267776e-003,2.289366e-004
1.200843e-003,3.519442e-004
9.810822e-004,4.140152e-004
6.083316e-004,3.660439e-004
9.312580e-005,2.033302e-004
-5.065158e-004,-2.988179e-005
-1.089141e-003,-2.562870e-004
-1.557996e-003,-4.027940e-004
-1.845013e-003,-4.416897e-004
-1.904977e-003,-3.938804e-004
-1.708230e-003,-3.070135e-004
-1.249909e-003,-2.311669e-004
-5.852795e-004,-2.047502e-004
1.629760e-004,-2.502906e-004
8.383025e-004,-3.664914e-004
1.314937e-003,-5.207775e-004
1.546205e-003,-6.577228e-004
1.561439e-003,-7.193076e-004
1.439242e-003,-6.729569e-004
1.261294e-003,-5.262878e-004
1.077835e-003,-3.180339e-004
8.929186e-004,-9.973194e-005
6.832058e-004,7.270556e-005
4.341113e-004,1.563313e-004
1.537382e-004,1.391524e-004
-1.251762e-004,2.538249e-005
-3.485022e-004,-1.862748e-004
-4.818819e-004,-4.901472e-004
-5.337428e-004,-8.423151e-004
-5.397392e-004,-1.158991e-003
-5.377944e-004,-1.347311e-003
-5.416840e-004,-1.350714e-003
-5.436288e-004,-1.195780e-003
-5.212637e-004,-9.893083e-004
-4.514136e-004,-8.698662e-004
-3.203028e-004,-9.434438e-004
-1.172350e-004,-1.241968e-003
1.511452e-004,-1.717630e-003
4.456179e-004,-2.229271e-003
7.120535e-004,-2.585491e-003
8.981046e-004,-2.652586e-003
9.797857e-004,-2.405436e-003
9.600137e-004,-1.919077e-003
8.658536e-004,-1.293019e-003
7.413874e-004,-5.890070e-004
6.303725e-004,1.240803e-004
5.640878e-004,7.515975e-004
5.418848e-004,1.221263e-003
5.491778e-004,1.510226e-003
5.665187e-004,1.623834e-003
5.611706e-004,1.576187e-003
4.832171e-004,1.385436e-003
2.757735e-004,1.078321e-003
-8.320128e-005,7.068674e-004
-5.504355e-004,3.705817e-004
-1.021883e-003,1.726999e-004
-1.357197e-003,1.252147e-004
-1.442281e-003,1.433661e-004
-1.258499e-003,1.146805e-004
-8.962828e-004,-3.101625e-005
-4.804233e-004,-2.833519e-004
-1.062146e-004,-5.585388e-004
1.761032e-004,-7.928851e-004
3.498373e-004,-1.009080e-003
4.204978e-004,-1.208907e-003
3.796573e-004,-1.308091e-003
2.026820e-004,-1.215714e-003
-1.292278e-004,-9.186479e-004
-5.708557e-004,-4.742648e-004
-9.969254e-004,4.531652e-005
-1.251854e-003,6.039558e-004
-1.227544e-003,1.219643e-003
-9.256167e-004,1.894808e-003
-4.473620e-004,2.544531e-003
7.448828e-005,3.014037e-003
5.358884e-004,3.151632e-003
8.720121e-004,2.883736e-003
1.050608e-003,2.248112e-003
1.072811e-003,1.364367e-003
9.651998e-004,3.942432e-004
7.603490e-004,-4.614617e-004
4.780310e-004,-9.983840e-004
1.430419e-004,-1.058348e-003
-2.047502e-004,-5.870623e-004
-5.293671e-004,2.637806e-004
-8.100641e-004,1.183826e-003
-1.058510e-003,1.892864e-003
-1.310198e-003,2.230933e-003
-1.584898e-003,2.168214e-003
-1.865434e-003,1.802269e-003
-2.096377e-003,1.305862e-003
-2.195885e-003,8.131823e-004
-2.092001e-003,3.566440e-004
-1.777594e-003,-6.715681e-005
-1.328349e-003,-4.395829e-004
-8.486357e-004,-7.060182e-004
-4.162455e-004,-8.107124e-004
-5.435365e-005,-7.421587e-004
2.396328e-004,-5.520562e-004
4.678209e-004,-3.066893e-004
6.292380e-004,-3.685060e-005
7.261531e-004,2.491947e-004
7.656972e-004,5.477191e-004
7.546768e-004,8.402473e-004
6.998986e-004,1.086911e-003
6.123833e-004,1.247518e-003
5.016926e-004,1.305700e-003
3.744712e-004,1.289007e-003
2.582704e-004,1.252056e-003
1.996027e-004,1.242332e-003
2.333123e-004,1.268911e-003
3.555096e-004,1.298245e-003
5.292437e-004,1.283497e-003
7.078398e-004,1.184474e-003
8.528884e-004,9.841614e-004
9.504518e-004,6.929298e-004
9.942095e-004,3.354135e-004
9.778409e-004,-6.164659e-005
8.958358e-004,-4.878783e-004
7.629421e-004,-9.351785e-004
6.151384e-004,-1.382155e-003
4.841895e-004,-1.790721e-003
3.906778e-004,-2.112908e-003
3.375204e-004,-2.309331e-003
3.166139e-004,-2.369295e-003
3.269861e-004,-2.313869e-003
3.749574e-004,-2.191185e-003
4.580970e-004,-2.050836e-003
5.700842e-004,-1.926532e-003
7.023296e-004,-1.827834e-003
8.439748e-004,-1.746802e-003
9.875648e-004,-1.672090e-003
1.131803e-003,-1.599322e-003
1.286738e-003,-1.520883e-003
1.461607e-003,-1.427047e-003
1.659165e-003,-1.305498e-003
1.870823e-003,-1.150401e-003
2.075674e-003,-9.664571e-004
2.235147e-003,-7.674409e-004
2.262374e-003,-5.687489e-004
2.034023e-003,-3.779981e-004
1.432597e-003,-1.990780e-004
4.025085e-004,-3.571614e-005
-9.628917e-004,1.054428e-004
-2.402519e-003,2.201850e-004
-3.606991e-003,3.141829e-004
-4.280053e-003,3.960259e-004
-4.273732e-003,4.726828e-004
-3.651235e-003,5.448020e-004
-2.657934e-003,6.104385e-004
-1.593488e-003,6.657028e-004
-7.014804e-004,7.047605e-004
-1.222590e-004,7.308531e-004
1.321835e-004,7.503009e-004
1.584381e-004,7.681281e-004
8.502253e-005,7.843347e-004
8.527692e-006,7.947069e-004
-5.013995e-005,7.935724e-004
-1.067007e-004,7.741245e-004
-1.755785e-004,7.397667e-004
-2.468872e-004,6.951987e-004
-2.972895e-004,6.423654e-004
-2.993964e-004,5.658705e-004
-2.295462e-004,4.543695e-004
-7.039812e-005,3.363859e-004
1.704310e-004,2.650771e-004
4.530729e-004,2.872801e-004
7.117294e-004,4.195254e-004
9.026425e-004,6.439860e-004
1.018357e-003,9.266282e-004
1.053201e-003,1.229529e-003
9.844856e-004,1.521247e-003
7.995688e-004,1.758025e-003
5.532294e-004,1.888164e-003
3.649094e-004,1.879736e-003
3.266619e-004,1.742142e-003
4.486972e-004,1.528378e-003
6.704027e-004,1.289493e-003
8.958358e-004,1.028405e-003
1.029702e-003,7.050846e-004
9.972887e-004,2.397949e-004
7.645627e-004,-4.925782e-004
3.542131e-004,-1.554268e-003
-1.473791e-004,-2.848199e-003
-6.136410e-004,-4.122848e-003
-9.249684e-004,-4.968350e-003
-1.019939e-003,-4.968512e-003
-9.285338e-004,-4.771925e-003
-7.596618e-004,-3.565016e-003
-6.655019e-004,-1.894443e-003
-7.559343e-004,-6.067420e-005
-1.021235e-003,1.560953e-003
-1.338073e-003,2.699791e-003
-1.513265e-003,3.280313e-003
-1.372917e-003,3.346922e-003
-8.761868e-004,3.044182e-003
-1.622891e-004,2.556848e-003
5.258403e-004,2.036292e-003
9.750858e-004,1.571811e-003
1.093231e-003,1.214781e-003
8.888670e-004,9.742755e-004
4.427008e-004,7.932483e-004
-1.002181e-004,5.558224e-004
-5.899795e-004,1.615174e-004
-9.478196e-004,-3.869116e-004
-1.163691e-003,-9.581918e-004
-1.252664e-003,-1.392203e-003
-1.248937e-003,-1.596567e-003
-1.215714e-003,-1.576795e-003
-1.210041e-003,-1.399172e-003
-1.229975e-003,-1.133060e-003
-1.204531e-003,-8.303223e-004
-1.035497e-003,-5.371462e-004
-6.586951e-004,-2.812451e-004
-9.033215e-005,-5.889148e-005
5.742979e-004,1.488763e-004
1.206353e-003,3.491891e-004
1.721398e-003,5.255162e-004
2.094960e-003,6.493342e-004
2.345676e-003,6.984400e-004
2.506932e-003,6.749405e-004
2.599958e-003,6.272933e-004
2.628643e-003,6.488480e-004
2.578727e-003,7.976240e-004
2.415364e-003,1.046070e-003
2.094312e-003,1.318665e-003
1.581697e-003,1.532591e-003
8.887049e-004,1.620107e-003
1.210010e-004,1.531295e-003
-5.599973e-004,1.258538e-003
-1.043114e-003,8.556435e-004
-1.299501e-003,4.333010e-004
-1.347959e-003,1.180839e-004
-1.237106e-003,-1.707863e-005
-1.036307e-003,-1.844488e-006
-8.173570e-004,6.978839e-005
-6.347094e-004,1.025256e-004
-5.249913e-004,2.667901e-005
-5.034366e-004,-2.102605e-004
-5.578905e-004,-6.369784e-004
-6.496195e-004,-1.226734e-003
-7.159042e-004,-1.898171e-003
-6.956460e-004,-2.523582e-003
-5.561078e-004,-2.977527e-003
-3.053928e-004,-3.197127e-003
1.971020e-005,-3.203771e-003
3.723644e-004,-3.061478e-003
7.065432e-004,-2.830696e-003
9.669825e-004,-2.543192e-003
1.097769e-003,-2.225543e-003
1.047853e-003,-1.937715e-003
8.196649e-004,-1.755229e-003
4.824068e-004,-1.678410e-003
1.462832e-004,-1.635463e-003
-7.526008e-005,-1.520558e-003
-1.208004e-004,-1.230624e-003
-1.594417e-005,-7.269246e-004
1.516314e-004,-6.148453e-005
2.911697e-004,6.566271e-004
3.454615e-004,1.321906e-003
3.284447e-004,1.869364e-003
3.192070e-004,2.251515e-003
3.947294e-004,2.439026e-003
5.726772e-004,2.432219e-003
8.044308e-004,2.258809e-003
1.023057e-003,1.971790e-003
1.170051e-003,1.637610e-003
1.203598e-003,1.322068e-003
1.091611e-003,1.066815e-003
8.177201e-004,8.553194e-004
3.968363e-004,6.316690e-004
-1.214487e-004,3.606957e-004
-6.807360e-004,6.281957e-005
-1.242616e-003,-2.000504e-004
-1.751988e-003,-3.716775e-004
-2.125710e-003,-4.267797e-004
-2.286155e-003,-3.698948e-004
-2.186647e-003,-2.282497e-004
-1.828483e-003,-3.685060e-005
-1.284105e-003,1.676758e-004
-7.112043e-004,3.548613e-004
-2.969654e-004,5.112545e-004
-1.801163e-004,6.412309e-004
-3.664914e-004,7.621317e-004
-7.142835e-004,8.888670e-004
-1.035173e-003,1.021923e-003
-1.248613e-003,1.149630e-003
-1.388637e-003,1.258214e-003
-1.530282e-003,1.330820e-003
-1.714227e-003,1.356264e-003
-1.885206e-003,1.334385e-003
-1.900926e-003,1.269397e-003
-1.637732e-003,1.170699e-003
-1.081686e-003,1.052715e-003
-3.562813e-004,9.293833e-004
3.334687e-004,8.101031e-004
7.930862e-004,7.021675e-004
9.133389e-004,6.033076e-004
7.015193e-004,5.055821e-004
2.884145e-004,3.991052e-004
-1.267968e-004,2.756114e-004
-3.828600e-004,1.321835e-004
-4.274280e-004,-3.069211e-005
-3.071755e-004,-2.006986e-004
-1.230693e-004,-3.548227e-004
3.413401e-005,-4.726442e-004
1.250527e-004,-5.397392e-004
1.707551e-004,-5.424943e-004
2.320158e-004,-4.844750e-004
3.676645e-004,-3.882082e-004
5.956905e-004,-2.836761e-004
8.810877e-004,-2.002124e-004
1.151251e-003,-1.481895e-004
1.352861e-003,-1.248521e-004
1.462417e-003,-1.224211e-004
1.467117e-003,-1.308485e-004
1.349457e-003,-1.318209e-004
1.110411e-003,-9.243900e-005
8.088066e-004,1.987227e-005
5.417228e-004,2.171058e-004
3.875985e-004,4.846757e-004
3.686369e-004,7.934103e-004
4.521006e-004,1.095014e-003
5.822391e-004,1.339085e-003
7.130259e-004,1.487051e-003
8.216097e-004,1.515899e-003
9.031286e-004,1.410718e-003
9.601758e-004,1.166809e-003
9.925888e-004,7.797969e-004
9.997197e-004,2.091646e-004
9.839993e-004,-6.021344e-004
9.533690e-004,-1.595108e-003
9.209559e-004,-2.573336e-003
8.887049e-004,-3.288370e-003
8.488368e-004,-3.562099e-003
7.929241e-004,-3.370861e-003
7.152948e-004,-2.845282e-003
6.206486e-004,-2.196695e-003
5.221128e-004,-1.612287e-003
4.378388e-004,-1.196752e-003
3.827366e-004,-9.724535e-004
3.662059e-004,-8.624112e-004
3.838710e-004,-6.956460e-004
4.203358e-004,-3.110651e-004
4.475628e-004,3.067279e-004
4.496696e-004,1.030674e-003
4.232529e-004,1.702598e-003
3.696093e-004,2.214889e-003
3.002453e-004,2.496073e-003
2.352571e-004,2.510011e-003
1.955511e-004,2.271450e-003
1.837203e-004,1.849592e-003
1.752929e-004,1.351078e-003
1.391524e-004,8.689329e-004
5.666109e-005,4.273046e-004
-6.553616e-005,-2.339918e-005
-2.089640e-004,-5.844692e-004
-3.570916e-004,-1.319759e-003
-4.820440e-004,-2.183406e-003
-5.520562e-004,-3.030685e-003
-5.588629e-004,-3.681704e-003
-5.151053e-004,-4.015236e-003
-4.426621e-004,-3.998057e-003
-3.922598e-004,-3.669549e-003
-4.322899e-004,-3.125655e-003
-6.118583e-004,-2.489062e-003
-9.063309e-004,-1.867378e-003
-1.217658e-003,-1.318463e-003
-1.432233e-003,-8.458805e-004
-1.493656e-003,-4.261314e-004
-1.441795e-003,-3.895745e-005
-1.381506e-003,3.237448e-004
-1.405006e-003,6.613270e-004
-1.532065e-003,9.770306e-004
-1.686189e-003,1.269721e-003
-1.711796e-003,1.531943e-003
-1.467401e-003,1.755270e-003
-9.298304e-004,1.934191e-003
-2.209568e-004,2.065302e-003
4.730070e-004,2.147793e-003
1.001827e-003,2.187986e-003
1.312668e-003,2.189931e-003
1.426763e-003,2.149090e-003
1.405208e-003,2.056064e-003
1.308617e-003,1.911339e-003
1.172644e-003,1.736146e-003
1.021274e-003,1.596121e-003
9.024804e-004,1.578618e-003
8.663398e-004,1.721398e-003
9.186870e-004,1.989779e-003
1.014792e-003,2.296894e-003
1.079456e-003,2.522490e-003
1.047205e-003,2.521680e-003
8.869221e-004,2.167727e-003
6.114109e-004,1.441673e-003
2.598910e-004,4.832171e-004
-1.295519e-004,-4.635685e-004
-5.194810e-004,-1.173252e-003
-8.614388e-004,-1.585385e-003
-1.099351e-003,-1.808387e-003
-1.197886e-003,-1.982931e-003
-1.191080e-003,-2.173844e-003
-1.168877e-003,-2.367837e-003
-1.212634e-003,-2.531685e-003
-1.355090e-003,-2.638810e-003
-1.577281e-003,-2.652910e-003
-1.813248e-003,-2.496517e-003
-1.966238e-003,-2.054240e-003
-1.951490e-003,-1.257202e-003
-1.733188e-003,-1.793060e-004
-1.337100e-003,9.446174e-004
-8.421530e-004,1.837923e-003
-3.494746e-004,2.350376e-003
5.179914e-005,2.477760e-003
3.172622e-004,2.329794e-003
4.508040e-004,2.056388e-003
4.880791e-004,1.783631e-003
4.678209e-004,1.566139e-003
4.211461e-004,1.386084e-003
3.811159e-004,1.189661e-003
3.676645e-004,9.376486e-004
3.799815e-004,6.452826e-004
4.036430e-004,3.898674e-004
4.115842e-004,2.137024e-004
3.772264e-004,2.619281e-005
2.932765e-004,-3.292164e-004
1.736723e-004,-8.922312e-004
2.846173e-005,-1.532551e-003
-1.522411e-004,-2.050350e-003
-3.598467e-004,-2.298310e-003
-5.433047e-004,-2.225381e-003
-6.324406e-004,-1.870620e-003
-5.664800e-004,-1.313277e-003
-3.382920e-004,-6.418404e-004
-2.330684e-006,3.137890e-005
3.462718e-004,5.674912e-004
6.200004e-004,8.630985e-004
7.723419e-004,8.992391e-004
8.045929e-004,7.355530e-004
7.507871e-004,4.772207e-004
6.621373e-004,2.383363e-004
5.843459e-004,1.148425e-004
5.431813e-004,1.394765e-004
5.373470e-004,2.555152e-004
5.597120e-004,3.632887e-004
6.225934e-004,3.875985e-004
7.421977e-004,3.130485e-004
9.110699e-004,1.801549e-004
1.088208e-003,5.050261e-005
1.220129e-003,-3.166451e-005
1.263887e-003,-5.451572e-005
1.204084e-003,-4.203669e-005
1.048339e-003,-2.988179e-005
8.246890e-004,-5.013995e-005
5.793219e-004,-1.199901e-004
3.683128e-004,-2.254946e-004
2.446569e-004,-3.233821e-004
2.561635e-004,-3.637363e-004
4.354078e-004,-3.117133e-004
7.678040e-004,-1.843300e-004
1.160489e-003,-3.474375e-005
1.451072e-003,7.837785e-005
1.454638e-003,1.132219e-004
1.049960e-003,4.726130e-005
2.513016e-004,-1.167488e-004
-7.565826e-004,-3.497987e-004
-1.664148e-003,-5.946793e-004
-2.212416e-003,-7.779752e-004
-2.313382e-003,-8.381014e-004
-2.087139e-003,-7.658203e-004
-1.758795e-003,-6.126686e-004
-1.502407e-003,-4.831784e-004
-1.365786e-003,-4.956574e-004
-1.294477e-003,-7.238454e-004
-1.213607e-003,-1.168553e-003
-1.113612e-003,-1.727030e-003
-1.042142e-003,-2.215333e-003
-1.023828e-003,-2.449356e-003
-9.967634e-004,-2.327644e-003
-8.562527e-004,-1.861868e-003
-5.356876e-004,-1.169201e-003
-6.180866e-005,-4.175420e-004
4.543695e-004,2.367157e-004
8.786568e-004,6.995744e-004
1.127427e-003,9.593654e-004
1.172968e-003,1.054822e-003
1.031647e-003,1.036995e-003
7.541905e-004,9.476967e-004
4.532350e-004,8.118858e-004
2.850112e-004,6.530617e-004
3.671783e-004,5.055821e-004
7.055709e-004,4.188772e-004
1.195657e-003,4.790034e-004
1.693523e-003,7.423597e-004
2.069191e-003,1.169889e-003
2.238064e-003,1.648630e-003
2.177127e-003,2.045206e-003
1.917011e-003,2.231095e-003
1.510875e-003,2.123159e-003
9.980991e-004,1.732905e-003
4.020224e-004,1.175723e-003
-2.553146e-004,6.238899e-004
-9.358267e-004,2.289366e-004
-1.572257e-003,4.142696e-005
-2.076118e-003,1.063454e-005
-2.383557e-003,4.645098e-005
-2.488575e-003,6.622294e-005
-2.435094e-003,2.522042e-005
-2.286642e-003,-9.146661e-005
-2.101401e-003,-2.681178e-004
-1.906112e-003,-4.352071e-004
-1.657180e-003,-4.917679e-004
-1.255906e-003,-3.642225e-004
-6.254718e-004,-5.159854e-005
2.117576e-004,3.597233e-004
1.114786e-003,7.400909e-004
1.918470e-003,9.882130e-004
2.505797e-003,1.078484e-003
2.810320e-003,1.055470e-003
2.819558e-003,9.867544e-004
2.571758e-003,9.135009e-004
2.133045e-003,8.347370e-004
1.593528e-003,7.133500e-004
1.061305e-003,5.083373e-004
6.357207e-004,1.939304e-004
3.629646e-004,-2.224154e-004
2.243987e-004,-6.752257e-004
1.658931e-004,-1.062400e-003
1.188942e-004,-1.285239e-003
2.068259e-005,-1.296260e-003
-1.579134e-004,-1.138246e-003
-4.353692e-004,-9.228616e-004
-8.235155e-004,-7.682513e-004
-1.268547e-003,-7.313004e-004
-1.652155e-003,-7.872129e-004
-1.840475e-003,-8.609526e-004
-1.727192e-003,-8.784557e-004
-1.282646e-003,-8.100641e-004
-5.987309e-004,-6.729569e-004
1.603829e-004,-5.121881e-004
8.324682e-004,-3.702189e-004
1.314775e-003,-2.664971e-004
1.565815e-003,-1.943781e-004
1.583480e-003,-1.332795e-004
1.402453e-003,-6.618442e-005
1.093069e-003,1.193106e-005
7.456010e-004,9.798775e-005
4.320045e-004,2.187264e-004
1.548727e-004,4.227667e-004
-1.724993e-004,7.216153e-004
-6.411921e-004,1.074108e-003
-1.256068e-003,1.407477e-003
-1.926532e-003,1.642634e-003
-2.501054e-003,1.727719e-003
-2.797310e-003,1.655437e-003
-2.676571e-003,1.428383e-003
-2.129924e-003,1.004420e-003
-1.302419e-003,3.950536e-004
-4.420138e-004,-2.489941e-004
1.987924e-004,-7.385933e-004
4.898618e-004,-9.693743e-004
4.849998e-004,-9.521954e-004
3.470822e-004,-7.983954e-004
2.388225e-004,-7.125008e-004
2.391467e-004,-9.077895e-004
3.260137e-004,-1.436285e-003
4.311941e-004,-2.130573e-003
5.029891e-004,-2.702016e-003
5.140096e-004,-2.872347e-003
4.673347e-004,-2.493437e-003
3.927847e-004,-1.618608e-003
3.302274e-004,-4.705373e-004
3.245551e-004,6.480376e-004
4.104497e-004,1.470358e-003
5.742979e-004,1.880709e-003
7.454390e-004,1.892864e-003
8.355473e-004,1.631614e-003
7.857933e-004,1.269397e-003
6.114109e-004,9.634171e-004
3.866261e-004,8.076721e-004
1.923098e-004,8.324682e-004
7.367795e-005,1.011713e-003
3.834771e-005,1.272152e-003
7.351589e-005,1.515737e-003
1.535762e-004,1.658355e-003
2.396328e-004,1.664189e-003
2.863077e-004,1.559170e-003
2.448189e-004,1.433731e-003
8.712937e-005,1.390622e-003
-1.603444e-004,1.479272e-003
-4.235384e-004,1.680719e-003
-6.246614e-004,1.925601e-003
-7.230351e-004,2.126725e-003
-7.206041e-004,2.220399e-003
-6.468644e-004,2.183934e-003
-5.376324e-004,2.029323e-003
-4.097628e-004,1.781848e-003
-2.658489e-004,1.459986e-003
-1.146419e-004,1.076701e-003
2.116879e-005,6.616511e-004
1.268354e-004,2.717218e-004
2.104611e-004,-3.328516e-005
2.924662e-004,-2.399184e-004
3.602095e-004,-4.013355e-004
3.796573e-004,-6.126686e-004
3.405996e-004,-9.507368e-004
2.751252e-004,-1.446494e-003
2.342847e-004,-2.090867e-003
2.511395e-004,-2.820324e-003
3.214759e-004,-3.522555e-003
4.119083e-004,-4.089301e-003
4.862963e-004,-4.453788e-003
5.206542e-004,-4.578741e-003
5.112545e-004,-4.445036e-003
4.692795e-004,-4.068070e-003
4.073705e-004,-3.499380e-003
3.333067e-004,-2.796986e-003
2.388225e-004,-2.008213e-003
1.153287e-004,-1.124309e-003
-2.437157e-005,-1.076731e-004
-1.470550e-004,9.622826e-004
-2.204706e-004,1.903722e-003
-2.352185e-004,2.577106e-003
-2.089640e-004,2.908046e-003
-1.760647e-004,2.877739e-003
-1.660166e-004,2.501745e-003
-1.862748e-004,1.846027e-003
-2.117191e-004,1.039912e-003
-2.100984e-004,2.529222e-004
-1.545100e-004,-3.710293e-004
-3.377136e-005,-7.784614e-004
1.339663e-004,-1.021721e-003
3.049452e-004,-1.197076e-003
4.326527e-004,-1.396092e-003
4.919686e-004,-1.667714e-003
4.864584e-004,-1.997517e-003
4.363802e-004,-2.322782e-003
3.675024e-004,-2.574146e-003
3.033245e-004,-2.700071e-003
2.603772e-004,-2.682892e-003
2.397949e-004,-2.530226e-003
2.273159e-004,-2.265087e-003
2.030061e-004,-1.905626e-003
1.579519e-004,-1.466104e-003
1.064152e-004,-9.750465e-004
6.492643e-005,-4.856094e-004
3.948217e-005,-5.775702e-005
2.554455e-005,2.666978e-004
1.792748e-005,4.783552e-004
1.468618e-005,6.036317e-004
-6.382317e-006,6.820714e-004
-8.320128e-005,7.433321e-004
-2.178775e-004,7.961654e-004
-3.566054e-004,8.366818e-004
-4.296969e-004,8.624502e-004
-4.021458e-004,8.770361e-004
-2.925897e-004,9.079906e-004
-1.556445e-004,9.914545e-004
-4.770897e-005,1.138610e-003
4.313994e-006,1.320934e-003
2.116879e-005,1.500502e-003
4.888196e-005,1.646686e-003
1.286181e-004,1.753325e-003
2.731804e-004,1.828686e-003
4.632831e-004,1.892378e-003
6.640821e-004,1.955421e-003
8.397611e-004,2.005337e-003
9.752478e-004,2.007282e-003
1.058550e-003,1.927546e-003
1.072973e-003,1.753001e-003
9.982612e-004,1.500665e-003
8.160995e-004,1.210729e-003
5.156302e-004,9.361901e-004
9.215340e-005,7.233981e-004
-4.345588e-004,5.950422e-004
-1.033876e-003,5.645740e-004
-1.676465e-003,6.462549e-004
-2.295717e-003,8.199891e-004
-2.779483e-003,1.031809e-003
-3.031009e-003,1.222722e-003
-3.015937e-003,1.341192e-003
-2.749339e-003,1.353347e-003
-2.300903e-003,1.248328e-003
-1.799311e-003,1.053850e-003
-1.375834e-003,8.271200e-004
-1.086385e-003,6.337758e-004
-8.784557e-004,5.183853e-004
-6.329267e-004,4.848378e-004
-2.454286e-004,4.896998e-004
2.770700e-004,4.700898e-004
8.065377e-004,3.642611e-004
1.188364e-003,1.334801e-004
1.320772e-003,-2.323013e-004
1.189823e-003,-7.115284e-004
8.532125e-004,-1.234027e-003
4.133669e-004,-1.695913e-003
-1.092015e-005,-1.991196e-003
-3.052308e-004,-2.059588e-003
-3.935563e-004,-1.917943e-003
-2.754107e-004,-1.654262e-003
-2.566809e-005,-1.382479e-003
2.441707e-004,-1.182652e-003
4.334631e-004,-1.082496e-003
4.819206e-004,-1.066127e-003
3.767402e-004,-1.095461e-003
1.615174e-004,-1.116692e-003
-7.866345e-005,-1.071637e-003
-2.491561e-004,-9.429576e-004
-2.882139e-004,-8.019609e-004
-1.874093e-004,-7.951541e-004
3.827799e-006,-9.975737e-004
2.020337e-004,-1.334670e-003
3.342791e-004,-1.639514e-003
3.694472e-004,-1.761063e-003
3.209897e-004,-1.619742e-003
2.271538e-004,-1.222682e-003
1.336421e-004,-6.431369e-004
7.481241e-005,3.235129e-005
6.881599e-005,7.246946e-004
1.057669e-004,1.361450e-003
1.534141e-004,1.880223e-003
1.927960e-004,2.239523e-003
2.410915e-004,2.434974e-003
3.402755e-004,2.493966e-003
5.282713e-004,2.461877e-003
8.240407e-004,2.377927e-003
1.213646e-003,2.284901e-003
1.639717e-003,2.216996e-003
2.010523e-003,2.187013e-003
2.226233e-003,2.180369e-003
2.218616e-003,2.164810e-003
1.990265e-003,2.102415e-003
1.626590e-003,1.955097e-003
1.228070e-003,1.684771e-003
8.483506e-004,1.279121e-003
4.843516e-004,7.691005e-004
8.080883e-005,2.256952e-004
-4.554653e-004,-2.561249e-004
-1.157370e-003,-5.932208e-004
-1.934149e-003,-7.476690e-004
-2.624548e-003,-7.300039e-004
-3.075901e-003,-5.930586e-004
-3.194047e-003,-4.165696e-004
-2.976231e-003,-2.752487e-004
-2.513371e-003,-2.160948e-004
-1.948573e-003,-2.475355e-004
-1.405330e-003,-3.454229e-004
-9.489541e-004,-4.684305e-004
-5.786349e-004,-5.778245e-004
-2.509389e-004,-6.543194e-004
7.870197e-005,-6.933771e-004
4.172565e-004,-7.003459e-004
7.316634e-004,-6.807360e-004
9.676307e-004,-6.410300e-004
1.080428e-003,-5.875485e-004
1.044126e-003,-5.269361e-004
8.663398e-004,-4.705373e-004
6.138419e-004,-4.321279e-004
3.861400e-004,-4.251591e-004
2.769079e-004,-4.518998e-004
3.258516e-004,-5.039228e-004
5.023408e-004,-5.750695e-004
7.300428e-004,-6.630709e-004
9.300316e-004,-7.507482e-004
1.050608e-003,-8.034194e-004
1.084804e-003,-7.951541e-004
1.062115e-003,-7.442656e-004
1.023381e-003,-7.338934e-004
9.916165e-004,-8.335636e-004
9.695755e-004,-1.033876e-003
9.436450e-004,-1.260282e-003
8.914600e-004,-1.416188e-003
8.028102e-004,-1.422995e-003
6.963331e-004,-1.227706e-003
6.225934e-004,-8.032574e-004
6.323173e-004,-1.541859e-004
7.421977e-004,6.574374e-004
9.217662e-004,1.488672e-003
1.110086e-003,2.162379e-003
1.249787e-003,2.529783e-003
1.312182e-003,2.510335e-003
1.298245e-003,2.116677e-003
1.221101e-003,1.455772e-003
1.097607e-003,7.020054e-004
9.504518e-004,6.152305e-005
7.885484e-004,-3.118754e-004
6.185417e-004,-3.974459e-004
4.415663e-004,-2.929138e-004
2.668598e-004,-1.499722e-004
1.153287e-004,-1.092938e-004
8.041497e-006,-2.561249e-004
-5.516398e-005,-6.112100e-004
-9.730096e-005,-1.139219e-003
-1.436516e-004,-1.775649e-003
-2.076674e-004,-2.458593e-003
-2.883759e-004,-3.141052e-003
-3.763774e-004,-3.754310e-003
-4.484965e-004,-4.202747e-003
-4.867439e-004,-4.396416e-003
-4.820440e-004,-4.290101e-003
-4.369898e-004,-3.908921e-003
-3.562813e-004,-3.345255e-003
-2.554767e-004,-2.728270e-003
-1.666649e-004,-2.162986e-003
-1.332795e-004,-1.690241e-003
-1.857886e-004,-1.292533e-003
-3.023136e-004,-9.238339e-004
-4.076560e-004,-5.431426e-004
-4.275900e-004,-1.342519e-004
-3.245165e-004,2.848491e-004
-9.098041e-005,6.754267e-004
2.585945e-004,1.001989e-003
6.877437e-004,1.251732e-003
1.120783e-003,1.431462e-003
1.450424e-003,1.563060e-003
1.559332e-003,1.672778e-003
1.393863e-003,1.783307e-003
1.014468e-003,1.902588e-003
5.660325e-004,2.026244e-003
1.991165e-004,2.150549e-003
-2.275091e-005,2.266102e-003
-1.771992e-004,2.349079e-003
-4.313175e-004,2.370796e-003
-9.314510e-004,2.313749e-003
-1.695427e-003,2.181665e-003
-2.588084e-003,1.995938e-003
-3.369079e-003,1.786224e-003
-3.797743e-003,1.574404e-003
-3.743127e-003,1.377008e-003
-3.242343e-003,1.200357e-003
-2.463131e-003,1.045908e-003
-1.605643e-003,9.133389e-004
-8.215707e-004,8.005413e-004
-1.870851e-004,7.036261e-004
2.854973e-004,6.238899e-004
6.258347e-004,5.598741e-004
8.726604e-004,5.068787e-004
1.050770e-003,4.655520e-004
1.176533e-003,4.349216e-004
1.262590e-003,4.119083e-004
1.310075e-003,3.885709e-004
1.287710e-003,3.621543e-004
1.124834e-003,3.477304e-004
7.383081e-004,4.167703e-004
9.555677e-005,6.595443e-004
-7.267626e-004,1.074594e-003
-1.581981e-003,1.557550e-003
-2.328131e-003,1.971141e-003
-2.870564e-003,2.214402e-003
-3.166334e-003,2.238226e-003
-3.206688e-003,2.048123e-003
-3.020475e-003,1.698061e-003
-2.684837e-003,1.277176e-003
-2.297662e-003,8.699053e-004
-1.937877e-003,5.138475e-004
-1.627197e-003,1.955511e-004
-1.330942e-003,-1.206384e-004
-1.006973e-003,-4.598410e-004
-6.411921e-004,-8.241638e-004
-2.580697e-004,-1.229651e-003
9.085688e-005,-1.685703e-003
3.649094e-004,-2.159258e-003
5.511225e-004,-2.608342e-003
6.545202e-004,-3.035871e-003
6.785059e-004,-3.415429e-003
6.326414e-004,-3.643618e-003
5.345919e-004,-3.616391e-003
4.235771e-004,-3.282535e-003
3.644232e-004,-2.636055e-003
4.234150e-004,-1.706610e-003
6.269692e-004,-5.702075e-004
9.434830e-004,6.161107e-004
1.310400e-003,1.622052e-003
1.646199e-003,2.281660e-003
1.837113e-003,2.521680e-003
1.728043e-003,2.361234e-003
1.221749e-003,1.903398e-003
3.927847e-004,1.312506e-003
-5.259637e-004,7.695867e-004
-1.255420e-003,4.196875e-004
-1.603212e-003,3.242310e-004
-1.500948e-003,4.428628e-004
-1.033552e-003,6.655407e-004
-3.909633e-004,8.600192e-004
2.243987e-004,9.300316e-004
6.639201e-004,8.452713e-004
8.600192e-004,6.486859e-004
8.293889e-004,4.148255e-004
6.590580e-004,2.088404e-004
4.692795e-004,6.038860e-005
3.584268e-004,-2.907146e-005
3.880847e-004,-6.877746e-005
5.853184e-004,-6.569822e-005
9.379727e-004,-2.437157e-005
1.390136e-003,4.969229e-005
1.857371e-003,1.402868e-004
2.247464e-003,2.271538e-004
2.498990e-003,2.817699e-004
2.593637e-003,2.736666e-004
2.549069e-003,1.830721e-004
2.401751e-003,2.700314e-005
2.192362e-003,-1.522411e-004
1.950073e-003,-3.173856e-004
1.694171e-003,-4.538446e-004
1.447507e-003,-5.689110e-004
1.247518e-003,-6.818705e-004
1.150765e-003,-8.071469e-004
1.203112e-003,-9.411749e-004
1.420280e-003,-1.072448e-003
1.758835e-003,-1.194483e-003
2.112301e-003,-1.299825e-003
2.340004e-003,-1.371296e-003
2.333683e-003,-1.392203e-003
2.087343e-003,-1.357035e-003
1.708271e-003,-1.263523e-003
1.352861e-003,-1.121229e-003
1.124510e-003,-9.497644e-004
1.015440e-003,-7.727891e-004
9.292212e-004,-6.215822e-004
7.425218e-004,-5.191569e-004
3.629646e-004,-4.643789e-004
-2.348944e-004,-4.168937e-004
-1.001301e-003,-2.903207e-004
-1.838855e-003,-3.858999e-007
-2.616283e-003,4.819206e-004
-3.192265e-003,1.088694e-003
-3.453677e-003,1.639393e-003
-3.361624e-003,1.898536e-003
-2.995193e-003,1.757863e-003
-2.533630e-003,1.299703e-003
-2.183730e-003,7.491665e-004
-2.085681e-003,3.538890e-004
-2.232188e-003,2.671840e-004
-2.469776e-003,5.016926e-004
-2.615635e-003,9.447795e-004
-2.607370e-003,1.431300e-003
-2.542219e-003,1.815072e-003
-2.570743e-003,1.998368e-003
-2.723895e-003,1.918956e-003
-2.854358e-003,1.548960e-003
-2.758252e-003,9.339211e-004
-2.323106e-003,2.279642e-004
-1.591543e-003,-3.308371e-004
-7.201179e-004,-5.313118e-004
1.028497e-004,-3.147926e-004
7.269635e-004,1.668655e-004
1.089180e-003,6.133557e-004
1.208946e-003,7.441425e-004
1.165999e-003,4.297355e-004
1.061143e-003,-2.788141e-004
9.814063e-004,-1.171470e-003
9.776788e-004,-1.988765e-003
1.046881e-003,-2.515478e-003
1.154492e-003,-2.651127e-003
1.264373e-003,-2.419536e-003
1.357398e-003,-1.935932e-003
1.424656e-003,-1.354766e-003
1.455610e-003,-8.278913e-004
1.438431e-003,-4.663236e-004
1.369391e-003,-3.044204e-004
1.258376e-003,-2.998826e-004
1.130182e-003,-3.726499e-004
1.012847e-003,-4.512515e-004
9.222524e-004,-4.933886e-004
8.622882e-004,-4.862577e-004
8.222580e-004,-4.407173e-004
7.835244e-004,-3.747568e-004
7.384702e-004,-3.063652e-004
6.950366e-004,-2.442942e-004
6.682958e-004,-1.940539e-004
6.704027e-004,-1.556445e-004
7.008709e-004,-1.212866e-004
7.556491e-004,-8.255302e-005
8.303613e-004,-3.474375e-005
9.188490e-004,2.246531e-005
1.019978e-003,7.918817e-005
1.137313e-003,1.232699e-004
1.270045e-003,1.582761e-004
1.402939e-003,1.921477e-004
1.500827e-003,2.409294e-004
1.524488e-003,3.148312e-004
1.448966e-003,4.075326e-004
1.266318e-003,4.961824e-004
9.771927e-004,5.542018e-004
5.785116e-004,5.692738e-004
8.421220e-005,5.486915e-004
-4.614617e-004,5.078511e-004
-9.907669e-004,4.621486e-004
-1.443415e-003,4.227667e-004
-1.779215e-003,3.978086e-004
-1.975152e-003,3.900295e-004
-2.027985e-003,3.903536e-004
-1.949545e-003,3.828986e-004
-1.758795e-003,3.577785e-004
-1.509052e-003,3.161277e-004
-1.281998e-003,2.722080e-004
-1.127712e-003,2.406053e-004
-1.038414e-003,2.247229e-004
-9.731018e-004,2.253711e-004
-8.898003e-004,2.550291e-004
-7.604721e-004,3.660439e-004
-5.812279e-004,5.908285e-004
-3.752429e-004,8.827084e-004
-1.861127e-004,1.155951e-003
-4.722278e-005,1.342975e-003
2.975825e-005,1.406342e-003
4.434413e-005,1.329523e-003
-2.145439e-005,1.125159e-003
-2.253326e-004,8.502954e-004
-6.121824e-004,5.909906e-004
-1.146836e-003,3.927847e-004
-1.722816e-003,2.307193e-004
-2.185675e-003,4.596478e-005
-2.360381e-003,-1.934057e-004
-2.131545e-003,-4.841508e-004
-1.520721e-003,-8.387497e-004
-6.844635e-004,-1.293343e-003
1.532520e-004,-1.840313e-003
7.948689e-004,-2.417753e-003
1.155141e-003,-2.985144e-003
1.248328e-003,-3.508131e-003
1.148496e-003,-3.912486e-003
9.554758e-004,-4.096269e-003
7.545147e-004,-3.974719e-003
5.882355e-004,-3.506997e-003
4.621486e-004,-2.703961e-003
3.864641e-004,-1.644376e-003
3.717161e-004,-4.651892e-004
4.034809e-004,6.512789e-004
4.360561e-004,1.517357e-003
4.229288e-004,2.039209e-003
3.282826e-004,2.222830e-003
1.211631e-004,2.161407e-003
-2.057227e-004,1.981676e-003
-5.917621e-004,1.791248e-003
-9.170272e-004,1.667106e-003
-1.062400e-003,1.657544e-003
-9.646744e-004,1.776338e-003
-6.494574e-004,1.994155e-003
-2.177155e-004,2.255405e-003
2.172679e-004,2.511469e-003
5.875872e-004,2.759107e-003
8.937289e-004,3.029271e-003
1.179126e-003,3.344815e-003
1.483161e-003,3.682886e-003
1.811020e-003,3.977038e-003
2.125752e-003,4.145264e-003
2.356696e-003,4.123060e-003
2.412933e-003,3.892439e-003
2.201599e-003,3.479979e-003
1.700978e-003,2.935597e-003
9.985853e-004,2.311804e-003
2.626462e-004,1.647496e-003
-3.360231e-004,9.734652e-004
-7.183352e-004,3.179104e-004
-9.175134e-004,-2.945344e-004
-1.026745e-003,-8.525252e-004
-1.132898e-003,-1.359952e-003
-1.260930e-003,-1.827672e-003
-1.382155e-003,-2.251798e-003
-1.458487e-003,-2.604128e-003
-1.479232e-003,-2.835882e-003
-1.461243e-003,-2.885798e-003
-1.431585e-003,-2.724867e-003
-1.400954e-003,-2.394253e-003
-1.363355e-003,-1.981959e-003
-1.296098e-003,-1.572581e-003
-1.169201e-003,-1.226572e-003
-9.669433e-004,-9.812050e-004
-7.008321e-004,-8.382635e-004
-4.118697e-004,-7.849440e-004
-1.477033e-004,-8.043919e-004
6.103686e-005,-8.684076e-004
2.179161e-004,-9.351785e-004
3.496752e-004,-9.722915e-004
4.794896e-004,-9.797465e-004
6.086557e-004,-9.893083e-004
7.222636e-004,-1.048138e-003
8.214476e-004,-1.192700e-003
9.225765e-004,-1.441633e-003
1.028243e-003,-1.786346e-003
1.126941e-003,-2.174006e-003
1.222884e-003,-2.505754e-003
1.342651e-003,-2.680461e-003
1.510388e-003,-2.643510e-003
1.710864e-003,-2.415970e-003
1.881681e-003,-2.079522e-003
1.945049e-003,-1.718278e-003
1.849592e-003,-1.361897e-003
1.580725e-003,-1.000977e-003
1.152710e-003,-6.181788e-004
6.159487e-004,-2.037779e-004
7.789165e-005,2.276400e-004
-3.311612e-004,6.295622e-004
-5.095950e-004,9.442933e-004
-4.358554e-004,1.131317e-003
-1.687718e-004,1.172320e-003
1.960373e-004,1.071353e-003
5.676532e-004,8.567779e-004
8.760638e-004,5.916389e-004
1.086101e-003,3.684748e-004
1.202950e-003,2.871180e-004
1.237632e-003,4.146635e-004
1.157085e-003,7.305289e-004
8.934048e-004,1.116731e-003
4.166082e-004,1.417363e-003
-2.003745e-004,1.514926e-003
-7.799200e-004,1.352699e-003
-1.142784e-003,9.321384e-004
-1.212634e-003,3.159656e-004
-1.043276e-003,-4.044147e-004
-7.622549e-004,-1.090437e-003
-4.961436e-004,-1.563830e-003
-3.183580e-004,-1.689431e-003
-2.447804e-004,-1.466267e-003
-2.640662e-004,-1.026097e-003
-3.527159e-004,-5.517320e-004
-4.700511e-004,-1.862748e-004
-5.700454e-004,-1.221667e-005
-6.368163e-004,-6.197072e-005
-7.003459e-004,-3.193304e-004
-8.196260e-004,-6.804119e-004
-1.031121e-003,-9.526816e-004
-1.333211e-003,-9.442542e-004
-1.663176e-003,-5.828486e-004
-1.905302e-003,2.910999e-005
-1.938687e-003,6.716992e-004
-1.717630e-003,1.151413e-003
-1.298367e-003,1.396132e-003
-7.928851e-004,1.445076e-003
-3.039342e-004,1.385922e-003
1.060910e-004,1.295489e-003
4.179048e-004,1.223856e-003
6.409068e-004,1.228718e-003
8.024860e-004,1.325958e-003
9.321384e-004,1.469224e-003
1.048339e-003,1.613138e-003
1.147199e-003,1.729501e-003
1.200033e-003,1.796921e-003
1.170861e-003,1.787845e-003
1.038940e-003,1.668565e-003
8.191788e-004,1.385274e-003
5.647360e-004,9.060458e-004
3.435168e-004,2.830664e-004
1.997648e-004,-3.749188e-004
1.268354e-004,-9.507368e-004
7.205730e-005,-1.363841e-003
-1.286493e-005,-1.591057e-003
-1.408965e-004,-1.672900e-003
-2.977757e-004,-1.663986e-003
-4.651892e-004,-1.572905e-003
-6.236890e-004,-1.369351e-003
-7.517206e-004,-1.035497e-003
-8.319429e-004,-5.894933e-004
-8.531735e-004,-8.336335e-005
-8.228673e-004,4.169324e-004
-7.703581e-004,8.549952e-004
-7.230351e-004,1.216401e-003
-6.734431e-004,1.526271e-003
-5.972724e-004,1.803241e-003
-4.661616e-004,2.027216e-003
-2.656868e-004,2.149090e-003
-2.816880e-006,2.123159e-003
2.864697e-004,1.944563e-003
5.527431e-004,1.651710e-003
7.697488e-004,1.316882e-003
9.434830e-004,1.013495e-003
1.086749e-003,7.841726e-004
1.175237e-003,6.230795e-004
1.147199e-003,4.911583e-004
9.736272e-004,3.388169e-004
6.875816e-004,1.354248e-004
3.751195e-004,-1.126972e-004
1.624898e-004,-3.643846e-004
1.509831e-004,-5.679386e-004
3.401134e-004,-6.961322e-004
6.324793e-004,-7.588515e-004
8.940530e-004,-7.875370e-004
1.021274e-003,-8.029332e-004
9.651998e-004,-7.831613e-004
7.279359e-004,-7.003459e-004
3.451374e-004,-5.621043e-004
-1.506204e-004,-3.956632e-004
-7.220627e-004,-2.237119e-004
-1.297881e-003,-6.278104e-005
-1.777108e-003,6.184718e-005
-2.061371e-003,1.159770e-004
-2.092001e-003,7.254349e-005
-1.892498e-003,-6.083626e-005
-1.566423e-003,-2.261429e-004
-1.248937e-003,-3.585502e-004
-1.054297e-003,-4.246728e-004
-1.047814e-003,-4.220798e-004
-1.229813e-003,-3.864254e-004
-1.519424e-003,-3.844807e-004
-1.766736e-003,-4.818819e-004
-1.817624e-003,-7.110422e-004
-1.575823e-003,-1.054783e-003
-1.049110e-003,-1.429316e-003
-3.463953e-004,-1.712120e-003
3.707437e-004,-1.799311e-003
9.442933e-004,-1.647618e-003
1.270531e-003,-1.307118e-003
1.325958e-003,-8.925553e-004
1.183178e-003,-5.082985e-004
9.686031e-004,-1.998883e-004
8.005413e-004,4.547859e-005
7.428459e-004,2.692908e-004
7.874139e-004,5.072028e-004
8.694191e-004,7.644006e-004
9.240351e-004,1.019816e-003
9.160939e-004,1.242494e-003
8.468920e-004,1.402939e-003
7.462493e-004,1.474734e-003
6.443101e-004,1.443455e-003
5.454503e-004,1.318827e-003
4.412422e-004,1.148334e-003
3.428685e-004,9.995577e-004
2.746390e-004,9.232248e-004
2.164575e-004,9.331108e-004
1.054428e-004,1.006527e-003
-8.174268e-005,1.100524e-003
-3.081479e-004,1.170699e-003
-5.211017e-004,1.191119e-003
-6.945116e-004,1.159840e-003
-8.176812e-004,1.092421e-003
-8.546321e-004,1.008471e-003
-7.616066e-004,9.162560e-004
-5.112157e-004,8.107513e-004
-1.135075e-004,6.840162e-004
3.794953e-004,5.311884e-004
9.032908e-004,3.555096e-004
1.413635e-003,1.678379e-004
1.855751e-003,-1.983374e-005
2.152979e-003,-1.948643e-004
2.228016e-003,-3.444506e-004
2.031268e-003,-4.570859e-004
1.565167e-003,-5.326084e-004
9.186870e-004,-5.817142e-004
2.542187e-004,-6.225546e-004
-2.648765e-004,-6.771705e-004
-5.433047e-004,-7.653341e-004
-5.693972e-004,-8.915829e-004
-3.948528e-004,-1.037928e-003
-1.058904e-004,-1.172604e-003
2.083542e-004,-1.264171e-003
4.879170e-004,-1.298853e-003
7.020054e-004,-1.272761e-003
8.465679e-004,-1.194807e-003
9.267902e-004,-1.092220e-003
9.564483e-004,-9.983840e-004
9.535311e-004,-9.363130e-004
9.293833e-004,-8.954725e-004
9.010218e-004,-8.261086e-004
8.741189e-004,-6.736051e-004
8.339267e-004,-4.206212e-004
7.543526e-004,-9.260107e-005
6.300483e-004,2.654013e-004
4.777069e-004,6.052523e-004
3.243930e-004,8.877325e-004
1.931201e-004,1.083670e-003
8.226741e-005,1.167296e-003
-3.328516e-005,1.096959e-003
-1.807646e-004,8.491609e-004
-3.788084e-004,4.503179e-004
-6.243373e-004,-1.254080e-005
-8.622491e-004,-4.193247e-004
-1.009566e-003,-6.620985e-004
-1.002922e-003,-7.034251e-004
-8.238396e-004,-5.903036e-004
-4.898231e-004,-4.405553e-004
-4.203669e-005,-3.880461e-004
4.655520e-004,-5.222362e-004
9.835132e-004,-8.638698e-004
1.451883e-003,-1.364165e-003
1.783955e-003,-1.908705e-003
1.880223e-003,-2.349685e-003
1.693361e-003,-2.569770e-003
1.281714e-003,-2.511913e-003
7.765555e-004,-2.186647e-003
3.064038e-004,-1.662690e-003
-6.537409e-005,-1.046841e-003
-3.340784e-004,-4.465517e-004
-5.288809e-004,6.687121e-005
-7.095836e-004,4.728449e-004
-9.659709e-004,7.851450e-004
-1.367569e-003,1.018033e-003
-1.909515e-003,1.173940e-003
-2.529416e-003,1.256107e-003
-3.137649e-003,1.276366e-003
-3.643456e-003,1.247518e-003
-3.963537e-003,1.176209e-003
-4.037601e-003,1.069408e-003
-3.843932e-003,9.404037e-004
-3.405057e-003,8.005413e-004
-2.781590e-003,6.292380e-004
-2.056833e-003,3.148312e-004
-1.318949e-003,-3.062031e-004
-6.436231e-004,-1.230948e-003
-7.120844e-005,-2.227812e-003
4.005638e-004,-2.988872e-003
8.050791e-004,-3.280591e-003
1.157734e-003,-3.011561e-003
1.413473e-003,-2.212416e-003
1.484134e-003,-9.808809e-004
1.335195e-003,5.321609e-004
1.043639e-003,2.072109e-003
7.575939e-004,3.415476e-003
6.052523e-004,4.389986e-003
6.332897e-004,4.879755e-003
7.981102e-004,4.864844e-003
1.014630e-003,4.439740e-003
1.207164e-003,3.784178e-003
1.322878e-003,3.097825e-003
1.341354e-003,2.546962e-003
1.272314e-003,2.205165e-003
1.145255e-003,2.022678e-003
9.966405e-004,1.868068e-003
8.549952e-004,1.599525e-003
7.355530e-004,1.135531e-003
6.399344e-004,4.674968e-004
5.584154e-004,-3.574158e-004
4.650658e-004,-1.234675e-003
3.252034e-004,-2.027337e-003
1.133840e-004,-2.592459e-003
-1.598582e-004,-2.825024e-003
-4.484965e-004,-2.720005e-003
-6.873807e-004,-2.391660e-003
-8.278913e-004,-2.020044e-003
-8.603043e-004,-1.751015e-003
-8.095779e-004,-1.636273e-003
-7.129870e-004,-1.627359e-003
-5.924104e-004,-1.616177e-003
-4.570859e-004,-1.514238e-003
-3.117133e-004,-1.304039e-003
-1.579134e-004,-1.027070e-003
-2.978945e-006,-7.426449e-004
1.389903e-004,-4.919299e-004
2.688046e-004,-2.702246e-004
3.974845e-004,-3.749886e-005
5.318367e-004,2.423880e-004
6.504686e-004,5.639257e-004
6.775336e-004,8.784947e-004
5.248679e-004,1.117541e-003
1.775618e-004,1.248166e-003
-2.971275e-004,1.330982e-003
-7.714926e-004,1.451883e-003
-1.096109e-003,1.626265e-003
-1.158829e-003,1.807941e-003
-9.635399e-004,1.963200e-003
-6.253097e-004,2.062060e-003
-2.974516e-004,2.051040e-003
-8.644259e-005,1.899346e-003
-1.480971e-005,1.636638e-003
-3.911951e-005,1.343623e-003
-1.013526e-004,1.085452e-003
-1.601823e-004,8.643950e-004
-1.972953e-004,6.579236e-004
-2.015090e-004,4.292493e-004
-1.590478e-004,1.425557e-004
-5.613637e-005,-2.329496e-004
1.046324e-004,-7.220627e-004
2.965178e-004,-1.313925e-003
4.845136e-004,-1.932853e-003
6.460929e-004,-2.454379e-003
7.817416e-004,-2.753391e-003
9.086389e-004,-2.764249e-003
1.045746e-003,-2.504944e-003
1.196629e-003,-2.061046e-003
1.354481e-003,-1.541303e-003
1.516223e-003,-1.043600e-003
1.696926e-003,-6.382749e-004
1.904694e-003,-3.698948e-004
2.122511e-003,-2.585559e-004
2.318287e-003,-3.055549e-004
2.471925e-003,-4.843129e-004
2.564627e-003,-7.194696e-004
2.568841e-003,-9.008207e-004
2.459122e-003,-9.427955e-004
2.194144e-003,-8.299981e-004
1.692550e-003,-6.219063e-004
8.340888e-004,-4.134903e-004
-4.562756e-004,-2.770314e-004
-2.046136e-003,-2.274394e-004
-3.652370e-003,-2.237119e-004
-4.945336e-003,-2.131776e-004
-4.968512e-003,-1.652063e-004
-4.968512e-003,-7.914964e-005
-4.968512e-003,2.197911e-005
-4.350551e-003,1.090082e-004
-3.564044e-003,1.675138e-004
-2.895522e-003,2.000889e-004
-2.332344e-003,2.222919e-004
-1.820704e-003,2.466017e-004
-1.345204e-003,2.793389e-004
-9.390680e-004,3.190449e-004
-6.303337e-004,3.650715e-004
-4.102490e-004,4.206599e-004
-2.374874e-004,4.893756e-004
-5.613637e-005,5.689497e-004
1.709172e-004,6.491721e-004
4.412422e-004,7.209671e-004
7.198326e-004,7.872519e-004
9.603378e-004,8.553194e-004
1.129858e-003,9.314902e-004
1.220453e-003,1.010416e-003
1.245573e-003,1.078970e-003
1.234877e-003,1.128238e-003
1.222722e-003,1.152710e-003
1.234067e-003,1.153844e-003
1.273935e-003,1.135369e-003
1.328065e-003,1.114786e-003
1.374091e-003,1.109924e-003
1.397915e-003,1.122890e-003
1.401156e-003,1.138934e-003
1.395646e-003,1.137962e-003
1.393701e-003,1.097607e-003
1.391756e-003,1.004582e-003
1.378953e-003,8.541849e-004
1.346702e-003,6.456067e-004
1.291762e-003,3.840331e-004
1.211215e-003,1.005808e-004
1.096635e-003,-1.624512e-004
9.410520e-004,-3.626019e-004
7.441425e-004,-4.629203e-004
5.175750e-004,-4.557894e-004
2.730183e-004,-3.995528e-004
2.522042e-005,-4.107352e-004
-2.037779e-004,-6.006758e-004
-3.749188e-004,-9.839601e-004
-4.525481e-004,-1.471615e-003
-4.194868e-004,-1.931718e-003
-2.755728e-004,-2.255525e-003
-5.013995e-005,-2.381126e-003
2.025199e-004,-2.296366e-003
4.237391e-004,-2.032523e-003
5.601982e-004,-1.654911e-003
5.833735e-004,-1.230624e-003
5.086614e-004,-8.045539e-004
3.772264e-004,-3.904771e-004
2.386605e-004,1.274139e-005
1.346145e-004,4.047775e-004
9.037068e-005,7.783383e-004
1.099806e-004,1.127589e-003
1.842065e-004,1.444914e-003
2.923041e-004,1.717022e-003
3.997535e-004,1.931922e-003
4.738173e-004,2.075026e-003
5.013684e-004,2.121539e-003
5.144958e-004,2.059305e-003
5.598741e-004,1.915715e-003
6.575995e-004,1.751380e-003
7.887104e-004,1.637772e-003
9.029666e-004,1.618324e-003
9.378107e-004,1.698385e-003
8.439748e-004,1.861099e-003
5.961767e-004,2.068867e-003
1.987924e-004,2.271288e-003
-3.074997e-004,2.412933e-003
-8.475012e-004,2.447129e-003
-1.324135e-003,2.342921e-003
-1.632870e-003,2.103549e-003
-1.699479e-003,1.750246e-003
-1.517803e-003,1.243142e-003
-1.156722e-003,5.068787e-004
-7.629031e-004,-4.452552e-004
-5.086227e-004,-1.473559e-003
-4.919299e-004,-2.407543e-003
-6.862463e-004,-3.129707e-003
-9.834740e-004,-3.595485e-003
-1.268547e-003,-3.793692e-003
-1.457029e-003,-3.703583e-003
-1.506621e-003,-3.313814e-003
-1.414892e-003,-2.683054e-003
-1.222682e-003,-1.935932e-003
-1.006163e-003,-1.230786e-003
-8.411807e-004,-7.034251e-004
-7.789475e-004,-4.157593e-004
-8.121710e-004,-3.395886e-004
-8.549562e-004,-3.786463e-004
-8.048780e-004,-4.206212e-004
-6.138030e-004,-3.932322e-004
-3.066893e-004,-2.956689e-004
4.855783e-005,-1.806025e-004
3.814401e-004,-1.055663e-004
6.447964e-004,-9.519411e-005
8.227442e-004,-1.402483e-004
9.342453e-004,-2.172293e-004
1.004744e-003,-3.074997e-004
1.044612e-003,-4.000390e-004
1.042343e-003,-4.878783e-004
9.783271e-004,-5.624284e-004
8.452713e-004,-6.134789e-004
6.676476e-004,-6.358439e-004
4.911583e-004,-6.317923e-004
3.606957e-004,-6.073205e-004
3.072141e-004,-5.728005e-004
3.286068e-004,-5.452494e-004
3.853296e-004,-5.418460e-004
4.222805e-004,-5.685869e-004
4.025085e-004,-6.201236e-004
3.193690e-004,-7.264384e-004
1.955511e-004,-9.562470e-004
6.492643e-005,-1.307767e-003
-3.895745e-005,-1.659286e-003
-9.584238e-005,-1.814383e-003
-1.036215e-004,-1.635625e-003
-7.866345e-005,-1.111992e-003
-4.673658e-005,-3.481781e-004
-2.826114e-005,4.898618e-004
-2.113026e-005,1.246708e-003
-1.497178e-005,1.832575e-003
4.638125e-006,2.201761e-003
4.709924e-005,2.351348e-003
1.052807e-004,2.321852e-003
1.629760e-004,2.186203e-003
2.107852e-004,2.009551e-003
2.491947e-004,1.819772e-003
2.895490e-004,1.606655e-003
3.493511e-004,1.343299e-003
4.503179e-004,1.004744e-003
6.140039e-004,5.817529e-004
8.361956e-004,1.227837e-004
1.060656e-003,-2.600145e-004
1.178964e-003,-4.460655e-004
1.082859e-003,-3.609812e-004
7.201568e-004,1.014835e-005
1.558451e-004,5.901803e-004
-4.243487e-004,1.208298e-003
-8.126572e-004,1.673264e-003
-9.014689e-004,1.854292e-003
-7.154180e-004,1.736794e-003
-3.732982e-004,1.417201e-003
-1.950961e-005,1.040398e-003
2.402811e-004,7.251808e-004
3.697714e-004,5.237334e-004
3.965121e-004,4.258460e-004
3.673404e-004,3.619922e-004
3.159656e-004,2.119197e-004
2.547049e-004,-1.389517e-004
1.903650e-004,-7.222248e-004
1.328318e-004,-1.474208e-003
9.782569e-005,-2.264439e-003
9.652917e-005,-2.930204e-003
9.426025e-005,-3.341527e-003
5.124321e-006,-3.448977e-003
-2.525595e-004,-3.288046e-003
-6.812222e-004,-2.951273e-003
-1.192052e-003,-2.542219e-003
-1.625901e-003,-2.131383e-003
-1.795421e-003,-1.752798e-003
-1.593488e-003,-1.411813e-003
-1.081199e-003,-1.103726e-003
-4.684305e-004,-8.252983e-004
5.448452e-006,-5.843072e-004
1.804790e-004,-3.935563e-004
2.424803e-005,-2.642282e-004
-3.784843e-004,-1.971332e-004
-8.656525e-004,-1.809267e-004
-1.260119e-003,-1.917850e-004
-1.434340e-003,-1.982676e-004
-1.337263e-003,-1.618029e-004
-9.959530e-004,-2.566809e-005
-4.971161e-004,2.415777e-004
6.038860e-005,6.031455e-004
5.890459e-004,9.786512e-004
1.027109e-003,1.283821e-003
1.335195e-003,1.467441e-003
1.487861e-003,1.517357e-003
1.465982e-003,1.466955e-003
1.256594e-003,1.368905e-003
8.585607e-004,1.269721e-003
2.837146e-004,1.200195e-003
-4.365036e-004,1.173616e-003
-1.212148e-003,1.173130e-003
-1.886826e-003,1.156599e-003
-2.287614e-003,1.069894e-003
-2.315489e-003,8.687708e-004
-1.987631e-003,5.441537e-004
-1.447467e-003,1.328318e-004
-9.215650e-004,-2.969654e-004
-6.133168e-004,-6.752257e-004
-5.948414e-004,-9.387439e-004
-7.672789e-004,-1.031283e-003
-9.199444e-004,-9.285338e-004
-8.659766e-004,-6.635571e-004
-5.540010e-004,-3.246786e-004
-7.785312e-005,-1.383732e-005
4.149876e-004,1.924718e-004
8.201511e-004,2.752873e-004
1.108790e-003,2.851732e-004
1.305862e-003,3.002453e-004
1.445238e-003,3.840331e-004
1.553012e-003,5.603603e-004
1.637448e-003,8.196649e-004
1.689147e-003,1.128238e-003
1.685257e-003,1.442159e-003
1.613138e-003,1.722532e-003
1.485592e-003,1.949425e-003
1.320285e-003,2.119108e-003
1.131965e-003,2.235471e-003
9.342453e-004,2.306942e-003
7.370116e-004,2.338869e-003
5.558224e-004,2.339031e-003
4.209840e-004,2.325094e-003
3.613439e-004,2.316828e-003
3.801436e-004,2.331738e-003
4.410801e-004,2.386192e-003
4.731691e-004,2.483432e-003
4.169324e-004,2.599471e-003
2.668598e-004,2.683260e-003
6.168512e-005,2.676615e-003
-1.430034e-004,2.535131e-003
-3.032860e-004,2.239847e-003
-3.959873e-004,1.797083e-003
-4.233763e-004,1.244925e-003
-4.060354e-004,6.480376e-004
-3.600088e-004,8.923623e-005
-2.781658e-004,-3.655190e-004
-1.454344e-004,-7.076389e-004
4.418206e-005,-1.008594e-003
2.731804e-004,-1.437743e-003
5.107683e-004,-2.176599e-003
7.235601e-004,-3.235860e-003
8.874084e-004,-4.437095e-003
9.893475e-004,-4.968512e-003
1.022895e-003,-4.968674e-003
9.815684e-004,-4.968512e-003
8.562917e-004,-4.968512e-003
6.540340e-004,-4.736918e-003
4.062361e-004,-3.410892e-003
1.470936e-004,-1.983903e-003
-9.746302e-005,-6.595054e-004
-3.123616e-004,3.927847e-004
-4.891749e-004,1.070542e-003
-6.283889e-004,1.383491e-003
-7.180111e-004,1.404884e-003
-7.419967e-004,1.240225e-003
-6.953219e-004,9.956681e-004
-5.990551e-004,7.483562e-004
-4.911196e-004,5.290816e-004
-3.971218e-004,3.264999e-004
-3.287302e-004,1.242423e-004
-3.023136e-004,-8.206682e-005
-3.355370e-004,-2.827037e-004
-4.045768e-004,-4.554653e-004
-4.473620e-004,-5.791211e-004
-3.945287e-004,-6.379507e-004
-2.109087e-004,-6.363301e-004
7.951231e-005,-5.724764e-004
3.963501e-004,-4.211074e-004
6.443101e-004,-1.773612e-004
7.548388e-004,1.174356e-004
7.096225e-004,4.093153e-004
5.435055e-004,6.679717e-004
3.273102e-004,8.786568e-004
1.467694e-004,1.009282e-003
6.800567e-005,1.026299e-003
1.057669e-004,9.340832e-004
2.224539e-004,7.718556e-004
3.472443e-004,5.848321e-004
4.005638e-004,4.119083e-004
3.305515e-004,2.709115e-004
1.328318e-004,1.406109e-004
-1.496481e-004,-1.610624e-005
-4.446069e-004,-2.144742e-004
-6.656639e-004,-4.305072e-004
-7.432932e-004,-6.133168e-004
-6.517263e-004,-7.219006e-004
-4.133283e-004,-7.287074e-004
-8.060823e-005,-5.838210e-004
2.858215e-004,-2.360289e-004
6.290760e-004,2.837146e-004
9.032908e-004,8.627744e-004
1.075728e-003,1.372957e-003
1.129858e-003,1.709567e-003
1.068922e-003,1.801134e-003
9.269523e-004,1.609248e-003
7.546768e-004,1.149955e-003
5.892079e-004,5.164405e-004
4.451317e-004,-1.319829e-004
3.146691e-004,-6.525366e-004
1.759412e-004,-9.756948e-004
5.772582e-006,-1.111830e-003
-2.088019e-004,-1.129819e-003
-4.512515e-004,-1.117178e-003
-6.616123e-004,-1.150563e-003
-7.820268e-004,-1.262064e-003
-8.165467e-004,-1.418944e-003
-8.522011e-004,-1.551999e-003
-9.761810e-004,-1.589112e-003
-1.190269e-003,-1.487983e-003
-1.416350e-003,-1.259957e-003
-1.576633e-003,-9.648365e-004
-1.650211e-003,-6.697156e-004
-1.661393e-003,-4.146248e-004
-1.640001e-003,-2.011848e-004
-1.581981e-003,-1.853722e-005
-1.433367e-003,1.391524e-004
-1.124309e-003,2.658874e-004
-6.473506e-004,3.519442e-004
-9.179074e-005,3.910019e-004
4.026706e-004,3.843572e-004
7.298806e-004,3.389789e-004
8.562917e-004,2.679943e-004
8.138306e-004,1.924718e-004
6.692683e-004,1.284560e-004
4.927790e-004,8.178122e-005
3.252034e-004,5.017848e-005
1.770756e-004,2.667901e-005
5.212327e-005,8.365628e-006
-4.527799e-005,-8.813297e-006
-1.261486e-004,-3.279896e-005
-2.159328e-004,-6.602235e-005
-3.373197e-004,-1.062146e-004
-4.880404e-004,-1.488377e-004
-6.274165e-004,-1.835197e-004
-6.948357e-004,-2.034537e-004
-6.496195e-004,-2.076674e-004
-4.847991e-004,-1.959987e-004
-2.224154e-004,-1.669890e-004
8.907416e-005,-1.118868e-004
3.830607e-004,-8.813297e-006
5.908285e-004,1.516314e-004
6.817472e-004,3.482167e-004
6.687820e-004,5.345919e-004
5.992560e-004,6.556547e-004
5.371849e-004,6.806127e-004
5.355643e-004,5.887217e-004
6.109247e-004,3.252034e-004
7.373357e-004,-1.459206e-004
8.590469e-004,-7.270867e-004
9.122044e-004,-1.193511e-003
8.677984e-004,-1.325270e-003
7.316634e-004,-1.018156e-003
5.146578e-004,-3.159271e-004
2.232643e-004,6.120591e-004
-1.079973e-004,1.514440e-003
-4.100870e-004,2.176641e-003
-6.261200e-004,2.485539e-003
-7.582033e-004,2.463336e-003
-8.462047e-004,2.245357e-003
-8.936898e-004,2.009875e-003
-8.368049e-004,1.879088e-003
-5.951655e-004,1.867905e-003
-1.446240e-004,1.890271e-003
4.383250e-004,1.821231e-003
1.013982e-003,1.548798e-003
1.455286e-003,9.950198e-004
1.669537e-003,1.430419e-004
1.599363e-003,-9.212409e-004
1.251732e-003,-1.992817e-003
7.092984e-004,-2.818217e-003
1.036600e-004,-3.169251e-003
-4.159214e-004,-2.950625e-003
-7.257902e-004,-2.256011e-003
-7.828371e-004,-1.328025e-003
-6.501057e-004,-4.387725e-004
-4.587066e-004,2.367157e-004
-3.340784e-004,6.867713e-004
-3.439643e-004,1.017385e-003
-4.773441e-004,1.324175e-003
-6.522125e-004,1.623024e-003
-7.676030e-004,1.869364e-003
-7.583653e-004,2.002744e-003
-6.128307e-004,1.981838e-003
-3.718396e-004,1.803403e-003
-1.010285e-004,1.499530e-003
1.462832e-004,1.139258e-003
3.545372e-004,8.097790e-004
5.264886e-004,5.772150e-004
6.652166e-004,4.548557e-004
7.694247e-004,4.073705e-004
8.462437e-004,3.812780e-004
9.219283e-004,3.289309e-004
1.019168e-003,2.273159e-004
1.144606e-003,8.793970e-005
1.298731e-003,-6.229485e-005
1.471169e-003,-2.062088e-004
1.632100e-003,-3.381300e-004
1.737929e-003,-4.541688e-004
1.748949e-003,-5.515700e-004
1.655437e-003,-6.303337e-004
1.472789e-003,-6.915944e-004
1.211864e-003,-7.384312e-004
8.783326e-004,-7.601480e-004
4.845136e-004,-7.306521e-004
8.421220e-005,-6.288751e-004
-2.517492e-004,-4.535205e-004
-4.833405e-004,-2.225774e-004
-6.082929e-004,2.473423e-005
-6.590193e-004,2.530843e-004
-7.240074e-004,4.404318e-004
-9.293442e-004,5.752703e-004
-1.369351e-003,6.389620e-004
-2.029606e-003,6.125454e-004
-2.769759e-003,4.911583e-004
-3.375237e-003,3.075383e-004
-3.667604e-003,1.226217e-004
-3.582357e-003,-1.416145e-005
-3.163093e-003,-9.940781e-005
-2.516451e-003,-1.854645e-004
-1.763981e-003,-3.535262e-004
-1.023342e-003,-6.669604e-004
-3.865875e-004,-1.136140e-003
8.469840e-005,-1.723950e-003
3.700955e-004,-2.334451e-003
5.180612e-004,-2.821620e-003
6.144901e-004,-3.048188e-003
7.243705e-004,-2.972828e-003
8.515919e-004,-2.675437e-003
9.604999e-004,-2.332182e-003
1.041533e-003,-2.159420e-003
1.116569e-003,-2.285507e-003
1.206678e-003,-2.646914e-003
1.301324e-003,-3.035871e-003
1.357236e-003,-3.228081e-003
1.330820e-003,-3.083356e-003
1.197926e-003,-2.556805e-003
9.634171e-004,-1.692834e-003
6.528996e-004,-5.834968e-004
3.122381e-004,6.444722e-004
6.582909e-006,1.797893e-003
-1.911368e-004,2.712918e-003
-2.318152e-004,3.273182e-003
-1.186936e-004,3.445134e-003
8.793970e-005,3.266051e-003
2.974902e-004,2.840626e-003
4.229288e-004,2.316990e-003
4.008879e-004,1.846513e-003
2.070577e-004,1.538426e-003
-1.253383e-004,1.420604e-003
-5.175362e-004,1.442807e-003
-8.867210e-004,1.517843e-003
-1.150725e-003,1.572946e-003
-1.245209e-003,1.579915e-003
-1.145377e-003,1.551391e-003
-8.829935e-004,1.523516e-003
-5.279084e-004,1.532591e-003
-1.707166e-004,1.596931e-003
1.104668e-004,1.705840e-003
2.704253e-004,1.824148e-003
3.239069e-004,1.907612e-003
3.245551e-004,1.921549e-003
3.292550e-004,1.850727e-003
3.712299e-004,1.712646e-003
4.602039e-004,1.539722e-003
5.801322e-004,1.355616e-003
7.031399e-004,1.173454e-003
8.036205e-004,9.898337e-004
8.673123e-004,8.031343e-004
8.974564e-004,6.130316e-004
9.058838e-004,4.179048e-004
8.990770e-004,2.276400e-004
8.786568e-004,5.601284e-005
8.438127e-004,-8.579432e-005
7.981102e-004,-2.036158e-004
7.519216e-004,-3.233821e-004
7.127018e-004,-4.875542e-004
6.736440e-004,-7.304901e-004
6.182176e-004,-1.060941e-003
5.328091e-004,-1.445360e-003
4.154738e-004,-1.813248e-003
2.701012e-004,-2.081629e-003
1.070634e-004,-2.200261e-003
-6.229485e-005,-2.189402e-003
-2.212809e-004,-2.135759e-003
-3.504470e-004,-2.127493e-003
-4.335865e-004,-2.188268e-003
-4.603272e-004,-2.276107e-003
-4.413656e-004,-2.315489e-003
-4.011734e-004,-2.248232e-003
-3.687603e-004,-2.046947e-003
-3.760533e-004,-1.692996e-003
-4.381243e-004,-1.184759e-003
-5.277464e-004,-5.779866e-004
-5.745832e-004,3.364782e-005
-4.930644e-004,5.666808e-004
-2.327876e-004,9.679549e-004
1.892305e-004,1.199709e-003
6.810990e-004,1.252704e-003
1.108628e-003,1.160975e-003
1.369391e-003,1.003933e-003
1.446697e-003,8.665019e-004
1.396294e-003,7.872519e-004
1.297596e-003,7.535422e-004
1.212188e-003,7.136742e-004
1.165189e-003,5.584154e-004
1.118190e-003,1.607070e-004
9.661721e-004,-5.014918e-004
6.146522e-004,-1.300636e-003
5.131294e-005,-2.029768e-003
-6.376266e-004,-2.494896e-003
-1.313277e-003,-2.573822e-003
-1.839665e-003,-2.252770e-003
-2.126521e-003,-1.630277e-003
-2.151317e-003,-8.663007e-004
-1.969317e-003,-1.284175e-004
-1.674683e-003,4.624728e-004
-1.352335e-003,8.609917e-004
-1.051217e-003,1.086263e-003
-7.917507e-004,1.195009e-003
-5.671282e-004,1.252704e-003
-3.535262e-004,1.302944e-003
-1.285796e-004,1.356588e-003
1.193804e-004,1.400994e-003
3.767402e-004,1.407963e-003
6.190279e-004,1.346702e-003
8.186926e-004,1.219481e-003
9.604999e-004,1.081563e-003
1.044288e-003,9.945336e-004
1.074756e-003,9.734652e-004
1.056605e-003,1.011713e-003
9.886993e-004,1.104414e-003
8.744431e-004,1.241035e-003
7.191843e-004,1.372957e-003
5.324850e-004,1.418983e-003
3.230965e-004,1.310886e-003
1.039842e-004,1.025326e-003
-1.007043e-004,5.893700e-004
-2.679557e-004,4.677511e-005
-3.985804e-004,-5.648594e-004
-5.147812e-004,-1.205017e-003
-6.478368e-004,-1.807252e-003
-8.201121e-004,-2.284049e-003
-1.031283e-003,-2.560209e-003
-1.253961e-003,-2.603804e-003
-1.445846e-003,-2.441414e-003
-1.553782e-003,-2.139324e-003
-1.538224e-003,-1.773056e-003
-1.402899e-003,-1.397227e-003
-1.187838e-003,-1.025449e-003
-9.374474e-004,-6.439472e-004
-6.796016e-004,-2.100984e-004
-4.300210e-004,3.418961e-004
-2.032917e-004,1.035698e-003
-2.291298e-005,1.815234e-003
8.664318e-005,2.573055e-003
1.133840e-004,3.187124e-003
6.055066e-005,3.551450e-003
-4.462973e-005,3.608173e-003
-1.655305e-004,3.372204e-003
-2.671454e-004,2.932842e-003
-3.227338e-004,2.432057e-003
-3.164132e-004,2.018302e-003
-2.436459e-004,1.775690e-003
-1.277692e-004,1.669861e-003
-7.354709e-006,1.558522e-003
8.080883e-005,1.267452e-003
1.161391e-004,6.661890e-004
9.377406e-005,-2.921034e-004
1.646890e-005,-1.545354e-003
-1.023250e-004,-2.940414e-003
-2.280877e-004,-4.239860e-003
-3.159271e-004,-4.968350e-003
-3.250027e-004,-4.968350e-003
-2.449425e-004,-4.968350e-003
-1.011905e-004,-4.469508e-003
6.460230e-005,-3.506997e-003
2.164575e-004,-2.624062e-003
3.448133e-004,-1.969642e-003
4.577728e-004,-1.527689e-003
5.550121e-004,-1.179735e-003
6.162729e-004,-8.136295e-004
6.238899e-004,-3.880461e-004
5.982835e-004,6.184718e-005
6.071971e-004,4.568005e-004
7.238843e-004,7.224257e-004
9.807581e-004,8.219338e-004
1.358209e-003,7.687764e-004
1.781848e-003,6.242140e-004
2.149090e-003,4.734932e-004
2.337735e-003,3.728506e-004
2.229637e-003,2.772320e-004
1.758511e-003,2.910999e-005
9.885372e-004,-5.086227e-004
1.146805e-004,-1.306794e-003
-6.254718e-004,-2.181461e-003
-1.071800e-003,-2.903139e-003
-1.166608e-003,-3.283832e-003
-9.530057e-004,-3.224840e-003
-5.554595e-004,-2.752094e-003
-1.384655e-004,-1.979041e-003
1.509831e-004,-1.035497e-003
2.093267e-004,-4.965376e-005
-7.516774e-006,8.425161e-004
-4.575721e-004,1.528864e-003
-1.007136e-003,1.958662e-003
-1.478584e-003,2.144876e-003
-1.726706e-003,2.174372e-003
-1.708392e-003,2.174534e-003
-1.475180e-003,2.242278e-003
-1.124633e-003,2.406451e-003
-7.496137e-004,2.638367e-003
-3.979321e-004,2.881305e-003
-8.028410e-005,3.084698e-003
2.172679e-004,3.224724e-003
5.148199e-004,3.296519e-003
8.196649e-004,3.303002e-003
1.087235e-003,3.250492e-003
1.238604e-003,3.151145e-003
1.235687e-003,3.014686e-003
1.115272e-003,2.841761e-003
9.399176e-004,2.625726e-003
7.326358e-004,2.352159e-003
4.837033e-004,2.015223e-003
1.991165e-004,1.644741e-003
-7.590833e-005,1.296624e-003
-2.580697e-004,1.032457e-003
-2.640662e-004,8.976185e-004
-8.692878e-005,8.917841e-004
1.808031e-004,9.609861e-004
3.879227e-004,1.014306e-003
4.237391e-004,9.677928e-004
2.608634e-004,7.819037e-004
-6.796714e-005,4.736553e-004
-4.907955e-004,9.507057e-005
-9.022792e-004,-2.823795e-004
-1.202748e-003,-5.881967e-004
-1.356710e-003,-7.729512e-004
-1.414568e-003,-8.184915e-004
-1.464970e-003,-7.439415e-004
-1.582305e-003,-5.987309e-004
-1.780673e-003,-4.468758e-004
-2.004000e-003,-3.371576e-004
-2.174817e-003,-2.899966e-004
-2.221491e-003,-3.016653e-004
-2.088274e-003,-3.596847e-004
-1.748260e-003,-4.533584e-004
-1.209069e-003,-5.745832e-004
-5.232086e-004,-7.157421e-004
2.216436e-004,-8.711627e-004
9.175525e-004,-1.029014e-003
1.479758e-003,-1.169849e-003
1.863368e-003,-1.270330e-003
2.065626e-003,-1.311980e-003
2.118459e-003,-1.289777e-003
2.066274e-003,-1.214741e-003
