-5.191569e-004,-8.640318e-004
-5.300153e-004,-7.941817e-004
-5.567560e-004,-6.632329e-004
-5.857658e-004,-4.731304e-004
-5.938690e-004,-2.358668e-004
-5.632387e-004,2.392390e-005
-4.935506e-004,2.689667e-004
-3.956632e-004,4.584211e-004
-2.865932e-004,5.691118e-004
-1.869231e-004,5.984457e-004
-1.152902e-004,5.613327e-004
-8.790117e-005,4.809482e-004
-1.141558e-004,3.827366e-004
-1.854645e-004,2.932765e-004
-2.729798e-004,2.313675e-004
-3.425058e-004,2.057612e-004
-3.677880e-004,2.133783e-004
-3.290543e-004,2.454672e-004
-2.091260e-004,2.952213e-004
-2.031993e-005,3.516200e-004
1.911753e-004,4.026706e-004
3.692851e-004,4.397836e-004
4.762483e-004,4.605280e-004
5.073649e-004,4.704139e-004
4.726828e-004,4.726828e-004
3.880847e-004,4.678209e-004
2.837146e-004,4.555039e-004
1.952270e-004,4.370285e-004
1.522796e-004,4.136911e-004
1.678379e-004,3.898674e-004
2.221298e-004,3.713920e-004
2.801492e-004,3.613439e-004
3.128864e-004,3.537269e-004
2.992729e-004,3.383307e-004
2.313675e-004,3.101313e-004
1.143563e-004,2.726942e-004
-2.129233e-005,2.312055e-004
-1.357104e-004,1.957132e-004
-2.021572e-004,1.689724e-004
-2.147983e-004,1.498487e-004
-1.877334e-004,1.323456e-004
-1.459206e-004,1.043083e-004
-1.092938e-004,5.698522e-005
-8.660465e-005,-6.382317e-006
-7.007399e-005,-7.234290e-005
-5.467778e-005,-1.253383e-004
-5.078821e-005,-1.574272e-004
-6.699475e-005,-1.760647e-004
-9.519411e-005,-1.951884e-004
-1.002181e-004,-2.240360e-004
-4.511593e-005,-2.598524e-004
8.826383e-005,-2.942103e-004
2.796630e-004,-3.201407e-004
4.824068e-004,-3.397507e-004
6.519272e-004,-3.630881e-004
7.699109e-004,-3.967976e-004
8.442989e-004,-4.418518e-004
8.911358e-004,-4.995471e-004
9.207938e-004,-5.531906e-004
9.353797e-004,-5.760419e-004
9.303557e-004,-5.504355e-004
8.994011e-004,-4.875542e-004
8.370060e-004,-4.079801e-004
7.472217e-004,-3.403989e-004
6.392861e-004,-3.087962e-004
5.269747e-004,-3.212752e-004
4.148255e-004,-3.650328e-004
2.957075e-004,-4.190006e-004
1.602208e-004,-4.619479e-004
1.403791e-005,-4.852853e-004
-1.271210e-004,-4.860956e-004
-2.433218e-004,-4.679443e-004
-3.199787e-004,-4.339106e-004
-3.514194e-004,-3.731361e-004
-3.438023e-004,-2.784900e-004
-3.097686e-004,-1.619650e-004
-2.760590e-004,-5.467778e-005
-2.676316e-004,1.128280e-005
-2.930758e-004,2.619281e-005
-3.457471e-004,3.341602e-006
-4.136524e-004,-3.668853e-005
-4.822060e-004,-8.287715e-005
-5.343911e-004,-1.358725e-004
-5.543251e-004,-1.940539e-004
-5.352014e-004,-2.519113e-004
-4.822060e-004,-3.006929e-004
-4.045768e-004,-3.335922e-004
-3.073376e-004,-3.454229e-004
-1.882196e-004,-3.275957e-004
-5.111234e-005,-2.812451e-004
9.426025e-005,-2.227395e-004
2.245608e-004,-1.806025e-004
3.047831e-004,-1.784957e-004
3.042970e-004,-2.162569e-004
2.237505e-004,-2.723315e-004
9.231547e-005,-3.219235e-004
-4.187462e-005,-3.579019e-004
-1.379794e-004,-3.899909e-004
-1.831956e-004,-4.249970e-004
-1.906506e-004,-4.572480e-004
-1.771992e-004,-4.718339e-004
-1.499722e-004,-4.531963e-004
-1.049180e-004,-3.964735e-004
-3.150244e-005,-3.083100e-004
6.995045e-005,-1.958367e-004
1.812893e-004,-6.326724e-005
2.735045e-004,8.858796e-005
3.149933e-004,2.555152e-004
2.921420e-004,4.260080e-004
2.099749e-004,5.893700e-004
9.426025e-005,7.400909e-004
-2.501983e-005,8.677984e-004
-1.248521e-004,9.580689e-004
-1.950263e-004,1.007499e-003
-2.371633e-004,1.027433e-003
-2.567732e-004,1.034564e-003
-2.536940e-004,1.042181e-003
-2.237119e-004,1.053039e-003
-1.713648e-004,1.051905e-003
-1.091317e-004,1.015116e-003
-5.159854e-005,9.292212e-004
-7.030578e-006,7.982723e-004
1.419998e-005,6.387999e-004
3.827799e-006,4.773828e-004
-3.928157e-005,3.545372e-004
-1.073490e-004,3.159656e-004
-1.791439e-004,3.744712e-004
-2.274394e-004,4.926169e-004
-2.345703e-004,6.005525e-004
-2.044261e-004,6.328035e-004
-1.478653e-004,5.595500e-004
-7.266703e-005,3.809539e-004
1.290346e-005,1.166253e-004
9.280167e-005,-1.937298e-004
1.464453e-004,-4.956574e-004
1.592484e-004,-7.402140e-004
1.347766e-004,-9.006586e-004
8.680524e-005,-9.794224e-004
2.943412e-005,-9.980599e-004
-2.080613e-005,-9.776396e-004
-5.078821e-005,-9.387439e-004
-6.067420e-005,-8.988759e-004
-6.764301e-005,-8.603043e-004
-9.162867e-005,-8.183295e-004
-1.371690e-004,-7.599859e-004
-2.021572e-004,-6.770085e-004
-2.861070e-004,-5.702075e-004
-3.933943e-004,-4.653512e-004
-5.170500e-004,-3.906392e-004
-6.373025e-004,-3.564434e-004
-7.319486e-004,-3.501228e-004
-7.838095e-004,-3.421817e-004
-7.789475e-004,-3.079858e-004
-7.212523e-004,-2.451045e-004
-6.207718e-004,-1.616409e-004
-4.966299e-004,-7.023606e-005
-3.629260e-004,1.971020e-005
-2.395943e-004,1.025256e-004
-1.449482e-004,1.746447e-004
-8.547019e-005,2.320158e-004
-4.900550e-005,2.788527e-004
-1.805102e-005,3.169380e-004
2.019640e-005,3.393030e-004
7.092284e-005,3.404375e-004
1.273216e-004,3.201794e-004
1.754550e-004,2.871180e-004
1.970097e-004,2.561635e-004
1.840444e-004,2.372019e-004
1.464453e-004,2.312055e-004
1.171115e-004,2.292607e-004
1.334801e-004,2.282883e-004
2.214815e-004,2.247229e-004
3.848434e-004,2.145127e-004
6.042800e-004,1.974959e-004
8.467299e-004,1.819376e-004
1.077673e-003,1.735102e-004
1.275879e-003,1.735102e-004
1.423845e-003,1.827479e-004
1.500827e-003,2.099749e-004
1.484134e-003,2.671840e-004
1.365664e-003,3.615060e-004
1.151575e-003,4.896998e-004
8.669881e-004,6.425274e-004
5.457744e-004,8.041067e-004
2.258573e-004,9.488311e-004
-5.386745e-005,1.039264e-003
-2.600145e-004,1.041857e-003
-3.702189e-004,9.541793e-004
-3.862634e-004,8.070238e-004
-3.271096e-004,6.464170e-004
-2.287359e-004,5.076890e-004
-1.235555e-004,4.156358e-004
-3.215070e-005,3.828986e-004
3.899597e-005,4.091532e-004
8.291568e-005,4.720346e-004
9.296373e-005,5.303781e-004
6.654708e-005,5.435055e-004
1.419998e-005,4.913204e-004
-4.608832e-005,3.778746e-004
-1.002181e-004,2.300710e-004
-1.480274e-004,8.567078e-005
-1.992400e-004,-1.772689e-005
-2.566112e-004,-6.132246e-005
-3.094444e-004,-5.208474e-005
-3.366714e-004,-1.545797e-005
-3.157650e-004,1.938607e-005
-2.465631e-004,3.024445e-005
-1.564548e-004,4.638125e-006
-8.871149e-005,-5.548811e-005
-7.623246e-005,-1.327933e-004
-1.214487e-004,-2.079916e-004
-1.979435e-004,-2.677937e-004
-2.622834e-004,-3.003688e-004
-2.804347e-004,-2.985861e-004
-2.421874e-004,-2.562870e-004
-1.648822e-004,-1.655305e-004
-8.433573e-005,-2.826114e-005
-3.409549e-005,1.419075e-004
-2.550602e-005,3.183966e-004
-4.770897e-005,4.577728e-004
-8.449780e-005,5.227611e-004
-1.248521e-004,4.966686e-004
-1.655305e-004,3.937570e-004
-1.981056e-004,2.396328e-004
-2.139880e-004,5.260946e-005
-2.021572e-004,-1.449482e-004
-1.622891e-004,-3.238683e-004
-1.078352e-004,-4.611376e-004
-4.689865e-005,-5.460597e-004
1.549650e-005,-5.794452e-004
7.708133e-005,-5.703696e-004
1.294284e-004,-5.369841e-004
1.628139e-004,-5.068399e-004
1.736723e-004,-5.058676e-004
1.673517e-004,-5.486528e-004
1.483901e-004,-6.288751e-004
1.158149e-004,-7.287074e-004
7.335383e-005,-8.327533e-004
3.089271e-005,-9.355026e-004
2.531276e-006,-1.028852e-003
-5.571990e-006,-1.094651e-003
6.420843e-006,-1.110695e-003
4.709924e-005,-1.052676e-003
1.206769e-004,-9.100584e-004
2.140265e-004,-6.979149e-004
3.101313e-004,-4.619479e-004
4.038051e-004,-2.590421e-004
5.110924e-004,-1.259865e-004
6.360448e-004,-6.310517e-005
7.550009e-004,-4.349527e-005
8.329543e-004,-4.009191e-005
8.327923e-004,-3.911951e-005
7.363633e-004,-4.430560e-005
5.559844e-004,-5.921561e-005
3.167760e-004,-8.012204e-005
4.985435e-005,-9.276313e-005
-1.979435e-004,-8.174268e-005
-3.805911e-004,-4.333321e-005
-4.773441e-004,1.047248e-005
-4.935506e-004,6.314371e-005
-4.518998e-004,9.798775e-005
-3.849669e-004,1.034980e-004
-3.206269e-004,8.226741e-005
-2.788141e-004,4.450620e-005
-2.705488e-004,4.313994e-006
-2.961551e-004,-2.745081e-005
-3.507711e-004,-4.284701e-005
-4.274280e-004,-3.441962e-005
-5.108916e-004,-3.141010e-006
-5.715040e-004,3.786152e-005
-5.783107e-004,6.897806e-005
-5.238568e-004,8.032264e-005
-4.238625e-004,7.643307e-005
-3.052308e-004,6.622294e-005
-1.963229e-004,5.196120e-005
-1.266348e-004,3.024445e-005
-1.259865e-004,-6.176923e-008
-2.073433e-004,-3.198864e-005
-3.452609e-004,-5.727083e-005
-4.875542e-004,-7.088431e-005
-5.787970e-004,-7.347736e-005
-5.867381e-004,-6.829127e-005
-5.105674e-004,-4.835724e-005
-3.812394e-004,6.907040e-006
-2.428356e-004,1.018773e-004
-1.420310e-004,2.132162e-004
-1.112386e-004,3.089969e-004
-1.506204e-004,3.644232e-004
-2.308428e-004,3.734989e-004
-3.027998e-004,3.465960e-004
-3.180339e-004,3.010556e-004
-2.468872e-004,2.571359e-004
-9.162867e-005,2.346088e-004
1.127357e-004,2.363916e-004
3.114278e-004,2.430362e-004
4.582590e-004,2.224539e-004
5.456123e-004,1.513072e-004
6.016869e-004,2.651694e-005
6.674855e-004,-1.289037e-004
7.728280e-004,-2.770314e-004
9.100975e-004,-3.906392e-004
1.044450e-003,-4.663236e-004
1.128562e-003,-5.240189e-004
1.132775e-003,-5.807417e-004
1.056281e-003,-6.491333e-004
9.251696e-004,-7.407002e-004
7.780141e-004,-8.581975e-004
6.407447e-004,-9.742362e-004
5.136854e-004,-1.040035e-003
3.837090e-004,-1.016859e-003
2.483844e-004,-9.079515e-004
1.167873e-004,-7.497758e-004
-1.358292e-006,-5.919242e-004
-9.568031e-005,-4.617858e-004
-1.618029e-004,-3.601709e-004
-2.066950e-004,-2.820554e-004
-2.439701e-004,-2.243602e-004
-2.791382e-004,-1.846542e-004
-3.112272e-004,-1.558065e-004
-3.382920e-004,-1.381414e-004
-3.666535e-004,-1.361966e-004
-4.060354e-004,-1.509446e-004
-4.569239e-004,-1.658546e-004
-5.078124e-004,-1.559686e-004
-5.467080e-004,-9.859748e-005
-5.668041e-004,1.873781e-005
-5.702075e-004,1.936063e-004
-5.779866e-004,4.135290e-004
-6.120203e-004,6.503066e-004
-6.740913e-004,8.737948e-004
-7.387554e-004,1.064870e-003
-7.654962e-004,1.224343e-003
-7.269246e-004,1.348323e-003
-6.235270e-004,1.423521e-003
-4.812336e-004,1.438431e-003
-3.365093e-004,1.399211e-003
-2.139880e-004,1.320934e-003
-1.177212e-004,1.218346e-003
-4.171256e-005,1.112679e-003
2.327564e-005,1.038778e-003
8.486046e-005,1.032943e-003
1.443384e-004,1.107979e-003
1.918236e-004,1.246221e-003
2.156472e-004,1.403425e-003
2.135403e-004,1.528540e-003
1.932822e-004,1.576511e-003
1.642725e-004,1.533240e-003
1.321835e-004,1.418497e-003
1.007429e-004,1.267452e-003
7.951231e-005,1.115921e-003
7.594687e-005,9.872407e-004
9.199134e-005,8.835187e-004
1.222976e-004,7.898449e-004
1.540623e-004,6.969814e-004
1.702689e-004,6.086557e-004
1.584381e-004,5.362125e-004
1.146805e-004,4.752759e-004
3.753739e-005,4.041292e-004
-6.132246e-005,3.012177e-004
-1.580754e-004,1.717275e-004
-2.319772e-004,3.964424e-005
-2.728177e-004,-7.412562e-005
-2.838381e-004,-1.606685e-004
-2.799486e-004,-2.240360e-004
-2.716832e-004,-2.849726e-004
-2.583939e-004,-3.705430e-004
-2.394322e-004,-4.958195e-004
-2.182017e-004,-6.514022e-004
-2.071812e-004,-8.084435e-004
-2.136638e-004,-9.400405e-004
-2.345703e-004,-1.031283e-003
-2.509389e-004,-1.081361e-003
-2.370013e-004,-1.108588e-003
-1.715269e-004,-1.141812e-003
-5.402952e-005,-1.205341e-003
9.085688e-005,-1.304201e-003
2.263435e-004,-1.416188e-003
3.166139e-004,-1.507755e-003
3.511338e-004,-1.561885e-003
3.305515e-004,-1.580036e-003
2.548670e-004,-1.565289e-003
1.260251e-004,-1.518938e-003
-4.349527e-005,-1.438553e-003
-2.175534e-004,-1.321866e-003
-3.465574e-004,-1.173739e-003
-3.916115e-004,-1.022046e-003
-3.421817e-004,-9.113550e-004
-2.154466e-004,-8.761868e-004
-5.095028e-005,-9.124894e-004
1.023635e-004,-9.820154e-004
2.055991e-004,-1.033876e-003
2.423880e-004,-1.034849e-003
2.273159e-004,-9.794224e-004
1.866375e-004,-8.700282e-004
1.457970e-004,-7.084492e-004
1.203528e-004,-4.988988e-004
1.185701e-004,-2.421874e-004
1.428799e-004,3.818565e-005
1.939304e-004,2.785285e-004
2.660495e-004,3.984569e-004
3.393030e-004,3.417340e-004
3.785229e-004,1.096565e-004
3.569682e-004,-2.264670e-004
2.778803e-004,-5.585388e-004
1.809652e-004,-7.927231e-004
1.163011e-004,-8.705144e-004
1.201907e-004,-7.731132e-004
1.929580e-004,-5.176983e-004
3.132105e-004,-1.396000e-004
4.430249e-004,3.169380e-004
5.444778e-004,7.976240e-004
5.833735e-004,1.248490e-003
5.470709e-004,1.617190e-003
4.485351e-004,1.872119e-003
3.101313e-004,2.003879e-003
1.592484e-004,2.021544e-003
2.214118e-005,1.949587e-003
-8.044617e-005,1.813938e-003
-1.360346e-004,1.638907e-003
-1.472171e-004,1.445562e-003
-1.238797e-004,1.248166e-003
-7.850138e-005,1.055794e-003
-2.048200e-005,8.780085e-004
4.304761e-005,7.266394e-004
1.093323e-004,6.140039e-004
1.671896e-004,5.527431e-004
2.065715e-004,5.404262e-004
2.310434e-004,5.563086e-004
2.582704e-004,5.749461e-004
3.094830e-004,5.765668e-004
3.828986e-004,5.527431e-004
4.509661e-004,5.033132e-004
4.720346e-004,4.300596e-004
4.203358e-004,3.355756e-004
2.989488e-004,2.208333e-004
1.334801e-004,9.393612e-005
-3.652646e-005,-3.895745e-005
-1.642339e-004,-1.760647e-004
-2.120432e-004,-3.227338e-004
-1.721751e-004,-4.779923e-004
-6.553616e-005,-6.251476e-004
6.638502e-005,-7.366485e-004
1.803169e-004,-7.838095e-004
2.462775e-004,-7.535033e-004
2.621599e-004,-6.620985e-004
2.470879e-004,-5.458977e-004
2.315296e-004,-4.415277e-004
2.342847e-004,-3.805911e-004
2.509774e-004,-3.799429e-004
2.696149e-004,-4.279142e-004
2.833905e-004,-4.838267e-004
2.906835e-004,-5.087847e-004
2.801492e-004,-4.867439e-004
2.420638e-004,-4.279142e-004
1.769136e-004,-3.588744e-004
8.858796e-005,-3.071755e-004
-2.469570e-005,-2.872415e-004
-1.606685e-004,-2.906449e-004
-3.068514e-004,-2.937241e-004
-4.467137e-004,-2.763831e-004
-5.578905e-004,-2.374874e-004
-6.293613e-004,-1.885437e-004
-6.551297e-004,-1.504584e-004
-6.395715e-004,-1.404103e-004
-6.009999e-004,-1.558065e-004
-5.630766e-004,-1.890299e-004
-5.436288e-004,-2.327876e-004
-5.423322e-004,-2.741142e-004
-5.402254e-004,-3.147926e-004
-5.164018e-004,-3.606571e-004
-4.562756e-004,-4.100870e-004
-3.515814e-004,-4.609755e-004
-2.057227e-004,-5.191569e-004
-3.458168e-005,-5.873864e-004
1.404489e-004,-6.531850e-004
2.979764e-004,-7.008321e-004
4.258460e-004,-7.100698e-004
5.097958e-004,-6.488092e-004
5.407503e-004,-4.862577e-004
5.227611e-004,-2.190120e-004
4.662003e-004,1.153287e-004
3.828986e-004,4.527488e-004
2.773941e-004,7.311772e-004
1.647587e-004,9.131767e-004
7.205730e-005,9.896717e-004
1.971020e-005,9.770306e-004
1.306552e-005,9.078286e-004
4.142696e-005,8.160995e-004
8.631905e-005,7.201568e-004
1.304008e-004,6.250244e-004
1.626518e-004,5.404262e-004
1.726999e-004,4.801379e-004
1.542244e-004,4.475628e-004
1.026876e-004,4.243874e-004
1.371378e-005,3.838710e-004
-1.123730e-004,3.125623e-004
-2.721694e-004,2.167816e-004
-4.553032e-004,1.184080e-004
-6.439472e-004,3.478228e-005
-8.074710e-004,-3.231277e-005
-9.050344e-004,-8.919769e-005
-8.996862e-004,-1.361966e-004
-7.829992e-004,-1.724993e-004
-5.862520e-004,-1.992400e-004
-3.604950e-004,-2.102605e-004
-1.587237e-004,-2.052365e-004
-1.610624e-005,-1.838438e-004
5.179914e-005,-1.366828e-004
5.228533e-005,-5.127441e-005
3.827799e-006,7.708133e-005
-7.671866e-005,2.446569e-004
-1.702304e-004,4.383250e-004
-2.535319e-004,6.491721e-004
-3.086341e-004,8.830326e-004
-3.253268e-004,1.153358e-003
-2.953447e-004,1.446859e-003
-2.169052e-004,1.708595e-003
-1.034594e-004,1.855913e-003
1.954813e-005,1.817665e-003
1.331559e-004,1.563546e-003
2.326641e-004,1.117379e-003
3.175863e-004,5.585775e-004
3.879227e-004,-8.002969e-006
4.449697e-004,-4.807475e-004
4.871067e-004,-8.047160e-004
5.013684e-004,-9.891463e-004
4.671726e-004,-1.083144e-003
3.780367e-004,-1.140191e-003
2.360674e-004,-1.191242e-003
4.483033e-005,-1.240510e-003
-1.846542e-004,-1.266116e-003
-4.151110e-004,-1.234351e-003
-5.851175e-004,-1.108913e-003
-6.373025e-004,-8.675972e-004
-5.497872e-004,-5.094330e-004
-3.583881e-004,-5.143648e-005
-1.339277e-004,4.521006e-004
5.504044e-005,9.097734e-004
1.709172e-004,1.221749e-003
1.999268e-004,1.299703e-003
1.517934e-004,1.117217e-003
4.823370e-005,7.430080e-004
-9.405965e-005,3.060797e-004
-2.677937e-004,-7.153257e-005
-4.574101e-004,-3.207890e-004
-6.337371e-004,-4.387725e-004
-7.653341e-004,-4.619479e-004
-8.317808e-004,-4.371519e-004
-8.330774e-004,-4.084663e-004
-7.880232e-004,-4.050630e-004
-7.253040e-004,-4.365036e-004
-6.596675e-004,-4.998712e-004
-5.917621e-004,-5.898174e-004
-5.057055e-004,-6.977529e-004
-3.734602e-004,-8.113607e-004
-1.768750e-004,-9.170272e-004
7.140904e-005,-1.002760e-003
3.310377e-004,-1.055107e-003
5.543638e-004,-1.057052e-003
7.060571e-004,-9.922255e-004
7.802831e-004,-8.646801e-004
7.981102e-004,-7.029389e-004
7.838485e-004,-5.447632e-004
7.452769e-004,-4.180282e-004
6.828817e-004,-3.301888e-004
5.947181e-004,-2.679557e-004
4.820827e-004,-2.113949e-004
3.488649e-004,-1.549962e-004
2.119197e-004,-1.157764e-004
9.944634e-005,-1.131834e-004
4.288554e-005,-1.430034e-004
5.649903e-005,-1.757406e-004
1.276457e-004,-1.737958e-004
2.125679e-004,-1.123730e-004
2.762596e-004,1.160693e-005
3.122381e-004,1.741585e-004
3.362238e-004,3.402755e-004
3.647473e-004,4.812723e-004
3.947294e-004,5.825632e-004
4.072085e-004,6.433378e-004
3.832228e-004,6.569512e-004
3.218000e-004,6.195141e-004
2.407673e-004,5.379952e-004
1.705930e-004,4.324906e-004
1.313732e-004,3.329825e-004
1.261871e-004,2.608634e-004
1.522796e-004,2.247229e-004
1.963614e-004,2.193747e-004
2.265056e-004,2.265056e-004
2.111094e-004,2.286124e-004
1.479039e-004,2.201850e-004
7.221937e-005,2.065715e-004
2.295151e-005,2.033302e-004
2.165498e-005,2.205092e-004
5.860588e-005,2.538946e-004
1.020394e-004,2.910076e-004
1.221355e-004,3.177483e-004
1.094944e-004,3.237448e-004
7.594687e-005,3.030004e-004
3.883391e-005,2.509774e-004
7.555301e-006,1.723757e-004
-1.902341e-005,8.080883e-005
-5.338126e-005,-8.813297e-006
-1.117248e-004,-8.644259e-005
-1.985918e-004,-1.491618e-004
-3.044204e-004,-2.018331e-004
-4.060354e-004,-2.519113e-004
-4.778303e-004,-2.968033e-004
-5.001953e-004,-3.246786e-004
-4.713477e-004,-3.238683e-004
-4.060354e-004,-2.938862e-004
-3.275957e-004,-2.423494e-004
-2.575835e-004,-1.799543e-004
-2.031296e-004,-1.149661e-004
-1.622891e-004,-5.257093e-005
-1.295519e-004,8.527692e-006
-1.047560e-004,6.687121e-005
-9.081835e-005,1.156529e-004
-8.547019e-005,1.448246e-004
-8.028410e-005,1.501728e-004
-6.278104e-005,1.258630e-004
-2.420950e-005,7.286763e-005
3.105477e-005,-5.571990e-006
7.789165e-005,-1.008664e-004
9.555677e-005,-1.994021e-004
8.486046e-005,-2.758969e-004
6.006447e-005,-3.076617e-004
3.575467e-005,-2.869174e-004
1.857574e-005,-2.264670e-004
1.355172e-005,-1.473791e-004
2.570662e-005,-6.861539e-005
6.233338e-005,-2.330684e-006
1.156529e-004,4.645098e-005
1.624898e-004,7.578480e-005
1.872858e-004,8.502253e-005
1.798307e-004,7.886404e-005
1.370455e-004,6.200925e-005
6.573675e-005,3.672706e-005
-1.869928e-005,3.341602e-006
-1.029732e-004,-3.539201e-005
-1.763888e-004,-7.380149e-005
-2.348944e-004,-1.092938e-004
-2.799486e-004,-1.386276e-004
-3.168994e-004,-1.494860e-004
-3.400748e-004,-1.198280e-004
-3.327818e-004,-3.166451e-005
-2.755728e-004,1.104668e-004
-1.686097e-004,2.736666e-004
-3.134038e-005,4.162841e-004
1.004187e-004,5.133613e-004
1.991165e-004,5.627912e-004
2.600531e-004,5.833735e-004
2.991108e-004,6.008766e-004
3.365480e-004,6.353966e-004
3.743092e-004,6.833679e-004
4.016982e-004,7.159431e-004
4.052637e-004,7.015193e-004
3.806297e-004,6.266450e-004
3.323342e-004,5.033132e-004
2.738286e-004,3.621543e-004
2.193747e-004,2.286124e-004
1.809652e-004,1.143563e-004
1.660552e-004,1.760335e-005
1.762653e-004,-7.201877e-005
2.122438e-004,-1.558065e-004
2.735045e-004,-2.243602e-004
3.474063e-004,-2.752487e-004
4.070464e-004,-3.123616e-004
4.289252e-004,-3.434782e-004
4.070464e-004,-3.758912e-004
3.444891e-004,-4.089525e-004
2.500050e-004,-4.269418e-004
1.373696e-004,-3.958252e-004
2.262738e-005,-2.715212e-004
-7.396356e-005,-4.349527e-005
-1.358725e-004,2.590807e-004
-1.541859e-004,5.791598e-004
-1.214487e-004,8.545090e-004
-3.830919e-005,1.014630e-003
7.659513e-005,1.001989e-003
1.947408e-004,7.943827e-004
2.842008e-004,4.290873e-004
3.222862e-004,-2.492749e-006
3.005694e-004,-3.891806e-004
2.290986e-004,-6.548056e-004
1.279698e-004,-7.781372e-004
1.063454e-005,-7.864026e-004
-1.144799e-004,-7.235213e-004
-2.488320e-004,-6.283889e-004
-3.904771e-004,-5.392530e-004
-5.324463e-004,-4.901472e-004
-6.590193e-004,-5.003574e-004
-7.585274e-004,-5.672903e-004
-8.265948e-004,-6.700397e-004
-8.596561e-004,-7.779752e-004
-8.549562e-004,-8.616009e-004
-8.099020e-004,-8.956346e-004
-7.165525e-004,-8.567389e-004
-5.703696e-004,-7.146077e-004
-3.865875e-004,-4.402311e-004
-1.969711e-004,-3.458168e-005
-3.717473e-005,4.334631e-004
7.238143e-005,8.483506e-004
1.300767e-004,1.102631e-003
1.422316e-004,1.137800e-003
1.315353e-004,9.720065e-004
1.307250e-004,6.862851e-004
1.553589e-004,3.780367e-004
1.965235e-004,1.166253e-004
2.255332e-004,-7.947377e-005
2.008992e-004,-2.216050e-004
9.944634e-005,-3.318095e-004
-6.067420e-005,-4.147869e-004
-2.220912e-004,-4.544929e-004
-3.254889e-004,-4.206212e-004
-3.389403e-004,-2.870794e-004
-2.699005e-004,-4.706071e-005
-1.545100e-004,2.676702e-004
-2.437157e-005,5.848321e-004
9.831188e-005,8.148030e-004
2.111094e-004,8.947013e-004
3.136967e-004,8.199891e-004
4.052637e-004,6.412309e-004
4.799758e-004,4.313562e-004
5.229231e-004,2.542187e-004
5.183853e-004,1.443384e-004
4.580970e-004,1.012291e-004
3.425444e-004,1.017153e-004
1.827479e-004,1.164632e-004
5.448452e-006,1.239182e-004
-1.540238e-004,1.120874e-004
-2.588801e-004,7.546067e-005
-2.956689e-004,1.565857e-005
-2.758969e-004,-5.710876e-005
-2.261429e-004,-1.175591e-004
-1.729855e-004,-1.434896e-004
-1.407345e-004,-1.314967e-004
-1.412206e-004,-9.875954e-005
-1.708786e-004,-6.974985e-005
-2.191741e-004,-5.759496e-005
-2.775176e-004,-6.245691e-005
-3.321336e-004,-7.801519e-005
-3.671397e-004,-9.584238e-005
-3.655190e-004,-1.081593e-004
-3.230579e-004,-1.144799e-004
-2.489941e-004,-1.170729e-004
-1.629374e-004,-1.219349e-004
-8.579432e-005,-1.332795e-004
-3.782299e-005,-1.525652e-004
-3.409549e-005,-1.778474e-004
-7.088431e-005,-2.036158e-004
-1.285796e-004,-2.201465e-004
-1.921092e-004,-2.149604e-004
-2.514251e-004,-1.788198e-004
-3.010170e-004,-1.065387e-004
-3.345645e-004,-3.951337e-006
-3.382920e-004,1.116012e-004
-2.985861e-004,2.268297e-004
-2.136638e-004,3.350894e-004
-9.973194e-005,4.302217e-004
2.181705e-005,5.026649e-004
1.276457e-004,5.316747e-004
1.936063e-004,5.026649e-004
2.073819e-004,4.154738e-004
1.769136e-004,2.764217e-004
1.240803e-004,9.620504e-005
7.772959e-005,-1.002181e-004
5.714729e-005,-2.828657e-004
7.351589e-005,-4.240246e-004
1.338042e-004,-5.076503e-004
2.346088e-004,-5.319601e-004
3.532407e-004,-5.011677e-004
4.501558e-004,-4.249970e-004
4.867825e-004,-3.164132e-004
4.485351e-004,-1.995642e-004
3.540510e-004,-1.007043e-004
2.478982e-004,-3.360929e-005
1.761032e-004,1.002961e-007
1.675138e-004,8.851824e-006
2.276400e-004,2.855407e-006
3.456236e-004,-6.382317e-006
4.953720e-004,-1.059602e-005
6.504686e-004,-9.299493e-006
7.867657e-004,-1.286493e-005
8.867600e-004,-3.360929e-005
9.425106e-004,-8.773911e-005
9.502898e-004,-1.840059e-004
9.071803e-004,-3.165753e-004
8.088066e-004,-4.681064e-004
6.616511e-004,-6.188271e-004
4.937514e-004,-7.445897e-004
3.456236e-004,-8.324291e-004
2.478982e-004,-8.786177e-004
1.992786e-004,-8.821832e-004
1.694586e-004,-8.437737e-004
1.281319e-004,-7.727891e-004
5.909208e-005,-6.833291e-004
-3.247483e-005,-5.912760e-004
-1.253383e-004,-5.110537e-004
-1.948643e-004,-4.488206e-004
-2.254946e-004,-4.084663e-004
-2.126914e-004,-3.958252e-004
-1.684476e-004,-4.092767e-004
-1.136696e-004,-4.309934e-004
-7.088431e-005,-4.280762e-004
-5.678463e-005,-3.765395e-004
-7.752899e-005,-2.695764e-004
-1.321450e-004,-1.259865e-004
-2.138259e-004,2.295151e-005
-3.029619e-004,1.511452e-004
-3.752429e-004,2.496809e-004
-4.136524e-004,3.315239e-004
-4.108973e-004,4.157979e-004
-3.702189e-004,5.130371e-004
-3.057169e-004,6.078454e-004
-2.389460e-004,6.715371e-004
-1.929195e-004,6.827196e-004
-1.822232e-004,6.456067e-004
-2.055606e-004,5.877494e-004
-2.489941e-004,5.423710e-004
-2.898345e-004,5.392918e-004
-3.083100e-004,5.958526e-004
-2.899966e-004,7.050846e-004
-2.310048e-004,8.311716e-004
-1.441378e-004,9.292212e-004
-5.111234e-005,9.643894e-004
2.295151e-005,9.305178e-004
6.038860e-005,8.464058e-004
5.212327e-005,7.417115e-004
1.072688e-006,6.412309e-004
-8.255302e-005,5.566327e-004
-1.849783e-004,4.893756e-004
-2.849726e-004,4.378388e-004
-3.621157e-004,4.021844e-004
-4.081422e-004,3.827366e-004
-4.262935e-004,3.660439e-004
-4.303451e-004,3.125623e-004
-4.267797e-004,1.876099e-004
-4.204592e-004,-1.043395e-005
-4.170558e-004,-2.413770e-004
-4.217557e-004,-4.502792e-004
-4.355313e-004,-5.956517e-004
-4.580583e-004,-6.700397e-004
-4.907955e-004,-6.920806e-004
-5.272602e-004,-6.906220e-004
-5.509217e-004,-6.859221e-004
-5.423322e-004,-6.804119e-004
-4.990608e-004,-6.664743e-004
-4.324520e-004,-6.444334e-004
-3.648708e-004,-6.280648e-004
-3.199787e-004,-6.303337e-004
-2.974516e-004,-6.411921e-004
-2.762210e-004,-6.311440e-004
-2.340841e-004,-5.598353e-004
-1.720131e-004,-4.024699e-004
-1.117248e-004,-1.546721e-004
-8.206682e-005,1.684862e-004
-9.778715e-005,5.379952e-004
-1.535376e-004,9.143112e-004
-2.266291e-004,1.271017e-003
-2.958309e-004,1.597580e-003
-3.444506e-004,1.890919e-003
-3.583881e-004,2.131587e-003
-3.201407e-004,2.264643e-003
-2.217671e-004,2.222668e-003
-7.817725e-005,1.967090e-003
7.416415e-005,1.513954e-003
1.861513e-004,9.451036e-004
2.266676e-004,3.773884e-004
2.068957e-004,-9.341139e-005
1.718896e-004,-4.275900e-004
1.707551e-004,-6.317923e-004
2.297469e-004,-7.197938e-004
3.412479e-004,-6.937013e-004
4.757621e-004,-5.668041e-004
6.055765e-004,-3.836704e-004
7.162672e-004,-2.136638e-004
8.008654e-004,-1.183694e-004
8.553194e-004,-1.292278e-004
8.775223e-004,-2.523975e-004
8.681226e-004,-4.672960e-004
8.298751e-004,-7.251419e-004
7.720177e-004,-9.567332e-004
7.044364e-004,-1.100647e-003
6.282657e-004,-1.123012e-003
5.315126e-004,-1.022856e-003
4.054258e-004,-8.293499e-004
2.530843e-004,-5.922483e-004
9.490851e-005,-3.715154e-004
-3.992984e-005,-2.149604e-004
-1.250141e-004,-1.404103e-004
-1.404103e-004,-1.324691e-004
-8.368748e-005,-1.532135e-004
1.938607e-005,-1.632615e-004
1.282940e-004,-1.462447e-004
2.012234e-004,-1.159385e-004
2.112714e-004,-8.919769e-005
1.589243e-004,-6.991193e-005
7.562274e-005,-4.511593e-005
2.369211e-006,2.531276e-006
-3.571614e-005,7.124698e-005
-3.863332e-005,1.446626e-004
-1.902341e-005,2.026820e-004
8.041497e-006,2.255332e-004
3.283749e-005,1.976579e-004
5.341979e-005,1.117633e-004
7.367795e-005,-2.258885e-005
9.134307e-005,-1.710407e-004
1.010670e-004,-2.932379e-004
9.037068e-005,-3.614674e-004
5.423012e-005,-3.716775e-004
-3.951337e-006,-3.272716e-004
-6.602235e-005,-2.225774e-004
-1.060525e-004,-4.074016e-005
-1.149661e-004,2.362295e-004
-1.016767e-004,5.966629e-004
-8.433573e-005,9.689272e-004
-6.537409e-005,1.242170e-003
-3.685060e-005,1.320285e-003
7.879432e-006,1.176371e-003
6.265751e-005,8.630985e-004
1.088461e-004,4.749518e-004
1.235941e-004,1.065772e-004
9.069481e-005,-1.848162e-004
1.176900e-005,-3.805911e-004
-1.036215e-004,-4.963057e-004
-2.382978e-004,-5.659938e-004
-3.711913e-004,-6.163961e-004
-4.788027e-004,-6.494574e-004
-5.335807e-004,-6.565883e-004
-5.214258e-004,-6.282268e-004
-4.520619e-004,-5.697213e-004
-3.488263e-004,-4.954954e-004
-2.418632e-004,-4.262935e-004
-1.489998e-004,-3.802670e-004
-7.720486e-005,-3.702189e-004
-2.745081e-005,-3.912874e-004
-1.844488e-006,-4.280762e-004
-1.520357e-006,-4.588687e-004
-1.367526e-005,-4.650271e-004
-1.529591e-005,-4.434724e-004
-1.034161e-006,-4.105732e-004
1.419998e-005,-3.878840e-004
5.124321e-006,-3.911253e-004
-4.544006e-005,-4.207833e-004
-1.360346e-004,-4.614617e-004
-2.478596e-004,-4.894990e-004
-3.493125e-004,-4.763717e-004
-4.081422e-004,-4.108973e-004
-4.013355e-004,-3.019894e-004
-3.261372e-004,-1.715269e-004
-1.985918e-004,-3.944364e-005
-4.398147e-005,7.789165e-005
1.056048e-004,1.660552e-004
2.269918e-004,2.227781e-004
3.156415e-004,2.491947e-004
3.760919e-004,2.522740e-004
4.180668e-004,2.357433e-004
4.417284e-004,2.044647e-004
4.323286e-004,1.696206e-004
3.683128e-004,1.457970e-004
2.425500e-004,1.441764e-004
7.578480e-005,1.639484e-004
-7.736692e-005,1.889064e-004
-1.579134e-004,2.000889e-004
-1.413827e-004,1.824238e-004
-4.155049e-005,1.334801e-004
9.539470e-005,6.200925e-005
2.149989e-004,-1.399939e-005
2.914938e-004,-6.699475e-005
3.264999e-004,-8.206682e-005
3.313618e-004,-6.634648e-005
3.148312e-004,-4.122636e-005
2.822560e-004,-2.048200e-005
2.438466e-004,-2.816880e-006
2.138645e-004,2.181705e-005
1.979821e-004,5.828175e-005
1.890685e-004,1.062531e-004
1.694586e-004,1.564933e-004
1.362352e-004,1.992786e-004
1.012291e-004,2.263435e-004
7.221937e-005,2.339606e-004
4.661304e-005,2.224539e-004
2.019640e-005,1.989545e-004
-6.058186e-006,1.681620e-004
-1.626830e-005,1.349386e-004
1.857574e-005,1.070634e-004
1.141943e-004,9.539470e-005
2.605393e-004,1.091703e-004
4.266563e-004,1.407730e-004
5.893700e-004,1.751309e-004
7.345806e-004,1.970097e-004
8.572642e-004,1.932822e-004
9.436450e-004,1.555210e-004
9.786512e-004,8.988449e-005
9.545035e-004,1.711715e-005
8.684467e-004,-4.884343e-005
7.245325e-004,-1.013526e-004
5.371849e-004,-1.340898e-004
3.216380e-004,-1.339277e-004
1.010670e-004,-8.741498e-005
-9.649064e-005,1.257933e-005
-2.494803e-004,1.540623e-004
-3.541745e-004,3.060797e-004
-4.230522e-004,4.405939e-004
-4.672960e-004,5.551741e-004
-5.006815e-004,6.673234e-004
-5.279084e-004,7.916276e-004
-5.415219e-004,9.204697e-004
-5.319601e-004,1.021112e-003
-5.013297e-004,1.049474e-003
-4.682684e-004,9.796236e-004
-4.600031e-004,8.254994e-004
-4.906334e-004,6.321552e-004
-5.505976e-004,4.478869e-004
-6.113721e-004,3.007315e-004
-6.484850e-004,1.965235e-004
-6.656639e-004,1.250527e-004
-6.881910e-004,7.254349e-005
-7.457242e-004,2.829966e-005
-8.505805e-004,-1.432352e-005
-9.888222e-004,-6.683268e-005
-1.133871e-003,-1.376552e-004
-1.263199e-003,-2.285739e-004
-1.358169e-003,-3.300267e-004
-1.399496e-003,-4.279142e-004
-1.372593e-003,-5.024642e-004
-1.269843e-003,-5.442770e-004
-1.091409e-003,-5.604835e-004
-8.596561e-004,-5.646973e-004
-6.115342e-004,-5.685869e-004
-3.778360e-004,-5.679386e-004
-1.760647e-004,-5.484907e-004
-1.788895e-005,-4.993849e-004
9.020862e-005,-4.300210e-004
1.586002e-004,-3.692465e-004
2.075439e-004,-3.438023e-004
2.456293e-004,-3.600088e-004
2.701012e-004,-4.000390e-004
2.783665e-004,-4.365036e-004
2.723701e-004,-4.543308e-004
2.603772e-004,-4.514136e-004
2.547049e-004,-4.314796e-004
2.670219e-004,-3.977700e-004
3.015418e-004,-3.374817e-004
3.618301e-004,-2.298704e-004
4.381629e-004,-6.748094e-005
5.089855e-004,1.321835e-004
5.611706e-004,3.388169e-004
5.999042e-004,5.117406e-004
6.318311e-004,6.125454e-004
6.530617e-004,6.193521e-004
6.584098e-004,5.381573e-004
6.439860e-004,4.028327e-004
6.149763e-004,2.608634e-004
5.854804e-004,1.514693e-004
5.814288e-004,9.296373e-005
6.250244e-004,8.226741e-005
7.188602e-004,1.015532e-004
8.300372e-004,1.266733e-004
9.136630e-004,1.389903e-004
9.431589e-004,1.269974e-004
9.250075e-004,7.384002e-005
8.773603e-004,-2.453363e-005
8.131823e-004,-1.428413e-004
7.383081e-004,-2.462390e-004
6.559788e-004,-3.068514e-004
5.734875e-004,-3.143064e-004
5.044477e-004,-2.754107e-004
4.495075e-004,-2.144742e-004
3.958639e-004,-1.574272e-004
3.305515e-004,-1.248521e-004
2.483844e-004,-1.149661e-004
1.569795e-004,-1.167488e-004
7.140904e-005,-1.272830e-004
4.151929e-006,-1.538618e-004
-4.722278e-005,-2.034537e-004
-9.713889e-005,-2.655248e-004
-1.559686e-004,-3.055549e-004
-2.169052e-004,-2.799486e-004
-2.588801e-004,-1.603444e-004
-2.603387e-004,4.677511e-005
-2.219292e-004,3.008936e-004
-1.674752e-004,5.543638e-004
-1.290658e-004,7.763935e-004
-1.222590e-004,9.590413e-004
-1.462447e-004,1.091449e-003
-1.955125e-004,1.146875e-003
-2.603387e-004,1.089342e-003
-3.284061e-004,9.079906e-004
-3.958252e-004,6.306967e-004
-4.647030e-004,3.041349e-004
-5.428185e-004,-2.631635e-005
-6.353577e-004,-3.183580e-004
-7.372968e-004,-5.379565e-004
-8.346980e-004,-6.676087e-004
-9.030896e-004,-7.191455e-004
-9.183238e-004,-7.188214e-004
-8.664628e-004,-7.019666e-004
-7.502620e-004,-6.953219e-004
-5.937069e-004,-7.081250e-004
-4.277521e-004,-7.407002e-004
-2.695764e-004,-7.864026e-004
-1.242038e-004,-8.249741e-004
6.582909e-006,-8.150881e-004
1.192183e-004,-7.087733e-004
2.031682e-004,-4.603272e-004
2.394708e-004,-5.240886e-005
2.175920e-004,4.535592e-004
1.480659e-004,9.264661e-004
5.147500e-005,1.242332e-003
-5.192267e-005,1.348485e-003
-1.457585e-004,1.285117e-003
-2.256567e-004,1.129372e-003
-2.882139e-004,9.316522e-004
-3.241924e-004,7.062191e-004
-3.154408e-004,4.582590e-004
-2.517492e-004,2.041406e-004
-1.379794e-004,-2.420950e-005
-7.100305e-007,-1.916230e-004
1.273216e-004,-2.780038e-004
2.182402e-004,-2.776796e-004
2.522740e-004,-2.031296e-004
2.325020e-004,-8.595638e-005
1.820997e-004,3.964424e-005
1.266733e-004,1.399627e-004
8.745350e-005,1.974959e-004
6.525056e-005,2.096508e-004
3.932010e-005,1.816135e-004
-1.756482e-005,1.271595e-004
-1.076731e-004,6.444023e-005
-1.990780e-004,1.679302e-005
-2.530457e-004,3.665733e-006
-2.507768e-004,3.575467e-005
-1.976194e-004,1.198666e-004
-1.162626e-004,2.522740e-004
-3.328516e-005,4.104497e-004
3.769945e-005,5.519328e-004
8.356394e-005,6.263209e-004
9.037068e-005,5.934216e-004
5.212327e-005,4.423766e-004
-1.221667e-005,2.085163e-004
-6.974985e-005,-4.106429e-005
-8.952183e-005,-2.451045e-004
-5.727083e-005,-3.823738e-004
1.727922e-005,-4.781544e-004
1.075496e-004,-5.789590e-004
1.735102e-004,-7.228730e-004
1.770756e-004,-9.244822e-004
9.993253e-005,-1.162880e-003
-4.090223e-005,-1.386693e-003
-1.948643e-004,-1.533686e-003
-3.097686e-004,-1.570961e-003
-3.485022e-004,-1.517803e-003
-2.927517e-004,-1.432881e-003
-1.477033e-004,-1.363193e-003
4.077869e-005,-1.326404e-003
2.057612e-004,-1.309711e-003
2.989488e-004,-1.280053e-003
3.119140e-004,-1.207448e-003
2.681563e-004,-1.084927e-003
2.005751e-004,-9.275614e-004
1.367214e-004,-7.560964e-004
8.745350e-005,-5.894933e-004
5.082674e-005,-4.420138e-004
2.424803e-005,-3.238683e-004
1.128280e-005,-2.394322e-004
1.063454e-005,-1.788198e-004
1.484824e-005,-1.196660e-004
1.987227e-005,-4.527799e-005
2.732727e-005,4.434413e-005
4.288554e-005,1.425557e-004
7.238143e-005,2.516257e-004
1.156529e-004,3.828986e-004
1.663793e-004,5.428572e-004
2.218057e-004,7.156190e-004
2.749631e-004,8.616399e-004
3.183966e-004,9.345694e-004
3.401134e-004,9.083148e-004
3.271482e-004,7.921138e-004
2.730183e-004,6.355586e-004
1.850168e-004,5.049339e-004
8.323981e-005,4.491834e-004
-1.075808e-005,4.812723e-004
-8.514606e-005,5.767288e-004
-1.344139e-004,6.913091e-004
-1.642339e-004,7.838485e-004
-1.854645e-004,8.310095e-004
-2.003745e-004,8.284165e-004
-2.031296e-004,7.880622e-004
-1.869231e-004,7.258290e-004
-1.515928e-004,6.564650e-004
-1.031353e-004,5.906665e-004
-5.192267e-005,5.379952e-004
-3.627206e-006,5.034753e-004
3.996837e-005,4.879170e-004
7.837785e-005,4.859722e-004
1.112771e-004,4.866205e-004
1.370455e-004,4.770586e-004
1.488763e-004,4.475628e-004
1.490383e-004,3.911640e-004
1.472556e-004,3.086727e-004
1.563313e-004,2.072198e-004
1.833962e-004,9.960841e-005
2.247229e-004,-6.382317e-006
2.803113e-004,-1.081593e-004
3.482167e-004,-2.089640e-004
4.243874e-004,-3.138202e-004
4.986133e-004,-4.225660e-004
5.590637e-004,-5.339049e-004
5.986077e-004,-6.502678e-004
6.174073e-004,-7.745718e-004
6.238899e-004,-9.014689e-004
6.234037e-004,-1.008594e-003
6.178935e-004,-1.069531e-003
6.036317e-004,-1.059807e-003
5.720290e-004,-9.690502e-004
5.190336e-004,-8.087676e-004
4.482110e-004,-6.050515e-004
3.675024e-004,-3.775118e-004
2.814457e-004,-1.342519e-004
1.937684e-004,1.200286e-004
9.814982e-005,3.743092e-004
-2.550602e-005,6.094660e-004
-2.028055e-004,8.019998e-004
-4.387725e-004,9.361901e-004
-7.024527e-004,1.014792e-003
-9.332337e-004,1.053688e-003
-1.062400e-003,1.076863e-003
-1.056565e-003,1.103928e-003
-9.358267e-004,1.143796e-003
-7.569068e-004,1.198736e-003
-5.805797e-004,1.274583e-003
-4.518998e-004,1.375712e-003
-3.882082e-004,1.489482e-003
-3.856151e-004,1.584777e-003
-4.225660e-004,1.625617e-003
-4.794509e-004,1.588180e-003
-5.421702e-004,1.479434e-003
-5.997034e-004,1.327254e-003
-6.395715e-004,1.160651e-003
-6.531850e-004,9.980991e-004
-6.390853e-004,8.418679e-004
-5.967862e-004,6.866092e-004
-5.303394e-004,5.271368e-004
-4.493068e-004,3.687990e-004
-3.642225e-004,2.287745e-004
-2.822175e-004,1.193804e-004
-2.096122e-004,3.932010e-005
-1.536997e-004,-2.194059e-005
-1.243659e-004,-7.914964e-005
-1.227452e-004,-1.392759e-004
-1.358725e-004,-2.026434e-004
-1.519170e-004,-2.653627e-004
-1.567789e-004,-3.318095e-004
-1.404103e-004,-4.180282e-004
-9.811128e-005,-5.353634e-004
-2.453363e-005,-6.766844e-004
7.610894e-005,-8.225431e-004
1.991165e-004,-9.528436e-004
3.299033e-004,-1.053162e-003
4.462662e-004,-1.124633e-003
5.334574e-004,-1.180870e-003
5.858046e-004,-1.237430e-003
6.024973e-004,-1.301608e-003
5.905044e-004,-1.370162e-003
5.488536e-004,-1.432071e-003
4.770586e-004,-1.473722e-003
3.812780e-004,-1.486039e-003
2.704253e-004,-1.470642e-003
1.514693e-004,-1.431909e-003
3.283749e-005,-1.380534e-003
-7.444975e-005,-1.322028e-003
-1.470550e-004,-1.247154e-003
-1.561307e-004,-1.140191e-003
-9.179074e-005,-1.001301e-003
3.040651e-005,-8.449082e-004
1.820997e-004,-6.919185e-004
3.292550e-004,-5.614560e-004
4.410801e-004,-4.640547e-004
5.052580e-004,-3.945287e-004
5.281092e-004,-3.355370e-004
5.292437e-004,-2.736280e-004
5.276231e-004,-2.021572e-004
5.302161e-004,-1.232314e-004
5.263265e-004,-3.458168e-005
4.976409e-004,5.925414e-005
4.308700e-004,1.385041e-004
3.307136e-004,1.843686e-004
2.196988e-004,1.949028e-004
1.302388e-004,1.853410e-004
9.199134e-005,1.735102e-004
1.146805e-004,1.662173e-004
1.833962e-004,1.610312e-004
2.645909e-004,1.524417e-004
3.263378e-004,1.472556e-004
3.537269e-004,1.665414e-004
3.538890e-004,2.263435e-004
3.417340e-004,3.248792e-004
3.277964e-004,4.305459e-004
3.101313e-004,5.054200e-004
2.809595e-004,5.506363e-004
2.339606e-004,6.033076e-004
1.715654e-004,6.992503e-004
1.004187e-004,8.519160e-004
2.392390e-005,1.058550e-003
-6.067420e-005,1.297758e-003
-1.481895e-004,1.520112e-003
-2.147983e-004,1.663703e-003
-2.345703e-004,1.670509e-003
-1.994021e-004,1.516547e-003
-1.269589e-004,1.231635e-003
-4.722278e-005,8.833567e-004
2.214118e-005,5.397780e-004
7.659513e-005,2.467637e-004
1.127357e-004,1.971020e-005
1.213252e-004,-1.433275e-004
8.242948e-005,-2.549905e-004
-3.344723e-005,-3.308371e-004
-2.504527e-004,-3.726499e-004
-5.454115e-004,-3.864254e-004
-8.445840e-004,-3.867496e-004
-1.058510e-003,-3.877220e-004
-1.139705e-003,-4.003631e-004
-1.093840e-003,-4.272659e-004
-9.624055e-004,-4.640547e-004
-7.836475e-004,-5.023021e-004
-5.851175e-004,-5.418460e-004
-3.946908e-004,-5.911139e-004
-2.438080e-004,-6.518884e-004
-1.520790e-004,-7.142835e-004
-1.159385e-004,-7.410243e-004
-1.071869e-004,-6.836532e-004
-1.005423e-004,-5.162397e-004
-8.822530e-005,-2.603387e-004
-8.141856e-005,1.322759e-005
-9.649064e-005,2.125679e-004
-1.332795e-004,2.786906e-004
-1.755785e-004,2.114335e-004
-2.060468e-004,5.504044e-005
-2.160948e-004,-1.243659e-004
-2.053985e-004,-2.699005e-004
-1.820611e-004,-3.575778e-004
-1.496481e-004,-3.911253e-004
-1.075111e-004,-3.862634e-004
-5.937768e-005,-3.622777e-004
-1.691656e-005,-3.415334e-004
8.041497e-006,-3.314853e-004
8.689758e-006,-3.220855e-004
-1.578211e-005,-2.948586e-004
-5.791909e-005,-2.431597e-004
-1.018388e-004,-1.771992e-004
-1.292278e-004,-1.216107e-004
-1.284175e-004,-9.762509e-005
-1.003802e-004,-1.102662e-004
-5.840528e-005,-1.499722e-004
-2.210265e-005,-2.008607e-004
-7.840905e-006,-2.460769e-004
-1.983374e-005,-2.737901e-004
-5.581224e-005,-2.810830e-004
-1.045939e-004,-2.733039e-004
-1.399241e-004,-2.624455e-004
-1.339277e-004,-2.606628e-004
-7.250496e-005,-2.736280e-004
3.737532e-005,-2.951827e-004
1.680000e-004,-3.102548e-004
2.840388e-004,-3.029619e-004
3.652335e-004,-2.687660e-004
4.068843e-004,-2.175534e-004
4.130428e-004,-1.621271e-004
3.947294e-004,-1.034594e-004
3.647473e-004,-1.805102e-005
3.329825e-004,1.304008e-004
3.025142e-004,3.558337e-004
2.709115e-004,6.332897e-004
2.376881e-004,9.105837e-004
2.062474e-004,1.127265e-003
1.848548e-004,1.236984e-003
1.817755e-004,1.225315e-003
1.939304e-004,1.113652e-003
2.125679e-004,9.548276e-004
2.218057e-004,8.023240e-004
2.104611e-004,7.002227e-004
1.761032e-004,6.645683e-004
1.310491e-004,6.825576e-004
8.907416e-005,7.186982e-004
6.217132e-005,7.310151e-004
5.309566e-005,6.932539e-004
6.265751e-005,6.084936e-004
9.166720e-005,5.020167e-004
1.432040e-004,4.018603e-004
2.151610e-004,3.258516e-004
3.012177e-004,2.752873e-004
3.861400e-004,2.438466e-004
4.443214e-004,2.333123e-004
4.545315e-004,2.444948e-004
4.149876e-004,2.644289e-004
3.474063e-004,2.663737e-004
2.801492e-004,2.284504e-004
2.237505e-004,1.500107e-004
1.628139e-004,4.142696e-005
7.416415e-005,-7.574627e-005
-4.835724e-005,-1.739578e-004
-1.865989e-004,-2.290601e-004
-3.037722e-004,-2.300324e-004
-3.710293e-004,-1.810887e-004
-3.841565e-004,-9.568031e-005
-3.742705e-004,2.623614e-007
-3.857772e-004,8.437427e-005
-4.499550e-004,1.451488e-004
-5.669662e-004,1.799928e-004
-7.055320e-004,1.885823e-004
-8.194639e-004,1.642725e-004
-8.710006e-004,9.831188e-005
-8.471771e-004,-2.816880e-006
-7.674409e-004,-1.175591e-004
-6.685811e-004,-2.175534e-004
-5.742591e-004,-2.851347e-004
-4.826922e-004,-3.203028e-004
-3.744326e-004,-3.407231e-004
-2.206326e-004,-3.614674e-004
-1.173047e-005,-3.870737e-004
2.406053e-004,-4.107352e-004
5.020167e-004,-4.256453e-004
7.256670e-004,-4.321279e-004
8.668260e-004,-4.339106e-004
9.015080e-004,-4.352071e-004
8.368439e-004,-4.403932e-004
7.045984e-004,-4.546549e-004
5.473950e-004,-4.890127e-004
3.995914e-004,-5.525423e-004
2.786906e-004,-6.429748e-004
1.863134e-004,-7.569068e-004
1.231079e-004,-8.815349e-004
8.956036e-005,-9.946565e-004
8.696731e-005,-1.068234e-003
1.091703e-004,-1.080227e-003
1.417454e-004,-1.028852e-003
1.650828e-004,-9.346923e-004
1.644345e-004,-8.235155e-004
1.388282e-004,-7.074767e-004
9.571884e-005,-5.804176e-004
4.450620e-005,-4.327761e-004
-7.030578e-006,-2.674695e-004
-5.743289e-005,-9.470791e-005
-1.037836e-004,7.546067e-005
-1.378173e-004,2.372019e-004
-1.511067e-004,3.905157e-004
-1.402483e-004,5.368608e-004
-1.032974e-004,6.772094e-004
-5.078821e-005,8.070238e-004
3.179537e-006,9.081527e-004
4.288554e-005,9.546655e-004
5.066468e-005,9.284109e-004
2.295151e-005,8.342508e-004
-2.890940e-005,7.013571e-004
-8.595638e-005,5.718669e-004
-1.246900e-004,4.786793e-004
-1.311726e-004,4.271425e-004
-1.109144e-004,4.023465e-004
-8.611845e-005,3.830607e-004
-7.363943e-005,3.568061e-004
-7.736692e-005,3.226103e-004
-8.773911e-005,2.900352e-004
-9.519411e-005,2.764217e-004
-9.940781e-005,2.963557e-004
-1.084835e-004,3.430306e-004
-1.292278e-004,4.015361e-004
-1.630995e-004,4.556660e-004
-1.994021e-004,4.950479e-004
-2.264670e-004,5.128751e-004
-2.335979e-004,5.060683e-004
-2.177155e-004,4.728449e-004
-1.893541e-004,4.031568e-004
-1.652063e-004,2.940868e-004
-1.553203e-004,1.603829e-004
-1.536997e-004,2.797553e-005
-1.462447e-004,-7.752899e-005
-1.235555e-004,-1.464067e-004
-9.454585e-005,-1.841680e-004
-7.882551e-005,-2.063709e-004
-8.822530e-005,-2.308428e-004
-1.149661e-004,-2.784900e-004
-1.305243e-004,-3.596847e-004
-1.045939e-004,-4.658375e-004
-2.971972e-005,-5.847933e-004
7.594687e-005,-7.131490e-004
1.820997e-004,-8.523631e-004
2.569738e-004,-9.974116e-004
2.790148e-004,-1.129657e-003
2.453052e-004,-1.222844e-003
1.709172e-004,-1.256392e-003
8.194328e-005,-1.217982e-003
8.851824e-006,-1.101620e-003
-2.826114e-005,-9.150825e-004
-2.258885e-005,-6.796016e-004
1.711715e-005,-4.175420e-004
7.027458e-005,-1.575893e-004
1.151667e-004,7.886404e-005
1.370455e-004,2.934386e-004
1.362352e-004,5.190336e-004
1.269974e-004,7.814175e-004
1.305629e-004,1.055632e-003
1.586002e-004,1.273448e-003
1.981441e-004,1.370202e-003
2.214815e-004,1.332116e-003
2.030061e-004,1.199547e-003
1.310491e-004,1.022733e-003
1.808955e-005,8.392748e-004
-1.175591e-004,6.689441e-004
-2.606628e-004,5.166026e-004
-3.920977e-004,3.799815e-004
-4.903093e-004,2.585945e-004
-5.428185e-004,1.522796e-004
-5.473563e-004,6.233338e-005
-5.001953e-004,-3.789272e-006
-4.061974e-004,-4.576419e-005
-2.840002e-004,-7.380149e-005
-1.574272e-004,-9.454585e-005
-4.657452e-005,-1.156143e-004
3.964424e-005,-1.434896e-004
9.847395e-005,-1.827094e-004
1.359110e-004,-2.323013e-004
1.613553e-004,-2.840002e-004
1.812893e-004,-3.198166e-004
1.923098e-004,-3.293785e-004
1.882582e-004,-3.125237e-004
1.631380e-004,-2.786520e-004
1.265113e-004,-2.350565e-004
9.717743e-005,-1.851404e-004
9.053275e-005,-1.355484e-004
1.145184e-004,-1.008664e-004
1.746447e-004,-9.017008e-005
2.654013e-004,-9.794922e-005
3.666921e-004,-1.071869e-004
4.512903e-004,-1.055663e-004
5.039615e-004,-8.676672e-005
5.237334e-004,-5.208474e-005
5.170888e-004,-1.335113e-005
4.811103e-004,1.338965e-005
4.091532e-004,2.019640e-005
3.051073e-004,1.144487e-005
1.846927e-004,-2.654814e-006
7.416415e-005,-1.691656e-005
-6.220252e-006,-2.890940e-005
-4.544006e-005,-3.490581e-005
-4.706071e-005,-3.393342e-005
-2.129233e-005,-2.907146e-005
1.517237e-005,-2.242678e-005
4.256141e-005,-1.464765e-005
4.936815e-005,-3.789272e-006
3.656499e-005,1.047248e-005
1.338965e-005,1.922400e-005
-1.302700e-005,1.176900e-005
-4.284701e-005,-1.140634e-005
-7.607040e-005,-3.701266e-005
-1.083214e-004,-4.608832e-005
-1.363587e-004,-2.858527e-005
-1.616409e-004,1.582063e-005
-1.875713e-004,8.129502e-005
-2.091260e-004,1.673517e-004
-2.130156e-004,2.744769e-004
-1.932436e-004,3.984569e-004
-1.451102e-004,5.175750e-004
-7.056019e-005,5.981215e-004
1.403791e-005,6.164349e-004
8.016057e-005,5.660325e-004
1.062531e-004,4.538833e-004
8.858796e-005,2.991108e-004
4.272347e-005,1.310491e-004
-4.275467e-006,-2.485776e-005
-3.101625e-005,-1.494860e-004
-2.161646e-005,-2.360289e-004
2.068259e-005,-3.008550e-004
8.826383e-005,-3.781601e-004
1.657311e-004,-4.938748e-004
2.252090e-004,-6.533470e-004
2.336365e-004,-8.329154e-004
1.707551e-004,-9.931979e-004
4.094075e-005,-1.103078e-003
-1.389517e-004,-1.143594e-003
-3.587123e-004,-1.119285e-003
-6.084549e-004,-1.039873e-003
-8.628974e-004,-8.983897e-004
-1.084441e-003,-6.679329e-004
-1.231434e-003,-3.386162e-004
-1.276164e-003,5.520250e-005
-1.218307e-003,4.514523e-004
-1.072124e-003,7.866036e-004
-8.628974e-004,1.021112e-003
-6.264441e-004,1.145417e-003
-3.943667e-004,1.171509e-003
-1.888679e-004,1.110897e-003
-1.286493e-005,9.807581e-004
1.329939e-004,8.050791e-004
2.448189e-004,6.144901e-004
3.209897e-004,4.345975e-004
3.679886e-004,2.833905e-004
3.974845e-004,1.618415e-004
4.217943e-004,6.217132e-005
4.525868e-004,-3.182657e-005
4.956961e-004,-1.271210e-004
5.495019e-004,-2.224154e-004
5.994180e-004,-3.066893e-004
6.345862e-004,-3.651949e-004
6.574374e-004,-3.864254e-004
6.686199e-004,-3.718396e-004
6.681338e-004,-3.386162e-004
6.543582e-004,-3.139823e-004
6.185417e-004,-3.227338e-004
5.550121e-004,-3.739464e-004
4.678209e-004,-4.565997e-004
3.751195e-004,-5.450874e-004
2.992729e-004,-6.131548e-004
2.485465e-004,-6.374646e-004
2.098128e-004,-5.985689e-004
1.574657e-004,-4.852853e-004
7.740546e-005,-3.073376e-004
-1.140634e-005,-9.843541e-005
-7.056019e-005,9.928428e-005
-7.347736e-005,2.459534e-004
-3.053005e-005,3.273102e-004
1.711715e-005,3.499994e-004
3.332369e-005,3.329825e-004
1.792748e-005,3.054314e-004
3.989864e-006,2.889007e-004
2.538249e-005,2.866318e-004
8.696731e-005,2.863077e-004
1.639484e-004,2.735045e-004
2.208333e-004,2.422259e-004
2.328261e-004,1.937684e-004
1.940925e-004,1.412592e-004
1.201907e-004,1.059290e-004
3.850978e-005,1.018773e-004
-2.939559e-005,1.282940e-004
-6.910160e-005,1.743205e-004
-7.833932e-005,2.213195e-004
-6.634648e-005,2.616738e-004
-4.673658e-005,2.919800e-004
-4.738484e-005,3.078624e-004
-9.616651e-005,3.064038e-004
-2.037779e-004,2.879283e-004
-3.554710e-004,2.576221e-004
-5.113778e-004,2.229401e-004
-6.233649e-004,1.944166e-004
-6.617744e-004,1.885823e-004
-6.317923e-004,2.138645e-004
-5.664800e-004,2.629703e-004
-5.099192e-004,3.198552e-004
-4.966299e-004,3.694472e-004
-5.342290e-004,4.067223e-004
-5.995413e-004,4.230909e-004
-6.559400e-004,4.046154e-004
-6.680949e-004,3.404375e-004
-6.178547e-004,2.266676e-004
-5.070020e-004,7.465034e-005
-3.444506e-004,-9.308726e-005
-1.457585e-004,-2.509389e-004
5.730935e-005,-3.818876e-004
2.219677e-004,-4.877163e-004
3.114278e-004,-5.877105e-004
3.205035e-004,-6.977529e-004
2.725321e-004,-8.160605e-004
2.080301e-004,-9.280476e-004
1.683241e-004,-1.008270e-003
1.752929e-004,-1.028690e-003
2.292607e-004,-9.667812e-004
3.148312e-004,-8.176812e-004
4.075326e-004,-5.877105e-004
4.815964e-004,-2.862691e-004
5.086614e-004,5.423012e-005
4.726828e-004,3.686369e-004
3.869503e-004,5.777013e-004
2.851732e-004,6.191900e-004
2.075439e-004,4.864584e-004
1.796687e-004,2.360674e-004
2.004130e-004,-4.770897e-005
2.430362e-004,-2.968033e-004
2.759355e-004,-4.706994e-004
2.777182e-004,-5.574043e-004
2.475741e-004,-5.603215e-004
1.991165e-004,-4.898231e-004
1.511452e-004,-3.582261e-004
1.132219e-004,-1.806025e-004
7.951231e-005,2.100672e-005
3.769945e-005,2.182402e-004
-1.626830e-005,3.833848e-004
-7.898758e-005,4.898618e-004
-1.423551e-004,5.264886e-004
-1.861127e-004,5.039615e-004
-1.817370e-004,4.509661e-004
-1.125351e-004,4.002396e-004
1.484824e-005,3.738230e-004
1.650828e-004,3.765781e-004
2.910076e-004,3.895433e-004
3.561579e-004,3.841952e-004
3.499994e-004,3.396272e-004
2.910076e-004,2.517878e-004
2.101370e-004,1.381800e-004
1.346145e-004,2.343770e-005
7.691926e-005,-6.780507e-005
3.721326e-005,-1.180453e-004
9.013889e-006,-1.212866e-004
-1.075808e-005,-8.158062e-005
-2.874733e-005,-1.351319e-005
-5.338126e-005,6.670914e-005
-8.352541e-005,1.477418e-004
-1.177212e-004,2.211574e-004
-1.511067e-004,2.786906e-004
-1.810887e-004,3.167760e-004
-2.083157e-004,3.329825e-004
-2.293842e-004,3.318480e-004
-2.355427e-004,3.208276e-004
-2.104225e-004,3.017039e-004
-1.417068e-004,2.705873e-004
-3.652646e-005,2.235884e-004
7.562274e-005,1.642725e-004
1.613553e-004,1.023635e-004
2.010613e-004,5.487838e-005
1.855030e-004,3.348575e-005
1.195424e-004,4.061663e-005
1.630683e-005,6.995045e-005
-9.681477e-005,9.652917e-005
-1.963229e-004,8.680524e-005
-2.647144e-004,2.408596e-005
-2.984240e-004,-7.850138e-005
-2.980999e-004,-1.838438e-004
-2.650386e-004,-2.566112e-004
-2.071812e-004,-2.815692e-004
-1.365208e-004,-2.734659e-004
-6.731888e-005,-2.617972e-004
-1.221667e-005,-2.650386e-004
1.533444e-005,-2.804347e-004
4.962256e-006,-2.864312e-004
-3.879538e-005,-2.577456e-004
-8.871149e-005,-1.857886e-004
-1.206384e-004,-8.644259e-005
-1.272830e-004,6.907040e-006
-1.136696e-004,6.654708e-005
-9.389759e-005,8.583286e-005
-8.093236e-005,7.659513e-005
-8.854943e-005,7.870197e-005
-1.196660e-004,1.474177e-004
-1.671511e-004,3.226103e-004
-2.154466e-004,5.861287e-004
-2.570974e-004,8.512677e-004
-2.895104e-004,1.007175e-003
-3.131719e-004,9.765443e-004
-3.275957e-004,7.556491e-004
-3.348887e-004,4.096394e-004
-3.344025e-004,4.077869e-005
-3.131719e-004,-2.530457e-004
-2.519113e-004,-4.173799e-004
-1.472171e-004,-4.575721e-004
-1.691656e-005,-4.173799e-004
1.052807e-004,-3.517435e-004
1.893926e-004,-3.036101e-004
2.162954e-004,-2.964792e-004
1.906891e-004,-3.251648e-004
1.389903e-004,-3.728119e-004
8.891209e-005,-4.188385e-004
5.909208e-005,-4.493068e-004
4.726130e-005,-4.580583e-004
3.202716e-005,-4.544929e-004
-4.113403e-006,-4.570859e-004
-6.197072e-005,-4.744269e-004
-1.240417e-004,-5.076503e-004
-1.692580e-004,-5.470322e-004
-1.836818e-004,-5.679386e-004
-1.720131e-004,-5.496252e-004
-1.436516e-004,-4.894990e-004
-1.164247e-004,-4.049009e-004
-1.032974e-004,-3.146305e-004
-1.175591e-004,-2.379736e-004
-1.626133e-004,-1.859507e-004
-2.243602e-004,-1.524032e-004
-2.726556e-004,-1.173971e-004
-2.687660e-004,-5.872941e-005
-1.818991e-004,3.024445e-005
-8.975362e-006,1.407730e-004
2.171058e-004,2.535705e-004
4.490213e-004,3.553475e-004
6.451205e-004,4.493454e-004
7.843347e-004,5.558224e-004
8.677984e-004,6.950366e-004
9.049114e-004,8.624502e-004
8.997253e-004,1.025488e-003
8.370060e-004,1.136017e-003
7.024916e-004,1.149792e-003
5.054200e-004,1.047205e-003
2.833905e-004,8.434886e-004
9.717743e-005,5.794840e-004
-9.785688e-006,3.064038e-004
-2.923353e-005,6.914012e-005
1.306552e-005,-1.050801e-004
7.205730e-005,-2.089640e-004
1.015532e-004,-2.567732e-004
7.643307e-005,-2.746004e-004
-1.196227e-006,-2.810830e-004
-1.076731e-004,-2.817312e-004
-2.152845e-004,-2.707109e-004
-3.026377e-004,-2.389460e-004
-3.580640e-004,-1.817370e-004
-3.856151e-004,-1.081593e-004
-3.979321e-004,-4.057810e-005
-4.029561e-004,1.558884e-006
-4.045768e-004,7.231170e-006
-3.997148e-004,-1.918548e-005
-3.773498e-004,-5.937768e-005
-3.241924e-004,-9.503204e-005
-2.407288e-004,-1.148040e-004
-1.353863e-004,-1.206384e-004
-1.594417e-005,-1.245279e-004
1.164632e-004,-1.350622e-004
2.555152e-004,-1.595340e-004
3.830607e-004,-2.019951e-004
4.660382e-004,-2.655248e-004
4.838654e-004,-3.433161e-004
4.371906e-004,-4.212695e-004
3.545372e-004,-4.802613e-004
2.743149e-004,-5.068399e-004
2.365536e-004,-4.943609e-004
2.592428e-004,-4.441207e-004
3.255275e-004,-3.728119e-004
3.991052e-004,-3.115513e-004
4.452938e-004,-2.844864e-004
4.410801e-004,-3.019894e-004
3.709058e-004,-3.601709e-004
2.389846e-004,-4.457413e-004
6.768154e-005,-5.324463e-004
-1.063766e-004,-5.885208e-004
-2.527216e-004,-5.950035e-004
-3.502849e-004,-5.551354e-004
-3.969597e-004,-4.927403e-004
-4.074939e-004,-4.316416e-004
-4.013355e-004,-3.878840e-004
-3.929081e-004,-3.653570e-004
-3.875599e-004,-3.601709e-004
-3.786463e-004,-3.608192e-004
-3.611433e-004,-3.515814e-004
-3.353749e-004,-3.134961e-004
-3.049066e-004,-2.360289e-004
-2.752487e-004,-1.258245e-004
-2.551526e-004,1.234753e-006
-2.485079e-004,1.341283e-004
-2.528836e-004,2.671840e-004
-2.645523e-004,4.016982e-004
-2.776796e-004,5.483674e-004
-2.741142e-004,7.102708e-004
-2.355427e-004,8.645570e-004
-1.491618e-004,9.728169e-004
-1.740276e-005,1.003447e-003
1.406109e-004,9.558000e-004
3.042970e-004,8.619640e-004
4.553419e-004,7.694247e-004
5.783495e-004,7.062191e-004
6.611650e-004,6.687820e-004
7.042743e-004,6.336138e-004
7.063812e-004,5.796460e-004
6.691061e-004,4.947237e-004
6.024973e-004,3.841952e-004
5.204921e-004,2.710735e-004
4.431870e-004,1.752929e-004
3.892192e-004,9.831188e-005
3.696093e-004,2.392390e-005
3.888950e-004,-6.407757e-005
4.368664e-004,-1.710407e-004
4.817585e-004,-2.890242e-004
4.709002e-004,-4.058733e-004
3.608578e-004,-5.099192e-004
1.514693e-004,-5.995413e-004
-1.178833e-004,-6.836532e-004
-3.909633e-004,-7.776510e-004
-6.219063e-004,-8.875313e-004
-7.799200e-004,-1.000653e-003
-8.465288e-004,-1.078930e-003
-8.231914e-004,-1.082496e-003
-7.280591e-004,-9.893083e-004
-5.886829e-004,-7.985575e-004
-4.285624e-004,-5.253154e-004
-2.655248e-004,-1.830335e-004
-1.217728e-004,2.214815e-004
-2.242678e-005,6.686199e-004
1.128280e-005,1.093394e-003
-1.691656e-005,1.400184e-003
-8.141856e-005,1.505851e-003
-1.506204e-004,1.387705e-003
-2.032917e-004,1.092745e-003
-2.248464e-004,7.130259e-004
-1.995642e-004,3.474063e-004
-1.266348e-004,6.897806e-005
-2.583016e-005,-9.114248e-005
7.416415e-005,-1.373311e-004
1.479039e-004,-9.065628e-005
1.785342e-004,1.760335e-005
1.624898e-004,1.488763e-004
1.090082e-004,2.642668e-004
3.121684e-005,3.336308e-004
-6.326724e-005,3.414099e-004
-1.588858e-004,2.945730e-004
-2.310048e-004,2.182402e-004
-2.689281e-004,1.423936e-004
-2.789762e-004,9.263960e-005
-2.846485e-004,7.951231e-005
-3.147926e-004,9.896015e-005
-3.786463e-004,1.393144e-004
-4.624341e-004,1.820997e-004
-5.415219e-004,2.104611e-004
-5.971103e-004,2.148369e-004
-6.257959e-004,1.918236e-004
-6.340612e-004,1.445005e-004
-6.295234e-004,8.080883e-005
-6.196374e-004,1.128280e-005
-6.086170e-004,-4.997789e-005
-5.920863e-004,-8.709085e-005
-5.567560e-004,-8.968389e-005
-4.941989e-004,-6.035007e-005
-4.070078e-004,-5.896120e-006
-3.024756e-004,6.281957e-005
-1.887058e-004,1.313732e-004
-6.504996e-005,1.811273e-004
7.043665e-005,1.989545e-004
2.135403e-004,1.817755e-004
3.582647e-004,1.389903e-004
4.997478e-004,8.453633e-005
6.195141e-004,3.316162e-005
6.950366e-004,-8.489166e-006
7.075156e-004,-3.717473e-005
6.595443e-004,-5.808115e-005
5.728393e-004,-8.109443e-005
4.791655e-004,-1.141558e-004
4.083429e-004,-1.546721e-004
3.773884e-004,-1.947022e-004
3.875985e-004,-2.276015e-004
4.276287e-004,-2.454286e-004
4.754380e-004,-2.447804e-004
5.185474e-004,-2.274394e-004
5.538776e-004,-1.948643e-004
5.791598e-004,-1.536997e-004
5.916389e-004,-1.167488e-004
5.880735e-004,-8.725291e-005
5.686256e-004,-4.997789e-005
5.332953e-004,1.825161e-005
4.801379e-004,1.287802e-004
4.086671e-004,2.765838e-004
3.239069e-004,4.352458e-004
2.386605e-004,5.644119e-004
1.730240e-004,6.282657e-004
1.409351e-004,6.075213e-004
1.475797e-004,5.007202e-004
1.769136e-004,3.229345e-004
1.981441e-004,1.070634e-004
1.824238e-004,-1.091317e-004
1.117633e-004,-2.929138e-004
-1.270286e-005,-4.290486e-004
-1.724993e-004,-5.186707e-004
-3.285682e-004,-5.705316e-004
-4.428242e-004,-5.974344e-004
-4.864197e-004,-6.069963e-004
-4.522240e-004,-5.946793e-004
-3.520676e-004,-5.604835e-004
-2.141500e-004,-5.091089e-004
-7.558420e-005,-4.454172e-004
2.797553e-005,-3.684362e-004
8.242948e-005,-2.765452e-004
9.426025e-005,-1.718510e-004
8.064677e-005,-6.845333e-005
5.909208e-005,1.760335e-005
3.932010e-005,6.768154e-005
2.359977e-005,7.367795e-005
1.646890e-005,3.737532e-005
3.170304e-005,-2.631635e-005
8.307774e-005,-9.308726e-005
1.692965e-004,-1.289037e-004
2.671840e-004,-1.110765e-004
3.448133e-004,-4.608832e-005
3.869503e-004,3.721326e-005
3.880847e-004,1.072255e-004
3.493511e-004,1.482280e-004
2.773941e-004,1.697827e-004
1.837203e-004,2.015475e-004
8.129502e-005,2.712356e-004
-1.967167e-005,3.816021e-004
-1.110765e-004,5.060683e-004
-1.825473e-004,5.982835e-004
-2.259808e-004,6.164349e-004
-2.425115e-004,5.384815e-004
-2.412149e-004,3.773884e-004
-2.323013e-004,1.726999e-004
-2.237119e-004,-2.631635e-005
-2.190120e-004,-1.796301e-004
-2.159328e-004,-2.755728e-004
-2.117191e-004,-3.254889e-004
-1.995642e-004,-3.553089e-004
-1.806025e-004,-3.933943e-004
-1.669890e-004,-4.509274e-004
-1.702304e-004,-5.228845e-004
-1.927574e-004,-5.841451e-004
-2.276015e-004,-6.097514e-004
-2.622834e-004,-6.011620e-004
-2.872415e-004,-5.828486e-004
-3.016653e-004,-5.787970e-004
-3.092824e-004,-5.971103e-004
-3.123616e-004,-6.283889e-004
-3.060411e-004,-6.462161e-004
-2.856209e-004,-6.230408e-004
-2.522354e-004,-5.501114e-004
-2.191741e-004,-4.402311e-004
-1.981056e-004,-3.243544e-004
-1.925954e-004,-2.352185e-004
-2.042641e-004,-1.911368e-004
-2.314910e-004,-1.872472e-004
-2.754107e-004,-2.018331e-004
-3.261372e-004,-2.164190e-004
-3.684362e-004,-2.167431e-004
-3.864254e-004,-1.992400e-004
-3.673017e-004,-1.598582e-004
-3.152788e-004,-7.866345e-005
-2.446183e-004,6.525056e-005
-1.695821e-004,2.645909e-004
-9.632857e-005,4.744656e-004
-2.501983e-005,6.238899e-004
3.737532e-005,6.622995e-004
8.729144e-005,5.977973e-004
1.242423e-004,4.804620e-004
1.603829e-004,3.733368e-004
2.109473e-004,3.250413e-004
2.777182e-004,3.491891e-004
3.417340e-004,4.269804e-004
3.756057e-004,5.234093e-004
3.657197e-004,6.047662e-004
3.219621e-004,6.537099e-004
2.701012e-004,6.679717e-004
2.303951e-004,6.559788e-004
2.149989e-004,6.315070e-004
2.166196e-004,5.982835e-004
2.161334e-004,5.535535e-004
1.887444e-004,4.973168e-004
1.211631e-004,4.380009e-004
2.068259e-005,3.853296e-004
-9.357346e-005,3.467581e-004
-2.052365e-004,3.234207e-004
-3.034480e-004,3.088348e-004
-3.731361e-004,2.940868e-004
-4.019837e-004,2.736666e-004
-3.930701e-004,2.457913e-004
-3.627639e-004,2.153231e-004
-3.285682e-004,1.880961e-004
-2.980999e-004,1.686482e-004
-2.744383e-004,1.556830e-004
-2.574215e-004,1.457970e-004
-2.439701e-004,1.278078e-004
-2.263049e-004,9.361199e-005
-1.966470e-004,3.705119e-005
-1.496481e-004,-4.819517e-005
-8.854943e-005,-1.645581e-004
-2.955766e-005,-3.057169e-004
4.313994e-006,-4.650271e-004
1.558884e-006,-6.309819e-004
-2.615429e-005,-7.820268e-004
-4.138842e-005,-8.925553e-004
-1.205460e-005,-9.400405e-004
6.816773e-005,-9.183238e-004
1.741585e-004,-8.389117e-004
2.783665e-004,-7.249799e-004
3.582647e-004,-6.060239e-004
4.023465e-004,-5.042469e-004
4.242253e-004,-4.272659e-004
4.461041e-004,-3.666535e-004
4.901859e-004,-3.105789e-004
5.605224e-004,-2.554767e-004
6.475514e-004,-2.084778e-004
7.295565e-004,-1.767130e-004
7.807693e-004,-1.571031e-004
7.783383e-004,-1.352242e-004
7.135121e-004,-8.757704e-005
5.979594e-004,6.096713e-006
4.577728e-004,1.428799e-004
3.201794e-004,3.025142e-004
2.111094e-004,4.533971e-004
1.407730e-004,5.686256e-004
1.025256e-004,6.341000e-004
7.853991e-005,6.545202e-004
5.293359e-005,6.488480e-004
2.246531e-005,6.334517e-004
-2.330684e-006,6.175694e-004
-6.058186e-006,5.943940e-004
2.165498e-005,5.499881e-004
7.027458e-005,4.783552e-004
1.213252e-004,3.850055e-004
1.493625e-004,2.837146e-004
1.406109e-004,1.874478e-004
9.766362e-005,1.030118e-004
3.705119e-005,3.478228e-005
-2.809907e-005,-1.189254e-005
-9.827335e-005,-3.198864e-005
-1.820611e-004,-3.166451e-005
-2.801106e-004,-2.631635e-005
-3.739464e-004,-3.571614e-005
-4.324520e-004,-6.375344e-005
-4.423380e-004,-1.063766e-004
-4.110594e-004,-1.509446e-004
-3.543365e-004,-1.843300e-004
-2.917793e-004,-1.968091e-004
-2.429977e-004,-1.836818e-004
-2.219292e-004,-1.371690e-004
-2.387840e-004,-6.067420e-005
-2.953447e-004,1.760335e-005
-3.692465e-004,5.876794e-005
-4.225660e-004,4.661304e-005
-4.235384e-004,-1.383732e-005
-3.677880e-004,-1.060525e-004
-2.763831e-004,-2.078295e-004
-1.742820e-004,-2.998826e-004
-8.206682e-005,-3.815635e-004
-7.516774e-006,-4.656754e-004
5.617490e-005,-5.650214e-004
1.213252e-004,-6.700397e-004
1.973338e-004,-7.564205e-004
2.806354e-004,-7.964507e-004
3.564820e-004,-7.786234e-004
4.120704e-004,-6.982391e-004
4.363802e-004,-5.562698e-004
4.213082e-004,-3.519055e-004
3.730126e-004,-7.218083e-005
3.203414e-004,3.042970e-004
3.012177e-004,7.587284e-004
3.287688e-004,1.200681e-003
3.848434e-004,1.502447e-003
4.316803e-004,1.563546e-003
4.407560e-004,1.356912e-003
4.101256e-004,9.476967e-004
3.449753e-004,4.561522e-004
2.472499e-004,4.313994e-006
1.226217e-004,-3.261372e-004
-1.886135e-005,-5.039228e-004
-1.640719e-004,-5.399013e-004
-3.052308e-004,-4.729683e-004
-4.275900e-004,-3.496366e-004
-5.139708e-004,-2.143121e-004
-5.570802e-004,-9.794922e-005
-5.624284e-004,-1.237873e-005
-5.436288e-004,4.077869e-005
-5.186707e-004,6.476436e-005
-4.929024e-004,7.092284e-005
-4.659995e-004,6.962632e-005
-4.337485e-004,6.946425e-005
-3.935563e-004,7.772959e-005
-3.473677e-004,9.636710e-005
-2.995585e-004,1.222976e-004
-2.601766e-004,1.485521e-004
-2.394322e-004,1.678379e-004
-2.485079e-004,1.809652e-004
-3.026377e-004,1.926339e-004
-4.147869e-004,1.973338e-004
-5.757177e-004,1.761032e-004
-7.483172e-004,1.013911e-004
-8.799143e-004,-4.657452e-005
-9.280476e-004,-2.530457e-004
-8.846141e-004,-4.710235e-004
-7.701961e-004,-6.497815e-004
-6.204477e-004,-7.569068e-004
-4.687546e-004,-7.880232e-004
-3.342404e-004,-7.588515e-004
-2.271153e-004,-6.985632e-004
-1.464067e-004,-6.342233e-004
-7.833932e-005,-5.804176e-004
1.883015e-006,-5.463839e-004
1.002567e-004,-5.303394e-004
2.081922e-004,-5.121881e-004
3.154794e-004,-4.621100e-004
4.138531e-004,-3.627639e-004
4.950479e-004,-2.123673e-004
5.441537e-004,-1.513384e-005
5.420469e-004,2.209954e-004
4.765725e-004,4.909963e-004
3.512959e-004,7.835244e-004
1.940925e-004,1.066167e-003
3.543054e-005,1.294517e-003
-1.032974e-004,1.437945e-003
-1.948643e-004,1.489482e-003
-1.929195e-004,1.455448e-003
-6.083626e-005,1.339733e-003
2.000889e-004,1.137313e-003
5.341057e-004,8.519160e-004
8.614778e-004,5.187094e-004
1.114624e-003,1.974959e-004
1.269073e-003,-5.435365e-005
1.344757e-003,-2.010227e-004
1.371336e-003,-2.413770e-004
1.366798e-003,-1.982676e-004
1.336168e-003,-1.039456e-004
1.273448e-003,1.209313e-005
1.172968e-003,1.266733e-004
1.043802e-003,2.248849e-004
9.058838e-004,3.034866e-004
7.699109e-004,3.600474e-004
6.315070e-004,3.830607e-004
4.781931e-004,3.603715e-004
3.073762e-004,2.913317e-004
1.310491e-004,1.957132e-004
-3.279896e-005,1.015532e-004
-1.642339e-004,3.008238e-005
-2.459149e-004,-1.351319e-005
-2.690902e-004,-3.668853e-005
-2.404046e-004,-5.354332e-005
-1.861127e-004,-8.190475e-005
-1.397621e-004,-1.319829e-004
-1.183694e-004,-2.042641e-004
-1.191798e-004,-2.898345e-004
-1.292278e-004,-3.763774e-004
-1.441378e-004,-4.569239e-004
-1.716889e-004,-5.267740e-004
-2.190120e-004,-5.825245e-004
-2.827037e-004,-6.228787e-004
-3.507711e-004,-6.439472e-004
-4.071698e-004,-6.421645e-004
-4.378002e-004,-6.134789e-004
-4.381243e-004,-5.564319e-004
-4.222419e-004,-4.800992e-004
-4.073319e-004,-4.005251e-004
-4.047388e-004,-3.316474e-004
-4.198109e-004,-2.771934e-004
-4.486585e-004,-2.368392e-004
-4.770200e-004,-2.131776e-004
-4.880404e-004,-2.079916e-004
-4.742648e-004,-2.156086e-004
-4.447690e-004,-2.397564e-004
-4.136524e-004,-2.893484e-004
-3.956632e-004,-3.617915e-004
-3.982562e-004,-4.405553e-004
-4.180282e-004,-5.063537e-004
-4.462276e-004,-5.488148e-004
-4.755614e-004,-5.679386e-004
-4.998712e-004,-5.755557e-004
-5.110537e-004,-5.859278e-004
-4.990608e-004,-6.139652e-004
-4.640547e-004,-6.617744e-004
-4.110594e-004,-7.134732e-004
-3.436402e-004,-7.483172e-004
-2.650386e-004,-7.539895e-004
-1.783336e-004,-7.280591e-004
-9.373552e-005,-6.742534e-004
-1.886135e-005,-5.980827e-004
4.596478e-005,-5.013297e-004
1.062531e-004,-3.870737e-004
1.595726e-004,-2.609869e-004
2.000889e-004,-1.368449e-004
2.192126e-004,-3.409549e-005
2.146748e-004,3.915804e-005
1.957132e-004,9.361199e-005
1.769136e-004,1.462832e-004
1.709172e-004,2.081922e-004
1.890685e-004,2.840388e-004
2.256952e-004,3.725265e-004
2.592428e-004,4.678209e-004
2.704253e-004,5.655463e-004
2.563256e-004,6.574374e-004
2.347709e-004,7.433321e-004
2.308813e-004,8.261476e-004
2.655633e-004,9.013460e-004
3.388169e-004,9.562862e-004
4.423766e-004,9.833511e-004
5.627912e-004,9.872407e-004
6.843403e-004,9.810822e-004
7.872519e-004,9.825408e-004
8.519160e-004,1.006202e-003
8.564538e-004,1.058874e-003
7.857933e-004,1.138610e-003
6.412309e-004,1.226125e-003
4.441593e-004,1.278310e-003
2.245608e-004,1.248815e-003
1.549650e-005,1.124024e-003
-1.543479e-004,9.306798e-004
-2.737901e-004,7.165913e-004
-3.459091e-004,5.234093e-004
-3.778360e-004,3.743092e-004
-3.797808e-004,2.673460e-004
-3.684362e-004,1.825859e-004
-3.642225e-004,1.030118e-004
-3.802670e-004,1.565857e-005
-4.104111e-004,-7.963584e-005
-4.361795e-004,-1.755785e-004
-4.378002e-004,-2.601766e-004
-4.014975e-004,-3.232200e-004
-3.290543e-004,-3.638984e-004
-2.420253e-004,-3.917736e-004
-1.666649e-004,-4.262935e-004
-1.209625e-004,-4.679443e-004
-1.078352e-004,-4.849611e-004
-1.117248e-004,-4.394208e-004
-1.068628e-004,-3.143064e-004
-7.866345e-005,-1.396000e-004
-3.539201e-005,1.841368e-005
4.244267e-007,9.426025e-005
7.069105e-006,6.314371e-005
-2.275091e-005,-5.386745e-005
-7.979791e-005,-2.058847e-004
-1.426792e-004,-3.460712e-004
-1.833576e-004,-4.512515e-004
-1.875713e-004,-5.223983e-004
-1.561307e-004,-5.716661e-004
-1.049180e-004,-6.066722e-004
-5.889148e-005,-6.238511e-004
-4.138842e-005,-6.175305e-004
-6.164659e-005,-5.839830e-004
-1.186936e-004,-5.272602e-004
-2.016710e-004,-4.569239e-004
-2.943724e-004,-3.870737e-004
-3.741085e-004,-3.274337e-004
-4.241867e-004,-2.797865e-004
-4.408794e-004,-2.457528e-004
-4.340726e-004,-2.285739e-004
-4.185144e-004,-2.331117e-004
-4.040906e-004,-2.533699e-004
-3.920977e-004,-2.827037e-004
-3.763774e-004,-3.089583e-004
-3.509331e-004,-3.240303e-004
-3.107410e-004,-3.246786e-004
-2.593663e-004,-3.110651e-004
-2.023193e-004,-2.841623e-004
-1.491618e-004,-2.413770e-004
-1.078352e-004,-1.853024e-004
-7.898758e-005,-1.227452e-004
-5.613637e-005,-5.532604e-005
-3.522994e-005,1.436204e-005
-1.480971e-005,7.546067e-005
6.744974e-006,1.153287e-004
3.105477e-005,1.289422e-004
5.568870e-005,1.213252e-004
7.465034e-005,1.009049e-004
8.113296e-005,7.092284e-005
7.302970e-005,3.105477e-005
5.504044e-005,-8.813297e-006
3.964424e-005,-2.971972e-005
3.462021e-005,-9.623623e-006
3.850978e-005,5.925414e-005
3.769945e-005,1.680000e-004
1.922400e-005,2.961937e-004
-2.210265e-005,4.136911e-004
-8.060823e-005,4.882411e-004
-1.464067e-004,4.990995e-004
-2.052365e-004,4.472386e-004
-2.287359e-004,3.428685e-004
-1.778474e-004,2.088404e-004
-2.356124e-005,7.724339e-005
2.286124e-004,-2.453363e-005
5.307022e-004,-8.255302e-005
8.086445e-004,-9.600444e-005
9.989094e-004,-7.266703e-005
1.076701e-003,-2.647842e-005
1.058225e-003,2.781346e-005
9.862683e-004,6.897806e-005
9.023183e-004,8.518459e-005
8.310095e-004,8.048470e-005
7.713694e-004,6.881599e-005
7.146465e-004,5.893001e-005
6.579236e-004,5.212327e-005
6.036317e-004,4.385793e-005
5.590637e-004,4.045456e-005
5.243817e-004,5.795762e-005
4.956961e-004,1.128978e-004
4.665244e-004,2.146748e-004
4.269804e-004,3.517821e-004
3.632887e-004,4.913204e-004
2.650771e-004,5.875872e-004
1.300767e-004,6.106006e-004
-2.988179e-005,5.584154e-004
-1.865989e-004,4.576108e-004
-3.073376e-004,3.401134e-004
-3.703810e-004,2.297469e-004
-3.768636e-004,1.373696e-004
-3.486642e-004,6.346784e-005
-3.170615e-004,6.582909e-006
-3.063652e-004,-3.004385e-005
-3.282440e-004,-4.414354e-005
-3.765395e-004,-3.944364e-005
-4.314796e-004,-2.647842e-005
-4.804233e-004,-2.177852e-005
-5.204534e-004,-3.814712e-005
-5.538389e-004,-8.109443e-005
-5.765280e-004,-1.384655e-004
-5.815520e-004,-1.922712e-004
-5.616181e-004,-2.238740e-004
-5.084606e-004,-2.235498e-004
-4.138145e-004,-1.947022e-004
-2.750866e-004,-1.494860e-004
-1.020008e-004,-1.018388e-004
8.534666e-005,-5.937768e-005
2.462775e-004,-2.745081e-005
3.412479e-004,3.989864e-006
3.619922e-004,5.601284e-005
3.276344e-004,1.393144e-004
2.686426e-004,2.420638e-004
2.119197e-004,3.373583e-004
1.752929e-004,3.848434e-004
1.686482e-004,3.546993e-004
1.936063e-004,2.415777e-004
2.516257e-004,7.562274e-005
3.418961e-004,-9.454585e-005
4.498317e-004,-2.246843e-004
5.425331e-004,-2.948586e-004
5.807805e-004,-3.094444e-004
5.405883e-004,-2.998826e-004
4.277907e-004,-3.102548e-004
2.769079e-004,-3.668155e-004
1.276457e-004,-4.601652e-004
9.986281e-006,-5.590250e-004
-6.537409e-005,-6.327647e-004
-9.665270e-005,-6.593434e-004
-8.239095e-005,-6.382749e-004
-2.404744e-005,-5.917621e-004
6.914012e-005,-5.488148e-004
1.696206e-004,-5.348772e-004
2.402811e-004,-5.520562e-004
2.521119e-004,-5.749074e-004
1.974959e-004,-5.682627e-004
8.648112e-005,-5.063537e-004
-6.002594e-005,-3.875599e-004
-2.178775e-004,-2.222533e-004
-3.603330e-004,-1.967167e-005
-4.604893e-004,2.266676e-004
-5.110537e-004,5.279472e-004
-5.272602e-004,8.595330e-004
-5.353634e-004,1.152548e-003
-5.468701e-004,1.321096e-003
-5.575664e-004,1.307320e-003
-5.588629e-004,1.120621e-003
-5.441150e-004,8.290648e-004
-5.164018e-004,5.315126e-004
-4.933886e-004,3.086727e-004
-4.896610e-004,1.934442e-004
-5.071641e-004,1.767515e-004
-5.334187e-004,2.219677e-004
-5.501114e-004,2.879283e-004
-5.413599e-004,3.467581e-004
-4.941989e-004,3.931088e-004
-4.047388e-004,4.383250e-004
-2.846485e-004,4.989374e-004
-1.622891e-004,5.812666e-004
-5.970181e-005,6.705648e-004
2.343770e-005,7.347427e-004
1.015532e-004,7.464114e-004
1.840444e-004,6.973055e-004
2.624841e-004,5.942319e-004
3.055935e-004,4.498317e-004
2.778803e-004,2.762596e-004
1.676758e-004,7.999851e-005
-9.299493e-006,-1.298761e-004
-2.089640e-004,-3.337542e-004
-3.747568e-004,-5.053814e-004
-4.669719e-004,-6.295234e-004
-4.820440e-004,-7.053699e-004
-4.514136e-004,-7.395657e-004
-4.131662e-004,-7.441035e-004
-3.930701e-004,-7.295177e-004
-3.945287e-004,-6.992114e-004
-3.985804e-004,-6.551297e-004
-3.731361e-004,-6.037550e-004
-2.859450e-004,-5.569181e-004
-1.204763e-004,-5.243430e-004
1.116012e-004,-5.016539e-004
3.658818e-004,-4.786406e-004
5.905044e-004,-4.488206e-004
7.468975e-004,-4.160834e-004
8.306854e-004,-3.865875e-004
8.708776e-004,-3.647087e-004
9.015080e-004,-3.538503e-004
9.368383e-004,-3.536883e-004
9.760582e-004,-3.600088e-004
1.017223e-003,-3.666535e-004
1.054336e-003,-3.622777e-004
1.070866e-003,-3.366714e-004
1.047205e-003,-2.917793e-004
9.723307e-004,-2.391081e-004
8.519160e-004,-1.985918e-004
7.065432e-004,-1.817370e-004
5.579292e-004,-1.869231e-004
4.219564e-004,-2.024813e-004
3.026763e-004,-2.232257e-004
1.963614e-004,-2.462390e-004
9.490851e-005,-2.731418e-004
-1.156841e-005,-3.031239e-004
-1.302002e-004,-3.303509e-004
-2.530457e-004,-3.402368e-004
-3.669776e-004,-3.167374e-004
-4.624341e-004,-2.504527e-004
-5.363359e-004,-1.491618e-004
-5.954896e-004,-3.652646e-005
-6.517263e-004,5.828175e-005
-7.087733e-004,1.150046e-004
-7.599859e-004,1.255389e-004
-7.902921e-004,9.393612e-005
-7.829992e-004,3.494434e-005
-7.227109e-004,-2.745081e-005
-6.091032e-004,-6.829127e-005
-4.565997e-004,-7.882551e-005
-2.942103e-004,-6.375344e-005
-1.473791e-004,-2.777494e-005
-3.620233e-005,2.100672e-005
2.943412e-005,7.546067e-005
5.666109e-005,1.278078e-004
6.249545e-005,1.762653e-004
6.330578e-005,2.196988e-004
7.124698e-005,2.569738e-004
9.669123e-005,2.838767e-004
1.483901e-004,2.968419e-004
2.282883e-004,3.034866e-004
3.316860e-004,3.127243e-004
4.478869e-004,3.307136e-004
5.681394e-004,3.553475e-004
6.763991e-004,3.765781e-004
7.579181e-004,3.830607e-004
8.052412e-004,3.713920e-004
8.172340e-004,3.444891e-004
8.047550e-004,3.109416e-004
7.788245e-004,2.752873e-004
7.383081e-004,2.431983e-004
6.718613e-004,2.171058e-004
5.668429e-004,1.926339e-004
4.239012e-004,1.628139e-004
2.568118e-004,1.172735e-004
8.664318e-005,5.293359e-005
-7.039812e-005,-2.161646e-005
-2.097743e-004,-8.498399e-005
-3.327818e-004,-1.097800e-004
-4.342347e-004,-7.380149e-005
-5.084606e-004,2.635488e-005
-5.608077e-004,1.692965e-004
-6.061860e-004,3.234207e-004
-6.528608e-004,4.574487e-004
-7.026148e-004,5.496639e-004
-7.491275e-004,5.930975e-004
-7.859163e-004,6.034696e-004
-8.030953e-004,6.093040e-004
-7.954782e-004,6.290760e-004
-7.573929e-004,6.551685e-004
-6.966184e-004,6.601926e-004
-6.256338e-004,6.165970e-004
-5.572423e-004,5.133613e-004
-4.985746e-004,3.676645e-004
-4.523860e-004,2.198609e-004
-4.211074e-004,1.078737e-004
-4.076560e-004,5.017848e-005
-4.094387e-004,4.013043e-005
-4.178661e-004,5.585077e-005
-4.256453e-004,7.157111e-005
-4.251591e-004,7.302970e-005
-4.108973e-004,5.617490e-005
-3.852910e-004,2.716521e-005
-3.557951e-004,-6.544382e-006
-3.293785e-004,-4.025397e-005
-3.084721e-004,-7.039812e-005
-2.955068e-004,-9.632857e-005
-2.890242e-004,-1.148040e-004
-2.844864e-004,-1.222590e-004
-2.757348e-004,-1.173971e-004
-2.580697e-004,-1.083214e-004
-2.386219e-004,-1.086455e-004
-2.313290e-004,-1.311726e-004
-2.444563e-004,-1.817370e-004
-2.673075e-004,-2.546664e-004
-2.718453e-004,-3.284061e-004
-2.267911e-004,-3.830221e-004
-1.199901e-004,-4.052250e-004
4.094075e-005,-3.966356e-004
2.384984e-004,-3.666535e-004
4.511282e-004,-3.301888e-004
6.571133e-004,-3.079858e-004
8.389507e-004,-3.248407e-004
9.835132e-004,-3.867496e-004
1.078484e-003,-4.779923e-004
1.119162e-003,-5.726385e-004
1.100200e-003,-6.481609e-004
1.016737e-003,-6.933771e-004
8.775223e-004,-7.155800e-004
7.107570e-004,-7.241695e-004
5.509604e-004,-7.206041e-004
4.266563e-004,-6.909461e-004
3.569682e-004,-6.240131e-004
3.405996e-004,-5.211017e-004
3.592371e-004,-4.005251e-004
3.816021e-004,-2.857829e-004
3.760919e-004,-1.911368e-004
3.318480e-004,-1.135075e-004
2.555152e-004,-3.830919e-005
1.665414e-004,6.022653e-005
8.631905e-005,2.101370e-004
2.813760e-005,4.276287e-004
-7.030578e-006,6.998986e-004
-2.550602e-005,9.760582e-004
-4.074016e-005,1.190957e-003
-6.375344e-005,1.308455e-003
-9.616651e-005,1.338437e-003
-1.314967e-004,1.318341e-003
-1.556445e-004,1.284631e-003
-1.545100e-004,1.248490e-003
-1.216107e-004,1.183826e-003
-6.650855e-005,1.044612e-003
-8.002969e-006,8.063756e-004
3.932010e-005,4.952099e-004
6.978839e-005,1.689724e-004
8.307774e-005,-1.133454e-004
8.259155e-005,-3.084721e-004
6.573675e-005,-4.042526e-004
3.380988e-005,-4.154351e-004
-6.544382e-006,-3.763774e-004
-4.803310e-005,-3.275957e-004
-8.530812e-005,-2.982619e-004
-1.217728e-004,-3.006929e-004
-1.671511e-004,-3.287302e-004
-2.306807e-004,-3.642225e-004
-3.172236e-004,-3.890185e-004
-4.190006e-004,-3.838324e-004
-5.151053e-004,-3.366714e-004
-5.880346e-004,-2.394322e-004
-6.269303e-004,-9.162867e-005
-6.295234e-004,9.863601e-005
-5.990551e-004,3.112658e-004
-5.387668e-004,5.114165e-004
-4.595169e-004,6.629477e-004
-3.752429e-004,7.423597e-004
-3.053928e-004,7.371737e-004
-2.710350e-004,6.459308e-004
-2.804347e-004,4.744656e-004
-3.243544e-004,2.446569e-004
-3.778360e-004,-1.358292e-006
-4.143007e-004,-2.198223e-004
-4.188385e-004,-3.817256e-004
-3.943667e-004,-4.856094e-004
-3.468815e-004,-5.446012e-004
-2.762210e-004,-5.739350e-004
-1.671511e-004,-5.867381e-004
-9.299493e-006,-5.954896e-004
1.851789e-004,-6.047274e-004
3.866261e-004,-6.163961e-004
5.580913e-004,-6.267683e-004
6.799645e-004,-6.355198e-004
7.579181e-004,-6.434610e-004
8.115617e-004,-6.543194e-004
8.640709e-004,-6.666363e-004
9.147974e-004,-6.727948e-004
9.402417e-004,-6.588572e-004
9.159319e-004,-6.139652e-004
8.374922e-004,-5.390910e-004
7.196706e-004,-4.454172e-004
5.999042e-004,-3.525538e-004
5.177371e-004,-2.783279e-004
4.924549e-004,-2.368392e-004
5.196818e-004,-2.276015e-004
5.786736e-004,-2.381357e-004
6.446343e-004,-2.535319e-004
6.942263e-004,-2.621213e-004
7.057329e-004,-2.509389e-004
6.679717e-004,-2.138259e-004
5.799701e-004,-1.489998e-004
4.535592e-004,-6.083626e-005
3.117519e-004,3.202716e-005
1.817755e-004,1.026876e-004
8.307774e-005,1.347766e-004
2.473423e-005,1.349386e-004
5.864920e-007,1.221355e-004
-8.002969e-006,1.138702e-004
-2.015787e-005,1.234320e-004
-5.240886e-005,1.566554e-004
-1.148040e-004,2.030061e-004
-2.041020e-004,2.470879e-004
-3.100927e-004,2.705873e-004
-4.138145e-004,2.597290e-004
-4.912817e-004,2.109473e-004
-5.183466e-004,1.351007e-004
-4.924161e-004,4.645098e-005
-4.241867e-004,-3.944364e-005
-3.308371e-004,-1.094559e-004
-2.282497e-004,-1.590478e-004
-1.258245e-004,-1.835197e-004
-2.761287e-005,-1.823853e-004
6.751948e-005,-1.543479e-004
1.516314e-004,-1.015147e-004
2.124059e-004,-3.879538e-005
2.368777e-004,1.841368e-005
2.224539e-004,6.200925e-005
1.795066e-004,9.960841e-005
1.226217e-004,1.346145e-004
5.714729e-005,1.691344e-004
-2.712668e-005,2.008992e-004
-1.349001e-004,2.256952e-004
-2.648765e-004,2.427121e-004
-4.040906e-004,2.509774e-004
-5.327704e-004,2.529222e-004
-6.334129e-004,2.568118e-004
-6.988873e-004,2.650771e-004
-7.372968e-004,2.814457e-004
-7.599859e-004,3.015418e-004
-7.680892e-004,3.133726e-004
-7.562584e-004,3.026763e-004
-7.227109e-004,2.597290e-004
-6.718224e-004,1.829100e-004
-6.167202e-004,8.405014e-005
-5.734488e-004,-1.983374e-005
-5.489769e-004,-1.146419e-004
-5.355255e-004,-1.895161e-004
-5.173742e-004,-2.371633e-004
-4.888507e-004,-2.480217e-004
-4.556273e-004,-2.224154e-004
-4.202971e-004,-1.702304e-004
-3.807532e-004,-1.039456e-004
-3.217614e-004,-3.393342e-005
-2.285739e-004,3.607880e-005
-9.827335e-005,1.081979e-004
4.402000e-005,1.798307e-004
1.595726e-004,2.396328e-004
2.177540e-004,2.756114e-004
2.143507e-004,2.827423e-004
1.709172e-004,2.728562e-004
1.138702e-004,2.688046e-004
6.557468e-005,2.822560e-004
3.737532e-005,3.133726e-004
2.359977e-005,3.534027e-004
6.420843e-006,3.914881e-004
-3.117831e-005,4.140152e-004
-1.000561e-004,4.120704e-004
-1.984297e-004,3.900295e-004
-3.147926e-004,3.589129e-004
-4.308313e-004,3.320101e-004
-5.277464e-004,3.146691e-004
-5.831727e-004,3.065659e-004
-5.762039e-004,3.034866e-004
-5.001953e-004,3.004074e-004
-3.698948e-004,2.889007e-004
-2.222533e-004,2.611876e-004
-9.551824e-005,2.119197e-004
-1.448558e-005,1.470936e-004
1.938607e-005,7.465034e-005
2.959619e-005,8.041497e-006
4.774750e-005,-3.587821e-005
1.065772e-004,-4.462973e-005
2.229401e-004,-1.756482e-005
3.820883e-004,2.943412e-005
5.441537e-004,7.302970e-005
6.613270e-004,9.831188e-005
7.146465e-004,1.059290e-004
7.071915e-004,1.090082e-004
6.558168e-004,1.124116e-004
5.848321e-004,9.798775e-005
5.117406e-004,4.353380e-005
4.533971e-004,-5.321920e-005
4.302217e-004,-1.759026e-004
4.559901e-004,-3.026377e-004
5.368608e-004,-4.147869e-004
6.668373e-004,-4.941989e-004
8.332785e-004,-5.377944e-004
1.015764e-003,-5.535148e-004
1.188688e-003,-5.585388e-004
1.330171e-003,-5.679386e-004
1.417039e-003,-5.856037e-004
1.429194e-003,-5.985689e-004
1.359829e-003,-5.873864e-004
1.220129e-003,-5.355255e-004
1.041371e-003,-4.316416e-004
8.587227e-004,-2.736280e-004
6.956849e-004,-6.261898e-005
5.572810e-004,2.060853e-004
4.323286e-004,5.225990e-004
3.070520e-004,8.379783e-004
1.728619e-004,1.070380e-003
3.397195e-005,1.142337e-003
-9.551824e-005,1.024678e-003
-2.063709e-004,7.577559e-004
-2.972895e-004,4.292493e-004
-3.720016e-004,1.370455e-004
-4.369898e-004,-4.851930e-005
-4.993849e-004,-1.088076e-004
-5.679386e-004,-7.120844e-005
-6.403818e-004,1.290346e-005
-7.095836e-004,9.539470e-005
-7.640376e-004,1.466074e-004
-7.974231e-004,1.628139e-004
-8.111986e-004,1.551968e-004
-8.131433e-004,1.419075e-004
-8.076332e-004,1.334801e-004
-7.902921e-004,1.211631e-004
-7.544757e-004,9.215340e-005
-7.014804e-004,3.867184e-005
-6.384369e-004,-3.879538e-005
-5.703696e-004,-1.295519e-004
-4.948471e-004,-2.193361e-004
-4.112214e-004,-2.946965e-004
-3.262992e-004,-3.476919e-004
-2.548284e-004,-3.702189e-004
-2.053985e-004,-3.527159e-004
-1.699062e-004,-2.896725e-004
-1.342519e-004,-1.890299e-004
-9.341139e-005,-7.380149e-005
-5.435365e-005,2.376183e-005
-3.360929e-005,7.497447e-005
-4.819517e-005,5.795762e-005
-9.989401e-005,-2.437157e-005
-1.639098e-004,-1.496481e-004
-2.100984e-004,-2.823795e-004
-2.261429e-004,-3.903150e-004
-2.224154e-004,-4.520619e-004
-2.173914e-004,-4.585445e-004
-2.217671e-004,-4.168937e-004
-2.274394e-004,-3.523917e-004
-2.154466e-004,-2.959930e-004
-1.716889e-004,-2.713591e-004
-1.003802e-004,-2.864312e-004
-2.664048e-005,-3.337542e-004
2.473423e-005,-4.060354e-004
4.612685e-005,-4.941989e-004
4.839576e-005,-5.877105e-004
4.953022e-005,-6.723086e-004
6.298164e-005,-7.327590e-004
8.907416e-005,-7.637134e-004
1.148425e-004,-7.693857e-004
1.163011e-004,-7.569068e-004
7.416415e-005,-7.272488e-004
-8.165035e-006,-6.765223e-004
-1.044318e-004,-5.985689e-004
-1.849783e-004,-4.896610e-004
-2.329496e-004,-3.527159e-004
-2.509389e-004,-1.995642e-004
-2.478596e-004,-4.544006e-005
-2.298704e-004,1.020394e-004
-1.981056e-004,2.585945e-004
-1.587237e-004,4.469145e-004
-1.198280e-004,6.772094e-004
-8.611845e-005,9.337591e-004
-5.937768e-005,1.174264e-003
-4.495386e-005,1.344595e-003
-4.625038e-005,1.397915e-003
-5.678463e-005,1.317855e-003
-6.245691e-005,1.129372e-003
-4.625038e-005,8.854635e-004
2.623614e-007,6.438239e-004
7.157111e-005,4.482110e-004
1.543865e-004,3.206656e-004
2.360674e-004,2.560015e-004
3.183966e-004,2.404432e-004
4.060740e-004,2.597290e-004
4.955341e-004,2.971661e-004
5.721910e-004,3.339549e-004
6.206486e-004,3.522683e-004
6.336138e-004,3.402755e-004
6.086557e-004,2.994350e-004
5.496639e-004,2.391467e-004
4.595556e-004,1.748067e-004
3.444891e-004,1.200286e-004
2.106232e-004,8.437427e-005
6.606088e-005,6.914012e-005
-8.320128e-005,6.071273e-005
-2.235498e-004,4.337174e-005
-3.442885e-004,2.623614e-007
-4.376381e-004,-6.861539e-005
-5.023021e-004,-1.478653e-004
-5.416840e-004,-2.159328e-004
-5.543251e-004,-2.626076e-004
-5.345531e-004,-2.930758e-004
-4.776682e-004,-3.146305e-004
-3.917736e-004,-3.309991e-004
-2.911311e-004,-3.410472e-004
-1.974573e-004,-3.439643e-004
-1.318209e-004,-3.392644e-004
-1.026491e-004,-3.262992e-004
-1.078352e-004,-3.083100e-004
-1.329553e-004,-2.937241e-004
-1.545100e-004,-2.946965e-004
-1.498101e-004,-3.183580e-004
-1.133454e-004,-3.685983e-004
-5.565017e-005,-4.394208e-004
8.689758e-006,-5.155915e-004
6.557468e-005,-5.716661e-004
1.065772e-004,-5.873864e-004
1.323456e-004,-5.608077e-004
1.492004e-004,-5.044090e-004
1.600588e-004,-4.311555e-004
1.628139e-004,-3.510952e-004
1.645966e-004,-2.710350e-004
1.749688e-004,-1.959987e-004
1.981441e-004,-1.269589e-004
2.323399e-004,-6.586029e-005
2.765838e-004,-1.173047e-005
3.323342e-004,4.256141e-005
4.054258e-004,1.043083e-004
5.037994e-004,1.736723e-004
6.219451e-004,2.414156e-004
7.415494e-004,3.004074e-004
8.455954e-004,3.499994e-004
9.219283e-004,3.918123e-004
9.715204e-004,4.264942e-004
1.009444e-003,4.530729e-004
1.053525e-003,4.686312e-004
1.105062e-003,4.731691e-004
1.141689e-003,4.615004e-004
1.126779e-003,4.277907e-004
1.032133e-003,3.723644e-004
8.535367e-004,3.020280e-004
6.120591e-004,2.300710e-004
3.467581e-004,1.702689e-004
1.020394e-004,1.268354e-004
-8.757704e-005,9.652917e-005
-2.062088e-004,7.108491e-005
-2.574215e-004,4.418206e-005
-2.564491e-004,1.808955e-005
-2.233878e-004,-4.437533e-006
-1.767130e-004,-2.680255e-005
-1.381414e-004,-5.224680e-005
-1.235555e-004,-7.623246e-005
-1.350622e-004,-9.292520e-005
-1.686097e-004,-9.859748e-005
-2.201465e-004,-9.405965e-005
-2.877277e-004,-8.498399e-005
-3.690845e-004,-8.044617e-005
-4.564377e-004,-7.752899e-005
-5.306636e-004,-6.618442e-005
-5.692351e-004,-4.236082e-005
-5.593491e-004,-1.010982e-005
-5.089468e-004,2.278944e-005
-4.408794e-004,4.693717e-005
-3.786463e-004,5.374392e-005
-3.361852e-004,3.753739e-005
-3.152788e-004,-1.034161e-006
-3.120375e-004,-5.192267e-005
-3.180339e-004,-1.002181e-004
-3.251648e-004,-1.379794e-004
-3.219235e-004,-1.640719e-004
-2.987481e-004,-1.828714e-004
-2.504527e-004,-1.976194e-004
-1.831956e-004,-2.143121e-004
-1.067007e-004,-2.310048e-004
-3.717473e-005,-2.533699e-004
1.468618e-005,-2.882139e-004
3.753739e-005,-3.407231e-004
2.116879e-005,-4.073319e-004
-3.474375e-005,-4.784786e-004
-1.172350e-004,-5.465460e-004
-2.073433e-004,-6.000275e-004
-2.861070e-004,-6.262821e-004
-3.395886e-004,-6.134789e-004
-3.673017e-004,-5.588629e-004
-3.757291e-004,-4.749131e-004
-3.718396e-004,-3.788084e-004
-3.682741e-004,-2.875656e-004
-3.752429e-004,-2.133397e-004
-3.940425e-004,-1.559686e-004
-4.147869e-004,-1.044318e-004
-4.269418e-004,-4.592625e-005
-4.288866e-004,2.003433e-005
-4.259694e-004,8.534666e-005
-4.309934e-004,1.370455e-004
-4.512515e-004,1.654069e-004
-4.831784e-004,1.804790e-004
-5.100812e-004,2.060853e-004
-5.142950e-004,2.628082e-004
-4.872300e-004,3.506476e-004
-4.298589e-004,4.495075e-004
-3.553089e-004,5.263265e-004
-2.843243e-004,5.619809e-004
-2.360289e-004,5.694359e-004
-2.212809e-004,5.877494e-004
-2.381357e-004,6.470652e-004
-2.755728e-004,7.396046e-004
-3.131719e-004,8.211235e-004
-3.316474e-004,8.446231e-004
-3.194925e-004,7.947069e-004
-2.721694e-004,6.943883e-004
-1.951884e-004,5.819149e-004
-1.073490e-004,4.862963e-004
-3.279896e-005,4.211461e-004
1.322759e-005,3.803056e-004
3.251336e-005,3.530786e-004
3.089271e-005,3.308757e-004
6.744974e-006,3.077003e-004
-3.571614e-005,2.775562e-004
-8.206682e-005,2.383363e-004
-1.183694e-004,1.898788e-004
-1.340898e-004,1.420695e-004
-1.285796e-004,1.052807e-004
-1.036215e-004,9.101894e-005
-6.342931e-005,1.086841e-004
-1.682422e-006,1.524417e-004
8.696731e-005,2.078681e-004
2.059233e-004,2.551911e-004
3.556717e-004,2.829043e-004
5.217887e-004,2.866318e-004
6.856368e-004,2.666978e-004
8.287407e-004,2.284504e-004
9.391072e-004,1.783722e-004
1.010740e-003,1.265113e-004
1.045746e-003,8.032264e-005
1.055470e-003,4.985435e-005
1.054984e-003,4.353380e-005
1.044612e-003,6.087479e-005
1.019816e-003,9.231547e-005
9.810822e-004,1.231079e-004
9.353797e-004,1.404489e-004
8.796292e-004,1.396385e-004
8.049170e-004,1.227837e-004
6.992503e-004,9.037068e-005
5.580913e-004,4.645098e-005
3.961880e-004,-1.075808e-005
2.425500e-004,-8.449780e-005
1.197045e-004,-1.750923e-004
4.191315e-005,-2.859450e-004
2.207145e-006,-4.118697e-004
-1.805102e-005,-5.407116e-004
-4.236082e-005,-6.578848e-004
-8.271508e-005,-7.549619e-004
-1.365208e-004,-8.251361e-004
-1.856265e-004,-8.632215e-004
-2.057227e-004,-8.632215e-004
-1.874093e-004,-8.272430e-004
-1.386276e-004,-7.654962e-004
-7.347736e-005,-6.912703e-004
-2.816880e-006,-6.175305e-004
6.897806e-005,-5.510838e-004
1.341283e-004,-4.899852e-004
1.696206e-004,-4.356933e-004
1.513072e-004,-3.891806e-004
7.951231e-005,-3.504470e-004
-2.145439e-005,-3.141443e-004
-1.164247e-004,-2.703867e-004
-1.786577e-004,-2.130156e-004
-1.994021e-004,-1.347380e-004
-1.925954e-004,-3.814712e-005
-1.822232e-004,7.205730e-005
-1.912988e-004,1.846927e-004
-2.284118e-004,2.880904e-004
-2.895104e-004,3.710679e-004
-3.593606e-004,4.230909e-004
-4.272659e-004,4.349216e-004
-4.791268e-004,4.052637e-004
-5.003574e-004,3.425444e-004
-4.755614e-004,2.668598e-004
-3.984183e-004,1.960373e-004
-2.786520e-004,1.354248e-004
-1.402483e-004,8.453633e-005
-1.805102e-005,3.721326e-005
5.260946e-005,-8.002969e-006
5.925414e-005,-4.997789e-005
1.808955e-005,-8.628052e-005
-4.122636e-005,-1.054042e-004
-9.308726e-005,-9.859748e-005
-1.251762e-004,-6.407757e-005
-1.366828e-004,-8.651231e-006
-1.216107e-004,5.196120e-005
-7.817725e-005,9.993253e-005
-1.529591e-005,1.234320e-004
4.904402e-005,1.263492e-004
9.620504e-005,1.203528e-004
1.171115e-004,1.077117e-004
1.104668e-004,7.999851e-005
8.680524e-005,3.040651e-005
6.654708e-005,-3.441962e-005
6.119892e-005,-9.892161e-005
7.108491e-005,-1.514308e-004
8.761557e-005,-1.833576e-004
9.733949e-005,-1.948643e-004
9.296373e-005,-1.878955e-004
7.627100e-005,-1.637477e-004
5.455425e-005,-1.293899e-004
3.980630e-005,-9.762509e-005
4.239934e-005,-7.590833e-005
5.358185e-005,-6.278104e-005
5.828175e-005,-4.625038e-005
4.855783e-005,-1.772689e-005
2.441009e-005,1.889987e-005
-5.734056e-006,5.682316e-005
-3.004385e-005,9.263960e-005
-3.085418e-005,1.294284e-004
2.045080e-006,1.829100e-004
6.751948e-005,2.715597e-004
1.592484e-004,3.944053e-004
2.673460e-004,5.268127e-004
3.751195e-004,6.386379e-004
4.605280e-004,7.031399e-004
4.968306e-004,7.052467e-004
4.662003e-004,6.400964e-004
3.644232e-004,5.204921e-004
2.057612e-004,3.710679e-004
1.144487e-005,2.216436e-004
-1.914609e-004,9.004655e-005
-3.825359e-004,-1.691656e-005
-5.475183e-004,-1.042698e-004
-6.766844e-004,-1.744440e-004
-7.564205e-004,-2.261429e-004
-7.815406e-004,-2.541802e-004
-7.585274e-004,-2.491561e-004
-7.042355e-004,-2.062088e-004
-6.418404e-004,-1.345760e-004
-5.870623e-004,-6.245691e-005
-5.384427e-004,-1.853722e-005
-4.796130e-004,-1.059602e-005
-3.956632e-004,-2.761287e-005
-2.865932e-004,-5.516398e-005
-1.775233e-004,-8.579432e-005
-1.026491e-004,-1.209625e-004
-8.806324e-005,-1.653684e-004
-1.394379e-004,-2.152845e-004
-2.363530e-004,-2.593663e-004
-3.438023e-004,-2.861070e-004
-4.288866e-004,-2.896725e-004
-4.781544e-004,-2.723315e-004
-4.862577e-004,-2.394322e-004
-4.561135e-004,-2.031296e-004
-3.906392e-004,-1.760647e-004
-2.998826e-004,-1.632615e-004
-2.005366e-004,-1.592099e-004
-1.021629e-004,-1.559686e-004
-1.059602e-005,-1.535376e-004
7.238143e-005,-1.574272e-004
1.454729e-004,-1.750923e-004
2.107852e-004,-2.024813e-004
2.675081e-004,-2.276015e-004
3.140208e-004,-2.373254e-004
3.527545e-004,-2.241981e-004
3.817642e-004,-1.938919e-004
3.939191e-004,-1.585616e-004
3.867882e-004,-1.300382e-004
3.723644e-004,-1.165867e-004
3.820883e-004,-1.152902e-004
4.425387e-004,-1.151281e-004
5.495019e-004,-1.058904e-004
6.686199e-004,-8.271508e-005
7.609973e-004,-4.770897e-005
8.015137e-004,-7.192643e-006
7.832003e-004,2.959619e-005
7.178878e-004,5.050261e-005
6.268070e-004,5.017848e-005
5.224369e-004,3.056858e-005
4.094774e-004,-3.303076e-006
2.934386e-004,-4.187462e-005
1.882582e-004,-7.801519e-005
1.036600e-004,-1.071869e-004
4.547859e-005,-1.272830e-004
1.468618e-005,-1.305243e-004
3.017472e-006,-1.107524e-004
-2.654814e-006,-7.153257e-005
-7.354709e-006,-2.890940e-005
2.693341e-006,-7.100305e-007
4.337174e-005,9.500085e-006
1.145184e-004,1.047248e-005
1.919856e-004,1.760335e-005
2.490327e-004,4.450620e-005
2.696149e-004,9.328786e-005
2.496809e-004,1.511452e-004
1.916615e-004,1.999268e-004
1.163011e-004,2.239125e-004
4.418206e-005,2.106232e-004
-1.853722e-005,1.633001e-004
-8.060823e-005,9.717743e-005
-1.444620e-004,3.705119e-005
-2.000504e-004,9.500085e-006
-2.269532e-004,3.267542e-005
-2.141500e-004,1.062531e-004
-1.684476e-004,2.221298e-004
-1.084835e-004,3.584268e-004
-5.646050e-005,4.919686e-004
-2.356124e-005,6.021731e-004
-1.092015e-005,6.746164e-004
-1.886135e-005,6.982779e-004
-4.511593e-005,6.707268e-004
-8.109443e-005,5.963388e-004
-1.146419e-004,4.861343e-004
-1.316588e-004,3.584268e-004
-1.212866e-004,2.373639e-004
-8.919769e-005,1.435281e-004
-5.937768e-005,8.145709e-005
-5.386745e-005,4.434413e-005
-7.785312e-005,1.387585e-005
-1.224211e-004,-2.129233e-005
-1.702304e-004,-6.342931e-005
-2.062088e-004,-1.050801e-004
-2.276015e-004,-1.379794e-004
-2.452666e-004,-1.579134e-004
-2.695764e-004,-1.668270e-004
-3.032860e-004,-1.608306e-004
-3.402368e-004,-1.345760e-004
-3.707051e-004,-9.081835e-005
-3.909633e-004,-3.522994e-005
-3.977700e-004,1.889987e-005
-3.909633e-004,5.974033e-005
-3.734602e-004,7.886404e-005
-3.488263e-004,7.221937e-005
-3.164132e-004,4.061663e-005
-2.726556e-004,-7.192643e-006
-2.165810e-004,-5.516398e-005
-1.515928e-004,-8.952183e-005
-8.401160e-005,-1.031353e-004
-2.291298e-005,-9.405965e-005
1.857574e-005,-7.088431e-005
3.299956e-005,-4.219875e-005
1.857574e-005,-1.772689e-005
-2.015787e-005,2.623614e-007
-7.801519e-005,1.371378e-005
-1.436516e-004,3.105477e-005
-1.992400e-004,6.184718e-005
-2.314910e-004,1.083599e-004
-2.361909e-004,1.576278e-004
-2.139880e-004,1.900409e-004
-1.689338e-004,1.916615e-004
-1.096179e-004,1.581140e-004
-5.192267e-005,9.620504e-005
-1.140634e-005,1.841368e-005
6.582909e-006,-5.905355e-005
6.744974e-006,-1.250141e-004
7.069105e-006,-1.773612e-004
1.971020e-005,-2.225774e-004
5.066468e-005,-2.652006e-004
1.041462e-004,-3.073376e-004
1.850168e-004,-3.459091e-004
3.028383e-004,-3.770257e-004
4.582590e-004,-4.027940e-004
6.366931e-004,-4.284004e-004
8.112376e-004,-4.549791e-004
9.460760e-004,-4.742648e-004
1.013657e-003,-4.762096e-004
1.004744e-003,-4.546549e-004
9.323005e-004,-4.164075e-004
8.237166e-004,-3.788084e-004
7.159431e-004,-3.613053e-004
6.389620e-004,-3.703810e-004
6.012007e-004,-3.942046e-004
5.911527e-004,-4.141386e-004
5.880735e-004,-4.097628e-004
5.663567e-004,-3.630881e-004
5.060683e-004,-2.635799e-004
4.051016e-004,-1.083214e-004
2.735045e-004,9.101894e-005
1.328318e-004,3.067279e-004
4.476060e-006,5.013684e-004
-9.373552e-005,6.360448e-004
-1.562927e-004,6.922815e-004
-1.953505e-004,6.744543e-004
-2.285739e-004,6.063868e-004
-2.718453e-004,5.149820e-004
-3.373197e-004,4.282770e-004
-4.269418e-004,3.660439e-004
-5.309877e-004,3.396272e-004
-6.251476e-004,3.436788e-004
-6.888393e-004,3.650715e-004
-7.102319e-004,3.866261e-004
-6.925668e-004,3.927847e-004
-6.507540e-004,3.790091e-004
-6.013241e-004,3.498373e-004
-5.512458e-004,3.136967e-004
-4.993849e-004,2.799871e-004
-4.483344e-004,2.568118e-004
-3.976080e-004,2.422259e-004
-3.463953e-004,2.284504e-004
-2.942103e-004,1.958752e-004
-2.425115e-004,1.329939e-004
-1.987538e-004,3.867184e-005
-1.658546e-004,-7.882551e-005
-1.494860e-004,-2.073433e-004
-1.528894e-004,-3.344025e-004
-1.707166e-004,-4.446069e-004
-1.904885e-004,-5.167259e-004
-2.024813e-004,-5.382806e-004
-2.047502e-004,-5.100812e-004
-1.948643e-004,-4.434724e-004
-1.752544e-004,-3.553089e-004
-1.528894e-004,-2.616352e-004
-1.363587e-004,-1.731475e-004
-1.277692e-004,-1.003802e-004
-1.302002e-004,-4.770897e-005
-1.488377e-004,-1.464765e-005
-1.825473e-004,1.558884e-006
-2.224154e-004,-3.465141e-006
-2.639041e-004,-3.587821e-005
-3.102548e-004,-9.373552e-005
-3.591985e-004,-1.643960e-004
-4.008493e-004,-2.323013e-004
-4.267797e-004,-2.888622e-004
-4.275900e-004,-3.345645e-004
-3.942046e-004,-3.660052e-004
-3.203028e-004,-3.801049e-004
-2.149604e-004,-3.775118e-004
-9.503204e-005,-3.653570e-004
9.824215e-006,-3.528779e-004
7.708133e-005,-3.439643e-004
1.052807e-004,-3.381300e-004
1.210010e-004,-3.306750e-004
1.642725e-004,-3.131719e-004
2.632944e-004,-2.794623e-004
4.135290e-004,-2.264670e-004
5.751082e-004,-1.525652e-004
7.011951e-004,-4.365734e-005
7.671557e-004,1.195424e-004
7.639144e-004,3.311998e-004
7.055709e-004,5.590637e-004
6.251864e-004,7.631041e-004
5.499881e-004,9.050734e-004
4.896998e-004,9.538552e-004
4.428628e-004,9.049114e-004
3.989431e-004,7.791486e-004
3.396272e-004,6.131936e-004
2.550291e-004,4.486972e-004
1.644345e-004,3.248792e-004
1.072255e-004,2.694529e-004
1.117633e-004,2.914938e-004
1.746447e-004,3.736609e-004
2.610255e-004,4.817585e-004
3.219621e-004,5.746220e-004
3.183966e-004,6.208107e-004
2.464396e-004,6.068730e-004
1.404489e-004,5.402642e-004
4.774750e-005,4.449697e-004
-1.844488e-006,3.452995e-004
-3.141010e-006,2.660495e-004
3.170304e-005,2.203471e-004
8.469840e-005,2.080301e-004
1.398006e-004,2.190506e-004
1.882582e-004,2.406053e-004
2.239125e-004,2.619979e-004
2.410915e-004,2.720459e-004
2.456293e-004,2.610255e-004
2.422259e-004,2.276400e-004
2.312055e-004,1.751309e-004
2.030061e-004,1.086841e-004
1.543865e-004,3.753739e-005
8.648112e-005,-2.712668e-005
1.355172e-005,-7.671866e-005
-5.176061e-005,-1.091317e-004
-9.940781e-005,-1.295519e-004
-1.203142e-004,-1.483515e-004
-1.054042e-004,-1.788198e-004
-4.770897e-005,-2.235498e-004
5.504044e-005,-2.702246e-004
1.953890e-004,-3.063652e-004
3.438409e-004,-3.248407e-004
4.616624e-004,-3.321336e-004
5.154681e-004,-3.365093e-004
4.960203e-004,-3.415334e-004
4.216323e-004,-3.540124e-004
3.256896e-004,-3.805911e-004
2.339606e-004,-4.259694e-004
1.553589e-004,-4.914437e-004
8.907416e-005,-5.658317e-004
3.154097e-005,-6.314681e-004
-1.643037e-005,-6.726327e-004
-5.402952e-005,-6.844635e-004
-8.919769e-005,-6.703638e-004
-1.345760e-004,-6.381128e-004
-1.922712e-004,-5.974344e-004
-2.522354e-004,-5.557837e-004
-2.990722e-004,-5.073262e-004
-3.318095e-004,-4.413656e-004
-3.569296e-004,-3.553089e-004
-3.838324e-004,-2.582318e-004
-4.147869e-004,-1.728234e-004
-4.429862e-004,-1.188556e-004
-4.574101e-004,-1.054042e-004
-4.502792e-004,-1.259865e-004
-4.217557e-004,-1.648822e-004
-3.844807e-004,-2.003745e-004
-3.575778e-004,-2.186879e-004
-3.579019e-004,-2.139880e-004
-3.917736e-004,-1.848162e-004
-4.450931e-004,-1.353863e-004
-4.964678e-004,-7.574627e-005
-5.258016e-004,-1.643037e-005
-5.240189e-004,3.834771e-005
-4.935506e-004,9.263960e-005
-4.437966e-004,1.529279e-004
-3.867496e-004,2.182402e-004
-3.318095e-004,2.820940e-004
-2.883759e-004,3.324963e-004
-2.609869e-004,3.582647e-004
-2.485079e-004,3.508097e-004
-2.468872e-004,3.089969e-004
-2.530457e-004,2.383363e-004
-2.708729e-004,1.513072e-004
-3.011791e-004,5.925414e-005
-3.298647e-004,-2.242678e-005
-3.378059e-004,-8.482193e-005
-3.091203e-004,-1.227452e-004
-2.392702e-004,-1.342519e-004
-1.444620e-004,-1.152902e-004
-5.257093e-005,-6.278104e-005
9.338019e-006,1.484824e-005
2.003433e-005,1.002567e-004
-1.805102e-005,1.736723e-004
-7.736692e-005,2.174299e-004
-1.204763e-004,2.172679e-004
-1.271210e-004,1.709172e-004
-9.924574e-005,9.474644e-005
-6.229485e-005,1.468618e-005
-4.479180e-005,-5.208474e-005
-5.629844e-005,-1.016767e-004
-8.239095e-005,-1.402483e-004
-9.697683e-005,-1.742820e-004
-7.039812e-005,-2.065330e-004
3.341602e-006,-2.288980e-004
1.059290e-004,-2.347323e-004
2.098128e-004,-2.229016e-004
2.900352e-004,-1.966470e-004
3.380065e-004,-1.616409e-004
3.597233e-004,-1.269589e-004
3.666921e-004,-9.535618e-005
3.634508e-004,-6.197072e-005
3.503235e-004,-1.480971e-005
3.274723e-004,6.249545e-005
2.978143e-004,1.778860e-004
2.613496e-004,3.384927e-004
2.219677e-004,5.535535e-004
1.811273e-004,8.162616e-004
1.409351e-004,1.082859e-003
9.814982e-005,1.273611e-003
5.293359e-005,1.309103e-003
1.047248e-005,1.167296e-003
-1.821308e-005,8.938910e-004
-2.826114e-005,5.744600e-004
-2.518189e-005,2.890628e-004
-2.161646e-005,7.805372e-005
-3.069211e-005,-5.176061e-005
-5.305713e-005,-1.159385e-004
-8.174268e-005,-1.323071e-004
-1.063766e-004,-1.220970e-004
-1.173971e-004,-1.023250e-004
-1.050801e-004,-8.303922e-005
-6.440170e-005,-6.278104e-005
8.203562e-006,-3.749886e-005
1.081979e-004,-2.330684e-006
2.130541e-004,3.964424e-005
2.901973e-004,7.529860e-005
3.133726e-004,9.312580e-005
2.830664e-004,9.588091e-005
2.247229e-004,9.020862e-005
1.712413e-004,8.599492e-005
1.435281e-004,8.518459e-005
1.445005e-004,8.129502e-005
1.634622e-004,6.233338e-005
1.842065e-004,2.100672e-005
1.999268e-004,-3.798505e-005
2.054371e-004,-1.015147e-004
1.986303e-004,-1.561307e-004
1.782101e-004,-1.950263e-004
1.440143e-004,-2.183637e-004
9.863601e-005,-2.310048e-004
5.504044e-005,-2.371633e-004
2.894792e-005,-2.428356e-004
3.121684e-005,-2.514251e-004
6.006447e-005,-2.629317e-004
1.000946e-004,-2.731418e-004
1.367214e-004,-2.791382e-004
1.543865e-004,-2.789762e-004
1.441764e-004,-2.724935e-004
1.093323e-004,-2.643903e-004
6.525056e-005,-2.595283e-004
3.073064e-005,-2.609869e-004
1.663096e-005,-2.705488e-004
1.808955e-005,-2.903207e-004
2.311357e-005,-3.228959e-004
2.359977e-005,-3.613053e-004
1.938607e-005,-4.023079e-004
1.095867e-005,-4.405553e-004
-3.303076e-006,-4.672960e-004
-1.918548e-005,-4.750752e-004
-3.053005e-005,-4.554653e-004
-2.599222e-005,-3.998769e-004
2.531276e-006,-3.084721e-004
5.293359e-005,-1.911368e-004
1.101427e-004,-6.035007e-005
1.540623e-004,7.011252e-005
1.717275e-004,1.837203e-004
1.602208e-004,2.652392e-004
1.234320e-004,3.052694e-004
7.189524e-005,3.054314e-004
1.857574e-005,2.819319e-004
-2.275091e-005,2.525981e-004
-4.041603e-005,2.290986e-004
-3.166451e-005,2.161334e-004
2.207145e-006,2.166196e-004
4.580272e-005,2.268297e-004
8.291568e-005,2.425500e-004
1.004187e-004,2.598910e-004
8.340187e-005,2.736666e-004
2.700314e-005,2.829043e-004
-5.224680e-005,2.869559e-004
-1.214487e-004,2.856594e-004
-1.483515e-004,2.743149e-004
-1.212866e-004,2.513016e-004
-4.398147e-005,2.137024e-004
6.687121e-005,1.618415e-004
1.838824e-004,9.620504e-005
2.832284e-004,2.197911e-005
3.491891e-004,-5.662256e-005
3.804677e-004,-1.280934e-004
3.809539e-004,-1.794681e-004
3.589129e-004,-2.057227e-004
3.274723e-004,-2.112329e-004
2.986247e-004,-2.057227e-004
2.791768e-004,-1.940539e-004
2.691288e-004,-1.724993e-004
2.621599e-004,-1.310105e-004
2.649151e-004,-5.321920e-005
2.762596e-004,6.751948e-005
2.824181e-004,2.195368e-004
2.602152e-004,3.738230e-004
1.931201e-004,4.908342e-004
8.080883e-005,5.368608e-004
-5.694670e-005,4.982892e-004
-1.947022e-004,3.919743e-004
-3.172236e-004,2.514636e-004
-4.202971e-004,1.099806e-004
-5.066779e-004,-1.027188e-005
-5.692351e-004,-1.000561e-004
-5.967862e-004,-1.522411e-004
-5.909518e-004,-1.715269e-004
-5.651835e-004,-1.724993e-004
-5.343911e-004,-1.715269e-004
-5.070020e-004,-1.810887e-004
-4.870680e-004,-2.062088e-004
-4.705373e-004,-2.389460e-004
-4.471999e-004,-2.671454e-004
-4.097628e-004,-2.802727e-004
-3.591985e-004,-2.736280e-004
-2.972895e-004,-2.520733e-004
-2.295462e-004,-2.222533e-004
-1.614788e-004,-1.919471e-004
-1.018388e-004,-1.694200e-004
-6.148453e-005,-1.580754e-004
-4.252288e-005,-1.606685e-004
-3.474375e-005,-1.820611e-004
-3.555408e-005,-2.259808e-004
-4.430560e-005,-2.807589e-004
-6.910160e-005,-3.237062e-004
-1.152902e-004,-3.365093e-004
-1.797922e-004,-3.149546e-004
-2.502906e-004,-2.643903e-004
-3.115513e-004,-1.937298e-004
-3.507711e-004,-1.128592e-004
-3.553089e-004,-3.134038e-005
-3.245165e-004,3.883391e-005
-2.681178e-004,8.696731e-005
-2.011848e-004,1.106288e-004
-1.373311e-004,1.156529e-004
-8.190475e-005,1.180839e-004
-3.409549e-005,1.310491e-004
8.527692e-006,1.657311e-004
4.790957e-005,2.269918e-004
8.437427e-005,3.026763e-004
1.143563e-004,3.769022e-004
1.351007e-004,4.464283e-004
1.467694e-004,5.200059e-004
1.540623e-004,6.023352e-004
1.641104e-004,6.854748e-004
1.835583e-004,7.460872e-004
2.164575e-004,7.553250e-004
2.584324e-004,6.958470e-004
3.044590e-004,5.712186e-004
3.472443e-004,4.075326e-004
3.845193e-004,2.404432e-004
4.119083e-004,9.717743e-005
4.216323e-004,-7.354709e-006
4.018603e-004,-6.877746e-005
3.449753e-004,-9.486997e-005
2.527602e-004,-1.028112e-004
1.333180e-004,-1.123730e-004
-1.034161e-006,-1.305243e-004
-1.370070e-004,-1.540238e-004
-2.645523e-004,-1.733096e-004
-3.767015e-004,-1.802784e-004
-4.758855e-004,-1.689338e-004
-5.622663e-004,-1.324691e-004
-6.283889e-004,-6.116039e-005
-6.590193e-004,4.904402e-005
-6.423265e-004,1.830721e-004
-5.729626e-004,3.041349e-004
-4.549791e-004,3.700955e-004
-3.052308e-004,3.603715e-004
-1.447861e-004,2.850112e-004
1.014835e-005,1.746447e-004
1.445005e-004,6.298164e-005
2.454672e-004,-3.036798e-005
3.138588e-004,-9.892161e-005
3.582647e-004,-1.423551e-004
3.879227e-004,-1.677994e-004
4.015361e-004,-1.840059e-004
3.991052e-004,-1.992400e-004
3.835469e-004,-2.170672e-004
3.644232e-004,-2.373254e-004
3.436788e-004,-2.567732e-004
3.104554e-004,-2.705488e-004
2.560015e-004,-2.760590e-004
1.837203e-004,-2.711970e-004
1.005808e-004,-2.583939e-004
2.343770e-005,-2.429977e-004
-2.664048e-005,-2.326255e-004
-4.252288e-005,-2.363530e-004
-2.583016e-005,-2.564491e-004
1.387585e-005,-2.810830e-004
7.529860e-005,-2.982619e-004
1.539003e-004,-3.039342e-004
2.375260e-004,-3.031239e-004
3.138588e-004,-3.055549e-004
3.700955e-004,-3.170615e-004
3.950536e-004,-3.352128e-004
3.895433e-004,-3.551469e-004
3.650715e-004,-3.692465e-004
3.371962e-004,-3.708672e-004
3.119140e-004,-3.583881e-004
2.910076e-004,-3.369955e-004
2.704253e-004,-3.133340e-004
2.500050e-004,-2.925897e-004
2.367157e-004,-2.752487e-004
2.383363e-004,-2.564491e-004
2.513016e-004,-2.311669e-004
2.551911e-004,-1.930815e-004
2.308813e-004,-1.366828e-004
1.751309e-004,-6.099833e-005
9.863601e-005,2.586868e-005
1.501031e-005,1.119254e-004
-6.731888e-005,1.921477e-004
-1.455964e-004,2.632944e-004
-2.130156e-004,3.214759e-004
-2.596904e-004,3.606957e-004
-2.797865e-004,3.796573e-004
-2.671454e-004,3.833848e-004
-2.170672e-004,3.743092e-004
-1.365208e-004,3.587509e-004
-4.300908e-005,3.461098e-004
3.364782e-005,3.485408e-004
7.302970e-005,3.637749e-004
7.610894e-005,3.785229e-004
5.358185e-005,3.738230e-004
1.808955e-005,3.410858e-004
-2.550602e-005,2.880904e-004
-6.812920e-005,2.278021e-004
-1.018388e-004,1.707551e-004
-1.165867e-004,1.253768e-004
-1.135075e-004,9.977047e-005
-1.039456e-004,9.798775e-005
-9.827335e-005,1.179218e-004
-1.024871e-004,1.553589e-004
-1.122110e-004,1.952270e-004
-1.203142e-004,2.196988e-004
-1.290658e-004,2.213195e-004
-1.477033e-004,2.127300e-004
-1.759026e-004,2.109473e-004
-2.052365e-004,2.258573e-004
-2.300324e-004,2.585945e-004
-2.540181e-004,2.999212e-004
-2.823795e-004,3.344411e-004
-3.138202e-004,3.438409e-004
-3.481781e-004,3.133726e-004
-3.890185e-004,2.417397e-004
-4.463896e-004,1.404489e-004
-5.240189e-004,2.554455e-005
-6.034309e-004,-8.579432e-005
-6.608020e-004,-1.742820e-004
-6.768464e-004,-2.279256e-004
-6.428128e-004,-2.441321e-004
-5.619422e-004,-2.313290e-004
-4.455793e-004,-2.102605e-004
-3.133340e-004,-1.992400e-004
-1.901644e-004,-2.049123e-004
-9.389759e-005,-2.172293e-004
-3.636440e-005,-2.193361e-004
-1.853722e-005,-2.013469e-004
-3.312309e-005,-1.682856e-004
-6.294311e-005,-1.387897e-004
-8.790117e-005,-1.344139e-004
-8.336335e-005,-1.656925e-004
-3.749886e-005,-2.238740e-004
4.288554e-005,-2.878898e-004
1.415833e-004,-3.436402e-004
2.383363e-004,-3.869116e-004
3.240689e-004,-4.177041e-004
3.963501e-004,-4.376381e-004
4.535592e-004,-4.518998e-004
4.913204e-004,-4.582204e-004
5.008822e-004,-4.551412e-004
4.668485e-004,-4.444448e-004
3.811159e-004,-4.277521e-004
2.574601e-004,-4.042526e-004
1.201907e-004,-3.778360e-004
-3.951337e-006,-3.431540e-004
-9.843541e-005,-2.959930e-004
-1.593720e-004,-2.288980e-004
-1.880575e-004,-1.392759e-004
-1.864369e-004,-2.890940e-005
-1.566169e-004,9.669123e-005
-1.088076e-004,2.271538e-004
-5.937768e-005,3.512959e-004
-2.453363e-005,4.517764e-004
-2.307504e-005,5.097958e-004
-6.278104e-005,5.119027e-004
-1.272830e-004,4.660382e-004
-1.874093e-004,3.945674e-004
-2.133397e-004,3.289309e-004
-1.903264e-004,2.926282e-004
-1.219349e-004,2.958695e-004
-2.631635e-005,3.289309e-004
6.946425e-005,3.718782e-004
1.472556e-004,4.054258e-004
2.015475e-004,4.162841e-004
2.360674e-004,3.997535e-004
2.581083e-004,3.645853e-004
2.767458e-004,3.239069e-004
2.897111e-004,2.877662e-004
2.937627e-004,2.595669e-004
2.937627e-004,2.446569e-004
2.966799e-004,2.415777e-004
3.068900e-004,2.448189e-004
3.271482e-004,2.474120e-004
3.564820e-004,2.427121e-004
4.046154e-004,2.211574e-004
4.798138e-004,1.731861e-004
5.751082e-004,9.328786e-005
6.678096e-004,-1.335113e-005
7.290703e-004,-1.282554e-004
7.405770e-004,-2.220912e-004
7.083260e-004,-2.718453e-004
6.554927e-004,-2.775176e-004
6.047662e-004,-2.583939e-004
5.723531e-004,-2.321393e-004
5.608465e-004,-2.032917e-004
5.579292e-004,-1.699062e-004
5.413986e-004,-1.258245e-004
4.866205e-004,-7.218083e-005
3.806297e-004,-1.918548e-005
2.292607e-004,2.019640e-005
5.730935e-005,3.883391e-005
-9.940781e-005,4.223728e-005
-2.126914e-004,4.110282e-005
-2.689281e-004,4.483033e-005
-2.805968e-004,5.682316e-005
-2.844864e-004,7.481241e-005
-3.139823e-004,8.988449e-005
-3.836704e-004,9.442231e-005
-4.869059e-004,8.291568e-005
-5.984068e-004,5.844381e-005
-6.794395e-004,3.154097e-005
-6.984011e-004,1.484824e-005
-6.492953e-004,8.527692e-006
-5.531906e-004,4.800190e-006
-4.499550e-004,-1.520357e-006
-3.773498e-004,-1.059602e-005
-3.588744e-004,-2.226472e-005
-3.903150e-004,-3.976777e-005
-4.517378e-004,-6.456377e-005
-5.159156e-004,-9.324933e-005
-5.575664e-004,-1.258245e-004
-5.625904e-004,-1.673132e-004
-5.258016e-004,-2.113949e-004
-4.489826e-004,-2.472114e-004
-3.389403e-004,-2.642282e-004
-2.057227e-004,-2.583939e-004
-6.812920e-005,-2.280877e-004
5.941620e-005,-1.823853e-004
1.642725e-004,-1.412206e-004
2.425500e-004,-1.240417e-004
2.936006e-004,-1.392759e-004
3.198552e-004,-1.773612e-004
3.162898e-004,-2.159328e-004
2.738286e-004,-2.371633e-004
1.893926e-004,-2.378116e-004
8.129502e-005,-2.237119e-004
-2.339918e-005,-2.018331e-004
-1.011905e-004,-1.844921e-004
-1.509446e-004,-1.890299e-004
-1.823853e-004,-2.225774e-004
-2.029675e-004,-2.703867e-004
-2.136638e-004,-3.071755e-004
-2.099363e-004,-3.172236e-004
-1.831956e-004,-2.989102e-004
-1.225832e-004,-2.673075e-004
-2.793700e-005,-2.405667e-004
7.837785e-005,-2.298704e-004
1.624898e-004,-2.408908e-004
1.931201e-004,-2.690902e-004
1.626518e-004,-3.002067e-004
9.134307e-005,-3.180339e-004
1.257933e-005,-3.125237e-004
-4.689865e-005,-2.804347e-004
-7.201877e-005,-2.280877e-004
-6.229485e-005,-1.679614e-004
-3.036798e-005,-1.126972e-004
6.420843e-006,-6.991193e-005
3.462021e-005,-3.360929e-005
4.628891e-005,1.468618e-005
3.705119e-005,9.912221e-005
1.014835e-005,2.294227e-004
-2.129233e-005,3.986190e-004
-4.495386e-005,5.833735e-004
-5.791909e-005,7.436562e-004
-6.942573e-005,8.358715e-004
-8.952183e-005,8.405714e-004
-1.165867e-004,7.700729e-004
-1.455964e-004,6.640821e-004
-1.677994e-004,5.663567e-004
-1.637477e-004,5.094717e-004
-1.152902e-004,5.039615e-004
-2.048200e-005,5.420469e-004
1.015532e-004,6.039558e-004
2.221298e-004,6.707268e-004
3.099692e-004,7.287462e-004
3.443271e-004,7.705591e-004
3.323342e-004,7.932483e-004
2.976523e-004,7.916276e-004
2.657254e-004,7.629421e-004
2.483844e-004,6.989262e-004
2.464396e-004,5.981215e-004
2.414156e-004,4.686312e-004
2.075439e-004,3.250413e-004
1.276457e-004,1.842065e-004
4.638125e-006,5.925414e-005
-1.306864e-004,-4.203669e-005
-2.397564e-004,-1.123730e-004
-2.896725e-004,-1.520790e-004
-2.676316e-004,-1.707166e-004
-1.865989e-004,-1.810887e-004
-8.174268e-005,-1.961608e-004
4.313994e-006,-2.224154e-004
3.818565e-005,-2.626076e-004
1.355172e-005,-3.138202e-004
-4.252288e-005,-3.715154e-004
-9.308726e-005,-4.300210e-004
-1.165867e-004,-4.852853e-004
-1.159385e-004,-5.305015e-004
-1.063766e-004,-5.561078e-004
-1.054042e-004,-5.609698e-004
-1.199901e-004,-5.522182e-004
-1.408965e-004,-5.326084e-004
-1.470550e-004,-5.014918e-004
-1.259865e-004,-4.614617e-004
-8.401160e-005,-4.186764e-004
-3.879538e-005,-3.802670e-004
-7.030578e-006,-3.476919e-004
2.369211e-006,-3.168994e-004
-8.002969e-006,-2.830278e-004
-3.539201e-005,-2.420253e-004
-7.493595e-005,-1.971332e-004
-1.131834e-004,-1.483515e-004
-1.258245e-004,-9.438378e-005
-8.514606e-005,-3.360929e-005
2.554455e-005,3.024445e-005
2.067336e-004,8.405014e-005
4.350837e-004,1.093323e-004
6.720233e-004,9.507057e-005
8.801154e-004,4.726130e-005
1.028892e-003,-1.902341e-005
1.105386e-003,-8.757704e-005
1.116083e-003,-1.485136e-004
1.067787e-003,-1.906506e-004
9.733030e-004,-2.019951e-004
8.489988e-004,-1.849783e-004
7.084881e-004,-1.491618e-004
5.533914e-004,-1.110765e-004
3.905157e-004,-8.190475e-005
2.341226e-004,-6.229485e-005
9.879808e-005,-5.095028e-005
-6.868513e-006,-4.495386e-005
-8.093236e-005,-4.300908e-005
-1.285796e-004,-3.944364e-005
-1.582375e-004,-3.231277e-005
-1.737958e-004,-2.874733e-005
-1.809267e-004,-3.944364e-005
-1.891920e-004,-7.104638e-005
-2.136638e-004,-1.222590e-004
-2.655248e-004,-1.856265e-004
-3.452609e-004,-2.570974e-004
-4.379622e-004,-3.340784e-004
-5.112157e-004,-4.110594e-004
-5.314739e-004,-4.817198e-004
-4.933886e-004,-5.326084e-004
-4.180282e-004,-5.486528e-004
-3.303509e-004,-5.220741e-004
-2.485079e-004,-4.480103e-004
-1.833576e-004,-3.253268e-004
-1.457585e-004,-1.601823e-004
-1.399241e-004,3.769945e-005
-1.656925e-004,2.467637e-004
-2.162569e-004,4.345975e-004
-2.711970e-004,5.734875e-004
-3.031239e-004,6.577615e-004
-2.937241e-004,6.986021e-004
-2.434839e-004,7.164293e-004
-1.653684e-004,7.292324e-004
-9.017008e-005,7.384702e-004
-5.062615e-005,7.370116e-004
-6.035007e-005,7.156190e-004
-1.044318e-004,6.629477e-004
-1.515928e-004,5.744600e-004
-1.759026e-004,4.585832e-004
-1.703924e-004,3.349273e-004
-1.446240e-004,2.282883e-004
-1.190177e-004,1.581140e-004
-1.178833e-004,1.247285e-004
-1.541859e-004,1.159770e-004
-2.191741e-004,1.200286e-004
-2.951827e-004,1.245665e-004
-3.677880e-004,1.231079e-004
-4.348830e-004,1.153287e-004
-5.024642e-004,1.056048e-004
-5.796073e-004,9.361199e-005
-6.723086e-004,8.016057e-005
-7.753822e-004,6.395404e-005
-8.721352e-004,4.369587e-005
-9.405267e-004,1.582063e-005
-9.593263e-004,-1.902341e-005
-9.231857e-004,-5.889148e-005
-8.410186e-004,-9.568031e-005
-7.227109e-004,-1.225832e-004
-5.830107e-004,-1.344139e-004
-4.450931e-004,-1.319829e-004
-3.272716e-004,-1.217728e-004
-2.347323e-004,-1.081593e-004
-1.577513e-004,-9.794922e-005
-8.141856e-005,-9.292520e-005
6.582909e-006,-9.292520e-005
1.046324e-004,-9.519411e-005
1.970097e-004,-9.649064e-005
2.652392e-004,-9.162867e-005
3.030004e-004,-7.720486e-005
3.222862e-004,-4.965376e-005
3.472443e-004,-1.529591e-005
3.900295e-004,1.387585e-005
4.454559e-004,2.635488e-005
4.916445e-004,1.630683e-005
5.104441e-004,-1.626830e-005
4.984512e-004,-6.148453e-005
4.610142e-004,-1.091317e-004
4.091532e-004,-1.442999e-004
3.530786e-004,-1.616409e-004
3.062417e-004,-1.611547e-004
2.837146e-004,-1.465688e-004
2.934386e-004,-1.199901e-004
3.333067e-004,-8.741498e-005
3.906778e-004,-5.516398e-005
4.517764e-004,-2.842320e-005
5.010443e-004,-1.059602e-005
5.247059e-004,1.720949e-006
5.130371e-004,8.851824e-006
4.676588e-004,9.338019e-006
3.974845e-004,5.124321e-006
3.161277e-004,3.017472e-006
2.380122e-004,1.355172e-005
1.736723e-004,4.013043e-005
1.253768e-004,7.724339e-005
8.745350e-005,1.064152e-004
5.212327e-005,1.125736e-004
2.246531e-005,8.939829e-005
7.231170e-006,4.288554e-005
1.193106e-005,-1.124428e-005
3.899597e-005,-5.743289e-005
9.652917e-005,-8.563225e-005
1.864754e-004,-9.454585e-005
2.971661e-004,-8.611845e-005
4.063981e-004,-6.180866e-005
4.895377e-004,-2.372331e-005
5.345919e-004,1.971020e-005
5.452881e-004,5.504044e-005
5.329712e-004,7.140904e-005
5.031512e-004,7.124698e-005
4.511282e-004,6.670914e-005
3.734989e-004,6.606088e-005
2.712356e-004,7.481241e-005
1.539003e-004,8.939829e-005
3.218923e-005,1.012291e-004
-8.060823e-005,1.020394e-004
-1.690959e-004,9.490851e-005
-2.267911e-004,9.733949e-005
-2.541802e-004,1.278078e-004
-2.515871e-004,1.924718e-004
-2.204706e-004,2.830664e-004
-1.700683e-004,3.757678e-004
-1.138316e-004,4.417284e-004
-6.796714e-005,4.522626e-004
-4.576419e-005,3.931088e-004
-5.013995e-005,2.728562e-004
-7.120844e-005,1.247285e-004
-9.389759e-005,-1.189254e-005
-1.067007e-004,-1.125351e-004
-1.042698e-004,-1.728234e-004
-8.822530e-005,-2.002124e-004
-6.148453e-005,-2.104225e-004
-2.955766e-005,-2.169052e-004
-2.006553e-006,-2.263049e-004
8.203562e-006,-2.353806e-004
-8.489166e-006,-2.423494e-004
-4.787104e-005,-2.527216e-004
-1.000561e-004,-2.710350e-004
-1.569410e-004,-2.912931e-004
-2.063709e-004,-3.031239e-004
-2.305186e-004,-3.021515e-004
-2.214430e-004,-2.909690e-004
-1.872472e-004,-2.752487e-004
-1.462447e-004,-2.661730e-004
