3.098072e-004,1.927960e-004
3.472443e-004,1.133840e-004
3.940812e-004,4.175109e-005
4.555039e-004,7.069105e-006
5.289196e-004,2.035846e-005
6.146522e-004,6.946425e-005
7.060571e-004,1.263492e-004
7.890346e-004,1.671896e-004
8.481885e-004,1.809652e-004
8.729845e-004,1.709172e-004
8.606675e-004,1.503349e-004
8.193408e-004,1.297526e-004
7.637524e-004,1.094944e-004
7.033019e-004,8.323981e-005
6.391241e-004,4.029250e-005
5.623050e-004,-2.469570e-005
4.709002e-004,-1.021629e-004
3.649094e-004,-1.765509e-004
2.441707e-004,-2.298704e-004
1.133840e-004,-2.548284e-004
-2.453363e-005,-2.517492e-004
-1.658546e-004,-2.241981e-004
-3.037722e-004,-1.810887e-004
-4.233763e-004,-1.404103e-004
-5.107295e-004,-1.267968e-004
-5.582146e-004,-1.488377e-004
-5.703696e-004,-1.940539e-004
-5.601594e-004,-2.421874e-004
-5.411978e-004,-2.762210e-004
-5.144570e-004,-2.930758e-004
-4.713477e-004,-3.034480e-004
-4.091146e-004,-3.235441e-004
-3.371576e-004,-3.596847e-004
-2.711970e-004,-4.070078e-004
-2.216050e-004,-4.535205e-004
-1.880575e-004,-4.857715e-004
-1.660166e-004,-4.985746e-004
-1.464067e-004,-4.946851e-004
-1.217728e-004,-4.831784e-004
-8.368748e-005,-4.770200e-004
-3.279896e-005,-4.830164e-004
2.359977e-005,-4.972781e-004
7.238143e-005,-5.105674e-004
9.831188e-005,-5.138087e-004
9.053275e-005,-5.074882e-004
5.455425e-005,-4.907955e-004
6.258778e-006,-4.590307e-004
-4.592625e-005,-4.063595e-004
-1.034594e-004,-3.275957e-004
-1.718510e-004,-2.269532e-004
-2.511010e-004,-1.096179e-004
-3.309991e-004,1.419998e-005
-4.027940e-004,1.300767e-004
-4.595169e-004,2.226160e-004
-5.003574e-004,2.880904e-004
-5.227224e-004,3.315239e-004
-5.238568e-004,3.598854e-004
-4.995471e-004,3.770643e-004
-4.425001e-004,3.914881e-004
-3.527159e-004,4.136911e-004
-2.365151e-004,4.477248e-004
-1.091317e-004,4.780310e-004
8.365628e-006,4.840274e-004
1.033359e-004,4.585832e-004
1.660552e-004,4.051016e-004
1.889064e-004,3.357376e-004
1.658931e-004,2.618358e-004
1.023635e-004,1.934442e-004
1.938607e-005,1.323456e-004
-5.953974e-005,7.562274e-005
-1.206384e-004,1.695509e-005
-1.585616e-004,-4.317115e-005
-1.746061e-004,-9.681477e-005
-1.699062e-004,-1.313347e-004
-1.455964e-004,-1.423551e-004
-1.078352e-004,-1.332795e-004
-6.764301e-005,-1.122110e-004
-3.150244e-005,-8.773911e-005
8.041497e-006,-6.472583e-005
5.925414e-005,-4.187462e-005
1.197045e-004,-1.464765e-005
1.748067e-004,1.954813e-005
2.112714e-004,6.379197e-005
2.235884e-004,1.180839e-004
2.169437e-004,1.782101e-004
2.018716e-004,2.372019e-004
1.893926e-004,2.882525e-004
1.804790e-004,3.307136e-004
1.723757e-004,3.653956e-004
1.645966e-004,3.867882e-004
1.645966e-004,3.892192e-004
1.812893e-004,3.618301e-004
2.164575e-004,2.995970e-004
2.631324e-004,2.188885e-004
3.271482e-004,1.482280e-004
4.188772e-004,1.146805e-004
5.266506e-004,1.308870e-004
6.211348e-004,1.850168e-004
6.835299e-004,2.509774e-004
7.042743e-004,3.007315e-004
6.820714e-004,3.196932e-004
6.253485e-004,3.052694e-004
5.631154e-004,2.652392e-004
5.289196e-004,2.133783e-004
5.315126e-004,1.550348e-004
5.480433e-004,9.150514e-005
5.483674e-004,2.716521e-005
5.200059e-004,-3.798505e-005
4.674968e-004,-1.058904e-004
4.018603e-004,-1.778474e-004
3.337929e-004,-2.507768e-004
2.773941e-004,-3.133340e-004
2.399570e-004,-3.569296e-004
2.182402e-004,-3.831841e-004
1.958752e-004,-3.961493e-004
1.561692e-004,-3.950149e-004
8.680524e-005,-3.729740e-004
-7.678839e-006,-3.253268e-004
-1.076731e-004,-2.627696e-004
-1.942160e-004,-1.935677e-004
-2.572594e-004,-1.123730e-004
-2.916173e-004,-1.043395e-005
-3.016653e-004,1.164632e-004
-3.083100e-004,2.626462e-004
-3.316474e-004,4.169324e-004
-3.841565e-004,5.504743e-004
-4.624341e-004,6.334517e-004
-5.509217e-004,6.504686e-004
-6.308199e-004,6.151384e-004
-6.915944e-004,5.611706e-004
-7.296797e-004,5.157923e-004
-7.368106e-004,4.775448e-004
-6.966184e-004,4.289252e-004
-6.155858e-004,3.543751e-004
-5.369841e-004,2.527602e-004
-5.248293e-004,1.380179e-004
-6.287131e-004,2.878586e-005
-8.434496e-004,-5.905355e-005
-1.108588e-003,-1.217728e-004
-1.345690e-003,-1.634236e-004
-1.496087e-003,-1.904885e-004
-1.549244e-003,-2.042641e-004
-1.528824e-003,-2.130156e-004
-1.463998e-003,-2.222533e-004
-1.370324e-003,-2.352185e-004
-1.251206e-003,-2.536940e-004
-1.108426e-003,-2.773555e-004
-9.445783e-004,-3.015032e-004
-7.641996e-004,-3.246786e-004
-5.739350e-004,-3.527159e-004
-3.888564e-004,-3.909633e-004
-2.370013e-004,-4.410415e-004
-1.438137e-004,-4.943609e-004
-1.141558e-004,-5.369841e-004
-1.259865e-004,-5.567560e-004
-1.467309e-004,-5.540010e-004
-1.514308e-004,-5.395772e-004
-1.272830e-004,-5.394151e-004
-6.893953e-005,-5.698834e-004
3.154097e-005,-6.197995e-004
1.765894e-004,-6.596675e-004
3.653956e-004,-6.659881e-004
5.856425e-004,-6.389232e-004
8.243649e-004,-5.904656e-004
1.073460e-003,-5.311498e-004
1.325310e-003,-4.651892e-004
1.561439e-003,-3.942046e-004
1.758835e-003,-3.203028e-004
1.889784e-003,-2.397564e-004
1.939539e-003,-1.467309e-004
1.912474e-003,-3.992984e-005
1.823013e-003,7.157111e-005
1.693037e-003,1.733481e-004
1.546529e-003,2.615117e-004
1.408935e-003,3.435168e-004
1.297272e-003,4.297355e-004
1.215105e-003,5.253541e-004
1.141689e-003,6.174073e-004
1.041371e-003,6.806127e-004
8.780085e-004,6.859610e-004
6.507927e-004,6.234037e-004
3.931088e-004,5.107683e-004
1.488763e-004,3.837090e-004
-4.803310e-005,2.773941e-004
-1.827094e-004,2.109473e-004
-2.585559e-004,1.846927e-004
-2.945344e-004,1.837203e-004
-3.141443e-004,1.911753e-004
-3.403989e-004,2.017096e-004
-3.848048e-004,2.182402e-004
-4.342347e-004,2.435224e-004
-4.679443e-004,2.780424e-004
-4.715097e-004,3.143450e-004
-4.434724e-004,3.386548e-004
-3.925839e-004,3.370341e-004
-3.394265e-004,3.000832e-004
-3.049066e-004,2.310434e-004
-3.003688e-004,1.427178e-004
-3.250027e-004,5.747142e-005
-3.663294e-004,-1.059602e-005
-4.034423e-004,-6.602235e-005
-4.272659e-004,-1.152902e-004
-4.483344e-004,-1.558065e-004
-4.867439e-004,-1.812508e-004
-5.505976e-004,-1.890299e-004
-6.290372e-004,-1.784957e-004
-7.063423e-004,-1.548341e-004
-7.680892e-004,-1.235555e-004
-8.076332e-004,-8.709085e-005
-8.186536e-004,-4.527799e-005
-7.998540e-004,4.244267e-007
-7.596618e-004,3.996837e-005
-7.099077e-004,5.990240e-005
-6.564262e-004,4.742337e-005
-5.966241e-004,-1.034161e-006
-5.238568e-004,-7.833932e-005
-4.285624e-004,-1.707166e-004
-3.086341e-004,-2.590421e-004
-1.731475e-004,-3.228959e-004
-3.263690e-005,-3.523917e-004
9.879808e-005,-3.497987e-004
2.127300e-004,-3.253268e-004
3.018659e-004,-2.964792e-004
3.636129e-004,-2.827037e-004
4.070464e-004,-2.865932e-004
4.464283e-004,-2.930758e-004
4.958582e-004,-2.857829e-004
5.579292e-004,-2.572594e-004
6.266450e-004,-2.141500e-004
6.964952e-004,-1.707166e-004
7.634282e-004,-1.402483e-004
8.227442e-004,-1.316588e-004
8.637467e-004,-1.455964e-004
8.768741e-004,-1.733096e-004
8.626123e-004,-2.010227e-004
8.251752e-004,-2.191741e-004
7.739625e-004,-2.229016e-004
7.251808e-004,-2.076674e-004
6.950366e-004,-1.726613e-004
6.913091e-004,-1.167488e-004
7.016813e-004,-4.495386e-005
7.086502e-004,3.607880e-005
6.984400e-004,1.245665e-004
6.566271e-004,2.205092e-004
5.678153e-004,3.156415e-004
4.333010e-004,3.888950e-004
2.686426e-004,4.138531e-004
9.652917e-005,3.759298e-004
-6.440170e-005,2.767458e-004
-1.985918e-004,1.368834e-004
-2.993964e-004,-1.513384e-005
-3.575778e-004,-1.491618e-004
-3.700569e-004,-2.395943e-004
-3.444506e-004,-2.729798e-004
-2.934000e-004,-2.459149e-004
-2.233878e-004,-1.697442e-004
-1.451102e-004,-6.618442e-005
-8.222889e-005,4.223728e-005
-6.213279e-005,1.365593e-004
-1.047560e-004,2.039785e-004
-2.107467e-004,2.367157e-004
-3.514194e-004,2.375260e-004
-4.846370e-004,2.149989e-004
-5.791211e-004,1.773998e-004
-6.199615e-004,1.357490e-004
-6.186650e-004,1.059290e-004
-6.011620e-004,9.669123e-005
-5.912760e-004,1.072255e-004
-5.922483e-004,1.318594e-004
-5.893312e-004,1.684862e-004
-5.663179e-004,2.080301e-004
-5.219121e-004,2.422259e-004
-4.728062e-004,2.694529e-004
-4.434724e-004,2.947351e-004
-4.480103e-004,3.190449e-004
-4.791268e-004,3.452995e-004
-5.151053e-004,3.770643e-004
-5.352014e-004,4.161220e-004
-5.345531e-004,4.593935e-004
-5.283947e-004,4.887274e-004
-5.314739e-004,4.838654e-004
-5.399013e-004,4.350837e-004
-5.295291e-004,3.579406e-004
-4.760476e-004,2.814457e-004
-3.749188e-004,2.292607e-004
-2.473734e-004,2.060853e-004
-1.334415e-004,2.055991e-004
-7.493595e-005,2.151610e-004
-9.276313e-005,2.209954e-004
-1.755785e-004,2.166196e-004
-2.778417e-004,1.997648e-004
-3.442885e-004,1.704310e-004
-3.389403e-004,1.310491e-004
-2.587180e-004,7.918817e-005
-1.259865e-004,1.274139e-005
3.380988e-005,-7.104638e-005
1.984683e-004,-1.674752e-004
3.467581e-004,-2.598524e-004
4.558281e-004,-3.264613e-004
5.062304e-004,-3.530400e-004
4.900239e-004,-3.421817e-004
4.146635e-004,-3.000446e-004
3.008936e-004,-2.290601e-004
1.748067e-004,-1.405724e-004
5.649903e-005,-6.715681e-005
-4.365734e-005,-3.749886e-005
-1.173971e-004,-6.229485e-005
-1.684476e-004,-1.368449e-004
-2.011848e-004,-2.494803e-004
-2.173914e-004,-3.797808e-004
-2.149604e-004,-5.019780e-004
-1.964849e-004,-5.972724e-004
-1.708786e-004,-6.617744e-004
-1.415448e-004,-6.967805e-004
-1.115627e-004,-7.078009e-004
-8.822530e-005,-6.951598e-004
-7.785312e-005,-6.629088e-004
-8.352541e-005,-6.094273e-004
-1.036215e-004,-5.215878e-004
-1.266348e-004,-3.823738e-004
-1.402483e-004,-1.828714e-004
-1.370070e-004,5.763349e-005
-1.126972e-004,2.948972e-004
-6.991193e-005,4.832171e-004
-1.027188e-005,5.908285e-004
6.703327e-005,6.026593e-004
1.637863e-004,5.245438e-004
2.793389e-004,3.828986e-004
4.187151e-004,2.166196e-004
5.838597e-004,7.108491e-005
7.611593e-004,-4.761664e-006
9.311661e-004,2.408596e-005
1.066491e-003,1.628139e-004
1.141689e-003,3.884089e-004
1.136827e-003,6.550064e-004
1.048339e-003,9.100975e-004
9.018321e-004,1.107979e-003
7.313393e-004,1.216239e-003
5.658705e-004,1.220939e-003
4.187151e-004,1.128724e-003
2.966799e-004,9.617964e-004
2.051129e-004,7.540284e-004
1.441764e-004,5.397780e-004
1.070634e-004,3.433547e-004
8.486046e-005,1.838824e-004
7.529860e-005,8.145709e-005
7.935024e-005,4.677511e-005
1.004187e-004,6.444023e-005
1.318594e-004,1.067393e-004
1.641104e-004,1.446626e-004
1.799928e-004,1.597346e-004
1.605450e-004,1.498487e-004
8.972242e-005,1.265113e-004
-3.215070e-005,1.111150e-004
-1.856265e-004,1.099806e-004
-3.399127e-004,1.125736e-004
-4.655133e-004,1.010670e-004
-5.437909e-004,5.601284e-005
-5.702075e-004,-3.409549e-005
-5.543251e-004,-1.619650e-004
-5.172121e-004,-3.040963e-004
-4.766958e-004,-4.348830e-004
-4.439586e-004,-5.361738e-004
-4.091146e-004,-6.035930e-004
-3.533641e-004,-6.408680e-004
-2.595283e-004,-6.539953e-004
-1.336036e-004,-6.512401e-004
1.002961e-007,-6.384369e-004
1.081979e-004,-6.176926e-004
1.657311e-004,-5.951655e-004
1.629760e-004,-5.813900e-004
1.101427e-004,-5.846313e-004
2.327564e-005,-6.027826e-004
-8.093236e-005,-6.282268e-004
-1.825473e-004,-6.489712e-004
-2.632558e-004,-6.543194e-004
-3.097686e-004,-6.377887e-004
-3.149546e-004,-5.993792e-004
-2.736280e-004,-5.423322e-004
-1.862748e-004,-4.713477e-004
-7.688073e-005,-3.906392e-004
1.760335e-005,-3.032860e-004
7.124698e-005,-2.177155e-004
9.426025e-005,-1.493239e-004
1.193804e-004,-1.152902e-004
1.859892e-004,-1.272830e-004
3.171001e-004,-1.843300e-004
4.981271e-004,-2.737901e-004
6.866092e-004,-3.713534e-004
8.374922e-004,-4.520619e-004
9.198214e-004,-4.982505e-004
9.194973e-004,-5.006815e-004
8.387887e-004,-4.634065e-004
6.982779e-004,-3.984183e-004
5.334574e-004,-3.186821e-004
3.785229e-004,-2.300324e-004
2.563256e-004,-1.329553e-004
1.675138e-004,-3.393342e-005
1.002567e-004,5.147500e-005
4.709924e-005,1.106288e-004
-6.176923e-008,1.453108e-004
-4.884343e-005,1.684862e-004
-1.007043e-004,1.963614e-004
-1.475412e-004,2.378501e-004
-1.784957e-004,2.900352e-004
-1.854645e-004,3.341170e-004
-1.684476e-004,3.535648e-004
-1.384655e-004,3.449753e-004
-1.065387e-004,3.179104e-004
-8.077030e-005,2.918179e-004
-7.137051e-005,2.843629e-004
-8.271508e-005,3.023522e-004
-1.084835e-004,3.381686e-004
-1.355484e-004,3.689610e-004
-1.574272e-004,3.744712e-004
-1.755785e-004,3.483787e-004
-1.924333e-004,3.055935e-004
-2.113949e-004,2.688046e-004
-2.368392e-004,2.478982e-004
-2.639041e-004,2.368777e-004
-2.883759e-004,2.171058e-004
-3.117133e-004,1.739964e-004
-3.412093e-004,1.064152e-004
-3.826980e-004,2.700314e-005
-4.348830e-004,-4.074016e-005
-4.817198e-004,-7.234290e-005
-4.972781e-004,-5.581224e-005
-4.634065e-004,4.313994e-006
-3.856151e-004,9.199134e-005
-2.958309e-004,1.859892e-004
-2.360289e-004,2.619979e-004
-2.357047e-004,3.077003e-004
-2.984240e-004,3.185587e-004
-4.125180e-004,2.952213e-004
-5.552975e-004,2.397949e-004
-6.909461e-004,1.633001e-004
-7.880232e-004,8.194328e-005
-8.301602e-004,9.013889e-006
-8.171950e-004,-4.738484e-005
-7.609584e-004,-8.401160e-005
-6.773326e-004,-1.055663e-004
-5.724764e-004,-1.191798e-004
-4.379622e-004,-1.279313e-004
-2.663351e-004,-1.327933e-004
-6.683268e-005,-1.313347e-004
1.352628e-004,-1.201522e-004
3.171001e-004,-1.013526e-004
4.715484e-004,-7.833932e-005
5.974732e-004,-5.159854e-005
6.929298e-004,-1.432352e-005
7.522457e-004,3.559260e-005
7.707212e-004,8.356394e-005
7.551629e-004,1.069013e-004
7.193465e-004,9.701536e-005
6.859610e-004,7.092284e-005
6.669993e-004,5.714729e-005
6.580857e-004,8.259155e-005
6.483617e-004,1.607070e-004
6.268070e-004,2.798251e-004
5.879114e-004,4.055878e-004
5.319988e-004,4.921307e-004
4.602039e-004,5.078511e-004
3.798194e-004,4.436732e-004
2.947351e-004,3.161277e-004
1.986303e-004,1.563313e-004
8.437427e-005,-2.330684e-006
-4.090223e-005,-1.332795e-004
-1.587237e-004,-2.222533e-004
-2.488320e-004,-2.702246e-004
-3.006929e-004,-2.921034e-004
-3.168994e-004,-3.008550e-004
-3.087962e-004,-2.968033e-004
-2.804347e-004,-2.741142e-004
-2.297083e-004,-2.332737e-004
-1.592099e-004,-1.807646e-004
-7.590833e-005,-1.256624e-004
1.306552e-005,-8.320128e-005
1.022015e-004,-7.250496e-005
1.808031e-004,-9.405965e-005
2.402811e-004,-1.292278e-004
2.733424e-004,-1.548341e-004
2.762596e-004,-1.562927e-004
2.545429e-004,-1.295519e-004
2.216436e-004,-7.769106e-005
1.929580e-004,-8.489166e-006
1.660552e-004,7.367795e-005
1.222976e-004,1.650828e-004
4.709924e-005,2.600531e-004
-6.035007e-005,3.461098e-004
-1.904885e-004,4.140152e-004
-3.272716e-004,4.600418e-004
-4.470379e-004,4.846757e-004
-5.301774e-004,4.931031e-004
-5.731247e-004,4.958582e-004
-5.830107e-004,4.995857e-004
-5.729626e-004,5.012064e-004
-5.593491e-004,4.932652e-004
-5.538389e-004,4.671726e-004
-5.599973e-004,4.162841e-004
-5.765280e-004,3.388169e-004
-6.040792e-004,2.393087e-004
-6.374646e-004,1.308870e-004
-6.606399e-004,2.586868e-005
-6.522125e-004,-6.229485e-005
-5.914380e-004,-1.157764e-004
-4.745890e-004,-1.245279e-004
-3.151167e-004,-9.649064e-005
-1.339277e-004,-4.851930e-005
5.066468e-005,1.234753e-006
2.213195e-004,4.110282e-005
3.608578e-004,6.508849e-005
4.546936e-004,7.189524e-005
5.042856e-004,6.087479e-005
5.263265e-004,3.202716e-005
5.344298e-004,-1.999580e-005
5.224369e-004,-9.146661e-005
4.798138e-004,-1.697442e-004
4.059119e-004,-2.357047e-004
3.143450e-004,-2.768693e-004
2.243987e-004,-2.893484e-004
1.571416e-004,-2.840002e-004
1.255389e-004,-2.689281e-004
1.271595e-004,-2.473734e-004
1.475797e-004,-2.149604e-004
1.654069e-004,-1.728234e-004
1.568175e-004,-1.276072e-004
1.172735e-004,-8.773911e-005
5.941620e-005,-5.824322e-005
5.610517e-006,-3.360929e-005
-1.999580e-005,-9.461558e-006
-3.789272e-006,1.176900e-005
5.568870e-005,1.565857e-005
1.550348e-004,-1.092015e-005
2.874421e-004,-8.077030e-005
4.339493e-004,-1.968091e-004
5.702463e-004,-3.470436e-004
6.763991e-004,-5.066779e-004
7.441425e-004,-6.410300e-004
7.744487e-004,-7.194696e-004
7.668316e-004,-7.363244e-004
7.047605e-004,-7.073147e-004
5.777013e-004,-6.501057e-004
4.039671e-004,-5.726385e-004
2.308813e-004,-4.766958e-004
1.047945e-004,-3.703810e-004
3.948217e-005,-2.653627e-004
1.906194e-005,-1.682856e-004
8.041497e-006,-8.887356e-005
-2.372331e-005,-3.458168e-005
-8.271508e-005,-4.275467e-006
-1.551583e-004,1.095867e-005
-2.141500e-004,2.327564e-005
-2.344082e-004,4.126489e-005
-2.094502e-004,7.076078e-005
-1.549962e-004,1.140322e-004
-9.681477e-005,1.709172e-004
-6.537409e-005,2.310434e-004
-7.444975e-005,2.678322e-004
-1.209625e-004,2.529222e-004
-1.942160e-004,1.770756e-004
-2.823795e-004,5.682316e-005
-3.598467e-004,-7.315322e-005
-4.016596e-004,-1.802784e-004
-4.005251e-004,-2.381357e-004
-3.629260e-004,-2.462390e-004
-2.990722e-004,-2.224154e-004
-2.319772e-004,-1.843300e-004
-1.864369e-004,-1.389517e-004
-1.700683e-004,-7.995997e-005
-1.697442e-004,9.106227e-007
-1.673132e-004,1.065772e-004
-1.475412e-004,2.260194e-004
-9.973194e-005,3.386548e-004
-1.675450e-005,4.172565e-004
9.344993e-005,4.451317e-004
2.054371e-004,4.266563e-004
2.895490e-004,3.807918e-004
3.282826e-004,3.299033e-004
3.169380e-004,2.889007e-004
2.647530e-004,2.598910e-004
1.921477e-004,2.337985e-004
1.180839e-004,1.927960e-004
5.520250e-005,1.329939e-004
7.231170e-006,5.666109e-005
-2.842320e-005,-2.890940e-005
-5.581224e-005,-1.118868e-004
-7.169464e-005,-1.835197e-004
-7.153257e-005,-2.394322e-004
-5.419158e-005,-2.763831e-004
-2.858527e-005,-2.841623e-004
-6.706447e-006,-2.590421e-004
4.244267e-007,-2.094502e-004
-1.010982e-005,-1.501342e-004
-3.506788e-005,-9.049421e-005
-6.991193e-005,-2.826114e-005
-1.125351e-004,4.920609e-005
-1.624512e-004,1.645966e-004
-2.167431e-004,3.258516e-004
-2.721694e-004,5.209784e-004
-3.274337e-004,7.180499e-004
-3.844807e-004,8.736328e-004
-4.476861e-004,9.468864e-004
-5.157535e-004,9.167422e-004
-5.807417e-004,7.901691e-004
-6.441093e-004,5.979594e-004
-7.137973e-004,3.793332e-004
-7.886715e-004,1.717275e-004
-8.505805e-004,-1.034161e-006
-8.771592e-004,-1.383035e-004
-8.593319e-004,-2.619593e-004
-8.001782e-004,-3.945287e-004
-7.050458e-004,-5.382806e-004
-5.880346e-004,-6.739292e-004
-4.705373e-004,-7.724650e-004
-3.700569e-004,-8.120089e-004
-2.891863e-004,-7.826751e-004
-2.251705e-004,-6.911082e-004
-1.650443e-004,-5.533527e-004
-8.968389e-005,-3.891806e-004
1.112074e-005,-2.170672e-004
1.325077e-004,-5.095028e-005
2.561635e-004,1.023635e-004
3.602095e-004,2.449810e-004
4.203358e-004,3.801436e-004
4.221185e-004,5.037994e-004
3.675024e-004,5.990939e-004
2.780424e-004,6.475514e-004
1.931201e-004,6.402585e-004
1.482280e-004,5.895320e-004
1.553589e-004,5.216266e-004
2.075439e-004,4.600418e-004
2.879283e-004,4.125566e-004
3.835469e-004,3.715541e-004
4.885653e-004,3.289309e-004
5.952043e-004,2.814457e-004
7.028158e-004,2.347709e-004
8.021619e-004,1.916615e-004
8.739569e-004,1.470936e-004
9.041011e-004,9.847395e-005
8.802774e-004,5.212327e-005
7.976240e-004,1.095867e-005
6.624615e-004,-2.550602e-005
5.015305e-004,-6.375344e-005
3.537269e-004,-1.015147e-004
2.464396e-004,-1.292278e-004
1.820997e-004,-1.396000e-004
1.457970e-004,-1.350622e-004
1.227837e-004,-1.279313e-004
1.010670e-004,-1.355484e-004
7.546067e-005,-1.801163e-004
4.304761e-005,-2.776796e-004
1.063454e-005,-4.285624e-004
-1.027188e-005,-6.147755e-004
-1.626830e-005,-8.027712e-004
-6.382317e-006,-9.512230e-004
1.663096e-005,-1.022208e-003
4.645098e-005,-1.000977e-003
6.946425e-005,-9.024413e-004
6.865393e-005,-7.552860e-004
2.992031e-005,-5.992171e-004
-4.317115e-005,-4.663236e-004
-1.297140e-004,-3.702189e-004
-2.011848e-004,-3.044204e-004
-2.397564e-004,-2.530457e-004
-2.441321e-004,-2.097743e-004
-2.233878e-004,-1.812508e-004
-1.844921e-004,-1.660166e-004
-1.413827e-004,-1.580754e-004
-1.029732e-004,-1.470550e-004
-7.007399e-005,-1.336036e-004
-3.668853e-005,-1.237176e-004
-8.720959e-007,-1.232314e-004
3.753739e-005,-1.303623e-004
8.599492e-005,-1.297140e-004
1.566554e-004,-1.083214e-004
2.542187e-004,-6.197072e-005
3.775505e-004,9.662150e-006
5.187094e-004,1.018773e-004
6.624615e-004,2.039785e-004
7.841726e-004,2.942489e-004
8.558056e-004,3.501615e-004
8.624502e-004,3.597233e-004
8.029722e-004,3.271482e-004
6.843403e-004,2.793389e-004
5.140096e-004,2.537325e-004
3.081865e-004,2.931144e-004
9.652917e-005,4.240633e-004
-9.324933e-005,6.324793e-004
-2.386219e-004,8.665019e-004
-3.395886e-004,1.055308e-003
-4.141386e-004,1.144930e-003
-4.830164e-004,1.110572e-003
-5.536768e-004,9.687652e-004
-6.193133e-004,7.676419e-004
-6.713362e-004,5.569569e-004
-7.060182e-004,3.556717e-004
-7.214144e-004,1.649207e-004
-7.131490e-004,-1.610624e-005
-6.786292e-004,-1.849783e-004
-6.162340e-004,-3.340784e-004
-5.287188e-004,-4.460655e-004
-4.240246e-004,-4.950092e-004
-3.118754e-004,-4.585445e-004
-2.107467e-004,-3.368335e-004
-1.305243e-004,-1.650443e-004
-7.218083e-005,7.231170e-006
-3.279896e-005,1.367214e-004
-1.221667e-005,2.007372e-004
-1.821308e-005,1.992786e-004
-5.743289e-005,1.410971e-004
-1.217728e-004,4.969229e-005
-1.961608e-004,-4.106429e-005
-2.656868e-004,-1.067007e-004
-3.214373e-004,-1.319829e-004
-3.546606e-004,-1.068628e-004
-3.587123e-004,-3.571614e-005
-3.215994e-004,6.832980e-005
-2.389460e-004,1.952270e-004
-1.259865e-004,3.543751e-004
-7.840905e-006,5.527431e-004
8.891209e-005,7.723419e-004
1.428799e-004,9.805959e-004
1.464453e-004,1.145579e-003
1.036600e-004,1.238442e-003
2.408596e-005,1.231474e-003
-8.158062e-005,1.110248e-003
-2.036158e-004,8.815739e-004
-3.214373e-004,5.801322e-004
-3.937184e-004,2.608634e-004
-3.809152e-004,-2.631635e-005
-2.703867e-004,-2.507768e-004
-8.919769e-005,-4.044147e-004
1.023635e-004,-4.982505e-004
2.255332e-004,-5.549733e-004
2.336365e-004,-5.935449e-004
1.423936e-004,-6.193133e-004
9.986281e-006,-6.241752e-004
-9.405965e-005,-6.006758e-004
-1.240417e-004,-5.528665e-004
-6.634648e-005,-4.990608e-004
5.504044e-005,-4.635685e-004
2.072198e-004,-4.640547e-004
3.606957e-004,-4.963057e-004
4.932652e-004,-5.465460e-004
5.888838e-004,-5.956517e-004
6.378276e-004,-6.240131e-004
6.386379e-004,-6.163961e-004
5.926113e-004,-5.627525e-004
5.120648e-004,-4.655133e-004
4.221185e-004,-3.331060e-004
3.485408e-004,-1.827094e-004
2.981384e-004,-2.988179e-005
2.587566e-004,1.177597e-004
2.086784e-004,2.538946e-004
1.316974e-004,3.705817e-004
2.684107e-005,4.551798e-004
-9.357346e-005,4.943996e-004
-2.086398e-004,4.841895e-004
-3.018274e-004,4.357320e-004
-3.673017e-004,3.653956e-004
-4.117076e-004,2.906835e-004
-4.459034e-004,2.279642e-004
-4.784786e-004,1.820997e-004
-5.048952e-004,1.516314e-004
-5.105674e-004,1.257009e-004
-4.890127e-004,9.426025e-005
-4.390967e-004,5.358185e-005
-3.673017e-004,2.207145e-006
-2.906449e-004,-6.035007e-005
-2.196603e-004,-1.349001e-004
-1.485136e-004,-2.178775e-004
-6.099833e-005,-2.990722e-004
4.936815e-005,-3.616295e-004
1.796687e-004,-3.974459e-004
3.205035e-004,-4.084663e-004
4.613383e-004,-4.070078e-004
5.887217e-004,-4.029561e-004
6.906608e-004,-3.990665e-004
7.554871e-004,-3.935563e-004
7.770417e-004,-3.882082e-004
7.587284e-004,-3.899909e-004
7.101087e-004,-4.063595e-004
6.434998e-004,-4.425001e-004
5.707325e-004,-4.938748e-004
4.995857e-004,-5.471942e-004
4.264942e-004,-5.873864e-004
3.496752e-004,-6.006758e-004
2.652392e-004,-5.804176e-004
1.735102e-004,-5.288809e-004
7.578480e-005,-4.604893e-004
-2.858527e-005,-3.914495e-004
-1.447861e-004,-3.381300e-004
-2.773555e-004,-3.081479e-004
-4.262935e-004,-2.992343e-004
-5.830107e-004,-3.002067e-004
-7.308142e-004,-2.982619e-004
-8.462047e-004,-2.852967e-004
-9.097343e-004,-2.635799e-004
-9.090860e-004,-2.418632e-004
-8.452323e-004,-2.282497e-004
-7.280591e-004,-2.191741e-004
-5.750695e-004,-2.026434e-004
-4.073319e-004,-1.663408e-004
-2.507768e-004,-9.794922e-005
-1.195039e-004,1.063454e-005
-1.691656e-005,1.657311e-004
6.492643e-005,3.525924e-004
1.380179e-004,5.324850e-004
2.093267e-004,6.577615e-004
2.923041e-004,6.995744e-004
3.901916e-004,6.598685e-004
4.874308e-004,5.652222e-004
5.520949e-004,4.589073e-004
5.585775e-004,3.794953e-004
4.973168e-004,3.357376e-004
3.948915e-004,3.104554e-004
2.989488e-004,2.814457e-004
2.414156e-004,2.365536e-004
2.281262e-004,1.751309e-004
2.384984e-004,1.109530e-004
2.372019e-004,6.362991e-005
2.046267e-004,4.677511e-005
1.470936e-004,6.152305e-005
8.680524e-005,9.977047e-005
4.531652e-005,1.526038e-004
3.332369e-005,2.109473e-004
4.904402e-005,2.641047e-004
8.307774e-005,3.089969e-004
1.182459e-004,3.461098e-004
1.266733e-004,3.830607e-004
8.048470e-005,4.337872e-004
-3.117831e-005,4.987754e-004
-1.900023e-004,5.644119e-004
-3.564434e-004,6.229175e-004
-4.951713e-004,6.712130e-004
-5.894933e-004,7.063812e-004
-6.462161e-004,7.277738e-004
-6.750637e-004,7.389564e-004
-6.766844e-004,7.353909e-004
-6.481609e-004,7.058950e-004
-5.979206e-004,6.413930e-004
-5.392530e-004,5.495019e-004
-4.843129e-004,4.561522e-004
-4.421759e-004,3.910019e-004
-4.309934e-004,3.636129e-004
-4.600031e-004,3.564820e-004
-5.126743e-004,3.310377e-004
-5.549733e-004,2.501671e-004
-5.543251e-004,1.044704e-004
-4.891749e-004,-8.644259e-005
-3.601709e-004,-2.823795e-004
-1.877334e-004,-4.436345e-004
-7.354709e-006,-5.502735e-004
1.522796e-004,-6.018102e-004
2.837146e-004,-6.079687e-004
3.864641e-004,-5.813900e-004
4.584211e-004,-5.343911e-004
5.047718e-004,-4.765338e-004
5.347540e-004,-4.175420e-004
5.563086e-004,-3.622777e-004
5.666808e-004,-3.121996e-004
5.572810e-004,-2.736280e-004
5.242196e-004,-2.496423e-004
4.777069e-004,-2.366771e-004
4.318424e-004,-2.313290e-004
3.929467e-004,-2.318152e-004
3.649094e-004,-2.373254e-004
3.474063e-004,-2.447804e-004
3.300653e-004,-2.454286e-004
2.931144e-004,-2.308428e-004
2.198609e-004,-2.013469e-004
1.052807e-004,-1.715269e-004
-3.247483e-005,-1.459206e-004
-1.635857e-004,-1.272830e-004
-2.622834e-004,-1.186936e-004
-3.207890e-004,-1.232314e-004
-3.407231e-004,-1.384655e-004
-3.321336e-004,-1.585616e-004
-3.063652e-004,-1.747682e-004
-2.720074e-004,-1.844921e-004
-2.410529e-004,-1.940539e-004
-2.217671e-004,-2.065330e-004
-2.091260e-004,-2.165810e-004
-1.864369e-004,-2.143121e-004
-1.397621e-004,-1.901644e-004
-6.861539e-005,-1.404103e-004
1.209313e-005,-7.072225e-005
8.437427e-005,8.041497e-006
1.428799e-004,8.080883e-005
1.833962e-004,1.292664e-004
2.067336e-004,1.370455e-004
2.260194e-004,1.004187e-004
2.564877e-004,3.721326e-005
3.000832e-004,-2.064406e-005
3.491891e-004,-3.587821e-005
4.000776e-004,2.538249e-005
4.529109e-004,1.788584e-004
5.088235e-004,3.918123e-004
5.601982e-004,5.798081e-004
5.903424e-004,6.554927e-004
5.806184e-004,5.736496e-004
5.251921e-004,3.551855e-004
4.284390e-004,6.654708e-005
2.999212e-004,-2.136638e-004
1.607070e-004,-4.246728e-004
3.348575e-005,-5.373082e-004
-6.391550e-005,-5.580526e-004
-1.208004e-004,-5.178604e-004
-1.242038e-004,-4.512515e-004
-7.072225e-005,-3.815635e-004
3.364782e-005,-3.196545e-004
1.717275e-004,-2.694143e-004
3.098072e-004,-2.358668e-004
4.148255e-004,-2.264670e-004
4.736553e-004,-2.442942e-004
4.885653e-004,-2.750866e-004
4.655520e-004,-2.793003e-004
4.110980e-004,-2.031296e-004
3.303894e-004,4.313994e-006
2.300710e-004,3.537269e-004
1.154908e-004,7.694247e-004
-5.085794e-006,1.123538e-003
-1.240417e-004,1.300513e-003
-2.329496e-004,1.254325e-003
-3.254889e-004,1.025650e-003
-3.982562e-004,7.180499e-004
-4.554653e-004,4.427008e-004
-5.070020e-004,2.689667e-004
-5.587008e-004,2.033302e-004
-6.021344e-004,2.090025e-004
-6.233649e-004,2.331503e-004
-6.183409e-004,2.300710e-004
-5.893312e-004,1.848548e-004
-5.473563e-004,9.879808e-005
-5.095950e-004,-9.623623e-006
-4.854474e-004,-1.186936e-004
-4.713477e-004,-2.088019e-004
-4.591928e-004,-2.711970e-004
-4.405553e-004,-3.063652e-004
-4.120317e-004,-3.160891e-004
-3.710293e-004,-3.005308e-004
-3.201407e-004,-2.652006e-004
-2.634179e-004,-2.225774e-004
-2.041020e-004,-1.883817e-004
-1.397621e-004,-1.741199e-004
-6.748094e-005,-1.786577e-004
1.063454e-005,-1.867610e-004
8.956036e-005,-1.898403e-004
1.633001e-004,-1.900023e-004
2.198609e-004,-1.953505e-004
2.487085e-004,-2.109087e-004
2.425500e-004,-2.358668e-004
2.018716e-004,-2.619593e-004
1.394765e-004,-2.791382e-004
7.205730e-005,-2.786520e-004
8.851824e-006,-2.588801e-004
-5.078821e-005,-2.284118e-004
-1.110765e-004,-1.859507e-004
-1.703924e-004,-1.115627e-004
-2.178775e-004,2.311357e-005
-2.421874e-004,2.222919e-004
-2.447804e-004,4.495075e-004
-2.337599e-004,6.402585e-004
-2.183637e-004,7.237222e-004
-2.011848e-004,6.561409e-004
-1.820611e-004,4.378388e-004
-1.551583e-004,1.138702e-004
-1.182074e-004,-2.452666e-004
-6.877746e-005,-5.668041e-004
-1.351319e-005,-7.969369e-004
3.850978e-005,-9.136238e-004
8.210535e-005,-9.226995e-004
1.145184e-004,-8.465288e-004
1.331559e-004,-7.115284e-004
1.368834e-004,-5.458977e-004
1.237561e-004,-3.815635e-004
9.312580e-005,-2.467252e-004
5.212327e-005,-1.593720e-004
1.501031e-005,-1.164247e-004
-9.623623e-006,-1.044318e-004
-1.886135e-005,-1.099421e-004
-1.075808e-005,-1.188556e-004
1.906194e-005,-1.086455e-004
7.691926e-005,-5.694670e-005
1.691344e-004,4.175109e-005
2.793389e-004,1.722137e-004
3.725265e-004,3.073762e-004
4.198496e-004,4.208219e-004
4.174185e-004,4.926169e-004
3.864641e-004,5.161164e-004
3.566440e-004,4.969927e-004
3.495132e-004,4.462662e-004
3.581026e-004,3.778746e-004
3.610198e-004,3.070520e-004
3.433547e-004,2.415777e-004
2.979764e-004,1.851789e-004
2.239125e-004,1.375317e-004
1.239182e-004,9.247754e-005
3.017472e-006,4.126489e-005
-1.300382e-004,-1.918548e-005
-2.548284e-004,-8.514606e-005
-3.374817e-004,-1.436516e-004
-3.540124e-004,-1.828714e-004
-3.087962e-004,-1.984297e-004
-2.297083e-004,-1.998883e-004
-1.532135e-004,-1.982676e-004
-1.049180e-004,-1.982676e-004
-9.081835e-005,-1.990780e-004
-9.438378e-005,-1.935677e-004
-9.341139e-005,-1.703924e-004
-7.396356e-005,-1.287416e-004
-3.166451e-005,-7.655660e-005
2.667901e-005,-2.161646e-005
9.134307e-005,3.769945e-005
1.506590e-004,1.009049e-004
1.929580e-004,1.665414e-004
2.055991e-004,2.218057e-004
1.824238e-004,2.521119e-004
1.260251e-004,2.521119e-004
5.212327e-005,2.261814e-004
-1.659243e-005,1.820997e-004
-6.342931e-005,1.261871e-004
-7.817725e-005,6.930219e-005
-6.180866e-005,2.019640e-005
-2.955766e-005,-1.724069e-005
2.693341e-006,-4.706071e-005
2.116879e-005,-6.602235e-005
1.792748e-005,-7.104638e-005
-3.303076e-006,-6.099833e-005
-2.518189e-005,-4.284701e-005
-2.890940e-005,-2.388537e-005
-2.238346e-007,-7.678839e-006
5.487838e-005,9.338019e-006
1.177597e-004,3.462021e-005
1.647587e-004,7.416415e-005
1.811273e-004,1.190562e-004
1.584381e-004,1.590864e-004
9.798775e-005,1.846927e-004
1.419998e-005,1.978200e-004
-7.039812e-005,2.062474e-004
-1.285796e-004,2.130541e-004
-1.402483e-004,2.172679e-004
-1.112386e-004,2.148369e-004
-6.586029e-005,1.992786e-004
-3.279896e-005,1.680000e-004
-2.501983e-005,1.253768e-004
-4.122636e-005,8.421220e-005
-7.153257e-005,5.844381e-005
-1.010285e-004,5.552663e-005
-1.196660e-004,7.578480e-005
-1.261486e-004,1.185701e-004
-1.386276e-004,1.845306e-004
-1.896782e-004,2.709115e-004
-3.044204e-004,3.606957e-004
-4.647030e-004,4.279528e-004
-6.136410e-004,4.517764e-004
-6.935392e-004,4.318424e-004
-6.753879e-004,3.777126e-004
-5.621043e-004,2.986247e-004
-3.865875e-004,2.070577e-004
-1.934057e-004,1.255389e-004
-1.529591e-005,6.865393e-005
1.398006e-004,4.110282e-005
2.748010e-004,2.829966e-005
3.950536e-004,6.744974e-006
4.913204e-004,-3.101625e-005
5.548500e-004,-7.331530e-005
5.833735e-004,-9.973194e-005
5.804563e-004,-9.649064e-005
5.606844e-004,-6.586029e-005
5.355643e-004,-1.788895e-005
5.097958e-004,4.013043e-005
4.874308e-004,1.004187e-004
4.756001e-004,1.561692e-004
4.730070e-004,2.054371e-004
4.700898e-004,2.402811e-004
4.555039e-004,2.440086e-004
4.216323e-004,1.947408e-004
3.696093e-004,9.215340e-005
3.093210e-004,-4.122636e-005
2.513016e-004,-1.697442e-004
1.947408e-004,-2.619593e-004
1.299146e-004,-2.922655e-004
5.341979e-005,-2.622834e-004
-2.210265e-005,-1.937298e-004
-7.801519e-005,-1.159385e-004
-1.091317e-004,-5.176061e-005
-1.209625e-004,-1.480971e-005
-1.272830e-004,-1.075808e-005
-1.493239e-004,-3.636440e-005
-1.976194e-004,-9.227693e-005
-2.664971e-004,-1.699062e-004
-3.392644e-004,-2.527216e-004
-3.990665e-004,-3.190063e-004
-4.425001e-004,-3.502849e-004
-4.674581e-004,-3.447747e-004
-4.690787e-004,-3.152788e-004
-4.467137e-004,-2.784900e-004
-4.071698e-004,-2.512630e-004
-3.695707e-004,-2.370013e-004
-3.564434e-004,-2.327876e-004
-3.752429e-004,-2.293842e-004
-4.108973e-004,-2.138259e-004
-4.275900e-004,-1.733096e-004
-3.942046e-004,-1.055663e-004
-3.023136e-004,-3.571614e-005
-1.639098e-004,2.531276e-006
-3.303076e-006,-1.594417e-005
1.470936e-004,-9.341139e-005
2.629703e-004,-2.122053e-004
3.459477e-004,-3.405610e-004
4.156358e-004,-4.426621e-004
4.898618e-004,-4.860956e-004
5.697600e-004,-4.570859e-004
6.446343e-004,-3.528779e-004
7.028158e-004,-1.859507e-004
7.352289e-004,2.035846e-005
7.449528e-004,2.276400e-004
7.363633e-004,3.897054e-004
7.127018e-004,4.702519e-004
6.798024e-004,4.579349e-004
6.371793e-004,3.710679e-004
5.658705e-004,2.433604e-004
4.472386e-004,1.083599e-004
2.898731e-004,-8.651231e-006
1.265113e-004,-9.827335e-005
5.864920e-007,-1.627754e-004
-6.359137e-005,-2.070192e-004
-6.812920e-005,-2.319772e-004
-3.976777e-005,-2.301945e-004
-1.254080e-005,-1.968091e-004
-2.242678e-005,-1.318209e-004
-8.854943e-005,-4.138842e-005
-2.070192e-004,6.152305e-005
-3.520676e-004,1.532520e-004
-4.885266e-004,2.164575e-004
-5.878726e-004,2.436845e-004
-6.356818e-004,2.407673e-004
-6.358439e-004,2.263435e-004
-6.034309e-004,2.149989e-004
-5.624284e-004,2.101370e-004
-5.368221e-004,2.122438e-004
-5.363359e-004,2.166196e-004
-5.481666e-004,2.161334e-004
-5.441150e-004,2.106232e-004
-5.061917e-004,1.991165e-004
-4.350450e-004,1.816135e-004
-3.556330e-004,1.602208e-004
-2.972895e-004,1.349386e-004
-2.699005e-004,1.080358e-004
-2.655248e-004,8.161915e-005
-2.605007e-004,5.617490e-005
-2.436459e-004,2.781346e-005
-2.180396e-004,-2.238346e-007
-1.912988e-004,-1.740276e-005
-1.724993e-004,-1.805102e-005
-1.674752e-004,-1.318906e-005
-1.739578e-004,-1.902341e-005
-1.793060e-004,-3.992984e-005
-1.789819e-004,-6.407757e-005
-1.817370e-004,-7.493595e-005
-1.938919e-004,-6.359137e-005
-2.245222e-004,-3.328516e-005
-2.768693e-004,4.800190e-006
-3.405610e-004,2.927205e-005
-3.971218e-004,1.808955e-005
-4.382863e-004,-3.749886e-005
-4.645409e-004,-1.329553e-004
-4.765338e-004,-2.488320e-004
-4.692408e-004,-3.624398e-004
-4.399070e-004,-4.551412e-004
-3.948528e-004,-5.193190e-004
-3.488263e-004,-5.533527e-004
-3.160891e-004,-5.587008e-004
-2.956689e-004,-5.364979e-004
-2.702246e-004,-4.909576e-004
-2.196603e-004,-4.230522e-004
-1.352242e-004,-3.416954e-004
-1.983374e-005,-2.559629e-004
1.135460e-004,-1.626133e-004
2.464396e-004,-4.187462e-005
3.525924e-004,1.316974e-004
4.083429e-004,3.647473e-004
4.007258e-004,6.185417e-004
3.321722e-004,8.167478e-004
2.190506e-004,8.893532e-004
9.069481e-005,8.084825e-004
-2.664048e-005,5.986077e-004
-1.157764e-004,3.226103e-004
-1.635857e-004,4.953022e-005
-1.504584e-004,-1.781716e-004
-6.035007e-005,-3.376438e-004
1.104668e-004,-4.220798e-004
3.436788e-004,-4.339106e-004
5.919630e-004,-3.898288e-004
8.120479e-004,-3.222476e-004
9.763823e-004,-2.681178e-004
1.079294e-003,-2.501286e-004
1.135044e-003,-2.697385e-004
1.163406e-003,-3.175477e-004
1.176371e-003,-3.862634e-004
1.173940e-003,-4.614617e-004
1.150765e-003,-5.282326e-004
1.099390e-003,-5.706937e-004
1.021761e-003,-5.737729e-004
9.237110e-004,-5.183466e-004
8.141547e-004,-3.882082e-004
7.042743e-004,-1.818991e-004
6.071971e-004,7.302970e-005
5.319988e-004,3.221241e-004
4.760863e-004,4.997478e-004
4.383250e-004,5.626292e-004
4.196875e-004,5.067165e-004
4.329769e-004,3.700955e-004
4.804620e-004,2.162954e-004
5.444778e-004,1.022015e-004
5.921251e-004,6.751948e-005
5.869390e-004,1.287802e-004
5.115786e-004,2.910076e-004
3.757678e-004,5.627912e-004
2.067336e-004,9.259799e-004
4.158902e-005,1.306186e-003
-7.914964e-005,1.596445e-003
-1.353863e-004,1.704867e-003
-1.326312e-004,1.600983e-003
-9.794922e-005,1.332764e-003
-7.607040e-005,1.002475e-003
-1.067007e-004,7.149707e-004
-2.018331e-004,5.383193e-004
-3.374817e-004,4.896998e-004
-4.713477e-004,5.430193e-004
-5.729626e-004,6.503066e-004
-6.381128e-004,7.601869e-004
-6.745775e-004,8.371680e-004
-6.993735e-004,8.639088e-004
-7.241695e-004,8.426782e-004
-7.499378e-004,7.841726e-004
-7.740856e-004,6.927677e-004
-7.946679e-004,5.663567e-004
-8.107124e-004,4.016982e-004
-8.209225e-004,2.064095e-004
-8.283774e-004,-4.113403e-006
-8.363187e-004,-2.102605e-004
-8.398842e-004,-3.987424e-004
-8.312946e-004,-5.624284e-004
-8.066607e-004,-6.937013e-004
-7.697099e-004,-7.936955e-004
-7.256281e-004,-8.724593e-004
-6.729569e-004,-9.423094e-004
-6.123445e-004,-1.008918e-003
-5.522182e-004,-1.072772e-003
-5.102433e-004,-1.134519e-003
-5.010056e-004,-1.190269e-003
-5.233706e-004,-1.232730e-003
-5.593491e-004,-1.246992e-003
-5.791211e-004,-1.221062e-003
-5.554595e-004,-1.152994e-003
-4.856094e-004,-1.071637e-003
-3.927460e-004,-1.024152e-003
-3.112272e-004,-1.034849e-003
-2.621213e-004,-1.090923e-003
-2.397564e-004,-1.149429e-003
-2.311669e-004,-1.169363e-003
-2.241981e-004,-1.124633e-003
-2.097743e-004,-1.009566e-003
-1.830335e-004,-8.457185e-004
-1.473791e-004,-6.646916e-004
-1.005423e-004,-4.969540e-004
-4.074016e-005,-3.634122e-004
3.445814e-005,-2.737901e-004
1.201907e-004,-2.154466e-004
2.041406e-004,-1.658546e-004
2.764217e-004,-1.084835e-004
3.355756e-004,-4.138842e-005
3.840331e-004,2.149292e-005
4.245494e-004,6.103686e-005
4.537212e-004,7.335383e-005
4.632831e-004,6.265751e-005
4.556660e-004,4.239934e-005
4.415663e-004,3.899597e-005
4.243874e-004,7.400208e-005
4.060740e-004,1.516314e-004
3.924605e-004,2.603772e-004
3.914881e-004,3.781987e-004
4.112601e-004,4.793275e-004
4.443214e-004,5.490156e-004
4.743035e-004,5.849942e-004
4.872688e-004,5.908285e-004
4.812723e-004,5.684635e-004
4.571246e-004,5.235714e-004
4.169324e-004,4.626348e-004
3.673404e-004,3.935950e-004
3.158036e-004,3.219621e-004
2.657254e-004,2.493568e-004
2.172679e-004,1.848548e-004
1.728619e-004,1.398006e-004
1.378558e-004,1.197045e-004
1.226217e-004,1.180839e-004
1.326697e-004,1.141943e-004
1.608691e-004,9.280167e-005
1.859892e-004,5.439218e-005
1.936063e-004,1.290346e-005
1.842065e-004,-9.137427e-006
1.767515e-004,1.014835e-005
1.840444e-004,7.335383e-005
2.057612e-004,1.563313e-004
2.253711e-004,2.237505e-004
2.172679e-004,2.508154e-004
1.626518e-004,2.347709e-004
6.119892e-005,1.869616e-004
-5.759496e-005,1.297526e-004
-1.507825e-004,8.405014e-005
-1.875713e-004,6.589881e-005
-1.618029e-004,7.967438e-005
-9.130454e-005,1.163011e-004
-3.789272e-006,1.574657e-004
7.902610e-005,1.825859e-004
1.409351e-004,1.756171e-004
1.702689e-004,1.344524e-004
1.623277e-004,7.319176e-005
1.239182e-004,8.527692e-006
7.254349e-005,-4.787104e-005
2.424803e-005,-9.195280e-005
-1.367526e-005,-1.182074e-004
-4.203669e-005,-1.180453e-004
-6.440170e-005,-8.044617e-005
-9.114248e-005,-6.176923e-008
-1.248521e-004,1.130598e-004
-1.558065e-004,2.381743e-004
-1.697442e-004,3.478926e-004
-1.590478e-004,4.192013e-004
-1.259865e-004,4.490213e-004
-7.623246e-005,4.551798e-004
-2.761287e-005,4.660382e-004
-2.978945e-006,5.039615e-004
-1.643037e-005,5.754323e-004
-6.229485e-005,6.708889e-004
-1.289037e-004,7.718556e-004
-2.016710e-004,8.556435e-004
-2.652006e-004,8.958358e-004
-3.036101e-004,8.663398e-004
-3.027998e-004,7.545147e-004
-2.643903e-004,5.717048e-004
-2.031296e-004,3.499994e-004
-1.397621e-004,1.284560e-004
-8.109443e-005,-5.775702e-005
-2.647842e-005,-1.827094e-004
2.684107e-005,-2.395943e-004
8.777764e-005,-2.415391e-004
1.663793e-004,-2.146363e-004
2.676702e-004,-1.890299e-004
3.751195e-004,-1.835197e-004
4.551798e-004,-1.989159e-004
4.785172e-004,-2.219292e-004
4.383250e-004,-2.410529e-004
3.521062e-004,-2.483458e-004
2.560015e-004,-2.488320e-004
1.837203e-004,-2.558008e-004
1.506590e-004,-2.810830e-004
1.542244e-004,-3.254889e-004
1.842065e-004,-3.771877e-004
2.240746e-004,-4.209454e-004
2.521119e-004,-4.470379e-004
2.538946e-004,-4.536825e-004
2.248849e-004,-4.473620e-004
1.754550e-004,-4.392588e-004
1.265113e-004,-4.384484e-004
9.717743e-005,-4.410415e-004
8.583286e-005,-4.399070e-004
7.254349e-005,-4.298589e-004
4.239934e-005,-4.130042e-004
-5.896120e-006,-3.869116e-004
-5.808115e-005,-3.434782e-004
-9.794922e-005,-2.768693e-004
-1.173971e-004,-1.930815e-004
-1.292278e-004,-9.762509e-005
-1.577513e-004,2.207145e-006
-2.194982e-004,1.031738e-004
-3.204649e-004,2.002510e-004
-4.473620e-004,2.893870e-004
-5.684248e-004,3.616681e-004
-6.471885e-004,4.117463e-004
-6.578848e-004,4.443214e-004
-5.992171e-004,4.689553e-004
-4.929024e-004,4.943996e-004
-3.763774e-004,5.258403e-004
-2.849726e-004,5.577672e-004
-2.480217e-004,5.819149e-004
-2.781658e-004,5.913147e-004
-3.530400e-004,5.811046e-004
-4.225660e-004,5.514466e-004
-4.462276e-004,5.088235e-004
-4.164075e-004,4.627969e-004
-3.533641e-004,4.200116e-004
-2.815692e-004,3.780367e-004
-2.117191e-004,3.328204e-004
-1.454344e-004,2.780424e-004
-8.563225e-005,2.031682e-004
-3.036798e-005,1.017153e-004
2.424803e-005,-2.518189e-005
8.194328e-005,-1.595340e-004
1.446626e-004,-2.775176e-004
2.120818e-004,-3.596847e-004
2.720459e-004,-3.951770e-004
2.968419e-004,-3.849669e-004
2.688046e-004,-3.444506e-004
1.919856e-004,-3.005308e-004
9.555677e-005,-2.733039e-004
2.457216e-005,-2.711970e-004
1.582063e-005,-2.917793e-004
7.643307e-005,-3.287302e-004
1.833962e-004,-3.695707e-004
2.950592e-004,-4.060354e-004
3.780367e-004,-4.343968e-004
4.206599e-004,-4.595169e-004
4.277907e-004,-4.891749e-004
4.227667e-004,-5.249913e-004
4.286011e-004,-5.663179e-004
4.540453e-004,-6.050515e-004
4.841895e-004,-6.335750e-004
4.875929e-004,-6.445955e-004
4.444835e-004,-6.340612e-004
3.556717e-004,-5.984068e-004
2.381743e-004,-5.368221e-004
1.145184e-004,-4.481723e-004
7.485573e-007,-3.287302e-004
-9.470791e-005,-1.668270e-004
-1.656925e-004,4.483033e-005
-2.186879e-004,2.913317e-004
-2.676316e-004,5.334574e-004
-3.172236e-004,7.227498e-004
-3.604950e-004,8.206373e-004
-3.914495e-004,8.068618e-004
-4.089525e-004,6.870955e-004
-4.180282e-004,4.994237e-004
-4.287245e-004,2.924662e-004
-4.465517e-004,1.057669e-004
-4.663236e-004,-4.122636e-005
-4.771820e-004,-1.464067e-004
-4.784786e-004,-2.172293e-004
-4.745890e-004,-2.595283e-004
-4.655133e-004,-2.739521e-004
-4.463896e-004,-2.611490e-004
-4.121938e-004,-2.276015e-004
-3.561192e-004,-1.814128e-004
-2.682799e-004,-1.326312e-004
-1.399241e-004,-8.854943e-005
2.894792e-005,-4.997789e-005
2.158093e-004,-1.318906e-005
3.858158e-004,3.137890e-005
5.151440e-004,9.134307e-005
5.984457e-004,1.699448e-004
6.486859e-004,2.670219e-004
6.877437e-004,3.665301e-004
7.334462e-004,4.381629e-004
7.950310e-004,4.556660e-004
8.634226e-004,4.072085e-004
9.191732e-004,3.052694e-004
9.405658e-004,1.741585e-004
9.113940e-004,2.927205e-005
8.340888e-004,-1.183694e-004
7.277738e-004,-2.558008e-004
6.143281e-004,-3.684362e-004
5.008822e-004,-4.426621e-004
3.812780e-004,-4.771820e-004
2.524360e-004,-4.843129e-004
1.253768e-004,-4.775062e-004
2.635488e-005,-4.732924e-004
-2.226472e-005,-4.820440e-004
-1.270286e-005,-5.057055e-004
3.397195e-005,-5.395772e-004
7.270556e-005,-5.765280e-004
6.136099e-005,-6.060239e-004
-9.137427e-006,-6.118583e-004
-1.161005e-004,-5.736109e-004
-2.240360e-004,-4.716718e-004
-3.037722e-004,-2.835140e-004
-3.436402e-004,1.679302e-005
-3.491504e-004,4.495075e-004
-3.339163e-004,9.968026e-004
-3.068514e-004,1.577322e-003
-2.794623e-004,2.065626e-003
-2.543422e-004,2.329145e-003
-2.313290e-004,2.293329e-003
-2.078295e-004,1.976652e-003
-1.806025e-004,1.481217e-003
-1.442999e-004,9.407279e-004
-1.049180e-004,4.671726e-004
-7.979791e-005,1.214872e-004
-8.482193e-005,-9.584238e-005
-1.311726e-004,-2.169052e-004
-2.104225e-004,-2.752487e-004
-2.989102e-004,-2.912931e-004
-3.757291e-004,-2.736280e-004
-4.361795e-004,-2.345703e-004
-4.844750e-004,-1.951884e-004
-5.274223e-004,-1.833576e-004
-5.710179e-004,-2.131776e-004
-6.147755e-004,-2.802727e-004
-6.637191e-004,-3.614674e-004
-7.126629e-004,-4.274280e-004
-7.483172e-004,-4.611376e-004
-7.513965e-004,-4.622720e-004
-7.035872e-004,-4.386105e-004
-5.977586e-004,-4.047388e-004
-4.483344e-004,-3.723258e-004
-2.869174e-004,-3.450988e-004
-1.549962e-004,-3.222476e-004
-8.725291e-005,-2.989102e-004
-1.016767e-004,-2.713591e-004
-1.822232e-004,-2.433218e-004
-2.861070e-004,-2.240360e-004
-3.703810e-004,-2.143121e-004
-4.128421e-004,-2.115570e-004
-4.096008e-004,-2.088019e-004
-3.737844e-004,-2.008607e-004
-3.237062e-004,-1.927574e-004
-2.710350e-004,-1.888679e-004
-2.165810e-004,-1.945401e-004
-1.596961e-004,-2.076674e-004
-9.778715e-005,-2.232257e-004
-2.501983e-005,-2.394322e-004
6.460230e-005,-2.515871e-004
1.778860e-004,-2.570974e-004
3.127243e-004,-2.569353e-004
4.639314e-004,-2.507768e-004
6.191900e-004,-2.374874e-004
7.490044e-004,-2.201465e-004
8.227442e-004,-2.023193e-004
8.240407e-004,-1.818991e-004
7.548388e-004,-1.545100e-004
6.366931e-004,-1.190177e-004
5.050959e-004,-8.757704e-005
3.898674e-004,-7.104638e-005
3.044590e-004,-6.667062e-005
2.430362e-004,-5.791909e-005
1.940925e-004,-2.631635e-005
1.522796e-004,3.526847e-005
1.180839e-004,1.164632e-004
1.025256e-004,2.028440e-004
1.172735e-004,2.796630e-004
1.652449e-004,3.303894e-004
2.333123e-004,3.433547e-004
2.991108e-004,3.175863e-004
3.300653e-004,2.658874e-004
3.073762e-004,2.072198e-004
2.305572e-004,1.607070e-004
1.252147e-004,1.461212e-004
2.619281e-005,1.769136e-004
-4.219875e-005,2.513016e-004
-7.380149e-005,3.464339e-004
-7.720486e-005,4.237391e-004
-6.407757e-005,4.474007e-004
-3.911951e-005,4.112601e-004
-6.706447e-006,3.386548e-004
1.711715e-005,2.600531e-004
1.452411e-005,1.983062e-004
-2.550602e-005,1.573037e-004
-1.011905e-004,1.257009e-004
-1.903264e-004,7.821578e-005
-2.609869e-004,-2.006553e-006
-2.916173e-004,-1.101041e-004
-2.758969e-004,-2.310048e-004
-2.277635e-004,-3.369955e-004
-1.686097e-004,-4.005251e-004
-1.219349e-004,-4.019837e-004
-1.049180e-004,-3.403989e-004
-1.196660e-004,-2.394322e-004
-1.512687e-004,-1.300382e-004
-1.665028e-004,-3.798505e-005
-1.327933e-004,2.343770e-005
-3.895745e-005,5.341979e-005
9.588091e-005,6.379197e-005
2.344468e-004,6.719535e-005
3.386548e-004,7.562274e-005
3.853296e-004,9.166720e-005
3.694472e-004,1.109530e-004
2.963557e-004,1.263492e-004
1.814514e-004,1.273216e-004
5.131294e-005,1.101427e-004
-6.407757e-005,8.291568e-005
-1.462447e-004,5.666109e-005
-1.937298e-004,3.073064e-005
-2.141500e-004,3.665733e-006
-2.169052e-004,-2.712668e-005
-2.135018e-004,-6.310517e-005
-2.188499e-004,-1.062146e-004
-2.394322e-004,-1.561307e-004
-2.684419e-004,-2.126914e-004
-2.887001e-004,-2.705488e-004
-2.893484e-004,-3.212752e-004
-2.622834e-004,-3.574158e-004
-2.104225e-004,-3.739464e-004
-1.460826e-004,-3.697327e-004
-8.303922e-005,-3.452609e-004
-2.939559e-005,-3.047445e-004
1.663096e-005,-2.559629e-004
5.666109e-005,-2.053985e-004
9.523264e-005,-1.530514e-004
1.362352e-004,-9.373552e-005
1.795066e-004,-2.258885e-005
2.247229e-004,5.504044e-005
2.757735e-004,1.266733e-004
3.337929e-004,1.884202e-004
3.968363e-004,2.453052e-004
4.555039e-004,3.064038e-004
4.997478e-004,3.738230e-004
5.166026e-004,4.418904e-004
5.031512e-004,4.940755e-004
4.655520e-004,5.196818e-004
4.101256e-004,5.195198e-004
3.465960e-004,5.041235e-004
2.897111e-004,4.926169e-004
2.657254e-004,4.956961e-004
3.018659e-004,5.070407e-004
4.054258e-004,5.059062e-004
5.530673e-004,4.684692e-004
7.052467e-004,3.804677e-004
8.207994e-004,2.438466e-004
8.652053e-004,7.205730e-005
8.216097e-004,-1.152902e-004
6.955228e-004,-2.859450e-004
5.076890e-004,-4.099249e-004
2.854973e-004,-4.710235e-004
6.055066e-005,-4.713477e-004
-1.274451e-004,-4.240246e-004
-2.417012e-004,-3.407231e-004
-2.658489e-004,-2.271153e-004
-2.178775e-004,-9.308726e-005
-1.421931e-004,3.364782e-005
-8.465986e-005,1.184080e-004
-6.942573e-005,1.428799e-004
-9.713889e-005,1.096565e-004
-1.511067e-004,4.547859e-005
-2.143121e-004,-1.464765e-005
-2.770314e-004,-4.122636e-005
-3.361852e-004,-2.469570e-005
-3.857772e-004,2.910999e-005
-4.232143e-004,1.106288e-004
-4.423380e-004,2.025199e-004
-4.360174e-004,2.843629e-004
-4.003631e-004,3.381686e-004
-3.392644e-004,3.571303e-004
-2.642282e-004,3.435168e-004
-1.869231e-004,3.038107e-004
-1.227452e-004,2.513016e-004
-8.190475e-005,1.991165e-004
-6.958779e-005,1.634622e-004
-8.579432e-005,1.508211e-004
-1.297140e-004,1.514693e-004
-1.955125e-004,1.477418e-004
-2.674695e-004,1.279698e-004
-3.275957e-004,8.696731e-005
-3.681121e-004,2.635488e-005
-3.919357e-004,-4.673658e-005
-3.997148e-004,-1.146419e-004
-3.916115e-004,-1.632615e-004
-3.713534e-004,-1.815749e-004
-3.473677e-004,-1.720131e-004
-3.245165e-004,-1.439758e-004
-3.008550e-004,-1.052422e-004
-2.739521e-004,-6.180866e-005
-2.459149e-004,-2.177852e-005
-2.248464e-004,1.095867e-005
-2.135018e-004,3.980630e-005
-2.160948e-004,6.330578e-005
-2.284118e-004,7.448828e-005
-2.472114e-004,6.184718e-005
-2.664971e-004,2.165498e-005
-2.794623e-004,-4.122636e-005
-2.723315e-004,-1.146419e-004
-2.374874e-004,-1.896782e-004
-1.854645e-004,-2.601766e-004
-1.313347e-004,-3.280820e-004
-8.773911e-005,-3.966356e-004
-6.229485e-005,-4.614617e-004
-5.289507e-005,-5.134846e-004
-4.381940e-005,-5.436288e-004
-2.080613e-005,-5.509217e-004
1.663096e-005,-5.442770e-004
5.666109e-005,-5.377944e-004
8.534666e-005,-5.429805e-004
8.680524e-005,-5.634008e-004
5.763349e-005,-5.919242e-004
8.689758e-006,-6.125065e-004
-4.138842e-005,-6.071584e-004
-7.526008e-005,-5.606457e-004
-8.401160e-005,-4.497930e-004
-6.829127e-005,-2.616352e-004
-3.960571e-005,-8.327101e-006
-1.545797e-005,2.735045e-004
-3.303076e-006,5.307022e-004
4.800190e-006,7.180499e-004
1.760335e-005,7.990826e-004
4.223728e-005,7.577559e-004
7.610894e-005,6.046041e-004
1.091703e-004,3.804677e-004
1.289422e-004,1.422316e-004
1.307250e-004,-6.456377e-005
1.171115e-004,-2.126914e-004
9.280167e-005,-2.959930e-004
6.265751e-005,-3.290543e-004
2.586868e-005,-3.426678e-004
-9.461558e-006,-3.611433e-004
-2.615429e-005,-3.946908e-004
-1.772689e-005,-4.318037e-004
9.662150e-006,-4.502792e-004
4.499239e-005,-4.233763e-004
8.340187e-005,-3.303509e-004
1.316974e-004,-1.658546e-004
2.046267e-004,5.001642e-005
3.033245e-004,2.788527e-004
4.109360e-004,4.837033e-004
5.018546e-004,6.451205e-004
5.514466e-004,7.632662e-004
5.529052e-004,8.504574e-004
5.161164e-004,9.199835e-004
4.550177e-004,9.747617e-004
3.850055e-004,9.927510e-004
3.167760e-004,9.465622e-004
2.548670e-004,8.305234e-004
2.034923e-004,6.645683e-004
1.624898e-004,4.845136e-004
1.329939e-004,3.188828e-004
1.094944e-004,1.786963e-004
8.275361e-005,6.200925e-005
4.239934e-005,-3.279896e-005
-1.124428e-005,-1.037836e-004
-7.104638e-005,-1.449482e-004
-1.321450e-004,-1.519170e-004
-1.950263e-004,-1.337657e-004
-2.630937e-004,-1.075111e-004
-3.301888e-004,-9.130454e-005
-3.802670e-004,-9.794922e-005
-4.023079e-004,-1.298761e-004
-3.898288e-004,-1.796301e-004
-3.407231e-004,-2.326255e-004
-2.689281e-004,-2.708729e-004
-1.989159e-004,-2.820554e-004
-1.598582e-004,-2.664971e-004
-1.603444e-004,-2.350565e-004
-1.841680e-004,-2.010227e-004
-2.044261e-004,-1.705545e-004
-1.992400e-004,-1.442999e-004
-1.634236e-004,-1.243659e-004
-1.094559e-004,-1.138316e-004
-5.467778e-005,-1.185315e-004
-1.659243e-005,-1.413827e-004
2.531276e-006,-1.763888e-004
9.338019e-006,-2.117191e-004
1.014835e-005,-2.321393e-004
7.555301e-006,-2.301945e-004
-1.034161e-006,-2.094502e-004
-2.242678e-005,-1.710407e-004
-5.710876e-005,-1.118868e-004
-9.584238e-005,-2.971972e-005
-1.274451e-004,6.217132e-005
-1.417068e-004,1.422316e-004
-1.319829e-004,1.950649e-004
-9.017008e-005,2.148369e-004
-1.869928e-005,2.031682e-004
6.687121e-005,1.663793e-004
1.519555e-004,1.124116e-004
2.383363e-004,5.212327e-005
3.365480e-004,1.002961e-007
4.511282e-004,-3.506788e-005
5.704083e-004,-5.095028e-005
6.678096e-004,-4.527799e-005
7.159431e-004,-1.869928e-005
6.939021e-004,2.359977e-005
6.084936e-004,6.654708e-005
4.892136e-004,1.041462e-004
3.713920e-004,1.354248e-004
2.819319e-004,1.589243e-004
2.312055e-004,1.731861e-004
2.156472e-004,1.858272e-004
2.252090e-004,2.060853e-004
2.537325e-004,2.300710e-004
2.991108e-004,2.470879e-004
3.564820e-004,2.459534e-004
4.098015e-004,2.205092e-004
4.357320e-004,1.704310e-004
4.200116e-004,1.018773e-004
3.650715e-004,2.424803e-005
2.845250e-004,-5.257093e-005
1.978200e-004,-1.191798e-004
1.180839e-004,-1.749302e-004
5.293359e-005,-2.263049e-004
-3.858999e-007,-2.810830e-004
-5.095028e-005,-3.465574e-004
-1.086455e-004,-4.225660e-004
-1.754164e-004,-4.974402e-004
-2.433218e-004,-5.475183e-004
-2.968033e-004,-5.488148e-004
-3.288923e-004,-4.924161e-004
-3.420196e-004,-3.825359e-004
-3.402368e-004,-2.353806e-004
-3.322956e-004,-6.391550e-005
-3.285682e-004,1.253768e-004
-3.428299e-004,3.169380e-004
-3.885323e-004,4.802999e-004
-4.624341e-004,5.809425e-004
-5.405495e-004,6.039558e-004
-5.909518e-004,5.584154e-004
-5.998655e-004,4.673347e-004
-5.713420e-004,3.555096e-004
-5.194810e-004,2.410915e-004
-4.580583e-004,1.362352e-004
-3.979321e-004,4.596478e-005
-3.475298e-004,-3.198864e-005
-3.105789e-004,-1.058904e-004
-2.848105e-004,-1.799543e-004
-2.559629e-004,-2.507768e-004
-2.143121e-004,-3.105789e-004
-1.637477e-004,-3.527159e-004
-1.099421e-004,-3.750809e-004
-6.002594e-005,-3.810773e-004
-1.286493e-005,-3.703810e-004
3.478228e-005,-3.394265e-004
7.691926e-005,-2.857829e-004
9.896015e-005,-2.099363e-004
8.729144e-005,-1.201522e-004
3.802358e-005,-3.004385e-005
-3.992984e-005,4.434413e-005
-1.289037e-004,8.891209e-005
-2.125294e-004,9.426025e-005
-2.770314e-004,5.828175e-005
-3.149546e-004,-9.785688e-006
-3.253268e-004,-8.903562e-005
-3.180339e-004,-1.559686e-004
-3.078238e-004,-1.938919e-004
-3.013411e-004,-2.016710e-004
-2.922655e-004,-1.862748e-004
-2.728177e-004,-1.538618e-004
-2.402425e-004,-1.125351e-004
-2.026434e-004,-6.715681e-005
-1.668270e-004,-2.258885e-005
-1.326312e-004,1.614476e-005
-9.519411e-005,4.920609e-005
-4.268495e-005,8.340187e-005
2.748934e-005,1.213252e-004
1.007429e-004,1.597346e-004
1.483901e-004,1.887444e-004
1.521176e-004,2.005751e-004
1.167873e-004,1.947408e-004
7.043665e-005,1.803169e-004
4.580272e-005,1.799928e-004
6.962632e-005,2.193747e-004
1.479039e-004,3.089969e-004
2.718839e-004,4.321665e-004
4.226047e-004,5.538776e-004
5.867769e-004,6.423654e-004
7.506250e-004,6.733199e-004
9.005356e-004,6.368551e-004
1.021274e-003,5.423710e-004
1.095338e-003,4.128807e-004
1.114948e-003,2.764217e-004
1.085776e-003,1.496866e-004
1.024192e-003,3.607880e-005
9.473725e-004,-7.169464e-005
8.661778e-004,-1.737958e-004
7.913035e-004,-2.598524e-004
7.268014e-004,-3.235441e-004
6.600305e-004,-3.765395e-004
5.624671e-004,-4.326141e-004
4.170944e-004,-5.032745e-004
2.321778e-004,-5.836589e-004
4.061663e-005,-6.583710e-004
-1.146419e-004,-7.099077e-004
-2.081536e-004,-7.249799e-004
-2.455907e-004,-7.014804e-004
-2.598524e-004,-6.573986e-004
-2.951827e-004,-6.232028e-004
-3.838324e-004,-6.290372e-004
-5.270981e-004,-6.805740e-004
-6.928909e-004,-7.517206e-004
-8.256224e-004,-7.954782e-004
-8.748902e-004,-7.651721e-004
-8.228673e-004,-6.342233e-004
-6.914323e-004,-3.899909e-004
-5.212637e-004,-3.636440e-005
-3.499608e-004,4.076947e-004
-2.105846e-004,9.112320e-004
-1.224211e-004,1.415904e-003
-8.255302e-005,1.831927e-003
-6.731888e-005,2.070974e-003
-5.710876e-005,2.087505e-003
-4.349527e-005,1.893188e-003
-2.907146e-005,1.553984e-003
-2.615429e-005,1.160651e-003
-4.203669e-005,8.007033e-004
-7.671866e-005,5.285954e-004
-1.271210e-004,3.619922e-004
-1.870851e-004,2.819319e-004
-2.485079e-004,2.548670e-004
-3.083100e-004,2.493568e-004
-3.616295e-004,2.407673e-004
-4.044147e-004,2.145127e-004
-4.305072e-004,1.618415e-004
-4.311555e-004,8.356394e-005
-3.950149e-004,-1.659243e-005
-3.203028e-004,-1.303623e-004
-2.060468e-004,-2.423494e-004
-4.414354e-005,-3.428299e-004
1.587623e-004,-4.261314e-004
3.691231e-004,-4.927403e-004
5.323229e-004,-5.467080e-004
5.942319e-004,-5.865761e-004
5.302161e-004,-6.079687e-004
3.603715e-004,-6.089411e-004
1.316974e-004,-5.907898e-004
-9.713889e-005,-5.569181e-004
-2.815692e-004,-5.141329e-004
-4.000390e-004,-4.716718e-004
-4.523860e-004,-4.368278e-004
-4.533584e-004,-4.160834e-004
-4.272659e-004,-4.100870e-004
-3.964735e-004,-4.066836e-004
-3.698948e-004,-3.920977e-004
-3.420196e-004,-3.562813e-004
-3.010170e-004,-2.945344e-004
-2.441321e-004,-2.162569e-004
-1.846542e-004,-1.488377e-004
-1.455964e-004,-1.250141e-004
-1.357104e-004,-1.499722e-004
-1.478653e-004,-2.055606e-004
-1.705545e-004,-2.645523e-004
-1.953505e-004,-3.168994e-004
-2.081536e-004,-3.668155e-004
-1.945401e-004,-4.241867e-004
-1.514308e-004,-4.948471e-004
-7.931171e-005,-5.742591e-004
2.424803e-005,-6.549676e-004
1.654069e-004,-7.296797e-004
3.381686e-004,-7.867267e-004
5.221128e-004,-8.079573e-004
6.767232e-004,-7.698719e-004
7.566215e-004,-6.593434e-004
7.400909e-004,-4.813957e-004
6.394482e-004,-2.605007e-004
4.960203e-004,-2.777494e-005
3.689610e-004,1.960373e-004
3.008936e-004,4.216323e-004
2.955454e-004,6.893643e-004
3.264999e-004,1.015602e-003
3.600474e-004,1.355130e-003
3.691231e-004,1.627400e-003
3.412479e-004,1.755918e-003
2.743149e-004,1.708433e-003
1.756171e-004,1.507633e-003
5.552663e-005,1.214457e-003
-7.558420e-005,9.079906e-004
-1.997262e-004,6.535479e-004
-2.987481e-004,4.882411e-004
-3.630881e-004,4.175806e-004
-3.976080e-004,4.209840e-004
-4.152731e-004,4.605280e-004
-4.339106e-004,4.969927e-004
-4.638926e-004,5.013684e-004
-5.076503e-004,4.589073e-004
-5.522182e-004,3.718782e-004
-5.817142e-004,2.551911e-004
-5.792832e-004,1.284560e-004
-5.376324e-004,3.179537e-006
-4.551412e-004,-1.146419e-004
-3.447747e-004,-2.191741e-004
-2.300324e-004,-3.015032e-004
-1.255003e-004,-3.561192e-004
-2.113026e-005,-3.802670e-004
1.065772e-004,-3.838324e-004
2.851732e-004,-3.731361e-004
5.206542e-004,-3.517435e-004
7.950310e-004,-3.235441e-004
1.064060e-003,-2.972895e-004
1.267614e-003,-2.815692e-004
1.352374e-003,-2.801106e-004
1.291438e-003,-2.872415e-004
1.095338e-003,-2.932379e-004
8.034584e-004,-2.893484e-004
4.623107e-004,-2.677937e-004
1.305629e-004,-2.280877e-004
-1.314967e-004,-1.822232e-004
-2.862691e-004,-1.493239e-004
-3.303509e-004,-1.396000e-004
-2.924276e-004,-1.535376e-004
-2.167431e-004,-1.831956e-004
-1.438137e-004,-2.147983e-004
-9.665270e-005,-2.371633e-004
-7.947377e-005,-2.439701e-004
-8.547019e-005,-2.358668e-004
-9.956988e-005,-2.172293e-004
-1.110765e-004,-1.945401e-004
-1.164247e-004,-1.715269e-004
-1.183694e-004,-1.454344e-004
-1.199901e-004,-1.177212e-004
-1.235555e-004,-8.628052e-005
-1.293899e-004,-5.224680e-005
-1.402483e-004,-1.999580e-005
-1.522411e-004,8.203562e-006
-1.643960e-004,3.267542e-005
-1.780095e-004,5.082674e-005
-1.909747e-004,6.460230e-005
-1.958367e-004,7.610894e-005
-1.912988e-004,8.372601e-005
-1.838438e-004,8.016057e-005
-1.791439e-004,5.568870e-005
-1.781716e-004,9.662150e-006
-1.762268e-004,-4.981582e-005
-1.629374e-004,-1.149661e-004
-1.316588e-004,-1.771992e-004
-8.368748e-005,-2.285739e-004
-2.874733e-005,-2.622834e-004
2.052053e-005,-2.818933e-004
6.460230e-005,-3.010170e-004
1.137081e-004,-3.313232e-004
1.751309e-004,-3.716775e-004
2.383363e-004,-4.136524e-004
2.843629e-004,-4.499550e-004
2.921420e-004,-4.781544e-004
2.456293e-004,-5.013297e-004
1.459591e-004,-5.185087e-004
2.230325e-005,-5.235327e-004
-8.028410e-005,-5.089468e-004
-1.324691e-004,-4.724821e-004
-1.357104e-004,-4.139766e-004
-1.054042e-004,-3.421817e-004
-6.132246e-005,-2.747625e-004
-2.242678e-005,-2.254946e-004
1.002961e-007,-1.943781e-004
4.151929e-006,-1.689338e-004
-3.951337e-006,-1.344139e-004
-1.610624e-005,-8.547019e-005
-2.420950e-005,-2.420950e-005
-3.053005e-005,4.126489e-005
-4.479180e-005,1.078737e-004
-7.137051e-005,1.817755e-004
-1.047560e-004,2.715597e-004
-1.290658e-004,3.845193e-004
-1.271210e-004,5.122268e-004
-9.811128e-005,6.318311e-004
-5.824322e-005,7.128638e-004
-3.263690e-005,7.332841e-004
-4.025397e-005,6.887161e-004
-7.914964e-005,5.908285e-004
-1.246900e-004,4.618245e-004
-1.468929e-004,3.276344e-004
-1.313347e-004,2.104611e-004
-8.644259e-005,1.291043e-004
-4.057810e-005,9.150514e-005
-2.842320e-005,9.766362e-005
-6.796714e-005,1.380179e-004
-1.459206e-004,1.906891e-004
-2.292221e-004,2.383363e-004
-2.812451e-004,2.684805e-004
-2.895104e-004,2.773941e-004
-2.681178e-004,2.624841e-004
-2.303566e-004,2.292607e-004
-1.788198e-004,1.887444e-004
-9.843541e-005,1.500107e-004
1.906194e-005,1.172735e-004
1.618415e-004,8.761557e-005
2.986247e-004,5.585077e-005
3.885709e-004,1.841368e-005
4.016982e-004,-2.307504e-005
3.355756e-004,-6.229485e-005
2.138645e-004,-9.260107e-005
8.226741e-005,-1.105903e-004
-1.869928e-005,-1.167488e-004
-6.829127e-005,-1.136696e-004
-7.282909e-005,-1.063766e-004
-5.597430e-005,-9.065628e-005
-4.268495e-005,-5.727083e-005
-3.960571e-005,-2.978945e-006
-4.090223e-005,6.768154e-005
-3.814712e-005,1.423936e-004
-2.323711e-005,2.043026e-004
2.855407e-006,2.389846e-004
3.591673e-005,2.440086e-004
7.043665e-005,2.273159e-004
1.034980e-004,2.015475e-004
1.278078e-004,1.752929e-004
1.336421e-004,1.511452e-004
1.091703e-004,1.185701e-004
2.959619e-005,6.314371e-005
-1.235555e-004,-1.643037e-005
-3.434782e-004,-1.063766e-004
-5.875485e-004,-1.836818e-004
-7.914266e-004,-2.316531e-004
-9.019551e-004,-2.428356e-004
-8.922312e-004,-2.220912e-004
-7.739235e-004,-1.830335e-004
-5.847933e-004,-1.374932e-004
-3.685983e-004,-8.935975e-005
-1.627754e-004,-4.430560e-005
1.727922e-005,-5.571990e-006
1.691344e-004,3.332369e-005
2.974902e-004,8.550872e-005
3.961880e-004,1.590864e-004
4.639314e-004,2.558394e-004
5.050959e-004,3.710679e-004
5.349160e-004,4.995857e-004
5.739738e-004,6.389620e-004
6.294001e-004,7.914656e-004
6.835299e-004,9.595275e-004
7.123777e-004,1.129210e-003
7.024916e-004,1.267938e-003
6.503066e-004,1.331468e-003
5.619809e-004,1.286900e-003
4.572867e-004,1.133748e-003
3.597233e-004,9.050734e-004
2.913317e-004,6.493342e-004
2.652392e-004,4.046154e-004
2.853353e-004,1.921477e-004
3.409237e-004,2.197911e-005
4.120704e-004,-1.013526e-004
4.759242e-004,-1.825473e-004
5.130371e-004,-2.326255e-004
5.151440e-004,-2.734659e-004
4.874308e-004,-3.227338e-004
4.384871e-004,-3.901529e-004
3.812780e-004,-4.792889e-004
3.299033e-004,-5.844692e-004
2.918179e-004,-6.982391e-004
2.689667e-004,-8.134675e-004
2.603772e-004,-9.296683e-004
2.624841e-004,-1.041980e-003
2.618358e-004,-1.139867e-003
2.333123e-004,-1.208096e-003
1.542244e-004,-1.236458e-003
1.841368e-005,-1.223169e-003
-1.553203e-004,-1.174873e-003
-3.339163e-004,-1.103402e-003
-4.873921e-004,-1.018156e-003
-5.946793e-004,-9.228616e-004
-6.421645e-004,-8.223811e-004
-6.342233e-004,-7.267626e-004
-5.844692e-004,-6.418404e-004
-5.188328e-004,-5.697213e-004
-4.684305e-004,-5.018159e-004
-4.548170e-004,-4.272659e-004
-4.804233e-004,-3.428299e-004
-5.314739e-004,-2.592042e-004
-5.940311e-004,-1.896782e-004
-6.562641e-004,-1.404103e-004
-7.079630e-004,-1.000561e-004
-7.408622e-004,-4.851930e-005
-7.476690e-004,2.684107e-005
-7.223868e-004,1.192183e-004
-6.603158e-004,2.038164e-004
-5.702075e-004,2.532463e-004
-4.732924e-004,2.564877e-004
-3.893426e-004,2.261814e-004
-3.259751e-004,1.830721e-004
-2.784900e-004,1.459591e-004
-2.358668e-004,1.261871e-004
-1.898403e-004,1.287802e-004
-1.413827e-004,1.501728e-004
-9.892161e-005,1.876099e-004
-6.845333e-005,2.399570e-004
-5.127441e-005,3.026763e-004
-4.884343e-005,3.665301e-004
-6.164659e-005,4.240633e-004
-8.077030e-005,4.734932e-004
-9.697683e-005,5.133613e-004
-1.020008e-004,5.462606e-004
-9.308726e-005,5.713807e-004
-7.266703e-005,5.853184e-004
-4.608832e-005,5.851563e-004
-2.226472e-005,5.730013e-004
-3.465141e-006,5.501501e-004
1.808955e-005,5.041235e-004
4.953022e-005,4.101256e-004
9.377406e-005,2.542187e-004
1.503349e-004,4.547859e-005
2.010613e-004,-1.908126e-004
2.179161e-004,-4.249970e-004
1.858272e-004,-6.219063e-004
1.218114e-004,-7.604721e-004
5.293359e-005,-8.453943e-004
5.610517e-006,-9.029275e-004
-5.571990e-006,-9.656468e-004
1.711715e-005,-1.053162e-003
5.747142e-005,-1.147322e-003
1.036600e-004,-1.195780e-003
1.514693e-004,-1.140353e-003
2.025199e-004,-9.536540e-004
2.607014e-004,-6.526987e-004
3.243930e-004,-2.726556e-004
3.921364e-004,1.642725e-004
4.572867e-004,6.716992e-004
5.065545e-004,1.258538e-003
5.316747e-004,1.891243e-003
5.295678e-004,2.471277e-003
5.050959e-004,2.871743e-003
4.696036e-004,2.983245e-003
4.464283e-004,2.768344e-003
4.568005e-004,2.286684e-003
5.073649e-004,1.673427e-003
5.734875e-004,1.078808e-003
6.140039e-004,6.170832e-004
5.932595e-004,3.336308e-004
5.072028e-004,2.094887e-004
3.919743e-004,1.872858e-004
2.986247e-004,2.094887e-004
2.702632e-004,2.419018e-004
3.190449e-004,2.735045e-004
4.193634e-004,2.940868e-004
5.169268e-004,2.892249e-004
5.439916e-004,2.419018e-004
4.590694e-004,1.445005e-004
2.597290e-004,7.717366e-006
-1.691656e-005,-1.418689e-004
-3.160891e-004,-2.763831e-004
-5.810658e-004,-3.807532e-004
-7.784614e-004,-4.574101e-004
-8.988759e-004,-5.170500e-004
-9.492782e-004,-5.676145e-004
-9.371233e-004,-6.019723e-004
-8.671111e-004,-6.123445e-004
-7.559343e-004,-5.959758e-004
-6.314681e-004,-5.598353e-004
-5.211017e-004,-5.167259e-004
-4.426621e-004,-4.766958e-004
-3.990665e-004,-4.405553e-004
-3.825359e-004,-4.087905e-004
-3.807532e-004,-3.848048e-004
-3.885323e-004,-3.784843e-004
-3.992286e-004,-4.021458e-004
-4.010113e-004,-4.501171e-004
-3.877220e-004,-5.000332e-004
-3.522297e-004,-5.282326e-004
-2.880518e-004,-5.219121e-004
-2.005366e-004,-4.927403e-004
-1.070249e-004,-4.651892e-004
-1.416145e-005,-4.531963e-004
7.902610e-005,-4.530343e-004
1.701068e-004,-4.598410e-004
2.517878e-004,-4.726442e-004
3.128864e-004,-4.883645e-004
3.431926e-004,-5.001953e-004
3.430306e-004,-5.014918e-004
3.161277e-004,-4.831784e-004
2.717218e-004,-4.410415e-004
2.243987e-004,-3.745947e-004
1.947408e-004,-2.882139e-004
1.976579e-004,-1.810887e-004
2.360674e-004,-5.759496e-005
2.958695e-004,6.914012e-005
3.538890e-004,1.681620e-004
3.895433e-004,2.018716e-004
3.947294e-004,1.537382e-004
3.733368e-004,4.207521e-005
3.389789e-004,-9.227693e-005
2.974902e-004,-2.091260e-004
2.514636e-004,-2.780038e-004
2.036544e-004,-2.867553e-004
1.598967e-004,-2.418632e-004
1.211631e-004,-1.626133e-004
8.745350e-005,-7.542214e-005
5.990240e-005,-4.761664e-006
4.369587e-005,3.688912e-005
5.131294e-005,4.855783e-005
8.810177e-005,3.494434e-005
1.432040e-004,5.772582e-006
1.924718e-004,-2.696461e-005
2.148369e-004,-5.467778e-005
1.979821e-004,-7.218083e-005
1.436902e-004,-6.861539e-005
7.302970e-005,-2.194059e-005
1.695509e-005,9.182927e-005
6.258778e-006,2.702632e-004
4.758544e-005,4.717105e-004
1.224596e-004,6.276174e-004
1.978200e-004,6.789921e-004
2.454672e-004,6.161107e-004
2.509774e-004,4.756001e-004
2.141886e-004,3.132105e-004
1.407730e-004,1.764274e-004
4.077869e-005,8.745350e-005
-6.877746e-005,4.013043e-005
-1.697442e-004,1.436204e-005
-2.436459e-004,-6.868513e-006
-2.854588e-004,-2.874733e-005
-3.011791e-004,-4.932962e-005
-3.079858e-004,-6.342931e-005
-3.243544e-004,-7.056019e-005
-3.549848e-004,-7.412562e-005
-3.919357e-004,-7.234290e-005
-4.162455e-004,-5.970181e-005
-4.078181e-004,-3.733679e-005
-3.566054e-004,-1.205460e-005
-2.723315e-004,5.772582e-006
-1.848162e-004,1.079661e-005
-1.276072e-004,4.800190e-006
-1.146419e-004,-6.058186e-006
-1.408965e-004,-1.918548e-005
-1.869231e-004,-3.134038e-005
-2.334358e-004,-4.138842e-005
-2.715212e-004,-4.900550e-005
-2.977757e-004,-5.500191e-005
-3.094444e-004,-5.921561e-005
-3.055549e-004,-6.197072e-005
-2.827037e-004,-6.456377e-005
-2.400805e-004,-6.861539e-005
-1.861127e-004,-7.428769e-005
-1.358725e-004,-8.141856e-005
-1.008664e-004,-8.935975e-005
-7.461182e-005,-9.422172e-005
-3.928157e-005,-9.811128e-005
1.014835e-005,-1.102662e-004
6.136099e-005,-1.434896e-004
9.004655e-005,-2.073433e-004
7.724339e-005,-2.974516e-004
2.586868e-005,-3.924218e-004
-4.122636e-005,-4.681064e-004
-9.308726e-005,-5.060296e-004
-1.073490e-004,-5.014918e-004
-7.509801e-005,-4.622720e-004
-2.816880e-006,-4.018217e-004
8.761557e-005,-3.337542e-004
1.701068e-004,-2.718453e-004
2.321778e-004,-2.269532e-004
2.713977e-004,-2.065330e-004
2.939248e-004,-2.060468e-004
3.125623e-004,-2.110708e-004
3.370341e-004,-2.060468e-004
3.632887e-004,-1.793060e-004
3.759298e-004,-1.271210e-004
3.618301e-004,-5.046408e-005
3.164518e-004,3.834771e-005
2.477361e-004,1.221355e-004
1.671896e-004,1.895547e-004
8.826383e-005,2.360674e-004
2.619281e-005,2.608634e-004
-4.761664e-006,2.731804e-004
-3.789272e-006,2.817699e-004
1.565857e-005,2.871180e-004
3.656499e-005,2.979764e-004
4.855783e-005,3.337929e-004
5.698522e-005,4.068843e-004
6.946425e-005,5.156302e-004
8.745350e-005,6.439860e-004
1.028497e-004,7.721797e-004
1.085220e-004,8.861118e-004
9.766362e-005,9.747617e-004
6.735741e-005,1.027919e-003
1.889987e-005,1.043477e-003
-3.879538e-005,1.030026e-003
-8.530812e-005,9.992336e-004
-1.024871e-004,9.575827e-004
-9.357346e-005,9.060458e-004
-7.039812e-005,8.392748e-004
-4.479180e-005,7.562974e-004
-2.874733e-005,6.734819e-004
-2.777494e-005,6.151384e-004
-4.349527e-005,5.875872e-004
-7.218083e-005,5.715428e-004
-1.141558e-004,5.358884e-004
-1.705545e-004,4.608521e-004
-2.407288e-004,3.436788e-004
-3.198166e-004,1.976579e-004
-3.980942e-004,5.034055e-005
-4.600031e-004,-6.002594e-005
-4.872300e-004,-1.086455e-004
-4.695649e-004,-1.003802e-004
-4.139766e-004,-6.958779e-005
-3.455850e-004,-5.646050e-005
-2.862691e-004,-8.595638e-005
-2.441321e-004,-1.527273e-004
-2.053985e-004,-2.229016e-004
-1.481895e-004,-2.564491e-004
-6.229485e-005,-2.298704e-004
4.418206e-005,-1.381414e-004
1.574657e-004,-8.720959e-007
2.611876e-004,1.464453e-004
3.457857e-004,2.574601e-004
4.075326e-004,2.876042e-004
4.462662e-004,2.135403e-004
4.559901e-004,4.402000e-005
4.320045e-004,-1.833576e-004
3.751195e-004,-4.240246e-004
2.940868e-004,-6.467023e-004
2.013854e-004,-8.424772e-004
1.193804e-004,-1.010701e-003
7.221937e-005,-1.145539e-003
6.525056e-005,-1.235323e-003
8.486046e-005,-1.263361e-003
1.085220e-004,-1.221872e-003
1.227837e-004,-1.121392e-003
1.245665e-004,-9.855808e-004
1.257009e-004,-8.361567e-004
1.368834e-004,-6.902979e-004
1.603829e-004,-5.572423e-004
1.913374e-004,-4.352071e-004
2.180782e-004,-3.167374e-004
2.260194e-004,-2.049123e-004
2.047888e-004,-1.117248e-004
1.568175e-004,-4.965376e-005
9.669123e-005,-2.226472e-005
4.564065e-005,-2.145439e-005
1.468618e-005,-4.754691e-005
-6.176923e-008,-1.000561e-004
-1.237873e-005,-1.731475e-004
-4.041603e-005,-2.491561e-004
-8.838737e-005,-3.134961e-004
-1.410586e-004,-3.551469e-004
-1.708786e-004,-3.694086e-004
-1.561307e-004,-3.540124e-004
-9.454585e-005,-3.089583e-004
-1.108221e-005,-2.373254e-004
6.460230e-005,-1.468929e-004
1.119254e-004,-3.863332e-005
1.284560e-004,8.469840e-005
1.154908e-004,2.211574e-004
8.032264e-005,3.655576e-004
3.202716e-005,5.138475e-004
-2.031993e-005,6.533858e-004
-6.877746e-005,7.635903e-004
-1.104282e-004,8.250132e-004
-1.425172e-004,8.360335e-004
-1.575893e-004,8.242028e-004
-1.418689e-004,8.357094e-004
-8.741498e-005,9.065320e-004
-1.196227e-006,1.034402e-003
1.020394e-004,1.192254e-003
2.000889e-004,1.334061e-003
2.668598e-004,1.402128e-003
2.796630e-004,1.341516e-003
2.336365e-004,1.126455e-003
1.391524e-004,7.804451e-004
1.614476e-005,3.687990e-004
-1.146419e-004,-2.356124e-005
-2.395943e-004,-3.332680e-004
-3.579019e-004,-5.399013e-004
-4.726442e-004,-6.536711e-004
-5.794452e-004,-6.915944e-004
-6.601537e-004,-6.776568e-004
-6.972667e-004,-6.296854e-004
-6.873807e-004,-5.661559e-004
-6.460540e-004,-5.021401e-004
-5.922483e-004,-4.525481e-004
-5.309877e-004,-4.295348e-004
-4.463896e-004,-4.413656e-004
-3.240303e-004,-4.856094e-004
-1.619650e-004,-5.504355e-004
1.938607e-005,-6.217443e-004
1.885823e-004,-6.851118e-004
3.180725e-004,-7.394037e-004
3.901916e-004,-7.865646e-004
3.982949e-004,-8.225431e-004
3.443271e-004,-8.416669e-004
2.446569e-004,-8.403703e-004
1.242423e-004,-8.173570e-004
1.338965e-005,-7.773269e-004
-6.488790e-005,-7.246558e-004
-9.843541e-005,-6.619364e-004
-8.449780e-005,-5.958138e-004
-2.955766e-005,-5.327704e-004
5.228533e-005,-4.666478e-004
1.451488e-004,-3.914495e-004
2.362295e-004,-3.141443e-004
3.099692e-004,-2.528836e-004
3.449753e-004,-2.227395e-004
3.264999e-004,-2.254946e-004
2.637806e-004,-2.493182e-004
1.877720e-004,-2.736280e-004
1.354248e-004,-2.804347e-004
1.197045e-004,-2.655248e-004
1.339663e-004,-2.429977e-004
1.602208e-004,-2.313290e-004
1.804790e-004,-2.374874e-004
1.791825e-004,-2.562870e-004
1.508211e-004,-2.684419e-004
1.025256e-004,-2.567732e-004
4.191315e-005,-2.141500e-004
-2.631635e-005,-1.373311e-004
-9.956988e-005,-2.550602e-005
-1.635857e-004,1.281319e-004
-2.005366e-004,3.409237e-004
-2.034537e-004,6.321552e-004
-1.807646e-004,1.001989e-003
-1.524032e-004,1.397267e-003
-1.277692e-004,1.720426e-003
-1.067007e-004,1.874064e-003
-8.854943e-005,1.815720e-003
-7.688073e-005,1.576673e-003
-7.995997e-005,1.238442e-003
-9.875954e-005,8.901635e-004
-1.208004e-004,6.046041e-004
-1.302002e-004,4.208219e-004
-1.211246e-004,3.378445e-004
-1.024871e-004,3.279585e-004
-8.530812e-005,3.592371e-004
-8.303922e-005,4.070464e-004
-1.083214e-004,4.465904e-004
-1.608306e-004,4.602039e-004
-2.235498e-004,4.389733e-004
-2.656868e-004,3.866261e-004
-2.569353e-004,3.179104e-004
-1.887058e-004,2.547049e-004
-7.444975e-005,2.263435e-004
6.476436e-005,2.487085e-004
2.080301e-004,3.146691e-004
3.530786e-004,3.979707e-004
5.065545e-004,4.668485e-004
6.644063e-004,4.984512e-004
8.049170e-004,4.927790e-004
8.900014e-004,4.637693e-004
8.874084e-004,4.307079e-004
7.921138e-004,4.073705e-004
6.321552e-004,3.905157e-004
4.522626e-004,3.692851e-004
2.884145e-004,3.383307e-004
1.636242e-004,2.979764e-004
8.793970e-005,2.532463e-004
4.920609e-005,2.107852e-004
1.841368e-005,1.723757e-004
-3.117831e-005,1.360731e-004
-1.086455e-004,9.879808e-005
-2.005366e-004,5.585077e-005
-2.830278e-004,1.072688e-006
-3.379679e-004,-6.877746e-005
-3.572537e-004,-1.566169e-004
-3.530400e-004,-2.577456e-004
-3.481781e-004,-3.661673e-004
-3.579019e-004,-4.843129e-004
-3.809152e-004,-6.134789e-004
-4.117076e-004,-7.462104e-004
-4.483344e-004,-8.695421e-004
-4.911196e-004,-9.695364e-004
-5.356876e-004,-1.033714e-003
-5.716661e-004,-1.054783e-003
-5.847933e-004,-1.038090e-003
-5.703696e-004,-1.000815e-003
-5.274223e-004,-9.649985e-004
-4.565997e-004,-9.461989e-004
-3.553089e-004,-9.466851e-004
-2.272773e-004,-9.572194e-004
-8.303922e-005,-9.596504e-004
5.974033e-005,-9.390680e-004
1.817755e-004,-8.812108e-004
2.707494e-004,-7.789475e-004
3.219621e-004,-6.321164e-004
3.405996e-004,-4.554653e-004
3.461098e-004,-2.663351e-004
3.592371e-004,-7.266703e-005
3.866261e-004,1.245665e-004
4.164462e-004,3.214759e-004
4.365423e-004,5.078511e-004
4.399457e-004,6.648925e-004
4.331389e-004,7.776900e-004
4.347596e-004,8.400852e-004
4.546936e-004,8.512677e-004
4.786793e-004,8.141547e-004
4.730070e-004,7.331221e-004
3.978086e-004,6.193521e-004
2.308813e-004,4.921307e-004
-1.189254e-005,3.699334e-004
-2.765452e-004,2.666978e-004
-5.048952e-004,1.918236e-004
-6.624226e-004,1.480659e-004
-7.431312e-004,1.234320e-004
-7.651721e-004,1.030118e-004
-7.562584e-004,7.302970e-005
-7.319486e-004,2.538249e-005
-6.917564e-004,-3.766092e-005
-6.277406e-004,-1.047560e-004
-5.347152e-004,-1.666649e-004
-4.136524e-004,-2.169052e-004
-2.817312e-004,-2.522354e-004
-1.658546e-004,-2.707109e-004
-9.260107e-005,-2.695764e-004
-6.456377e-005,-2.476975e-004
-6.407757e-005,-2.086398e-004
-5.629844e-005,-1.579134e-004
1.720949e-006,-9.503204e-005
1.363972e-004,-1.254080e-005
3.391410e-004,1.034980e-004
5.671670e-004,2.472499e-004
7.668316e-004,3.824125e-004
8.963220e-004,4.592314e-004
9.379727e-004,4.485351e-004
9.011839e-004,3.631267e-004
8.065377e-004,2.399570e-004
6.809369e-004,1.145184e-004
5.418848e-004,1.274139e-005
4.018603e-004,-5.824322e-005
2.697770e-004,-1.029732e-004
1.521176e-004,-1.293899e-004
4.904402e-005,-1.383035e-004
-3.555408e-005,-1.319829e-004
-1.028112e-004,-1.152902e-004
-1.622891e-004,-9.892161e-005
-2.159328e-004,-8.433573e-005
-2.593663e-004,-6.991193e-005
-2.814071e-004,-5.467778e-005
-2.801106e-004,-3.555408e-005
-2.622834e-004,-8.975362e-006
-2.418632e-004,3.186510e-005
-2.232257e-004,8.891209e-005
-1.985918e-004,1.530900e-004
-1.546721e-004,2.099749e-004
-8.287715e-005,2.482223e-004
1.857574e-005,2.607014e-004
1.396385e-004,2.579462e-004
2.673460e-004,2.584324e-004
3.887330e-004,2.652392e-004
4.976409e-004,2.660495e-004
5.804563e-004,2.399570e-004
6.264829e-004,1.723757e-004
6.295622e-004,6.946425e-005
5.932595e-004,-4.625038e-005
5.269747e-004,-1.536997e-004
4.420525e-004,-2.410529e-004
3.459477e-004,-3.049066e-004
2.419018e-004,-3.475298e-004
1.289422e-004,-3.781601e-004
1.549650e-005,-4.071698e-004
-7.655660e-005,-4.412035e-004
-1.331174e-004,-4.799371e-004
-1.545100e-004,-5.189948e-004
-1.566169e-004,-5.510838e-004
-1.543479e-004,-5.692351e-004
-1.577513e-004,-5.708557e-004
-1.621271e-004,-5.622663e-004
-1.554824e-004,-5.543251e-004
-1.355484e-004,-5.562698e-004
-1.161005e-004,-5.646973e-004
-1.208004e-004,-5.646973e-004
-1.606685e-004,-5.332566e-004
-2.311669e-004,-4.541688e-004
-3.190063e-004,-3.288923e-004
-4.154351e-004,-1.744440e-004
-5.131605e-004,-1.643037e-005
-6.091032e-004,1.206769e-004
-6.988873e-004,2.269918e-004
-7.761925e-004,3.013798e-004
-8.285395e-004,3.475684e-004
-8.442599e-004,3.738230e-004
-8.163847e-004,3.934329e-004
-7.499378e-004,4.107739e-004
-6.624226e-004,4.227667e-004
-5.744212e-004,4.164462e-004
-5.018159e-004,3.786850e-004
-4.515757e-004,3.080245e-004
-4.157593e-004,2.171058e-004
-3.728119e-004,1.242423e-004
-3.102548e-004,3.850978e-005
-2.251705e-004,-3.879538e-005
-1.183694e-004,-1.161005e-004
5.772582e-006,-2.021572e-004
1.323456e-004,-2.985861e-004
2.407673e-004,-4.021458e-004
3.146691e-004,-5.027883e-004
3.511338e-004,-5.852795e-004
3.600474e-004,-6.296854e-004
3.542131e-004,-6.308199e-004
3.389789e-004,-6.042412e-004
3.107795e-004,-5.719902e-004
2.650771e-004,-5.390910e-004
2.073819e-004,-4.946851e-004
1.475797e-004,-4.228902e-004
9.231547e-005,-3.079858e-004
4.888196e-005,-1.327933e-004
1.452411e-005,1.069013e-004
-1.497178e-005,3.973225e-004
-3.555408e-005,7.112432e-004
-3.685060e-005,1.019005e-003
-1.432352e-005,1.301972e-003
2.765140e-005,1.546367e-003
7.999851e-005,1.728691e-003
1.362352e-004,1.823500e-003
1.937684e-004,1.818800e-003
2.558394e-004,1.729501e-003
3.172622e-004,1.588666e-003
3.699334e-004,1.431138e-003
4.018603e-004,1.278959e-003
4.044533e-004,1.139906e-003
3.804677e-004,1.017223e-003
3.508097e-004,9.105837e-004
3.324963e-004,8.149651e-004
3.318480e-004,7.216153e-004
3.347652e-004,6.308587e-004
3.156415e-004,5.459364e-004
2.652392e-004,4.662003e-004
1.903650e-004,3.877606e-004
1.081979e-004,3.062417e-004
4.158902e-005,2.164575e-004
8.689758e-006,1.099806e-004
1.031041e-005,-2.064406e-005
3.121684e-005,-1.705545e-004
5.487838e-005,-3.199787e-004
7.076078e-005,-4.446069e-004
7.351589e-005,-5.342290e-004
6.346784e-005,-6.108859e-004
5.034055e-005,-7.008321e-004
5.358185e-005,-8.134675e-004
8.583286e-005,-9.463610e-004
1.462832e-004,-1.087034e-003
2.148369e-004,-1.213121e-003
2.683184e-004,-1.300798e-003
2.921420e-004,-1.337587e-003
2.866318e-004,-1.336614e-003
2.603772e-004,-1.323973e-003
2.290986e-004,-1.324621e-003
2.002510e-004,-1.353469e-003
1.773998e-004,-1.400144e-003
1.477418e-004,-1.437905e-003
9.361199e-005,-1.439850e-003
1.209313e-005,-1.386206e-003
-7.736692e-005,-1.269843e-003
-1.481895e-004,-1.084765e-003
-1.836818e-004,-8.176812e-004
-1.818991e-004,-4.494688e-004
-1.481895e-004,3.179537e-006
-9.162867e-005,4.624728e-004
-2.177852e-005,8.285785e-004
4.677511e-005,1.025650e-003
9.782569e-005,1.042019e-003
1.224596e-004,9.373245e-004
1.169494e-004,8.028102e-004
8.275361e-005,7.128638e-004
3.121684e-005,6.866092e-004
-2.129233e-005,6.940642e-004
-6.261898e-005,6.901747e-004
-8.854943e-005,6.402585e-004
-1.081593e-004,5.384815e-004
-1.347380e-004,4.068843e-004
-1.746061e-004,2.838767e-004
-2.246843e-004,1.991165e-004
-2.758969e-004,1.613553e-004
-3.228959e-004,1.532520e-004
-3.695707e-004,1.477418e-004
-4.222419e-004,1.210010e-004
-4.873921e-004,6.849186e-005
-5.595111e-004,-2.330684e-006
-6.227166e-004,-7.655660e-005
-6.572366e-004,-1.464067e-004
-6.460540e-004,-2.083157e-004
-5.843072e-004,-2.624455e-004
-4.789647e-004,-3.110651e-004
-3.544986e-004,-3.606571e-004
-2.473734e-004,-4.076560e-004
-1.823853e-004,-4.329382e-004
-1.656925e-004,-4.173799e-004
-1.755785e-004,-3.583881e-004
-1.721751e-004,-2.653627e-004
-1.240417e-004,-1.506204e-004
-2.761287e-005,-2.534396e-005
8.875003e-005,9.490851e-005
1.924718e-004,1.953890e-004
2.655633e-004,2.694529e-004
3.151553e-004,3.243930e-004
3.597233e-004,3.694472e-004
4.135290e-004,4.104497e-004
4.676588e-004,4.444835e-004
4.900239e-004,4.674968e-004
4.486972e-004,4.770586e-004
3.381686e-004,4.768966e-004
1.858272e-004,4.702519e-004
4.402000e-005,4.619866e-004
-4.592625e-005,4.537212e-004
-6.342931e-005,4.431870e-004
-1.545797e-005,4.187151e-004
6.995045e-005,3.642611e-004
1.556830e-004,2.728562e-004
2.124059e-004,1.487142e-004
2.326641e-004,1.808955e-005
2.308813e-004,-8.806324e-005
2.243987e-004,-1.549962e-004
2.253711e-004,-1.862748e-004
2.313675e-004,-1.953505e-004
2.297469e-004,-1.985918e-004
2.175920e-004,-2.073433e-004
1.931201e-004,-2.266291e-004
1.537382e-004,-2.656868e-004
1.046324e-004,-3.284061e-004
5.844381e-005,-3.979321e-004
2.392390e-005,-4.468758e-004
2.531276e-006,-4.614617e-004
-1.480971e-005,-4.512515e-004
-4.300908e-005,-4.314796e-004
-8.579432e-005,-4.110594e-004
-1.358725e-004,-3.778360e-004
-1.781716e-004,-3.128478e-004
-2.005366e-004,-2.152845e-004
-2.047502e-004,-1.084835e-004
-2.041020e-004,-2.583016e-005
-2.115570e-004,7.231170e-006
-2.272773e-004,-1.432352e-005
-2.446183e-004,-7.704279e-005
-2.579077e-004,-1.538618e-004
-2.608248e-004,-2.233878e-004
-2.588801e-004,-2.750866e-004
-2.630937e-004,-3.183580e-004
-2.796244e-004,-3.619536e-004
-3.112272e-004,-4.024699e-004
-3.549848e-004,-4.266177e-004
-4.068457e-004,-4.228902e-004
-4.564377e-004,-3.990665e-004
-4.898231e-004,-3.734602e-004
-4.924161e-004,-3.626019e-004
-4.548170e-004,-3.708672e-004
-3.770257e-004,-3.946908e-004
-2.700626e-004,-4.238625e-004
-1.559686e-004,-4.478482e-004
-6.099833e-005,-4.606514e-004
2.693341e-006,-4.596790e-004
4.531652e-005,-4.382863e-004
8.372601e-005,-3.835083e-004
1.253768e-004,-2.865932e-004
1.577899e-004,-1.509446e-004
1.605450e-004,6.258778e-006
1.184080e-004,1.613553e-004
3.543054e-005,2.927903e-004
-6.553616e-005,3.929467e-004
-1.420310e-004,4.676588e-004
-1.548341e-004,5.255162e-004
-8.822530e-005,5.657084e-004
4.142696e-005,5.809425e-004
1.913374e-004,5.616568e-004
3.140208e-004,5.025029e-004
3.785229e-004,4.046154e-004
3.837090e-004,2.861456e-004
3.441650e-004,1.751309e-004
2.842008e-004,9.977047e-005
2.196988e-004,7.870197e-005
1.616794e-004,1.179218e-004
1.197045e-004,2.070577e-004
1.033359e-004,3.216380e-004
1.226217e-004,4.383250e-004
1.726999e-004,5.415607e-004
2.402811e-004,6.159487e-004
2.986247e-004,6.470652e-004
3.261758e-004,6.433378e-004
3.114278e-004,6.295622e-004
2.581083e-004,6.274553e-004
1.850168e-004,6.452826e-004
1.104668e-004,6.827196e-004
4.466826e-005,7.392805e-004
-7.516774e-006,8.172340e-004
-4.803310e-005,9.156077e-004
-7.979791e-005,1.024516e-003
-1.018388e-004,1.117704e-003
-1.092938e-004,1.158868e-003
-1.023250e-004,1.115110e-003
-8.352541e-005,9.731410e-004
-6.002594e-005,7.462493e-004
-3.004385e-005,4.691174e-004
1.841368e-005,1.796687e-004
9.409818e-005,-8.692878e-005
1.908512e-004,-3.100927e-004
2.858215e-004,-4.859335e-004
3.577785e-004,-6.227166e-004
3.950536e-004,-7.282211e-004
3.982949e-004,-8.120089e-004
3.749574e-004,-8.881796e-004
3.430306e-004,-9.705087e-004
3.133726e-004,-1.057214e-003
2.926282e-004,-1.135329e-003
2.751252e-004,-1.178276e-003
2.519498e-004,-1.164339e-003
2.145127e-004,-1.082658e-003
1.611932e-004,-9.353406e-004
9.474644e-005,-7.262764e-004
1.906194e-005,-4.504412e-004
-5.970181e-005,-9.697683e-005
-1.358725e-004,3.138588e-004
-2.031296e-004,7.143224e-004
-2.543422e-004,1.025164e-003
-2.805968e-004,1.188850e-003
-2.814071e-004,1.189012e-003
-2.653627e-004,1.048826e-003
-2.491561e-004,8.170719e-004
-2.374874e-004,5.496639e-004
-2.253326e-004,3.033245e-004
-2.070192e-004,1.175977e-004
-1.810887e-004,9.013889e-006
-1.535376e-004,-2.534396e-005
-1.334415e-004,4.151929e-006
-1.227452e-004,8.615699e-005
-1.170729e-004,1.979821e-004
-1.088076e-004,3.067279e-004
-9.243900e-005,3.778746e-004
-7.363943e-005,3.937570e-004
-5.727083e-005,3.527545e-004
-4.430560e-005,2.670219e-004
-3.344723e-005,1.519555e-004
-1.707863e-005,2.295151e-005
1.176900e-005,-1.018388e-004
5.893001e-005,-2.045882e-004
1.221355e-004,-2.781658e-004
1.976579e-004,-3.217614e-004
2.759355e-004,-3.410472e-004
3.409237e-004,-3.438023e-004
3.712299e-004,-3.352128e-004
3.509718e-004,-3.177098e-004
2.843629e-004,-2.899966e-004
1.963614e-004,-2.601766e-004
1.148425e-004,-2.425115e-004
6.444023e-005,-2.410529e-004
4.871989e-005,-2.467252e-004
5.649903e-005,-2.407288e-004
6.703327e-005,-2.037779e-004
5.585077e-005,-1.250141e-004
1.079661e-005,-1.237873e-005
-5.646050e-005,1.159770e-004
-1.185315e-004,2.381743e-004
-1.536997e-004,3.331446e-004
-1.499722e-004,3.898674e-004
-1.089697e-004,4.073705e-004
-4.932962e-005,3.877606e-004
8.041497e-006,3.341170e-004
4.353380e-005,2.488706e-004
4.320967e-005,1.368834e-004
4.638125e-006,1.144487e-005
-5.905355e-005,-1.047560e-004
-1.214487e-004,-1.911368e-004
-1.613168e-004,-2.418632e-004
-1.665028e-004,-2.681178e-004
-1.323071e-004,-2.937241e-004
-6.910160e-005,-3.373197e-004
-7.354709e-006,-4.084663e-004
2.197911e-005,-4.990608e-004
1.160693e-005,-5.943552e-004
-2.647842e-005,-6.740913e-004
-6.893953e-005,-7.236833e-004
-9.551824e-005,-7.385933e-004
-1.029732e-004,-7.304901e-004
-1.026491e-004,-7.206041e-004
-1.068628e-004,-7.256281e-004
-1.216107e-004,-7.500999e-004
-1.457585e-004,-7.833233e-004
-1.818991e-004,-8.069849e-004
-2.277635e-004,-8.050401e-004
-2.653627e-004,-7.718167e-004
-2.796244e-004,-7.069906e-004
-2.692523e-004,-6.152617e-004
-2.507768e-004,-5.084606e-004
-2.429977e-004,-4.070078e-004
-2.528836e-004,-3.258130e-004
-2.823795e-004,-2.739521e-004
-3.233821e-004,-2.483458e-004
-3.583881e-004,-2.344082e-004
-3.619536e-004,-2.169052e-004
-3.186821e-004,-1.851404e-004
-2.397564e-004,-1.430034e-004
-1.652063e-004,-1.010285e-004
-1.350622e-004,-6.699475e-005
-1.681235e-004,-4.349527e-005
-2.569353e-004,-2.485776e-005
-3.723258e-004,-3.141010e-006
-4.843129e-004,3.202716e-005
-5.718282e-004,8.761557e-005
-6.270924e-004,1.654069e-004
-6.512401e-004,2.550291e-004
-6.450817e-004,3.407616e-004
-5.995413e-004,4.076947e-004
-5.068399e-004,4.469145e-004
-3.692465e-004,4.568005e-004
-2.055606e-004,4.388112e-004
-3.928157e-005,4.005638e-004
1.159770e-004,3.550234e-004
2.615117e-004,3.145071e-004
4.007258e-004,2.851732e-004
5.277851e-004,2.675081e-004
6.365310e-004,2.568118e-004
7.211292e-004,2.469258e-004
7.869278e-004,2.329882e-004
8.465679e-004,2.099749e-004
9.047493e-004,1.778860e-004
9.541793e-004,1.428799e-004
9.760582e-004,1.124116e-004
9.454277e-004,9.393612e-005
8.559676e-004,8.956036e-005
7.321496e-004,9.701536e-005
6.211348e-004,1.175977e-004
5.689497e-004,1.487142e-004
5.992560e-004,1.778860e-004
6.971435e-004,1.908512e-004
8.182063e-004,1.812893e-004
9.105837e-004,1.566554e-004
9.360280e-004,1.294284e-004
8.820602e-004,1.112771e-004
7.592146e-004,1.090082e-004
5.926113e-004,1.235941e-004
4.183910e-004,1.535762e-004
2.691288e-004,1.978200e-004
1.576278e-004,2.579462e-004
8.080883e-005,3.324963e-004
3.445814e-005,4.115842e-004
1.582063e-005,4.812723e-004
1.695509e-005,5.271368e-004
2.505836e-005,5.389676e-004
3.397195e-005,5.135234e-004
3.802358e-005,4.555039e-004
3.543054e-005,3.845193e-004
2.408596e-005,3.247172e-004
4.313994e-006,2.923041e-004
-2.145439e-005,2.901973e-004
-5.111234e-005,3.067279e-004
-7.769106e-005,3.245551e-004
-1.008664e-004,3.250413e-004
-1.300382e-004,2.963557e-004
-1.757406e-004,2.331503e-004
-2.412149e-004,1.470936e-004
-3.297026e-004,5.876794e-005
-4.332623e-004,-1.335113e-005
-5.381186e-004,-6.083626e-005
-6.267683e-004,-8.563225e-005
-6.938633e-004,-8.968389e-005
-7.392416e-004,-7.558420e-005
-7.687375e-004,-4.884343e-005
-7.938576e-004,-1.497178e-005
-8.212466e-004,1.322759e-005
-8.491218e-004,1.760335e-005
-8.679214e-004,-8.975362e-006
-8.588458e-004,-6.667062e-005
-8.029332e-004,-1.418689e-004
-6.932151e-004,-2.120432e-004
-5.458977e-004,-2.512630e-004
-3.925839e-004,-2.415391e-004
-2.655248e-004,-1.853024e-004
-1.891920e-004,-1.039456e-004
-1.690959e-004,-2.761287e-005
-1.930815e-004,1.582063e-005
-2.412149e-004,1.112074e-005
-2.972895e-004,-3.150244e-005
-3.577399e-004,-9.114248e-005
-4.269418e-004,-1.485136e-004
-5.006815e-004,-1.943781e-004
-5.661559e-004,-2.276015e-004
-6.055377e-004,-2.494803e-004
-6.045654e-004,-2.640662e-004
-5.591870e-004,-2.694143e-004
-4.794509e-004,-2.609869e-004
-3.839945e-004,-2.353806e-004
-2.922655e-004,-1.963229e-004
-2.146363e-004,-1.488377e-004
-1.522411e-004,-9.697683e-005
-1.021629e-004,-4.236082e-005
-5.824322e-005,1.403791e-005
-2.437157e-005,6.865393e-005
-3.789272e-006,1.154908e-004
7.879432e-006,1.514693e-004
2.068259e-005,1.775618e-004
4.434413e-005,1.965235e-004
8.745350e-005,2.077060e-004
1.500107e-004,2.088404e-004
2.224539e-004,2.020337e-004
2.957075e-004,1.892305e-004
3.720403e-004,1.720516e-004
4.589073e-004,1.493625e-004
5.529052e-004,1.172735e-004
6.365310e-004,7.416415e-005
6.906608e-004,2.262738e-005
7.041123e-004,-3.360929e-005
6.875816e-004,-8.984595e-005
6.614891e-004,-1.374932e-004
6.491721e-004,-1.655305e-004
6.571133e-004,-1.681235e-004
6.763991e-004,-1.541859e-004
6.874196e-004,-1.279313e-004
6.744543e-004,-8.368748e-005
6.423654e-004,-8.489166e-006
6.073592e-004,1.023635e-004
5.768909e-004,2.321778e-004
5.391297e-004,3.522683e-004
4.739794e-004,4.367043e-004
3.653956e-004,4.736553e-004
2.146748e-004,4.649037e-004
4.288554e-005,4.263322e-004
-1.177212e-004,3.720403e-004
-2.368392e-004,3.080245e-004
-2.985861e-004,2.329882e-004
-3.047445e-004,1.526038e-004
-2.726556e-004,8.259155e-005
-2.285739e-004,4.126489e-005
-1.994021e-004,3.267542e-005
-2.006986e-004,3.948217e-005
-2.332737e-004,3.543054e-005
-2.797865e-004,8.203562e-006
-3.107410e-004,-3.911951e-005
-3.010170e-004,-9.794922e-005
-2.459149e-004,-1.622891e-004
-1.687718e-004,-2.254946e-004
-1.007043e-004,-2.830278e-004
-5.889148e-005,-3.219235e-004
-3.976777e-005,-3.280820e-004
-2.210265e-005,-3.008550e-004
1.565857e-005,-2.538560e-004
7.627100e-005,-2.013469e-004
1.487142e-004,-1.493239e-004
2.174299e-004,-7.995997e-005
2.681563e-004,2.246531e-005
2.853353e-004,1.521176e-004
2.619979e-004,2.863077e-004
1.997648e-004,3.914881e-004
1.098185e-004,4.378388e-004
7.879432e-006,4.117463e-004
-9.341139e-005,3.264999e-004
-1.802784e-004,2.135403e-004
-2.467252e-004,9.960841e-005
-2.919414e-004,-5.479652e-007
-3.168994e-004,-8.709085e-005
-3.186821e-004,-1.724993e-004
-2.937241e-004,-2.752487e-004
-2.433218e-004,-4.076560e-004
-1.848162e-004,-5.693972e-004
-1.339277e-004,-7.436173e-004
-9.649064e-005,-9.045482e-004
-6.958779e-005,-1.025287e-003
-4.608832e-005,-1.092058e-003
-2.145439e-005,-1.111992e-003
-8.489166e-006,-1.105995e-003
-2.307504e-005,-1.104537e-003
-6.861539e-005,-1.129657e-003
-1.289037e-004,-1.185731e-003
-1.770371e-004,-1.263685e-003
-1.916230e-004,-1.345690e-003
-1.606685e-004,-1.410516e-003
-8.854943e-005,-1.436609e-003
9.175954e-006,-1.406464e-003
1.064152e-004,-1.310522e-003
1.811273e-004,-1.152832e-003
2.279642e-004,-9.444162e-004
2.467637e-004,-6.974287e-004
2.367157e-004,-4.248349e-004
1.921477e-004,-1.465688e-004
1.099806e-004,1.072255e-004
-5.896120e-006,3.112658e-004
-1.357104e-004,4.582590e-004
-2.575835e-004,5.538776e-004
-3.488263e-004,6.046041e-004
-3.862634e-004,6.154625e-004
-3.561192e-004,5.940699e-004
-2.569353e-004,5.506363e-004
-1.057284e-004,5.047718e-004
6.200925e-005,4.731691e-004
2.075439e-004,4.691174e-004
3.067279e-004,4.973168e-004
3.566440e-004,5.490156e-004
3.743092e-004,6.063868e-004
3.830607e-004,6.488480e-004
4.042913e-004,6.577615e-004
4.444835e-004,6.242140e-004
4.984512e-004,5.551741e-004
5.572810e-004,4.720346e-004
6.174073e-004,3.963501e-004
6.789921e-004,3.474063e-004
7.300428e-004,3.443271e-004
7.528940e-004,4.004017e-004
7.352289e-004,5.169268e-004
6.780197e-004,6.789921e-004
5.947181e-004,8.733086e-004
5.041235e-004,1.096311e-003
4.273046e-004,1.348647e-003
3.743092e-004,1.617028e-003
3.360618e-004,1.867905e-003
2.890628e-004,2.050392e-003
2.088404e-004,2.118297e-003
8.777764e-005,2.049743e-003
-6.537409e-005,1.857371e-003
-2.297083e-004,1.578780e-003
-3.752429e-004,1.264211e-003
-4.788027e-004,9.632549e-004
-5.327704e-004,7.109190e-004
-5.418460e-004,5.292437e-004
-5.133225e-004,4.234150e-004
-4.528722e-004,3.769022e-004
-3.627639e-004,3.585888e-004
-2.504527e-004,3.375204e-004
-1.323071e-004,2.997591e-004
-3.263690e-005,2.449810e-004
2.149292e-005,1.773998e-004
1.987227e-005,1.017153e-004
-2.696461e-005,2.392390e-005
-9.341139e-005,-4.770897e-005
-1.585616e-004,-1.136696e-004
-2.178775e-004,-1.825473e-004
-2.817312e-004,-2.619593e-004
-3.614674e-004,-3.541745e-004
-4.596790e-004,-4.510895e-004
-5.706937e-004,-5.436288e-004
-6.774947e-004,-6.222305e-004
-7.617687e-004,-6.808981e-004
-8.163847e-004,-7.188214e-004
-8.570630e-004,-7.379451e-004
-9.006586e-004,-7.379451e-004
-9.512230e-004,-7.201179e-004
-1.001949e-003,-6.901358e-004
-1.047328e-003,-6.522125e-004
-1.074879e-003,-6.146134e-004
-1.068234e-003,-5.877105e-004
-1.010701e-003,-5.867381e-004
-8.985517e-004,-6.269303e-004
-7.442656e-004,-7.068285e-004
-5.728005e-004,-8.048780e-004
-4.053871e-004,-8.896381e-004
-2.498044e-004,-9.387439e-004
-1.007043e-004,-9.450645e-004
6.038860e-005,-9.157307e-004
2.495189e-004,-8.650042e-004
4.551798e-004,-8.137916e-004
6.436619e-004,-7.823510e-004
7.768797e-004,-7.860785e-004
8.326302e-004,-8.201121e-004
8.070238e-004,-8.588458e-004
7.174017e-004,-8.697041e-004
6.010387e-004,-8.312946e-004
5.046097e-004,-7.374589e-004
4.662003e-004,-5.862520e-004
4.953720e-004,-3.770257e-004
5.657084e-004,-9.875954e-005
6.417171e-004,2.628082e-004
6.880678e-004,6.963331e-004
6.843403e-004,1.134072e-003
6.358828e-004,1.469224e-003
5.644119e-004,1.605359e-003
5.054200e-004,1.504392e-003
5.036374e-004,1.206515e-003
5.924492e-004,8.049170e-004
7.640765e-004,4.023465e-004
9.655239e-004,7.302970e-005
1.132289e-003,-1.609926e-004
1.225315e-003,-3.178718e-004
1.239415e-003,-4.288866e-004
1.190471e-003,-5.108916e-004
1.098418e-003,-5.595111e-004
9.783271e-004,-5.645352e-004
8.348991e-004,-5.236948e-004
6.726716e-004,-4.523860e-004
5.086614e-004,-3.723258e-004
3.587509e-004,-3.060411e-004
2.261814e-004,-2.598524e-004
1.039842e-004,-2.269532e-004
-1.205460e-005,-1.875713e-004
-1.216107e-004,-1.331174e-004
-2.139880e-004,-6.861539e-005
-2.856209e-004,-1.092015e-005
-3.403989e-004,2.619281e-005
-3.912874e-004,4.013043e-005
-4.450931e-004,3.413401e-005
-5.034366e-004,1.403791e-005
-5.614560e-004,-1.140634e-005
-6.150996e-004,-3.636440e-005
-6.630709e-004,-4.689865e-005
-6.980770e-004,-2.971972e-005
-7.081250e-004,1.679302e-005
-6.847876e-004,8.275361e-005
-6.319543e-004,1.438522e-004
-5.621043e-004,1.718896e-004
-4.922541e-004,1.566554e-004
-4.374760e-004,1.104668e-004
-4.006872e-004,5.098881e-005
-3.783222e-004,-3.303076e-006
-3.687603e-004,-4.511593e-005
-3.695707e-004,-7.072225e-005
-3.775118e-004,-8.158062e-005
-3.943667e-004,-8.093236e-005
-4.224039e-004,-7.850138e-005
-4.638926e-004,-8.514606e-005
-5.175362e-004,-1.055663e-004
-5.724764e-004,-1.329553e-004
-6.123445e-004,-1.579134e-004
-6.217443e-004,-1.718510e-004
-5.954896e-004,-1.687718e-004
-5.322842e-004,-1.465688e-004
-4.358554e-004,-1.092938e-004
-3.194925e-004,-5.775702e-005
-2.049123e-004,1.387585e-005
-1.203142e-004,1.164632e-004
-8.498399e-005,2.514636e-004
-1.045939e-004,3.900295e-004
-1.639098e-004,4.778690e-004
-2.313290e-004,4.736553e-004
-2.825416e-004,3.726885e-004
-3.126857e-004,2.085163e-004
-3.262992e-004,2.992031e-005
-3.277578e-004,-1.212866e-004
-3.102548e-004,-2.267911e-004
-2.645523e-004,-2.840002e-004
-1.937298e-004,-2.935620e-004
-1.112386e-004,-2.551526e-004
-3.490581e-005,-1.666649e-004
1.857574e-005,-3.231277e-005
4.936815e-005,1.315353e-004
6.136099e-005,2.999212e-004
6.184718e-005,4.482110e-004
5.747142e-005,5.527431e-004
4.758544e-005,5.963388e-004
2.992031e-005,5.734875e-004
6.582909e-006,4.898618e-004
-1.173047e-005,3.723644e-004
-9.623623e-006,2.571359e-004
2.133085e-005,1.757791e-004
7.675720e-005,1.422316e-004
1.355869e-004,1.551968e-004
1.683241e-004,1.992786e-004
1.542244e-004,2.553532e-004
9.717743e-005,3.026763e-004
1.776542e-005,3.294171e-004
-5.856735e-005,3.357376e-004
-1.130213e-004,3.297412e-004
-1.327933e-004,3.106175e-004
-1.180453e-004,2.683184e-004
-7.671866e-005,1.939304e-004
-2.518189e-005,9.361199e-005
1.744129e-005,-1.675450e-005
4.207521e-005,-1.175591e-004
4.969229e-005,-1.911368e-004
5.633696e-005,-2.264670e-004
8.032264e-005,-2.198223e-004
1.286181e-004,-1.828714e-004
1.914995e-004,-1.352242e-004
2.579462e-004,-9.535618e-005
3.243930e-004,-6.861539e-005
3.880847e-004,-4.819517e-005
4.433490e-004,-1.999580e-005
4.799758e-004,2.133085e-005
4.952099e-004,7.675720e-005
4.939134e-004,1.401247e-004
4.848378e-004,2.062474e-004
4.689553e-004,2.644289e-004
4.405939e-004,3.007315e-004
3.874365e-004,3.052694e-004
3.038107e-004,2.733424e-004
1.945787e-004,2.098128e-004
7.886404e-005,1.250527e-004
-2.275091e-005,3.575467e-005
-9.568031e-005,-4.122636e-005
-1.368449e-004,-9.940781e-005
-1.368449e-004,-1.379794e-004
-8.660465e-005,-1.621271e-004
1.744129e-005,-1.757406e-004
1.688103e-004,-1.841680e-004
3.477304e-004,-1.890299e-004
5.245438e-004,-2.008607e-004
6.716992e-004,-2.355427e-004
7.750969e-004,-3.016653e-004
8.311716e-004,-3.924218e-004
8.480264e-004,-4.865818e-004
8.400852e-004,-5.543251e-004
8.207994e-004,-5.698834e-004
7.887104e-004,-5.267740e-004
7.340944e-004,-4.347209e-004
6.533858e-004,-3.151167e-004
5.493398e-004,-1.838438e-004
4.300596e-004,-5.629844e-005
3.143450e-004,4.774750e-005
2.209954e-004,1.081979e-004
1.629760e-004,1.279698e-004
1.407730e-004,1.326697e-004
1.385041e-004,1.566554e-004
1.365593e-004,2.161334e-004
1.169494e-004,2.913317e-004
6.687121e-005,3.428685e-004
-2.275091e-005,3.349273e-004
-1.491618e-004,2.462775e-004
-2.904828e-004,8.291568e-005
-4.091146e-004,-1.162626e-004
-4.760476e-004,-3.044204e-004
-4.841508e-004,-4.499550e-004
-4.491447e-004,-5.418460e-004
-3.998769e-004,-5.843072e-004
-3.585502e-004,-5.935449e-004
-3.348887e-004,-5.878726e-004
-3.293785e-004,-5.742591e-004
-3.345645e-004,-5.551354e-004
-3.361852e-004,-5.339049e-004
-3.232200e-004,-5.066779e-004
-3.016653e-004,-4.708614e-004
-2.783279e-004,-4.337485e-004
-2.514251e-004,-4.049009e-004
-2.173914e-004,-3.872358e-004
-1.783336e-004,-3.775118e-004
-1.433275e-004,-3.651949e-004
-1.177212e-004,-3.327818e-004
-1.024871e-004,-2.723315e-004
-9.827335e-005,-1.888679e-004
-1.081593e-004,-9.211487e-005
-1.352242e-004,1.225520e-005
-1.768750e-004,1.200286e-004
-2.214430e-004,2.263435e-004
-2.549905e-004,3.261758e-004
-2.692523e-004,4.209840e-004
-2.663351e-004,5.094717e-004
-2.577456e-004,5.874252e-004
-2.566112e-004,6.373413e-004
-2.689281e-004,6.481997e-004
-2.885380e-004,6.212969e-004
-3.062031e-004,5.720290e-004
-3.165753e-004,5.149820e-004
-3.225718e-004,4.592314e-004
-3.309991e-004,4.044533e-004
-3.386162e-004,3.441650e-004
-3.314853e-004,2.748010e-004
-3.019894e-004,2.038164e-004
-2.559629e-004,1.404489e-004
-2.193361e-004,8.599492e-005
-2.232257e-004,3.640293e-005
-2.749245e-004,-8.651231e-006
-3.538503e-004,-3.830919e-005
-4.295348e-004,-4.398147e-005
-4.786406e-004,-2.096820e-005
-4.907955e-004,2.538249e-005
-4.698891e-004,9.280167e-005
-4.232143e-004,1.782101e-004
-3.583881e-004,2.756114e-004
-2.904828e-004,3.655576e-004
-2.277635e-004,4.208219e-004
-1.712027e-004,4.187151e-004
-1.105903e-004,3.566440e-004
-3.522994e-005,2.603772e-004
5.179914e-005,1.671896e-004
1.338042e-004,1.070634e-004
1.971717e-004,9.588091e-005
2.419018e-004,1.291043e-004
2.712356e-004,1.965235e-004
2.944109e-004,3.021901e-004
3.081865e-004,4.597176e-004
3.057555e-004,6.614891e-004
2.945730e-004,8.705535e-004
2.872801e-004,1.032943e-003
2.895490e-004,1.098094e-003
2.971661e-004,1.039102e-003
2.960316e-004,8.660157e-004
2.778803e-004,6.237278e-004
2.423880e-004,3.738230e-004
1.991165e-004,1.652449e-004
1.576278e-004,2.035846e-005
1.297526e-004,-6.553616e-005
1.210010e-004,-1.138316e-004
1.260251e-004,-1.548341e-004
1.370455e-004,-2.068571e-004
1.462832e-004,-2.692523e-004
1.529279e-004,-3.282440e-004
1.573037e-004,-3.690845e-004
1.553589e-004,-3.843186e-004
1.404489e-004,-3.789705e-004
1.085220e-004,-3.632501e-004
6.622294e-005,-3.494746e-004
3.105477e-005,-3.431540e-004
2.408596e-005,-3.360231e-004
5.212327e-005,-3.204649e-004
9.620504e-005,-2.958309e-004
1.205148e-004,-2.676316e-004
9.458438e-005,-2.452666e-004
1.727922e-005,-2.329496e-004
-8.012204e-005,-2.253326e-004
-1.579134e-004,-2.183637e-004
-1.870851e-004,-2.099363e-004
-1.583996e-004,-2.008607e-004
-8.255302e-005,-1.917850e-004
1.971020e-005,-1.830335e-004
1.304008e-004,-1.692580e-004
2.370398e-004,-1.481895e-004
3.229345e-004,-1.203142e-004
3.666921e-004,-9.114248e-005
3.550234e-004,-7.137051e-005
2.910076e-004,-6.764301e-005
1.913374e-004,-7.347736e-005
7.886404e-005,-7.688073e-005
-2.210265e-005,-7.428769e-005
-8.984595e-005,-7.120844e-005
-1.120489e-004,-7.331530e-005
-8.903562e-005,-8.044617e-005
-2.291298e-005,-8.984595e-005
7.594687e-005,-9.373552e-005
1.835583e-004,-8.336335e-005
2.615117e-004,-5.791909e-005
2.744769e-004,-2.129233e-005
2.156472e-004,1.889987e-005
1.075496e-004,5.325772e-005
-1.302700e-005,7.529860e-005
-1.151281e-004,7.902610e-005
-1.817370e-004,5.536457e-005
-2.079916e-004,-2.654814e-006
-1.974573e-004,-9.665270e-005
-1.572651e-004,-2.167431e-004
-1.013526e-004,-3.418575e-004
-3.895745e-005,-4.506033e-004
2.765140e-005,-5.233706e-004
1.004187e-004,-5.533527e-004
1.825859e-004,-5.411978e-004
2.691288e-004,-4.930644e-004
3.553475e-004,-4.228902e-004
4.357320e-004,-3.541745e-004
5.059062e-004,-3.045825e-004
5.582534e-004,-2.789762e-004
5.836976e-004,-2.723315e-004
5.747841e-004,-2.729798e-004
5.315126e-004,-2.664971e-004
4.640934e-004,-2.442942e-004
3.785229e-004,-2.071812e-004
2.806354e-004,-1.608306e-004
1.764274e-004,-1.115627e-004
7.708133e-005,-6.667062e-005
-9.137427e-006,-2.858527e-005
-7.817725e-005,4.244267e-007
-1.246900e-004,2.084466e-005
-1.452723e-004,3.073064e-005
-1.410586e-004,3.040651e-005
-1.188556e-004,2.651694e-005
-8.822530e-005,2.927205e-005
-5.500191e-005,4.158902e-005
-1.918548e-005,6.038860e-005
1.971020e-005,7.902610e-005
5.098881e-005,9.280167e-005
6.346784e-005,9.782569e-005
4.483033e-005,8.891209e-005
-7.840905e-006,7.076078e-005
-8.417367e-005,4.709924e-005
-1.694200e-004,1.889987e-005
-2.541802e-004,-9.623623e-006
-3.361852e-004,-3.441962e-005
-4.217557e-004,-4.997789e-005
-5.134846e-004,-6.051213e-005
-6.037550e-004,-7.590833e-005
-6.765223e-004,-1.023250e-004
-7.102319e-004,-1.360346e-004
-6.901358e-004,-1.643960e-004
-5.975965e-004,-1.744440e-004
-4.217557e-004,-1.630995e-004
-1.715269e-004,-1.441378e-004
1.143563e-004,-1.276072e-004
3.846814e-004,-1.110765e-004
5.927734e-004,-8.498399e-005
7.060571e-004,-4.187462e-005
7.123777e-004,1.419998e-005
6.153004e-004,6.735741e-005
4.367043e-004,1.111150e-004
2.107852e-004,1.522796e-004
-1.999580e-005,1.934442e-004
-2.243602e-004,2.372019e-004
-3.802670e-004,2.846870e-004
-4.792889e-004,3.311998e-004
-5.175362e-004,3.769022e-004
-4.967919e-004,4.336251e-004
-4.219178e-004,5.153061e-004
-3.049066e-004,6.201624e-004
-1.703924e-004,7.305289e-004
-4.916756e-005,8.224201e-004
2.311357e-005,8.742810e-004
2.473423e-005,8.707156e-004
-3.814712e-005,8.148030e-004
-1.374932e-004,7.280980e-004
-2.295462e-004,6.319932e-004
-2.799486e-004,5.402642e-004
-2.754107e-004,4.602039e-004
-2.287359e-004,3.976466e-004
-1.686097e-004,3.521062e-004
-1.274451e-004,3.216380e-004
-1.238797e-004,3.039728e-004
-1.572651e-004,2.947351e-004
-2.118811e-004,2.903593e-004
-2.677937e-004,2.884145e-004
-3.139823e-004,2.869559e-004
-3.478539e-004,2.795009e-004
-3.698948e-004,2.608634e-004
-3.833462e-004,2.282883e-004
-3.875599e-004,1.786963e-004
-3.794566e-004,1.088461e-004
-3.530400e-004,1.646890e-005
-3.039342e-004,-9.956988e-005
-2.355427e-004,-2.363530e-004
-1.566169e-004,-3.767015e-004
-8.012204e-005,-4.938748e-004
-1.643037e-005,-5.635628e-004
2.473423e-005,-5.739350e-004
4.077869e-005,-5.317981e-004
4.369587e-005,-4.587066e-004
4.499239e-005,-3.812394e-004
5.341979e-005,-3.280820e-004
6.800567e-005,-3.121996e-004
7.691926e-005,-3.258130e-004
7.011252e-005,-3.483401e-004
4.450620e-005,-3.637363e-004
1.322759e-005,-3.690845e-004
-7.192643e-006,-3.669776e-004
-5.247859e-006,-3.600088e-004
1.371378e-005,-3.533641e-004
3.543054e-005,-3.528779e-004
4.888196e-005,-3.604950e-004
5.277153e-005,-3.666535e-004
5.050261e-005,-3.551469e-004
4.402000e-005,-3.097686e-004
3.510641e-005,-2.216050e-004
1.436204e-005,-9.616651e-005
-2.469570e-005,4.580272e-005
-8.125649e-005,1.746447e-004
-1.442999e-004,2.611876e-004
-2.047502e-004,2.882525e-004
-2.481838e-004,2.584324e-004
-2.608248e-004,1.798307e-004
-2.412149e-004,6.362991e-005
-1.925954e-004,-7.282909e-005
-1.217728e-004,-2.031296e-004
-3.766092e-005,-3.016653e-004
4.661304e-005,-3.535262e-004
1.239182e-004,-3.617915e-004
1.923098e-004,-3.363473e-004
2.495189e-004,-2.861070e-004
2.842008e-004,-2.211189e-004
2.892249e-004,-1.583996e-004
2.650771e-004,-1.173971e-004
2.265056e-004,-1.131834e-004
1.905271e-004,-1.493239e-004
1.772377e-004,-2.154466e-004
1.999268e-004,-2.946965e-004
2.594049e-004,-3.677880e-004
3.440029e-004,-4.237005e-004
4.381629e-004,-4.583824e-004
5.238955e-004,-4.724821e-004
5.864528e-004,-4.681064e-004
6.169211e-004,-4.480103e-004
6.104385e-004,-4.105732e-004
5.717048e-004,-3.506090e-004
5.117406e-004,-2.619593e-004
4.477248e-004,-1.457585e-004
3.982949e-004,-1.756482e-005
3.728506e-004,9.831188e-005
3.770643e-004,1.848548e-004
4.029947e-004,2.394708e-004
4.297355e-004,2.735045e-004
4.355699e-004,3.033245e-004
4.104497e-004,3.422202e-004
3.548613e-004,4.031568e-004
2.723701e-004,4.918066e-004
1.715654e-004,6.003904e-004
6.654708e-005,7.060571e-004
-2.583016e-005,7.793107e-004
-8.790117e-005,8.007033e-004
-1.083214e-004,7.697488e-004
-8.579432e-005,7.049226e-004
-3.360929e-005,6.256726e-004
2.489629e-005,5.444778e-004
6.281957e-005,4.624728e-004
6.152305e-005,3.788470e-004
1.614476e-005,2.963557e-004
-6.261898e-005,2.149989e-004
-1.483515e-004,1.313732e-004
-2.175534e-004,4.191315e-005
-2.587180e-004,-5.176061e-005
-2.686040e-004,-1.454344e-004
-2.438080e-004,-2.282497e-004
-1.875713e-004,-2.951827e-004
-1.148040e-004,-3.407231e-004
-4.576419e-005,-3.569296e-004
-3.465141e-006,-3.392644e-004
4.244267e-007,-2.812451e-004
-3.766092e-005,-1.767130e-004
-1.125351e-004,-2.696461e-005
-2.177155e-004,1.466074e-004
-3.412093e-004,3.153174e-004
-4.616237e-004,4.546936e-004
-5.530285e-004,5.483674e-004
-5.899795e-004,5.835356e-004
-5.608077e-004,5.537156e-004
-4.775062e-004,4.613383e-004
-3.728119e-004,3.237448e-004
-2.788141e-004,1.644345e-004
-2.126914e-004,4.962256e-006
-1.723372e-004,-1.425172e-004
-1.457585e-004,-2.739521e-004
-1.216107e-004,-3.917736e-004
-9.292520e-005,-4.954954e-004
-5.791909e-005,-5.783107e-004
-1.205460e-005,-6.313061e-004
4.045456e-005,-6.591813e-004
9.377406e-005,-6.729569e-004
1.402868e-004,-6.843015e-004
1.652449e-004,-6.933771e-004
1.615174e-004,-6.857601e-004
1.344524e-004,-6.360059e-004
1.004187e-004,-5.275843e-004
7.140904e-005,-3.635742e-004
4.888196e-005,-1.712027e-004
3.332369e-005,1.063454e-005
2.894792e-005,1.423936e-004
4.288554e-005,2.067336e-004
7.562274e-005,2.245608e-004
1.150046e-004,2.354192e-004
1.513072e-004,2.649151e-004
1.817755e-004,3.086727e-004
2.070577e-004,3.462718e-004
2.255332e-004,3.623164e-004
2.321778e-004,3.582647e-004
2.148369e-004,3.490270e-004
1.626518e-004,3.501615e-004
7.578480e-005,3.730126e-004
-3.587821e-005,4.240633e-004
-1.613168e-004,4.974789e-004
-2.899966e-004,5.799701e-004
-4.099249e-004,6.478756e-004
-5.081365e-004,6.789921e-004
-5.740970e-004,6.635960e-004
-6.066722e-004,6.127074e-004
-6.189891e-004,5.420469e-004
-6.249856e-004,4.674968e-004
-6.266062e-004,3.950536e-004
-6.172064e-004,3.240689e-004
-5.849554e-004,2.537325e-004
-5.232086e-004,1.880961e-004
-4.335865e-004,1.312112e-004
-3.284061e-004,8.421220e-005
-2.206326e-004,4.904402e-005
-1.172350e-004,2.829966e-005
-2.031993e-005,2.278944e-005
6.719535e-005,2.975825e-005
1.451488e-004,4.709924e-005
2.148369e-004,7.173317e-005
2.773941e-004,9.863601e-005
3.381686e-004,1.167873e-004
4.141773e-004,1.127357e-004
5.342677e-004,8.194328e-005
7.174017e-004,2.927205e-005
9.551517e-004,-3.458168e-005
1.215105e-003,-9.568031e-005
1.461120e-003,-1.415448e-004
1.663541e-003,-1.652063e-004
1.793193e-003,-1.708786e-004
1.817503e-003,-1.674752e-004
1.708271e-003,-1.601823e-004
1.460310e-003,-1.546721e-004
1.101173e-003,-1.603444e-004
6.900126e-004,-1.825473e-004
3.004074e-004,-2.164190e-004
6.907040e-006,-2.590421e-004
-1.413827e-004,-3.086341e-004
-1.467309e-004,-3.617915e-004
-4.949169e-005,-4.102490e-004
8.550872e-005,-4.454172e-004
1.882582e-004,-4.674581e-004
2.141886e-004,-4.843129e-004
1.535762e-004,-4.943609e-004
2.619281e-005,-4.888507e-004
-1.345760e-004,-4.655133e-004
-2.899966e-004,-4.301831e-004
-4.011734e-004,-3.909633e-004
-4.465517e-004,-3.527159e-004
-4.261314e-004,-3.141443e-004
-3.596847e-004,-2.707109e-004
-2.809209e-004,-2.156086e-004
-2.204706e-004,-1.509446e-004
-1.990780e-004,-8.530812e-005
-2.227395e-004,-3.117831e-005
-2.827037e-004,-3.303076e-006
-3.567675e-004,-8.813297e-006
-4.222419e-004,-4.122636e-005
-4.659995e-004,-7.979791e-005
-4.882024e-004,-1.021629e-004
-4.922541e-004,-9.503204e-005
-4.906334e-004,-6.132246e-005
-4.932265e-004,-1.270286e-005
-5.115399e-004,3.267542e-005
-5.458977e-004,5.844381e-005
-5.950035e-004,6.249545e-005
-6.554538e-004,4.953022e-005
-7.214144e-004,2.262738e-005
-7.802441e-004,-1.205460e-005
-8.116848e-004,-4.187462e-005
-7.992057e-004,-4.770897e-005
-7.400519e-004,-1.675450e-005
-6.442713e-004,4.466826e-005
-5.301774e-004,1.164632e-004
-4.186764e-004,1.780480e-004
-3.254889e-004,2.154851e-004
-2.606628e-004,2.268297e-004
-2.297083e-004,2.077060e-004
-2.243602e-004,1.479039e-004
-2.271153e-004,4.855783e-005
-2.216050e-004,-7.461182e-005
-1.974573e-004,-1.987538e-004
-1.548341e-004,-3.027998e-004
-1.039456e-004,-3.744326e-004
-6.083626e-005,-4.141386e-004
-4.138842e-005,-4.237005e-004
-4.851930e-005,-4.105732e-004
-6.974985e-005,-3.835083e-004
-8.530812e-005,-3.543365e-004
-8.449780e-005,-3.264613e-004
-7.007399e-005,-2.865932e-004
-5.467778e-005,-2.130156e-004
-4.284701e-005,-9.162867e-005
-3.425755e-005,6.606088e-005
-3.036798e-005,2.328261e-004
-3.490581e-005,3.858158e-004
-4.997789e-005,5.166026e-004
-7.218083e-005,6.391241e-004
-9.843541e-005,7.707212e-004
-1.272830e-004,9.070183e-004
-1.590478e-004,1.003933e-003
-1.956746e-004,1.006851e-003
-2.319772e-004,8.900014e-004
-2.540181e-004,6.780197e-004
-2.478596e-004,4.258460e-004
-2.099363e-004,1.913374e-004
-1.507825e-004,7.069105e-006
-9.373552e-005,-1.161005e-004
-6.359137e-005,-1.830335e-004
-7.590833e-005,-2.039399e-004
-1.282554e-004,-1.968091e-004
-2.008607e-004,-1.822232e-004
-2.687660e-004,-1.768750e-004
-3.206269e-004,-1.807646e-004
-3.480160e-004,-1.828714e-004
-3.344025e-004,-1.656925e-004
-2.681178e-004,-1.206384e-004
-1.527273e-004,-5.500191e-005
-8.165035e-006,1.549650e-005
1.269974e-004,7.173317e-005
2.253711e-004,9.701536e-005
2.897111e-004,9.280167e-005
3.362238e-004,7.513654e-005
3.827366e-004,6.265751e-005
4.425387e-004,6.460230e-005
5.191956e-004,7.708133e-005
6.078454e-004,8.680524e-005
6.973055e-004,8.875003e-005
7.775280e-004,7.853991e-005
8.373301e-004,5.633696e-005
8.708776e-004,2.813760e-005
8.781706e-004,3.017472e-006
8.653674e-004,-1.821308e-005
8.418679e-004,-4.333321e-005
8.146409e-004,-7.866345e-005
7.870898e-004,-1.204763e-004
7.684522e-004,-1.606685e-004
7.647247e-004,-1.901644e-004
7.723419e-004,-2.073433e-004
7.739625e-004,-2.167431e-004
7.530560e-004,-2.293842e-004
6.982779e-004,-2.577456e-004
6.130316e-004,-3.068514e-004
5.172509e-004,-3.729740e-004
4.371906e-004,-4.449310e-004
3.947294e-004,-5.045711e-004
3.960259e-004,-5.373082e-004
4.308700e-004,-5.481666e-004
4.777069e-004,-5.543251e-004
5.104441e-004,-5.705316e-004
5.029891e-004,-5.995413e-004
4.347596e-004,-6.327647e-004
2.991108e-004,-6.586951e-004
1.185701e-004,-6.685811e-004
-6.715681e-005,-6.606399e-004
-2.151224e-004,-6.390853e-004
-3.024756e-004,-6.039171e-004
-3.314853e-004,-5.505976e-004
-3.232200e-004,-4.739407e-004
-2.997205e-004,-3.711913e-004
-2.804347e-004,-2.444563e-004
-2.793003e-004,-9.924574e-005
-3.016653e-004,5.163707e-005
-3.399127e-004,2.033302e-004
-3.784843e-004,3.521062e-004
-4.078181e-004,4.884033e-004
-4.215936e-004,5.987698e-004
-4.136524e-004,6.718613e-004
-3.891806e-004,7.062191e-004
-3.561192e-004,7.088122e-004
-3.217614e-004,6.947125e-004
-2.883759e-004,6.798024e-004
-2.600145e-004,6.788301e-004
-2.455907e-004,7.063812e-004
-2.512630e-004,7.750969e-004
-2.750866e-004,8.865980e-004
-3.091203e-004,1.019978e-003
-3.470436e-004,1.136503e-003
-3.857772e-004,1.200195e-003
-4.220798e-004,1.193388e-003
-4.559515e-004,1.120134e-003
-4.820440e-004,9.977750e-004
-4.958195e-004,8.522401e-004
-4.917679e-004,7.075156e-004
-4.677822e-004,5.809425e-004
-4.271038e-004,4.781931e-004
-3.736223e-004,4.005638e-004
-3.091203e-004,3.431926e-004
-2.431597e-004,2.952213e-004
-1.861127e-004,2.414156e-004
-1.402483e-004,1.738343e-004
-1.049180e-004,9.555677e-005
-7.428769e-005,1.695509e-005
-4.900550e-005,-5.451572e-005
-4.187462e-005,-1.169109e-004
-6.537409e-005,-1.699062e-004
-1.196660e-004,-2.122053e-004
-1.904885e-004,-2.476975e-004
-2.519113e-004,-2.823795e-004
-2.830278e-004,-3.175477e-004
-2.758969e-004,-3.465574e-004
-2.348944e-004,-3.653570e-004
-1.677994e-004,-3.720016e-004
-8.109443e-005,-3.687603e-004
1.209313e-005,-3.614674e-004
9.960841e-005,-3.608192e-004
1.701068e-004,-3.763774e-004
2.106232e-004,-4.057112e-004
2.083542e-004,-4.412035e-004
1.613553e-004,-4.745890e-004
8.194328e-005,-4.940368e-004
-1.156841e-005,-4.870680e-004
-1.000561e-004,-4.522240e-004
-1.639098e-004,-3.993907e-004
-1.896782e-004,-3.426678e-004
-1.694200e-004,-2.984240e-004
-1.054042e-004,-2.710350e-004
-1.124428e-005,-2.605007e-004
9.750156e-005,-2.613110e-004
1.987924e-004,-2.669833e-004
2.722080e-004,-2.673075e-004
3.148312e-004,-2.543422e-004
3.365480e-004,-2.256567e-004
3.529166e-004,-1.844921e-004
3.687990e-004,-1.417068e-004
3.832228e-004,-1.083214e-004
3.900295e-004,-9.438378e-005
3.845193e-004,-9.422172e-005
3.691231e-004,-9.260107e-005
3.490270e-004,-7.169464e-005
3.299033e-004,-2.631635e-005
3.140208e-004,2.700314e-005
2.934386e-004,6.006447e-005
2.542187e-004,4.288554e-005
1.859892e-004,-3.830919e-005
9.458438e-005,-1.661787e-004
-2.168618e-006,-3.002067e-004
-8.465986e-005,-4.039285e-004
-1.376552e-004,-4.629203e-004
-1.551583e-004,-4.794509e-004
-1.373311e-004,-4.621100e-004
-9.875954e-005,-4.232143e-004
-5.386745e-005,-3.708672e-004
-1.497178e-005,-3.086341e-004
1.484824e-005,-2.329496e-004
3.932010e-005,-1.391138e-004
6.589881e-005,-2.615429e-005
9.912221e-005,1.023635e-004
1.406109e-004,2.363916e-004
1.822617e-004,3.662059e-004
2.145127e-004,4.874308e-004
2.240746e-004,6.063868e-004
1.989545e-004,7.345806e-004
1.349386e-004,8.814119e-004
4.288554e-005,1.035374e-003
-5.646050e-005,1.160813e-003
-1.361966e-004,1.219481e-003
-1.770371e-004,1.190147e-003
-1.708786e-004,1.077835e-003
-1.125351e-004,9.123664e-004
6.258778e-006,7.298806e-004
1.911753e-004,5.665187e-004
4.250357e-004,4.491834e-004
6.676476e-004,3.895433e-004
8.621261e-004,3.780367e-004
9.509380e-004,3.885709e-004
8.997253e-004,3.937570e-004
7.115673e-004,3.681507e-004
4.258460e-004,3.089969e-004
1.000946e-004,2.253711e-004
-2.083157e-004,1.213252e-004
-4.583824e-004,-1.480971e-005
-6.361681e-004,-1.887058e-004
-7.407002e-004,-3.886944e-004
-7.797579e-004,-5.896553e-004
-7.638755e-004,-7.599859e-004
-7.040734e-004,-8.734317e-004
-6.181788e-004,-9.132997e-004
-5.241810e-004,-8.782936e-004
-4.335865e-004,-7.864026e-004
-3.485022e-004,-6.698776e-004
-2.690902e-004,-5.655076e-004
-1.955125e-004,-4.967919e-004
-1.305243e-004,-4.700511e-004
-7.461182e-005,-4.755614e-004
-2.339918e-005,-4.925782e-004
2.765140e-005,-5.047331e-004
8.226741e-005,-5.024642e-004
1.466074e-004,-4.909576e-004
2.205092e-004,-4.786406e-004
2.965178e-004,-4.676201e-004
3.722023e-004,-4.608134e-004
4.418904e-004,-4.570859e-004
4.926169e-004,-4.561135e-004
5.093097e-004,-4.543308e-004
4.914824e-004,-4.459034e-004
4.456179e-004,-4.240246e-004
3.833848e-004,-3.880461e-004
3.143450e-004,-3.423437e-004
