-2.175534e-004,1.971717e-004
-2.016710e-004,1.874478e-004
-1.822232e-004,1.809652e-004
-1.783336e-004,1.817755e-004
-2.021572e-004,1.867996e-004
-2.475355e-004,1.906891e-004
-2.909690e-004,1.923098e-004
-3.096065e-004,1.940925e-004
-2.990722e-004,1.949028e-004
-2.720074e-004,1.927960e-004
-2.494803e-004,1.829100e-004
-2.428356e-004,1.629760e-004
-2.532078e-004,1.351007e-004
-2.741142e-004,1.004187e-004
-3.023136e-004,5.617490e-005
-3.355370e-004,-3.858999e-007
-3.668155e-004,-6.504996e-005
-3.917736e-004,-1.318209e-004
-4.005251e-004,-1.906506e-004
-3.831841e-004,-2.339220e-004
-3.334301e-004,-2.548284e-004
-2.523975e-004,-2.509389e-004
-1.430034e-004,-2.271153e-004
-9.137427e-006,-2.005366e-004
1.470936e-004,-1.838438e-004
3.188828e-004,-1.794681e-004
4.950479e-004,-1.797922e-004
6.574374e-004,-1.752544e-004
7.849830e-004,-1.593720e-004
8.643950e-004,-1.340898e-004
9.018321e-004,-1.058904e-004
9.177146e-004,-7.914964e-005
9.331108e-004,-5.921561e-005
9.545035e-004,-4.608832e-005
9.661721e-004,-4.171256e-005
9.481829e-004,-4.252288e-005
8.919462e-004,-4.268495e-005
8.002172e-004,-3.928157e-005
6.870955e-004,-3.393342e-005
5.770530e-004,-3.020592e-005
4.961824e-004,-3.117831e-005
4.512903e-004,-3.749886e-005
4.227667e-004,-5.013995e-005
3.845193e-004,-6.683268e-005
3.218000e-004,-8.417367e-005
2.375260e-004,-9.827335e-005
1.440143e-004,-1.057284e-004
5.325772e-005,-1.023250e-004
-2.534396e-005,-8.660465e-005
-9.081835e-005,-6.002594e-005
-1.549962e-004,-2.615429e-005
-2.276015e-004,5.610517e-006
-3.068514e-004,2.910999e-005
-3.831841e-004,4.223728e-005
-4.496309e-004,4.758544e-005
-5.005194e-004,4.871989e-005
-5.314739e-004,4.807163e-005
-5.405495e-004,4.320967e-005
-5.347152e-004,3.348575e-005
-5.176983e-004,1.825161e-005
-4.964678e-004,-1.196227e-006
-4.669719e-004,-2.323711e-005
-4.138145e-004,-4.203669e-005
-3.204649e-004,-5.662256e-005
-1.922712e-004,-6.602235e-005
-5.613637e-005,-6.942573e-005
5.228533e-005,-6.602235e-005
1.033359e-004,-5.613637e-005
8.664318e-005,-3.895745e-005
1.209313e-005,-1.383732e-005
-8.903562e-005,2.473423e-005
-1.856265e-004,7.416415e-005
-2.596904e-004,1.297526e-004
-3.071755e-004,1.838824e-004
-3.327818e-004,2.295848e-004
-3.434782e-004,2.600531e-004
-3.454229e-004,2.770700e-004
-3.463953e-004,2.866318e-004
-3.514194e-004,2.940868e-004
-3.632501e-004,3.030004e-004
-3.786463e-004,3.117519e-004
-3.938804e-004,3.187208e-004
-4.013355e-004,3.218000e-004
-3.984183e-004,3.214759e-004
-3.809152e-004,3.206656e-004
-3.426678e-004,3.206656e-004
-2.760590e-004,3.198552e-004
-1.750923e-004,3.177483e-004
-3.830919e-005,3.151553e-004
1.354248e-004,3.107795e-004
3.405996e-004,3.059176e-004
5.488536e-004,3.005694e-004
7.115673e-004,2.874421e-004
7.911414e-004,2.607014e-004
7.775280e-004,2.172679e-004
6.802886e-004,1.615174e-004
5.230852e-004,9.879808e-005
3.375204e-004,3.607880e-005
1.548727e-004,-1.999580e-005
-3.951337e-006,-6.829127e-005
-1.276072e-004,-1.143178e-004
-2.188499e-004,-1.635857e-004
-2.833519e-004,-2.147983e-004
-3.282440e-004,-2.598524e-004
-3.642225e-004,-2.929138e-004
-4.014975e-004,-3.139823e-004
-4.413656e-004,-3.241924e-004
-4.739407e-004,-3.266234e-004
-4.859335e-004,-3.219235e-004
-4.681064e-004,-3.128478e-004
-4.202971e-004,-3.029619e-004
-3.486642e-004,-2.935620e-004
-2.786520e-004,-2.804347e-004
-2.357047e-004,-2.616352e-004
-2.277635e-004,-2.397564e-004
-2.433218e-004,-2.180396e-004
-2.613110e-004,-1.998883e-004
-2.609869e-004,-1.841680e-004
-2.334358e-004,-1.713648e-004
-1.851404e-004,-1.618029e-004
-1.357104e-004,-1.533756e-004
-1.071869e-004,-1.455964e-004
-1.084835e-004,-1.365208e-004
-1.339277e-004,-1.256624e-004
-1.679614e-004,-1.156143e-004
-1.938919e-004,-1.141558e-004
-1.964849e-004,-1.224211e-004
-1.665028e-004,-1.349001e-004
-1.032974e-004,-1.371690e-004
-2.015787e-005,-1.178833e-004
6.346784e-005,-7.720486e-005
1.294284e-004,-2.437157e-005
1.637863e-004,2.716521e-005
1.624898e-004,7.546067e-005
1.338042e-004,1.265113e-004
9.474644e-005,1.874478e-004
5.925414e-005,2.548670e-004
3.575467e-005,3.172622e-004
2.586868e-005,3.642611e-004
2.975825e-005,3.916502e-004
4.953022e-005,3.937570e-004
8.729144e-005,3.726885e-004
1.372076e-004,3.336308e-004
1.867996e-004,2.833905e-004
2.269918e-004,2.284504e-004
2.556773e-004,1.769136e-004
2.743149e-004,1.312112e-004
2.833905e-004,9.263960e-005
2.825802e-004,5.990240e-005
2.704253e-004,3.397195e-005
2.516257e-004,1.403791e-005
2.397949e-004,-2.006553e-006
2.503292e-004,-1.464765e-005
2.835526e-004,-2.113026e-005
3.230965e-004,-1.610624e-005
3.501615e-004,4.476060e-006
3.566440e-004,3.688912e-005
3.399513e-004,7.789165e-005
2.973281e-004,1.216493e-004
2.428742e-004,1.543865e-004
1.974959e-004,1.623277e-004
1.773998e-004,1.409351e-004
1.851789e-004,9.636710e-005
1.997648e-004,4.094075e-005
1.987924e-004,-1.724069e-005
1.670276e-004,-7.963584e-005
1.078737e-004,-1.486757e-004
3.170304e-005,-2.245222e-004
-4.851930e-005,-2.984240e-004
-1.243659e-004,-3.540124e-004
-1.900023e-004,-3.804291e-004
-2.348944e-004,-3.805911e-004
-2.532078e-004,-3.684362e-004
-2.431597e-004,-3.538503e-004
-2.079916e-004,-3.392644e-004
-1.520790e-004,-3.228959e-004
-8.449780e-005,-2.963172e-004
-2.129233e-005,-2.575835e-004
2.748934e-005,-2.057227e-004
5.568870e-005,-1.425172e-004
5.990240e-005,-7.169464e-005
4.110282e-005,-3.951337e-006
9.338019e-006,4.726130e-005
-2.680255e-005,6.995045e-005
-6.197072e-005,5.730935e-005
-8.660465e-005,1.776542e-005
-9.114248e-005,-3.198864e-005
-6.991193e-005,-7.882551e-005
-2.615429e-005,-1.165867e-004
3.170304e-005,-1.410586e-004
9.312580e-005,-1.470550e-004
1.521176e-004,-1.340898e-004
2.012234e-004,-1.071869e-004
2.321778e-004,-7.477388e-005
2.396328e-004,-4.414354e-005
2.232643e-004,-2.015787e-005
1.882582e-004,-1.844488e-006
1.445005e-004,1.744129e-005
1.010670e-004,4.191315e-005
6.849186e-005,7.465034e-005
5.212327e-005,1.103047e-004
5.082674e-005,1.412592e-004
5.471631e-005,1.587623e-004
5.504044e-005,1.506590e-004
5.017848e-005,1.116012e-004
4.807163e-005,4.823370e-005
5.212327e-005,-2.437157e-005
6.184718e-005,-9.195280e-005
7.335383e-005,-1.442999e-004
7.983644e-005,-1.699062e-004
8.291568e-005,-1.622891e-004
8.761557e-005,-1.242038e-004
9.717743e-005,-6.861539e-005
1.062531e-004,-1.351319e-005
1.046324e-004,2.700314e-005
8.907416e-005,4.029250e-005
5.941620e-005,2.116879e-005
1.679302e-005,-1.513384e-005
-3.879538e-005,-4.527799e-005
-1.058904e-004,-5.597430e-005
-1.741199e-004,-4.398147e-005
-2.277635e-004,-8.327101e-006
-2.452666e-004,4.612685e-005
-2.178775e-004,1.067393e-004
-1.608306e-004,1.605450e-004
-1.024871e-004,2.044647e-004
-6.845333e-005,2.436845e-004
-6.553616e-005,2.905214e-004
-8.158062e-005,3.474063e-004
-8.757704e-005,4.068843e-004
-3.944364e-005,4.564763e-004
9.263960e-005,4.848378e-004
3.146691e-004,4.853240e-004
5.927734e-004,4.602039e-004
8.645570e-004,4.196875e-004
1.057739e-003,3.765781e-004
1.118514e-003,3.433547e-004
1.030674e-003,3.256896e-004
8.285785e-004,3.232586e-004
5.747841e-004,3.352514e-004
3.349273e-004,3.577785e-004
1.490383e-004,3.783608e-004
2.489629e-005,3.825745e-004
-5.176061e-005,3.642611e-004
-1.037836e-004,3.279585e-004
-1.475412e-004,2.871180e-004
-1.840059e-004,2.542187e-004
-2.019951e-004,2.355812e-004
-1.888679e-004,2.258573e-004
-1.386276e-004,2.177540e-004
-5.435365e-005,2.059233e-004
4.547859e-005,1.918236e-004
1.336421e-004,1.782101e-004
1.785342e-004,1.650828e-004
1.540623e-004,1.511452e-004
6.055066e-005,1.410971e-004
-7.801519e-005,1.370455e-004
-2.227395e-004,1.326697e-004
-3.392644e-004,1.205148e-004
-4.099249e-004,9.863601e-005
-4.365036e-004,6.670914e-005
-4.353692e-004,2.473423e-005
-4.290486e-004,-2.534396e-005
-4.366657e-004,-8.433573e-005
-4.624341e-004,-1.473791e-004
-4.885266e-004,-2.060468e-004
-4.898231e-004,-2.522354e-004
-4.455793e-004,-2.872415e-004
-3.540124e-004,-3.138202e-004
-2.366771e-004,-3.326198e-004
-1.224211e-004,-3.454229e-004
-4.252288e-005,-3.567675e-004
-2.048200e-005,-3.681121e-004
-6.180866e-005,-3.775118e-004
-1.468929e-004,-3.835083e-004
-2.434839e-004,-3.885323e-004
-3.186821e-004,-3.945287e-004
-3.596847e-004,-3.997148e-004
-3.700569e-004,-4.010113e-004
-3.600088e-004,-3.967976e-004
-3.423437e-004,-3.911253e-004
-3.254889e-004,-3.843186e-004
-3.094444e-004,-3.812394e-004
-2.927517e-004,-3.877220e-004
-2.692523e-004,-4.060354e-004
-2.332737e-004,-4.347209e-004
-1.901644e-004,-4.674581e-004
-1.535376e-004,-4.945230e-004
-1.384655e-004,-4.993849e-004
-1.493239e-004,-4.724821e-004
-1.744440e-004,-4.144627e-004
-1.997262e-004,-3.348887e-004
-2.135018e-004,-2.462390e-004
-2.099363e-004,-1.614788e-004
-1.940539e-004,-8.854943e-005
-1.801163e-004,-2.728874e-005
-1.820611e-004,2.327564e-005
-2.055606e-004,6.784360e-005
-2.455907e-004,1.122495e-004
-2.919414e-004,1.573037e-004
-3.331060e-004,1.974959e-004
-3.580640e-004,2.281262e-004
-3.617915e-004,2.495189e-004
-3.339163e-004,2.652392e-004
-2.588801e-004,2.801492e-004
-1.303623e-004,2.961937e-004
3.996837e-005,3.104554e-004
2.196988e-004,3.192070e-004
3.702575e-004,3.211517e-004
4.642555e-004,3.172622e-004
4.958582e-004,3.077003e-004
4.833792e-004,2.936006e-004
4.569625e-004,2.811216e-004
4.443214e-004,2.733424e-004
4.619866e-004,2.675081e-004
5.086614e-004,2.611876e-004
5.639257e-004,2.516257e-004
5.976353e-004,2.389846e-004
5.930975e-004,2.218057e-004
5.472330e-004,1.947408e-004
4.741415e-004,1.574657e-004
3.922984e-004,1.171115e-004
3.148312e-004,8.356394e-005
2.449810e-004,6.444023e-005
1.824238e-004,6.119892e-005
1.261871e-004,6.832980e-005
7.319176e-005,8.113296e-005
2.392390e-005,9.474644e-005
-1.675450e-005,1.062531e-004
-4.949169e-005,1.104668e-004
-7.866345e-005,1.052807e-004
-1.081593e-004,9.328786e-005
-1.374932e-004,8.161915e-005
-1.663408e-004,7.756752e-005
-1.911368e-004,8.016057e-005
-2.071812e-004,8.486046e-005
-2.039399e-004,8.664318e-005
-1.768750e-004,8.421220e-005
-1.329553e-004,7.902610e-005
-9.049421e-005,6.946425e-005
-6.116039e-005,5.893001e-005
-4.884343e-005,5.082674e-005
-4.965376e-005,4.483033e-005
-5.662256e-005,3.494434e-005
-6.586029e-005,1.792748e-005
-7.412562e-005,-5.085794e-006
-7.444975e-005,-2.809907e-005
-6.456377e-005,-4.819517e-005
-4.900550e-005,-6.294311e-005
-3.474375e-005,-7.396356e-005
-2.745081e-005,-8.660465e-005
-3.685060e-005,-9.875954e-005
-5.970181e-005,-1.065387e-004
-8.822530e-005,-1.102662e-004
-1.076731e-004,-1.148040e-004
-9.908367e-005,-1.208004e-004
-5.240886e-005,-1.279313e-004
1.954813e-005,-1.342519e-004
9.798775e-005,-1.402483e-004
1.681620e-004,-1.478653e-004
2.261814e-004,-1.543479e-004
2.795009e-004,-1.543479e-004
3.321722e-004,-1.470550e-004
3.769022e-004,-1.374932e-004
3.984569e-004,-1.324691e-004
3.835469e-004,-1.324691e-004
3.290929e-004,-1.352242e-004
2.470879e-004,-1.371690e-004
1.516314e-004,-1.373311e-004
5.957827e-005,-1.360346e-004
-9.947754e-006,-1.302002e-004
-4.657452e-005,-1.195039e-004
-5.338126e-005,-1.071869e-004
-4.122636e-005,-9.486997e-005
-2.501983e-005,-8.530812e-005
-1.659243e-005,-8.028410e-005
-2.323711e-005,-7.817725e-005
-4.479180e-005,-7.315322e-005
-7.882551e-005,-5.856735e-005
-1.206384e-004,-3.539201e-005
-1.668270e-004,-8.165035e-006
-2.147983e-004,1.452411e-005
-2.595283e-004,3.186510e-005
-2.852967e-004,4.353380e-005
-2.757348e-004,5.358185e-005
-2.172293e-004,6.427817e-005
-1.164247e-004,7.546067e-005
-1.520357e-006,8.550872e-005
9.312580e-005,9.215340e-005
1.529279e-004,9.782569e-005
1.751309e-004,1.080358e-004
1.715654e-004,1.253768e-004
1.568175e-004,1.479039e-004
1.417454e-004,1.699448e-004
1.354248e-004,1.884202e-004
1.425557e-004,2.000889e-004
1.610312e-004,2.046267e-004
1.817755e-004,2.036544e-004
1.981441e-004,2.025199e-004
2.094887e-004,2.055991e-004
2.237505e-004,2.115956e-004
2.475741e-004,2.140265e-004
2.901973e-004,2.075439e-004
3.527545e-004,1.910133e-004
4.221185e-004,1.644345e-004
4.781931e-004,1.308870e-004
5.023408e-004,9.361199e-005
4.869446e-004,5.666109e-005
4.316803e-004,2.489629e-005
3.444891e-004,4.313994e-006
2.388225e-004,-2.492749e-006
1.300767e-004,2.623614e-007
2.829966e-005,7.069105e-006
-5.500191e-005,1.387585e-005
-1.130213e-004,1.922400e-005
-1.376552e-004,2.295151e-005
-1.245279e-004,2.441009e-005
-8.077030e-005,2.100672e-005
-3.053005e-005,1.128280e-005
-7.516774e-006,-7.030578e-006
-3.717473e-005,-4.074016e-005
-1.212866e-004,-8.757704e-005
-2.397564e-004,-1.378173e-004
-3.609812e-004,-1.810887e-004
-4.549791e-004,-2.107467e-004
-5.018159e-004,-2.201465e-004
-4.941989e-004,-2.058847e-004
-4.447690e-004,-1.716889e-004
-3.784843e-004,-1.224211e-004
-3.253268e-004,-6.229485e-005
-3.013411e-004,1.396819e-006
-3.018274e-004,5.795762e-005
-3.087962e-004,9.733949e-005
-2.971275e-004,1.164632e-004
-2.455907e-004,1.206769e-004
-1.480274e-004,1.150046e-004
-1.416145e-005,1.015532e-004
1.318594e-004,8.016057e-005
2.641047e-004,5.179914e-005
3.624784e-004,2.408596e-005
4.125566e-004,3.341602e-006
4.057499e-004,-1.092015e-005
3.475684e-004,-2.420950e-005
2.610255e-004,-4.138842e-005
1.801549e-004,-6.504996e-005
1.347766e-004,-9.195280e-005
1.368834e-004,-1.164247e-004
1.741585e-004,-1.326312e-004
2.162954e-004,-1.339277e-004
2.359054e-004,-1.135075e-004
2.211574e-004,-6.974985e-005
1.754550e-004,-1.010982e-005
1.114392e-004,5.228533e-005
4.304761e-005,1.051186e-004
-1.643037e-005,1.410971e-004
-4.754691e-005,1.563313e-004
-3.279896e-005,1.479039e-004
2.667901e-005,1.128978e-004
1.117633e-004,5.487838e-005
1.926339e-004,-1.950961e-005
2.365536e-004,-9.924574e-005
2.205092e-004,-1.731475e-004
1.485521e-004,-2.295462e-004
4.353380e-005,-2.606628e-004
-6.164659e-005,-2.629317e-004
-1.420310e-004,-2.370013e-004
-1.917850e-004,-1.916230e-004
-2.188499e-004,-1.370070e-004
-2.355427e-004,-7.914964e-005
-2.515871e-004,-2.404744e-005
-2.703867e-004,2.295151e-005
-2.887001e-004,6.265751e-005
-3.058790e-004,9.960841e-005
-3.238683e-004,1.312112e-004
-3.410472e-004,1.487142e-004
-3.532020e-004,1.509831e-004
-3.556330e-004,1.417454e-004
-3.418575e-004,1.294284e-004
-3.057169e-004,1.188942e-004
-2.425115e-004,1.075496e-004
-1.514308e-004,9.134307e-005
-4.851930e-005,7.092284e-005
3.996837e-005,4.256141e-005
9.134307e-005,6.420843e-006
1.007429e-004,-3.053005e-005
7.627100e-005,-5.824322e-005
3.494434e-005,-6.861539e-005
-6.058186e-006,-6.245691e-005
-3.571614e-005,-4.657452e-005
-4.851930e-005,-3.231277e-005
-4.430560e-005,-3.409549e-005
-2.971972e-005,-6.456377e-005
-7.030578e-006,-1.250141e-004
1.744129e-005,-2.045882e-004
2.765140e-005,-2.809209e-004
1.614476e-005,-3.381300e-004
-1.205460e-005,-3.757291e-004
-4.770897e-005,-4.039285e-004
-8.239095e-005,-4.272659e-004
-1.125351e-004,-4.408794e-004
-1.405724e-004,-4.319658e-004
-1.752544e-004,-3.909633e-004
-2.258187e-004,-3.175477e-004
-2.922655e-004,-2.152845e-004
-3.630881e-004,-9.243900e-005
-4.240246e-004,3.283749e-005
-4.624341e-004,1.417454e-004
-4.716718e-004,2.234263e-004
-4.510895e-004,2.756114e-004
-4.112214e-004,3.010556e-004
-3.674638e-004,3.089969e-004
-3.389403e-004,3.102934e-004
-3.292164e-004,3.094830e-004
-3.250027e-004,3.046211e-004
-3.092824e-004,2.901973e-004
-2.781658e-004,2.658874e-004
-2.358668e-004,2.388225e-004
-1.901644e-004,2.180782e-004
-1.413827e-004,2.051129e-004
-8.887356e-005,1.932822e-004
-2.631635e-005,1.756171e-004
5.277153e-005,1.475797e-004
1.412592e-004,1.109530e-004
2.182402e-004,7.270556e-005
2.603772e-004,3.494434e-005
2.545429e-004,3.017472e-006
2.075439e-004,-2.226472e-005
1.410971e-004,-3.766092e-005
7.870197e-005,-4.057810e-005
3.915804e-005,-2.939559e-005
2.603075e-005,-6.706447e-006
3.170304e-005,2.359977e-005
4.483033e-005,5.779555e-005
6.314371e-005,8.534666e-005
9.312580e-005,1.005808e-004
1.415833e-004,1.020394e-004
2.154851e-004,9.409818e-005
3.167760e-004,8.518459e-005
4.360561e-004,8.421220e-005
5.642498e-004,9.652917e-005
6.964952e-004,1.211631e-004
8.313337e-004,1.496866e-004
9.545035e-004,1.764274e-004
1.038129e-003,1.968476e-004
1.057901e-003,2.162954e-004
9.972887e-004,2.337985e-004
8.632605e-004,2.464396e-004
6.874196e-004,2.540567e-004
5.089855e-004,2.561635e-004
3.606957e-004,2.496809e-004
2.568118e-004,2.315296e-004
1.913374e-004,2.025199e-004
1.430419e-004,1.676758e-004
9.474644e-005,1.328318e-004
4.126489e-005,1.034980e-004
-1.318906e-005,8.469840e-005
-6.391550e-005,8.129502e-005
-1.037836e-004,8.923623e-005
-1.313347e-004,1.033359e-004
-1.522411e-004,1.151667e-004
-1.737958e-004,1.195424e-004
-1.982676e-004,1.192183e-004
-2.222533e-004,1.188942e-004
-2.394322e-004,1.221355e-004
-2.418632e-004,1.278078e-004
-2.266291e-004,1.323456e-004
-1.950263e-004,1.344524e-004
-1.525652e-004,1.320215e-004
-1.044318e-004,1.257009e-004
-5.240886e-005,1.169494e-004
2.045080e-006,1.124116e-004
5.666109e-005,1.182459e-004
9.798775e-005,1.321835e-004
1.080358e-004,1.449867e-004
8.615699e-005,1.501728e-004
4.304761e-005,1.464453e-004
-5.571990e-006,1.355869e-004
-4.560212e-005,1.179218e-004
-6.910160e-005,9.636710e-005
-7.720486e-005,7.140904e-005
-7.218083e-005,4.483033e-005
-5.905355e-005,1.825161e-005
-4.349527e-005,-5.085794e-006
-3.215070e-005,-2.129233e-005
-2.826114e-005,-3.215070e-005
-3.620233e-005,-3.717473e-005
-5.710876e-005,-3.749886e-005
-8.482193e-005,-3.522994e-005
-1.028112e-004,-3.701266e-005
-9.875954e-005,-5.192267e-005
-7.444975e-005,-8.384954e-005
-4.349527e-005,-1.302002e-004
-1.837515e-005,-1.809267e-004
-8.327101e-006,-2.277635e-004
-1.286493e-005,-2.697385e-004
-2.890940e-005,-3.073376e-004
-5.013995e-005,-3.455850e-004
-7.380149e-005,-3.864254e-004
-1.007043e-004,-4.288866e-004
-1.271210e-004,-4.682684e-004
-1.498101e-004,-4.984126e-004
-1.676373e-004,-5.113778e-004
-1.815749e-004,-5.031124e-004
-1.862748e-004,-4.729683e-004
-1.806025e-004,-4.267797e-004
-1.715269e-004,-3.741085e-004
-1.697442e-004,-3.193304e-004
-1.797922e-004,-2.647144e-004
-1.953505e-004,-2.159328e-004
-1.989159e-004,-1.788198e-004
-1.767130e-004,-1.564548e-004
-1.302002e-004,-1.426792e-004
-7.526008e-005,-1.352242e-004
-2.842320e-005,-1.277692e-004
-6.176923e-008,-1.151281e-004
1.112074e-005,-9.746302e-005
8.203562e-006,-7.396356e-005
-4.761664e-006,-5.111234e-005
-1.902341e-005,-3.328516e-005
-2.485776e-005,-1.837515e-005
-9.461558e-006,-3.141010e-006
3.883391e-005,1.306552e-005
1.180839e-004,3.024445e-005
2.198609e-004,5.001642e-005
3.305515e-004,7.043665e-005
4.305459e-004,8.988449e-005
4.960203e-004,1.056048e-004
5.120648e-004,1.192183e-004
4.840274e-004,1.362352e-004
4.256839e-004,1.574657e-004
3.465960e-004,1.809652e-004
2.568118e-004,2.047888e-004
1.647587e-004,2.253711e-004
7.594687e-005,2.391467e-004
-1.358292e-006,2.451431e-004
-5.824322e-005,2.443328e-004
-9.405965e-005,2.376881e-004
-1.123730e-004,2.282883e-004
-1.208004e-004,2.190506e-004
-1.272830e-004,2.096508e-004
-1.357104e-004,2.015475e-004
-1.446240e-004,1.966855e-004
-1.511067e-004,1.940925e-004
-1.524032e-004,1.911753e-004
-1.517549e-004,1.858272e-004
-1.507825e-004,1.772377e-004
-1.561307e-004,1.675138e-004
-1.705545e-004,1.602208e-004
-1.893541e-004,1.543865e-004
-2.122053e-004,1.456350e-004
-2.350565e-004,1.320215e-004
-2.506147e-004,1.145184e-004
-2.515871e-004,9.571884e-005
-2.350565e-004,7.627100e-005
-2.024813e-004,5.682316e-005
-1.619650e-004,3.624086e-005
-1.242038e-004,1.549650e-005
-9.017008e-005,-5.085794e-006
-6.099833e-005,-2.242678e-005
-4.025397e-005,-3.539201e-005
-2.631635e-005,-4.284701e-005
-1.740276e-005,-4.803310e-005
-1.075808e-005,-5.354332e-005
-2.492749e-006,-5.921561e-005
1.209313e-005,-6.926366e-005
2.878586e-005,-8.320128e-005
4.337174e-005,-1.036215e-004
5.082674e-005,-1.259865e-004
4.612685e-005,-1.468929e-004
3.024445e-005,-1.640719e-004
1.128280e-005,-1.786577e-004
9.175954e-006,-1.921092e-004
4.191315e-005,-2.042641e-004
1.171115e-004,-2.165810e-004
2.218057e-004,-2.300324e-004
3.208276e-004,-2.455907e-004
3.717161e-004,-2.642282e-004
3.457857e-004,-2.823795e-004
2.454672e-004,-2.963172e-004
9.798775e-005,-3.024756e-004
-5.629844e-005,-2.993964e-004
-1.794681e-004,-2.904828e-004
-2.425115e-004,-2.760590e-004
-2.395943e-004,-2.561249e-004
-1.885437e-004,-2.313290e-004
-1.159385e-004,-2.102605e-004
-4.673658e-005,-1.987538e-004
9.106227e-007,-1.912988e-004
1.582063e-005,-1.784957e-004
6.096713e-006,-1.545100e-004
-9.137427e-006,-1.191798e-004
-2.177852e-005,-7.461182e-005
-3.344723e-005,-2.258885e-005
-4.722278e-005,3.526847e-005
-5.386745e-005,9.328786e-005
-3.506788e-005,1.448246e-004
1.727922e-005,1.855030e-004
1.056048e-004,2.190506e-004
2.213195e-004,2.474120e-004
3.370341e-004,2.736666e-004
4.298976e-004,2.978143e-004
4.931031e-004,3.219621e-004
5.318367e-004,3.483787e-004
5.527431e-004,3.764160e-004
5.519328e-004,4.007258e-004
5.221128e-004,4.206599e-004
4.603659e-004,4.352458e-004
3.707437e-004,4.384871e-004
2.655633e-004,4.219564e-004
1.579519e-004,3.856538e-004
5.536457e-005,3.394651e-004
-3.652646e-005,2.960316e-004
-1.099421e-004,2.613496e-004
-1.559686e-004,2.308813e-004
-1.695821e-004,1.979821e-004
-1.543479e-004,1.673517e-004
-1.211246e-004,1.425557e-004
-8.563225e-005,1.247285e-004
-6.197072e-005,1.151667e-004
-5.321920e-005,1.114392e-004
-5.402952e-005,1.109530e-004
-6.002594e-005,1.111150e-004
-7.169464e-005,1.098185e-004
-9.000802e-005,9.766362e-005
-1.180453e-004,6.978839e-005
-1.618029e-004,3.170304e-005
-2.217671e-004,-1.140634e-005
-2.912931e-004,-5.435365e-005
-3.616295e-004,-9.162867e-005
-4.267797e-004,-1.164247e-004
-4.770200e-004,-1.259865e-004
-5.048952e-004,-1.196660e-004
-5.073262e-004,-1.076731e-004
-4.841508e-004,-9.697683e-005
-4.366657e-004,-9.519411e-005
-3.629260e-004,-1.070249e-004
-2.658489e-004,-1.302002e-004
-1.538618e-004,-1.530514e-004
-3.830919e-005,-1.639098e-004
6.395404e-005,-1.590478e-004
1.399627e-004,-1.438137e-004
1.793446e-004,-1.318209e-004
1.738343e-004,-1.361966e-004
1.188942e-004,-1.590478e-004
1.954813e-005,-1.921092e-004
-1.039456e-004,-2.258187e-004
-2.269532e-004,-2.507768e-004
-3.254889e-004,-2.622834e-004
-3.814014e-004,-2.585559e-004
-3.916115e-004,-2.400805e-004
-3.692465e-004,-2.068571e-004
-3.324577e-004,-1.645581e-004
-2.972895e-004,-1.172350e-004
-2.660110e-004,-7.299116e-005
-2.276015e-004,-4.057810e-005
-1.724993e-004,-1.108221e-005
-1.055663e-004,3.251336e-005
-3.992984e-005,1.033359e-004
5.772582e-006,1.931201e-004
2.473423e-005,2.767458e-004
2.214118e-005,3.313618e-004
9.338019e-006,3.474063e-004
-1.844488e-006,3.276344e-004
2.623614e-007,2.803113e-004
3.105477e-005,2.192126e-004
1.075496e-004,1.568175e-004
2.384984e-004,1.013911e-004
4.204978e-004,5.536457e-005
6.355586e-004,1.679302e-005
8.470541e-004,-1.367526e-005
1.018681e-003,-3.539201e-005
1.117055e-003,-4.706071e-005
1.125969e-003,-5.143648e-005
1.052067e-003,-5.354332e-005
9.293833e-004,-6.213279e-005
8.016757e-004,-8.611845e-005
7.049226e-004,-1.277692e-004
6.525755e-004,-1.715269e-004
6.349103e-004,-1.959987e-004
6.269692e-004,-1.864369e-004
5.974732e-004,-1.434896e-004
5.211404e-004,-8.514606e-005
3.895433e-004,-3.215070e-005
2.180782e-004,-8.720959e-007
3.932010e-005,5.772582e-006
-1.148040e-004,-5.409925e-006
-2.258187e-004,-2.631635e-005
-2.912931e-004,-5.402952e-005
-3.180339e-004,-8.725291e-005
-3.168994e-004,-1.177212e-004
-3.019894e-004,-1.430034e-004
-2.843243e-004,-1.665028e-004
-2.711970e-004,-1.909747e-004
-2.627696e-004,-2.165810e-004
-2.566112e-004,-2.402425e-004
-2.511010e-004,-2.545043e-004
-2.525595e-004,-2.502906e-004
-2.663351e-004,-2.224154e-004
-2.906449e-004,-1.733096e-004
-3.199787e-004,-1.117248e-004
-3.407231e-004,-4.673658e-005
-3.314853e-004,1.355172e-005
-2.734659e-004,6.719535e-005
-1.676373e-004,1.188942e-004
-3.701266e-005,1.718896e-004
7.448828e-005,2.253711e-004
1.261871e-004,2.731804e-004
9.312580e-005,3.094830e-004
-1.983374e-005,3.292550e-004
-1.770371e-004,3.362238e-004
-3.322956e-004,3.347652e-004
-4.554653e-004,3.313618e-004
-5.356876e-004,3.269861e-004
-5.755557e-004,3.161277e-004
-5.810658e-004,2.983005e-004
-5.643732e-004,2.780424e-004
-5.450874e-004,2.572980e-004
-5.426564e-004,2.380122e-004
-5.543251e-004,2.211574e-004
-5.705316e-004,2.070577e-004
-5.799314e-004,1.947408e-004
-5.770142e-004,1.832341e-004
-5.624284e-004,1.718896e-004
-5.366600e-004,1.592484e-004
-4.922541e-004,1.448246e-004
-4.214316e-004,1.276457e-004
-3.339163e-004,1.070634e-004
-2.501286e-004,8.323981e-005
-1.909747e-004,5.747142e-005
-1.656925e-004,3.445814e-005
-1.682856e-004,2.068259e-005
-1.836818e-004,1.419998e-005
-1.974573e-004,9.338019e-006
-2.011848e-004,5.124321e-006
-1.891920e-004,1.720949e-006
-1.512687e-004,-2.816880e-006
-8.093236e-005,-1.318906e-005
1.387585e-005,-3.182657e-005
1.146805e-004,-5.467778e-005
1.989545e-004,-8.093236e-005
2.555152e-004,-1.081593e-004
2.846870e-004,-1.339277e-004
2.923041e-004,-1.590478e-004
2.853353e-004,-1.857886e-004
2.756114e-004,-2.128535e-004
2.709115e-004,-2.399184e-004
2.739907e-004,-2.699005e-004
2.895490e-004,-2.993964e-004
3.174242e-004,-3.183580e-004
3.482167e-004,-3.170615e-004
3.684748e-004,-2.896725e-004
3.744712e-004,-2.366771e-004
3.756057e-004,-1.626133e-004
3.830607e-004,-7.931171e-005
4.046154e-004,2.623614e-007
4.441593e-004,6.541262e-005
4.893756e-004,1.107909e-004
5.172509e-004,1.417454e-004
5.117406e-004,1.623277e-004
4.717105e-004,1.785342e-004
4.128807e-004,1.957132e-004
3.665301e-004,2.164575e-004
3.568061e-004,2.386605e-004
3.869503e-004,2.595669e-004
4.381629e-004,2.709115e-004
4.798138e-004,2.662116e-004
4.843516e-004,2.521119e-004
4.418904e-004,2.372019e-004
3.606957e-004,2.253711e-004
2.615117e-004,2.185644e-004
1.658931e-004,2.132162e-004
8.875003e-005,2.051129e-004
3.883391e-005,1.960373e-004
1.727922e-005,1.877720e-004
1.760335e-005,1.817755e-004
2.635488e-005,1.812893e-004
2.992031e-005,1.892305e-004
2.084466e-005,2.034923e-004
-2.330684e-006,2.196988e-004
-2.971972e-005,2.292607e-004
-4.284701e-005,2.245608e-004
-2.161646e-005,2.018716e-004
4.742337e-005,1.637863e-004
1.514693e-004,1.150046e-004
2.582704e-004,6.168512e-005
3.341170e-004,4.313994e-006
3.592371e-004,-5.905355e-005
3.331446e-004,-1.287416e-004
2.702632e-004,-1.989159e-004
1.919856e-004,-2.572594e-004
1.200286e-004,-2.930758e-004
6.735741e-005,-3.008550e-004
3.575467e-005,-2.805968e-004
1.971020e-005,-2.392702e-004
9.500085e-006,-1.849783e-004
-2.330684e-006,-1.331174e-004
-1.643037e-005,-9.503204e-005
-3.312309e-005,-7.477388e-005
-4.884343e-005,-6.958779e-005
-6.197072e-005,-7.461182e-005
-7.493595e-005,-8.384954e-005
-8.952183e-005,-9.535618e-005
-1.092938e-004,-1.068628e-004
-1.413827e-004,-1.156143e-004
-1.828714e-004,-1.196660e-004
-2.212809e-004,-1.173971e-004
-2.438080e-004,-1.125351e-004
-2.483458e-004,-1.086455e-004
-2.433218e-004,-1.081593e-004
-2.459149e-004,-1.136696e-004
-2.643903e-004,-1.230693e-004
-2.935620e-004,-1.331174e-004
-3.264613e-004,-1.439758e-004
-3.556330e-004,-1.553203e-004
-3.736223e-004,-1.665028e-004
-3.757291e-004,-1.760647e-004
-3.608192e-004,-1.838438e-004
-3.309991e-004,-1.912988e-004
-2.893484e-004,-1.969711e-004
-2.438080e-004,-1.989159e-004
-1.987538e-004,-1.985918e-004
-1.527273e-004,-1.963229e-004
-1.055663e-004,-1.912988e-004
-6.472583e-005,-1.877334e-004
-4.608832e-005,-1.890299e-004
-6.180866e-005,-1.948643e-004
-1.109144e-004,-2.019951e-004
-1.752544e-004,-2.070192e-004
-2.295462e-004,-2.078295e-004
-2.585559e-004,-2.049123e-004
-2.593663e-004,-1.958367e-004
-2.370013e-004,-1.759026e-004
-1.997262e-004,-1.465688e-004
-1.593720e-004,-1.120489e-004
-1.251762e-004,-7.882551e-005
-1.023250e-004,-4.754691e-005
-9.179074e-005,-1.918548e-005
-8.709085e-005,6.582909e-006
-7.736692e-005,3.040651e-005
-5.402952e-005,5.293359e-005
-1.659243e-005,7.562274e-005
3.283749e-005,9.879808e-005
8.680524e-005,1.188942e-004
1.273216e-004,1.349386e-004
1.389903e-004,1.503349e-004
1.185701e-004,1.684862e-004
7.270556e-005,1.885823e-004
1.047248e-005,2.096508e-004
-5.030202e-005,2.290986e-004
-8.854943e-005,2.404432e-004
-9.438378e-005,2.412535e-004
-7.315322e-005,2.380122e-004
-3.571614e-005,2.391467e-004
1.014835e-005,2.485465e-004
6.670914e-005,2.636185e-004
1.389903e-004,2.767458e-004
2.284504e-004,2.829043e-004
3.256896e-004,2.832284e-004
4.149876e-004,2.791768e-004
4.830550e-004,2.707494e-004
5.206542e-004,2.521119e-004
5.318367e-004,2.200230e-004
5.263265e-004,1.796687e-004
5.208163e-004,1.380179e-004
5.172509e-004,1.070634e-004
5.060683e-004,9.426025e-005
4.785172e-004,1.002567e-004
4.339493e-004,1.193804e-004
3.733368e-004,1.445005e-004
2.947351e-004,1.705930e-004
1.966855e-004,1.984683e-004
8.696731e-005,2.268297e-004
-2.194059e-005,2.504913e-004
-1.173971e-004,2.584324e-004
-1.945401e-004,2.459534e-004
-2.559629e-004,2.128921e-004
-3.092824e-004,1.667035e-004
-3.634122e-004,1.179218e-004
-4.164075e-004,7.740546e-005
-4.562756e-004,5.082674e-005
-4.747511e-004,3.462021e-005
-4.694029e-004,1.971020e-005
-4.356933e-004,-2.006553e-006
-3.720016e-004,-3.344723e-005
-2.760590e-004,-6.877746e-005
-1.457585e-004,-9.584238e-005
1.257933e-005,-1.122110e-004
1.795066e-004,-1.224211e-004
3.256896e-004,-1.311726e-004
4.201737e-004,-1.387897e-004
4.456179e-004,-1.420310e-004
4.065602e-004,-1.433275e-004
3.214759e-004,-1.496481e-004
2.072198e-004,-1.639098e-004
7.740546e-005,-1.878955e-004
-6.197072e-005,-2.165810e-004
-2.018331e-004,-2.410529e-004
-3.319715e-004,-2.577456e-004
-4.446069e-004,-2.690902e-004
-5.364979e-004,-2.773555e-004
-6.035930e-004,-2.844864e-004
-6.376266e-004,-2.885380e-004
-6.351956e-004,-2.893484e-004
-6.021344e-004,-2.854588e-004
-5.540010e-004,-2.818933e-004
-4.977643e-004,-2.767073e-004
-4.316416e-004,-2.658489e-004
-3.510952e-004,-2.486699e-004
-2.580697e-004,-2.233878e-004
-1.543479e-004,-1.930815e-004
-4.592625e-005,-1.609926e-004
6.865393e-005,-1.264727e-004
1.989545e-004,-9.114248e-005
3.532407e-004,-5.694670e-005
5.376711e-004,-2.971972e-005
7.417115e-004,-1.480971e-005
9.376486e-004,-1.480971e-005
1.090963e-003,-2.258885e-005
1.171509e-003,-2.842320e-005
1.164216e-003,-2.048200e-005
1.072001e-003,1.063454e-005
9.146354e-004,6.395404e-005
7.269635e-004,1.328318e-004
5.542018e-004,2.051129e-004
4.310321e-004,2.694529e-004
3.684748e-004,3.167760e-004
3.558337e-004,3.405996e-004
3.615060e-004,3.360618e-004
3.511338e-004,3.080245e-004
3.028383e-004,2.702632e-004
2.112714e-004,2.409294e-004
9.182927e-005,2.292607e-004
-3.215070e-005,2.342847e-004
-1.391138e-004,2.532463e-004
-2.199844e-004,2.846870e-004
-2.728177e-004,3.269861e-004
-3.024756e-004,3.751195e-004
-3.245165e-004,4.204978e-004
-3.551469e-004,4.538833e-004
-3.995528e-004,4.619866e-004
-4.412035e-004,4.407560e-004
-4.582204e-004,3.945674e-004
-4.433104e-004,3.256896e-004
-4.087905e-004,2.431983e-004
-3.757291e-004,1.532520e-004
-3.569296e-004,6.557468e-005
-3.517435e-004,-1.173047e-005
-3.543365e-004,-7.704279e-005
-3.582261e-004,-1.344139e-004
-3.595226e-004,-1.906506e-004
-3.549848e-004,-2.525595e-004
-3.405610e-004,-3.194925e-004
-3.248407e-004,-3.867496e-004
-3.167374e-004,-4.457413e-004
-3.225718e-004,-4.841508e-004
-3.403989e-004,-4.953333e-004
-3.613053e-004,-4.786406e-004
-3.745947e-004,-4.343968e-004
-3.684362e-004,-3.629260e-004
-3.465574e-004,-2.614731e-004
-3.227338e-004,-1.306864e-004
-3.076617e-004,1.419998e-005
-3.032860e-004,1.506590e-004
-3.045825e-004,2.587566e-004
-3.062031e-004,3.235827e-004
-3.049066e-004,3.399513e-004
-2.984240e-004,3.120761e-004
-2.901587e-004,2.555152e-004
-2.857829e-004,1.905271e-004
-2.854588e-004,1.291043e-004
-2.857829e-004,7.059871e-005
-2.822175e-004,9.986281e-006
-2.677937e-004,-5.305713e-005
-2.402425e-004,-1.156143e-004
-1.977815e-004,-1.686097e-004
-1.486757e-004,-2.068571e-004
-9.940781e-005,-2.292221e-004
-5.646050e-005,-2.392702e-004
-2.550602e-005,-2.395943e-004
-8.489166e-006,-2.319772e-004
-3.627206e-006,-2.185258e-004
-2.492749e-006,-2.029675e-004
3.179537e-006,-1.861127e-004
1.938607e-005,-1.692580e-004
4.936815e-005,-1.536997e-004
8.793970e-005,-1.417068e-004
1.323456e-004,-1.319829e-004
1.786963e-004,-1.222590e-004
2.282883e-004,-1.141558e-004
2.773941e-004,-1.237176e-004
3.239069e-004,-1.608306e-004
3.668542e-004,-2.241981e-004
4.038051e-004,-2.958309e-004
4.281149e-004,-3.494746e-004
4.370285e-004,-3.690845e-004
4.294114e-004,-3.468815e-004
4.085050e-004,-2.848105e-004
3.801436e-004,-1.981056e-004
3.516200e-004,-1.045939e-004
3.303894e-004,-1.626830e-005
3.190449e-004,6.087479e-005
3.145071e-004,1.265113e-004
3.171001e-004,1.808031e-004
3.248792e-004,2.234263e-004
3.371962e-004,2.556773e-004
3.506476e-004,2.770700e-004
3.611819e-004,2.885766e-004
3.650715e-004,2.926282e-004
3.610198e-004,2.979764e-004
3.511338e-004,3.088348e-004
3.371962e-004,3.299033e-004
3.159656e-004,3.572923e-004
2.822560e-004,3.822504e-004
2.357433e-004,3.897054e-004
1.832341e-004,3.684748e-004
1.304008e-004,3.185587e-004
8.178122e-005,2.503292e-004
4.013043e-005,1.829100e-004
7.393236e-006,1.376938e-004
-1.821308e-005,1.281319e-004
-3.863332e-005,1.466074e-004
-5.516398e-005,1.759412e-004
-6.942573e-005,1.965235e-004
-8.044617e-005,2.030061e-004
-8.239095e-005,2.030061e-004
-6.877746e-005,2.047888e-004
-4.057810e-005,2.175920e-004
-7.678839e-006,2.433604e-004
2.019640e-005,2.746390e-004
4.061663e-005,2.991108e-004
5.617490e-005,3.106175e-004
7.465034e-005,3.101313e-004
1.054428e-004,2.986247e-004
1.597346e-004,2.762596e-004
2.393087e-004,2.459534e-004
3.263378e-004,2.122438e-004
3.947294e-004,1.757791e-004
4.229288e-004,1.354248e-004
4.002396e-004,9.199134e-005
3.333067e-004,4.580272e-005
2.410915e-004,-1.034161e-006
1.433661e-004,-4.608832e-005
5.228533e-005,-8.660465e-005
-2.680255e-005,-1.180453e-004
-9.373552e-005,-1.402483e-004
-1.528894e-004,-1.533756e-004
-2.120432e-004,-1.572651e-004
-2.812451e-004,-1.514308e-004
-3.621157e-004,-1.349001e-004
-4.475241e-004,-1.086455e-004
-5.248293e-004,-7.898758e-005
-5.877105e-004,-5.208474e-005
-6.363301e-004,-3.279896e-005
-6.753879e-004,-2.258885e-005
-7.102319e-004,-2.388537e-005
-7.402140e-004,-3.377136e-005
-7.612825e-004,-4.965376e-005
-7.684134e-004,-6.877746e-005
-7.546378e-004,-9.049421e-005
-7.086112e-004,-1.107524e-004
-6.176926e-004,-1.243659e-004
-4.711856e-004,-1.300382e-004
-2.703867e-004,-1.284175e-004
-3.879538e-005,-1.217728e-004
1.793446e-004,-1.144799e-004
3.375204e-004,-1.110765e-004
4.130428e-004,-1.152902e-004
4.260080e-004,-1.235555e-004
4.206599e-004,-1.326312e-004
4.412422e-004,-1.383035e-004
5.062304e-004,-1.392759e-004
6.130316e-004,-1.337657e-004
7.374978e-004,-1.214487e-004
8.600192e-004,-1.037836e-004
9.692514e-004,-8.077030e-005
1.068111e-003,-5.354332e-005
1.161623e-003,-2.680255e-005
1.242818e-003,-1.196227e-006
1.291924e-003,2.311357e-005
1.282200e-003,4.418206e-005
1.195009e-003,6.427817e-005
1.037319e-003,8.567078e-005
8.397611e-004,1.086841e-004
6.344241e-004,1.315353e-004
4.478869e-004,1.479039e-004
2.952213e-004,1.547106e-004
1.812893e-004,1.539003e-004
1.010670e-004,1.464453e-004
3.980630e-005,1.344524e-004
-1.724069e-005,1.124116e-004
-7.850138e-005,7.643307e-005
-1.444620e-004,3.380988e-005
-2.172293e-004,-6.058186e-006
-2.989102e-004,-3.604027e-005
-3.865875e-004,-5.808115e-005
-4.713477e-004,-7.623246e-005
-5.415219e-004,-9.438378e-005
-5.869002e-004,-1.206384e-004
-6.061860e-004,-1.502963e-004
-6.118583e-004,-1.700683e-004
-6.131548e-004,-1.708786e-004
-6.170443e-004,-1.561307e-004
-6.172064e-004,-1.300382e-004
-6.089411e-004,-9.389759e-005
-5.932208e-004,-4.965376e-005
-5.716661e-004,-6.706447e-006
-5.424943e-004,2.765140e-005
-5.091089e-004,4.790957e-005
-4.784786e-004,5.763349e-005
-4.611376e-004,6.460230e-005
-4.614617e-004,7.562274e-005
-4.781544e-004,8.810177e-005
-5.052193e-004,1.010670e-004
-5.345531e-004,1.099806e-004
-5.551354e-004,1.083599e-004
-5.608077e-004,9.636710e-005
-5.548113e-004,7.740546e-005
-5.447632e-004,5.520250e-005
-5.368221e-004,3.251336e-005
-5.347152e-004,8.851824e-006
-5.399013e-004,-2.307504e-005
-5.507597e-004,-6.342931e-005
-5.543251e-004,-1.018388e-004
-5.348772e-004,-1.334415e-004
-4.838267e-004,-1.553203e-004
-4.002010e-004,-1.686097e-004
-2.927517e-004,-1.737958e-004
-1.773612e-004,-1.689338e-004
-7.769106e-005,-1.600202e-004
-1.270286e-005,-1.524032e-004
8.851824e-006,-1.489998e-004
-6.544382e-006,-1.499722e-004
-3.312309e-005,-1.504584e-004
-4.106429e-005,-1.464067e-004
-1.010982e-005,-1.352242e-004
5.228533e-005,-1.204763e-004
1.175977e-004,-1.075111e-004
1.514693e-004,-1.024871e-004
1.333180e-004,-1.057284e-004
6.444023e-005,-1.180453e-004
-3.279896e-005,-1.336036e-004
-1.208004e-004,-1.472171e-004
-1.694200e-004,-1.556445e-004
-1.689338e-004,-1.622891e-004
-1.324691e-004,-1.791439e-004
-8.012204e-005,-2.100984e-004
-2.291298e-005,-2.459149e-004
3.526847e-005,-2.747625e-004
9.555677e-005,-2.846485e-004
1.610312e-004,-2.739521e-004
2.261814e-004,-2.420253e-004
2.848491e-004,-1.937298e-004
3.355756e-004,-1.357104e-004
3.819262e-004,-7.704279e-005
4.276287e-004,-2.323711e-005
4.715484e-004,2.781346e-005
5.110924e-004,7.691926e-005
5.465847e-004,1.250527e-004
5.811046e-004,1.709172e-004
6.146522e-004,2.112714e-004
6.436619e-004,2.404432e-004
6.616511e-004,2.581083e-004
6.551685e-004,2.692908e-004
6.209727e-004,2.769079e-004
5.725152e-004,2.783665e-004
5.276231e-004,2.730183e-004
4.966686e-004,2.628082e-004
4.764104e-004,2.542187e-004
4.516144e-004,2.532463e-004
4.039671e-004,2.624841e-004
3.252034e-004,2.801492e-004
2.214815e-004,2.995970e-004
1.130598e-004,3.159656e-004
1.727922e-005,3.286068e-004
-5.759496e-005,3.388169e-004
-1.123730e-004,3.501615e-004
-1.488377e-004,3.600474e-004
-1.682856e-004,3.637749e-004
-1.733096e-004,3.555096e-004
-1.665028e-004,3.373583e-004
-1.559686e-004,3.162898e-004
-1.436516e-004,2.952213e-004
-1.279313e-004,2.746390e-004
-1.041077e-004,2.558394e-004
-7.120844e-005,2.407673e-004
-3.344723e-005,2.286124e-004
7.485573e-007,2.125679e-004
2.376183e-005,1.850168e-004
3.478228e-005,1.412592e-004
3.413401e-005,8.567078e-005
2.376183e-005,3.186510e-005
6.420843e-006,-1.156841e-005
-1.756482e-005,-3.895745e-005
-4.835724e-005,-4.171256e-005
-8.417367e-005,-1.464765e-005
-1.225832e-004,4.029250e-005
-1.648822e-004,1.098185e-004
-2.113949e-004,1.736723e-004
-2.650386e-004,2.177540e-004
-3.196545e-004,2.381743e-004
-3.656811e-004,2.378501e-004
-3.893426e-004,2.219677e-004
-3.859393e-004,1.910133e-004
-3.629260e-004,1.407730e-004
-3.264613e-004,6.751948e-005
-2.797865e-004,-2.631635e-005
-2.237119e-004,-1.327933e-004
-1.645581e-004,-2.374874e-004
-1.110765e-004,-3.314853e-004
-7.201877e-005,-4.096008e-004
-4.608832e-005,-4.659995e-004
-2.210265e-005,-4.967919e-004
9.662150e-006,-5.006815e-004
4.515445e-005,-4.854474e-004
7.059871e-005,-4.645409e-004
7.578480e-005,-4.486585e-004
6.508849e-005,-4.446069e-004
5.941620e-005,-4.483344e-004
7.870197e-005,-4.540067e-004
1.336421e-004,-4.557894e-004
2.243987e-004,-4.494688e-004
3.371962e-004,-4.360174e-004
4.470765e-004,-4.211074e-004
5.263265e-004,-4.108973e-004
5.606844e-004,-3.977700e-004
5.529052e-004,-3.656811e-004
5.156302e-004,-2.997205e-004
4.582590e-004,-1.989159e-004
3.841952e-004,-7.866345e-005
2.987867e-004,3.413401e-005
2.190506e-004,1.203528e-004
1.751309e-004,1.735102e-004
1.874478e-004,1.955511e-004
2.474120e-004,1.971717e-004
3.201794e-004,1.903650e-004
3.734989e-004,1.803169e-004
3.885709e-004,1.639484e-004
3.626405e-004,1.279698e-004
3.080245e-004,6.444023e-005
2.393087e-004,-1.173047e-005
1.746447e-004,-7.898758e-005
1.279698e-004,-1.167488e-004
9.993253e-005,-1.151281e-004
8.323981e-005,-7.639453e-005
6.800567e-005,-1.464765e-005
4.904402e-005,5.260946e-005
3.154097e-005,1.128978e-004
1.744129e-005,1.615174e-004
7.879432e-006,1.961994e-004
6.420843e-006,2.193747e-004
1.760335e-005,2.329882e-004
3.996837e-005,2.427121e-004
7.529860e-005,2.543808e-004
1.247285e-004,2.725321e-004
1.782101e-004,3.000832e-004
2.156472e-004,3.334687e-004
2.172679e-004,3.662059e-004
1.772377e-004,3.882468e-004
1.075496e-004,3.992672e-004
2.943412e-005,4.036430e-004
-4.787104e-005,4.062361e-004
-1.253383e-004,4.078567e-004
-2.006986e-004,4.012120e-004
-2.653627e-004,3.806297e-004
-3.141443e-004,3.498373e-004
-3.501228e-004,3.114278e-004
-3.779981e-004,2.657254e-004
-4.071698e-004,2.085163e-004
-4.379622e-004,1.336421e-004
-4.692408e-004,3.980630e-005
-5.057055e-004,-6.278104e-005
-5.533527e-004,-1.592099e-004
-6.120203e-004,-2.339220e-004
-6.737672e-004,-2.752487e-004
-7.269246e-004,-2.849726e-004
-7.588515e-004,-2.765452e-004
-7.633893e-004,-2.624455e-004
-7.465345e-004,-2.506147e-004
-7.188214e-004,-2.434839e-004
-6.911082e-004,-2.318152e-004
-6.687432e-004,-2.136638e-004
-6.475127e-004,-1.885437e-004
-6.235270e-004,-1.548341e-004
-5.906277e-004,-1.154523e-004
-5.381186e-004,-7.266703e-005
-4.533584e-004,-2.988179e-005
-3.387782e-004,5.448452e-006
-2.206326e-004,2.441009e-005
-1.308485e-004,2.586868e-005
-8.498399e-005,1.403791e-005
-7.542214e-005,-2.978945e-006
-8.060823e-005,-1.918548e-005
-8.190475e-005,-3.344723e-005
-6.942573e-005,-4.592625e-005
-4.122636e-005,-5.986387e-005
1.257933e-005,-7.833932e-005
1.114392e-004,-1.015147e-004
2.641047e-004,-1.253383e-004
4.671726e-004,-1.386276e-004
7.073536e-004,-1.339277e-004
9.687652e-004,-1.096179e-004
1.227584e-003,-7.218083e-005
1.452207e-003,-3.215070e-005
1.598876e-003,3.017472e-006
1.622700e-003,3.056858e-005
1.514116e-003,4.985435e-005
1.296300e-003,6.330578e-005
1.012361e-003,7.221937e-005
7.159431e-004,8.016057e-005
4.508040e-004,8.907416e-005
2.397949e-004,1.009049e-004
8.453633e-005,1.145184e-004
-2.971972e-005,1.224596e-004
-1.230693e-004,1.229458e-004
-2.143121e-004,1.182459e-004
-3.120375e-004,1.135460e-004
-4.152731e-004,1.088461e-004
-5.120260e-004,1.026876e-004
-5.881967e-004,9.652917e-005
-6.235270e-004,9.231547e-005
-5.987309e-004,8.956036e-005
-5.040849e-004,8.761557e-005
-3.410472e-004,8.745350e-005
-1.279313e-004,9.328786e-005
9.280167e-005,1.060910e-004
2.628082e-004,1.263492e-004
3.399513e-004,1.517934e-004
3.148312e-004,1.785342e-004
2.179161e-004,2.010613e-004
1.017153e-004,2.130541e-004
1.257933e-005,2.140265e-004
-3.263690e-005,2.073819e-004
-4.868137e-005,1.963614e-004
-6.391550e-005,1.838824e-004
-1.018388e-004,1.741585e-004
-1.697442e-004,1.704310e-004
-2.509389e-004,1.680000e-004
-3.190063e-004,1.626518e-004
-3.485022e-004,1.522796e-004
-3.250027e-004,1.399627e-004
-2.561249e-004,1.305629e-004
-1.724993e-004,1.235941e-004
-1.203142e-004,1.090082e-004
-1.324691e-004,8.113296e-005
-2.117191e-004,3.818565e-005
-3.298647e-004,-1.254080e-005
-4.499550e-004,-6.326724e-005
-5.322842e-004,-1.058904e-004
-5.596732e-004,-1.353863e-004
-5.329325e-004,-1.481895e-004
-4.736166e-004,-1.499722e-004
-4.086284e-004,-1.462447e-004
-3.580640e-004,-1.361966e-004
-3.246786e-004,-1.190177e-004
-3.015032e-004,-9.486997e-005
-2.768693e-004,-6.715681e-005
-2.473734e-004,-3.960571e-005
-2.055606e-004,-1.821308e-005
-1.468929e-004,-6.220252e-006
-6.893953e-005,-3.858999e-007
2.732727e-005,1.002961e-007
1.304008e-004,-6.382317e-006
2.286124e-004,-2.048200e-005
3.096451e-004,-3.652646e-005
3.722023e-004,-5.192267e-005
4.143393e-004,-6.342931e-005
4.300596e-004,-7.412562e-005
4.156358e-004,-8.935975e-005
3.746333e-004,-1.110765e-004
3.148312e-004,-1.353863e-004
2.551911e-004,-1.561307e-004
2.188885e-004,-1.681235e-004
2.057612e-004,-1.695821e-004
1.984683e-004,-1.699062e-004
1.835583e-004,-1.817370e-004
1.558451e-004,-2.128535e-004
1.219734e-004,-2.567732e-004
9.426025e-005,-2.976137e-004
7.448828e-005,-3.215994e-004
5.909208e-005,-3.222476e-004
4.693717e-005,-3.015032e-004
3.624086e-005,-2.648765e-004
2.522042e-005,-2.198223e-004
1.371378e-005,-1.695821e-004
4.476060e-006,-1.203142e-004
-7.100305e-007,-7.493595e-005
3.503668e-006,-3.685060e-005
1.808955e-005,-3.789272e-006
4.158902e-005,2.716521e-005
6.573675e-005,5.374392e-005
7.837785e-005,7.254349e-005
7.756752e-005,7.886404e-005
7.286763e-005,6.849186e-005
7.319176e-005,4.661304e-005
7.967438e-005,2.262738e-005
8.956036e-005,-2.238346e-007
9.993253e-005,-2.404744e-005
1.085220e-004,-4.819517e-005
1.143563e-004,-7.088431e-005
1.219734e-004,-8.757704e-005
1.344524e-004,-9.535618e-005
1.461212e-004,-9.519411e-005
1.472556e-004,-8.968389e-005
1.386662e-004,-8.125649e-005
1.226217e-004,-7.088431e-005
1.106288e-004,-5.824322e-005
1.180839e-004,-4.381940e-005
1.519555e-004,-3.053005e-005
2.030061e-004,-1.821308e-005
2.495189e-004,-4.113403e-006
2.710735e-004,2.052053e-005
2.600531e-004,6.103686e-005
2.258573e-004,1.154908e-004
1.842065e-004,1.809652e-004
1.492004e-004,2.613496e-004
1.210010e-004,3.629646e-004
9.328786e-005,4.713863e-004
6.103686e-005,5.611706e-004
1.825161e-005,6.112488e-004
-2.923353e-005,6.156246e-004
-6.974985e-005,5.804563e-004
-9.308726e-005,5.174129e-004
-9.859748e-005,4.368664e-004
-9.940781e-005,3.469201e-004
-1.126972e-004,2.474120e-004
-1.452723e-004,1.367214e-004
-1.916230e-004,1.517237e-005
-2.386219e-004,-1.083214e-004
-2.734659e-004,-2.198223e-004
-2.953447e-004,-3.044204e-004
-3.115513e-004,-3.527159e-004
-3.275957e-004,-3.647087e-004
-3.410472e-004,-3.434782e-004
-3.522297e-004,-2.987481e-004
-3.653570e-004,-2.467252e-004
-3.773498e-004,-2.032917e-004
-3.765395e-004,-1.775233e-004
-3.533641e-004,-1.677994e-004
-3.042584e-004,-1.715269e-004
-2.374874e-004,-1.827094e-004
-1.676373e-004,-1.872472e-004
-1.055663e-004,-1.749302e-004
-4.916756e-005,-1.452723e-004
7.393236e-006,-1.094559e-004
6.832980e-005,-7.509801e-005
1.312112e-004,-4.462973e-005
1.864754e-004,-1.691656e-005
2.231022e-004,1.646890e-005
2.310434e-004,5.974033e-005
2.075439e-004,1.125736e-004
1.564933e-004,1.681620e-004
9.377406e-005,2.153231e-004
4.142696e-005,2.470879e-004
1.387585e-005,2.571359e-004
2.133085e-005,2.433604e-004
6.330578e-005,2.111094e-004
1.308870e-004,1.637863e-004
2.114335e-004,1.075496e-004
2.861456e-004,5.082674e-005
3.331446e-004,4.638125e-006
3.370341e-004,-2.599222e-005
2.986247e-004,-4.527799e-005
2.334744e-004,-6.035007e-005
1.628139e-004,-7.234290e-005
9.912221e-005,-8.044617e-005
4.693717e-005,-8.530812e-005
3.827799e-006,-8.838737e-005
-2.923353e-005,-9.422172e-005
-4.689865e-005,-1.057284e-004
-4.268495e-005,-1.264727e-004
-1.967167e-005,-1.506204e-004
1.063454e-005,-1.692580e-004
3.462021e-005,-1.705545e-004
4.450620e-005,-1.520790e-004
4.758544e-005,-1.186936e-004
5.682316e-005,-7.979791e-005
7.157111e-005,-4.236082e-005
9.069481e-005,-1.027188e-005
1.150046e-004,1.744129e-005
1.539003e-004,3.607880e-005
2.174299e-004,4.223728e-005
2.984626e-004,3.802358e-005
3.739850e-004,2.959619e-005
4.221185e-004,2.489629e-005
4.256839e-004,2.441009e-005
3.856538e-004,2.667901e-005
3.192070e-004,3.235129e-005
2.464396e-004,4.402000e-005
1.814514e-004,6.265751e-005
1.325077e-004,9.101894e-005
9.636710e-005,1.328318e-004
6.265751e-005,1.842065e-004
2.359977e-005,2.349330e-004
-2.291298e-005,2.713977e-004
-7.104638e-005,2.874421e-004
-1.156143e-004,2.853353e-004
-1.538618e-004,2.720459e-004
-1.870851e-004,2.594049e-004
-2.183637e-004,2.537325e-004
-2.488320e-004,2.550291e-004
-2.841623e-004,2.571359e-004
-3.232200e-004,2.517878e-004
-3.515814e-004,2.386605e-004
-3.416954e-004,2.243987e-004
-2.728177e-004,2.106232e-004
-1.425172e-004,1.947408e-004
2.716521e-005,1.730240e-004
2.004130e-004,1.435281e-004
3.391410e-004,1.054428e-004
4.182289e-004,6.362991e-005
4.355699e-004,2.457216e-005
4.021844e-004,-4.761664e-006
3.290929e-004,-1.837515e-005
2.213195e-004,-1.724069e-005
8.907416e-005,-9.137427e-006
-4.252288e-005,-5.479652e-007
-1.486757e-004,6.582909e-006
-2.154466e-004,1.290346e-005
-2.472114e-004,2.019640e-005
-2.580697e-004,3.073064e-005
-2.616352e-004,4.272347e-005
-2.669833e-004,5.260946e-005
-2.793003e-004,5.406805e-005
-3.006929e-004,3.932010e-005
-3.334301e-004,6.420843e-006
-3.791325e-004,-3.733679e-005
-4.358554e-004,-8.287715e-005
-4.974402e-004,-1.196660e-004
-5.515700e-004,-1.449482e-004
-5.812279e-004,-1.587237e-004
-5.582146e-004,-1.613168e-004
-4.625961e-004,-1.566169e-004
-2.942103e-004,-1.481895e-004
-6.974985e-005,-1.396000e-004
1.692965e-004,-1.339277e-004
3.681507e-004,-1.345760e-004
4.811103e-004,-1.444620e-004
4.900239e-004,-1.647201e-004
4.120704e-004,-1.874093e-004
2.850112e-004,-2.083157e-004
1.477418e-004,-2.282497e-004
2.992031e-005,-2.454286e-004
-5.143648e-005,-2.583939e-004
-9.033215e-005,-2.695764e-004
-9.000802e-005,-2.802727e-004
-6.731888e-005,-2.869174e-004
-4.641245e-005,-2.817312e-004
-4.527799e-005,-2.645523e-004
-6.440170e-005,-2.391081e-004
-9.422172e-005,-2.086398e-004
-1.230693e-004,-1.747682e-004
-1.433275e-004,-1.347380e-004
-1.567789e-004,-8.644259e-005
-1.665028e-004,-3.344723e-005
-1.694200e-004,1.419998e-005
-1.632615e-004,4.693717e-005
-1.477033e-004,6.541262e-005
-1.261486e-004,7.270556e-005
-1.092938e-004,6.768154e-005
-1.079973e-004,5.050261e-005
-1.238797e-004,2.992031e-005
-1.423551e-004,1.792748e-005
-1.383035e-004,2.295151e-005
-8.498399e-005,4.871989e-005
2.943412e-005,9.361199e-005
1.832341e-004,1.440143e-004
3.305515e-004,1.872858e-004
4.290873e-004,2.166196e-004
4.569625e-004,2.325020e-004
4.157979e-004,2.380122e-004
3.279585e-004,2.376881e-004
2.196988e-004,2.360674e-004
1.188942e-004,2.337985e-004
3.640293e-005,2.323399e-004
-2.988179e-005,2.326641e-004
-8.077030e-005,2.360674e-004
-1.162626e-004,2.376881e-004
-1.378173e-004,2.321778e-004
-1.452723e-004,2.231022e-004
-1.352242e-004,2.149989e-004
-1.089697e-004,2.093267e-004
-7.850138e-005,2.054371e-004
-5.613637e-005,1.978200e-004
-5.078821e-005,1.837203e-004
-6.488790e-005,1.667035e-004
-9.081835e-005,1.461212e-004
-1.193418e-004,1.177597e-004
-1.459206e-004,7.951231e-005
-1.695821e-004,3.397195e-005
-1.859507e-004,-1.221667e-005
-1.853024e-004,-4.673658e-005
-1.616409e-004,-5.694670e-005
-1.243659e-004,-4.057810e-005
-9.000802e-005,-4.761664e-006
-7.704279e-005,4.353380e-005
-9.243900e-005,9.344993e-005
-1.263107e-004,1.328318e-004
-1.632615e-004,1.603829e-004
-1.843300e-004,1.808031e-004
-1.752544e-004,1.978200e-004
-1.334415e-004,2.041406e-004
-7.120844e-005,1.939304e-004
-1.059602e-005,1.676758e-004
3.202716e-005,1.320215e-004
5.471631e-005,9.831188e-005
6.962632e-005,7.400208e-005
9.085688e-005,6.071273e-005
1.260251e-004,5.179914e-005
1.697827e-004,4.045456e-005
2.122438e-004,2.230325e-005
2.423880e-004,-3.141010e-006
2.513016e-004,-3.571614e-005
2.336365e-004,-7.428769e-005
1.884202e-004,-1.211246e-004
1.239182e-004,-1.793060e-004
5.374392e-005,-2.444563e-004
-1.724069e-005,-3.102548e-004
-8.903562e-005,-3.720016e-004
-1.541859e-004,-4.233763e-004
-2.032917e-004,-4.614617e-004
-2.232257e-004,-4.877163e-004
-2.018331e-004,-5.037607e-004
-1.397621e-004,-5.120260e-004
-5.030202e-005,-5.173742e-004
4.110282e-005,-5.202913e-004
1.052807e-004,-5.206155e-004
1.248906e-004,-5.129984e-004
1.004187e-004,-4.880404e-004
4.823370e-005,-4.405553e-004
-7.840905e-006,-3.760533e-004
-4.819517e-005,-3.018274e-004
-6.148453e-005,-2.272773e-004
-4.317115e-005,-1.609926e-004
2.207145e-006,-1.083214e-004
6.087479e-005,-7.104638e-005
1.193804e-004,-4.981582e-005
1.701068e-004,-4.203669e-005
2.114335e-004,-4.398147e-005
2.407673e-004,-4.511593e-005
2.527602e-004,-3.668853e-005
2.490327e-004,-1.513384e-005
2.414156e-004,1.938607e-005
2.409294e-004,6.281957e-005
2.564877e-004,1.091703e-004
2.916559e-004,1.540623e-004
3.418961e-004,1.927960e-004
3.974845e-004,2.261814e-004
4.474007e-004,2.581083e-004
4.841895e-004,2.919800e-004
5.073649e-004,3.274723e-004
5.182233e-004,3.608578e-004
5.178991e-004,3.884089e-004
5.031512e-004,4.049396e-004
4.678209e-004,4.070464e-004
4.109360e-004,3.965121e-004
3.378445e-004,3.764160e-004
2.545429e-004,3.551855e-004
1.642725e-004,3.373583e-004
6.687121e-005,3.263378e-004
-3.328516e-005,3.222862e-004
-1.258245e-004,3.214759e-004
-1.994021e-004,3.164518e-004
-2.468872e-004,3.042970e-004
-2.690902e-004,2.814457e-004
-2.747625e-004,2.506533e-004
-2.828657e-004,2.203471e-004
-3.063652e-004,1.926339e-004
-3.463953e-004,1.650828e-004
-3.893426e-004,1.341283e-004
-4.230522e-004,9.588091e-005
-4.376381e-004,5.001642e-005
-4.248349e-004,-1.034161e-006
-3.763774e-004,-5.386745e-005
-2.966413e-004,-1.020008e-004
-1.961608e-004,-1.370070e-004
-9.292520e-005,-1.507825e-004
-1.520357e-006,-1.389517e-004
7.140904e-005,-1.086455e-004
1.378558e-004,-7.007399e-005
2.260194e-004,-3.231277e-005
3.642611e-004,-5.479652e-007
5.632775e-004,2.165498e-005
8.089686e-004,3.202716e-005
1.061143e-003,2.846173e-005
1.256432e-003,1.825161e-005
1.339895e-003,8.689758e-006
1.284793e-003,5.772582e-006
1.104252e-003,9.500085e-006
8.430023e-004,1.971020e-005
5.600362e-004,3.429608e-005
3.099692e-004,4.499239e-005
1.185701e-004,4.434413e-005
-1.983374e-005,3.640293e-005
-1.274451e-004,3.170304e-005
-2.238740e-004,4.110282e-005
-3.109030e-004,6.314371e-005
-3.640605e-004,8.696731e-005
-3.510952e-004,1.031738e-004
-2.627696e-004,1.052807e-004
-1.212866e-004,8.631905e-005
2.862379e-005,4.661304e-005
1.347766e-004,-1.043395e-005
1.620036e-004,-8.012204e-005
1.044704e-004,-1.535376e-004
-2.210265e-005,-2.211189e-004
-1.838438e-004,-2.788141e-004
-3.462333e-004,-3.241924e-004
-4.822060e-004,-3.536883e-004
-5.739350e-004,-3.609812e-004
-6.212580e-004,-3.454229e-004
-6.319543e-004,-3.157650e-004
-6.222305e-004,-2.828657e-004
-6.089411e-004,-2.543422e-004
-6.060239e-004,-2.310048e-004
-6.188271e-004,-2.105846e-004
-6.426507e-004,-1.908126e-004
-6.723086e-004,-1.729855e-004
-6.977529e-004,-1.575893e-004
-7.058561e-004,-1.418689e-004
-6.859221e-004,-1.208004e-004
-6.356818e-004,-9.017008e-005
-5.625904e-004,-5.305713e-005
-4.731304e-004,-1.626830e-005
-3.707051e-004,1.468618e-005
-2.603387e-004,4.175109e-005
-1.556445e-004,6.897806e-005
-7.639453e-005,1.002567e-004
-3.668853e-005,1.380179e-004
-3.409549e-005,1.842065e-004
-5.597430e-005,2.380122e-004
-8.579432e-005,2.923041e-004
-1.102662e-004,3.349273e-004
-1.204763e-004,3.550234e-004
-1.058904e-004,3.495132e-004
-5.986387e-005,3.261758e-004
4.800190e-006,2.970040e-004
6.103686e-005,2.678322e-004
8.631905e-005,2.367157e-004
6.670914e-005,2.021958e-004
8.689758e-006,1.668655e-004
-6.342931e-005,1.323456e-004
-1.264727e-004,9.766362e-005
-1.700683e-004,6.379197e-005
-1.969711e-004,4.013043e-005
-2.190120e-004,3.235129e-005
-2.464010e-004,3.721326e-005
-2.703867e-004,4.142696e-005
-2.697385e-004,3.705119e-005
-2.258187e-004,2.230325e-005
-1.360346e-004,5.448452e-006
-2.712668e-005,-1.844488e-006
6.606088e-005,7.879432e-006
1.179218e-004,3.299956e-005
1.244044e-004,6.379197e-005
1.044704e-004,8.810177e-005
8.145709e-005,9.750156e-005
6.751948e-005,9.555677e-005
6.217132e-005,8.469840e-005
6.184718e-005,6.622294e-005
5.747142e-005,4.223728e-005
4.450620e-005,1.744129e-005
2.473423e-005,-7.840905e-006
5.864920e-007,-3.474375e-005
-2.583016e-005,-6.148453e-005
-4.900550e-005,-8.644259e-005
-6.731888e-005,-1.083214e-004
-7.833932e-005,-1.258245e-004
-8.417367e-005,-1.360346e-004
-8.919769e-005,-1.355484e-004
-9.535618e-005,-1.227452e-004
-1.041077e-004,-9.956988e-005
-1.067007e-004,-6.958779e-005
-9.503204e-005,-3.604027e-005
-6.278104e-005,-6.058186e-006
-1.886135e-005,9.175954e-006
1.549650e-005,-2.238346e-007
1.938607e-005,-3.474375e-005
-1.108221e-005,-8.417367e-005
-6.229485e-005,-1.342519e-004
-1.083214e-004,-1.739578e-004
-1.267968e-004,-1.971332e-004
-1.036215e-004,-2.060468e-004
-3.652646e-005,-2.094502e-004
5.941620e-005,-2.094502e-004
1.658931e-004,-2.088019e-004
2.636185e-004,-2.079916e-004
3.412479e-004,-2.021572e-004
3.825745e-004,-1.891920e-004
3.778746e-004,-1.716889e-004
3.269861e-004,-1.512687e-004
2.444948e-004,-1.305243e-004
1.589243e-004,-1.112386e-004
9.312580e-005,-9.697683e-005
5.844381e-005,-9.065628e-005
5.374392e-005,-9.373552e-005
7.286763e-005,-1.091317e-004
1.070634e-004,-1.344139e-004
1.454729e-004,-1.595340e-004
1.795066e-004,-1.674752e-004
2.052750e-004,-1.504584e-004
2.271538e-004,-1.110765e-004
2.527602e-004,-5.824322e-005
2.901973e-004,-8.720959e-007
3.435168e-004,5.406805e-005
4.015361e-004,1.062531e-004
4.496696e-004,1.592484e-004
4.728449e-004,2.169437e-004
4.649037e-004,2.767458e-004
4.321665e-004,3.336308e-004
3.890571e-004,3.827366e-004
3.498373e-004,4.198496e-004
3.218000e-004,4.417284e-004
3.099692e-004,4.512903e-004
3.179104e-004,4.533971e-004
3.438409e-004,4.572867e-004
3.770643e-004,4.689553e-004
4.016982e-004,4.817585e-004
4.086671e-004,4.838654e-004
3.950536e-004,4.709002e-004
3.602095e-004,4.470765e-004
3.007315e-004,4.261701e-004
2.133783e-004,4.162841e-004
1.002567e-004,4.166082e-004
-2.826114e-005,4.208219e-004
-1.501342e-004,4.146635e-004
-2.428356e-004,3.840331e-004
-2.903207e-004,3.216380e-004
-2.885380e-004,2.318537e-004
-2.499665e-004,1.250527e-004
-1.964849e-004,1.209313e-005
-1.472171e-004,-1.041077e-004
-1.172350e-004,-2.194982e-004
-1.196660e-004,-3.301888e-004
-1.571031e-004,-4.324520e-004
-2.182017e-004,-5.230465e-004
-2.812451e-004,-5.990551e-004
-3.250027e-004,-6.536711e-004
-3.355370e-004,-6.813843e-004
-3.074997e-004,-6.763602e-004
-2.476975e-004,-6.376266e-004
-1.713648e-004,-5.695592e-004
-9.827335e-005,-4.880404e-004
-4.414354e-005,-4.087905e-004
-1.724069e-005,-3.407231e-004
-1.545797e-005,-2.854588e-004
-2.842320e-005,-2.392702e-004
-4.025397e-005,-1.990780e-004
-3.555408e-005,-1.658546e-004
-7.354709e-006,-1.381414e-004
4.061663e-005,-1.109144e-004
9.782569e-005,-8.222889e-005
1.547106e-004,-5.629844e-005
2.025199e-004,-3.506788e-005
2.281262e-004,-1.594417e-005
2.232643e-004,2.207145e-006
1.942546e-004,1.808955e-005
1.598967e-004,3.218923e-005
1.482280e-004,4.304761e-005
1.791825e-004,4.823370e-005
2.545429e-004,4.742337e-005
3.504856e-004,4.013043e-005
4.242253e-004,2.716521e-005
4.397836e-004,9.338019e-006
3.726885e-004,-1.626830e-005
2.218057e-004,-5.386745e-005
1.517237e-005,-1.028112e-004
-2.112329e-004,-1.572651e-004
-4.212695e-004,-2.135018e-004
-5.849554e-004,-2.645523e-004
-6.813843e-004,-3.057169e-004
-6.980770e-004,-3.374817e-004
-6.462161e-004,-3.533641e-004
-5.630766e-004,-3.434782e-004
-4.857715e-004,-3.037722e-004
-4.378002e-004,-2.358668e-004
-4.266177e-004,-1.481895e-004
-4.426621e-004,-5.273300e-005
-4.624341e-004,3.786152e-005
-4.637306e-004,1.140322e-004
-4.290486e-004,1.764274e-004
-3.485022e-004,2.282883e-004
-2.164190e-004,2.738286e-004
-3.117831e-005,3.145071e-004
2.021958e-004,3.512959e-004
4.747897e-004,3.853296e-004
7.736384e-004,4.200116e-004
1.080915e-003,4.616624e-004
1.359667e-003,5.162785e-004
1.572946e-003,5.858046e-004
1.692874e-003,6.569512e-004
1.710378e-003,7.107570e-004
1.636151e-003,7.347427e-004
1.488672e-003,7.219395e-004
1.291276e-003,6.770474e-004
1.068435e-003,6.093040e-004
8.506195e-004,5.248679e-004
6.763991e-004,4.292493e-004
5.700842e-004,3.282826e-004
5.131993e-004,2.308813e-004
4.546936e-004,1.454729e-004
3.472443e-004,8.064677e-005
1.712413e-004,3.964424e-005
-4.884343e-005,1.857574e-005
-2.632558e-004,1.112074e-005
-4.243487e-004,1.306552e-005
-5.078124e-004,1.792748e-005
-5.186707e-004,2.278944e-005
-4.796130e-004,2.603075e-005
-4.190006e-004,2.700314e-005
-3.650328e-004,2.149292e-005
-3.348887e-004,6.096713e-006
-3.413713e-004,-2.113026e-005
-3.922598e-004,-5.840528e-005
-4.841508e-004,-9.778715e-005
-6.003517e-004,-1.292278e-004
-7.125008e-004,-1.460826e-004
-7.949921e-004,-1.512687e-004
-8.384255e-004,-1.522411e-004
-8.497701e-004,-1.593720e-004
-8.515528e-004,-1.741199e-004
-8.572251e-004,-1.908126e-004
-8.701903e-004,-2.028055e-004
-8.823453e-004,-2.037779e-004
-8.860728e-004,-1.912988e-004
-8.823453e-004,-1.661787e-004
-8.692179e-004,-1.289037e-004
-8.471771e-004,-7.979791e-005
-8.168708e-004,-2.599222e-005
-7.851060e-004,2.149292e-005
-7.551240e-004,5.471631e-005
-7.285453e-004,6.995045e-005
-7.034251e-004,6.832980e-005
-6.752257e-004,5.050261e-005
-6.478368e-004,1.776542e-005
-6.316302e-004,-2.242678e-005
-6.342233e-004,-6.618442e-005
-6.499436e-004,-1.089697e-004
-6.666363e-004,-1.473791e-004
-6.714982e-004,-1.783336e-004
-6.580469e-004,-2.026434e-004
-6.272545e-004,-2.297083e-004
-5.779866e-004,-2.603387e-004
-5.060296e-004,-2.896725e-004
-4.117076e-004,-3.066893e-004
-3.002067e-004,-3.099306e-004
-1.818991e-004,-2.982619e-004
-7.039812e-005,-2.737901e-004
2.327564e-005,-2.446183e-004
9.458438e-005,-2.183637e-004
1.448246e-004,-1.934057e-004
1.783722e-004,-1.668270e-004
1.989545e-004,-1.373311e-004
2.098128e-004,-1.055663e-004
2.169437e-004,-7.704279e-005
2.279642e-004,-5.532604e-005
2.438466e-004,-4.074016e-005
2.632944e-004,-2.745081e-005
2.890628e-004,-1.173047e-005
3.190449e-004,6.582909e-006
3.514580e-004,2.133085e-005
3.887330e-004,3.202716e-005
4.289252e-004,4.272347e-005
4.684692e-004,5.730935e-005
4.969927e-004,7.562274e-005
5.000719e-004,9.620504e-005
4.733311e-004,1.143563e-004
4.248736e-004,1.273216e-004
3.723644e-004,1.367214e-004
3.328204e-004,1.503349e-004
3.188828e-004,1.683241e-004
3.290929e-004,1.838824e-004
3.569682e-004,1.923098e-004
3.866261e-004,1.923098e-004
4.029947e-004,1.871237e-004
3.989431e-004,1.832341e-004
3.793332e-004,1.845306e-004
3.584268e-004,1.850168e-004
3.495132e-004,1.820997e-004
3.577785e-004,1.775618e-004
3.827366e-004,1.710792e-004
4.187151e-004,1.670276e-004
4.558281e-004,1.650828e-004
4.799758e-004,1.663793e-004
4.785172e-004,1.689724e-004
4.465904e-004,1.730240e-004
3.901916e-004,1.809652e-004
3.256896e-004,1.889064e-004
2.767458e-004,1.927960e-004
2.563256e-004,1.921477e-004
2.594049e-004,1.856651e-004
2.645909e-004,1.694586e-004
2.500050e-004,1.438522e-004
2.049509e-004,1.169494e-004
1.341283e-004,9.426025e-005
5.617490e-005,7.448828e-005
-7.516774e-006,5.487838e-005
-4.868137e-005,3.640293e-005
-6.958779e-005,1.954813e-005
-7.931171e-005,5.864920e-007
-7.963584e-005,-1.610624e-005
-7.412562e-005,-3.117831e-005
-6.569822e-005,-4.268495e-005
-5.775702e-005,-5.159854e-005
-5.321920e-005,-5.759496e-005
-5.483985e-005,-6.132246e-005
-6.440170e-005,-6.229485e-005
-8.271508e-005,-6.018800e-005
-1.107524e-004,-5.905355e-005
-1.439758e-004,-6.002594e-005
-1.721751e-004,-6.035007e-005
-1.846542e-004,-6.164659e-005
-1.715269e-004,-6.715681e-005
-1.256624e-004,-7.963584e-005
-4.706071e-005,-9.762509e-005
5.390598e-005,-1.167488e-004
1.590864e-004,-1.339277e-004
2.456293e-004,-1.504584e-004
3.021901e-004,-1.663408e-004
3.276344e-004,-1.831956e-004
3.303894e-004,-2.008607e-004
3.209897e-004,-2.175534e-004
3.046211e-004,-2.287359e-004
2.773941e-004,-2.324634e-004
2.365536e-004,-2.314910e-004
1.804790e-004,-2.248464e-004
1.096565e-004,-2.105846e-004
2.230325e-005,-1.911368e-004
-7.639453e-005,-1.721751e-004
-1.773612e-004,-1.558065e-004
-2.746004e-004,-1.447861e-004
-3.634122e-004,-1.387897e-004
-4.394208e-004,-1.374932e-004
-4.972781e-004,-1.374932e-004
-5.343911e-004,-1.392759e-004
-5.462218e-004,-1.442999e-004
-5.303394e-004,-1.475412e-004
-4.856094e-004,-1.460826e-004
-4.202971e-004,-1.389517e-004
-3.403989e-004,-1.242038e-004
-2.486699e-004,-1.021629e-004
-1.480274e-004,-7.201877e-005
-4.932962e-005,-3.782299e-005
3.672706e-005,-3.141010e-006
1.046324e-004,2.667901e-005
1.526038e-004,4.758544e-005
1.775618e-004,5.893001e-005
1.843686e-004,6.395404e-005
1.846927e-004,6.525056e-005
1.859892e-004,6.508849e-005
1.856651e-004,6.768154e-005
1.743205e-004,7.594687e-005
1.441764e-004,8.956036e-005
1.022015e-004,1.072255e-004
7.108491e-005,1.295905e-004
6.946425e-005,1.548727e-004
9.750156e-005,1.798307e-004
1.514693e-004,2.021958e-004
2.360674e-004,2.190506e-004
3.704196e-004,2.282883e-004
5.702463e-004,2.302331e-004
8.269579e-004,2.289366e-004
1.099714e-003,2.333123e-004
1.322554e-003,2.553532e-004
1.434866e-003,3.008936e-004
1.414446e-003,3.636129e-004
1.285603e-003,4.300596e-004
1.104252e-003,4.851619e-004
9.222524e-004,5.151440e-004
7.574318e-004,5.115786e-004
6.012007e-004,4.749518e-004
4.414042e-004,4.151496e-004
2.751252e-004,3.433547e-004
1.182459e-004,2.684805e-004
5.448452e-006,1.976579e-004
-2.518189e-005,1.383420e-004
4.304761e-005,9.020862e-005
1.906891e-004,4.871989e-005
3.686369e-004,8.527692e-006
5.153061e-004,-3.069211e-005
5.747841e-004,-6.715681e-005
5.166026e-004,-1.007043e-004
3.475684e-004,-1.350622e-004
1.085220e-004,-1.742820e-004
-1.446240e-004,-2.146363e-004
-3.702189e-004,-2.464010e-004
-5.493010e-004,-2.562870e-004
-6.833291e-004,-2.342462e-004
-7.838095e-004,-1.859507e-004
-8.698662e-004,-1.263107e-004
-9.512230e-004,-6.602235e-005
-1.030473e-003,-1.173047e-005
-1.110371e-003,3.380988e-005
-1.195942e-003,7.497447e-005
-1.282160e-003,1.163011e-004
-1.356224e-003,1.595726e-004
-1.406140e-003,1.947408e-004
-1.420240e-003,2.073819e-004
-1.390420e-003,1.902029e-004
-1.312629e-003,1.440143e-004
-1.192214e-003,7.837785e-005
-1.049110e-003,4.800190e-006
-9.092480e-004,-6.667062e-005
-7.915886e-004,-1.316588e-004
-7.048837e-004,-1.904885e-004
-6.470265e-004,-2.457528e-004
-6.082929e-004,-3.015032e-004
-5.771763e-004,-3.544986e-004
-5.441150e-004,-3.980942e-004
-5.021401e-004,-4.290486e-004
-4.395829e-004,-4.535205e-004
-3.504470e-004,-4.788027e-004
-2.408908e-004,-5.141329e-004
-1.225832e-004,-5.625904e-004
-1.221667e-005,-6.194753e-004
8.016057e-005,-6.744154e-004
1.540623e-004,-7.219006e-004
2.091646e-004,-7.567446e-004
2.495189e-004,-7.688995e-004
2.882525e-004,-7.535033e-004
3.365480e-004,-7.032631e-004
3.991052e-004,-6.116962e-004
4.697657e-004,-4.773441e-004
5.439916e-004,-3.105789e-004
6.185417e-004,-1.363587e-004
6.825576e-004,1.549650e-005
7.225877e-004,1.284560e-004
7.287462e-004,1.987924e-004
7.010330e-004,2.401191e-004
6.494962e-004,2.639427e-004
5.762426e-004,2.827423e-004
4.762483e-004,3.042970e-004
3.452995e-004,3.286068e-004
1.949028e-004,3.558337e-004
4.985435e-005,3.880847e-004
-6.229485e-005,4.273046e-004
-1.280934e-004,4.684692e-004
-1.501342e-004,4.994237e-004
-1.384655e-004,5.063924e-004
-1.057284e-004,4.828930e-004
-6.748094e-005,4.303838e-004
-3.652646e-005,3.644232e-004
-2.372331e-005,3.036487e-004
-3.004385e-005,2.642668e-004
-5.062615e-005,2.532463e-004
-7.104638e-005,2.655633e-004
-8.352541e-005,2.911697e-004
-9.049421e-005,3.182346e-004
-9.568031e-005,3.334687e-004
-9.892161e-005,3.289309e-004
-9.730096e-005,3.046211e-004
-9.308726e-005,2.676702e-004
-9.000802e-005,2.261814e-004
-8.790117e-005,1.880961e-004
-8.433573e-005,1.576278e-004
-7.655660e-005,1.365593e-004
-5.905355e-005,1.299146e-004
-3.004385e-005,1.406109e-004
7.393236e-006,1.655690e-004
4.466826e-005,1.942546e-004
6.589881e-005,2.167816e-004
5.471631e-005,2.256952e-004
5.124321e-006,2.231022e-004
-7.558420e-005,2.127300e-004
-1.647201e-004,1.965235e-004
-2.426735e-004,1.739964e-004
-3.021515e-004,1.451488e-004
-3.408851e-004,1.107909e-004
-3.588744e-004,7.351589e-005
-3.627639e-004,3.478228e-005
-3.561192e-004,-2.238346e-007
-3.369955e-004,-2.712668e-005
-3.018274e-004,-4.641245e-005
-2.494803e-004,-6.164659e-005
-1.817370e-004,-7.201877e-005
-1.036215e-004,-7.769106e-005
-2.955766e-005,-7.817725e-005
1.825161e-005,-7.380149e-005
2.829966e-005,-6.586029e-005
1.079661e-005,-5.419158e-005
-2.492749e-006,-3.782299e-005
1.744129e-005,-1.967167e-005
7.481241e-005,-1.844488e-006
1.540623e-004,1.290346e-005
2.402811e-004,2.408596e-005
3.289309e-004,3.089271e-005
4.208219e-004,3.624086e-005
5.086614e-004,4.320967e-005
5.738117e-004,5.260946e-005
5.989318e-004,6.460230e-005
5.783495e-004,7.691926e-005
5.264886e-004,8.696731e-005
4.726828e-004,9.442231e-005
4.530729e-004,9.539470e-005
4.960203e-004,8.664318e-005
5.997422e-004,6.687121e-005
7.342565e-004,3.753739e-005
8.564538e-004,3.179537e-006
9.298695e-004,-3.069211e-005
9.441312e-004,-5.889148e-005
9.162560e-004,-8.028410e-005
8.739569e-004,-9.746302e-005
8.392748e-004,-1.109144e-004
8.135065e-004,-1.162626e-004
7.817416e-004,-1.112386e-004
7.274497e-004,-9.827335e-005
6.481997e-004,-8.222889e-005
5.519328e-004,-6.310517e-005
4.522626e-004,-4.171256e-005
3.605336e-004,-1.756482e-005
2.806354e-004,6.258778e-006
2.132162e-004,2.570662e-005
1.568175e-004,3.753739e-005
1.070634e-004,4.239934e-005
5.341979e-005,4.272347e-005
-1.707863e-005,3.932010e-005
-1.105903e-004,3.283749e-005
-2.190120e-004,2.603075e-005
-3.274337e-004,2.197911e-005
-4.214316e-004,2.538249e-005
-4.891749e-004,3.478228e-005
-5.317981e-004,4.726130e-005
-5.609698e-004,5.487838e-005
-5.839830e-004,5.520250e-005
-6.008379e-004,4.580272e-005
-6.044033e-004,2.959619e-005
-5.877105e-004,1.160693e-005
-5.470322e-004,-7.100305e-007
-4.870680e-004,-4.923729e-006
-4.193247e-004,1.072688e-006
-3.630881e-004,1.582063e-005
-3.369955e-004,3.073064e-005
-3.429920e-004,3.850978e-005
-3.611433e-004,3.543054e-005
-3.697327e-004,1.906194e-005
-3.575778e-004,-9.623623e-006
-3.282440e-004,-4.835724e-005
-2.990722e-004,-9.017008e-005
-2.898345e-004,-1.303623e-004
-3.143064e-004,-1.635857e-004
-3.668155e-004,-1.898403e-004
-4.309934e-004,-2.104225e-004
-4.823681e-004,-2.217671e-004
-4.946851e-004,-2.245222e-004
-4.444448e-004,-2.240360e-004
-3.224097e-004,-2.261429e-004
-1.470550e-004,-2.308428e-004
5.034055e-005,-2.347323e-004
2.461155e-004,-2.319772e-004
4.266563e-004,-2.222533e-004
5.849942e-004,-2.076674e-004
7.080019e-004,-1.943781e-004
7.793107e-004,-1.882196e-004
7.859553e-004,-1.867610e-004
7.251808e-004,-1.843300e-004
6.046041e-004,-1.754164e-004
4.371906e-004,-1.577513e-004
2.406053e-004,-1.366828e-004
4.126489e-005,-1.198280e-004
-1.311726e-004,-1.139937e-004
-2.587180e-004,-1.161005e-004
-3.339163e-004,-1.224211e-004
-3.548227e-004,-1.293899e-004
-3.237062e-004,-1.345760e-004
-2.481838e-004,-1.381414e-004
-1.431655e-004,-1.339277e-004
-3.863332e-005,-1.212866e-004
3.413401e-005,-1.050801e-004
5.228533e-005,-8.903562e-005
1.484824e-005,-7.120844e-005
-5.953974e-005,-5.062615e-005
-1.447861e-004,-2.890940e-005
-2.217671e-004,-1.124428e-005
-2.817312e-004,1.234753e-006
-3.214373e-004,1.112074e-005
-3.418575e-004,1.889987e-005
-3.454229e-004,2.505836e-005
-3.399127e-004,3.413401e-005
-3.313232e-004,5.034055e-005
-3.225718e-004,6.816773e-005
-3.078238e-004,8.664318e-005
-2.682799e-004,1.094944e-004
-1.802784e-004,1.409351e-004
-2.712668e-005,1.786963e-004
1.829100e-004,2.158093e-004
4.119083e-004,2.446569e-004
6.180556e-004,2.538946e-004
7.626179e-004,2.419018e-004
8.162616e-004,2.153231e-004
7.749349e-004,1.829100e-004
6.652166e-004,1.530900e-004
5.277851e-004,1.304008e-004
3.965121e-004,1.150046e-004
2.838767e-004,1.075496e-004
1.863134e-004,1.060910e-004
9.539470e-005,1.064152e-004
9.824215e-006,1.067393e-004
-7.169464e-005,1.073875e-004
-1.459206e-004,1.083599e-004
-2.126914e-004,1.114392e-004
-2.736280e-004,1.187321e-004
-3.271096e-004,1.295905e-004
-3.700569e-004,1.420695e-004
-3.972838e-004,1.535762e-004
-4.061974e-004,1.616794e-004
-3.948528e-004,1.637863e-004
-3.679500e-004,1.592484e-004
-3.371576e-004,1.560072e-004
-3.181960e-004,1.615174e-004
-3.261372e-004,1.757791e-004
-3.663294e-004,1.966855e-004
-4.314796e-004,2.185644e-004
-5.053814e-004,2.367157e-004
-5.852795e-004,2.482223e-004
-6.734431e-004,2.529222e-004
-7.607963e-004,2.500050e-004
-8.183295e-004,2.409294e-004
-8.134675e-004,2.239125e-004
-7.431312e-004,1.936063e-004
-6.350336e-004,1.474177e-004
-5.274223e-004,9.263960e-005
-4.405553e-004,3.251336e-005
-3.820497e-004,-2.826114e-005
-3.460712e-004,-8.935975e-005
-3.178718e-004,-1.468929e-004
-2.758969e-004,-1.917850e-004
-2.021572e-004,-2.186879e-004
-9.584238e-005,-2.263049e-004
2.927205e-005,-2.261429e-004
1.522796e-004,-2.335979e-004
2.548670e-004,-2.553146e-004
3.282826e-004,-2.895104e-004
3.743092e-004,-3.300267e-004
4.020224e-004,-3.638984e-004
4.192013e-004,-3.801049e-004
4.321665e-004,-3.695707e-004
4.448076e-004,-3.277578e-004
4.602039e-004,-2.598524e-004
4.738173e-004,-1.765509e-004
4.825689e-004,-9.681477e-005
4.840274e-004,-3.668853e-005
4.736553e-004,-5.409925e-006
4.546936e-004,1.234753e-006
4.376768e-004,-7.192643e-006
4.341113e-004,-1.513384e-005
4.451317e-004,-1.610624e-005
4.624728e-004,-1.108221e-005
4.699278e-004,-2.654814e-006
4.555039e-004,8.203562e-006
4.130428e-004,1.857574e-005
3.478926e-004,3.186510e-005
2.683184e-004,4.985435e-005
1.812893e-004,7.400208e-005
9.118101e-005,9.523264e-005
1.095867e-005,1.047945e-004
-4.560212e-005,1.013911e-004
-6.926366e-005,9.361199e-005
-6.099833e-005,8.939829e-005
-3.053005e-005,9.361199e-005
7.069105e-006,9.717743e-005
3.397195e-005,8.972242e-005
3.915804e-005,6.460230e-005
2.376183e-005,2.457216e-005
-6.058186e-006,-2.372331e-005
-4.284701e-005,-7.704279e-005
-8.125649e-005,-1.276072e-004
-1.146419e-004,-1.673132e-004
-1.344139e-004,-1.942160e-004
-1.314967e-004,-2.123673e-004
-9.584238e-005,-2.306807e-004
-2.388537e-005,-2.540181e-004
7.821578e-005,-2.768693e-004
1.931201e-004,-2.867553e-004
3.002453e-004,-2.744383e-004
3.905157e-004,-2.334358e-004
4.671726e-004,-1.661787e-004
5.347540e-004,-7.574627e-005
5.866149e-004,3.105477e-005
6.130316e-004,1.391524e-004
6.141660e-004,2.321778e-004
5.958526e-004,2.981384e-004
5.723531e-004,3.252034e-004
5.642498e-004,3.096451e-004
5.848321e-004,2.623220e-004
6.373413e-004,2.052750e-004
7.055709e-004,1.605450e-004
7.656972e-004,1.373696e-004
7.921138e-004,1.346145e-004
7.571077e-004,1.464453e-004
6.499824e-004,1.626518e-004
4.887274e-004,1.720516e-004
3.052694e-004,1.675138e-004
1.300767e-004,1.480659e-004
-1.610624e-005,1.174356e-004
-1.203142e-004,8.210535e-005
-1.810887e-004,4.969229e-005
-2.118811e-004,2.019640e-005
-2.421874e-004,-1.124428e-005
-2.959930e-004,-4.900550e-005
-3.822118e-004,-9.130454e-005
-4.877163e-004,-1.300382e-004
-5.864140e-004,-1.564548e-004
-6.564262e-004,-1.627754e-004
-6.901358e-004,-1.444620e-004
-6.935392e-004,-1.039456e-004
-6.765223e-004,-4.187462e-005
-6.489712e-004,3.332369e-005
-6.167202e-004,1.091703e-004
-5.841451e-004,1.757791e-004
-5.525423e-004,2.250470e-004
-5.228845e-004,2.547049e-004
-4.961436e-004,2.696149e-004
-4.732924e-004,2.722080e-004
-4.556273e-004,2.615117e-004
-4.436345e-004,2.388225e-004
-4.279142e-004,2.075439e-004
-3.998769e-004,1.739964e-004
-3.567675e-004,1.440143e-004
-3.055549e-004,1.224596e-004
-2.543422e-004,1.117633e-004
-2.081536e-004,1.135460e-004
-1.742820e-004,1.218114e-004
-1.590478e-004,1.339663e-004
-1.639098e-004,1.451488e-004
-1.817370e-004,1.503349e-004
-2.024813e-004,1.432040e-004
-2.169052e-004,1.227837e-004
-2.139880e-004,9.296373e-005
-1.872472e-004,5.925414e-005
-1.394379e-004,2.505836e-005
-7.947377e-005,-9.137427e-006
-2.388537e-005,-4.171256e-005
1.209313e-005,-6.829127e-005
1.954813e-005,-8.725291e-005
1.558884e-006,-1.002181e-004
-3.036798e-005,-1.091317e-004
-6.116039e-005,-1.161005e-004
-7.623246e-005,-1.204763e-004
-6.748094e-005,-1.203142e-004
-3.296103e-005,-1.149661e-004
2.473423e-005,-1.068628e-004
9.879808e-005,-1.032974e-004
1.743205e-004,-1.118868e-004
2.381743e-004,-1.361966e-004
2.926282e-004,-1.687718e-004
3.475684e-004,-1.956746e-004
4.070464e-004,-2.052365e-004
4.621486e-004,-1.914609e-004
4.969927e-004,-1.543479e-004
4.945617e-004,-9.697683e-005
4.485351e-004,-2.226472e-005
3.642611e-004,6.314371e-005
2.577842e-004,1.475797e-004
1.487142e-004,2.193747e-004
5.277153e-005,2.710735e-004
-2.015787e-005,3.025142e-004
-6.650855e-005,3.156415e-004
-8.741498e-005,3.141829e-004
-8.822530e-005,3.005694e-004
-7.995997e-005,2.806354e-004
-7.088431e-005,2.615117e-004
-6.375344e-005,2.522740e-004
-5.678463e-005,2.511395e-004
-4.787104e-005,2.590807e-004
-3.425755e-005,2.757735e-004
-1.934754e-005,2.945730e-004
-1.140634e-005,3.041349e-004
-1.351319e-005,2.986247e-004
-2.031993e-005,2.775562e-004
-2.647842e-005,2.435224e-004
-3.652646e-005,2.025199e-004
-5.321920e-005,1.584381e-004
-7.234290e-005,1.195424e-004
-8.579432e-005,9.458438e-005
-7.574627e-005,8.469840e-005
-2.031993e-005,8.405014e-005
1.004187e-004,8.923623e-005
2.905214e-004,9.604298e-005
5.243817e-004,9.539470e-005
7.515975e-004,7.740546e-005
9.170663e-004,4.029250e-005
9.895095e-004,-1.189254e-005
9.653618e-004,-7.088431e-005
8.608295e-004,-1.318209e-004
7.039502e-004,-1.932436e-004
5.201680e-004,-2.540181e-004
3.339549e-004,-3.141443e-004
1.680000e-004,-3.687603e-004
3.867184e-005,-4.147869e-004
-4.625038e-005,-4.489826e-004
-9.211487e-005,-4.719959e-004
-1.133454e-004,-4.854474e-004
-1.303623e-004,-4.839888e-004
-1.572651e-004,-4.676201e-004
-2.011848e-004,-4.350450e-004
-2.611490e-004,-3.869116e-004
-3.233821e-004,-3.292164e-004
-3.697327e-004,-2.739521e-004
-3.869116e-004,-2.329496e-004
-3.779981e-004,-2.079916e-004
-3.562813e-004,-1.956746e-004
-3.431540e-004,-1.895161e-004
-3.574158e-004,-1.833576e-004
-3.971218e-004,-1.702304e-004
-4.468758e-004,-1.477033e-004
-4.857715e-004,-1.146419e-004
-4.938748e-004,-7.752899e-005
-4.591928e-004,-4.284701e-005
-3.896668e-004,-1.853722e-005
-3.044204e-004,-1.059602e-005
-2.183637e-004,-2.356124e-005
-1.353863e-004,-5.435365e-005
-5.678463e-005,-9.422172e-005
6.907040e-006,-1.319829e-004
4.239934e-005,-1.575893e-004
4.466826e-005,-1.630995e-004
1.792748e-005,-1.447861e-004
-2.631635e-005,-1.024871e-004
-7.574627e-005,-4.365734e-005
-1.206384e-004,1.598270e-005
-1.493239e-004,6.119892e-005
-1.548341e-004,8.502253e-005
-1.363587e-004,9.020862e-005
-1.031353e-004,7.918817e-005
-6.796714e-005,5.585077e-005
-4.268495e-005,2.813760e-005
-3.798505e-005,1.720949e-006
-5.305713e-005,-2.242678e-005
-7.947377e-005,-4.090223e-005
-1.031353e-004,-5.062615e-005
-1.175591e-004,-4.884343e-005
-1.242038e-004,-3.377136e-005
-1.255003e-004,-6.058186e-006
-1.164247e-004,2.959619e-005
-8.725291e-005,7.011252e-005
-3.685060e-005,1.137081e-004
2.359977e-005,1.595726e-004
7.627100e-005,2.077060e-004
1.103047e-004,2.495189e-004
1.274836e-004,2.735045e-004
1.355869e-004,2.741528e-004
1.477418e-004,2.569738e-004
1.725378e-004,2.308813e-004
2.059233e-004,2.021958e-004
2.328261e-004,1.782101e-004
2.365536e-004,1.615174e-004
2.119197e-004,1.506590e-004
1.663793e-004,1.445005e-004
1.141943e-004,1.422316e-004
7.173317e-005,1.443384e-004
3.964424e-005,1.522796e-004
1.128280e-005,1.654069e-004
-1.918548e-005,1.799928e-004
-5.013995e-005,1.902029e-004
-7.882551e-005,1.937684e-004
-1.086455e-004,1.874478e-004
-1.436516e-004,1.680000e-004
-1.833576e-004,1.401247e-004
-2.214430e-004,1.120874e-004
-2.512630e-004,9.231547e-005
-2.647144e-004,8.340187e-005
-2.570974e-004,8.259155e-005
-2.344082e-004,8.032264e-005
-2.204706e-004,6.687121e-005
-2.386219e-004,3.510641e-005
-2.919414e-004,-1.108221e-005
-3.645466e-004,-5.694670e-005
-4.335865e-004,-9.276313e-005
-4.763717e-004,-1.165867e-004
-4.797751e-004,-1.310105e-004
-4.433104e-004,-1.418689e-004
-3.755671e-004,-1.527273e-004
-2.836761e-004,-1.639098e-004
-1.776853e-004,-1.746061e-004
-6.958779e-005,-1.822232e-004
2.684107e-005,-1.854645e-004
9.717743e-005,-1.840059e-004
1.375317e-004,-1.820611e-004
1.624898e-004,-1.793060e-004
1.914995e-004,-1.750923e-004
2.328261e-004,-1.668270e-004
2.811216e-004,-1.596961e-004
3.269861e-004,-1.575893e-004
3.623164e-004,-1.598582e-004
3.828986e-004,-1.621271e-004
3.939191e-004,-1.588858e-004
4.041292e-004,-1.468929e-004
4.219564e-004,-1.279313e-004
4.469145e-004,-1.042698e-004
4.728449e-004,-7.461182e-005
4.882411e-004,-3.960571e-005
4.906721e-004,-2.978945e-006
4.952099e-004,3.218923e-005
5.161164e-004,6.525056e-005
5.589016e-004,1.012291e-004
6.169211e-004,1.415833e-004
6.716992e-004,1.830721e-004
7.052467e-004,2.235884e-004
7.110811e-004,2.581083e-004
6.911471e-004,2.791768e-004
6.493342e-004,2.803113e-004
5.851563e-004,2.618358e-004
5.044477e-004,2.310434e-004
4.226047e-004,1.997648e-004
3.577785e-004,1.761032e-004
3.153174e-004,1.618415e-004
2.898731e-004,1.509831e-004
2.686426e-004,1.347766e-004
2.363916e-004,1.094944e-004
1.859892e-004,7.691926e-005
1.169494e-004,4.191315e-005
3.753739e-005,1.112074e-005
-3.992984e-005,-1.270286e-005
-1.055663e-004,-3.344723e-005
-1.596961e-004,-5.143648e-005
-2.065330e-004,-6.326724e-005
-2.587180e-004,-6.958779e-005
-3.228959e-004,-6.553616e-005
-3.895047e-004,-5.030202e-005
-4.444448e-004,-3.085418e-005
-4.796130e-004,-1.643037e-005
-4.883645e-004,-1.010982e-005
-4.663236e-004,-7.516774e-006
-4.180282e-004,-4.275467e-006
-3.609812e-004,9.986281e-006
-3.178718e-004,4.013043e-005
-3.055549e-004,8.242948e-005
-3.253268e-004,1.336421e-004
-3.726499e-004,1.872858e-004
-4.361795e-004,2.376881e-004
-5.000332e-004,2.825802e-004
-5.536768e-004,3.179104e-004
-5.856037e-004,3.378445e-004
-5.898174e-004,3.368721e-004
-5.635628e-004,3.132105e-004
-5.084606e-004,2.683184e-004
-4.384484e-004,2.081922e-004
-3.695707e-004,1.370455e-004
-3.079858e-004,6.330578e-005
-2.535319e-004,-6.868513e-006
-2.083157e-004,-6.796714e-005
-1.650443e-004,-1.156143e-004
-1.007043e-004,-1.532135e-004
4.962256e-006,-1.794681e-004
1.492004e-004,-1.937298e-004
3.020280e-004,-1.979435e-004
4.287631e-004,-1.942160e-004
5.003960e-004,-1.835197e-004
5.086614e-004,-1.684476e-004
4.756001e-004,-1.540238e-004
4.328148e-004,-1.413827e-004
4.093153e-004,-1.298761e-004
4.167703e-004,-1.151281e-004
4.462662e-004,-9.438378e-005
4.709002e-004,-7.023606e-005
4.647417e-004,-5.030202e-005
4.089912e-004,-3.701266e-005
2.997591e-004,-3.328516e-005
1.490383e-004,-4.138842e-005
-1.740276e-005,-6.407757e-005
-1.715269e-004,-9.859748e-005
-2.971275e-004,-1.420310e-004
-3.812394e-004,-1.874093e-004
-4.256453e-004,-2.248464e-004
-4.386105e-004,-2.464010e-004
-4.290486e-004,-2.527216e-004
-4.121938e-004,-2.481838e-004
-3.958252e-004,-2.415391e-004
-3.744326e-004,-2.379736e-004
-3.369955e-004,-2.376495e-004
-2.786520e-004,-2.386219e-004
-2.075054e-004,-2.400805e-004
-1.376552e-004,-2.405667e-004
-7.558420e-005,-2.392702e-004
-1.221667e-005,-2.342462e-004
6.670914e-005,-2.222533e-004
1.624898e-004,-1.981056e-004
2.722080e-004,-1.592099e-004
3.981328e-004,-1.107524e-004
5.590637e-004,-6.002594e-005
7.755831e-004,-7.192643e-006
1.054012e-003,4.385793e-005
1.364529e-003,9.507057e-005
1.651872e-003,1.435281e-004
1.853644e-003,1.892305e-004
1.925925e-003,2.370398e-004
1.847971e-003,2.914938e-004
1.627076e-003,3.483787e-004
1.300027e-003,4.015361e-004
9.266282e-004,4.477248e-004
5.717048e-004,4.824068e-004
2.772320e-004,5.026649e-004
5.163707e-005,5.075270e-004
-1.251762e-004,4.968306e-004
-2.830278e-004,4.715484e-004
-4.423380e-004,4.363802e-004
-6.048895e-004,3.994293e-004
-7.496137e-004,3.676645e-004
-8.500942e-004,3.427064e-004
-8.953104e-004,3.240689e-004
-8.987138e-004,3.122381e-004
-8.930415e-004,3.046211e-004
-9.053585e-004,2.923041e-004
-9.382577e-004,2.692908e-004
-9.765052e-004,2.318537e-004
-9.956289e-004,1.825859e-004
-9.739121e-004,1.313732e-004
-9.001724e-004,9.247754e-005
-7.815406e-004,7.935024e-005
-6.471885e-004,9.361199e-005
-5.347152e-004,1.250527e-004
-4.749131e-004,1.569795e-004
-4.716718e-004,1.770756e-004
-5.040849e-004,1.778860e-004
-5.356876e-004,1.623277e-004
-5.330946e-004,1.393144e-004
-4.865818e-004,1.150046e-004
-4.130042e-004,8.907416e-005
-3.376438e-004,5.471631e-005
-2.825416e-004,3.341602e-006
-2.512630e-004,-6.553616e-005
-2.339220e-004,-1.425172e-004
-2.173914e-004,-2.096122e-004
-1.867610e-004,-2.530457e-004
-1.339277e-004,-2.707109e-004
-6.326724e-005,-2.703867e-004
9.662150e-006,-2.660110e-004
6.654708e-005,-2.687660e-004
9.426025e-005,-2.851347e-004
8.810177e-005,-3.151167e-004
5.212327e-005,-3.562813e-004
-6.176923e-008,-4.076560e-004
-5.581224e-005,-4.632444e-004
-1.060525e-004,-5.183466e-004
-1.451102e-004,-5.689110e-004
-1.720131e-004,-6.147755e-004
-1.891920e-004,-6.629088e-004
-2.062088e-004,-7.137973e-004
-2.280877e-004,-7.585274e-004
-2.587180e-004,-7.800820e-004
-2.969654e-004,-7.650100e-004
-3.319715e-004,-7.068285e-004
-3.496366e-004,-6.115342e-004
-3.491504e-004,-4.929024e-004
-3.361852e-004,-3.663294e-004
-3.245165e-004,-2.486699e-004
-3.322956e-004,-1.507825e-004
-3.742705e-004,-7.282909e-005
-4.450931e-004,-1.189254e-005
-5.217500e-004,3.445814e-005
-5.726385e-004,7.027458e-005
-5.766901e-004,1.013911e-004
-5.238568e-004,1.368834e-004
-4.222419e-004,1.795066e-004
-2.963172e-004,2.253711e-004
-1.734716e-004,2.676702e-004
-7.380149e-005,2.968419e-004
4.151929e-006,3.104554e-004
7.157111e-005,3.107795e-004
1.438522e-004,3.004074e-004
2.278021e-004,2.829043e-004
3.248792e-004,2.650771e-004
4.331389e-004,2.511395e-004
5.503122e-004,2.469258e-004
6.744543e-004,2.581083e-004
8.102651e-004,2.885766e-004
9.694134e-004,3.380065e-004
1.161623e-003,4.029947e-004
1.374253e-003,4.791655e-004
1.568246e-003,5.545259e-004
1.691578e-003,6.190279e-004
1.705516e-003,6.676476e-004
1.599038e-003,6.998986e-004
1.399860e-003,7.117294e-004
1.163730e-003,6.974676e-004
9.561241e-004,6.551685e-004
8.254994e-004,5.930975e-004
7.869278e-004,5.206542e-004
8.203132e-004,4.439973e-004
8.827084e-004,3.655576e-004
9.285730e-004,2.817699e-004
9.290591e-004,1.913374e-004
8.705535e-004,9.831188e-005
7.551629e-004,1.160693e-005
5.901803e-004,-5.532604e-005
3.924605e-004,-9.697683e-005
1.856651e-004,-1.195039e-004
-8.975362e-006,-1.349001e-004
-1.844921e-004,-1.498101e-004
-3.399127e-004,-1.665028e-004
-4.752372e-004,-1.818991e-004
-5.888450e-004,-1.984297e-004
-6.804119e-004,-2.225774e-004
-7.398899e-004,-2.538560e-004
-7.599859e-004,-2.862691e-004
-7.445897e-004,-3.104168e-004
-7.082871e-004,-3.250027e-004
-6.724707e-004,-3.290543e-004
-6.515643e-004,-3.214373e-004
-6.488092e-004,-3.074997e-004
-6.595054e-004,-2.916173e-004
-6.794395e-004,-2.780038e-004
-7.050458e-004,-2.716832e-004
-7.329211e-004,-2.773555e-004
-7.604721e-004,-2.890242e-004
-7.847819e-004,-2.930758e-004
-8.019609e-004,-2.789762e-004
-8.048780e-004,-2.455907e-004
-7.888335e-004,-2.015090e-004
-7.483172e-004,-1.592099e-004
-6.833291e-004,-1.271210e-004
-5.940311e-004,-1.054042e-004
-4.841508e-004,-9.405965e-005
-3.651949e-004,-9.081835e-005
-2.543422e-004,-8.903562e-005
-1.634236e-004,-8.368748e-005
-9.697683e-005,-7.817725e-005
-5.321920e-005,-7.833932e-005
-2.696461e-005,-8.417367e-005
-4.275467e-006,-8.773911e-005
3.721326e-005,-8.239095e-005
1.137081e-004,-6.715681e-005
2.187264e-004,-5.240886e-005
3.289309e-004,-4.479180e-005
4.167703e-004,-4.462973e-005
4.582590e-004,-4.576419e-005
4.414042e-004,-4.430560e-005
3.718782e-004,-3.766092e-005
2.683184e-004,-3.101625e-005
1.631380e-004,-2.501983e-005
9.280167e-005,-1.448558e-005
9.344993e-005,2.693341e-006
1.725378e-004,2.424803e-005
3.036487e-004,4.515445e-005
4.441593e-004,6.071273e-005
5.550121e-004,7.140904e-005
6.089798e-004,7.951231e-005
5.979594e-004,8.761557e-005
5.363746e-004,9.733949e-005
4.535592e-004,1.127357e-004
3.788470e-004,1.368834e-004
3.247172e-004,1.735102e-004
2.898731e-004,2.245608e-004
2.637806e-004,2.887387e-004
2.363916e-004,3.590750e-004
2.055991e-004,4.268184e-004
1.691344e-004,4.838654e-004
1.193804e-004,5.237334e-004
5.536457e-005,5.423710e-004
-7.516774e-006,5.417228e-004
-4.479180e-005,5.277851e-004
-2.988179e-005,5.094717e-004
4.839576e-005,4.914824e-004
1.761032e-004,4.721967e-004
3.276344e-004,4.504799e-004
4.720346e-004,4.266563e-004
5.898562e-004,4.016982e-004
6.684579e-004,3.765781e-004
7.018434e-004,3.514580e-004
6.867713e-004,3.239069e-004
6.274553e-004,2.931144e-004
5.345919e-004,2.566497e-004
4.273046e-004,2.115956e-004
3.195311e-004,1.571416e-004
2.146748e-004,9.442231e-005
1.145184e-004,3.008238e-005
2.424803e-005,-3.036798e-005
-5.289507e-005,-8.012204e-005
-1.167488e-004,-1.167488e-004
-1.697442e-004,-1.415448e-004
-2.156086e-004,-1.572651e-004
-2.509389e-004,-1.673132e-004
-2.716832e-004,-1.788198e-004
-2.827037e-004,-2.003745e-004
-2.882139e-004,-2.347323e-004
-2.951827e-004,-2.818933e-004
-3.068514e-004,-3.379679e-004
-3.193304e-004,-3.971218e-004
-3.207890e-004,-4.528722e-004
-2.943724e-004,-5.019780e-004
-2.371633e-004,-5.413599e-004
-1.746061e-004,-5.685869e-004
-1.452723e-004,-5.828486e-004
-1.754164e-004,-5.851175e-004
-2.616352e-004,-5.807417e-004
-3.744326e-004,-5.734488e-004
-4.864197e-004,-5.668041e-004
-5.839830e-004,-5.575664e-004
-6.650157e-004,-5.382806e-004
-7.283832e-004,-5.055434e-004
-7.698719e-004,-4.569239e-004
-7.870508e-004,-3.919357e-004
-7.813785e-004,-3.178718e-004
-7.586894e-004,-2.452666e-004
-7.249799e-004,-1.823853e-004
-6.878669e-004,-1.326312e-004
-6.538332e-004,-9.600444e-005
-6.206098e-004,-6.877746e-005
-5.881967e-004,-5.208474e-005
-5.574043e-004,-4.527799e-005
-5.293671e-004,-4.268495e-005
-5.094330e-004,-3.766092e-005
-5.058676e-004,-2.599222e-005
-5.173742e-004,-1.075808e-005
-5.298533e-004,6.907040e-006
-5.267740e-004,2.327564e-005
-4.980884e-004,3.834771e-005
-4.434724e-004,5.504044e-005
-3.626019e-004,7.610894e-005
-2.532078e-004,1.026876e-004
-1.211246e-004,1.339663e-004
2.197911e-005,1.629760e-004
1.631380e-004,1.804790e-004
2.893870e-004,1.825859e-004
3.914881e-004,1.759412e-004
4.636072e-004,1.649207e-004
4.973168e-004,1.501728e-004
4.856481e-004,1.365593e-004
4.268184e-004,1.291043e-004
3.331446e-004,1.313732e-004
2.266676e-004,1.420695e-004
1.305629e-004,1.581140e-004
5.990240e-005,1.764274e-004
2.538249e-005,1.974959e-004
3.380988e-005,2.232643e-004
9.182927e-005,2.501671e-004
1.999268e-004,2.743149e-004
3.467581e-004,2.931144e-004
5.052580e-004,3.034866e-004
6.422033e-004,3.046211e-004
7.284221e-004,2.960316e-004
7.473837e-004,2.807975e-004
6.979538e-004,2.666978e-004
6.003904e-004,2.600531e-004
4.893756e-004,2.660495e-004
3.932708e-004,2.871180e-004
3.216380e-004,3.209897e-004
2.692908e-004,3.644232e-004
2.263435e-004,4.093153e-004
1.762653e-004,4.491834e-004
1.120874e-004,4.790034e-004
3.607880e-005,4.952099e-004
-4.511593e-005,4.947237e-004
-1.177212e-004,4.804620e-004
-1.580754e-004,4.631210e-004
-1.472171e-004,4.540453e-004
-8.384954e-005,4.572867e-004
1.825161e-005,4.639314e-004
1.313732e-004,4.611762e-004
2.303951e-004,4.384871e-004
3.030004e-004,3.906778e-004
3.440029e-004,3.175863e-004
3.553475e-004,2.243987e-004
3.391410e-004,1.193804e-004
2.957075e-004,1.533444e-005
2.295848e-004,-8.401160e-005
1.440143e-004,-1.878955e-004
3.672706e-005,-3.065273e-004
-9.584238e-005,-4.366657e-004
-2.478596e-004,-5.588629e-004
-3.979321e-004,-6.565883e-004
-5.178604e-004,-7.241695e-004
-5.891691e-004,-7.643617e-004
-6.128307e-004,-7.846198e-004
-5.995413e-004,-7.901301e-004
-5.596732e-004,-7.815406e-004
-4.959816e-004,-7.583653e-004
-4.070078e-004,-7.197938e-004
-2.872415e-004,-6.648536e-004
-1.480274e-004,-5.912760e-004
-1.740276e-005,-4.987367e-004
7.627100e-005,-3.989045e-004
1.166253e-004,-3.052308e-004
1.062531e-004,-2.256567e-004
6.217132e-005,-1.650443e-004
7.393236e-006,-1.196660e-004
-4.025397e-005,-8.368748e-005
-7.185670e-005,-5.743289e-005
-8.547019e-005,-4.300908e-005
-8.514606e-005,-4.155049e-005
-7.315322e-005,-5.127441e-005
-5.419158e-005,-6.569822e-005
-2.696461e-005,-7.671866e-005
1.695509e-005,-7.850138e-005
9.085688e-005,-6.748094e-005
2.051129e-004,-4.560212e-005
3.576164e-004,-1.788895e-005
5.465847e-004,1.144487e-005
7.691005e-004,4.385793e-005
1.003771e-003,7.918817e-005
1.224505e-003,1.148425e-004
1.412339e-003,1.472556e-004
1.551553e-003,1.743205e-004
1.624159e-003,1.984683e-004
1.625293e-003,2.206712e-004
1.559981e-003,2.394708e-004
1.446535e-003,2.514636e-004
1.301972e-003,2.553532e-004
1.139582e-003,2.551911e-004
9.705480e-004,2.547049e-004
8.092928e-004,2.561635e-004
6.705648e-004,2.590807e-004
5.610085e-004,2.607014e-004
4.757621e-004,2.603772e-004
3.974845e-004,2.560015e-004
3.062417e-004,2.448189e-004
1.921477e-004,2.273159e-004
5.730935e-005,2.046267e-004
-8.903562e-005,1.786963e-004
-2.303566e-004,1.487142e-004
-3.459091e-004,1.150046e-004
-4.217557e-004,7.983644e-005
-4.603272e-004,4.499239e-005
-4.721580e-004,1.274139e-005
-4.671340e-004,-1.335113e-005
-4.549791e-004,-3.490581e-005
-4.452552e-004,-5.273300e-005
-4.460655e-004,-6.132246e-005
-4.595169e-004,-5.678463e-005
-4.877163e-004,-3.425755e-005
-5.306636e-004,1.014835e-005
-5.791211e-004,7.319176e-005
-6.225546e-004,1.432040e-004
-6.585331e-004,2.101370e-004
-6.886772e-004,2.663737e-004
-7.178490e-004,3.096451e-004
-7.500999e-004,3.461098e-004
-7.872129e-004,3.783608e-004
-8.256224e-004,4.059119e-004
-8.590078e-004,4.237391e-004
-8.787798e-004,4.261701e-004
-8.789418e-004,4.114222e-004
-8.619250e-004,3.825745e-004
-8.389117e-004,3.454615e-004
-8.173570e-004,3.004074e-004
-8.011505e-004,2.482223e-004
-7.948300e-004,1.880961e-004
-8.045539e-004,1.188942e-004
-8.283774e-004,4.077869e-005
-8.572251e-004,-4.219875e-005
-8.813728e-004,-1.193418e-004
-8.953104e-004,-1.869231e-004
-8.927174e-004,-2.444563e-004
-8.640318e-004,-2.937241e-004
-8.043919e-004,-3.345645e-004
-7.168766e-004,-3.626019e-004
-6.228787e-004,-3.757291e-004
-5.410357e-004,-3.749188e-004
-4.778303e-004,-3.637363e-004
-4.308313e-004,-3.517435e-004
-3.942046e-004,-3.483401e-004
-3.609812e-004,-3.559572e-004
-3.272716e-004,-3.744326e-004
-2.805968e-004,-3.956632e-004
-2.175534e-004,-4.076560e-004
-1.452723e-004,-3.998769e-004
-7.558420e-005,-3.715154e-004
-2.437157e-005,-3.308371e-004
-1.682422e-006,-2.861070e-004
-8.975362e-006,-2.438080e-004
-3.976777e-005,-2.070192e-004
-8.709085e-005,-1.775233e-004
-1.473791e-004,-1.540238e-004
-2.131776e-004,-1.310105e-004
-2.729798e-004,-1.058904e-004
-3.154408e-004,-8.271508e-005
-3.303509e-004,-6.877746e-005
-3.112272e-004,-6.261898e-005
-2.528836e-004,-5.986387e-005
-1.572651e-004,-5.451572e-005
-3.960571e-005,-4.122636e-005
8.421220e-005,-1.934754e-005
1.952270e-004,8.689758e-006
2.846870e-004,4.547859e-005
3.650715e-004,9.199134e-005
4.676588e-004,1.404489e-004
6.295622e-004,1.769136e-004
8.616399e-004,1.926339e-004
1.128400e-003,1.906891e-004
1.365988e-003,1.829100e-004
1.511199e-003,1.817755e-004
1.529998e-003,1.934442e-004
1.429842e-003,2.143507e-004
1.250273e-003,2.336365e-004
1.046395e-003,2.467637e-004
8.640709e-004,2.548670e-004
7.324737e-004,2.602152e-004
6.626236e-004,2.666978e-004
6.456067e-004,2.751252e-004
6.668373e-004,2.832284e-004
7.055709e-004,2.850112e-004
7.290703e-004,2.767458e-004
7.065432e-004,2.608634e-004
6.225934e-004,2.399570e-004
4.838654e-004,2.171058e-004
3.169380e-004,1.927960e-004
1.574657e-004,1.616794e-004
3.721326e-005,1.198666e-004
-2.696461e-005,7.043665e-005
-2.583016e-005,2.376183e-005
3.786152e-005,-1.237873e-005
1.430419e-004,-3.911951e-005
2.540567e-004,-5.808115e-005
3.440029e-004,-6.991193e-005
4.044533e-004,-7.574627e-005
4.467524e-004,-7.833932e-005
4.848378e-004,-8.012204e-005
5.281092e-004,-8.060823e-005
5.809425e-004,-8.449780e-005
6.383138e-004,-9.276313e-005
6.802886e-004,-1.050801e-004
6.827196e-004,-1.125351e-004
6.268070e-004,-1.101041e-004
5.083373e-004,-9.794922e-005
3.371962e-004,-8.303922e-005
1.308870e-004,-7.380149e-005
-8.692878e-005,-7.866345e-005
-2.859450e-004,-9.551824e-005
-4.363416e-004,-1.180453e-004
-5.261258e-004,-1.370070e-004
-5.608077e-004,-1.417068e-004
-5.510838e-004,-1.242038e-004
-5.105674e-004,-8.838737e-005
-4.583824e-004,-4.398147e-005
-4.170558e-004,-3.858999e-007
-4.063595e-004,2.959619e-005
-4.295348e-004,3.640293e-005
-4.760476e-004,1.906194e-005
-5.269361e-004,-1.237873e-005
-5.601594e-004,-5.240886e-005
-5.580526e-004,-1.008664e-004
-5.141329e-004,-1.583996e-004
-4.241867e-004,-2.167431e-004
-2.758969e-004,-2.614731e-004
-6.991193e-005,-2.818933e-004
1.718896e-004,-2.762210e-004
4.041292e-004,-2.527216e-004
5.749461e-004,-2.201465e-004
6.431757e-004,-1.874093e-004
6.007145e-004,-1.608306e-004
4.623107e-004,-1.391138e-004
2.642668e-004,-1.173971e-004
5.439218e-005,-9.260107e-005
-1.240417e-004,-6.278104e-005
-2.378116e-004,-3.231277e-005
-2.729798e-004,-7.192643e-006
-2.357047e-004,8.365628e-006
-1.579134e-004,1.484824e-005
-7.833932e-005,1.403791e-005
-2.939559e-005,1.257933e-005
-2.404744e-005,1.825161e-005
-6.116039e-005,3.251336e-005
-1.269589e-004,5.341979e-005
-2.028055e-004,7.691926e-005
-2.707109e-004,9.879808e-005
-3.212752e-004,1.177597e-004
-3.536883e-004,1.316974e-004
-3.715154e-004,1.415833e-004
-3.789705e-004,1.500107e-004
-3.814014e-004,1.600588e-004
-3.867496e-004,1.722137e-004
-4.021458e-004,1.856651e-004
-4.321279e-004,2.002510e-004
-4.744269e-004,2.128921e-004
-5.170500e-004,2.187264e-004
-5.463839e-004,2.146748e-004
-5.536768e-004,2.033302e-004
-5.382806e-004,1.910133e-004
-5.053814e-004,1.848548e-004
-4.525481e-004,1.897167e-004
-3.757291e-004,2.047888e-004
-2.805968e-004,2.226160e-004
-1.768750e-004,2.402811e-004
-7.850138e-005,2.600531e-004
-1.034161e-006,2.804733e-004
4.142696e-005,3.015418e-004
3.996837e-005,3.261758e-004
-1.520357e-006,3.561579e-004
-6.602235e-005,3.903536e-004
-1.297140e-004,4.266563e-004
-1.791439e-004,4.569625e-004
-2.122053e-004,4.726828e-004
-2.280877e-004,4.670106e-004
-2.285739e-004,4.383250e-004
-2.180396e-004,3.922984e-004
-2.039399e-004,3.427064e-004
-1.961608e-004,2.940868e-004
-2.037779e-004,2.475741e-004
-2.267911e-004,2.005751e-004
-2.592042e-004,1.500107e-004
-2.906449e-004,9.652917e-005
-3.079858e-004,4.385793e-005
-3.086341e-004,-8.327101e-006
-2.956689e-004,-5.921561e-005
-2.703867e-004,-1.067007e-004
-2.331117e-004,-1.459206e-004
-1.807646e-004,-1.752544e-004
-1.120489e-004,-1.961608e-004
-3.004385e-005,-2.183637e-004
5.585077e-005,-2.483458e-004
1.352628e-004,-2.857829e-004
2.013854e-004,-3.188442e-004
2.491947e-004,-3.369955e-004
2.827423e-004,-3.344025e-004
3.055935e-004,-3.151167e-004
3.203414e-004,-2.883759e-004
3.326584e-004,-2.656868e-004
3.449753e-004,-2.511010e-004
3.564820e-004,-2.449425e-004
3.600474e-004,-2.485079e-004
3.462718e-004,-2.596904e-004
3.099692e-004,-2.728177e-004
2.561635e-004,-2.817312e-004
1.999268e-004,-2.773555e-004
1.600588e-004,-2.509389e-004
1.513072e-004,-2.000504e-004
1.770756e-004,-1.303623e-004
2.190506e-004,-5.889148e-005
2.472499e-004,-1.358292e-006
2.407673e-004,2.943412e-005
1.981441e-004,3.121684e-005
1.351007e-004,1.176900e-005
7.059871e-005,-1.691656e-005
1.241726e-005,-4.657452e-005
-4.673658e-005,-7.752899e-005
-1.167488e-004,-1.156143e-004
-1.940539e-004,-1.668270e-004
-2.554767e-004,-2.253326e-004
-2.737901e-004,-2.770314e-004
-2.363530e-004,-3.117133e-004
-1.585616e-004,-3.308371e-004
-7.234290e-005,-3.468815e-004
-1.034161e-006,-3.737844e-004
5.034055e-005,-4.096008e-004
9.247754e-005,-4.476861e-004
1.440143e-004,-4.776682e-004
2.235884e-004,-4.940368e-004
3.354135e-004,-4.940368e-004
4.616624e-004,-4.757234e-004
5.725152e-004,-4.355313e-004
6.410689e-004,-3.737844e-004
6.493342e-004,-2.919414e-004
6.003904e-004,-1.940539e-004
5.214646e-004,-9.000802e-005
4.569625e-004,7.231170e-006
4.532350e-004,8.405014e-005
5.425331e-004,1.389903e-004
7.245325e-004,1.785342e-004
9.645515e-004,2.158093e-004
1.204571e-003,2.602152e-004
1.386894e-003,3.149933e-004
1.480568e-003,3.769022e-004
1.498720e-003,4.358940e-004
1.483486e-003,4.799758e-004
1.470682e-003,5.047718e-004
1.473599e-003,5.089855e-004
1.472789e-003,4.947237e-004
1.427249e-003,4.645796e-004
1.300675e-003,4.226047e-004
1.087397e-003,3.700955e-004
8.075100e-004,3.073762e-004
4.961824e-004,2.347709e-004
1.916615e-004,1.571416e-004
-8.644259e-005,8.599492e-005
-3.298647e-004,3.688912e-005
-5.381186e-004,1.630683e-005
-7.103939e-004,2.489629e-005
-8.530114e-004,5.666109e-005
-9.705087e-004,9.717743e-005
-1.061914e-003,1.325077e-004
-1.118799e-003,1.527658e-004
-1.136626e-003,1.566554e-004
-1.123823e-003,1.503349e-004
-1.094975e-003,1.385041e-004
-1.064020e-003,1.273216e-004
-1.037604e-003,1.234320e-004
-1.023342e-003,1.257009e-004
-1.018642e-003,1.268354e-004
-1.010215e-003,1.208390e-004
-9.729397e-004,1.090082e-004
-8.898003e-004,9.474644e-005
-7.624169e-004,8.648112e-005
-6.139652e-004,8.972242e-005
-4.788027e-004,1.059290e-004
-3.914495e-004,1.318594e-004
-3.669776e-004,1.608691e-004
-3.972838e-004,1.864754e-004
-4.595169e-004,2.051129e-004
-5.301774e-004,2.161334e-004
-5.864140e-004,2.214815e-004
-6.144513e-004,2.213195e-004
-6.103997e-004,2.140265e-004
-5.826865e-004,1.976579e-004
-5.452494e-004,1.671896e-004
-5.138087e-004,1.203528e-004
-4.967919e-004,6.281957e-005
-4.836646e-004,6.907040e-006
-4.601652e-004,-3.749886e-005
-4.224039e-004,-6.586029e-005
-3.690845e-004,-7.007399e-005
-3.036101e-004,-5.127441e-005
-2.327876e-004,-1.562004e-005
-1.689338e-004,2.943412e-005
-1.242038e-004,7.302970e-005
-9.794922e-005,1.038221e-004
-8.352541e-005,1.125736e-004
-7.234290e-005,9.977047e-005
-6.521203e-005,7.756752e-005
-7.201877e-005,5.439218e-005
-9.130454e-005,3.494434e-005
-1.070249e-004,1.598270e-005
-1.049180e-004,-1.034161e-006
-7.590833e-005,-1.399939e-005
-2.145439e-005,-2.177852e-005
5.115087e-005,-2.761287e-005
1.242423e-004,-3.182657e-005
1.712413e-004,-3.749886e-005
1.701068e-004,-4.851930e-005
1.107909e-004,-6.650855e-005
1.883015e-006,-8.935975e-005
-1.324691e-004,-1.128592e-004
-2.583939e-004,-1.394379e-004
-3.468815e-004,-1.666649e-004
-3.828600e-004,-1.849783e-004
-3.664914e-004,-1.833576e-004
-3.147926e-004,-1.642339e-004
-2.564491e-004,-1.371690e-004
-2.151224e-004,-1.167488e-004
-1.972953e-004,-1.122110e-004
-1.849783e-004,-1.280934e-004
-1.480274e-004,-1.622891e-004
-5.889148e-005,-2.113949e-004
9.733949e-005,-2.681178e-004
3.198552e-004,-3.214373e-004
5.880735e-004,-3.569296e-004
8.634226e-004,-3.619536e-004
1.099390e-003,-3.363473e-004
1.259511e-003,-2.898345e-004
1.325310e-003,-2.339220e-004
1.307644e-003,-1.726613e-004
1.228394e-003,-1.031353e-004
1.109114e-003,-2.955766e-005
9.742755e-004,3.559260e-005
8.493229e-004,8.453633e-005
7.656972e-004,1.107909e-004
7.447907e-004,1.161391e-004
7.903311e-004,1.073875e-004
8.781706e-004,1.000946e-004
9.681169e-004,1.049566e-004
1.020464e-003,1.265113e-004
1.008471e-003,1.571416e-004
9.182008e-004,1.902029e-004
7.543526e-004,2.175920e-004
5.413986e-004,2.349330e-004
3.125623e-004,2.380122e-004
9.766362e-005,2.286124e-004
-8.190475e-005,2.138645e-004
-2.162569e-004,2.068957e-004
-3.006929e-004,2.140265e-004
-3.442885e-004,2.289366e-004
-3.619536e-004,2.397949e-004
-3.685983e-004,2.292607e-004
-3.771877e-004,1.871237e-004
-3.922598e-004,1.138702e-004
-4.131662e-004,2.489629e-005
-4.348830e-004,-6.229485e-005
-4.561135e-004,-1.289037e-004
-4.778303e-004,-1.700683e-004
-5.014918e-004,-1.912988e-004
-5.282326e-004,-2.052365e-004
-5.535148e-004,-2.254946e-004
-5.693972e-004,-2.596904e-004
-5.702075e-004,-3.053928e-004
-5.565940e-004,-3.559572e-004
-5.382806e-004,-4.047388e-004
-5.254775e-004,-4.441207e-004
-5.222362e-004,-4.705373e-004
-5.238568e-004,-4.749131e-004
-5.287188e-004,-4.491447e-004
-5.279084e-004,-3.929081e-004
-5.092709e-004,-3.134961e-004
-4.664857e-004,-2.238740e-004
-4.081422e-004,-1.334415e-004
-3.493125e-004,-4.997789e-005
-3.065273e-004,2.035846e-005
-2.805968e-004,7.416415e-005
-2.669833e-004,1.111150e-004
-2.525595e-004,1.321835e-004
-2.293842e-004,1.412592e-004
-1.938919e-004,1.419075e-004
-1.468929e-004,1.398006e-004
-9.405965e-005,1.375317e-004
-4.252288e-005,1.321835e-004
-2.238346e-007,1.237561e-004
2.975825e-005,1.124116e-004
4.158902e-005,1.009049e-004
3.121684e-005,9.231547e-005
-4.761664e-006,8.777764e-005
-6.440170e-005,8.550872e-005
-1.323071e-004,8.550872e-005
-1.869231e-004,8.696731e-005
-2.092881e-004,9.166720e-005
-1.861127e-004,1.013911e-004
-1.149661e-004,1.208390e-004
-7.030578e-006,1.487142e-004
1.161391e-004,1.788584e-004
2.294227e-004,2.088404e-004
3.175863e-004,2.399570e-004
3.793332e-004,2.705873e-004
4.303838e-004,2.968419e-004
4.835413e-004,3.156415e-004
5.456123e-004,3.256896e-004
6.029835e-004,3.281205e-004
6.326414e-004,3.250413e-004
6.193521e-004,3.177483e-004
5.686256e-004,3.075383e-004
5.021787e-004,2.955454e-004
4.443214e-004,2.819319e-004
4.102877e-004,2.670219e-004
4.044533e-004,2.506533e-004
4.245494e-004,2.363916e-004
4.568005e-004,2.219677e-004
4.801379e-004,2.033302e-004
4.632831e-004,1.765894e-004
3.897054e-004,1.407730e-004
2.683184e-004,1.039842e-004
1.263492e-004,7.400208e-005
-1.432352e-005,5.374392e-005
-1.418689e-004,3.996837e-005
-2.468872e-004,2.667901e-005
-3.264613e-004,1.144487e-005
-3.831841e-004,-1.844488e-006
-4.198109e-004,-7.516774e-006
-4.348830e-004,-1.844488e-006
-4.269418e-004,1.193106e-005
-4.000390e-004,2.959619e-005
-3.609812e-004,5.050261e-005
-3.167374e-004,7.513654e-005
-2.723315e-004,1.009049e-004
-2.352185e-004,1.221355e-004
-2.081536e-004,1.323456e-004
-1.914609e-004,1.265113e-004
-1.759026e-004,1.039842e-004
-1.387897e-004,6.914012e-005
-4.835724e-005,2.619281e-005
1.214872e-004,-2.339918e-005
3.731747e-004,-7.137051e-005
6.720233e-004,-1.110765e-004
9.543414e-004,-1.392759e-004
1.149468e-003,-1.598582e-004
1.206191e-003,-1.763888e-004
1.111059e-003,-1.943781e-004
8.990770e-004,-2.225774e-004
6.344241e-004,-2.619593e-004
3.900295e-004,-3.063652e-004
2.263435e-004,-3.468815e-004
1.809652e-004,-3.783222e-004
2.532463e-004,-3.995528e-004
3.927847e-004,-4.118697e-004
5.256782e-004,-4.181903e-004
5.851563e-004,-4.172179e-004
5.362125e-004,-4.027940e-004
3.832228e-004,-3.690845e-004
1.590864e-004,-3.201407e-004
-8.417367e-005,-2.655248e-004
-2.995585e-004,-2.151224e-004
-4.540067e-004,-1.778474e-004
-5.408737e-004,-1.561307e-004
-5.766901e-004,-1.467309e-004
-5.805797e-004,-1.441378e-004
-5.689110e-004,-1.439758e-004
-5.512458e-004,-1.436516e-004
-5.292050e-004,-1.457585e-004
-4.990608e-004,-1.504584e-004
-4.574101e-004,-1.595340e-004
-4.076560e-004,-1.759026e-004
-3.643846e-004,-1.948643e-004
-3.436402e-004,-2.076674e-004
-3.520676e-004,-2.078295e-004
-3.870737e-004,-1.921092e-004
-4.321279e-004,-1.603444e-004
-4.651892e-004,-1.151281e-004
-4.694029e-004,-6.586029e-005
-4.356933e-004,-1.950961e-005
-3.648708e-004,2.035846e-005
-2.731418e-004,5.536457e-005
-1.853024e-004,8.291568e-005
-1.159385e-004,9.814982e-005
-6.829127e-005,1.004187e-004
-4.479180e-005,9.896015e-005
-4.868137e-005,1.010670e-004
-7.914964e-005,1.104668e-004
-1.280934e-004,1.247285e-004
-1.815749e-004,1.433661e-004
-2.227395e-004,1.670276e-004
-2.429977e-004,1.973338e-004
-2.459149e-004,2.303951e-004
-2.451045e-004,2.608634e-004
-2.501286e-004,2.807975e-004
-2.660110e-004,2.854973e-004
-2.942103e-004,2.764217e-004
-3.254889e-004,2.592428e-004
-3.423437e-004,2.401191e-004
-3.199787e-004,2.250470e-004
-2.300324e-004,2.167816e-004
-5.257093e-005,2.162954e-004
2.096508e-004,2.200230e-004
5.214646e-004,2.237505e-004
8.233925e-004,2.265056e-004
1.050932e-003,2.256952e-004
1.156113e-003,2.137024e-004
1.128724e-003,1.814514e-004
9.901578e-004,1.354248e-004
7.827141e-004,9.199134e-005
5.519328e-004,7.011252e-005
3.352514e-004,8.080883e-005
1.573037e-004,1.211631e-004
2.635488e-005,1.786963e-004
-6.440170e-005,2.355812e-004
-1.311726e-004,2.767458e-004
-1.854645e-004,2.944109e-004
-2.311669e-004,2.947351e-004
-2.697385e-004,2.970040e-004
-3.013411e-004,3.195311e-004
-3.256510e-004,3.649094e-004
-3.460712e-004,4.175806e-004
-3.611433e-004,4.525868e-004
-3.707051e-004,4.527488e-004
-3.750809e-004,4.122325e-004
-3.755671e-004,3.386548e-004
-3.682741e-004,2.516257e-004
-3.522297e-004,1.641104e-004
-3.308371e-004,8.113296e-005
-3.068514e-004,4.962256e-006
-2.815692e-004,-6.018800e-005
-2.575835e-004,-1.084835e-004
-2.405667e-004,-1.336036e-004
-2.350565e-004,-1.408965e-004
-2.389460e-004,-1.413827e-004
-2.447804e-004,-1.494860e-004
-2.442942e-004,-1.759026e-004
-2.357047e-004,-2.254946e-004
-2.224154e-004,-2.898345e-004
-2.079916e-004,-3.548227e-004
-1.994021e-004,-4.112214e-004
-2.000504e-004,-4.598410e-004
-2.066950e-004,-5.108916e-004
-2.130156e-004,-5.747453e-004
-2.104225e-004,-6.509160e-004
-1.916230e-004,-7.217386e-004
-1.543479e-004,-7.653341e-004
-1.026491e-004,-7.684134e-004
-4.300908e-005,-7.345417e-004
1.663096e-005,-6.791154e-004
6.168512e-005,-6.204477e-004
8.080883e-005,-5.668041e-004
7.043665e-005,-5.107295e-004
3.802358e-005,-4.421759e-004
-5.409925e-006,-3.540124e-004
-4.738484e-005,-2.451045e-004
-7.931171e-005,-1.220970e-004
-9.794922e-005,2.207145e-006
-1.016767e-004,1.154908e-004
-8.887356e-005,2.111094e-004
-5.727083e-005,2.846870e-004
-1.205460e-005,3.328204e-004
3.462021e-005,3.561579e-004
7.205730e-005,3.587509e-004
9.766362e-005,3.482167e-004
1.156529e-004,3.308757e-004
1.305629e-004,3.086727e-004
1.373696e-004,2.782044e-004
1.237561e-004,2.419018e-004
8.437427e-005,2.017096e-004
3.607880e-005,1.584381e-004
6.096713e-006,1.137081e-004
1.954813e-005,7.351589e-005
9.280167e-005,4.547859e-005
2.278021e-004,3.397195e-005
4.107739e-004,3.753739e-005
6.123833e-004,5.374392e-005
7.856312e-004,7.789165e-005
8.833567e-004,1.075496e-004
8.893532e-004,1.401247e-004
8.245269e-004,1.746447e-004
7.282600e-004,2.094887e-004
6.332897e-004,2.440086e-004
5.486915e-004,2.762596e-004
4.694416e-004,3.023522e-004
3.887330e-004,3.200173e-004
3.086727e-004,3.344411e-004
2.341226e-004,3.506476e-004
1.796687e-004,3.730126e-004
1.650828e-004,4.005638e-004
2.015475e-004,4.226047e-004
2.748010e-004,4.316803e-004
3.487029e-004,4.247115e-004
3.861400e-004,3.984569e-004
3.712299e-004,3.532407e-004
3.060797e-004,2.926282e-004
2.083542e-004,2.198609e-004
9.231547e-005,1.401247e-004
-3.101625e-005,5.876794e-005
-1.554824e-004,-1.659243e-005
-2.762210e-004,-8.060823e-005
-3.859393e-004,-1.259865e-004
-4.737787e-004,-1.465688e-004
-5.342290e-004,-1.433275e-004
-5.724764e-004,-1.235555e-004
-5.930586e-004,-1.016767e-004
-5.967862e-004,-9.227693e-005
-5.802555e-004,-1.081593e-004
-5.347152e-004,-1.540238e-004
-4.507654e-004,-2.212809e-004
-3.274337e-004,-2.969654e-004
-1.700683e-004,-3.647087e-004
9.106227e-007,-4.155972e-004
1.586002e-004,-4.449310e-004
2.936006e-004,-4.585445e-004
4.112601e-004,-4.642168e-004
5.193577e-004,-4.637306e-004
6.222692e-004,-4.548170e-004
7.152948e-004,-4.373140e-004
7.820658e-004,-4.167317e-004
8.016757e-004,-3.906392e-004
7.613214e-004,-3.611433e-004
6.606788e-004,-3.269475e-004
5.140096e-004,-2.856209e-004
3.508097e-004,-2.378116e-004
2.057612e-004,-1.887058e-004
1.026876e-004,-1.408965e-004
4.953022e-005,-9.211487e-005
3.591673e-005,-3.895745e-005
3.624086e-005,1.857574e-005
2.441009e-005,7.853991e-005
-1.254080e-005,1.410971e-004
-6.748094e-005,2.023578e-004
-1.248521e-004,2.589186e-004
-1.791439e-004,3.077003e-004
-2.285739e-004,3.454615e-004
-2.642282e-004,3.683128e-004
-2.699005e-004,3.772264e-004
-2.318152e-004,3.757678e-004
-1.491618e-004,3.702575e-004
-3.393342e-005,3.663680e-004
8.891209e-005,3.652335e-004
1.918236e-004,3.644232e-004
2.470879e-004,3.605336e-004
2.441707e-004,3.521062e-004
1.950649e-004,3.381686e-004
1.245665e-004,3.221241e-004
6.136099e-005,3.020280e-004
2.505836e-005,2.751252e-004
1.776542e-005,2.423880e-004
2.927205e-005,2.112714e-004
4.596478e-005,1.903650e-004
4.888196e-005,1.838824e-004
2.619281e-005,1.906891e-004
-3.166451e-005,2.025199e-004
-1.293899e-004,2.133783e-004
-2.585559e-004,2.229401e-004
-4.037664e-004,2.295848e-004
-5.501114e-004,2.289366e-004
-6.862463e-004,2.192126e-004
-8.035815e-004,1.989545e-004
-8.970932e-004,1.718896e-004
-9.590021e-004,1.415833e-004
-9.808809e-004,1.130598e-004
-9.590021e-004,9.312580e-005
-8.975794e-004,8.372601e-005
-8.141157e-004,8.145709e-005
-7.382692e-004,8.113296e-005
-6.951598e-004,8.097089e-005
-6.990494e-004,7.853991e-005
-7.426449e-004,6.703327e-005
-8.069849e-004,4.239934e-005
-8.718110e-004,7.717366e-006
-9.192961e-004,-3.004385e-005
-9.389060e-004,-6.375344e-005
-9.249684e-004,-8.903562e-005
-8.729455e-004,-1.099421e-004
-7.760304e-004,-1.337657e-004
-6.274165e-004,-1.622891e-004
-4.329382e-004,-1.887058e-004
-2.039399e-004,-2.055606e-004
4.434413e-005,-2.066950e-004
2.931144e-004,-1.891920e-004
5.225990e-004,-1.579134e-004
7.222636e-004,-1.198280e-004
8.856256e-004,-8.320128e-005
1.007499e-003,-5.986387e-005
1.084156e-003,-5.727083e-005
1.109114e-003,-7.396356e-005
1.081725e-003,-1.005423e-004
1.014630e-003,-1.240417e-004
9.288971e-004,-1.399241e-004
8.527263e-004,-1.509446e-004
8.050791e-004,-1.614788e-004
7.877381e-004,-1.780095e-004
7.880622e-004,-2.049123e-004
7.947069e-004,-2.387840e-004
8.105893e-004,-2.687660e-004
8.321440e-004,-2.856209e-004
8.515919e-004,-2.817312e-004
8.598572e-004,-2.621213e-004
8.598572e-004,-2.368392e-004
8.562917e-004,-2.154466e-004
8.415438e-004,-1.987538e-004
7.914656e-004,-1.825473e-004
6.861230e-004,-1.643960e-004
5.217887e-004,-1.481895e-004
3.135347e-004,-1.360346e-004
8.793970e-005,-1.305243e-004
-1.272830e-004,-1.334415e-004
-3.131719e-004,-1.447861e-004
-4.694029e-004,-1.577513e-004
-6.016482e-004,-1.643960e-004
-7.160662e-004,-1.574272e-004
-8.147640e-004,-1.365208e-004
-8.969311e-004,-1.011905e-004
-9.578677e-004,-5.516398e-005
-9.910910e-004,-7.354709e-006
-9.941703e-004,3.510641e-005
-9.672674e-004,6.427817e-005
-9.167031e-004,7.659513e-005
-8.497701e-004,7.335383e-005
-7.734374e-004,6.136099e-005
-6.945116e-004,5.196120e-005
-6.163961e-004,5.309566e-005
-5.374703e-004,6.314371e-005
-4.559515e-004,7.124698e-005
-3.690845e-004,6.654708e-005
-2.771934e-004,4.807163e-005
-1.864369e-004,2.376183e-005
-1.110765e-004,3.827799e-006
-5.581224e-005,-1.682422e-006
-1.756482e-005,9.824215e-006
1.128280e-005,3.186510e-005
4.742337e-005,5.876794e-005
1.083599e-004,8.891209e-005
2.008992e-004,1.231079e-004
3.203414e-004,1.594105e-004
4.498317e-004,1.924718e-004
5.676532e-004,2.190506e-004
6.472273e-004,2.334744e-004
6.569512e-004,2.344468e-004
5.845079e-004,2.268297e-004
4.373526e-004,2.167816e-004
2.477361e-004,1.999268e-004
6.362991e-005,1.765894e-004
-7.234290e-005,1.511452e-004
-1.426792e-004,1.305629e-004
-1.648822e-004,1.237561e-004
-1.674752e-004,1.331559e-004
-1.762268e-004,1.470936e-004
-2.066950e-004,1.524417e-004
-2.643903e-004,1.448246e-004
-3.460712e-004,1.227837e-004
-4.452552e-004,8.939829e-005
-5.510838e-004,4.823370e-005
-6.502678e-004,1.883015e-006
-7.241695e-004,-4.706071e-005
-7.594998e-004,-9.551824e-005
-7.470207e-004,-1.373311e-004
-6.834911e-004,-1.695821e-004
-5.625904e-004,-1.945401e-004
-3.705430e-004,-2.191741e-004
-1.002181e-004,-2.512630e-004
2.333123e-004,-2.979378e-004
5.812666e-004,-3.577399e-004
8.796292e-004,-4.212695e-004
1.078321e-003,-4.755614e-004
1.163568e-003,-5.105674e-004
1.156437e-003,-5.183466e-004
1.096473e-003,-4.959816e-004
1.017385e-003,-4.423380e-004
9.410520e-004,-3.611433e-004
8.836808e-004,-2.642282e-004
8.596951e-004,-1.695821e-004
8.754155e-004,-9.438378e-005
9.237110e-004,-4.625038e-005
9.895095e-004,-2.129233e-005
1.051743e-003,-9.299493e-006
1.078970e-003,-7.100305e-007
1.041857e-003,9.013889e-006
9.276005e-004,2.359977e-005
7.421977e-004,4.304761e-005
5.106062e-004,6.930219e-005
2.752873e-004,1.049566e-004
8.226741e-005,1.517934e-004
-4.041603e-005,2.060853e-004
-8.255302e-005,2.589186e-004
-4.657452e-005,3.021901e-004
6.184718e-005,3.286068e-004
2.352571e-004,3.349273e-004
4.508040e-004,3.216380e-004
6.684579e-004,2.966799e-004
8.373301e-004,2.668598e-004
9.170663e-004,2.427121e-004
8.934048e-004,2.303951e-004
7.838485e-004,2.261814e-004
6.167590e-004,2.265056e-004
4.200116e-004,2.305572e-004
2.122438e-004,2.453052e-004
2.207145e-006,2.783665e-004
-2.028055e-004,3.273102e-004
-3.914495e-004,3.778746e-004
-5.590250e-004,4.159600e-004
-7.078009e-004,4.342734e-004
-8.390738e-004,4.339493e-004
-9.468472e-004,4.193634e-004
-1.023018e-003,3.978086e-004
-1.064507e-003,3.726885e-004
-1.077796e-003,3.501615e-004
-1.068558e-003,3.376824e-004
-1.034525e-003,3.441650e-004
-9.742362e-004,3.718782e-004
-8.870451e-004,4.175806e-004
-7.781372e-004,4.709002e-004
-6.616123e-004,5.174129e-004
-5.598353e-004,5.451261e-004
-4.873921e-004,5.448020e-004
-4.452552e-004,5.177371e-004
-4.277521e-004,4.694416e-004
-4.269418e-004,4.078567e-004
-4.360174e-004,3.357376e-004
-4.544929e-004,2.521119e-004
-4.844750e-004,1.566554e-004
-5.202913e-004,4.547859e-005
-5.484907e-004,-7.752899e-005
-5.585388e-004,-2.008607e-004
-5.501114e-004,-3.172236e-004
-5.340669e-004,-4.180282e-004
-5.206155e-004,-5.010056e-004
-5.125122e-004,-5.702075e-004
-5.095950e-004,-6.311440e-004
-5.065158e-004,-6.870566e-004
-5.010056e-004,-7.407002e-004
-4.911196e-004,-7.883473e-004
-4.788027e-004,-8.233535e-004
-4.703753e-004,-8.374532e-004
-4.710235e-004,-8.256224e-004
-4.765338e-004,-7.886715e-004
-4.695649e-004,-7.364865e-004
-4.394208e-004,-6.847876e-004
-3.882082e-004,-6.473506e-004
-3.309991e-004,-6.264441e-004
-2.820554e-004,-6.139652e-004
-2.454286e-004,-5.993792e-004
-2.143121e-004,-5.700454e-004
-1.783336e-004,-5.173742e-004
-1.229073e-004,-4.415277e-004
-4.122636e-005,-3.512573e-004
5.957827e-005,-2.613110e-004
1.555210e-004,-1.780095e-004
2.231022e-004,-1.042698e-004
2.477361e-004,-4.122636e-005
2.292607e-004,5.610517e-006
1.819376e-004,3.510641e-005
1.292664e-004,5.293359e-005
8.923623e-005,6.638502e-005
7.011252e-005,7.643307e-005
7.546067e-005,8.323981e-005
1.044704e-004,8.518459e-005
1.490383e-004,8.372601e-005
2.049509e-004,7.675720e-005
2.629703e-004,5.730935e-005
3.127243e-004,1.954813e-005
3.493511e-004,-3.830919e-005
3.707437e-004,-1.104282e-004
3.786850e-004,-1.801163e-004
3.820883e-004,-2.279256e-004
3.919743e-004,-2.410529e-004
4.096394e-004,-2.138259e-004
4.258460e-004,-1.517549e-004
4.329769e-004,-6.537409e-005
4.264942e-004,3.445814e-005
4.063981e-004,1.360731e-004
3.726885e-004,2.290986e-004
3.334687e-004,3.075383e-004
3.012177e-004,3.675024e-004
2.838767e-004,4.122325e-004
2.804733e-004,4.448076e-004
2.816078e-004,4.704139e-004
2.820940e-004,4.914824e-004
2.867939e-004,5.054200e-004
3.023522e-004,5.136854e-004
3.316860e-004,5.208163e-004
3.733368e-004,5.321609e-004
4.302217e-004,5.482053e-004
4.965065e-004,5.650602e-004
5.572810e-004,5.757565e-004
5.939078e-004,5.757565e-004
5.888838e-004,5.605224e-004
5.391297e-004,5.284334e-004
4.537212e-004,4.833792e-004
3.548613e-004,4.329769e-004
2.618358e-004,3.916502e-004
1.934442e-004,3.692851e-004
