-6.537409e-005,-1.776853e-004
-7.266703e-005,-1.314967e-004
-3.571614e-005,-1.000561e-004
3.948217e-005,-8.222889e-005
1.367214e-004,-7.266703e-005
2.417397e-004,-6.310517e-005
3.469201e-004,-4.625038e-005
4.456179e-004,-2.372331e-005
5.311884e-004,-6.382317e-006
5.963388e-004,-3.627206e-006
6.413930e-004,-1.480971e-005
6.721854e-004,-3.328516e-005
6.942263e-004,-4.641245e-005
7.015193e-004,-4.625038e-005
6.765611e-004,-3.847125e-005
6.037938e-004,-2.696461e-005
4.862963e-004,-1.480971e-005
3.461098e-004,-2.168618e-006
2.068957e-004,9.662150e-006
8.712937e-005,2.246531e-005
-4.761664e-006,3.462021e-005
-7.266703e-005,4.223728e-005
-1.279313e-004,4.985435e-005
-1.955125e-004,6.168512e-005
-2.932379e-004,8.178122e-005
-4.224039e-004,1.117633e-004
-5.671282e-004,1.472556e-004
-6.962943e-004,1.756171e-004
-7.823510e-004,1.889064e-004
-8.181673e-004,1.856651e-004
-8.233535e-004,1.712413e-004
-8.202742e-004,1.551968e-004
-8.137916e-004,1.430419e-004
-7.899680e-004,1.381800e-004
-7.360002e-004,1.357490e-004
-6.604778e-004,1.352628e-004
-5.881967e-004,1.389903e-004
-5.279084e-004,1.470936e-004
-4.598410e-004,1.551968e-004
-3.569296e-004,1.598967e-004
-1.945401e-004,1.631380e-004
2.862379e-005,1.712413e-004
2.788527e-004,1.856651e-004
5.023408e-004,2.015475e-004
6.483617e-004,2.088404e-004
6.953608e-004,2.021958e-004
6.470652e-004,1.765894e-004
5.167646e-004,1.370455e-004
3.132105e-004,9.409818e-005
4.871989e-005,5.828175e-005
-2.566112e-004,3.462021e-005
-5.658317e-004,2.424803e-005
-8.311326e-004,2.214118e-005
-1.003570e-003,2.019640e-005
-1.055107e-003,1.371378e-005
-9.935220e-004,4.476060e-006
-8.651663e-004,-2.816880e-006
-7.278970e-004,-6.058186e-006
-6.193133e-004,-1.027188e-005
-5.494631e-004,-2.242678e-005
-5.021401e-004,-4.155049e-005
-4.531963e-004,-6.407757e-005
-3.906392e-004,-8.676672e-005
-3.194925e-004,-1.084835e-004
-2.532078e-004,-1.311726e-004
-2.018331e-004,-1.546721e-004
-1.613168e-004,-1.736337e-004
-1.157764e-004,-1.857886e-004
-4.932962e-005,-1.945401e-004
4.871989e-005,-2.013469e-004
1.814514e-004,-2.042641e-004
3.365480e-004,-2.039399e-004
4.948858e-004,-2.023193e-004
6.365310e-004,-1.998883e-004
7.460872e-004,-1.979435e-004
8.115617e-004,-1.972953e-004
8.340888e-004,-1.984297e-004
8.264717e-004,-1.932436e-004
8.050791e-004,-1.778474e-004
7.746107e-004,-1.562927e-004
7.253428e-004,-1.302002e-004
6.413930e-004,-9.649064e-005
5.178991e-004,-5.321920e-005
3.577785e-004,-5.734056e-006
1.746447e-004,3.348575e-005
-9.785688e-006,5.244739e-005
-1.780095e-004,5.244739e-005
-3.193304e-004,4.175109e-005
-4.259694e-004,2.829966e-005
-4.946851e-004,1.695509e-005
-5.279084e-004,1.338965e-005
-5.329325e-004,2.068259e-005
-5.162397e-004,3.818565e-005
-4.839888e-004,6.038860e-005
-4.447690e-004,7.610894e-005
-4.096008e-004,7.870197e-005
-3.867496e-004,7.140904e-005
-3.776739e-004,6.362991e-005
-3.734602e-004,6.751948e-005
-3.629260e-004,8.712937e-005
-3.399127e-004,1.179218e-004
-3.031239e-004,1.506590e-004
-2.585559e-004,1.762653e-004
-2.120432e-004,1.892305e-004
-1.687718e-004,1.902029e-004
-1.394379e-004,1.833962e-004
-1.302002e-004,1.756171e-004
-1.344139e-004,1.730240e-004
-1.358725e-004,1.752929e-004
-1.156143e-004,1.773998e-004
-6.326724e-005,1.739964e-004
1.646890e-005,1.654069e-004
1.169494e-004,1.569795e-004
2.399570e-004,1.539003e-004
3.900295e-004,1.537382e-004
5.663567e-004,1.540623e-004
7.550009e-004,1.545486e-004
9.227386e-004,1.558451e-004
1.023057e-003,1.579519e-004
1.015278e-003,1.581140e-004
8.843291e-004,1.517934e-004
6.540340e-004,1.378558e-004
3.760919e-004,1.145184e-004
1.112771e-004,8.696731e-005
-9.681477e-005,6.427817e-005
-2.301945e-004,5.277153e-005
-2.953447e-004,5.374392e-005
-3.144685e-004,6.508849e-005
-3.110651e-004,8.129502e-005
-3.023136e-004,9.296373e-005
-2.865932e-004,9.312580e-005
-2.592042e-004,7.805372e-005
-2.222533e-004,4.936815e-005
-1.825473e-004,1.225520e-005
-1.418689e-004,-2.615429e-005
-1.002181e-004,-5.646050e-005
-4.835724e-005,-7.833932e-005
1.954813e-005,-9.454585e-005
1.012291e-004,-1.089697e-004
1.884202e-004,-1.258245e-004
2.762596e-004,-1.467309e-004
3.618301e-004,-1.702304e-004
4.425387e-004,-1.909747e-004
5.127130e-004,-2.032917e-004
5.613327e-004,-2.041020e-004
5.718669e-004,-1.961608e-004
5.396159e-004,-1.833576e-004
4.739794e-004,-1.694200e-004
3.940812e-004,-1.533756e-004
3.240689e-004,-1.342519e-004
2.958695e-004,-1.120489e-004
3.311998e-004,-8.806324e-005
4.224426e-004,-6.699475e-005
5.277851e-004,-5.078821e-005
5.992560e-004,-4.090223e-005
6.059006e-004,-3.895745e-005
5.509604e-004,-4.706071e-005
4.606900e-004,-6.504996e-005
3.566440e-004,-9.130454e-005
2.482223e-004,-1.183694e-004
1.351007e-004,-1.391138e-004
1.565857e-005,-1.502963e-004
-9.454585e-005,-1.535376e-004
-1.846542e-004,-1.561307e-004
-2.661730e-004,-1.585616e-004
-3.514194e-004,-1.579134e-004
-4.327761e-004,-1.528894e-004
-4.820440e-004,-1.441378e-004
-4.732924e-004,-1.349001e-004
-4.039285e-004,-1.285796e-004
-2.955068e-004,-1.212866e-004
-1.831956e-004,-1.133454e-004
-1.052422e-004,-1.050801e-004
-8.287715e-005,-9.794922e-005
-1.136696e-004,-9.162867e-005
-1.716889e-004,-8.368748e-005
-2.217671e-004,-7.363943e-005
-2.311669e-004,-5.743289e-005
-1.924333e-004,-3.279896e-005
-1.225832e-004,5.864920e-007
-4.576419e-005,4.045456e-005
1.922400e-005,8.486046e-005
6.152305e-005,1.266733e-004
8.178122e-005,1.610312e-004
9.037068e-005,1.856651e-004
9.199134e-005,2.002510e-004
8.356394e-005,2.073819e-004
5.568870e-005,2.122438e-004
-6.220252e-006,2.211574e-004
-9.892161e-005,2.389846e-004
-2.037779e-004,2.701012e-004
-3.042584e-004,3.154794e-004
-3.856151e-004,3.649094e-004
-4.298589e-004,4.013741e-004
-4.225660e-004,4.102877e-004
-3.752429e-004,3.903536e-004
-3.225718e-004,3.474063e-004
-2.976137e-004,2.931144e-004
-3.180339e-004,2.372019e-004
-3.788084e-004,1.869616e-004
-4.578962e-004,1.451488e-004
-5.288809e-004,1.120874e-004
-5.705316e-004,9.118101e-005
-5.716661e-004,8.129502e-005
-5.311498e-004,8.129502e-005
-4.593548e-004,8.648112e-005
-3.745947e-004,8.745350e-005
-2.961551e-004,7.935024e-005
-2.282497e-004,6.330578e-005
-1.639098e-004,4.369587e-005
-9.665270e-005,2.262738e-005
-2.842320e-005,-3.858999e-007
3.462021e-005,-2.177852e-005
8.226741e-005,-3.474375e-005
1.075496e-004,-3.425755e-005
1.073875e-004,-2.291298e-005
8.923623e-005,-9.461558e-006
6.832980e-005,-8.720959e-007
5.131294e-005,-6.382317e-006
4.013043e-005,-2.647842e-005
4.483033e-005,-5.662256e-005
7.805372e-005,-8.482193e-005
1.419075e-004,-1.049180e-004
2.357433e-004,-1.139937e-004
3.649094e-004,-1.143178e-004
5.349160e-004,-1.120489e-004
7.295565e-004,-1.146419e-004
9.042631e-004,-1.256624e-004
1.001827e-003,-1.430034e-004
9.841614e-004,-1.639098e-004
8.502954e-004,-1.859507e-004
6.428516e-004,-2.041020e-004
4.255218e-004,-2.131776e-004
2.522740e-004,-2.133397e-004
1.386662e-004,-2.063709e-004
6.265751e-005,-1.955125e-004
-1.108221e-005,-1.861127e-004
-1.037836e-004,-1.861127e-004
-2.105846e-004,-1.958367e-004
-3.131719e-004,-2.123673e-004
-4.032803e-004,-2.272773e-004
-4.815578e-004,-2.355427e-004
-5.478425e-004,-2.387840e-004
-5.822003e-004,-2.455907e-004
-5.561078e-004,-2.627696e-004
-4.506033e-004,-2.883759e-004
-2.778417e-004,-3.113892e-004
-8.547019e-005,-3.206269e-004
7.805372e-005,-3.081479e-004
1.843686e-004,-2.771934e-004
2.269918e-004,-2.368392e-004
2.180782e-004,-1.951884e-004
1.749688e-004,-1.566169e-004
1.112771e-004,-1.246900e-004
4.110282e-005,-1.003802e-004
-2.031993e-005,-8.790117e-005
-6.407757e-005,-8.433573e-005
-7.623246e-005,-8.093236e-005
-5.710876e-005,-6.991193e-005
-2.258885e-005,-4.300908e-005
5.610517e-006,4.313994e-006
7.555301e-006,7.627100e-005
-2.291298e-005,1.741585e-004
-7.833932e-005,2.889007e-004
-1.464067e-004,3.976466e-004
-2.182017e-004,4.681450e-004
-2.870794e-004,4.801379e-004
-3.455850e-004,4.444835e-004
-3.901529e-004,3.947294e-004
-4.193247e-004,3.668542e-004
-4.295348e-004,3.739850e-004
-4.196489e-004,4.073705e-004
-3.875599e-004,4.397836e-004
-3.355370e-004,4.493454e-004
-2.723315e-004,4.279528e-004
-2.076674e-004,3.846814e-004
-1.520790e-004,3.344411e-004
-1.152902e-004,2.876042e-004
-1.044318e-004,2.467637e-004
-1.136696e-004,2.120818e-004
-1.191798e-004,1.853410e-004
-1.029732e-004,1.668655e-004
-6.780507e-005,1.564933e-004
-2.890940e-005,1.509831e-004
-5.479652e-007,1.446626e-004
9.013889e-006,1.326697e-004
-2.330684e-006,1.146805e-004
-2.712668e-005,9.717743e-005
-5.808115e-005,8.502253e-005
-8.028410e-005,7.837785e-005
-5.986387e-005,7.497447e-005
4.256141e-005,7.400208e-005
2.318537e-004,7.351589e-005
4.613383e-004,7.076078e-005
6.588960e-004,5.941620e-005
7.652109e-004,3.721326e-005
7.631041e-004,9.338019e-006
6.747784e-004,-1.383732e-005
5.391297e-004,-2.437157e-005
3.921364e-004,-2.242678e-005
2.537325e-004,-8.489166e-006
1.302388e-004,1.079661e-005
1.630683e-005,2.765140e-005
-9.162867e-005,3.737532e-005
-1.851404e-004,4.045456e-005
-2.426735e-004,3.494434e-005
-2.344082e-004,1.776542e-005
-1.491618e-004,-1.367526e-005
8.689758e-006,-5.516398e-005
2.274780e-004,-9.730096e-005
4.887274e-004,-1.324691e-004
7.556491e-004,-1.571031e-004
9.791374e-004,-1.721751e-004
1.110572e-003,-1.848162e-004
1.127752e-003,-2.003745e-004
1.051257e-003,-2.217671e-004
9.344073e-004,-2.460769e-004
8.259855e-004,-2.724935e-004
7.344186e-004,-2.945344e-004
6.397723e-004,-3.068514e-004
5.188715e-004,-3.062031e-004
3.816021e-004,-2.940482e-004
2.684805e-004,-2.755728e-004
2.187264e-004,-2.538560e-004
2.378501e-004,-2.313290e-004
2.872801e-004,-2.096122e-004
3.075383e-004,-1.903264e-004
2.564877e-004,-1.746061e-004
1.282940e-004,-1.637477e-004
-4.171256e-005,-1.590478e-004
-2.000504e-004,-1.619650e-004
-3.036101e-004,-1.695821e-004
-3.517435e-004,-1.759026e-004
-3.801049e-004,-1.744440e-004
-4.245108e-004,-1.566169e-004
-4.898231e-004,-1.224211e-004
-5.499493e-004,-7.866345e-005
-5.787970e-004,-3.344723e-005
-5.676145e-004,1.209313e-005
-5.241810e-004,5.568870e-005
-4.745890e-004,9.798775e-005
-4.415277e-004,1.376938e-004
-4.280762e-004,1.720516e-004
-4.214316e-004,2.073819e-004
-4.076560e-004,2.477361e-004
-3.707051e-004,2.869559e-004
-3.052308e-004,3.120761e-004
-2.235498e-004,3.240689e-004
-1.446240e-004,3.269861e-004
-7.477388e-005,3.206656e-004
-1.196227e-006,3.021901e-004
8.567078e-005,2.692908e-004
1.812893e-004,2.263435e-004
2.538946e-004,1.799928e-004
2.725321e-004,1.352628e-004
2.412535e-004,9.652917e-005
2.143507e-004,6.427817e-005
2.422259e-004,3.818565e-005
3.295791e-004,2.133085e-005
4.318424e-004,1.549650e-005
5.055821e-004,1.841368e-005
5.227611e-004,2.181705e-005
4.663623e-004,1.938607e-005
3.307136e-004,1.095867e-005
1.351007e-004,3.989864e-006
-7.736692e-005,8.527692e-006
-2.583939e-004,2.797553e-005
-3.765395e-004,5.828175e-005
-4.318037e-004,8.421220e-005
-4.497930e-004,9.101894e-005
-4.695649e-004,7.270556e-005
-5.209396e-004,2.748934e-005
-6.180168e-004,-3.539201e-005
-7.533412e-004,-9.584238e-005
-8.995241e-004,-1.358725e-004
-1.016859e-003,-1.446240e-004
-1.071475e-003,-1.272830e-004
-1.054783e-003,-9.649064e-005
-9.896324e-004,-7.396356e-005
-9.116791e-004,-7.104638e-005
-8.513908e-004,-8.757704e-005
-8.191398e-004,-1.125351e-004
-8.024471e-004,-1.324691e-004
-7.813785e-004,-1.392759e-004
-7.376209e-004,-1.378173e-004
-6.695535e-004,-1.323071e-004
-5.826865e-004,-1.235555e-004
-4.830164e-004,-1.133454e-004
-3.757291e-004,-1.049180e-004
-2.637420e-004,-9.632857e-005
-1.608306e-004,-8.676672e-005
-8.255302e-005,-7.931171e-005
-4.284701e-005,-7.623246e-005
-4.414354e-005,-7.979791e-005
-6.942573e-005,-8.806324e-005
-9.454585e-005,-9.956988e-005
-1.131834e-004,-1.105903e-004
-1.347380e-004,-1.156143e-004
-1.692580e-004,-1.159385e-004
-2.183637e-004,-1.167488e-004
-2.780038e-004,-1.206384e-004
-3.397507e-004,-1.240417e-004
-3.911253e-004,-1.240417e-004
-4.146248e-004,-1.196660e-004
-3.925839e-004,-1.088076e-004
-3.175477e-004,-9.211487e-005
-2.058847e-004,-7.250496e-005
-8.579432e-005,-5.030202e-005
2.716521e-005,-2.258885e-005
1.448246e-004,1.241726e-005
3.052694e-004,5.196120e-005
5.409124e-004,8.923623e-005
8.486747e-004,1.148425e-004
1.181719e-003,1.273216e-004
1.473599e-003,1.266733e-004
1.687850e-003,1.156529e-004
1.839220e-003,1.000946e-004
1.969359e-003,8.793970e-005
2.097553e-003,8.275361e-005
2.194955e-003,8.567078e-005
2.210837e-003,9.831188e-005
2.114084e-003,1.201907e-004
1.912960e-003,1.435281e-004
1.650413e-003,1.589243e-004
1.382681e-003,1.642725e-004
1.153034e-003,1.628139e-004
9.775168e-004,1.610312e-004
8.481885e-004,1.633001e-004
7.350668e-004,1.699448e-004
5.952043e-004,1.786963e-004
4.023465e-004,1.869616e-004
1.633001e-004,1.940925e-004
-8.384954e-005,1.994406e-004
-3.021515e-004,2.044647e-004
-4.886886e-004,2.098128e-004
-6.711741e-004,2.132162e-004
-8.876934e-004,2.112714e-004
-1.147322e-003,1.991165e-004
-1.422833e-003,1.714034e-004
-1.669659e-003,1.284560e-004
-1.845986e-003,7.967438e-005
-1.934149e-003,3.786152e-005
-1.939335e-003,1.565857e-005
-1.881478e-003,1.533444e-005
-1.776298e-003,2.829966e-005
-1.627197e-003,4.628891e-005
-1.440984e-003,6.087479e-005
-1.234189e-003,6.832980e-005
-1.032256e-003,6.638502e-005
-8.466908e-004,5.730935e-005
-6.758740e-004,4.239934e-005
-5.048952e-004,2.100672e-005
-3.204649e-004,-2.978945e-006
-1.182074e-004,-2.210265e-005
9.053275e-005,-2.696461e-005
2.887387e-004,-9.623623e-006
4.589073e-004,2.538249e-005
5.930975e-004,5.990240e-005
6.908230e-004,7.465034e-005
7.545147e-004,5.957827e-005
8.007033e-004,1.873781e-005
8.559676e-004,-3.101625e-005
9.412141e-004,-7.542214e-005
1.047529e-003,-1.049180e-004
1.141689e-003,-1.212866e-004
1.189498e-003,-1.266348e-004
1.177992e-003,-1.266348e-004
1.109114e-003,-1.271210e-004
9.904819e-004,-1.308485e-004
8.425161e-004,-1.358725e-004
6.992503e-004,-1.415448e-004
5.986077e-004,-1.468929e-004
5.577672e-004,-1.465688e-004
5.441537e-004,-1.353863e-004
5.135234e-004,-1.180453e-004
4.477248e-004,-1.037836e-004
3.538890e-004,-1.015147e-004
2.522740e-004,-1.123730e-004
1.726999e-004,-1.285796e-004
1.362352e-004,-1.402483e-004
1.359110e-004,-1.439758e-004
1.409351e-004,-1.407345e-004
1.188942e-004,-1.361966e-004
5.698522e-005,-1.358725e-004
-3.150244e-005,-1.392759e-004
-1.240417e-004,-1.415448e-004
-2.031296e-004,-1.358725e-004
-2.611490e-004,-1.169109e-004
-2.943724e-004,-8.579432e-005
-3.070135e-004,-4.884343e-005
-3.162512e-004,-1.480971e-005
-3.371576e-004,1.355172e-005
-3.702189e-004,3.348575e-005
-4.149489e-004,4.288554e-005
-4.653512e-004,4.158902e-005
-5.091089e-004,3.024445e-005
-5.275843e-004,1.484824e-005
-5.147812e-004,-6.176923e-008
-4.792889e-004,-8.975362e-006
-4.433104e-004,-7.678839e-006
-4.280762e-004,5.934648e-006
-4.436345e-004,2.700314e-005
-4.872300e-004,5.001642e-005
-5.399013e-004,6.995045e-005
-5.796073e-004,8.372601e-005
-5.846313e-004,9.426025e-005
-5.439529e-004,1.088461e-004
-4.648651e-004,1.292664e-004
-3.682741e-004,1.530900e-004
-2.797865e-004,1.782101e-004
-2.139880e-004,2.031682e-004
-1.757406e-004,2.278021e-004
-1.630995e-004,2.467637e-004
-1.784957e-004,2.521119e-004
-2.256567e-004,2.336365e-004
-3.039342e-004,1.921477e-004
-3.972838e-004,1.362352e-004
-4.865818e-004,7.902610e-005
-5.616181e-004,3.640293e-005
-6.206098e-004,1.841368e-005
-6.603158e-004,2.554455e-005
-6.731189e-004,4.790957e-005
-6.486471e-004,7.254349e-005
-5.932208e-004,9.004655e-005
-5.300153e-004,9.426025e-005
-4.796130e-004,8.388807e-005
-4.535205e-004,6.006447e-005
-4.501171e-004,3.105477e-005
-4.538446e-004,6.420843e-006
-4.416897e-004,-9.461558e-006
-4.002010e-004,-1.918548e-005
-3.269475e-004,-2.356124e-005
-2.314910e-004,-1.837515e-005
-1.302002e-004,-2.238346e-007
-3.247483e-005,2.927205e-005
5.406805e-005,5.520250e-005
1.203528e-004,6.184718e-005
1.571416e-004,4.402000e-005
1.644345e-004,5.610517e-006
1.547106e-004,-4.381940e-005
1.451488e-004,-9.260107e-005
1.467694e-004,-1.293899e-004
1.610312e-004,-1.496481e-004
1.853410e-004,-1.491618e-004
2.221298e-004,-1.274451e-004
2.884145e-004,-8.757704e-005
4.018603e-004,-4.155049e-005
5.720290e-004,-6.220252e-006
7.759072e-004,2.045080e-006
9.566103e-004,-1.983374e-005
1.042181e-003,-6.375344e-005
9.942095e-004,-1.154523e-004
8.405714e-004,-1.661787e-004
6.668373e-004,-2.109087e-004
5.624671e-004,-2.418632e-004
5.764047e-004,-2.504527e-004
7.062191e-004,-2.410529e-004
9.096113e-004,-2.241981e-004
1.120134e-003,-2.143121e-004
1.279607e-003,-2.130156e-004
1.357398e-003,-2.096122e-004
1.342164e-003,-1.953505e-004
1.239577e-003,-1.679614e-004
1.066977e-003,-1.345760e-004
8.485126e-004,-1.063766e-004
6.149763e-004,-9.017008e-005
3.947294e-004,-8.514606e-005
2.047888e-004,-8.611845e-005
5.196120e-005,-8.611845e-005
-6.326724e-005,-7.623246e-005
-1.417068e-004,-4.949169e-005
-1.887058e-004,-4.761664e-006
-2.169052e-004,4.904402e-005
-2.426735e-004,9.685330e-005
-2.780038e-004,1.260251e-004
-3.225718e-004,1.318594e-004
-3.614674e-004,1.205148e-004
-3.768636e-004,1.036600e-004
-3.616295e-004,9.620504e-005
-3.275957e-004,1.039842e-004
-2.893484e-004,1.245665e-004
-2.464010e-004,1.470936e-004
-1.961608e-004,1.668655e-004
-1.493239e-004,1.867996e-004
-1.203142e-004,2.068957e-004
-1.086455e-004,2.248849e-004
-9.940781e-005,2.360674e-004
-7.574627e-005,2.372019e-004
-3.717473e-005,2.276400e-004
-1.034161e-006,2.078681e-004
1.403791e-005,1.825859e-004
5.610517e-006,1.564933e-004
-6.058186e-006,1.346145e-004
7.393236e-006,1.216493e-004
6.914012e-005,1.205148e-004
1.811273e-004,1.294284e-004
3.195311e-004,1.432040e-004
4.483731e-004,1.581140e-004
5.328091e-004,1.712413e-004
5.530673e-004,1.827479e-004
5.046097e-004,1.979821e-004
3.989431e-004,2.203471e-004
2.566497e-004,2.446569e-004
1.047945e-004,2.621599e-004
-3.701266e-005,2.624841e-004
-1.622891e-004,2.334744e-004
-2.689281e-004,1.773998e-004
-3.570916e-004,1.088461e-004
-4.249970e-004,4.645098e-005
-4.684305e-004,4.244267e-007
-4.841508e-004,-2.534396e-005
-4.784786e-004,-3.555408e-005
-4.684305e-004,-3.895745e-005
-4.713477e-004,-4.203669e-005
-4.911196e-004,-5.078821e-005
-5.170500e-004,-6.537409e-005
-5.316359e-004,-8.692878e-005
-5.240189e-004,-1.157764e-004
-4.969540e-004,-1.464067e-004
-4.640547e-004,-1.713648e-004
-4.387725e-004,-1.872472e-004
-4.275900e-004,-1.938919e-004
-4.285624e-004,-1.971332e-004
-4.358554e-004,-1.955125e-004
-4.416897e-004,-1.818991e-004
-4.436345e-004,-1.511067e-004
-4.467137e-004,-1.112386e-004
-4.583824e-004,-7.688073e-005
-4.799371e-004,-6.245691e-005
-4.998712e-004,-6.472583e-005
-5.100812e-004,-7.558420e-005
-5.086227e-004,-8.611845e-005
-4.943609e-004,-8.239095e-005
-4.661616e-004,-5.597430e-005
-4.245108e-004,-1.140634e-005
-3.604950e-004,3.105477e-005
-2.617972e-004,4.645098e-005
-1.191798e-004,1.906194e-005
5.828175e-005,-4.317115e-005
2.401191e-004,-1.125351e-004
3.911640e-004,-1.653684e-004
4.875929e-004,-1.904885e-004
5.235714e-004,-1.925954e-004
5.041235e-004,-1.861127e-004
4.381629e-004,-1.840059e-004
3.396272e-004,-1.867610e-004
2.240746e-004,-1.833576e-004
1.051186e-004,-1.575893e-004
-8.813297e-006,-1.005423e-004
-1.118868e-004,-1.837515e-005
-1.904885e-004,6.849186e-005
-2.365151e-004,1.406109e-004
-2.499665e-004,1.843686e-004
-2.483458e-004,2.015475e-004
-2.567732e-004,2.002510e-004
-2.974516e-004,1.895547e-004
-3.778360e-004,1.746447e-004
-4.860956e-004,1.597346e-004
-5.933828e-004,1.483901e-004
-6.650157e-004,1.414213e-004
-6.760361e-004,1.391524e-004
-6.175305e-004,1.389903e-004
-5.047331e-004,1.386662e-004
-3.651949e-004,1.325077e-004
-2.209568e-004,1.159770e-004
-8.044617e-005,8.745350e-005
5.828175e-005,4.855783e-005
2.012234e-004,4.800190e-006
3.566440e-004,-3.652646e-005
5.271368e-004,-7.623246e-005
7.159431e-004,-1.125351e-004
9.332729e-004,-1.392759e-004
1.196305e-003,-1.530514e-004
1.513306e-003,-1.571031e-004
1.866447e-003,-1.538618e-004
2.212944e-003,-1.454344e-004
2.501583e-003,-1.314967e-004
2.687798e-003,-1.128592e-004
2.741766e-003,-8.790117e-005
2.661057e-003,-5.192267e-005
2.463498e-003,9.013889e-006
2.174534e-003,1.028497e-004
1.816369e-003,2.206712e-004
1.412339e-003,3.438409e-004
9.838373e-004,4.486972e-004
5.665187e-004,5.148199e-004
2.023578e-004,5.313505e-004
-7.574627e-005,5.003960e-004
-2.570974e-004,4.290873e-004
-3.538503e-004,3.393030e-004
-4.036044e-004,2.527602e-004
-4.533584e-004,1.806411e-004
-5.330946e-004,1.248906e-004
-6.416783e-004,8.129502e-005
-7.635514e-004,4.661304e-005
-8.748902e-004,1.387585e-005
-9.515471e-004,-2.712668e-005
-9.745604e-004,-8.077030e-005
-9.411749e-004,-1.452723e-004
-8.771592e-004,-2.136638e-004
-8.202742e-004,-2.791382e-004
-8.019609e-004,-3.324577e-004
-8.317808e-004,-3.666535e-004
-8.969311e-004,-3.804291e-004
-9.774775e-004,-3.797808e-004
-1.058024e-003,-3.728119e-004
-1.124471e-003,-3.668155e-004
-1.163529e-003,-3.647087e-004
-1.166446e-003,-3.645466e-004
-1.132574e-003,-3.561192e-004
-1.067424e-003,-3.303509e-004
-9.825015e-004,-2.771934e-004
-8.880175e-004,-1.929195e-004
-7.893197e-004,-8.579432e-005
-6.833291e-004,1.582063e-005
-5.682627e-004,8.226741e-005
-4.496309e-004,9.701536e-005
-3.420196e-004,6.476436e-005
-2.556388e-004,9.662150e-006
-1.903264e-004,-4.738484e-005
-1.376552e-004,-9.081835e-005
-9.292520e-005,-1.186936e-004
-5.824322e-005,-1.326312e-004
-3.960571e-005,-1.361966e-004
-4.284701e-005,-1.271210e-004
-7.234290e-005,-1.037836e-004
-1.198280e-004,-6.926366e-005
-1.665028e-004,-2.858527e-005
-1.958367e-004,1.290346e-005
-2.047502e-004,4.758544e-005
-1.959987e-004,7.092284e-005
-1.684476e-004,8.388807e-005
-1.253383e-004,8.761557e-005
-8.190475e-005,8.372601e-005
-5.613637e-005,7.481241e-005
-5.321920e-005,5.974033e-005
-5.257093e-005,4.077869e-005
-2.064406e-005,2.197911e-005
5.698522e-005,4.313994e-006
1.665414e-004,-7.516774e-006
2.830664e-004,-1.318906e-005
3.848434e-004,-1.092015e-005
4.542074e-004,2.531276e-006
4.804620e-004,2.829966e-005
4.582590e-004,6.541262e-005
3.911640e-004,1.059290e-004
2.929524e-004,1.415833e-004
1.872858e-004,1.673517e-004
1.012291e-004,1.825859e-004
5.196120e-005,1.900409e-004
3.688912e-005,1.937684e-004
4.207521e-005,1.893926e-004
4.369587e-005,1.726999e-004
2.505836e-005,1.423936e-004
-2.015787e-005,1.049566e-004
-8.222889e-005,6.914012e-005
-1.454344e-004,4.726130e-005
-1.963229e-004,4.645098e-005
-2.241981e-004,6.379197e-005
-2.235498e-004,8.664318e-005
-1.982676e-004,1.028497e-004
-1.627754e-004,1.056048e-004
-1.336036e-004,9.523264e-005
-1.169109e-004,7.708133e-005
-1.042698e-004,5.941620e-005
-9.130454e-005,5.828175e-005
-8.109443e-005,9.134307e-005
-8.271508e-005,1.605450e-004
-1.031353e-004,2.491947e-004
-1.434896e-004,3.286068e-004
-2.000504e-004,3.697714e-004
-2.541802e-004,3.602095e-004
-2.686040e-004,3.039728e-004
-2.057227e-004,2.208333e-004
-4.965376e-005,1.325077e-004
1.731861e-004,5.649903e-005
4.096394e-004,-2.168618e-006
6.039558e-004,-4.219875e-005
7.209671e-004,-6.537409e-005
7.468975e-004,-7.931171e-005
6.911471e-004,-9.065628e-005
5.742979e-004,-9.956988e-005
4.277907e-004,-1.007043e-004
2.783665e-004,-8.935975e-005
1.391524e-004,-6.342931e-005
1.452411e-005,-2.826114e-005
-9.341139e-005,6.582909e-006
-1.801163e-004,3.332369e-005
-2.462390e-004,4.661304e-005
-2.979378e-004,4.499239e-005
-3.465574e-004,3.364782e-005
-4.040906e-004,2.343770e-005
-4.805854e-004,2.116879e-005
-5.695592e-004,2.424803e-005
-6.512401e-004,2.424803e-005
-7.058561e-004,1.792748e-005
-7.147697e-004,3.179537e-006
-6.575607e-004,-1.918548e-005
-5.160777e-004,-5.111234e-005
-2.938862e-004,-9.017008e-005
-3.020592e-005,-1.292278e-004
2.171058e-004,-1.598582e-004
4.063981e-004,-1.749302e-004
5.366987e-004,-1.746061e-004
6.349103e-004,-1.695821e-004
7.409012e-004,-1.731475e-004
8.877325e-004,-1.912988e-004
1.077187e-003,-2.160948e-004
1.277986e-003,-2.321393e-004
1.439890e-003,-2.323013e-004
1.521733e-003,-2.141500e-004
1.515088e-003,-1.857886e-004
1.442807e-003,-1.596961e-004
1.334871e-003,-1.410586e-004
1.207002e-003,-1.287416e-004
1.057577e-003,-1.173971e-004
8.778464e-004,-1.002181e-004
6.678096e-004,-7.720486e-005
4.360561e-004,-5.273300e-005
2.005751e-004,-3.004385e-005
-9.623623e-006,-7.030578e-006
-1.580754e-004,2.619281e-005
-2.232257e-004,7.967438e-005
-2.301945e-004,1.530900e-004
-2.421874e-004,2.279642e-004
-3.162512e-004,2.827423e-004
-4.689167e-004,3.018659e-004
-6.711741e-004,2.854973e-004
-8.612768e-004,2.466017e-004
-9.792603e-004,1.966855e-004
-9.925497e-004,1.482280e-004
-9.063309e-004,1.072255e-004
-7.415105e-004,7.627100e-005
-5.222362e-004,5.763349e-005
-2.669833e-004,5.147500e-005
9.824215e-006,5.633696e-005
2.853353e-004,6.460230e-005
5.276231e-004,6.703327e-005
7.151327e-004,5.374392e-005
8.439748e-004,2.165498e-005
9.138250e-004,-2.275091e-005
9.193352e-004,-6.812920e-005
8.629364e-004,-1.024871e-004
7.661834e-004,-1.161005e-004
6.684579e-004,-1.081593e-004
5.939078e-004,-8.368748e-005
5.439916e-004,-4.722278e-005
4.927790e-004,-4.275467e-006
4.062361e-004,3.089271e-005
2.699391e-004,4.596478e-005
9.896015e-005,3.267542e-005
-6.618442e-005,-4.113403e-006
-1.844921e-004,-4.560212e-005
-2.305186e-004,-6.942573e-005
-1.882196e-004,-6.099833e-005
-6.602235e-005,-2.356124e-005
9.636710e-005,2.489629e-005
2.318537e-004,5.909208e-005
2.718839e-004,6.168512e-005
1.775618e-004,3.121684e-005
-3.198864e-005,-1.837515e-005
-2.927517e-004,-7.688073e-005
-5.223983e-004,-1.358725e-004
-6.625847e-004,-1.877334e-004
-6.967805e-004,-2.220912e-004
-6.612882e-004,-2.303566e-004
-6.178547e-004,-2.125294e-004
-6.219063e-004,-1.776853e-004
-6.948357e-004,-1.361966e-004
-8.180053e-004,-9.243900e-005
-9.552746e-004,-4.835724e-005
-1.065317e-003,-7.354709e-006
-1.125605e-003,2.457216e-005
-1.139705e-003,4.726130e-005
-1.137274e-003,5.876794e-005
-1.153480e-003,5.730935e-005
-1.201290e-003,4.807163e-005
-1.254123e-003,3.575467e-005
-1.263199e-003,2.343770e-005
-1.197400e-003,1.176900e-005
-1.059969e-003,2.045080e-006
-8.781315e-004,-4.923729e-006
-6.796016e-004,-7.030578e-006
-4.817198e-004,-4.923729e-006
-2.977757e-004,-1.358292e-006
-1.446240e-004,1.072688e-006
-3.668853e-005,1.558884e-006
2.343770e-005,-1.358292e-006
4.564065e-005,-9.623623e-006
4.256141e-005,-2.194059e-005
2.716521e-005,-3.312309e-005
1.355172e-005,-3.717473e-005
1.598270e-005,-3.279896e-005
4.709924e-005,-2.485776e-005
1.150046e-004,-1.578211e-005
2.122438e-004,-4.599598e-006
3.172622e-004,8.851824e-006
4.029947e-004,2.376183e-005
4.605280e-004,3.818565e-005
5.031512e-004,5.034055e-005
5.542018e-004,5.893001e-005
6.187038e-004,6.881599e-005
6.752646e-004,8.437427e-005
6.934160e-004,1.056048e-004
6.608408e-004,1.260251e-004
5.833735e-004,1.401247e-004
4.846757e-004,1.445005e-004
3.816021e-004,1.414213e-004
2.799871e-004,1.362352e-004
1.764274e-004,1.360731e-004
7.384002e-005,1.451488e-004
-2.048200e-005,1.618415e-004
-9.875954e-005,1.819376e-004
-1.512687e-004,2.002510e-004
-1.721751e-004,2.093267e-004
-1.626133e-004,2.015475e-004
-1.316588e-004,1.759412e-004
-9.924574e-005,1.372076e-004
-8.887356e-005,9.750156e-005
-1.097800e-004,6.897806e-005
-1.643960e-004,5.860588e-005
-2.501286e-004,6.200925e-005
-3.483401e-004,6.995045e-005
-4.267797e-004,7.643307e-005
-4.556273e-004,7.384002e-005
-4.180282e-004,5.747142e-005
-3.193304e-004,2.910999e-005
-1.810887e-004,-5.571990e-006
-3.312309e-005,-3.895745e-005
9.231547e-005,-6.845333e-005
1.702689e-004,-9.195280e-005
1.936063e-004,-1.101041e-004
1.759412e-004,-1.220970e-004
1.454729e-004,-1.311726e-004
1.295905e-004,-1.408965e-004
1.422316e-004,-1.545100e-004
1.825859e-004,-1.687718e-004
2.375260e-004,-1.749302e-004
2.882525e-004,-1.629374e-004
3.203414e-004,-1.300382e-004
3.239069e-004,-8.077030e-005
2.968419e-004,-2.372331e-005
2.402811e-004,2.570662e-005
1.696206e-004,5.001642e-005
1.128978e-004,4.515445e-005
9.652917e-005,1.971020e-005
1.372076e-004,-1.237873e-005
2.402811e-004,-3.960571e-005
3.963501e-004,-5.370539e-005
5.757565e-004,-4.949169e-005
7.430080e-004,-3.004385e-005
8.674743e-004,-5.571990e-006
9.196594e-004,1.436204e-005
8.776844e-004,2.019640e-005
7.421977e-004,3.503668e-006
5.491778e-004,-3.766092e-005
3.626405e-004,-9.341139e-005
2.467637e-004,-1.520790e-004
2.357433e-004,-2.024813e-004
3.235827e-004,-2.339220e-004
4.704139e-004,-2.405667e-004
6.180556e-004,-2.238740e-004
7.164293e-004,-1.932436e-004
7.409012e-004,-1.622891e-004
6.979538e-004,-1.400862e-004
6.247002e-004,-1.290658e-004
5.584154e-004,-1.276072e-004
5.059062e-004,-1.344139e-004
4.652279e-004,-1.478653e-004
4.389733e-004,-1.571031e-004
4.326527e-004,-1.460826e-004
4.352458e-004,-1.054042e-004
4.250357e-004,-3.911951e-005
3.867882e-004,3.040651e-005
3.136967e-004,7.935024e-005
2.054371e-004,9.442231e-005
7.789165e-005,8.323981e-005
-4.284701e-005,6.784360e-005
-1.298761e-004,7.335383e-005
-1.729855e-004,1.222976e-004
-1.833576e-004,2.179161e-004
-1.838438e-004,3.415720e-004
-2.026434e-004,4.576108e-004
-2.545043e-004,5.318367e-004
-3.418575e-004,5.422090e-004
-4.504412e-004,4.947237e-004
-5.552975e-004,4.148255e-004
-6.330888e-004,3.320101e-004
-6.802498e-004,2.675081e-004
-7.097457e-004,2.284504e-004
-7.368106e-004,2.135403e-004
-7.659824e-004,2.096508e-004
-7.881853e-004,2.073819e-004
-7.872129e-004,2.013854e-004
-7.466965e-004,1.902029e-004
-6.633950e-004,1.741585e-004
-5.587008e-004,1.537382e-004
-4.600031e-004,1.308870e-004
-3.796187e-004,1.075496e-004
-3.185201e-004,8.145709e-005
-2.833519e-004,5.406805e-005
-2.771934e-004,2.878586e-005
-2.964792e-004,9.986281e-006
-3.194925e-004,-1.358292e-006
-3.287302e-004,-9.623623e-006
-3.240303e-004,-1.983374e-005
-3.181960e-004,-3.085418e-005
-3.262992e-004,-4.187462e-005
-3.517435e-004,-5.483985e-005
-3.912874e-004,-6.715681e-005
-4.368278e-004,-7.299116e-005
-4.822060e-004,-7.039812e-005
-5.228845e-004,-6.375344e-005
-5.564319e-004,-5.986387e-005
-5.750695e-004,-6.002594e-005
-5.721523e-004,-6.537409e-005
-5.603215e-004,-7.477388e-005
-5.638869e-004,-8.692878e-005
-6.024585e-004,-1.039456e-004
-6.736051e-004,-1.284175e-004
-7.526930e-004,-1.632615e-004
-8.099020e-004,-2.113949e-004
-8.351842e-004,-2.668213e-004
-8.358325e-004,-3.198166e-004
-8.133054e-004,-3.611433e-004
-7.546378e-004,-3.830221e-004
-6.544815e-004,-3.864254e-004
-5.146191e-004,-3.776739e-004
-3.410472e-004,-3.624398e-004
-1.441378e-004,-3.382920e-004
5.795762e-005,-3.029619e-004
2.466017e-004,-2.551526e-004
4.078567e-004,-1.966470e-004
5.410745e-004,-1.386276e-004
6.535479e-004,-9.713889e-005
7.540284e-004,-7.736692e-005
8.478644e-004,-7.558420e-005
9.365142e-004,-7.720486e-005
1.015764e-003,-6.942573e-005
1.075728e-003,-4.252288e-005
1.110572e-003,4.638125e-006
1.118514e-003,6.395404e-005
1.102145e-003,1.258630e-004
1.071353e-003,1.767515e-004
1.035050e-003,2.017096e-004
9.984232e-004,1.965235e-004
9.582310e-004,1.673517e-004
9.002115e-004,1.261871e-004
8.070238e-004,8.810177e-005
6.775336e-004,6.395404e-005
5.269747e-004,5.649903e-005
3.769022e-004,6.217132e-005
2.469258e-004,7.902610e-005
1.506590e-004,1.056048e-004
9.490851e-005,1.420695e-004
7.254349e-005,1.908512e-004
6.346784e-005,2.550291e-004
4.499239e-005,3.286068e-004
1.160693e-005,3.924605e-004
-3.134038e-005,4.284390e-004
-8.644259e-005,4.281149e-004
-1.642339e-004,3.952156e-004
-2.645523e-004,3.444891e-004
-3.708672e-004,2.918179e-004
-4.596790e-004,2.440086e-004
-5.155915e-004,2.013854e-004
-5.335807e-004,1.691344e-004
-5.186707e-004,1.490383e-004
-4.812336e-004,1.401247e-004
-4.352071e-004,1.359110e-004
-3.901529e-004,1.265113e-004
-3.570916e-004,1.052807e-004
-3.399127e-004,7.367795e-005
-3.348887e-004,3.640293e-005
-3.366714e-004,-5.085794e-006
-3.394265e-004,-5.111234e-005
-3.345645e-004,-1.002181e-004
-3.136581e-004,-1.511067e-004
-2.799486e-004,-2.008607e-004
-2.455907e-004,-2.488320e-004
-2.178775e-004,-2.922655e-004
-1.896782e-004,-3.203028e-004
-1.494860e-004,-3.243544e-004
-8.368748e-005,-2.998826e-004
1.549650e-005,-2.501286e-004
1.493625e-004,-1.791439e-004
3.167760e-004,-9.746302e-005
5.075270e-004,-1.335113e-005
6.950366e-004,6.444023e-005
8.459196e-004,1.253768e-004
9.363521e-004,1.616794e-004
9.710342e-004,1.699448e-004
9.755720e-004,1.511452e-004
9.655239e-004,1.150046e-004
9.415382e-004,7.238143e-005
9.036149e-004,3.397195e-005
8.613158e-004,6.907040e-006
8.261476e-004,-9.785688e-006
7.969757e-004,-2.372331e-005
7.567836e-004,-3.766092e-005
6.846645e-004,-5.370539e-005
5.705704e-004,-7.039812e-005
4.247115e-004,-8.255302e-005
2.701012e-004,-8.935975e-005
1.281319e-004,-9.146661e-005
6.420843e-006,-9.454585e-005
-9.811128e-005,-9.746302e-005
-1.945401e-004,-1.034594e-004
-2.942103e-004,-1.144799e-004
-4.018217e-004,-1.331174e-004
-5.128364e-004,-1.571031e-004
-6.181788e-004,-1.838438e-004
-7.052079e-004,-2.136638e-004
-7.687375e-004,-2.421874e-004
-8.199501e-004,-2.629317e-004
-8.667869e-004,-2.703867e-004
-9.034137e-004,-2.643903e-004
-9.225374e-004,-2.483458e-004
-9.202685e-004,-2.237119e-004
-8.930415e-004,-1.981056e-004
-8.478253e-004,-1.820611e-004
-7.962886e-004,-1.822232e-004
-7.434553e-004,-1.950263e-004
-6.865704e-004,-2.122053e-004
-6.176926e-004,-2.209568e-004
-5.240189e-004,-2.110708e-004
-4.021458e-004,-1.815749e-004
-2.658489e-004,-1.336036e-004
-1.451102e-004,-7.153257e-005
-6.618442e-005,-4.275467e-006
-3.409549e-005,5.439218e-005
-3.539201e-005,9.069481e-005
-4.608832e-005,1.009049e-004
-4.446767e-005,9.344993e-005
-1.675450e-005,8.178122e-005
3.607880e-005,8.129502e-005
1.085220e-004,1.009049e-004
1.981441e-004,1.368834e-004
3.132105e-004,1.793446e-004
4.676588e-004,2.164575e-004
6.708889e-004,2.444948e-004
9.180387e-004,2.660495e-004
1.184474e-003,2.850112e-004
1.435352e-003,3.004074e-004
1.626914e-003,3.101313e-004
1.723019e-003,3.145071e-004
1.698385e-003,3.187208e-004
1.552201e-003,3.290929e-004
1.308941e-003,3.412479e-004
1.012037e-003,3.425444e-004
7.021675e-004,3.248792e-004
4.046154e-004,2.908455e-004
1.282940e-004,2.513016e-004
-1.282554e-004,2.138645e-004
-3.609812e-004,1.825859e-004
-5.561078e-004,1.613553e-004
-6.964564e-004,1.539003e-004
-7.820268e-004,1.631380e-004
-8.338877e-004,1.850168e-004
-8.794281e-004,2.106232e-004
-9.324234e-004,2.290986e-004
-9.854188e-004,2.313675e-004
-1.022532e-003,2.179161e-004
-1.036307e-003,1.910133e-004
-1.028528e-003,1.574657e-004
-1.012322e-003,1.229458e-004
-9.943324e-004,8.956036e-005
-9.677536e-004,5.795762e-005
-9.152445e-004,2.927205e-005
-8.308084e-004,4.800190e-006
-7.214144e-004,-1.480971e-005
-6.040792e-004,-3.101625e-005
-5.008436e-004,-4.495386e-005
-4.308313e-004,-5.872941e-005
-3.995528e-004,-7.412562e-005
-3.875599e-004,-9.227693e-005
-3.574158e-004,-1.104282e-004
-2.686040e-004,-1.287416e-004
-9.405965e-005,-1.451102e-004
1.586002e-004,-1.606685e-004
4.391353e-004,-1.754164e-004
6.773715e-004,-1.888679e-004
8.068618e-004,-1.964849e-004
7.956792e-004,-1.927574e-004
6.619753e-004,-1.776853e-004
4.673347e-004,-1.569410e-004
2.936006e-004,-1.391138e-004
2.117576e-004,-1.274451e-004
2.487085e-004,-1.246900e-004
3.715541e-004,-1.326312e-004
5.230852e-004,-1.524032e-004
6.545202e-004,-1.817370e-004
7.344186e-004,-2.147983e-004
7.374978e-004,-2.444563e-004
6.563030e-004,-2.663351e-004
5.044477e-004,-2.776796e-004
3.159656e-004,-2.767073e-004
1.370455e-004,-2.676316e-004
-1.196227e-006,-2.541802e-004
-8.320128e-005,-2.363530e-004
-1.028112e-004,-2.138259e-004
-6.764301e-005,-1.912988e-004
-8.975362e-006,-1.757406e-004
2.943412e-005,-1.652063e-004
2.149292e-005,-1.473791e-004
-2.777494e-005,-1.110765e-004
-8.725291e-005,-5.176061e-005
-1.151281e-004,2.473423e-005
-8.887356e-005,1.026876e-004
-1.950961e-005,1.626518e-004
5.990240e-005,1.902029e-004
1.229458e-004,1.816135e-004
1.511452e-004,1.474177e-004
1.329939e-004,1.034980e-004
7.238143e-005,6.168512e-005
-1.399939e-005,2.765140e-005
-1.002181e-004,-1.844488e-006
-1.703924e-004,-2.485776e-005
-2.182017e-004,-3.976777e-005
-2.428356e-004,-4.770897e-005
-2.413770e-004,-4.462973e-005
-2.204706e-004,-2.761287e-005
-1.882196e-004,2.855407e-006
-1.541859e-004,4.288554e-005
-1.284175e-004,8.502253e-005
-1.203142e-004,1.245665e-004
-1.381414e-004,1.600588e-004
-1.793060e-004,1.867996e-004
-2.266291e-004,2.052750e-004
-2.549905e-004,2.222919e-004
-2.496423e-004,2.435224e-004
-2.175534e-004,2.673460e-004
-1.799543e-004,2.853353e-004
-1.566169e-004,2.880904e-004
-1.619650e-004,2.686426e-004
-2.083157e-004,2.315296e-004
-2.836761e-004,1.911753e-004
-3.535262e-004,1.603829e-004
-3.867496e-004,1.415833e-004
-3.802670e-004,1.323456e-004
-3.643846e-004,1.334801e-004
-3.775118e-004,1.398006e-004
-4.381243e-004,1.438522e-004
-5.390910e-004,1.432040e-004
-6.554538e-004,1.407730e-004
-7.632272e-004,1.352628e-004
-8.453943e-004,1.224596e-004
-8.927174e-004,9.847395e-005
-9.001724e-004,6.508849e-005
-8.663007e-004,2.327564e-005
-7.907783e-004,-2.307504e-005
-6.742534e-004,-7.201877e-005
-5.321222e-004,-1.212866e-004
-3.846427e-004,-1.666649e-004
-2.397564e-004,-2.028055e-004
-9.081835e-005,-2.259808e-004
7.238143e-005,-2.329496e-004
2.563256e-004,-2.253326e-004
4.653899e-004,-2.062088e-004
7.011951e-004,-1.793060e-004
9.561241e-004,-1.501342e-004
1.207812e-003,-1.256624e-004
1.426438e-003,-1.096179e-004
1.588990e-003,-9.924574e-005
1.682178e-003,-8.854943e-005
1.703571e-003,-7.153257e-005
1.656248e-003,-5.046408e-005
1.548312e-003,-3.441962e-005
1.395160e-003,-2.680255e-005
1.221263e-003,-3.069211e-005
1.052553e-003,-4.365734e-005
9.063699e-004,-5.889148e-005
7.882243e-004,-7.250496e-005
6.883920e-004,-8.660465e-005
5.939078e-004,-1.037836e-004
4.911583e-004,-1.229073e-004
3.749574e-004,-1.361966e-004
2.686426e-004,-1.407345e-004
2.164575e-004,-1.331174e-004
2.441707e-004,-1.136696e-004
3.153174e-004,-8.725291e-005
3.399513e-004,-6.051213e-005
2.466017e-004,-3.636440e-005
3.624086e-005,-1.562004e-005
-2.276015e-004,-8.720959e-007
-4.570859e-004,1.144487e-005
-5.877105e-004,2.635488e-005
-5.907898e-004,4.969229e-005
-4.802613e-004,8.129502e-005
-3.102548e-004,1.145184e-004
-1.447861e-004,1.394765e-004
-2.696461e-005,1.496866e-004
2.230325e-005,1.427178e-004
8.527692e-006,1.242423e-004
-4.009191e-005,1.051186e-004
-9.033215e-005,9.523264e-005
-1.161005e-004,9.814982e-005
-1.073490e-004,1.080358e-004
-7.428769e-005,1.195424e-004
-3.555408e-005,1.278078e-004
-9.137427e-006,1.347766e-004
-7.030578e-006,1.464453e-004
-3.409549e-005,1.668655e-004
-8.336335e-005,1.879340e-004
-1.352242e-004,1.992786e-004
-1.660166e-004,1.966855e-004
-1.481895e-004,1.858272e-004
-7.542214e-005,1.746447e-004
2.765140e-005,1.683241e-004
1.070634e-004,1.684862e-004
1.112771e-004,1.726999e-004
2.311357e-005,1.752929e-004
-1.336036e-004,1.741585e-004
-3.100927e-004,1.710792e-004
-4.548170e-004,1.720516e-004
-5.376324e-004,1.756171e-004
-5.562698e-004,1.773998e-004
-5.280706e-004,1.744826e-004
-4.825302e-004,1.649207e-004
-4.447690e-004,1.482280e-004
-4.259694e-004,1.252147e-004
-4.251591e-004,9.442231e-005
-4.420138e-004,5.439218e-005
-4.800992e-004,1.128280e-005
-5.423322e-004,-2.939559e-005
-6.266062e-004,-6.586029e-005
-7.293556e-004,-9.470791e-005
-8.415048e-004,-1.126972e-004
-9.525195e-004,-1.195039e-004
-1.047976e-003,-1.162626e-004
-1.118150e-003,-1.092938e-004
-1.161422e-003,-1.081593e-004
-1.178438e-003,-1.185315e-004
-1.175521e-003,-1.371690e-004
-1.168391e-003,-1.571031e-004
-1.159153e-003,-1.746061e-004
-1.132088e-003,-1.833576e-004
-1.067910e-003,-1.767130e-004
-9.528436e-004,-1.527273e-004
-7.875370e-004,-1.251762e-004
-5.775004e-004,-1.128592e-004
-3.269475e-004,-1.277692e-004
-5.159854e-005,-1.613168e-004
2.164575e-004,-1.947022e-004
4.394595e-004,-2.138259e-004
5.973112e-004,-2.112329e-004
6.955228e-004,-1.874093e-004
7.501388e-004,-1.535376e-004
7.773659e-004,-1.248521e-004
7.854691e-004,-1.071869e-004
7.838485e-004,-9.875954e-005
7.913035e-004,-9.600444e-005
8.347370e-004,-9.778715e-005
9.318143e-004,-1.067007e-004
1.075566e-003,-1.199901e-004
1.229205e-003,-1.292278e-004
1.338113e-003,-1.287416e-004
1.366798e-003,-1.177212e-004
1.310237e-003,-9.924574e-005
1.184150e-003,-8.028410e-005
1.015116e-003,-6.488790e-005
8.378163e-004,-6.002594e-005
6.903367e-004,-6.942573e-005
6.005525e-004,-9.389759e-005
5.773771e-004,-1.285796e-004
6.091419e-004,-1.671511e-004
6.603546e-004,-2.052365e-004
6.801266e-004,-2.376495e-004
6.266450e-004,-2.593663e-004
4.987754e-004,-2.664971e-004
3.318480e-004,-2.562870e-004
1.704310e-004,-2.311669e-004
4.774750e-005,-1.921092e-004
-2.437157e-005,-1.381414e-004
-5.581224e-005,-7.428769e-005
-7.914964e-005,-1.156841e-005
-1.355484e-004,4.272347e-005
-2.425115e-004,8.842590e-005
-3.844807e-004,1.297526e-004
-5.267740e-004,1.799928e-004
-6.262821e-004,2.472499e-004
-6.522125e-004,3.196932e-004
-5.909518e-004,3.691231e-004
-4.415277e-004,3.807918e-004
-2.295462e-004,3.597233e-004
-1.124428e-005,3.282826e-004
1.427178e-004,3.077003e-004
1.842065e-004,3.083486e-004
1.184080e-004,3.227724e-004
-1.682422e-006,3.349273e-004
-1.154523e-004,3.324963e-004
-1.831956e-004,3.132105e-004
-1.990780e-004,2.889007e-004
-1.857886e-004,2.786906e-004
-1.692580e-004,2.884145e-004
-1.512687e-004,3.072141e-004
-1.024871e-004,3.216380e-004
6.907040e-006,3.175863e-004
1.710792e-004,2.877662e-004
3.572923e-004,2.384984e-004
5.175750e-004,1.824238e-004
6.153004e-004,1.351007e-004
6.357207e-004,1.065772e-004
5.819149e-004,9.928428e-005
4.650658e-004,1.025256e-004
3.025142e-004,1.052807e-004
1.206769e-004,9.879808e-005
-5.159854e-005,8.194328e-005
-1.945401e-004,5.649903e-005
-3.068514e-004,2.505836e-005
-3.924218e-004,-8.165035e-006
-4.527101e-004,-4.219875e-005
-4.869059e-004,-7.720486e-005
-4.932265e-004,-1.175591e-004
-4.775062e-004,-1.622891e-004
-4.544929e-004,-2.044261e-004
-4.366657e-004,-2.311669e-004
-4.240246e-004,-2.391081e-004
-4.120317e-004,-2.331117e-004
-4.014975e-004,-2.212809e-004
-3.932322e-004,-2.120432e-004
-3.904771e-004,-2.094502e-004
-3.933943e-004,-2.113949e-004
-4.013355e-004,-2.141500e-004
-4.146248e-004,-2.141500e-004
-4.298589e-004,-2.081536e-004
-4.420138e-004,-1.940539e-004
-4.502792e-004,-1.724993e-004
-4.559515e-004,-1.473791e-004
-4.627582e-004,-1.285796e-004
-4.681064e-004,-1.246900e-004
-4.596790e-004,-1.366828e-004
-4.220798e-004,-1.582375e-004
-3.418575e-004,-1.802784e-004
-2.139880e-004,-1.953505e-004
-4.900550e-005,-2.002124e-004
1.407730e-004,-2.013469e-004
3.457857e-004,-2.066950e-004
5.556603e-004,-2.167431e-004
7.488423e-004,-2.241981e-004
8.929186e-004,-2.241981e-004
9.523966e-004,-2.110708e-004
9.105837e-004,-1.859507e-004
7.820658e-004,-1.575893e-004
6.059006e-004,-1.280934e-004
4.313562e-004,-9.551824e-005
2.934386e-004,-5.856735e-005
2.030061e-004,-1.788895e-005
1.459591e-004,2.797553e-005
9.507057e-005,7.610894e-005
3.056858e-005,1.265113e-004
-4.884343e-005,1.749688e-004
-1.289037e-004,2.174299e-004
-1.901644e-004,2.495189e-004
-2.235498e-004,2.692908e-004
-2.305186e-004,2.782044e-004
-2.230636e-004,2.760976e-004
-2.136638e-004,2.675081e-004
-2.104225e-004,2.632944e-004
-2.149604e-004,2.756114e-004
-2.201465e-004,3.072141e-004
-2.194982e-004,3.508097e-004
-2.083157e-004,3.869503e-004
-1.780095e-004,4.000776e-004
-1.222590e-004,3.864641e-004
-3.555408e-005,3.496752e-004
8.178122e-005,2.960316e-004
2.138645e-004,2.414156e-004
3.360618e-004,1.986303e-004
4.383250e-004,1.709172e-004
5.378332e-004,1.517934e-004
6.541961e-004,1.372076e-004
7.822278e-004,1.252147e-004
8.851394e-004,1.156529e-004
9.130147e-004,1.078737e-004
8.410576e-004,1.005808e-004
6.796404e-004,9.782569e-005
4.689553e-004,1.017153e-004
2.657254e-004,1.122495e-004
1.205148e-004,1.265113e-004
5.244739e-005,1.406109e-004
5.277153e-005,1.526038e-004
9.296373e-005,1.594105e-004
1.362352e-004,1.569795e-004
1.509831e-004,1.409351e-004
1.132219e-004,1.148425e-004
1.841368e-005,8.048470e-005
-1.182074e-004,4.013043e-005
-2.682799e-004,-2.816880e-006
-4.042526e-004,-4.349527e-005
-5.050572e-004,-7.363943e-005
-5.557837e-004,-8.822530e-005
-5.588629e-004,-9.098041e-005
-5.262878e-004,-8.611845e-005
-4.760476e-004,-8.222889e-005
-4.264556e-004,-8.692878e-005
-3.890185e-004,-1.041077e-004
-3.673017e-004,-1.308485e-004
-3.523917e-004,-1.622891e-004
-3.305129e-004,-1.992400e-004
-2.985861e-004,-2.374874e-004
-2.605007e-004,-2.700626e-004
-2.295462e-004,-2.916173e-004
-2.178775e-004,-2.993964e-004
-2.293842e-004,-2.942103e-004
-2.511010e-004,-2.809209e-004
-2.626076e-004,-2.729798e-004
-2.517492e-004,-2.750866e-004
-2.230636e-004,-2.851347e-004
-1.885437e-004,-2.882139e-004
-1.540238e-004,-2.684419e-004
-1.180453e-004,-2.248464e-004
-8.692878e-005,-1.713648e-004
-7.428769e-005,-1.287416e-004
-9.049421e-005,-1.156143e-004
-1.365208e-004,-1.332795e-004
-2.005366e-004,-1.700683e-004
-2.617972e-004,-2.062088e-004
-2.998826e-004,-2.237119e-004
-3.074997e-004,-2.165810e-004
-2.976137e-004,-1.880575e-004
-2.966413e-004,-1.486757e-004
-3.274337e-004,-1.078352e-004
-3.883702e-004,-7.331530e-005
-4.522240e-004,-4.706071e-005
-4.852853e-004,-3.117831e-005
-4.663236e-004,-2.599222e-005
-3.987424e-004,-2.566809e-005
-3.068514e-004,-2.420950e-005
-2.185258e-004,-1.788895e-005
-1.431655e-004,-3.789272e-006
-8.028410e-005,2.068259e-005
-2.615429e-005,5.082674e-005
3.283749e-005,7.627100e-005
1.124116e-004,8.891209e-005
2.135403e-004,8.696731e-005
3.158036e-004,7.448828e-005
3.934329e-004,5.601284e-005
4.404318e-004,4.061663e-005
4.587452e-004,3.348575e-005
4.511282e-004,3.348575e-005
4.247115e-004,3.786152e-005
3.958639e-004,4.239934e-005
3.893813e-004,4.547859e-005
4.247115e-004,4.709924e-005
5.018546e-004,4.969229e-005
5.961767e-004,5.050261e-005
6.746164e-004,4.807163e-005
7.148086e-004,4.272347e-005
7.092984e-004,3.996837e-005
6.626236e-004,4.304761e-005
5.830494e-004,5.358185e-005
4.827309e-004,7.043665e-005
3.751195e-004,8.891209e-005
2.759355e-004,1.057669e-004
1.880961e-004,1.253768e-004
1.057669e-004,1.556830e-004
1.371378e-005,1.981441e-004
-9.924574e-005,2.466017e-004
-2.308428e-004,2.903593e-004
-3.724878e-004,3.195311e-004
-5.095950e-004,3.339549e-004
-6.209339e-004,3.438409e-004
-6.878669e-004,3.653956e-004
-7.026148e-004,4.031568e-004
-6.666363e-004,4.427008e-004
-5.911139e-004,4.621486e-004
-4.953333e-004,4.461041e-004
-4.112214e-004,3.952156e-004
-3.666535e-004,3.219621e-004
-3.736223e-004,2.440086e-004
-4.267797e-004,1.741585e-004
-5.021401e-004,1.195424e-004
-5.622663e-004,7.853991e-005
-5.844692e-004,4.531652e-005
-5.611319e-004,1.257933e-005
-4.974402e-004,-1.837515e-005
-4.053871e-004,-4.673658e-005
-2.958309e-004,-7.607040e-005
-1.783336e-004,-1.050801e-004
-5.759496e-005,-1.311726e-004
6.038860e-005,-1.522411e-004
1.778860e-004,-1.707166e-004
3.130485e-004,-1.846542e-004
4.955341e-004,-1.917850e-004
7.349047e-004,-1.921092e-004
9.966405e-004,-1.864369e-004
1.224667e-003,-1.768750e-004
1.377819e-003,-1.710407e-004
1.438917e-003,-1.713648e-004
1.410718e-003,-1.759026e-004
1.314127e-003,-1.830335e-004
1.185609e-003,-1.867610e-004
1.063736e-003,-1.828714e-004
9.723307e-004,-1.737958e-004
9.164180e-004,-1.611547e-004
8.958358e-004,-1.478653e-004
9.000494e-004,-1.381414e-004
9.151215e-004,-1.318209e-004
9.180387e-004,-1.287416e-004
8.846532e-004,-1.246900e-004
8.002172e-004,-1.138316e-004
6.580857e-004,-9.033215e-005
4.615004e-004,-5.613637e-005
2.222919e-004,-2.096820e-005
-3.279896e-005,8.041497e-006
-2.582318e-004,2.359977e-005
-4.196489e-004,2.505836e-005
-5.100812e-004,1.889987e-005
-5.429805e-004,1.290346e-005
-5.470322e-004,1.209313e-005
-5.533527e-004,1.825161e-005
-5.740970e-004,2.700314e-005
-6.018102e-004,3.429608e-005
-6.094273e-004,3.591673e-005
-5.695592e-004,2.829966e-005
-4.702132e-004,1.241726e-005
-3.332680e-004,-1.010982e-005
-1.992400e-004,-3.441962e-005
-1.131834e-004,-5.889148e-005
-1.060525e-004,-8.563225e-005
-1.749302e-004,-1.170729e-004
-2.830278e-004,-1.485136e-004
-3.812394e-004,-1.741199e-004
-4.280762e-004,-1.911368e-004
-4.073319e-004,-1.950263e-004
-3.366714e-004,-1.768750e-004
-2.517492e-004,-1.347380e-004
-1.830335e-004,-7.509801e-005
-1.410586e-004,-1.124428e-005
-1.138316e-004,4.256141e-005
-8.579432e-005,7.837785e-005
-5.289507e-005,9.652917e-005
-1.513384e-005,1.004187e-004
2.100672e-005,9.847395e-005
3.834771e-005,1.054428e-004
2.489629e-005,1.334801e-004
-2.291298e-005,1.765894e-004
-9.875954e-005,2.180782e-004
-1.888679e-004,2.448189e-004
-2.783279e-004,2.592428e-004
-3.593606e-004,2.683184e-004
-4.347209e-004,2.782044e-004
-5.045711e-004,2.890628e-004
-5.567560e-004,2.908455e-004
-5.734488e-004,2.707494e-004
-5.481666e-004,2.260194e-004
-4.927403e-004,1.616794e-004
-4.277521e-004,9.004655e-005
-3.778360e-004,2.522042e-005
-3.540124e-004,-2.583016e-005
-3.564434e-004,-6.148453e-005
-3.744326e-004,-8.336335e-005
-3.899909e-004,-9.551824e-005
-3.865875e-004,-1.044318e-004
-3.579019e-004,-1.157764e-004
-3.164132e-004,-1.293899e-004
-2.810830e-004,-1.457585e-004
-2.606628e-004,-1.682856e-004
-2.528836e-004,-2.003745e-004
-2.467252e-004,-2.371633e-004
-2.284118e-004,-2.630937e-004
-1.966470e-004,-2.590421e-004
-1.579134e-004,-2.123673e-004
-1.279313e-004,-1.310105e-004
-1.203142e-004,-4.835724e-005
-1.413827e-004,7.485573e-007
-1.835197e-004,-3.303076e-006
-2.240360e-004,-5.030202e-005
-2.357047e-004,-1.036215e-004
-2.126914e-004,-1.318209e-004
-1.744440e-004,-1.222590e-004
-1.408965e-004,-8.239095e-005
-1.305243e-004,-1.497178e-005
-1.520790e-004,7.708133e-005
-2.008607e-004,1.730240e-004
-2.653627e-004,2.397949e-004
-3.314853e-004,2.514636e-004
-3.857772e-004,2.109473e-004
-4.194868e-004,1.420695e-004
-4.331002e-004,7.221937e-005
-4.272659e-004,2.570662e-005
-4.042526e-004,9.986281e-006
-3.613053e-004,1.841368e-005
-2.992343e-004,3.429608e-005
-2.235498e-004,4.531652e-005
-1.336036e-004,5.034055e-005
-2.777494e-005,5.649903e-005
9.263960e-005,6.525056e-005
2.216436e-004,7.481241e-005
3.477304e-004,8.064677e-005
4.511282e-004,8.372601e-005
5.201680e-004,8.469840e-005
5.593878e-004,8.437427e-005
5.765668e-004,8.178122e-005
5.791598e-004,7.562274e-005
5.733255e-004,6.411610e-005
5.639257e-004,5.260946e-005
5.488536e-004,4.434413e-005
5.268127e-004,3.899597e-005
5.042856e-004,3.445814e-005
4.931031e-004,3.121684e-005
4.937514e-004,2.878586e-005
4.895377e-004,2.473423e-005
4.605280e-004,1.776542e-005
4.036430e-004,7.393236e-006
3.349273e-004,-2.978945e-006
2.738286e-004,-8.002969e-006
2.281262e-004,-3.141010e-006
2.038164e-004,1.306552e-005
2.018716e-004,3.640293e-005
2.162954e-004,6.006447e-005
2.386605e-004,7.918817e-005
2.631324e-004,9.588091e-005
2.947351e-004,1.141943e-004
3.509718e-004,1.357490e-004
4.577728e-004,1.568175e-004
6.269692e-004,1.736723e-004
8.397611e-004,1.819376e-004
1.057253e-003,1.799928e-004
1.249949e-003,1.662173e-004
1.413635e-003,1.435281e-004
1.555767e-003,1.184080e-004
1.681206e-003,9.555677e-005
1.776662e-003,7.432621e-005
1.812479e-003,5.341979e-005
1.756728e-003,3.380988e-005
1.598390e-003,1.452411e-005
1.343137e-003,-5.247859e-006
1.016250e-003,-2.388537e-005
6.520892e-004,-3.863332e-005
2.921420e-004,-4.900550e-005
-2.550602e-005,-5.856735e-005
-2.734659e-004,-7.218083e-005
-4.339106e-004,-9.357346e-005
-5.047331e-004,-1.216107e-004
-4.966299e-004,-1.535376e-004
-4.431483e-004,-1.838438e-004
-3.963114e-004,-2.039399e-004
-4.019837e-004,-2.079916e-004
-4.726442e-004,-1.953505e-004
-5.880346e-004,-1.723372e-004
-7.099077e-004,-1.512687e-004
-8.024471e-004,-1.404103e-004
-8.434496e-004,-1.425172e-004
-8.308084e-004,-1.517549e-004
-7.904542e-004,-1.626133e-004
-7.622549e-004,-1.731475e-004
-7.800820e-004,-1.851404e-004
-8.439358e-004,-2.006986e-004
-9.251304e-004,-2.207947e-004
-9.868774e-004,-2.423494e-004
-1.001949e-003,-2.608248e-004
-9.588401e-004,-2.718453e-004
-8.719731e-004,-2.715212e-004
-7.748959e-004,-2.598524e-004
-7.018045e-004,-2.337599e-004
-6.710121e-004,-1.977815e-004
-6.886772e-004,-1.618029e-004
-7.372968e-004,-1.345760e-004
-7.917507e-004,-1.139937e-004
-8.301602e-004,-9.341139e-005
-8.475012e-004,-6.699475e-005
-8.442599e-004,-3.652646e-005
-8.291878e-004,-1.075808e-005
-8.103882e-004,4.800190e-006
-7.889956e-004,7.555301e-006
-7.479931e-004,-3.858999e-007
-6.619364e-004,-8.002969e-006
-5.151053e-004,-6.868513e-006
-3.214373e-004,6.582909e-006
-1.169109e-004,2.862379e-005
5.277153e-005,5.293359e-005
1.594105e-004,7.076078e-005
1.936063e-004,7.432621e-005
1.647587e-004,6.233338e-005
9.782569e-005,3.883391e-005
2.959619e-005,1.533444e-005
-8.002969e-006,3.017472e-006
-1.196227e-006,5.448452e-006
3.591673e-005,1.954813e-005
8.210535e-005,4.223728e-005
1.216493e-004,7.270556e-005
1.504969e-004,1.106288e-004
1.712413e-004,1.488763e-004
1.952270e-004,1.773998e-004
2.355812e-004,1.927960e-004
2.983005e-004,1.958752e-004
3.775505e-004,1.897167e-004
4.527488e-004,1.757791e-004
4.943996e-004,1.551968e-004
4.837033e-004,1.383420e-004
4.192013e-004,1.326697e-004
3.222862e-004,1.425557e-004
2.287745e-004,1.647587e-004
1.830721e-004,1.950649e-004
2.122438e-004,2.363916e-004
3.102934e-004,2.984626e-004
4.436732e-004,3.882468e-004
5.631154e-004,4.997478e-004
6.311828e-004,6.086557e-004
6.339379e-004,6.772094e-004
5.738117e-004,6.810990e-004
4.644175e-004,6.230795e-004
3.358997e-004,5.268127e-004
2.195368e-004,4.133669e-004
1.336421e-004,3.025142e-004
7.562274e-005,2.109473e-004
2.781346e-005,1.508211e-004
-2.015787e-005,1.263492e-004
-6.440170e-005,1.258630e-004
-9.405965e-005,1.291043e-004
-9.503204e-005,1.213252e-004
-5.808115e-005,9.798775e-005
1.744129e-005,6.200925e-005
1.226217e-004,1.841368e-005
2.349330e-004,-2.437157e-005
3.243930e-004,-5.937768e-005
3.605336e-004,-8.401160e-005
3.258516e-004,-1.034594e-004
2.312055e-004,-1.233935e-004
1.023635e-004,-1.489998e-004
-2.939559e-005,-1.846542e-004
-1.412206e-004,-2.292221e-004
-2.224154e-004,-2.754107e-004
-2.767073e-004,-3.170615e-004
-3.186821e-004,-3.517435e-004
-3.611433e-004,-3.805911e-004
-4.071698e-004,-4.047388e-004
-4.554653e-004,-4.222419e-004
-5.024642e-004,-4.305072e-004
-5.429805e-004,-4.279142e-004
-5.711799e-004,-4.157593e-004
-5.818762e-004,-3.972838e-004
-5.706937e-004,-3.711913e-004
-5.363359e-004,-3.381300e-004
-4.728062e-004,-3.010170e-004
-3.801049e-004,-2.622834e-004
-2.575835e-004,-2.139880e-004
-1.138316e-004,-1.579134e-004
3.478228e-005,-1.020008e-004
1.738343e-004,-5.775702e-005
2.997591e-004,-3.279896e-005
4.086671e-004,-2.307504e-005
4.958582e-004,-2.194059e-005
5.597120e-004,-2.550602e-005
6.033076e-004,-3.441962e-005
6.290760e-004,-4.689865e-005
6.376655e-004,-6.051213e-005
6.334517e-004,-6.877746e-005
6.177314e-004,-6.521203e-005
5.914768e-004,-4.787104e-005
5.580913e-004,-2.437157e-005
5.127130e-004,-3.465141e-006
4.407560e-004,1.128280e-005
3.352514e-004,1.808955e-005
2.101370e-004,1.695509e-005
9.636710e-005,1.144487e-005
2.052053e-005,9.662150e-006
-1.027188e-005,1.954813e-005
-5.571990e-006,4.612685e-005
2.489629e-005,9.182927e-005
7.708133e-005,1.560072e-004
1.412592e-004,2.290986e-004
1.984683e-004,2.893870e-004
2.268297e-004,3.180725e-004
2.158093e-004,3.094830e-004
1.696206e-004,2.762596e-004
9.879808e-005,2.415777e-004
6.420843e-006,2.218057e-004
-1.021629e-004,2.166196e-004
-2.110708e-004,2.143507e-004
-2.932379e-004,2.044647e-004
-3.277578e-004,1.882582e-004
-3.160891e-004,1.748067e-004
-2.789762e-004,1.709172e-004
-2.465631e-004,1.744826e-004
-2.441321e-004,1.809652e-004
-2.831898e-004,1.822617e-004
-3.473677e-004,1.712413e-004
-4.107352e-004,1.462832e-004
-4.395829e-004,1.106288e-004
-4.023079e-004,7.335383e-005
-2.943724e-004,4.094075e-005
-1.441378e-004,1.857574e-005
-4.437533e-006,5.124321e-006
8.016057e-005,-3.465141e-006
8.826383e-005,-1.237873e-005
3.478228e-005,-2.226472e-005
-4.349527e-005,-3.571614e-005
-1.135075e-004,-5.176061e-005
-1.715269e-004,-6.667062e-005
-2.316531e-004,-7.688073e-005
-3.008550e-004,-8.255302e-005
-3.664914e-004,-8.352541e-005
-4.139766e-004,-8.336335e-005
-4.454172e-004,-8.871149e-005
-4.797751e-004,-9.973194e-005
-5.358497e-004,-1.136696e-004
-6.058619e-004,-1.302002e-004
-6.629088e-004,-1.451102e-004
-6.744154e-004,-1.517549e-004
-6.173685e-004,-1.459206e-004
-4.812336e-004,-1.329553e-004
-2.752487e-004,-1.196660e-004
-3.701266e-005,-1.096179e-004
1.879340e-004,-1.086455e-004
3.722023e-004,-1.175591e-004
5.196818e-004,-1.336036e-004
6.556547e-004,-1.486757e-004
7.921138e-004,-1.549962e-004
9.177146e-004,-1.491618e-004
1.006202e-003,-1.329553e-004
1.031485e-003,-1.148040e-004
9.802718e-004,-1.029732e-004
8.595330e-004,-1.021629e-004
6.880678e-004,-1.091317e-004
4.943996e-004,-1.175591e-004
3.140208e-004,-1.191798e-004
1.850168e-004,-1.094559e-004
1.372076e-004,-8.579432e-005
1.773998e-004,-5.273300e-005
2.859836e-004,-2.015787e-005
4.232529e-004,2.531276e-006
5.415607e-004,1.274139e-005
6.021731e-004,1.468618e-005
5.973112e-004,1.047248e-005
5.431813e-004,4.244267e-007
4.653899e-004,-1.351319e-005
3.875985e-004,-2.858527e-005
3.222862e-004,-3.992984e-005
2.665357e-004,-4.090223e-005
2.064095e-004,-3.134038e-005
1.304008e-004,-1.286493e-005
2.862379e-005,8.689758e-006
-1.018388e-004,2.586868e-005
-2.494803e-004,3.575467e-005
-3.909633e-004,3.656499e-005
-5.050572e-004,3.154097e-005
-5.804176e-004,2.829966e-005
-6.176926e-004,3.462021e-005
-6.219063e-004,5.649903e-005
-6.081308e-004,9.863601e-005
-5.954896e-004,1.582761e-004
-5.969483e-004,2.213195e-004
-6.133168e-004,2.657254e-004
-6.457299e-004,2.783665e-004
-7.099077e-004,2.616738e-004
-8.178432e-004,2.303951e-004
-9.484679e-004,2.012234e-004
-1.051379e-003,1.858272e-004
-1.076013e-003,1.879340e-004
-1.008756e-003,2.055991e-004
-8.672731e-004,2.346088e-004
-6.843015e-004,2.665357e-004
-4.980884e-004,2.939248e-004
-3.496366e-004,3.122381e-004
-2.671454e-004,3.232586e-004
-2.342462e-004,3.263378e-004
-1.982676e-004,3.248792e-004
-1.101041e-004,3.230965e-004
4.515445e-005,3.239069e-004
2.509774e-004,3.208276e-004
4.623107e-004,3.042970e-004
6.272933e-004,2.699391e-004
7.174017e-004,2.205092e-004
7.362012e-004,1.587623e-004
7.188602e-004,8.923623e-005
7.081639e-004,1.387585e-005
7.381460e-004,-5.937768e-005
8.097790e-004,-1.199901e-004
8.943772e-004,-1.603444e-004
9.574206e-004,-1.807646e-004
9.839993e-004,-1.896782e-004
9.862683e-004,-1.990780e-004
9.890234e-004,-2.177155e-004
1.001340e-003,-2.494803e-004
1.004420e-003,-2.914552e-004
9.546655e-004,-3.363473e-004
8.240407e-004,-3.750809e-004
6.206486e-004,-4.068457e-004
3.783608e-004,-4.311555e-004
1.331559e-004,-4.347209e-004
-9.081835e-005,-4.023079e-004
-2.749245e-004,-3.297026e-004
-4.138145e-004,-2.361909e-004
-5.133225e-004,-1.507825e-004
-5.862520e-004,-9.713889e-005
-6.420024e-004,-8.644259e-005
-6.847876e-004,-1.115627e-004
-7.155800e-004,-1.569410e-004
-7.369727e-004,-2.070192e-004
-7.517206e-004,-2.480217e-004
-7.680892e-004,-2.739521e-004
-7.906163e-004,-2.843243e-004
-8.212466e-004,-2.841623e-004
-8.593319e-004,-2.742763e-004
-9.038999e-004,-2.572594e-004
-9.468472e-004,-2.329496e-004
-9.748845e-004,-2.047502e-004
-9.766672e-004,-1.757406e-004
-9.457127e-004,-1.454344e-004
-8.851003e-004,-1.143178e-004
-7.974231e-004,-8.174268e-005
-6.787913e-004,-4.560212e-005
-5.243430e-004,-7.678839e-006
-3.284061e-004,2.619281e-005
-9.892161e-005,5.196120e-005
1.445005e-004,6.995045e-005
3.739850e-004,8.113296e-005
5.671670e-004,9.053275e-005
7.057329e-004,1.012291e-004
7.760693e-004,1.125736e-004
7.832003e-004,1.227837e-004
7.483562e-004,1.278078e-004
6.971435e-004,1.268354e-004
6.478756e-004,1.235941e-004
6.102764e-004,1.235941e-004
5.858046e-004,1.329939e-004
5.700842e-004,1.490383e-004
5.571189e-004,1.628139e-004
5.428572e-004,1.655690e-004
5.258403e-004,1.545486e-004
4.989374e-004,1.360731e-004
4.556660e-004,1.148425e-004
3.882468e-004,9.604298e-005
2.867939e-004,8.161915e-005
1.551968e-004,7.367795e-005
1.290346e-005,7.756752e-005
-1.164247e-004,9.750156e-005
-2.207947e-004,1.276457e-004
-2.932379e-004,1.548727e-004
-3.290543e-004,1.649207e-004
-3.340784e-004,1.543865e-004
-3.206269e-004,1.305629e-004
-3.062031e-004,1.085220e-004
-2.985861e-004,1.030118e-004
-2.948586e-004,1.229458e-004
-2.830278e-004,1.668655e-004
-2.502906e-004,2.227781e-004
-1.958367e-004,2.696149e-004
-1.352242e-004,2.879283e-004
-9.551824e-005,2.705873e-004
-9.389759e-005,2.276400e-004
-1.308485e-004,1.759412e-004
-1.895161e-004,1.328318e-004
-2.478596e-004,1.081979e-004
-2.763831e-004,1.062531e-004
-2.502906e-004,1.190562e-004
-1.535376e-004,1.367214e-004
2.855407e-006,1.498487e-004
1.809652e-004,1.547106e-004
3.292550e-004,1.469315e-004
4.060740e-004,1.239182e-004
4.039671e-004,8.875003e-005
3.414099e-004,5.504044e-005
2.534084e-004,4.110282e-005
1.756171e-004,5.325772e-005
1.325077e-004,8.372601e-005
1.282940e-004,1.133840e-004
1.514693e-004,1.242423e-004
1.782101e-004,1.119254e-004
1.804790e-004,8.323981e-005
1.349386e-004,4.726130e-005
3.073064e-005,7.717366e-006
-1.173971e-004,-3.539201e-005
-2.733039e-004,-8.725291e-005
-3.861013e-004,-1.423551e-004
-4.065215e-004,-1.890299e-004
-3.049066e-004,-2.188499e-004
-9.584238e-005,-2.279256e-004
1.571416e-004,-2.188499e-004
3.717161e-004,-1.994021e-004
4.931031e-004,-1.810887e-004
5.188715e-004,-1.718510e-004
4.880791e-004,-1.708786e-004
4.418904e-004,-1.749302e-004
4.013741e-004,-1.778474e-004
3.632887e-004,-1.747682e-004
3.208276e-004,-1.582375e-004
2.722080e-004,-1.246900e-004
2.211574e-004,-8.060823e-005
1.678379e-004,-4.074016e-005
1.156529e-004,-1.772689e-005
6.573675e-005,-1.562004e-005
1.549650e-005,-2.728874e-005
-3.717473e-005,-4.284701e-005
-9.438378e-005,-5.694670e-005
-1.541859e-004,-6.764301e-005
-2.130156e-004,-7.590833e-005
-2.609869e-004,-8.028410e-005
-2.890242e-004,-7.850138e-005
-2.972895e-004,-6.764301e-005
-2.893484e-004,-4.851930e-005
-2.656868e-004,-2.485776e-005
-2.326255e-004,-2.978945e-006
-1.994021e-004,1.468618e-005
-1.710407e-004,2.441009e-005
-1.512687e-004,2.813760e-005
-1.511067e-004,2.716521e-005
-1.862748e-004,2.684107e-005
-2.532078e-004,2.975825e-005
-3.264613e-004,3.526847e-005
-3.744326e-004,4.256141e-005
-3.707051e-004,5.017848e-005
-3.052308e-004,5.909208e-005
-1.870851e-004,6.784360e-005
-4.949169e-005,7.756752e-005
5.795762e-005,9.263960e-005
9.685330e-005,1.130598e-004
6.849186e-005,1.385041e-004
6.907040e-006,1.684862e-004
-4.706071e-005,1.991165e-004
-6.845333e-005,2.258573e-004
-5.321920e-005,2.466017e-004
-1.691656e-005,2.634565e-004
1.419998e-005,2.788527e-004
2.457216e-005,2.942489e-004
8.689758e-006,3.055935e-004
-2.550602e-005,3.093210e-004
-6.796714e-005,2.986247e-004
-1.104282e-004,2.644289e-004
-1.441378e-004,2.034923e-004
-1.632615e-004,1.245665e-004
-1.622891e-004,4.580272e-005
-1.449482e-004,-1.967167e-005
-1.209625e-004,-6.423963e-005
-9.600444e-005,-8.741498e-005
-7.526008e-005,-9.049421e-005
-5.840528e-005,-8.190475e-005
-3.425755e-005,-7.607040e-005
3.989864e-006,-8.352541e-005
5.893001e-005,-1.060525e-004
1.347766e-004,-1.392759e-004
2.349330e-004,-1.721751e-004
3.495132e-004,-1.953505e-004
4.535592e-004,-2.065330e-004
5.159543e-004,-2.094502e-004
5.172509e-004,-2.110708e-004
4.561522e-004,-2.159328e-004
3.438409e-004,-2.219292e-004
1.992786e-004,-2.269532e-004
4.402000e-005,-2.241981e-004
-1.052422e-004,-2.154466e-004
-2.199844e-004,-2.050744e-004
-2.697385e-004,-2.013469e-004
-2.451045e-004,-2.060468e-004
-1.655305e-004,-2.122053e-004
-4.625038e-005,-2.123673e-004
1.046324e-004,-2.016710e-004
2.702632e-004,-1.828714e-004
4.198496e-004,-1.613168e-004
5.294057e-004,-1.439758e-004
6.078454e-004,-1.321450e-004
6.887161e-004,-1.300382e-004
8.131823e-004,-1.360346e-004
9.950198e-004,-1.438137e-004
1.200681e-003,-1.457585e-004
1.368257e-003,-1.426792e-004
1.449290e-003,-1.400862e-004
1.426925e-003,-1.381414e-004
1.321906e-003,-1.340898e-004
1.173292e-003,-1.261486e-004
1.009444e-003,-1.114006e-004
8.344129e-004,-8.919769e-005
6.503066e-004,-6.164659e-005
4.671726e-004,-3.215070e-005
3.012177e-004,-4.761664e-006
1.556830e-004,1.679302e-005
2.149292e-005,2.927205e-005
-1.114006e-004,3.559260e-005
-2.441321e-004,4.223728e-005
-3.651949e-004,4.985435e-005
-4.540067e-004,5.974033e-005
-4.987367e-004,7.205730e-005
-5.071641e-004,8.567078e-005
-5.076503e-004,1.013911e-004
-5.300153e-004,1.164632e-004
-5.935449e-004,1.297526e-004
-6.891634e-004,1.401247e-004
-7.821888e-004,1.462832e-004
-8.236776e-004,1.485521e-004
-7.802441e-004,1.456350e-004
-6.580469e-004,1.389903e-004
-5.042469e-004,1.252147e-004
-3.775118e-004,1.034980e-004
-3.203028e-004,7.481241e-005
-3.335922e-004,4.807163e-005
-3.836704e-004,3.186510e-005
-4.215936e-004,3.834771e-005
-4.151110e-004,7.416415e-005
-3.611433e-004,1.341283e-004
-2.729798e-004,2.060853e-004
-1.783336e-004,2.748010e-004
-1.063766e-004,3.274723e-004
-6.958779e-005,3.529166e-004
-7.023606e-005,3.493511e-004
-1.010285e-004,3.242310e-004
-1.478653e-004,2.819319e-004
-1.940539e-004,2.316917e-004
-2.316531e-004,1.838824e-004
-2.639041e-004,1.456350e-004
-3.000446e-004,1.198666e-004
-3.468815e-004,1.015532e-004
-4.066836e-004,8.453633e-005
-4.766958e-004,6.800567e-005
-5.481666e-004,4.985435e-005
-6.136410e-004,3.348575e-005
-6.664743e-004,2.684107e-005
-7.018045e-004,3.445814e-005
-7.139594e-004,5.341979e-005
-7.043975e-004,7.286763e-005
-6.797637e-004,8.777764e-005
-6.543194e-004,1.020394e-004
-6.356818e-004,1.195424e-004
-6.251476e-004,1.375317e-004
-6.173685e-004,1.457970e-004
-6.100755e-004,1.338042e-004
-6.009999e-004,1.023635e-004
-5.901415e-004,6.670914e-005
-5.745832e-004,4.272347e-005
-5.557837e-004,3.267542e-005
-5.282326e-004,2.716521e-005
-4.880404e-004,1.582063e-005
-4.337485e-004,-6.544382e-006
-3.707051e-004,-3.992984e-005
-3.096065e-004,-7.947377e-005
-2.645523e-004,-1.172350e-004
-2.499665e-004,-1.454344e-004
-2.729798e-004,-1.595340e-004
-3.271096e-004,-1.645581e-004
-3.911253e-004,-1.692580e-004
-4.381243e-004,-1.801163e-004
-4.554653e-004,-1.987538e-004
-4.488206e-004,-2.211189e-004
-4.230522e-004,-2.434839e-004
-3.775118e-004,-2.587180e-004
-3.023136e-004,-2.619593e-004
-1.950263e-004,-2.558008e-004
-7.137051e-005,-2.467252e-004
4.110282e-005,-2.342462e-004
1.240803e-004,-2.183637e-004
1.739964e-004,-1.971332e-004
2.031682e-004,-1.720131e-004
2.370398e-004,-1.485136e-004
2.953834e-004,-1.266348e-004
3.817642e-004,-9.551824e-005
4.835413e-004,-4.641245e-005
5.799701e-004,1.355172e-005
6.533858e-004,6.800567e-005
6.947125e-004,1.025256e-004
7.060571e-004,1.111150e-004
6.995744e-004,1.017153e-004
6.867713e-004,8.745350e-005
6.817472e-004,7.610894e-005
6.922815e-004,6.962632e-005
7.221015e-004,6.411610e-005
7.692626e-004,5.601284e-005
8.237166e-004,4.418206e-005
8.629364e-004,3.024445e-005
8.603434e-004,1.792748e-005
7.890346e-004,1.176900e-005
6.434998e-004,1.225520e-005
4.525868e-004,1.987227e-005
2.564877e-004,3.672706e-005
8.729144e-005,6.508849e-005
-3.604027e-005,1.034980e-004
-1.120489e-004,1.483901e-004
-1.415448e-004,1.918236e-004
-1.261486e-004,2.260194e-004
-6.926366e-005,2.487085e-004
2.278944e-005,2.607014e-004
1.436902e-004,2.657254e-004
2.876042e-004,2.670219e-004
4.433490e-004,2.709115e-004
5.934216e-004,2.856594e-004
7.253428e-004,3.135347e-004
8.319819e-004,3.461098e-004
9.144733e-004,3.670162e-004
9.818925e-004,3.598854e-004
1.036833e-003,3.169380e-004
1.071839e-003,2.431983e-004
1.076701e-003,1.487142e-004
1.039102e-003,4.483033e-005
9.617964e-004,-6.278104e-005
8.606675e-004,-1.655305e-004
7.613214e-004,-2.564491e-004
6.861230e-004,-3.298647e-004
6.428516e-004,-3.826980e-004
6.242140e-004,-4.152731e-004
6.177314e-004,-4.293727e-004
6.083316e-004,-4.264556e-004
5.817529e-004,-4.042526e-004
5.264886e-004,-3.616295e-004
4.396215e-004,-3.060411e-004
3.414099e-004,-2.467252e-004
2.624841e-004,-1.937298e-004
2.166196e-004,-1.551583e-004
1.893926e-004,-1.365208e-004
1.449867e-004,-1.361966e-004
4.645098e-005,-1.444620e-004
-1.240417e-004,-1.460826e-004
-3.473677e-004,-1.292278e-004
-5.749074e-004,-8.465986e-005
-7.535033e-004,-6.382317e-006
-8.526873e-004,9.523264e-005
-8.768350e-004,1.929580e-004
-8.510666e-004,2.545429e-004
-8.120089e-004,2.619979e-004
-7.914266e-004,2.182402e-004
-8.090917e-004,1.422316e-004
-8.667869e-004,5.990240e-005
-9.444162e-004,-8.651231e-006
-1.009891e-003,-5.597430e-005
-1.030635e-003,-8.514606e-005
-9.909290e-004,-9.794922e-005
-9.027654e-004,-9.519411e-005
-7.919128e-004,-7.995997e-005
-6.774947e-004,-6.180866e-005
-5.556216e-004,-4.738484e-005
-4.078181e-004,-4.090223e-005
-2.169052e-004,-4.025397e-005
9.662150e-006,-4.138842e-005
2.336365e-004,-4.284701e-005
4.075326e-004,-4.738484e-005
5.096338e-004,-4.900550e-005
5.459364e-004,-4.398147e-005
5.347540e-004,-3.296103e-005
4.900239e-004,-2.096820e-005
4.213082e-004,-1.367526e-005
3.401134e-004,-1.578211e-005
2.589186e-004,-2.566809e-005
1.829100e-004,-3.555408e-005
1.169494e-004,-3.685060e-005
7.027458e-005,-2.696461e-005
5.406805e-005,-7.192643e-006
7.270556e-005,1.679302e-005
1.219734e-004,3.980630e-005
1.825859e-004,5.747142e-005
2.292607e-004,6.508849e-005
2.386605e-004,6.460230e-005
2.041406e-004,6.152305e-005
1.326697e-004,6.589881e-005
3.656499e-005,8.858796e-005
-6.683268e-005,1.307250e-004
-1.605064e-004,1.808031e-004
-2.292221e-004,2.237505e-004
-2.630937e-004,2.475741e-004
-2.624455e-004,2.535705e-004
-2.373254e-004,2.467637e-004
-2.005366e-004,2.359054e-004
-1.580754e-004,2.250470e-004
-1.037836e-004,2.151610e-004
-3.296103e-005,2.044647e-004
5.439218e-005,1.945787e-004
1.568175e-004,1.833962e-004
2.673460e-004,1.739964e-004
3.665301e-004,1.704310e-004
4.292493e-004,1.731861e-004
4.417284e-004,1.757791e-004
4.088291e-004,1.741585e-004
3.405996e-004,1.633001e-004
2.478982e-004,1.398006e-004
1.435281e-004,1.034980e-004
3.591673e-005,6.152305e-005
-8.790117e-005,2.619281e-005
-2.446183e-004,4.962256e-006
-4.303451e-004,-6.176923e-008
-6.254718e-004,7.393236e-006
-7.992057e-004,1.760335e-005
-9.374474e-004,1.776542e-005
-1.045221e-003,4.244267e-007
-1.133060e-003,-3.701266e-005
-1.198048e-003,-8.757704e-005
-1.211986e-003,-1.477033e-004
-1.151860e-003,-2.099363e-004
-1.013780e-003,-2.661730e-004
-8.126572e-004,-3.094444e-004
-5.822003e-004,-3.350507e-004
-3.682741e-004,-3.425058e-004
-2.115570e-004,-3.389403e-004
-1.373311e-004,-3.327818e-004
-1.514308e-004,-3.269475e-004
-2.420253e-004,-3.165753e-004
-3.770257e-004,-2.976137e-004
-5.141329e-004,-2.700626e-004
-6.125065e-004,-2.366771e-004
-6.447575e-004,-1.966470e-004
-6.009999e-004,-1.473791e-004
-4.958195e-004,-9.551824e-005
-3.580640e-004,-5.516398e-005
-2.138259e-004,-3.733679e-005
-7.882551e-005,-4.041603e-005
3.656499e-005,-5.289507e-005
1.260251e-004,-5.791909e-005
1.942546e-004,-4.949169e-005
2.485465e-004,-3.247483e-005
2.950592e-004,-1.140634e-005
3.444891e-004,1.436204e-005
4.127187e-004,4.709924e-005
5.096338e-004,8.210535e-005
6.289139e-004,1.073875e-004
7.404150e-004,1.150046e-004
8.015137e-004,1.069013e-004
7.843347e-004,9.020862e-005
6.969814e-004,7.497447e-005
5.718669e-004,7.335383e-005
4.545315e-004,9.393612e-005
3.822504e-004,1.312112e-004
3.587509e-004,1.696206e-004
3.559958e-004,1.889064e-004
3.350894e-004,1.811273e-004
2.629703e-004,1.509831e-004
1.263492e-004,1.112771e-004
-5.305713e-005,7.805372e-005
-2.241981e-004,5.633696e-005
-3.382920e-004,4.320967e-005
-3.739464e-004,3.607880e-005
-3.400748e-004,3.348575e-005
-2.695764e-004,3.121684e-005
-2.015090e-004,2.781346e-005
-1.587237e-004,2.408596e-005
-1.439758e-004,2.003433e-005
-1.494860e-004,1.598270e-005
-1.614788e-004,1.047248e-005
-1.715269e-004,7.555301e-006
-1.763888e-004,8.851824e-006
-1.737958e-004,1.193106e-005
-1.489998e-004,1.452411e-005
-8.012204e-005,2.295151e-005
4.774750e-005,4.645098e-005
2.216436e-004,8.648112e-005
4.067223e-004,1.385041e-004
5.657084e-004,1.918236e-004
6.810990e-004,2.344468e-004
7.569456e-004,2.585945e-004
8.060515e-004,2.592428e-004
8.404093e-004,2.368777e-004
8.629364e-004,1.960373e-004
8.655295e-004,1.477418e-004
8.472161e-004,1.020394e-004
8.149651e-004,6.930219e-005
7.880622e-004,5.115087e-005
7.807693e-004,4.758544e-005
7.947069e-004,5.455425e-005
8.238787e-004,6.103686e-005
8.509436e-004,6.103686e-005
8.546711e-004,5.633696e-005
8.182063e-004,4.693717e-005
7.318255e-004,3.656499e-005
5.932595e-004,2.651694e-005
4.086671e-004,1.727922e-005
1.877720e-004,3.665733e-006
-6.261898e-005,-1.950961e-005
-3.371576e-004,-4.949169e-005
-6.217443e-004,-7.785312e-005
-8.914209e-004,-9.405965e-005
-1.116043e-003,-8.806324e-005
-1.269195e-003,-6.245691e-005
-1.344231e-003,-3.166451e-005
-1.355900e-003,-1.383732e-005
-1.338397e-003,-2.291298e-005
-1.317004e-003,-5.419158e-005
-1.293019e-003,-8.822530e-005
-1.246506e-003,-1.024871e-004
-1.155587e-003,-9.179074e-005
-1.015887e-003,-7.104638e-005
-8.484736e-004,-6.018800e-005
-6.859221e-004,-6.991193e-005
-5.583767e-004,-1.020008e-004
-4.711856e-004,-1.480274e-004
-4.021458e-004,-1.932436e-004
-3.193304e-004,-2.207947e-004
-2.041020e-004,-2.274394e-004
-5.856735e-005,-2.216050e-004
1.184080e-004,-2.151224e-004
3.300653e-004,-2.149604e-004
5.781874e-004,-2.198223e-004
8.528884e-004,-2.258187e-004
1.134234e-003,-2.253326e-004
1.389487e-003,-2.149604e-004
1.589477e-003,-1.935677e-004
1.709567e-003,-1.689338e-004
1.744573e-003,-1.451102e-004
1.697574e-003,-1.233935e-004
1.590773e-003,-9.681477e-005
1.457393e-003,-6.326724e-005
1.327578e-003,-2.356124e-005
1.209271e-003,1.614476e-005
1.081239e-003,5.244739e-005
9.190111e-004,7.983644e-005
7.177258e-004,9.766362e-005
4.858102e-004,1.043083e-004
2.378501e-004,1.002567e-004
-1.643037e-005,9.555677e-005
-2.637420e-004,9.701536e-005
-4.907955e-004,1.054428e-004
-6.831670e-004,1.163011e-004
-8.228673e-004,1.313732e-004
-9.063309e-004,1.555210e-004
-9.392301e-004,1.874478e-004
-9.390680e-004,2.180782e-004
-9.275614e-004,2.349330e-004
-9.081136e-004,2.331503e-004
-8.632215e-004,2.151610e-004
-7.692237e-004,1.953890e-004
-6.128307e-004,1.880961e-004
-4.065215e-004,1.957132e-004
-1.901644e-004,2.094887e-004
-1.286493e-005,2.192126e-004
8.372601e-005,2.167816e-004
8.486046e-005,2.010613e-004
8.851824e-006,1.748067e-004
-1.050801e-004,1.420695e-004
-2.190120e-004,1.111150e-004
-3.118754e-004,8.745350e-005
-3.789705e-004,7.513654e-005
-4.246728e-004,6.897806e-005
-4.603272e-004,6.411610e-005
-4.929024e-004,5.909208e-005
-5.259637e-004,5.487838e-005
-5.578905e-004,4.709924e-005
-5.692351e-004,3.316162e-005
-5.379565e-004,1.582063e-005
-4.570859e-004,1.072688e-006
-3.374817e-004,-8.651231e-006
-2.047502e-004,-1.432352e-005
-8.773911e-005,-1.724069e-005
-2.226472e-005,-1.707863e-005
-3.506788e-005,-1.691656e-005
-1.276072e-004,-1.837515e-005
-2.689281e-004,-2.194059e-005
-4.177041e-004,-2.761287e-005
-5.403875e-004,-3.393342e-005
-6.091032e-004,-3.717473e-005
-6.112100e-004,-3.830919e-005
-5.538389e-004,-3.782299e-005
-4.621100e-004,-3.555408e-005
-3.673017e-004,-3.441962e-005
-2.844864e-004,-3.555408e-005
-2.154466e-004,-3.960571e-005
-1.558065e-004,-5.111234e-005
-1.049180e-004,-7.461182e-005
-5.516398e-005,-1.123730e-004
1.396819e-006,-1.580754e-004
7.059871e-005,-1.976194e-004
1.529279e-004,-2.225774e-004
2.469258e-004,-2.284118e-004
3.488649e-004,-2.204706e-004
4.475628e-004,-2.008607e-004
5.281092e-004,-1.707166e-004
5.794840e-004,-1.306864e-004
5.919630e-004,-8.644259e-005
5.632775e-004,-4.592625e-005
4.997478e-004,-1.902341e-005
4.297355e-004,-8.813297e-006
3.910019e-004,-1.626830e-005
4.034809e-004,-3.798505e-005
4.529109e-004,-6.391550e-005
4.861343e-004,-8.465986e-005
4.501558e-004,-9.405965e-005
3.323342e-004,-9.114248e-005
1.637863e-004,-7.866345e-005
3.503668e-006,-6.391550e-005
-9.098041e-005,-5.176061e-005
-9.098041e-005,-4.560212e-005
-1.108221e-005,-4.916756e-005
1.028497e-004,-6.164659e-005
2.051129e-004,-7.363943e-005
2.642668e-004,-7.137051e-005
2.725321e-004,-5.013995e-005
2.336365e-004,-1.562004e-005
1.587623e-004,1.646890e-005
6.184718e-005,3.267542e-005
-4.155049e-005,2.910999e-005
-1.349001e-004,1.549650e-005
-2.065330e-004,8.851824e-006
-2.588801e-004,2.327564e-005
-3.062031e-004,6.038860e-005
-3.541745e-004,1.111150e-004
-4.018217e-004,1.569795e-004
-4.413656e-004,1.835583e-004
-4.590307e-004,1.822617e-004
-4.403932e-004,1.547106e-004
-3.831841e-004,1.175977e-004
-3.086341e-004,8.615699e-005
-2.434839e-004,7.092284e-005
-1.958367e-004,7.027458e-005
-1.580754e-004,7.740546e-005
-1.204763e-004,8.388807e-005
-7.817725e-005,8.032264e-005
-2.631635e-005,6.411610e-005
4.191315e-005,4.661304e-005
1.313732e-004,4.726130e-005
2.519498e-004,7.643307e-005
4.038051e-004,1.287802e-004
5.699221e-004,1.855030e-004
7.217774e-004,2.289366e-004
8.345750e-004,2.498430e-004
9.000494e-004,2.461155e-004
9.313281e-004,2.242366e-004
9.451036e-004,1.942546e-004
9.572586e-004,1.678379e-004
9.711962e-004,1.500107e-004
9.781651e-004,1.388282e-004
9.546655e-004,1.304008e-004
8.807636e-004,1.214872e-004
7.540284e-004,1.093323e-004
5.892079e-004,9.409818e-005
4.086671e-004,7.805372e-005
2.375260e-004,6.233338e-005
9.588091e-005,4.904402e-005
-5.085794e-006,3.462021e-005
-7.072225e-005,1.857574e-005
-1.157764e-004,-2.238346e-007
-1.564548e-004,-2.080613e-005
-2.160948e-004,-4.203669e-005
-3.156029e-004,-6.197072e-005
-4.559515e-004,-7.914964e-005
-6.134789e-004,-9.243900e-005
-7.466965e-004,-1.029732e-004
-8.235155e-004,-1.117248e-004
-8.359946e-004,-1.203142e-004
-7.959644e-004,-1.289037e-004
-7.212523e-004,-1.392759e-004
-6.301716e-004,-1.504584e-004
-5.369841e-004,-1.588858e-004
-4.544929e-004,-1.614788e-004
-3.875599e-004,-1.619650e-004
-3.316474e-004,-1.639098e-004
-2.789762e-004,-1.650443e-004
-2.152845e-004,-1.653684e-004
-1.280934e-004,-1.647201e-004
-1.740276e-005,-1.621271e-004
9.701536e-005,-1.571031e-004
1.874478e-004,-1.509446e-004
2.307193e-004,-1.472171e-004
2.231022e-004,-1.464067e-004
1.842065e-004,-1.475412e-004
1.367214e-004,-1.452723e-004
1.012291e-004,-1.391138e-004
8.437427e-005,-1.313347e-004
8.356394e-005,-1.253383e-004
1.013911e-004,-1.216107e-004
1.516314e-004,-1.203142e-004
2.576221e-004,-1.183694e-004
4.324906e-004,-1.144799e-004
6.491721e-004,-1.071869e-004
8.462437e-004,-9.357346e-005
9.640653e-004,-7.250496e-005
9.622826e-004,-4.252288e-005
8.392748e-004,-5.734056e-006
6.357207e-004,3.364782e-005
4.302217e-004,6.816773e-005
3.068900e-004,8.648112e-005
3.070520e-004,8.729144e-005
4.067223e-004,7.691926e-005
5.289196e-004,7.189524e-005
5.943940e-004,8.988449e-005
5.532294e-004,1.385041e-004
3.945674e-004,2.025199e-004
1.539003e-004,2.529222e-004
-1.107524e-004,2.675081e-004
-3.384541e-004,2.425500e-004
-4.906334e-004,1.932822e-004
-5.588629e-004,1.378558e-004
-5.565940e-004,9.053275e-005
-5.193190e-004,5.536457e-005
-4.937127e-004,3.316162e-005
-5.185087e-004,2.311357e-005
-5.958138e-004,2.359977e-005
-6.914323e-004,2.700314e-005
-7.646859e-004,2.262738e-005
-7.891576e-004,5.448452e-006
-7.591756e-004,-2.129233e-005
-6.927288e-004,-4.511593e-005
-6.134789e-004,-5.370539e-005
-5.397392e-004,-3.377136e-005
-4.789647e-004,1.760335e-005
-4.316416e-004,9.020862e-005
-4.026320e-004,1.595726e-004
-3.924218e-004,2.028440e-004
-4.013355e-004,2.109473e-004
-4.287245e-004,1.877720e-004
-4.716718e-004,1.451488e-004
-5.236948e-004,9.879808e-005
-5.775004e-004,6.476436e-005
-6.236890e-004,6.330578e-005
-6.512401e-004,1.069013e-004
-6.514022e-004,1.861513e-004
-6.202856e-004,2.676702e-004
-5.621043e-004,3.158036e-004
-4.882024e-004,3.114278e-004
-4.152731e-004,2.603772e-004
-3.613053e-004,1.866375e-004
-3.410472e-004,1.150046e-004
-3.544986e-004,6.411610e-005
-3.852910e-004,3.380988e-005
-4.060354e-004,1.436204e-005
-3.859393e-004,-3.858999e-007
-3.068514e-004,-1.367526e-005
-1.741199e-004,-2.631635e-005
-1.351319e-005,-3.279896e-005
1.367214e-004,-2.923353e-005
2.404432e-004,-2.372331e-005
2.835526e-004,-3.571614e-005
2.796630e-004,-7.509801e-005
2.537325e-004,-1.361966e-004
2.289366e-004,-2.021572e-004
2.177540e-004,-2.600145e-004
2.177540e-004,-3.013411e-004
2.200230e-004,-3.232200e-004
2.213195e-004,-3.254889e-004
2.323399e-004,-3.123616e-004
2.657254e-004,-2.848105e-004
3.248792e-004,-2.391081e-004
4.098015e-004,-1.757406e-004
5.177371e-004,-1.054042e-004
6.352345e-004,-4.236082e-005
7.345806e-004,-7.100305e-007
7.789865e-004,2.052053e-005
7.517595e-004,2.635488e-005
6.608408e-004,2.197911e-005
5.321609e-004,9.824215e-006
3.960259e-004,-1.010982e-005
2.837146e-004,-3.522994e-005
2.248849e-004,-6.310517e-005
2.329882e-004,-8.984595e-005
2.923041e-004,-1.118868e-004
3.730126e-004,-1.271210e-004
4.477248e-004,-1.361966e-004
4.937514e-004,-1.408965e-004
4.952099e-004,-1.426792e-004
4.537212e-004,-1.396000e-004
3.937570e-004,-1.287416e-004
3.444891e-004,-1.049180e-004
3.166139e-004,-7.007399e-005
3.002453e-004,-3.571614e-005
2.725321e-004,-8.651231e-006
2.213195e-004,9.824215e-006
1.534141e-004,2.684107e-005
9.361199e-005,5.374392e-005
6.816773e-005,1.026876e-004
8.631905e-005,1.715654e-004
1.385041e-004,2.464396e-004
2.025199e-004,3.107795e-004
2.540567e-004,3.496752e-004
2.788527e-004,3.598854e-004
2.757735e-004,3.407616e-004
2.543808e-004,2.986247e-004
2.341226e-004,2.456293e-004
2.333123e-004,1.898788e-004
2.521119e-004,1.347766e-004
2.723701e-004,8.291568e-005
2.636185e-004,3.850978e-005
2.096508e-004,9.500085e-006
1.141943e-004,3.989864e-006
-3.141010e-006,2.165498e-005
-1.224211e-004,5.260946e-005
-2.370013e-004,8.615699e-005
-3.519055e-004,1.192183e-004
-4.635685e-004,1.511452e-004
-5.557837e-004,1.759412e-004
-6.052136e-004,1.850168e-004
-5.967862e-004,1.751309e-004
-5.308256e-004,1.539003e-004
-4.305072e-004,1.389903e-004
-3.298647e-004,1.485521e-004
-2.533699e-004,1.867996e-004
-2.094502e-004,2.399570e-004
-1.951884e-004,2.853353e-004
-2.049123e-004,3.036487e-004
-2.404046e-004,2.916559e-004
-3.100927e-004,2.522740e-004
-4.139766e-004,1.963614e-004
-5.374703e-004,1.334801e-004
-6.578848e-004,7.059871e-005
-7.502620e-004,1.176900e-005
-7.980713e-004,-3.992984e-005
-8.009885e-004,-8.417367e-005
-7.807303e-004,-1.201522e-004
-7.596618e-004,-1.480274e-004
-7.526930e-004,-1.741199e-004
-7.603101e-004,-2.018331e-004
-7.648479e-004,-2.305186e-004
-7.402140e-004,-2.611490e-004
-6.674466e-004,-2.924276e-004
-5.483287e-004,-3.217614e-004
-3.945287e-004,-3.425058e-004
-2.254946e-004,-3.564434e-004
-5.565017e-005,-3.651949e-004
1.059290e-004,-3.724878e-004
2.525981e-004,-3.805911e-004
3.798194e-004,-3.854531e-004
4.867825e-004,-3.791325e-004
5.733255e-004,-3.609812e-004
6.381517e-004,-3.327818e-004
6.780197e-004,-2.966413e-004
6.867713e-004,-2.515871e-004
6.682958e-004,-2.013469e-004
6.328035e-004,-1.507825e-004
6.021731e-004,-1.034594e-004
5.930975e-004,-5.921561e-005
6.052523e-004,-1.432352e-005
6.229175e-004,2.943412e-005
6.277795e-004,6.654708e-005
6.041179e-004,9.361199e-005
5.446399e-004,1.090082e-004
4.580970e-004,1.135460e-004
3.582647e-004,1.098185e-004
2.569738e-004,9.944634e-005
1.631380e-004,8.437427e-005
8.178122e-005,6.670914e-005
1.387585e-005,4.709924e-005
-4.219875e-005,2.943412e-005
-9.179074e-005,2.035846e-005
-1.361966e-004,2.457216e-005
-1.715269e-004,3.850978e-005
-1.831956e-004,6.184718e-005
-1.535376e-004,9.231547e-005
-6.748094e-005,1.214872e-004
6.541262e-005,1.372076e-004
2.128921e-004,1.339663e-004
3.396272e-004,1.148425e-004
4.313562e-004,9.150514e-005
4.918066e-004,7.465034e-005
5.274609e-004,6.995045e-005
5.439916e-004,7.578480e-005
5.428572e-004,8.761557e-005
5.329712e-004,9.928428e-005
5.363746e-004,1.060910e-004
5.720290e-004,1.060910e-004
6.352345e-004,9.928428e-005
6.997365e-004,8.842590e-005
7.357151e-004,7.756752e-005
7.117294e-004,6.751948e-005
6.059006e-004,5.893001e-005
4.177427e-004,5.293359e-005
1.673517e-004,5.260946e-005
-1.156143e-004,5.811968e-005
-3.984183e-004,6.654708e-005
-6.471885e-004,7.400208e-005
-8.327533e-004,7.708133e-005
-9.369612e-004,7.302970e-005
-9.515471e-004,6.379197e-005
-8.852624e-004,5.698522e-005
-7.710064e-004,5.520250e-005
-6.528608e-004,5.649903e-005
-5.651835e-004,5.552663e-005
-5.129984e-004,4.904402e-005
-4.835025e-004,3.445814e-005
-4.643789e-004,1.209313e-005
-4.549791e-004,-1.237873e-005
-4.567618e-004,-3.263690e-005
-4.601652e-004,-4.608832e-005
-4.549791e-004,-4.803310e-005
-4.399070e-004,-3.587821e-005
-4.188385e-004,-1.318906e-005
-3.878840e-004,1.063454e-005
-3.420196e-004,2.732727e-005
-2.846485e-004,3.445814e-005
-2.232257e-004,4.158902e-005
-1.731475e-004,5.504044e-005
-1.545100e-004,7.367795e-005
-1.784957e-004,8.680524e-005
-2.327876e-004,8.437427e-005
-2.814071e-004,6.687121e-005
-2.872415e-004,4.272347e-005
-2.340841e-004,1.695509e-005
-1.324691e-004,-8.813297e-006
-1.270286e-005,-3.879538e-005
1.044704e-004,-7.444975e-005
2.206712e-004,-1.152902e-004
3.451374e-004,-1.532135e-004
4.689553e-004,-1.793060e-004
5.640878e-004,-1.963229e-004
5.992560e-004,-2.053985e-004
5.691118e-004,-2.075054e-004
5.034753e-004,-2.006986e-004
4.425387e-004,-1.869231e-004
4.140152e-004,-1.690959e-004
4.258460e-004,-1.498101e-004
4.749518e-004,-1.323071e-004
5.589016e-004,-1.141558e-004
6.833679e-004,-9.616651e-005
8.567779e-004,-7.752899e-005
1.071353e-003,-6.051213e-005
1.281390e-003,-5.046408e-005
1.413473e-003,-4.738484e-005
1.399049e-003,-4.900550e-005
1.205219e-003,-5.078821e-005
8.506195e-004,-5.224680e-005
3.989431e-004,-5.289507e-005
-5.646050e-005,-5.581224e-005
-4.293727e-004,-6.018800e-005
-6.719845e-004,-6.780507e-005
-7.768407e-004,-7.736692e-005
-7.750580e-004,-8.141856e-005
-7.196317e-004,-7.201877e-005
-6.598296e-004,-5.273300e-005
-6.298475e-004,-2.420950e-005
-6.442713e-004,1.387585e-005
-6.964564e-004,6.265751e-005
-7.641996e-004,1.167873e-004
-8.199501e-004,1.684862e-004
-8.377773e-004,2.085163e-004
-8.071469e-004,2.333123e-004
-7.403760e-004,2.487085e-004
-6.570745e-004,2.639427e-004
-5.674524e-004,2.838767e-004
-4.747511e-004,3.051073e-004
-3.736223e-004,3.182346e-004
-2.637420e-004,3.174242e-004
-1.658546e-004,3.020280e-004
-1.131834e-004,2.738286e-004
-1.220970e-004,2.388225e-004
-1.734716e-004,2.031682e-004
-2.157707e-004,1.692965e-004
-2.018331e-004,1.404489e-004
-1.139937e-004,1.169494e-004
3.462021e-005,9.474644e-005
2.030061e-004,6.930219e-005
3.425444e-004,3.624086e-005
4.167703e-004,-3.627206e-006
4.222805e-004,-4.949169e-005
3.911640e-004,-9.811128e-005
3.678266e-004,-1.438137e-004
3.799815e-004,-1.806025e-004
4.190393e-004,-1.989159e-004
4.488593e-004,-1.901644e-004
4.310321e-004,-1.507825e-004
3.512959e-004,-8.968389e-005
2.239125e-004,-2.420950e-005
8.907416e-005,3.332369e-005
1.234753e-006,7.967438e-005
-1.108221e-005,1.166253e-004
3.834771e-005,1.457970e-004
1.072255e-004,1.696206e-004
1.454729e-004,1.867996e-004
1.252147e-004,1.924718e-004
4.418206e-005,1.811273e-004
-7.995997e-005,1.503349e-004
-2.157707e-004,1.043083e-004
-3.347266e-004,5.001642e-005
-4.204592e-004,-2.006553e-006
-4.650271e-004,-4.495386e-005
-4.789647e-004,-7.736692e-005
-4.788027e-004,-1.008664e-004
-4.739407e-004,-1.175591e-004
-4.700511e-004,-1.308485e-004
-4.685925e-004,-1.449482e-004
-4.799371e-004,-1.598582e-004
-5.117019e-004,-1.716889e-004
-5.624284e-004,-1.749302e-004
-6.128307e-004,-1.674752e-004
-6.361681e-004,-1.512687e-004
-6.103997e-004,-1.336036e-004
-5.245051e-004,-1.182074e-004
-3.796187e-004,-1.047560e-004
-1.945401e-004,-9.130454e-005
-1.318906e-005,-7.574627e-005
1.188942e-004,-5.889148e-005
1.748067e-004,-4.203669e-005
1.633001e-004,-2.890940e-005
1.120874e-004,-1.999580e-005
5.196120e-005,-1.594417e-005
1.533444e-005,-1.545797e-005
3.073064e-005,-1.707863e-005
1.193804e-004,-1.724069e-005
2.932765e-004,-1.740276e-005
5.287575e-004,-1.983374e-005
7.723419e-004,-2.437157e-005
9.705480e-004,-2.566809e-005
1.094042e-003,-2.210265e-005
1.140069e-003,-1.805102e-005
1.118838e-003,-1.918548e-005
1.058874e-003,-2.761287e-005
9.903199e-004,-3.992984e-005
9.293833e-004,-5.013995e-005
8.789809e-004,-5.500191e-005
8.363577e-004,-5.402952e-005
8.071859e-004,-4.835724e-005
7.947069e-004,-3.976777e-005
8.036205e-004,-2.566809e-005
8.256614e-004,-3.465141e-006
8.329543e-004,2.570662e-005
7.862795e-004,5.747142e-005
6.618132e-004,8.875003e-005
4.806241e-004,1.222976e-004
2.897111e-004,1.616794e-004
1.279698e-004,2.081922e-004
-5.085794e-006,2.636185e-004
-1.417068e-004,3.214759e-004
-3.096065e-004,3.697714e-004
-5.008436e-004,4.013741e-004
-6.753879e-004,4.183910e-004
-7.943438e-004,4.292493e-004
-8.385876e-004,4.388112e-004
-8.155743e-004,4.378388e-004
-7.450759e-004,4.151496e-004
-6.390853e-004,3.631267e-004
-5.091089e-004,2.884145e-004
-3.801049e-004,2.049509e-004
-2.827037e-004,1.286181e-004
-2.318152e-004,6.800567e-005
-2.233878e-004,2.035846e-005
-2.357047e-004,-1.562004e-005
-2.442942e-004,-4.462973e-005
-2.323013e-004,-6.893953e-005
-2.024813e-004,-8.854943e-005
-1.663408e-004,-1.041077e-004
-1.415448e-004,-1.195039e-004
-1.400862e-004,-1.365208e-004
-1.707166e-004,-1.619650e-004
-2.342462e-004,-2.052365e-004
-3.165753e-004,-2.663351e-004
-3.919357e-004,-3.334301e-004
-4.425001e-004,-3.899909e-004
-4.760476e-004,-4.230522e-004
-5.123502e-004,-4.277521e-004
-5.629146e-004,-4.084663e-004
-6.270924e-004,-3.744326e-004
-6.956460e-004,-3.381300e-004
-7.528550e-004,-3.102548e-004
-7.817027e-004,-2.930758e-004
-7.690616e-004,-2.801106e-004
-7.074767e-004,-2.639041e-004
-5.979206e-004,-2.418632e-004
-4.634065e-004,-2.084778e-004
-3.334301e-004,-1.468929e-004
-2.352185e-004,-4.738484e-005
-1.828714e-004,7.853991e-005
-1.700683e-004,1.934442e-004
-1.733096e-004,2.525981e-004
-1.567789e-004,2.350950e-004
-9.600444e-005,1.487142e-004
5.286387e-006,2.554455e-005
1.172735e-004,-9.324933e-005
2.101370e-004,-1.793060e-004
2.782044e-004,-2.180396e-004
3.375204e-004,-2.141500e-004
3.944053e-004,-1.812508e-004
4.331389e-004,-1.365208e-004
4.318424e-004,-9.227693e-005
3.893813e-004,-5.694670e-005
3.256896e-004,-3.393342e-005
2.663737e-004,-2.534396e-005
2.247229e-004,-2.161646e-005
2.073819e-004,-1.302700e-005
2.128921e-004,7.879432e-006
2.287745e-004,4.288554e-005
2.394708e-004,8.388807e-005
2.329882e-004,1.205148e-004
2.102990e-004,1.445005e-004
1.877720e-004,1.550348e-004
1.914995e-004,1.543865e-004
2.472499e-004,1.488763e-004
3.597233e-004,1.448246e-004
5.020167e-004,1.475797e-004
6.336138e-004,1.564933e-004
7.186982e-004,1.697827e-004
7.423597e-004,1.816135e-004
7.099467e-004,1.895547e-004
6.417171e-004,1.914995e-004
5.584154e-004,1.900409e-004
4.736553e-004,1.895547e-004
3.900295e-004,1.978200e-004
3.007315e-004,2.179161e-004
2.013854e-004,2.495189e-004
9.328786e-005,2.848491e-004
-1.351319e-005,3.138588e-004
-1.063766e-004,3.279585e-004
-1.781716e-004,3.190449e-004
-2.246843e-004,2.850112e-004
-2.381357e-004,2.307193e-004
-2.196603e-004,1.676758e-004
-1.809267e-004,1.077117e-004
-1.303623e-004,6.119892e-005
-7.623246e-005,3.235129e-005
-2.890940e-005,1.501031e-005
-2.006553e-006,-3.951337e-006
-1.059602e-005,-3.020592e-005
-5.840528e-005,-6.423963e-005
-1.308485e-004,-9.875954e-005
-2.097743e-004,-1.261486e-004
-2.831898e-004,-1.397621e-004
-3.468815e-004,-1.396000e-004
-3.997148e-004,-1.279313e-004
-4.416897e-004,-1.141558e-004
-4.663236e-004,-1.034594e-004
-4.632444e-004,-9.794922e-005
-4.259694e-004,-1.013526e-004
-3.583881e-004,-1.149661e-004
-2.723315e-004,-1.363587e-004
-1.799543e-004,-1.582375e-004
-9.438378e-005,-1.760647e-004
-2.307504e-005,-1.874093e-004
2.765140e-005,-1.875713e-004
5.017848e-005,-1.765509e-004
4.450620e-005,-1.626133e-004
2.765140e-005,-1.553203e-004
3.105477e-005,-1.595340e-004
7.027458e-005,-1.754164e-004
1.260251e-004,-1.984297e-004
1.543865e-004,-2.152845e-004
1.205148e-004,-2.133397e-004
1.079661e-005,-1.890299e-004
-1.603444e-004,-1.488377e-004
-3.502849e-004,-1.054042e-004
-5.073262e-004,-6.683268e-005
-5.945173e-004,-3.377136e-005
-6.014861e-004,-1.844488e-006
-5.298533e-004,3.380988e-005
-3.752429e-004,7.448828e-005
-1.506204e-004,1.151667e-004
1.080358e-004,1.483901e-004
3.446512e-004,1.702689e-004
5.102821e-004,1.783722e-004
5.747841e-004,1.684862e-004
5.237334e-004,1.360731e-004
3.678266e-004,8.486046e-005
1.375317e-004,2.667901e-005
-1.144799e-004,-2.226472e-005
-3.264613e-004,-5.516398e-005
-4.433104e-004,-7.607040e-005
-4.324520e-004,-9.033215e-005
-3.060411e-004,-9.908367e-005
-1.125351e-004,-1.010285e-004
9.344993e-005,-9.422172e-005
2.728562e-004,-8.449780e-005
4.200116e-004,-7.590833e-005
5.595500e-004,-6.423963e-005
7.102708e-004,-3.733679e-005
8.640709e-004,6.582909e-006
9.891854e-004,5.925414e-005
1.049474e-003,1.088461e-004
1.018357e-003,1.443384e-004
8.959978e-004,1.631380e-004
7.102708e-004,1.652449e-004
5.010443e-004,1.556830e-004
3.102934e-004,1.378558e-004
1.658931e-004,1.174356e-004
7.432621e-005,9.944634e-005
3.008238e-005,8.583286e-005
3.056858e-005,8.129502e-005
8.340187e-005,8.956036e-005
2.021958e-004,1.054428e-004
3.854917e-004,1.216493e-004
6.063868e-004,1.313732e-004
8.206373e-004,1.352628e-004
9.872407e-004,1.370455e-004
1.081239e-003,1.420695e-004
1.100200e-003,1.514693e-004
1.062925e-003,1.613553e-004
1.003285e-003,1.702689e-004
9.507760e-004,1.770756e-004
9.055596e-004,1.816135e-004
8.361956e-004,1.827479e-004
7.028158e-004,1.816135e-004
4.921307e-004,1.769136e-004
2.295848e-004,1.676758e-004
-3.879538e-005,1.543865e-004
-2.687660e-004,1.401247e-004
-4.355313e-004,1.278078e-004
-5.397392e-004,1.163011e-004
-6.019723e-004,1.038221e-004
-6.523746e-004,8.761557e-005
-7.159042e-004,6.703327e-005
-8.089297e-004,4.175109e-005
-9.382577e-004,1.063454e-005
-1.085737e-003,-2.177852e-005
-1.215551e-003,-5.192267e-005
-1.288643e-003,-8.206682e-005
-1.278595e-003,-1.131834e-004
-1.196428e-003,-1.405724e-004
-1.091896e-003,-1.611547e-004
-1.024801e-003,-1.718510e-004
-1.022856e-003,-1.757406e-004
-1.074068e-003,-1.788198e-004
-1.132736e-003,-1.814128e-004
-1.137274e-003,-1.768750e-004
-1.034362e-003,-1.549962e-004
-8.167088e-004,-1.104282e-004
-5.259637e-004,-5.467778e-005
-2.293842e-004,-5.085794e-006
9.662150e-006,1.808955e-005
1.456350e-004,1.047248e-005
1.654069e-004,-1.999580e-005
1.052807e-004,-5.775702e-005
2.343770e-005,-8.919769e-005
-3.069211e-005,-1.105903e-004
-3.604027e-005,-1.237176e-004
-4.923729e-006,-1.357104e-004
3.575467e-005,-1.491618e-004
6.249545e-005,-1.603444e-004
5.568870e-005,-1.673132e-004
8.365628e-006,-1.716889e-004
-6.164659e-005,-1.718510e-004
-1.227452e-004,-1.686097e-004
-1.532135e-004,-1.627754e-004
-1.533756e-004,-1.554824e-004
-1.413827e-004,-1.441378e-004
-1.321450e-004,-1.261486e-004
-1.311726e-004,-1.003802e-004
-1.361966e-004,-7.104638e-005
-1.485136e-004,-4.430560e-005
-1.736337e-004,-2.258885e-005
-2.109087e-004,-3.303076e-006
-2.511010e-004,1.436204e-005
-2.752487e-004,3.089271e-005
-2.549905e-004,4.742337e-005
-1.580754e-004,6.816773e-005
2.003433e-005,9.280167e-005
2.462775e-004,1.122495e-004
4.699278e-004,1.154908e-004
6.444722e-004,9.717743e-005
7.360392e-004,6.492643e-005
7.360392e-004,3.186510e-005
6.603546e-004,8.041497e-006
5.341057e-004,-2.330684e-006
3.853296e-004,-2.492749e-006
2.428742e-004,4.638125e-006
1.393144e-004,1.889987e-005
9.101894e-005,4.061663e-005
9.523264e-005,7.157111e-005
1.266733e-004,1.132219e-004
1.495245e-004,1.579519e-004
1.383420e-004,1.889064e-004
8.259155e-005,1.953890e-004
-5.409925e-006,1.819376e-004
-9.843541e-005,1.715654e-004
-1.674752e-004,1.843686e-004
-1.904885e-004,2.185644e-004
-1.601823e-004,2.542187e-004
-9.211487e-005,2.722080e-004
-1.999580e-005,2.624841e-004
2.441009e-005,2.292607e-004
2.619281e-005,1.840444e-004
-9.785688e-006,1.334801e-004
-7.137051e-005,8.421220e-005
-1.451102e-004,3.964424e-005
-2.277635e-004,4.244267e-007
-3.297026e-004,-3.522994e-005
-4.574101e-004,-6.488790e-005
-5.993792e-004,-8.401160e-005
-7.319486e-004,-9.179074e-005
-8.306464e-004,-8.352541e-005
-8.784557e-004,-5.824322e-005
-8.706765e-004,-2.566809e-005
-8.181673e-004,1.002961e-007
-7.397278e-004,9.662150e-006
-6.431369e-004,7.879432e-006
-5.327704e-004,5.934648e-006
-4.139766e-004,8.365628e-006
-2.980999e-004,1.403791e-005
-1.919471e-004,1.857574e-005
-9.422172e-005,1.727922e-005
1.209313e-005,7.879432e-006
1.401247e-004,-8.975362e-006
2.889007e-004,-2.858527e-005
4.478869e-004,-4.673658e-005
6.068730e-004,-6.099833e-005
7.564594e-004,-7.396356e-005
8.789809e-004,-8.514606e-005
9.546655e-004,-9.389759e-005
9.681169e-004,-1.032974e-004
9.222524e-004,-1.102662e-004
8.451093e-004,-1.120489e-004
7.718556e-004,-1.086455e-004
7.269635e-004,-1.005423e-004
7.146465e-004,-9.260107e-005
7.165913e-004,-8.919769e-005
7.062191e-004,-9.243900e-005
6.635960e-004,-1.005423e-004
5.840218e-004,-1.122110e-004
4.781931e-004,-1.222590e-004
3.581026e-004,-1.274451e-004
2.346088e-004,-1.266348e-004
1.265113e-004,-1.212866e-004
5.390598e-005,-1.178833e-004
2.651694e-005,-1.178833e-004
3.575467e-005,-1.188556e-004
6.265751e-005,-1.177212e-004
9.118101e-005,-1.114006e-004
1.101427e-004,-9.875954e-005
1.159770e-004,-8.060823e-005
1.119254e-004,-6.213279e-005
1.067393e-004,-4.916756e-005
1.052807e-004,-4.219875e-005
1.031738e-004,-3.717473e-005
8.907416e-005,-3.377136e-005
5.455425e-005,-3.409549e-005
-8.720959e-007,-3.879538e-005
-6.407757e-005,-4.851930e-005
-1.229073e-004,-5.759496e-005
-1.733096e-004,-5.856735e-005
-2.141500e-004,-4.949169e-005
-2.459149e-004,-3.101625e-005
-2.613110e-004,-3.951337e-006
-2.575835e-004,2.910999e-005
-2.266291e-004,6.444023e-005
-1.524032e-004,9.685330e-005
-1.950961e-005,1.240803e-004
1.701068e-004,1.467694e-004
3.859779e-004,1.680000e-004
5.764047e-004,1.867996e-004
6.929298e-004,2.023578e-004
7.143224e-004,2.135403e-004
6.499824e-004,2.208333e-004
5.352402e-004,2.294227e-004
4.161220e-004,2.428742e-004
3.339549e-004,2.605393e-004
3.106175e-004,2.783665e-004
3.397893e-004,2.906835e-004
3.940812e-004,2.979764e-004
4.365423e-004,2.997591e-004
4.339493e-004,2.927903e-004
3.704196e-004,2.728562e-004
2.564877e-004,2.412535e-004
1.122495e-004,2.008992e-004
-4.997789e-005,1.603829e-004
-2.326255e-004,1.250527e-004
-4.378002e-004,9.571884e-005
-6.533470e-004,7.643307e-005
-8.497701e-004,6.735741e-005
-9.982219e-004,6.346784e-005
-1.083630e-003,5.925414e-005
-1.100323e-003,4.855783e-005
-1.054783e-003,3.170304e-005
-9.619193e-004,1.241726e-005
-8.434496e-004,-5.247859e-006
-7.207661e-004,-2.404744e-005
-6.039171e-004,-5.030202e-005
-4.906334e-004,-8.498399e-005
-3.749188e-004,-1.219349e-004
-2.579077e-004,-1.535376e-004
-1.460826e-004,-1.747682e-004
-4.495386e-005,-1.844921e-004
4.855783e-005,-1.849783e-004
1.404489e-004,-1.831956e-004
2.333123e-004,-1.827094e-004
3.269861e-004,-1.836818e-004
4.250357e-004,-1.861127e-004
5.290816e-004,-1.880575e-004
6.358828e-004,-1.893541e-004
7.274497e-004,-1.903264e-004
7.762314e-004,-1.906506e-004
7.656972e-004,-1.917850e-004
6.921195e-004,-1.904885e-004
5.663567e-004,-1.789819e-004
4.057499e-004,-1.514308e-004
2.258573e-004,-1.032974e-004
3.591673e-005,-4.673658e-005
-1.575893e-004,1.558884e-006
-3.389403e-004,3.218923e-005
-4.852853e-004,4.742337e-005
-5.723144e-004,5.390598e-005
-5.880346e-004,5.974033e-005
-5.413599e-004,6.703327e-005
-4.624341e-004,6.946425e-005
-3.951770e-004,5.682316e-005
-3.695707e-004,3.154097e-005
-3.791325e-004,2.693341e-006
-4.014975e-004,-2.129233e-005
-4.228902e-004,-3.506788e-005
-4.416897e-004,-3.587821e-005
-4.590307e-004,-2.842320e-005
-4.655133e-004,-2.096820e-005
-4.340726e-004,-1.610624e-005
-3.365093e-004,-1.318906e-005
-1.700683e-004,-5.734056e-006
2.246531e-005,6.258778e-006
1.838824e-004,2.214118e-005
2.681563e-004,3.737532e-005
2.681563e-004,4.985435e-005
2.109473e-004,5.633696e-005
1.342904e-004,5.811968e-005
6.784360e-005,5.909208e-005
2.376183e-005,6.606088e-005
-5.479652e-007,7.983644e-005
-1.075808e-005,9.361199e-005
-9.947754e-006,1.005808e-004
1.883015e-006,9.879808e-005
2.635488e-005,8.875003e-005
6.217132e-005,7.610894e-005
1.017153e-004,7.238143e-005
1.376938e-004,7.983644e-005
1.658931e-004,9.539470e-005
1.799928e-004,1.125736e-004
1.785342e-004,1.284560e-004
1.654069e-004,1.409351e-004
1.461212e-004,1.487142e-004
1.198666e-004,1.508211e-004
8.615699e-005,1.483901e-004
5.212327e-005,1.423936e-004
3.040651e-005,1.344524e-004
3.186510e-005,1.265113e-004
5.601284e-005,1.203528e-004
9.652917e-005,1.161391e-004
1.448246e-004,1.127357e-004
1.825859e-004,1.069013e-004
1.970097e-004,9.507057e-005
1.952270e-004,7.578480e-005
1.950649e-004,5.487838e-005
2.109473e-004,3.640293e-005
2.440086e-004,2.327564e-005
2.795009e-004,1.322759e-005
2.970040e-004,3.017472e-006
2.932765e-004,-5.571990e-006
2.790148e-004,-1.399939e-005
2.668598e-004,-1.934754e-005
2.631324e-004,-2.631635e-005
2.662116e-004,-3.539201e-005
2.796630e-004,-4.381940e-005
3.049452e-004,-5.159854e-005
3.302274e-004,-6.423963e-005
3.292550e-004,-8.530812e-005
2.748010e-004,-1.149661e-004
1.526038e-004,-1.481895e-004
-2.761287e-005,-1.775233e-004
-2.374874e-004,-2.018331e-004
-4.403932e-004,-2.229016e-004
-6.055377e-004,-2.449425e-004
-7.152559e-004,-2.677937e-004
-7.641996e-004,-2.878898e-004
-7.582033e-004,-3.008550e-004
-7.141214e-004,-3.019894e-004
-6.492953e-004,-2.880518e-004
-5.728005e-004,-2.627696e-004
-4.911196e-004,-2.319772e-004
-4.188385e-004,-1.995642e-004
-3.724878e-004,-1.692580e-004
-3.653570e-004,-1.446240e-004
-3.998769e-004,-1.256624e-004
-4.600031e-004,-1.075111e-004
-5.146191e-004,-8.417367e-005
-5.423322e-004,-5.856735e-005
-5.334187e-004,-3.263690e-005
-4.946851e-004,-1.351319e-005
-4.368278e-004,-8.489166e-006
-3.698948e-004,-1.950961e-005
-3.044204e-004,-4.252288e-005
-2.525595e-004,-6.359137e-005
-2.191741e-004,-7.201877e-005
-1.984297e-004,-6.326724e-005
-1.708786e-004,-4.025397e-005
-1.232314e-004,-9.461558e-006
-5.565017e-005,2.116879e-005
2.376183e-005,4.742337e-005
9.750156e-005,6.849186e-005
1.448246e-004,8.567078e-005
1.482280e-004,9.555677e-005
1.052807e-004,9.361199e-005
3.543054e-005,8.048470e-005
-2.874733e-005,6.265751e-005
-5.921561e-005,4.450620e-005
-4.430560e-005,3.235129e-005
1.112074e-005,3.316162e-005
9.879808e-005,4.953022e-005
2.133783e-004,7.497447e-005
3.632887e-004,1.025256e-004
5.577672e-004,1.315353e-004
7.885484e-004,1.598967e-004
1.019978e-003,1.861513e-004
1.204571e-003,2.124059e-004
1.309427e-003,2.423880e-004
1.332764e-003,2.754493e-004
1.294031e-003,3.059176e-004
1.216239e-003,3.240689e-004
1.115272e-003,3.276344e-004
9.993956e-004,3.243930e-004
8.723363e-004,3.192070e-004
7.326358e-004,3.111037e-004
5.877494e-004,3.000832e-004
4.649037e-004,2.884145e-004
3.875985e-004,2.770700e-004
3.534027e-004,2.626462e-004
3.274723e-004,2.425500e-004
2.733424e-004,2.161334e-004
1.851789e-004,1.889064e-004
8.405014e-005,1.683241e-004
-4.437533e-006,1.569795e-004
-7.169464e-005,1.539003e-004
-1.222590e-004,1.526038e-004
-1.661787e-004,1.412592e-004
-2.126914e-004,1.130598e-004
-2.588801e-004,6.832980e-005
-2.940482e-004,1.144487e-005
-3.136581e-004,-4.851930e-005
-3.311612e-004,-1.063766e-004
-3.634122e-004,-1.567789e-004
-4.178661e-004,-1.982676e-004
-4.820440e-004,-2.229016e-004
-5.360117e-004,-2.173914e-004
-5.619422e-004,-1.794681e-004
-5.546492e-004,-1.267968e-004
-5.176983e-004,-8.498399e-005
-4.574101e-004,-7.104638e-005
-3.838324e-004,-8.968389e-005
-3.141443e-004,-1.289037e-004
-2.771934e-004,-1.741199e-004
-3.039342e-004,-2.156086e-004
-4.123559e-004,-2.462390e-004
-5.924104e-004,-2.648765e-004
-8.055263e-004,-2.739521e-004
-9.975737e-004,-2.734659e-004
-1.120095e-003,-2.632558e-004
-1.144243e-003,-2.438080e-004
-1.067910e-003,-2.143121e-004
-9.068170e-004,-1.814128e-004
-6.864083e-004,-1.533756e-004
-4.314796e-004,-1.376552e-004
-1.593720e-004,-1.358725e-004
1.151667e-004,-1.426792e-004
3.700955e-004,-1.522411e-004
5.793219e-004,-1.572651e-004
7.183740e-004,-1.561307e-004
7.783383e-004,-1.515928e-004
7.744487e-004,-1.451102e-004
7.353909e-004,-1.339277e-004
6.945504e-004,-1.146419e-004
6.707268e-004,-8.709085e-005
6.545202e-004,-5.192267e-005
6.308587e-004,-1.189254e-005
5.937457e-004,3.008238e-005
5.439916e-004,6.995045e-005
4.804620e-004,1.015532e-004
4.002396e-004,1.184080e-004
3.094830e-004,1.195424e-004
2.159713e-004,1.109530e-004
1.229458e-004,1.015532e-004
3.267542e-005,9.182927e-005
-5.532604e-005,8.323981e-005
-1.383035e-004,7.999851e-005
-2.122053e-004,8.712937e-005
-2.692523e-004,1.028497e-004
-3.036101e-004,1.239182e-004
-3.152788e-004,1.432040e-004
-3.092824e-004,1.560072e-004
-2.925897e-004,1.611932e-004
-2.723315e-004,1.650828e-004
-2.511010e-004,1.675138e-004
-2.204706e-004,1.662173e-004
-1.575893e-004,1.610312e-004
-4.446767e-005,1.560072e-004
1.047945e-004,1.555210e-004
2.504913e-004,1.608691e-004
3.566440e-004,1.663793e-004
4.201737e-004,1.680000e-004
4.610142e-004,1.670276e-004
5.008822e-004,1.694586e-004
5.486915e-004,1.798307e-004
5.982835e-004,1.960373e-004
6.371793e-004,2.111094e-004
6.512789e-004,2.201850e-004
6.300483e-004,2.237505e-004
5.780254e-004,2.221298e-004
5.128751e-004,2.149989e-004
4.524247e-004,2.031682e-004
4.140152e-004,1.877720e-004
4.067223e-004,1.756171e-004
4.193634e-004,1.699448e-004
4.297355e-004,1.671896e-004
4.209840e-004,1.608691e-004
3.901916e-004,1.472556e-004
3.414099e-004,1.224596e-004
2.759355e-004,8.307774e-005
1.940925e-004,2.813760e-005
9.652917e-005,-3.814712e-005
-1.950961e-005,-1.102662e-004
-1.579134e-004,-1.835197e-004
-3.259751e-004,-2.538560e-004
-5.173742e-004,-3.136581e-004
-7.120146e-004,-3.496366e-004
-8.816970e-004,-3.523917e-004
-1.003570e-003,-3.220855e-004
-1.068882e-003,-2.686040e-004
-1.082820e-003,-2.073433e-004
-1.055755e-003,-1.524032e-004
-1.004056e-003,-1.191798e-004
-9.445783e-004,-1.191798e-004
-8.946622e-004,-1.520790e-004
-8.523631e-004,-2.084778e-004
-8.003402e-004,-2.739521e-004
-7.215765e-004,-3.298647e-004
-6.199615e-004,-3.575778e-004
-5.053814e-004,-3.438023e-004
-3.875599e-004,-2.856209e-004
-2.684419e-004,-1.953505e-004
-1.509446e-004,-9.940781e-005
-3.474375e-005,-1.918548e-005
8.113296e-005,3.267542e-005
1.892305e-004,5.244739e-005
2.782044e-004,4.855783e-005
3.386548e-004,2.878586e-005
3.640991e-004,5.864920e-007
3.558337e-004,-3.069211e-005
3.232586e-004,-5.759496e-005
2.777182e-004,-7.185670e-005
2.180782e-004,-7.315322e-005
1.396385e-004,-6.099833e-005
3.170304e-005,-4.090223e-005
-1.076731e-004,-2.275091e-005
-2.629317e-004,-1.383732e-005
-3.979321e-004,-1.545797e-005
-4.694029e-004,-2.307504e-005
-4.486585e-004,-3.020592e-005
-3.269475e-004,-3.166451e-005
-1.224211e-004,-2.550602e-005
1.140322e-004,-1.092015e-005
3.151553e-004,1.047248e-005
4.261701e-004,3.267542e-005
4.286011e-004,5.115087e-005
3.412479e-004,6.168512e-005
2.133783e-004,6.638502e-005
9.831188e-005,6.962632e-005
3.024445e-005,7.756752e-005
2.246531e-005,9.490851e-005
6.865393e-005,1.210010e-004
1.466074e-004,1.485521e-004
2.295848e-004,1.684862e-004
2.931144e-004,1.791825e-004
3.218000e-004,1.845306e-004
3.073762e-004,1.892305e-004
2.490327e-004,1.973338e-004
1.623277e-004,2.111094e-004
6.703327e-005,2.295848e-004
-2.226472e-005,2.478982e-004
-1.024871e-004,2.566497e-004
-1.823853e-004,2.519498e-004
-2.702246e-004,2.370398e-004
-3.684362e-004,2.169437e-004
-4.723200e-004,1.987924e-004
-5.838210e-004,1.872858e-004
-7.027769e-004,1.803169e-004
-8.269189e-004,1.739964e-004
-9.546264e-004,1.626518e-004
-1.072286e-003,1.415833e-004
-1.153480e-003,1.107909e-004
-1.165797e-003,7.562274e-005
-1.088492e-003,3.996837e-005
-9.194582e-004,1.128280e-005
-6.834911e-004,-7.192643e-006
-4.269418e-004,-1.788895e-005
-1.974573e-004,-2.728874e-005
-2.226472e-005,-4.138842e-005
9.750156e-005,-5.808115e-005
1.832341e-004,-7.234290e-005
2.579462e-004,-8.287715e-005
3.393030e-004,-9.211487e-005
4.425387e-004,-1.045939e-004
5.789978e-004,-1.198280e-004
7.417115e-004,-1.327933e-004
9.079906e-004,-1.387897e-004
1.045260e-003,-1.384655e-004
1.140069e-003,-1.326312e-004
1.201653e-003,-1.186936e-004
1.239415e-003,-9.730096e-005
1.253839e-003,-7.201877e-005
1.241846e-003,-4.673658e-005
1.213160e-003,-2.712668e-005
1.178964e-003,-1.934754e-005
1.145741e-003,-2.988179e-005
1.104090e-003,-5.597430e-005
1.038778e-003,-8.838737e-005
9.421865e-004,-1.195039e-004
8.220959e-004,-1.478653e-004
6.995744e-004,-1.741199e-004
5.893700e-004,-1.990780e-004
4.932652e-004,-2.235498e-004
3.994293e-004,-2.441321e-004
2.966799e-004,-2.590421e-004
1.869616e-004,-2.647144e-004
8.729144e-005,-2.614731e-004
1.971020e-005,-2.522354e-004
-8.975362e-006,-2.376495e-004
-6.058186e-006,-2.172293e-004
4.638125e-006,-1.925954e-004
-7.354709e-006,-1.655305e-004
-5.646050e-005,-1.410586e-004
-1.396000e-004,-1.235555e-004
-2.412149e-004,-1.133454e-004
-3.412093e-004,-1.050801e-004
-4.149489e-004,-9.503204e-005
-4.491447e-004,-8.417367e-005
-4.493068e-004,-7.493595e-005
-4.306693e-004,-6.537409e-005
-4.092767e-004,-5.273300e-005
-3.950149e-004,-3.539201e-005
-3.909633e-004,-1.302700e-005
-3.951770e-004,1.322759e-005
-3.955011e-004,3.980630e-005
-3.752429e-004,6.168512e-005
-3.287302e-004,7.870197e-005
-2.645523e-004,9.474644e-005
-2.078295e-004,1.122495e-004
-1.818991e-004,1.312112e-004
-1.950263e-004,1.469315e-004
-2.395943e-004,1.548727e-004
-3.008550e-004,1.564933e-004
-3.689224e-004,1.566554e-004
-4.181903e-004,1.626518e-004
-4.073319e-004,1.799928e-004
-3.052308e-004,2.051129e-004
-1.188556e-004,2.308813e-004
1.083599e-004,2.470879e-004
3.177483e-004,2.511395e-004
4.619866e-004,2.410915e-004
5.204921e-004,2.213195e-004
4.986133e-004,2.028440e-004
4.196875e-004,1.939304e-004
3.128864e-004,1.984683e-004
2.073819e-004,2.161334e-004
1.286181e-004,2.419018e-004
8.161915e-005,2.670219e-004
5.601284e-005,2.816078e-004
3.154097e-005,2.833905e-004
-4.275467e-006,2.749631e-004
-5.289507e-005,2.577842e-004
-1.094559e-004,2.372019e-004
-1.630995e-004,2.151610e-004
-1.968091e-004,1.955511e-004
-1.861127e-004,1.796687e-004
-1.204763e-004,1.678379e-004
-2.194059e-005,1.558451e-004
7.351589e-005,1.409351e-004
1.363972e-004,1.295905e-004
1.485521e-004,1.226217e-004
1.022015e-004,1.163011e-004
7.879432e-006,1.069013e-004
-1.110765e-004,9.231547e-005
-2.274394e-004,7.270556e-005
-3.207890e-004,5.244739e-005
-3.859393e-004,3.235129e-005
-4.284004e-004,1.047248e-005
-4.507654e-004,-1.221667e-005
-4.578962e-004,-3.506788e-005
-4.596790e-004,-5.743289e-005
-4.651892e-004,-8.012204e-005
-4.765338e-004,-1.036215e-004
-4.820440e-004,-1.235555e-004
-4.791268e-004,-1.379794e-004
-4.689167e-004,-1.447861e-004
-4.546549e-004,-1.496481e-004
-4.352071e-004,-1.553203e-004
-4.065215e-004,-1.637477e-004
-3.656811e-004,-1.754164e-004
-3.146305e-004,-1.891920e-004
-2.614731e-004,-2.002124e-004
-2.128535e-004,-2.039399e-004
-1.744440e-004,-1.982676e-004
-1.442999e-004,-1.853024e-004
-1.086455e-004,-1.684476e-004
-5.111234e-005,-1.501342e-004
3.073064e-005,-1.339277e-004
1.211631e-004,-1.196660e-004
1.965235e-004,-1.076731e-004
2.381743e-004,-9.859748e-005
2.354192e-004,-8.790117e-005
1.872858e-004,-7.639453e-005
1.065772e-004,-6.764301e-005
1.322759e-005,-6.521203e-005
-7.882551e-005,-6.877746e-005
-1.601823e-004,-7.655660e-005
-2.250084e-004,-8.044617e-005
-2.716832e-004,-7.639453e-005
-3.029619e-004,-6.715681e-005
-3.237062e-004,-6.197072e-005
-3.365093e-004,-6.440170e-005
-3.378059e-004,-7.169464e-005
-3.118754e-004,-8.158062e-005
-2.434839e-004,-8.887356e-005
-1.349001e-004,-9.049421e-005
-8.975362e-006,-9.098041e-005
1.043083e-004,-9.503204e-005
1.816135e-004,-1.031353e-004
2.085163e-004,-1.114006e-004
1.884202e-004,-1.120489e-004
1.410971e-004,-1.002181e-004
9.377406e-005,-7.428769e-005
6.362991e-005,-4.074016e-005
5.682316e-005,-7.678839e-006
7.286763e-005,1.889987e-005
1.009049e-004,3.802358e-005
1.252147e-004,4.953022e-005
1.334801e-004,5.682316e-005
1.201907e-004,6.460230e-005
8.453633e-005,7.529860e-005
2.586868e-005,9.004655e-005
-5.840528e-005,1.081979e-004
-1.645581e-004,1.287802e-004
-2.728177e-004,1.445005e-004
-3.583881e-004,1.534141e-004
-3.979321e-004,1.589243e-004
-3.818876e-004,1.608691e-004
-3.113892e-004,1.626518e-004
-1.969711e-004,1.658931e-004
-4.997789e-005,1.710792e-004
1.216493e-004,1.762653e-004
3.059176e-004,1.795066e-004
4.905101e-004,1.788584e-004
6.648925e-004,1.743205e-004
8.165857e-004,1.652449e-004
9.391072e-004,1.521176e-004
1.041857e-003,1.404489e-004
1.130020e-003,1.316974e-004
1.191443e-003,1.265113e-004
1.204733e-003,1.266733e-004
1.163730e-003,1.363972e-004
1.079294e-003,1.577899e-004
9.758961e-004,1.914995e-004
8.804395e-004,2.279642e-004
8.075100e-004,2.553532e-004
7.447907e-004,2.673460e-004
6.629477e-004,2.595669e-004
5.394538e-004,2.313675e-004
3.783608e-004,1.829100e-004
2.083542e-004,1.203528e-004
6.314371e-005,5.212327e-005
-2.761287e-005,-1.075808e-005
-6.002594e-005,-5.613637e-005
-6.018800e-005,-7.671866e-005
-5.824322e-005,-8.077030e-005
-6.294311e-005,-8.255302e-005
-5.694670e-005,-9.470791e-005
-1.934754e-005,-1.219349e-004
5.974033e-005,-1.627754e-004
1.662173e-004,-2.071812e-004
2.666978e-004,-2.464010e-004
3.292550e-004,-2.744383e-004
3.336308e-004,-2.942103e-004
2.785285e-004,-3.079858e-004
1.812893e-004,-3.211132e-004
7.092284e-005,-3.391024e-004
-3.150244e-005,-3.638984e-004
-1.151281e-004,-3.896668e-004
-1.851404e-004,-4.097628e-004
-2.541802e-004,-4.196489e-004
-3.206269e-004,-4.151110e-004
-3.755671e-004,-3.938804e-004
-4.120317e-004,-3.587123e-004
-4.241867e-004,-3.131719e-004
-4.006872e-004,-2.600145e-004
-3.360231e-004,-1.982676e-004
-2.446183e-004,-1.282554e-004
-1.587237e-004,-6.035007e-005
-1.183694e-004,-7.516774e-006
-1.392759e-004,2.359977e-005
-2.019951e-004,3.624086e-005
-2.666592e-004,4.175109e-005
-3.016653e-004,5.115087e-005
-2.982619e-004,6.865393e-005
-2.695764e-004,9.280167e-005
-2.339220e-004,1.175977e-004
-2.167431e-004,1.396385e-004
-2.342462e-004,1.574657e-004
-2.898345e-004,1.730240e-004
-3.796187e-004,1.861513e-004
-4.898231e-004,1.940925e-004
-6.000275e-004,1.927960e-004
-6.901358e-004,1.806411e-004
-7.518827e-004,1.589243e-004
-7.842957e-004,1.346145e-004
-7.878611e-004,1.145184e-004
-7.638755e-004,9.896015e-005
-7.181731e-004,8.729144e-005
-6.548056e-004,8.113296e-005
-5.813900e-004,8.032264e-005
-5.027883e-004,7.999851e-005
-4.225660e-004,7.805372e-005
-3.457471e-004,7.367795e-005
-2.778417e-004,6.914012e-005
-2.191741e-004,6.606088e-005
-1.660166e-004,6.995045e-005
-1.136696e-004,8.048470e-005
-6.699475e-005,9.733949e-005
-3.749886e-005,1.222976e-004
-3.344723e-005,1.571416e-004
-4.511593e-005,2.007372e-004
-5.727083e-005,2.491947e-004
-6.359137e-005,2.932765e-004
-6.537409e-005,3.240689e-004
-6.521203e-005,3.414099e-004
-6.116039e-005,3.527545e-004
-4.171256e-005,3.610198e-004
-3.303076e-006,3.636129e-004
5.082674e-005,3.574544e-004
1.064152e-004,3.435168e-004
1.503349e-004,3.214759e-004
1.851789e-004,2.890628e-004
2.248849e-004,2.514636e-004
2.838767e-004,2.159713e-004
3.642611e-004,1.853410e-004
4.556660e-004,1.545486e-004
5.389676e-004,1.219734e-004
6.063868e-004,9.020862e-005
6.566271e-004,5.990240e-005
6.827196e-004,2.635488e-005
6.708889e-004,-1.189254e-005
6.141660e-004,-5.402952e-005
5.157923e-004,-9.438378e-005
3.922984e-004,-1.298761e-004
2.658874e-004,-1.608306e-004
1.488763e-004,-1.912988e-004
3.948217e-005,-2.220912e-004
-6.715681e-005,-2.509389e-004
-1.718510e-004,-2.733039e-004
-2.754107e-004,-2.908069e-004
-3.755671e-004,-3.050687e-004
-4.677822e-004,-3.178718e-004
-5.486528e-004,-3.327818e-004
-6.196374e-004,-3.476919e-004
-6.797637e-004,-3.463953e-004
-7.225489e-004,-3.123616e-004
-7.351899e-004,-2.407288e-004
-7.118525e-004,-1.446240e-004
-6.554538e-004,-5.597430e-005
-5.677765e-004,-4.437533e-006
-4.382863e-004,2.207145e-006
-2.609869e-004,-2.437157e-005
-4.381940e-005,-6.342931e-005
1.923098e-004,-9.924574e-005
4.224426e-004,-1.237176e-004
6.170832e-004,-1.381414e-004
7.498147e-004,-1.477033e-004
8.110755e-004,-1.528894e-004
8.099410e-004,-1.543479e-004
7.679661e-004,-1.532135e-004
7.109190e-004,-1.504584e-004
6.592202e-004,-1.483515e-004
6.212969e-004,-1.423551e-004
5.935837e-004,-1.280934e-004
5.715428e-004,-1.010285e-004
5.462606e-004,-6.861539e-005
5.089855e-004,-4.025397e-005
4.579349e-004,-2.404744e-005
4.098015e-004,-1.886135e-005
3.965121e-004,-1.562004e-005
4.376768e-004,-1.075808e-005
5.214646e-004,-1.358292e-006
6.099523e-004,1.387585e-005
6.603546e-004,3.624086e-005
6.462549e-004,6.022653e-005
5.621430e-004,7.740546e-005
4.203358e-004,7.918817e-005
2.501671e-004,6.152305e-005
7.772959e-005,2.862379e-005
-7.704279e-005,-3.465141e-006
-2.036158e-004,-2.534396e-005
-2.958309e-004,-3.441962e-005
-3.491504e-004,-3.215070e-005
-3.614674e-004,-2.145439e-005
-3.382920e-004,-6.868513e-006
-2.940482e-004,6.582909e-006
-2.410529e-004,1.549650e-005
-1.912988e-004,2.052053e-005
-1.517549e-004,2.797553e-005
-1.277692e-004,4.466826e-005
-1.259865e-004,6.962632e-005
-1.436516e-004,9.458438e-005
-1.755785e-004,1.137081e-004
-2.078295e-004,1.253768e-004
-2.269532e-004,1.297526e-004
-2.306807e-004,1.278078e-004
-2.295462e-004,1.205148e-004
-2.306807e-004,1.101427e-004
-2.368392e-004,1.020394e-004
-2.384598e-004,1.026876e-004
-2.233878e-004,1.132219e-004
-1.870851e-004,1.300767e-004
-1.365208e-004,1.539003e-004
-8.579432e-005,1.822617e-004
-4.803310e-005,2.137024e-004
-3.620233e-005,2.422259e-004
-5.905355e-005,2.572980e-004
-1.199901e-004,2.501671e-004
-2.102605e-004,2.196988e-004
-3.146305e-004,1.769136e-004
-4.165696e-004,1.297526e-004
-5.001953e-004,8.307774e-005
-5.507597e-004,4.029250e-005
-5.642111e-004,6.420843e-006
-5.439529e-004,-1.707863e-005
-4.984126e-004,-2.955766e-005
-4.369898e-004,-3.182657e-005
-3.660052e-004,-3.069211e-005
-2.909690e-004,-3.150244e-005
-2.190120e-004,-3.490581e-005
-1.579134e-004,-3.587821e-005
-1.186936e-004,-3.231277e-005
-1.028112e-004,-2.485776e-005
-1.073490e-004,-1.302700e-005
-1.235555e-004,3.341602e-006
-1.421931e-004,2.343770e-005
-1.572651e-004,4.709924e-005
-1.592099e-004,6.816773e-005
