9.013889e-006,2.388225e-004
7.059871e-005,2.088404e-004
1.355869e-004,1.773998e-004
1.955511e-004,1.459591e-004
2.360674e-004,1.166253e-004
2.444948e-004,8.923623e-005
2.182402e-004,6.022653e-005
1.701068e-004,2.424803e-005
1.229458e-004,-1.562004e-005
9.101894e-005,-5.127441e-005
6.508849e-005,-7.947377e-005
2.667901e-005,-1.015147e-004
-3.717473e-005,-1.208004e-004
-1.143178e-004,-1.433275e-004
-1.844921e-004,-1.705545e-004
-2.387840e-004,-2.031296e-004
-2.791382e-004,-2.410529e-004
-3.081479e-004,-2.823795e-004
-3.214373e-004,-3.230579e-004
-3.081479e-004,-3.579019e-004
-2.592042e-004,-3.822118e-004
-1.770371e-004,-3.945287e-004
-7.218083e-005,-4.003631e-004
3.721326e-005,-4.071698e-004
1.287802e-004,-4.204592e-004
1.845306e-004,-4.418518e-004
1.927960e-004,-4.664857e-004
1.556830e-004,-4.856094e-004
9.312580e-005,-4.977643e-004
3.056858e-005,-5.057055e-004
-1.626830e-005,-5.112157e-004
-4.722278e-005,-5.152673e-004
-6.845333e-005,-5.183466e-004
-8.401160e-005,-5.176983e-004
-8.676672e-005,-5.123502e-004
-6.261898e-005,-5.001953e-004
-1.173047e-005,-4.823681e-004
3.899597e-005,-4.553032e-004
4.888196e-005,-4.178661e-004
-2.816880e-006,-3.707051e-004
-1.044318e-004,-3.146305e-004
-2.154466e-004,-2.473734e-004
-2.935620e-004,-1.629374e-004
-3.177098e-004,-5.953974e-005
-2.929138e-004,5.115087e-005
-2.263049e-004,1.496866e-004
-1.280934e-004,2.141886e-004
-2.015787e-005,2.342847e-004
6.184718e-005,2.151610e-004
8.696731e-005,1.704310e-004
5.455425e-005,1.112771e-004
-8.165035e-006,4.450620e-005
-6.650855e-005,-1.886135e-005
-1.084835e-004,-6.667062e-005
-1.470550e-004,-8.644259e-005
-2.024813e-004,-7.914964e-005
-2.776796e-004,-5.111234e-005
-3.536883e-004,-1.399939e-005
-3.984183e-004,2.489629e-005
-3.890185e-004,5.795762e-005
-3.332680e-004,8.226741e-005
-2.598524e-004,9.847395e-005
-1.987538e-004,1.065772e-004
-1.618029e-004,1.028497e-004
-1.376552e-004,8.599492e-005
-1.075111e-004,6.006447e-005
-6.261898e-005,3.413401e-005
-1.520357e-006,1.468618e-005
6.978839e-005,2.855407e-006
1.415833e-004,-2.330684e-006
2.051129e-004,-5.479652e-007
2.478982e-004,1.396819e-006
2.621599e-004,-1.520357e-006
2.472499e-004,-1.173047e-005
2.117576e-004,-2.696461e-005
1.710792e-004,-4.819517e-005
1.433661e-004,-7.023606e-005
1.378558e-004,-8.838737e-005
1.462832e-004,-1.013526e-004
1.603829e-004,-1.109144e-004
1.741585e-004,-1.165867e-004
1.853410e-004,-1.139937e-004
1.853410e-004,-9.584238e-005
1.607070e-004,-5.824322e-005
1.077117e-004,-4.275467e-006
3.040651e-005,6.217132e-005
-6.067420e-005,1.341283e-004
-1.559686e-004,2.101370e-004
-2.391081e-004,2.945730e-004
-2.903207e-004,3.921364e-004
-2.979378e-004,5.046097e-004
-2.637420e-004,6.206486e-004
-2.010227e-004,7.182120e-004
-1.300382e-004,7.757452e-004
-7.169464e-005,7.840106e-004
-3.863332e-005,7.449528e-004
-3.506788e-005,6.682958e-004
-5.970181e-005,5.644119e-004
-1.097800e-004,4.431870e-004
-1.815749e-004,3.156415e-004
-2.645523e-004,1.950649e-004
-3.386162e-004,9.701536e-005
-3.854531e-004,2.748934e-005
-3.880461e-004,-1.707863e-005
-3.335922e-004,-4.479180e-005
-2.182017e-004,-6.197072e-005
-5.532604e-005,-7.347736e-005
1.231079e-004,-8.611845e-005
2.772320e-004,-1.054042e-004
3.681507e-004,-1.345760e-004
3.765781e-004,-1.784957e-004
3.164518e-004,-2.332737e-004
2.252090e-004,-2.906449e-004
1.451488e-004,-3.407231e-004
1.022015e-004,-3.776739e-004
9.847395e-005,-4.036044e-004
1.200286e-004,-4.212695e-004
1.474177e-004,-4.337485e-004
1.586002e-004,-4.381243e-004
1.399627e-004,-4.279142e-004
1.004187e-004,-4.019837e-004
7.432621e-005,-3.637363e-004
9.069481e-005,-3.256510e-004
1.354248e-004,-2.987481e-004
1.574657e-004,-2.901587e-004
1.049566e-004,-3.071755e-004
-2.453363e-005,-3.502849e-004
-1.665028e-004,-4.068457e-004
-2.335979e-004,-4.549791e-004
-1.750923e-004,-4.757234e-004
1.234753e-006,-4.650271e-004
2.394708e-004,-4.219178e-004
4.650658e-004,-3.499608e-004
6.174073e-004,-2.580697e-004
6.621373e-004,-1.622891e-004
5.987698e-004,-7.688073e-005
4.584211e-004,-5.571990e-006
2.840388e-004,5.406805e-005
1.156529e-004,1.070634e-004
-7.192643e-006,1.605450e-004
-5.581224e-005,2.128921e-004
-3.279896e-005,2.543808e-004
3.575467e-005,2.762596e-004
1.192183e-004,2.793389e-004
1.889064e-004,2.660495e-004
2.239125e-004,2.401191e-004
2.221298e-004,2.073819e-004
1.893926e-004,1.739964e-004
1.396385e-004,1.457970e-004
8.988449e-005,1.297526e-004
5.633696e-005,1.307250e-004
4.823370e-005,1.498487e-004
5.795762e-005,1.778860e-004
6.589881e-005,1.976579e-004
5.406805e-005,1.882582e-004
2.829966e-005,1.338042e-004
-1.196227e-006,3.445814e-005
-2.923353e-005,-9.924574e-005
-6.116039e-005,-2.462390e-004
-1.138316e-004,-3.828600e-004
-1.872472e-004,-4.883645e-004
-2.645523e-004,-5.531906e-004
-3.264613e-004,-5.781487e-004
-3.629260e-004,-5.646973e-004
-3.664914e-004,-5.097571e-004
-3.217614e-004,-3.997148e-004
-2.159328e-004,-2.305186e-004
-5.678463e-005,-1.286493e-005
1.253768e-004,2.420638e-004
2.931144e-004,5.250300e-004
4.145014e-004,8.308475e-004
4.652279e-004,1.132289e-003
4.313562e-004,1.379764e-003
3.180725e-004,1.526595e-003
1.498487e-004,1.549446e-003
-2.712668e-005,1.464686e-003
-1.562927e-004,1.320609e-003
-2.003745e-004,1.169889e-003
-1.627754e-004,1.049150e-003
-7.574627e-005,9.627688e-004
1.792748e-005,8.887049e-004
8.226741e-005,8.003792e-004
9.685330e-005,6.822334e-004
5.293359e-005,5.318367e-004
-5.127441e-005,3.584268e-004
-1.995642e-004,1.806411e-004
-3.600088e-004,1.549650e-005
-4.893369e-004,-1.242038e-004
-5.488148e-004,-2.303566e-004
-5.279084e-004,-2.924276e-004
-4.564377e-004,-3.104168e-004
-3.736223e-004,-3.010170e-004
-3.047445e-004,-2.883759e-004
-2.549905e-004,-2.972895e-004
-2.123673e-004,-3.356990e-004
-1.681235e-004,-3.985804e-004
-1.188556e-004,-4.728062e-004
-7.428769e-005,-5.450874e-004
-5.548811e-005,-6.061860e-004
-6.667062e-005,-6.501057e-004
-9.503204e-005,-6.739292e-004
-1.220970e-004,-6.779809e-004
-1.303623e-004,-6.611261e-004
-1.152902e-004,-6.206098e-004
-8.352541e-005,-5.611319e-004
-3.409549e-005,-4.916058e-004
3.073064e-005,-4.204592e-004
9.020862e-005,-3.554710e-004
1.159770e-004,-3.010170e-004
9.798775e-005,-2.579077e-004
5.568870e-005,-2.235498e-004
2.003433e-005,-1.887058e-004
9.662150e-006,-1.514308e-004
3.429608e-005,-1.156143e-004
8.437427e-005,-8.547019e-005
1.367214e-004,-6.391550e-005
1.636242e-004,-5.338126e-005
1.529279e-004,-4.997789e-005
1.107909e-004,-4.689865e-005
5.455425e-005,-3.263690e-005
7.555301e-006,4.800190e-006
-1.108221e-005,6.557468e-005
7.717366e-006,1.385041e-004
5.617490e-005,2.101370e-004
1.177597e-004,2.641047e-004
1.720516e-004,2.910076e-004
2.062474e-004,2.879283e-004
2.177540e-004,2.595669e-004
2.122438e-004,2.140265e-004
1.986303e-004,1.573037e-004
1.777239e-004,8.956036e-005
1.496866e-004,1.582063e-005
1.174356e-004,-5.694670e-005
8.502253e-005,-1.186936e-004
5.844381e-005,-1.616409e-004
3.445814e-005,-1.835197e-004
9.986281e-006,-1.867610e-004
-1.562004e-005,-1.723372e-004
-3.717473e-005,-1.481895e-004
-5.030202e-005,-1.204763e-004
-5.013995e-005,-9.843541e-005
-4.155049e-005,-8.563225e-005
-2.842320e-005,-7.963584e-005
-4.599598e-006,-7.914964e-005
3.494434e-005,-7.898758e-005
7.951231e-005,-7.396356e-005
9.993253e-005,-6.845333e-005
6.654708e-005,-7.007399e-005
-2.437157e-005,-8.174268e-005
-1.467309e-004,-9.973194e-005
-2.645523e-004,-1.185315e-004
-3.381300e-004,-1.361966e-004
-3.298647e-004,-1.494860e-004
-2.219292e-004,-1.588858e-004
-4.900550e-005,-1.699062e-004
1.104668e-004,-1.822232e-004
1.911753e-004,-1.893541e-004
1.785342e-004,-1.807646e-004
1.039842e-004,-1.530514e-004
1.322759e-005,-1.084835e-004
-6.359137e-005,-6.294311e-005
-1.125351e-004,-3.620233e-005
-1.425172e-004,-3.717473e-005
-1.630995e-004,-6.326724e-005
-1.825473e-004,-1.039456e-004
-2.019951e-004,-1.545100e-004
-2.186879e-004,-2.099363e-004
-2.290601e-004,-2.632558e-004
-2.237119e-004,-3.074997e-004
-1.911368e-004,-3.368335e-004
-1.305243e-004,-3.522297e-004
-5.240886e-005,-3.548227e-004
2.716521e-005,-3.452609e-004
9.523264e-005,-3.269475e-004
1.412592e-004,-3.042584e-004
1.573037e-004,-2.802727e-004
1.462832e-004,-2.545043e-004
1.235941e-004,-2.230636e-004
1.033359e-004,-1.770371e-004
8.745350e-005,-1.110765e-004
6.881599e-005,-2.550602e-005
4.288554e-005,6.897806e-005
1.160693e-005,1.563313e-004
-1.659243e-005,2.229401e-004
-3.134038e-005,2.605393e-004
-3.636440e-005,2.647530e-004
-4.430560e-005,2.427121e-004
-6.586029e-005,2.065715e-004
-9.956988e-005,1.689724e-004
-1.423551e-004,1.409351e-004
-1.844921e-004,1.260251e-004
-2.209568e-004,1.250527e-004
-2.468872e-004,1.385041e-004
-2.559629e-004,1.615174e-004
-2.441321e-004,1.913374e-004
-2.070192e-004,2.229401e-004
-1.473791e-004,2.506533e-004
-7.931171e-005,2.720459e-004
-1.529591e-005,2.880904e-004
4.223728e-005,2.974902e-004
9.814982e-005,2.974902e-004
1.681620e-004,2.885766e-004
2.645909e-004,2.743149e-004
3.781987e-004,2.632944e-004
4.717105e-004,2.532463e-004
5.167646e-004,2.428742e-004
5.209784e-004,2.329882e-004
5.133613e-004,2.243987e-004
5.198439e-004,2.179161e-004
5.433434e-004,2.140265e-004
5.734875e-004,2.159713e-004
5.956905e-004,2.222919e-004
5.992560e-004,2.292607e-004
5.765668e-004,2.341226e-004
5.204921e-004,2.359054e-004
4.339493e-004,2.355812e-004
3.290929e-004,2.378501e-004
2.235884e-004,2.436845e-004
1.328318e-004,2.524360e-004
7.124698e-005,2.662116e-004
4.693717e-005,2.890628e-004
4.758544e-005,3.187208e-004
5.617490e-005,3.462718e-004
5.974033e-005,3.592371e-004
5.828175e-005,3.496752e-004
5.925414e-005,3.167760e-004
6.330578e-005,2.658874e-004
6.330578e-005,2.065715e-004
4.547859e-005,1.477418e-004
-1.844488e-006,9.328786e-005
-7.201877e-005,4.223728e-005
-1.434896e-004,-8.651231e-006
-2.039399e-004,-6.051213e-005
-2.507768e-004,-1.088076e-004
-2.818933e-004,-1.540238e-004
-2.903207e-004,-2.003745e-004
-2.697385e-004,-2.486699e-004
-2.253326e-004,-2.946965e-004
-1.883817e-004,-3.319715e-004
-1.945401e-004,-3.557951e-004
-2.522354e-004,-3.604950e-004
-3.431540e-004,-3.472056e-004
-4.363416e-004,-3.211132e-004
-5.087847e-004,-2.888622e-004
-5.473563e-004,-2.546664e-004
-5.531906e-004,-2.183637e-004
-5.399013e-004,-1.822232e-004
-5.270981e-004,-1.428413e-004
-5.298533e-004,-9.179074e-005
-5.407116e-004,-1.902341e-005
-5.347152e-004,7.465034e-005
-4.972781e-004,1.829100e-004
-4.245108e-004,2.914938e-004
-3.233821e-004,3.846814e-004
-2.058847e-004,4.474007e-004
-8.676672e-005,4.728449e-004
2.003433e-005,4.608521e-004
1.060910e-004,4.159600e-004
1.660552e-004,3.503235e-004
1.979821e-004,2.816078e-004
1.932822e-004,2.252090e-004
1.487142e-004,1.892305e-004
8.242948e-005,1.714034e-004
2.813760e-005,1.631380e-004
1.679302e-005,1.490383e-004
5.763349e-005,1.193804e-004
1.385041e-004,7.513654e-005
2.282883e-004,2.408596e-005
2.801492e-004,-2.890940e-005
2.645909e-004,-7.720486e-005
1.916615e-004,-1.167488e-004
9.847395e-005,-1.478653e-004
2.424803e-005,-1.707166e-004
-1.480971e-005,-1.867610e-004
-2.437157e-005,-1.942160e-004
-1.740276e-005,-1.972953e-004
-7.354709e-006,-1.985918e-004
-8.489166e-006,-1.990780e-004
-2.907146e-005,-1.976194e-004
-6.310517e-005,-1.912988e-004
-8.352541e-005,-1.806025e-004
-6.245691e-005,-1.652063e-004
5.124321e-006,-1.477033e-004
9.523264e-005,-1.332795e-004
1.816135e-004,-1.271210e-004
2.466017e-004,-1.279313e-004
2.830664e-004,-1.276072e-004
2.819319e-004,-1.193418e-004
2.373639e-004,-1.029732e-004
1.535762e-004,-8.579432e-005
6.022653e-005,-7.363943e-005
4.244267e-007,-6.618442e-005
6.420843e-006,-6.278104e-005
8.161915e-005,-6.002594e-005
1.986303e-004,-5.694670e-005
3.089969e-004,-5.953974e-005
3.736609e-004,-6.715681e-005
3.851676e-004,-7.882551e-005
3.619922e-004,-9.535618e-005
3.313618e-004,-1.180453e-004
3.109416e-004,-1.511067e-004
3.114278e-004,-2.047502e-004
3.346032e-004,-2.859450e-004
3.684748e-004,-3.888564e-004
3.869503e-004,-4.982505e-004
3.616681e-004,-5.909518e-004
2.825802e-004,-6.494574e-004
1.581140e-004,-6.700397e-004
1.144487e-005,-6.611261e-004
-1.280934e-004,-6.345474e-004
-2.395943e-004,-6.039171e-004
-3.107410e-004,-5.755557e-004
-3.452609e-004,-5.494631e-004
-3.543365e-004,-5.261258e-004
-3.446126e-004,-5.060296e-004
-3.251648e-004,-4.856094e-004
-3.097686e-004,-4.650271e-004
-3.144685e-004,-4.455793e-004
-3.394265e-004,-4.173799e-004
-3.666535e-004,-3.570916e-004
-3.695707e-004,-2.379736e-004
-3.335922e-004,-4.462973e-005
-2.647144e-004,2.174299e-004
-1.806025e-004,5.240576e-004
-1.062146e-004,8.442989e-004
-6.197072e-005,1.157085e-003
-5.662256e-005,1.457879e-003
-8.741498e-005,1.736956e-003
-1.384655e-004,1.962552e-003
-1.875713e-004,2.085884e-003
-2.170672e-004,2.072109e-003
-2.178775e-004,1.918956e-003
-1.981056e-004,1.661758e-003
-1.666649e-004,1.359019e-003
-1.383035e-004,1.065356e-003
-1.277692e-004,8.122100e-004
-1.293899e-004,6.133557e-004
-1.243659e-004,4.713863e-004
-9.535618e-005,3.807918e-004
-5.111234e-005,3.269861e-004
-2.501983e-005,2.908455e-004
-5.289507e-005,2.498430e-004
-1.336036e-004,1.895547e-004
-2.331117e-004,1.156529e-004
-3.083100e-004,4.628891e-005
-3.253268e-004,-5.896120e-006
-2.690902e-004,-4.122636e-005
-1.475412e-004,-7.104638e-005
6.096713e-006,-1.075111e-004
1.482280e-004,-1.580754e-004
2.365536e-004,-2.263049e-004
2.519498e-004,-3.071755e-004
2.073819e-004,-3.932322e-004
1.378558e-004,-4.744269e-004
7.870197e-005,-5.390910e-004
4.499239e-005,-5.841451e-004
3.380988e-005,-6.136410e-004
3.964424e-005,-6.338991e-004
5.730935e-005,-6.481609e-004
7.546067e-005,-6.578848e-004
9.263960e-005,-6.642053e-004
1.216493e-004,-6.714982e-004
1.777239e-004,-6.804119e-004
2.587566e-004,-6.831670e-004
3.354135e-004,-6.711741e-004
3.762539e-004,-6.442713e-004
3.730126e-004,-6.086170e-004
3.355756e-004,-5.708557e-004
2.799871e-004,-5.330946e-004
2.229401e-004,-4.993849e-004
1.817755e-004,-4.710235e-004
1.694586e-004,-4.454172e-004
1.902029e-004,-4.227281e-004
2.372019e-004,-4.008493e-004
2.957075e-004,-3.781601e-004
3.412479e-004,-3.485022e-004
3.490270e-004,-3.102548e-004
3.026763e-004,-2.653627e-004
2.124059e-004,-2.113949e-004
1.148425e-004,-1.451102e-004
4.774750e-005,-7.185670e-005
2.197911e-005,-7.030578e-006
1.727922e-005,3.445814e-005
6.744974e-006,4.223728e-005
-2.161646e-005,1.841368e-005
-6.650855e-005,-2.890940e-005
-1.175591e-004,-8.660465e-005
-1.619650e-004,-1.415448e-004
-1.961608e-004,-1.878955e-004
-2.292221e-004,-2.251705e-004
-2.778417e-004,-2.582318e-004
-3.384541e-004,-2.844864e-004
-3.831841e-004,-3.026377e-004
-3.810773e-004,-3.115513e-004
-3.212752e-004,-3.079858e-004
-2.055606e-004,-2.896725e-004
-4.511593e-005,-2.543422e-004
1.398006e-004,-2.002124e-004
3.067279e-004,-1.279313e-004
4.104497e-004,-5.483985e-005
4.352458e-004,-1.367526e-005
3.968363e-004,-3.360929e-005
3.252034e-004,-1.149661e-004
2.459534e-004,-2.347323e-004
1.744826e-004,-3.590364e-004
1.158149e-004,-4.642168e-004
7.432621e-005,-5.326084e-004
4.936815e-005,-5.540010e-004
3.737532e-005,-5.269361e-004
4.612685e-005,-4.606514e-004
8.097089e-005,-3.664914e-004
1.402868e-004,-2.519113e-004
1.984683e-004,-1.195039e-004
2.276400e-004,2.684107e-005
2.124059e-004,1.827479e-004
1.600588e-004,3.336308e-004
8.826383e-005,4.662003e-004
1.922400e-005,5.725152e-004
-3.101625e-005,6.530617e-004
-6.180866e-005,7.104329e-004
-8.563225e-005,7.512733e-004
-1.206384e-004,7.890346e-004
-1.791439e-004,8.378163e-004
-2.643903e-004,8.992391e-004
-3.645466e-004,9.569344e-004
-4.634065e-004,9.809202e-004
-5.397392e-004,9.483449e-004
-5.648594e-004,8.639088e-004
-5.092709e-004,7.537043e-004
-3.729740e-004,6.498204e-004
-1.964849e-004,5.686256e-004
-3.976777e-005,5.101200e-004
5.698522e-005,4.730070e-004
9.069481e-005,4.474007e-004
8.631905e-005,4.214702e-004
7.400208e-005,3.874365e-004
6.589881e-005,3.469201e-004
5.390598e-005,3.075383e-004
3.397195e-005,2.765838e-004
2.635488e-005,2.487085e-004
5.633696e-005,2.127300e-004
1.346145e-004,1.618415e-004
2.430362e-004,9.896015e-005
3.499994e-004,3.494434e-005
4.072085e-004,-1.740276e-005
3.801436e-004,-5.240886e-005
2.702632e-004,-6.667062e-005
1.188942e-004,-6.423963e-005
-2.031993e-005,-5.176061e-005
-1.126972e-004,-3.717473e-005
-1.575893e-004,-2.501983e-005
-1.729855e-004,-1.659243e-005
-1.752544e-004,-9.785688e-006
-1.763888e-004,-6.176923e-008
-1.831956e-004,1.630683e-005
-1.950263e-004,4.353380e-005
-2.096122e-004,7.772959e-005
-2.251705e-004,1.104668e-004
-2.342462e-004,1.328318e-004
-2.326255e-004,1.415833e-004
-2.241981e-004,1.427178e-004
-2.152845e-004,1.482280e-004
-2.031296e-004,1.595726e-004
-1.796301e-004,1.663793e-004
-1.447861e-004,1.466074e-004
-1.086455e-004,8.696731e-005
-9.227693e-005,-5.571990e-006
-1.115627e-004,-1.143178e-004
-1.630995e-004,-2.235498e-004
-2.287359e-004,-3.224097e-004
-2.880518e-004,-4.081422e-004
-3.285682e-004,-4.804233e-004
-3.473677e-004,-5.441150e-004
-3.413713e-004,-6.100755e-004
-3.117133e-004,-6.862463e-004
-2.687660e-004,-7.745718e-004
-2.222533e-004,-8.650042e-004
-1.742820e-004,-9.429576e-004
-1.211246e-004,-9.964393e-004
-5.953974e-005,-1.017832e-003
7.393236e-006,-9.982219e-004
6.897806e-005,-9.337199e-004
1.124116e-004,-8.175191e-004
1.344524e-004,-6.449196e-004
1.445005e-004,-4.191627e-004
1.551968e-004,-1.481895e-004
1.704310e-004,1.553589e-004
1.858272e-004,4.770586e-004
1.947408e-004,8.032963e-004
1.961994e-004,1.112517e-003
1.913374e-004,1.359667e-003
1.735102e-004,1.485917e-003
1.394765e-004,1.447669e-003
9.442231e-005,1.246546e-003
5.666109e-005,9.361901e-004
4.888196e-005,5.956905e-004
8.194328e-005,3.005694e-004
1.467694e-004,9.215340e-005
2.255332e-004,-1.902341e-005
2.961937e-004,-4.981582e-005
3.367100e-004,-2.907146e-005
3.282826e-004,1.193106e-005
2.636185e-004,5.098881e-005
1.587623e-004,7.367795e-005
4.726130e-005,6.849186e-005
-3.490581e-005,3.089271e-005
-6.893953e-005,-3.182657e-005
-5.710876e-005,-1.039456e-004
-1.643037e-005,-1.694200e-004
3.040651e-005,-2.151224e-004
6.476436e-005,-2.361909e-004
7.529860e-005,-2.357047e-004
6.379197e-005,-2.230636e-004
4.369587e-005,-2.088019e-004
3.137890e-005,-1.955125e-004
4.013043e-005,-1.831956e-004
7.319176e-005,-1.718510e-004
1.177597e-004,-1.603444e-004
1.587623e-004,-1.499722e-004
1.910133e-004,-1.392759e-004
2.094887e-004,-1.289037e-004
2.090025e-004,-1.190177e-004
1.918236e-004,-1.110765e-004
1.714034e-004,-1.047560e-004
1.689724e-004,-1.005423e-004
1.983062e-004,-9.665270e-005
2.564877e-004,-9.162867e-005
3.271482e-004,-8.174268e-005
3.890571e-004,-6.748094e-005
4.245494e-004,-5.483985e-005
4.329769e-004,-4.916756e-005
4.203358e-004,-4.511593e-005
3.960259e-004,-3.620233e-005
3.527545e-004,-2.031993e-005
2.803113e-004,1.558884e-006
1.741585e-004,2.862379e-005
4.434413e-005,5.536457e-005
-8.806324e-005,7.643307e-005
-1.992400e-004,8.550872e-005
-2.632558e-004,8.194328e-005
-2.593663e-004,6.670914e-005
-1.788198e-004,4.677511e-005
-3.814712e-005,2.894792e-005
1.159770e-004,1.549650e-005
2.325020e-004,1.095867e-005
2.843629e-004,1.338965e-005
2.730183e-004,1.906194e-005
2.158093e-004,2.457216e-005
1.323456e-004,2.651694e-005
3.980630e-005,2.732727e-005
-4.981582e-005,3.056858e-005
-1.321450e-004,3.656499e-005
-1.968091e-004,4.515445e-005
-2.387840e-004,5.163707e-005
-2.640662e-004,5.585077e-005
-2.822175e-004,5.487838e-005
-3.008550e-004,4.596478e-005
-3.154408e-004,2.684107e-005
-3.237062e-004,2.369211e-006
-3.267854e-004,-2.096820e-005
-3.274337e-004,-3.571614e-005
-3.238683e-004,-3.328516e-005
-3.117133e-004,-1.788895e-005
-2.899966e-004,-3.858999e-007
-2.664971e-004,1.160693e-005
-2.527216e-004,1.598270e-005
-2.587180e-004,1.582063e-005
-2.893484e-004,1.452411e-005
-3.452609e-004,9.500085e-006
-4.175420e-004,-4.275467e-006
-4.903093e-004,-2.631635e-005
-5.386047e-004,-5.435365e-005
-5.395772e-004,-8.287715e-005
-4.891749e-004,-1.079973e-004
-4.026320e-004,-1.305243e-004
-3.062031e-004,-1.512687e-004
-2.216050e-004,-1.690959e-004
-1.556445e-004,-1.815749e-004
-1.011905e-004,-1.874093e-004
-4.689865e-005,-1.869231e-004
9.662150e-006,-1.828714e-004
6.087479e-005,-1.780095e-004
9.247754e-005,-1.746061e-004
9.296373e-005,-1.731475e-004
6.784360e-005,-1.744440e-004
3.850978e-005,-1.759026e-004
2.262738e-005,-1.770371e-004
2.392390e-005,-1.796301e-004
3.348575e-005,-1.814128e-004
4.709924e-005,-1.820611e-004
6.897806e-005,-1.783336e-004
1.057669e-004,-1.665028e-004
1.568175e-004,-1.442999e-004
2.104611e-004,-1.139937e-004
2.516257e-004,-7.850138e-005
2.697770e-004,-4.284701e-005
2.619979e-004,-9.299493e-006
2.321778e-004,1.954813e-005
1.971717e-004,4.499239e-005
1.735102e-004,6.638502e-005
1.629760e-004,7.886404e-005
1.623277e-004,8.307774e-005
1.707551e-004,8.405014e-005
1.892305e-004,8.437427e-005
2.161334e-004,8.080883e-005
2.388225e-004,7.367795e-005
2.399570e-004,7.205730e-005
2.167816e-004,8.405014e-005
1.835583e-004,1.116012e-004
1.581140e-004,1.519555e-004
1.470936e-004,1.989545e-004
1.435281e-004,2.472499e-004
1.404489e-004,2.901973e-004
1.375317e-004,3.187208e-004
1.344524e-004,3.240689e-004
1.312112e-004,3.028383e-004
1.210010e-004,2.582704e-004
9.782569e-005,1.979821e-004
6.525056e-005,1.308870e-004
3.218923e-005,6.946425e-005
-1.196227e-006,2.052053e-005
-4.041603e-005,-1.383732e-005
-8.935975e-005,-2.939559e-005
-1.438137e-004,-2.242678e-005
-1.917850e-004,1.031041e-005
-2.147983e-004,6.541262e-005
-1.955125e-004,1.415833e-004
-1.323071e-004,2.360674e-004
-4.673658e-005,3.409237e-004
2.732727e-005,4.363802e-004
7.043665e-005,5.003960e-004
7.740546e-005,5.180612e-004
6.184718e-005,4.892136e-004
5.082674e-005,4.261701e-004
7.221937e-005,3.480546e-004
1.349386e-004,2.725321e-004
2.205092e-004,2.114335e-004
2.940868e-004,1.735102e-004
3.229345e-004,1.652449e-004
2.947351e-004,1.916615e-004
2.125679e-004,2.508154e-004
9.166720e-005,3.303894e-004
-4.576419e-005,4.089912e-004
-1.723372e-004,4.650658e-004
-2.587180e-004,4.859722e-004
-2.901587e-004,4.666864e-004
-2.697385e-004,4.143393e-004
-2.207947e-004,3.380065e-004
-1.703924e-004,2.459534e-004
-1.400862e-004,1.459591e-004
-1.412206e-004,4.142696e-005
-1.752544e-004,-6.197072e-005
-2.324634e-004,-1.541859e-004
-2.924276e-004,-2.297083e-004
-3.347266e-004,-2.883759e-004
-3.465574e-004,-3.290543e-004
-3.316474e-004,-3.546606e-004
-3.016653e-004,-3.713534e-004
-2.746004e-004,-3.859393e-004
-2.617972e-004,-4.011734e-004
-2.671454e-004,-4.149489e-004
-2.833519e-004,-4.130042e-004
-2.924276e-004,-3.794566e-004
-2.771934e-004,-2.998826e-004
-2.378116e-004,-1.817370e-004
-1.799543e-004,-5.402952e-005
-1.136696e-004,4.077869e-005
-5.095028e-005,7.157111e-005
-7.030578e-006,3.543054e-005
6.744974e-006,-5.159854e-005
-9.785688e-006,-1.619650e-004
-4.430560e-005,-2.715212e-004
-8.222889e-005,-3.606571e-004
-1.143178e-004,-4.165696e-004
-1.337657e-004,-4.412035e-004
-1.233935e-004,-4.426621e-004
-6.132246e-005,-4.288866e-004
5.990240e-005,-4.034423e-004
2.185644e-004,-3.690845e-004
3.686369e-004,-3.272716e-004
4.665244e-004,-2.835140e-004
4.969927e-004,-2.421874e-004
4.772207e-004,-2.104225e-004
4.355699e-004,-1.898403e-004
3.935950e-004,-1.765509e-004
3.707437e-004,-1.673132e-004
3.754436e-004,-1.574272e-004
3.968363e-004,-1.462447e-004
4.098015e-004,-1.345760e-004
3.958639e-004,-1.237176e-004
3.585888e-004,-1.144799e-004
3.088348e-004,-1.023250e-004
2.522740e-004,-8.547019e-005
1.966855e-004,-6.861539e-005
1.501728e-004,-5.581224e-005
1.172735e-004,-4.884343e-005
1.025256e-004,-4.527799e-005
1.060910e-004,-4.576419e-005
1.234320e-004,-5.759496e-005
1.394765e-004,-8.919769e-005
1.370455e-004,-1.433275e-004
1.179218e-004,-2.143121e-004
9.474644e-005,-2.893484e-004
8.323981e-005,-3.497987e-004
8.080883e-005,-3.852910e-004
6.962632e-005,-3.938804e-004
3.429608e-005,-3.822118e-004
-2.437157e-005,-3.595226e-004
-9.114248e-005,-3.355370e-004
-1.426792e-004,-3.130099e-004
-1.618029e-004,-2.874036e-004
-1.470550e-004,-2.501286e-004
-1.094559e-004,-1.893541e-004
-6.197072e-005,-1.028112e-004
-1.821308e-005,-5.479652e-007
1.549650e-005,1.078737e-004
3.494434e-005,2.169437e-004
3.883391e-005,3.264999e-004
2.910999e-005,4.357320e-004
1.387585e-005,5.413986e-004
-1.358292e-006,6.399344e-004
-1.318906e-005,7.287462e-004
-2.761287e-005,8.076721e-004
-5.516398e-005,8.801154e-004
-9.681477e-005,9.501277e-004
-1.446240e-004,1.016250e-003
-1.859507e-004,1.067949e-003
-2.117191e-004,1.084480e-003
-2.238740e-004,1.042019e-003
-2.389460e-004,9.310039e-004
-2.724935e-004,7.640765e-004
-3.201407e-004,5.728393e-004
-3.621157e-004,3.944053e-004
-3.768636e-004,2.540567e-004
-3.590364e-004,1.589243e-004
-3.173856e-004,1.044704e-004
-2.663351e-004,7.659513e-005
-2.232257e-004,5.828175e-005
-2.053985e-004,3.640293e-005
-2.217671e-004,3.341602e-006
-2.613110e-004,-4.057810e-005
-3.023136e-004,-9.324933e-005
-3.243544e-004,-1.507825e-004
-3.136581e-004,-2.099363e-004
-2.639041e-004,-2.666592e-004
-1.765509e-004,-3.099306e-004
-7.655660e-005,-3.365093e-004
-8.327101e-006,-3.455850e-004
-4.437533e-006,-3.483401e-004
-6.229485e-005,-3.595226e-004
-1.438137e-004,-3.864254e-004
-1.956746e-004,-4.271038e-004
-1.781716e-004,-4.750752e-004
-7.185670e-005,-5.180225e-004
1.122495e-004,-5.458977e-004
3.354135e-004,-5.559457e-004
5.368608e-004,-5.460597e-004
6.567892e-004,-5.183466e-004
6.674855e-004,-4.784786e-004
5.796460e-004,-4.410415e-004
4.378388e-004,-4.141386e-004
2.965178e-004,-3.969597e-004
1.996027e-004,-3.830221e-004
1.611932e-004,-3.619536e-004
1.707551e-004,-3.266234e-004
2.096508e-004,-2.747625e-004
2.597290e-004,-2.086398e-004
3.028383e-004,-1.332795e-004
3.243930e-004,-4.932962e-005
3.180725e-004,4.175109e-005
2.851732e-004,1.422316e-004
2.329882e-004,2.551911e-004
1.725378e-004,3.746333e-004
1.214872e-004,4.888894e-004
9.831188e-005,5.783495e-004
1.054428e-004,6.300483e-004
1.245665e-004,6.439860e-004
1.407730e-004,6.316690e-004
1.401247e-004,6.070351e-004
1.213252e-004,5.802943e-004
8.891209e-005,5.545259e-004
4.677511e-005,5.230852e-004
-1.520357e-006,4.798138e-004
-5.581224e-005,4.253598e-004
-1.107524e-004,3.675024e-004
-1.611547e-004,3.179104e-004
-1.987538e-004,2.764217e-004
-2.232257e-004,2.399570e-004
-2.308428e-004,2.034923e-004
-2.196603e-004,1.663793e-004
-1.932436e-004,1.284560e-004
-1.618029e-004,8.518459e-005
-1.365208e-004,3.591673e-005
-1.193418e-004,-1.675450e-005
-1.016767e-004,-6.553616e-005
-8.336335e-005,-1.041077e-004
-7.185670e-005,-1.289037e-004
-7.995997e-005,-1.430034e-004
-1.086455e-004,-1.506204e-004
-1.436516e-004,-1.549962e-004
-1.702304e-004,-1.605064e-004
-1.806025e-004,-1.733096e-004
-1.703924e-004,-1.951884e-004
-1.436516e-004,-2.233878e-004
-1.105903e-004,-2.530457e-004
-9.389759e-005,-2.776796e-004
-1.102662e-004,-2.943724e-004
-1.571031e-004,-3.027998e-004
-2.167431e-004,-3.024756e-004
-2.626076e-004,-2.963172e-004
-2.758969e-004,-2.940482e-004
-2.538560e-004,-2.972895e-004
-1.977815e-004,-3.032860e-004
-1.185315e-004,-3.057169e-004
-3.020592e-005,-3.002067e-004
4.645098e-005,-2.883759e-004
9.426025e-005,-2.720074e-004
1.060910e-004,-2.533699e-004
9.879808e-005,-2.340841e-004
9.717743e-005,-2.138259e-004
1.090082e-004,-1.924333e-004
1.190562e-004,-1.699062e-004
9.944634e-005,-1.480274e-004
4.256141e-005,-1.305243e-004
-2.777494e-005,-1.156143e-004
-7.039812e-005,-1.039456e-004
-5.743289e-005,-9.551824e-005
5.124321e-006,-9.146661e-005
8.956036e-005,-9.114248e-005
1.655690e-004,-9.308726e-005
2.128921e-004,-9.114248e-005
2.268297e-004,-8.190475e-005
2.177540e-004,-6.618442e-005
1.997648e-004,-4.479180e-005
1.814514e-004,-2.129233e-005
1.558451e-004,3.989864e-006
1.086841e-004,3.089271e-005
3.624086e-005,5.633696e-005
-5.159854e-005,7.691926e-005
-1.410586e-004,9.215340e-005
-2.227395e-004,1.064152e-004
-2.932379e-004,1.214872e-004
-3.416954e-004,1.367214e-004
-3.554710e-004,1.526038e-004
-3.261372e-004,1.681620e-004
-2.587180e-004,1.830721e-004
-1.759026e-004,1.942546e-004
-1.104282e-004,2.030061e-004
-8.952183e-005,2.091646e-004
-1.096179e-004,2.141886e-004
-1.293899e-004,2.171058e-004
-9.146661e-005,2.187264e-004
3.283749e-005,2.213195e-004
2.227781e-004,2.278021e-004
4.258460e-004,2.375260e-004
5.814288e-004,2.464396e-004
6.501445e-004,2.504913e-004
6.311828e-004,2.514636e-004
5.525811e-004,2.504913e-004
4.559901e-004,2.490327e-004
3.806297e-004,2.466017e-004
3.493511e-004,2.440086e-004
3.555096e-004,2.396328e-004
3.671783e-004,2.299089e-004
3.545372e-004,2.090025e-004
3.085106e-004,1.803169e-004
2.407673e-004,1.521176e-004
1.712413e-004,1.266733e-004
1.154908e-004,9.912221e-005
7.805372e-005,6.557468e-005
5.909208e-005,2.554455e-005
5.520250e-005,-1.659243e-005
5.520250e-005,-5.500191e-005
5.455425e-005,-8.530812e-005
4.839576e-005,-1.049180e-004
3.008238e-005,-1.136696e-004
-7.354709e-006,-1.123730e-004
-5.419158e-005,-1.028112e-004
-9.341139e-005,-9.162867e-005
-1.078352e-004,-7.947377e-005
-9.681477e-005,-6.148453e-005
-7.833932e-005,-2.793700e-005
-7.007399e-005,2.408596e-005
-8.077030e-005,9.458438e-005
-1.052422e-004,1.718896e-004
-1.284175e-004,2.346088e-004
-1.441378e-004,2.621599e-004
-1.548341e-004,2.393087e-004
-1.627754e-004,1.684862e-004
-1.640719e-004,6.589881e-005
-1.572651e-004,-4.479180e-005
-1.434896e-004,-1.397621e-004
-1.323071e-004,-2.026434e-004
-1.349001e-004,-2.311669e-004
-1.583996e-004,-2.340841e-004
-1.989159e-004,-2.237119e-004
-2.420253e-004,-2.130156e-004
-2.786520e-004,-2.146363e-004
-3.027998e-004,-2.376495e-004
-3.096065e-004,-2.793003e-004
-2.985861e-004,-3.269475e-004
-2.791382e-004,-3.637363e-004
-2.609869e-004,-3.760533e-004
-2.532078e-004,-3.626019e-004
-2.559629e-004,-3.267854e-004
-2.619593e-004,-2.703867e-004
-2.630937e-004,-2.010227e-004
-2.538560e-004,-1.297140e-004
-2.449425e-004,-7.282909e-005
-2.455907e-004,-4.106429e-005
-2.532078e-004,-3.247483e-005
-2.585559e-004,-3.377136e-005
-2.564491e-004,-3.587821e-005
-2.504527e-004,-3.393342e-005
-2.457528e-004,-2.696461e-005
-2.412149e-004,-1.432352e-005
-2.217671e-004,5.772582e-006
-1.734716e-004,3.721326e-005
-9.146661e-005,9.215340e-005
1.630683e-005,1.859892e-004
1.292664e-004,3.201794e-004
2.198609e-004,4.751139e-004
2.754493e-004,6.175694e-004
3.033245e-004,7.118915e-004
3.198552e-004,7.368495e-004
3.342791e-004,6.872575e-004
3.464339e-004,5.744600e-004
3.485408e-004,4.282770e-004
3.311998e-004,2.869559e-004
2.945730e-004,1.799928e-004
2.464396e-004,1.172735e-004
2.002510e-004,9.020862e-005
1.675138e-004,7.902610e-005
1.592484e-004,6.444023e-005
1.778860e-004,3.251336e-005
2.128921e-004,-1.448558e-005
2.412535e-004,-6.683268e-005
2.295848e-004,-1.170729e-004
1.621656e-004,-1.622891e-004
5.617490e-005,-2.018331e-004
-3.053005e-005,-2.334358e-004
-3.766092e-005,-2.493182e-004
4.742337e-005,-2.439701e-004
1.786963e-004,-2.190120e-004
2.854973e-004,-1.817370e-004
3.180725e-004,-1.442999e-004
2.696149e-004,-1.141558e-004
1.629760e-004,-9.179074e-005
3.834771e-005,-6.974985e-005
-6.180866e-005,-3.490581e-005
-1.135075e-004,3.024445e-005
-1.101041e-004,1.268354e-004
-6.650855e-005,2.402811e-004
-9.785688e-006,3.467581e-004
2.538249e-005,4.222805e-004
1.825161e-005,4.495075e-004
-2.566809e-005,4.261701e-004
-7.704279e-005,3.662059e-004
-1.060525e-004,2.908455e-004
-1.032974e-004,2.192126e-004
-7.056019e-005,1.668655e-004
-1.853722e-005,1.331559e-004
3.672706e-005,1.046324e-004
8.291568e-005,6.362991e-005
1.104668e-004,3.341602e-006
1.130598e-004,-7.412562e-005
8.469840e-005,-1.618029e-004
2.019640e-005,-2.499665e-004
-8.222889e-005,-3.301888e-004
-2.068571e-004,-3.974459e-004
-3.180339e-004,-4.484965e-004
-3.839945e-004,-4.835025e-004
-3.961493e-004,-5.042469e-004
-3.677880e-004,-5.123502e-004
-3.217614e-004,-5.138087e-004
-2.797865e-004,-5.121881e-004
-2.536940e-004,-5.057055e-004
-2.436459e-004,-4.912817e-004
-2.366771e-004,-4.716718e-004
-2.238740e-004,-4.501171e-004
-2.024813e-004,-4.238625e-004
-1.771992e-004,-3.916115e-004
-1.541859e-004,-3.548227e-004
-1.295519e-004,-3.219235e-004
-9.211487e-005,-2.961551e-004
-3.215070e-005,-2.820554e-004
4.709924e-005,-2.736280e-004
1.224596e-004,-2.592042e-004
1.670276e-004,-2.190120e-004
1.757791e-004,-1.454344e-004
1.639484e-004,-3.733679e-005
1.563313e-004,9.344993e-005
1.730240e-004,2.282883e-004
2.185644e-004,3.469201e-004
2.837146e-004,4.318424e-004
3.457857e-004,4.663623e-004
3.859779e-004,4.478869e-004
4.021844e-004,3.840331e-004
3.989431e-004,2.905214e-004
3.816021e-004,1.867996e-004
3.522683e-004,9.312580e-005
3.086727e-004,2.133085e-005
2.436845e-004,-2.826114e-005
1.547106e-004,-6.731888e-005
5.325772e-005,-1.042698e-004
-3.474375e-005,-1.391138e-004
-8.773911e-005,-1.687718e-004
-9.503204e-005,-1.869231e-004
-6.472583e-005,-1.830335e-004
-1.740276e-005,-1.511067e-004
2.181705e-005,-9.486997e-005
3.073064e-005,-3.004385e-005
9.106227e-007,2.019640e-005
-5.905355e-005,3.186510e-005
-1.235555e-004,-9.623623e-006
-1.695821e-004,-1.050801e-004
-1.823853e-004,-2.350565e-004
-1.618029e-004,-3.695707e-004
-1.203142e-004,-4.804233e-004
-7.347736e-005,-5.447632e-004
-3.101625e-005,-5.476804e-004
5.772582e-006,-4.890127e-004
4.369587e-005,-3.739464e-004
8.761557e-005,-2.102605e-004
1.302388e-004,-1.010982e-005
1.584381e-004,2.201850e-004
1.673517e-004,4.869446e-004
1.545486e-004,8.032963e-004
1.153287e-004,1.170213e-003
5.406805e-005,1.554794e-003
-1.594417e-005,1.882816e-003
-7.866345e-005,2.066274e-003
-1.211246e-004,2.046016e-003
-1.339277e-004,1.825282e-003
-1.133454e-004,1.466631e-003
-7.056019e-005,1.061305e-003
-2.955766e-005,6.893643e-004
-1.318906e-005,4.000776e-004
-2.874733e-005,2.062474e-004
-7.056019e-005,9.831188e-005
-1.266348e-004,5.601284e-005
-1.822232e-004,6.119892e-005
-2.318152e-004,9.912221e-005
-2.729798e-004,1.504969e-004
-3.068514e-004,1.923098e-004
-3.303509e-004,2.101370e-004
-3.316474e-004,1.895547e-004
-3.057169e-004,1.307250e-004
-2.569353e-004,4.126489e-005
-1.846542e-004,-6.537409e-005
-9.017008e-005,-1.754164e-004
1.711715e-005,-2.771934e-004
1.125736e-004,-3.629260e-004
1.655690e-004,-4.342347e-004
1.636242e-004,-4.969540e-004
1.210010e-004,-5.557837e-004
7.124698e-005,-6.131548e-004
4.304761e-005,-6.693914e-004
4.953022e-005,-7.220627e-004
8.550872e-005,-7.648479e-004
1.321835e-004,-7.933713e-004
1.678379e-004,-8.066607e-004
1.773998e-004,-8.035815e-004
1.600588e-004,-7.876991e-004
1.216493e-004,-7.663065e-004
6.849186e-005,-7.432932e-004
1.808955e-005,-7.212523e-004
-7.030578e-006,-6.949978e-004
1.241726e-005,-6.538332e-004
7.497447e-005,-5.933828e-004
1.579519e-004,-5.176983e-004
2.273159e-004,-4.392588e-004
2.527602e-004,-3.705430e-004
2.211574e-004,-3.178718e-004
1.441764e-004,-2.840002e-004
4.612685e-005,-2.700626e-004
-4.949169e-005,-2.729798e-004
-1.280934e-004,-2.799486e-004
-1.823853e-004,-2.765452e-004
-2.117191e-004,-2.545043e-004
-2.203085e-004,-2.146363e-004
-2.091260e-004,-1.566169e-004
-1.859507e-004,-8.563225e-005
-1.669890e-004,-3.465141e-006
-1.618029e-004,8.631905e-005
-1.627754e-004,1.788584e-004
-1.515928e-004,2.696149e-004
-1.156143e-004,3.584268e-004
-5.159854e-005,4.509661e-004
3.964424e-005,5.501501e-004
1.508211e-004,6.488480e-004
2.579462e-004,7.323117e-004
3.158036e-004,7.870898e-004
2.950592e-004,8.039447e-004
2.015475e-004,7.773659e-004
7.756752e-005,7.118915e-004
-2.291298e-005,6.191900e-004
-7.039812e-005,5.114165e-004
-6.780507e-005,4.010500e-004
-3.571614e-005,2.981384e-004
7.717366e-006,2.140265e-004
5.568870e-005,1.503349e-004
1.033359e-004,9.766362e-005
1.435281e-004,4.839576e-005
1.704310e-004,9.106227e-007
1.877720e-004,-4.106429e-005
2.159713e-004,-7.120844e-005
2.663737e-004,-8.773911e-005
3.389789e-004,-9.503204e-005
4.132049e-004,-1.003802e-004
4.647417e-004,-1.101041e-004
4.733311e-004,-1.232314e-004
4.345975e-004,-1.334415e-004
3.589129e-004,-1.340898e-004
2.652392e-004,-1.240417e-004
1.691344e-004,-1.091317e-004
8.356394e-005,-9.827335e-005
1.695509e-005,-9.568031e-005
-3.377136e-005,-1.007043e-004
-7.963584e-005,-1.084835e-004
-1.313347e-004,-1.177212e-004
-1.865989e-004,-1.276072e-004
-2.381357e-004,-1.379794e-004
-2.781658e-004,-1.483515e-004
-3.018274e-004,-1.574272e-004
-3.097686e-004,-1.585616e-004
-3.063652e-004,-1.525652e-004
-2.977757e-004,-1.475412e-004
-2.916173e-004,-1.496481e-004
-2.945344e-004,-1.611547e-004
-3.058790e-004,-1.780095e-004
-3.204649e-004,-1.968091e-004
-3.347266e-004,-2.097743e-004
-3.485022e-004,-2.088019e-004
-3.579019e-004,-1.985918e-004
-3.569296e-004,-1.877334e-004
-3.389403e-004,-1.804405e-004
-3.073376e-004,-1.770371e-004
-2.681178e-004,-1.783336e-004
-2.229016e-004,-1.827094e-004
-1.652063e-004,-1.859507e-004
-9.422172e-005,-1.840059e-004
-2.015787e-005,-1.760647e-004
3.786152e-005,-1.648822e-004
6.314371e-005,-1.494860e-004
5.568870e-005,-1.285796e-004
2.732727e-005,-1.036215e-004
-3.627206e-006,-7.769106e-005
-2.145439e-005,-5.710876e-005
-1.691656e-005,-4.381940e-005
1.387585e-005,-3.685060e-005
7.497447e-005,-3.036798e-005
1.611932e-004,-1.918548e-005
2.538946e-004,-3.951337e-006
3.260137e-004,1.484824e-005
3.483787e-004,3.591673e-005
3.080245e-004,5.747142e-005
2.260194e-004,7.999851e-005
1.479039e-004,1.013911e-004
1.106288e-004,1.182459e-004
1.235941e-004,1.276457e-004
1.649207e-004,1.263492e-004
2.033302e-004,1.164632e-004
2.218057e-004,1.036600e-004
2.190506e-004,1.005808e-004
2.020337e-004,1.130598e-004
1.840444e-004,1.420695e-004
1.741585e-004,1.777239e-004
1.765894e-004,2.107852e-004
1.858272e-004,2.378501e-004
1.947408e-004,2.556773e-004
1.921477e-004,2.668598e-004
1.714034e-004,2.744769e-004
1.318594e-004,2.835526e-004
8.032264e-005,2.939248e-004
2.603075e-005,3.046211e-004
-2.404744e-005,3.203414e-004
-6.699475e-005,3.402755e-004
-1.068628e-004,3.559958e-004
-1.522411e-004,3.606957e-004
-2.005366e-004,3.529166e-004
-2.368392e-004,3.373583e-004
-2.476975e-004,3.252034e-004
-2.334358e-004,3.221241e-004
-2.075054e-004,3.252034e-004
-1.872472e-004,3.349273e-004
-1.791439e-004,3.490270e-004
-1.823853e-004,3.640991e-004
-1.888679e-004,3.738230e-004
-1.867610e-004,3.723644e-004
-1.736337e-004,3.555096e-004
-1.533756e-004,3.245551e-004
-1.324691e-004,2.856594e-004
-1.219349e-004,2.451431e-004
-1.269589e-004,2.106232e-004
-1.460826e-004,1.864754e-004
-1.755785e-004,1.691344e-004
-2.097743e-004,1.526038e-004
-2.334358e-004,1.289422e-004
-2.358668e-004,9.377406e-005
-2.112329e-004,5.034055e-005
-1.656925e-004,5.124321e-006
-1.079973e-004,-3.571614e-005
-4.900550e-005,-7.039812e-005
-7.840905e-006,-9.681477e-005
2.693341e-006,-1.161005e-004
-1.902341e-005,-1.323071e-004
-5.808115e-005,-1.464067e-004
-9.632857e-005,-1.627754e-004
-1.284175e-004,-1.851404e-004
-1.551583e-004,-2.128535e-004
-1.744440e-004,-2.438080e-004
-1.754164e-004,-2.758969e-004
-1.457585e-004,-3.049066e-004
-8.790117e-005,-3.266234e-004
-2.064406e-005,-3.381300e-004
3.283749e-005,-3.412093e-004
6.265751e-005,-3.386162e-004
7.789165e-005,-3.368335e-004
9.474644e-005,-3.418575e-004
1.171115e-004,-3.583881e-004
1.355869e-004,-3.893426e-004
1.399627e-004,-4.284004e-004
1.313732e-004,-4.705373e-004
1.211631e-004,-5.063537e-004
1.305629e-004,-5.272602e-004
1.772377e-004,-5.322842e-004
2.527602e-004,-5.253154e-004
3.271482e-004,-5.089468e-004
3.726885e-004,-4.894990e-004
3.822504e-004,-4.702132e-004
3.626405e-004,-4.506033e-004
3.284447e-004,-4.282383e-004
2.893870e-004,-4.008493e-004
2.490327e-004,-3.653570e-004
2.148369e-004,-3.165753e-004
1.991165e-004,-2.498044e-004
2.033302e-004,-1.661787e-004
2.187264e-004,-6.780507e-005
2.326641e-004,4.369587e-005
2.347709e-004,1.639484e-004
2.219677e-004,2.903593e-004
1.960373e-004,4.279528e-004
1.637863e-004,5.778633e-004
1.300767e-004,7.347427e-004
1.020394e-004,8.880566e-004
8.599492e-005,1.025164e-003
8.323981e-005,1.126131e-003
8.826383e-005,1.170537e-003
8.972242e-005,1.152710e-003
7.902610e-005,1.083508e-003
6.006447e-005,9.807581e-004
4.353380e-005,8.548332e-004
3.818565e-005,7.123777e-004
4.239934e-005,5.582534e-004
4.645098e-005,3.953777e-004
3.607880e-005,2.289366e-004
2.045080e-006,6.281957e-005
-4.819517e-005,-9.584238e-005
-1.005423e-004,-2.342462e-004
-1.384655e-004,-3.405610e-004
-1.485136e-004,-4.117076e-004
-1.287416e-004,-4.551412e-004
-9.243900e-005,-4.800992e-004
-5.451572e-005,-4.919299e-004
-3.166451e-005,-4.916058e-004
-3.231277e-005,-4.830164e-004
-6.116039e-005,-4.692408e-004
-1.110765e-004,-4.520619e-004
-1.635857e-004,-4.306693e-004
-1.984297e-004,-4.000390e-004
-2.071812e-004,-3.533641e-004
-1.961608e-004,-2.929138e-004
-1.857886e-004,-2.313290e-004
-2.000504e-004,-1.770371e-004
-2.457528e-004,-1.319829e-004
-3.047445e-004,-8.773911e-005
-3.450988e-004,-2.420950e-005
-3.418575e-004,7.189524e-005
-2.901587e-004,1.953890e-004
-2.042641e-004,3.274723e-004
-1.126972e-004,4.394595e-004
-3.830919e-005,5.068787e-004
1.484824e-005,5.195198e-004
5.374392e-005,4.864584e-004
8.097089e-005,4.263322e-004
9.085688e-005,3.553475e-004
7.983644e-005,2.798251e-004
5.147500e-005,2.049509e-004
1.501031e-005,1.354248e-004
-2.031993e-005,7.789165e-005
-4.754691e-005,3.510641e-005
-5.953974e-005,1.193106e-005
-4.527799e-005,1.533444e-005
-2.978945e-006,4.483033e-005
5.568870e-005,8.291568e-005
1.107909e-004,1.064152e-004
1.404489e-004,9.474644e-005
1.318594e-004,3.899597e-005
8.810177e-005,-5.240886e-005
2.311357e-005,-1.595340e-004
-4.544006e-005,-2.643903e-004
-9.989401e-005,-3.553089e-004
-1.305243e-004,-4.251591e-004
-1.353863e-004,-4.713477e-004
-1.198280e-004,-4.948471e-004
-8.449780e-005,-5.057055e-004
-3.312309e-005,-5.097571e-004
2.505836e-005,-5.107295e-004
7.886404e-005,-5.078124e-004
1.218114e-004,-5.040849e-004
1.540623e-004,-4.998712e-004
1.752929e-004,-4.941989e-004
1.866375e-004,-4.856094e-004
1.897167e-004,-4.758855e-004
1.859892e-004,-4.635685e-004
1.773998e-004,-4.415277e-004
1.699448e-004,-4.076560e-004
1.652449e-004,-3.645466e-004
1.574657e-004,-3.167374e-004
1.420695e-004,-2.687660e-004
1.221355e-004,-2.227395e-004
9.539470e-005,-1.780095e-004
5.860588e-005,-1.324691e-004
1.517237e-005,-8.141856e-005
-3.279896e-005,-1.902341e-005
-8.709085e-005,5.779555e-005
-1.460826e-004,1.466074e-004
-1.976194e-004,2.376881e-004
-2.156086e-004,3.128864e-004
-1.794681e-004,3.598854e-004
-9.211487e-005,3.741471e-004
1.889987e-005,3.598854e-004
1.229458e-004,3.234207e-004
1.937684e-004,2.773941e-004
2.120818e-004,2.360674e-004
1.803169e-004,2.034923e-004
1.219734e-004,1.785342e-004
6.460230e-005,1.605450e-004
2.797553e-005,1.501728e-004
1.906194e-005,1.542244e-004
2.635488e-005,1.759412e-004
2.862379e-005,2.137024e-004
8.041497e-006,2.581083e-004
-4.511593e-005,2.989488e-004
-1.216107e-004,3.269861e-004
-1.966470e-004,3.358997e-004
-2.459149e-004,3.255275e-004
-2.535319e-004,2.970040e-004
-2.183637e-004,2.563256e-004
-1.619650e-004,2.013854e-004
-1.118868e-004,1.305629e-004
-8.174268e-005,4.790957e-005
-6.942573e-005,-3.701266e-005
-5.970181e-005,-1.139937e-004
-4.430560e-005,-1.677994e-004
-2.307504e-005,-1.927574e-004
-7.840905e-006,-1.878955e-004
-6.868513e-006,-1.618029e-004
-2.323711e-005,-1.240417e-004
-5.289507e-005,-8.449780e-005
-8.628052e-005,-4.284701e-005
-1.110765e-004,2.855407e-006
-1.185315e-004,5.649903e-005
-1.107524e-004,1.190562e-004
-9.405965e-005,1.816135e-004
-8.206682e-005,2.287745e-004
-8.482193e-005,2.478982e-004
-1.075111e-004,2.273159e-004
-1.442999e-004,1.671896e-004
-1.867610e-004,7.659513e-005
-2.241981e-004,-2.518189e-005
-2.478596e-004,-1.190177e-004
-2.507768e-004,-1.877334e-004
-2.350565e-004,-2.199844e-004
-2.050744e-004,-2.107467e-004
-1.671511e-004,-1.684476e-004
-1.269589e-004,-1.076731e-004
-8.644259e-005,-4.673658e-005
-4.252288e-005,-1.844488e-006
1.883015e-006,2.538249e-005
4.564065e-005,3.964424e-005
9.523264e-005,5.001642e-005
1.516314e-004,6.055066e-005
2.077060e-004,7.335383e-005
2.472499e-004,9.507057e-005
2.621599e-004,1.269974e-004
2.547049e-004,1.645966e-004
2.316917e-004,1.932822e-004
2.044647e-004,2.000889e-004
1.783722e-004,1.812893e-004
1.595726e-004,1.479039e-004
1.594105e-004,1.112771e-004
1.895547e-004,8.242948e-005
2.415777e-004,6.314371e-005
2.880904e-004,4.547859e-005
2.984626e-004,2.197911e-005
2.598910e-004,-7.030578e-006
1.867996e-004,-3.798505e-005
1.106288e-004,-6.504996e-005
6.071273e-005,-8.012204e-005
4.855783e-005,-8.125649e-005
6.962632e-005,-6.829127e-005
1.094944e-004,-4.090223e-005
1.634622e-004,-4.437533e-006
2.321778e-004,3.478228e-005
3.083486e-004,6.946425e-005
3.696093e-004,9.361199e-005
3.953777e-004,1.054428e-004
3.814401e-004,1.047945e-004
3.316860e-004,9.733949e-005
2.587566e-004,9.150514e-005
1.765894e-004,9.101894e-005
9.733949e-005,9.652917e-005
2.878586e-005,1.062531e-004
-2.096820e-005,1.184080e-004
-4.900550e-005,1.276457e-004
-4.932962e-005,1.326697e-004
-2.696461e-005,1.310491e-004
1.883015e-006,1.195424e-004
1.922400e-005,9.798775e-005
1.014835e-005,7.043665e-005
-2.728874e-005,4.191315e-005
-7.428769e-005,1.582063e-005
-1.055663e-004,-3.951337e-006
-1.151281e-004,-1.837515e-005
-1.104282e-004,-2.793700e-005
-1.091317e-004,-3.198864e-005
-1.245279e-004,-2.890940e-005
-1.619650e-004,-1.740276e-005
-2.143121e-004,1.720949e-006
-2.652006e-004,2.878586e-005
-2.997205e-004,5.909208e-005
-3.201407e-004,8.826383e-005
-3.326198e-004,1.062531e-004
-3.329439e-004,1.073875e-004
-3.003688e-004,9.344993e-005
-2.220912e-004,6.719535e-005
-1.165867e-004,3.235129e-005
-2.874733e-005,-4.599598e-006
1.720949e-006,-3.733679e-005
-3.263690e-005,-6.294311e-005
-1.149661e-004,-8.044617e-005
-2.203085e-004,-8.644259e-005
-3.327818e-004,-8.303922e-005
-4.361795e-004,-7.785312e-005
-5.031124e-004,-7.671866e-005
-5.042469e-004,-8.158062e-005
-4.267797e-004,-9.357346e-005
-2.856209e-004,-1.144799e-004
-1.295519e-004,-1.394379e-004
-1.772689e-005,-1.624512e-004
1.063454e-005,-1.789819e-004
-4.430560e-005,-1.903264e-004
-1.475412e-004,-2.013469e-004
-2.540181e-004,-2.131776e-004
-3.287302e-004,-2.248464e-004
-3.496366e-004,-2.331117e-004
-3.086341e-004,-2.347323e-004
-2.039399e-004,-2.305186e-004
-5.370539e-005,-2.238740e-004
1.077117e-004,-2.154466e-004
2.360674e-004,-2.057227e-004
2.984626e-004,-1.927574e-004
2.885766e-004,-1.749302e-004
2.271538e-004,-1.541859e-004
1.469315e-004,-1.350622e-004
8.518459e-005,-1.230693e-004
6.962632e-005,-1.216107e-004
1.057669e-004,-1.255003e-004
1.759412e-004,-1.287416e-004
2.504913e-004,-1.248521e-004
3.073762e-004,-1.162626e-004
3.321722e-004,-1.092938e-004
3.229345e-004,-1.060525e-004
2.879283e-004,-1.050801e-004
2.435224e-004,-1.013526e-004
2.033302e-004,-8.773911e-005
1.751309e-004,-6.375344e-005
1.602208e-004,-3.522994e-005
1.595726e-004,-4.113403e-006
1.615174e-004,2.781346e-005
1.537382e-004,5.504044e-005
1.398006e-004,7.400208e-005
1.304008e-004,8.210535e-005
1.351007e-004,7.918817e-005
1.560072e-004,7.189524e-005
1.853410e-004,6.395404e-005
2.156472e-004,6.217132e-005
2.427121e-004,6.914012e-005
2.681563e-004,8.178122e-005
2.952213e-004,9.652917e-005
3.261758e-004,1.098185e-004
3.655576e-004,1.211631e-004
4.187151e-004,1.289422e-004
4.840274e-004,1.325077e-004
5.443158e-004,1.341283e-004
5.752703e-004,1.398006e-004
5.676532e-004,1.517934e-004
5.310264e-004,1.671896e-004
4.762483e-004,1.838824e-004
4.018603e-004,1.965235e-004
3.064038e-004,2.107852e-004
1.945787e-004,2.402811e-004
7.708133e-005,2.863077e-004
-3.425755e-005,3.381686e-004
-1.267968e-004,3.827366e-004
-1.927574e-004,4.125566e-004
-2.370013e-004,4.204978e-004
-2.689281e-004,4.021844e-004
-3.052308e-004,3.538890e-004
-3.603330e-004,2.829043e-004
-4.332623e-004,2.026820e-004
-5.042469e-004,1.286181e-004
-5.486528e-004,6.768154e-005
-5.599973e-004,1.889987e-005
-5.463839e-004,-2.372331e-005
-5.219121e-004,-6.342931e-005
-4.890127e-004,-1.028112e-004
-4.468758e-004,-1.391138e-004
-3.977700e-004,-1.694200e-004
-3.517435e-004,-1.917850e-004
-3.160891e-004,-2.062088e-004
-2.946965e-004,-2.112329e-004
-2.869174e-004,-2.016710e-004
-2.833519e-004,-1.741199e-004
-2.733039e-004,-1.310105e-004
-2.455907e-004,-7.444975e-005
-1.911368e-004,-8.975362e-006
-1.089697e-004,5.860588e-005
-1.513384e-005,1.172735e-004
6.314371e-005,1.574657e-004
1.072255e-004,1.761032e-004
1.135460e-004,1.783722e-004
9.004655e-005,1.778860e-004
5.520250e-005,1.879340e-004
2.748934e-005,2.111094e-004
1.306552e-005,2.339606e-004
1.144487e-005,2.373639e-004
2.100672e-005,2.119197e-004
3.721326e-005,1.587623e-004
5.260946e-005,8.437427e-005
6.200925e-005,5.864920e-007
6.460230e-005,-7.866345e-005
6.476436e-005,-1.412206e-004
6.589881e-005,-1.771992e-004
6.379197e-005,-1.854645e-004
5.066468e-005,-1.733096e-004
2.813760e-005,-1.545100e-004
5.286387e-006,-1.373311e-004
-2.492749e-006,-1.233935e-004
1.565857e-005,-1.110765e-004
4.807163e-005,-9.940781e-005
7.319176e-005,-8.919769e-005
7.853991e-005,-8.109443e-005
7.221937e-005,-7.850138e-005
7.270556e-005,-7.995997e-005
8.534666e-005,-8.239095e-005
9.847395e-005,-7.833932e-005
9.620504e-005,-6.553616e-005
6.557468e-005,-4.252288e-005
3.179537e-006,-1.270286e-005
-7.866345e-005,1.695509e-005
-1.579134e-004,4.175109e-005
-2.113949e-004,5.860588e-005
-2.298704e-004,6.606088e-005
-2.194982e-004,6.152305e-005
-1.977815e-004,4.369587e-005
-1.731475e-004,1.501031e-005
-1.512687e-004,-1.999580e-005
-1.323071e-004,-5.532604e-005
-1.144799e-004,-8.660465e-005
-9.940781e-005,-1.109144e-004
-8.773911e-005,-1.230693e-004
-8.093236e-005,-1.204763e-004
-7.282909e-005,-1.044318e-004
-5.759496e-005,-7.963584e-005
-2.907146e-005,-4.770897e-005
1.484824e-005,-8.813297e-006
7.011252e-005,3.575467e-005
1.224596e-004,8.421220e-005
1.511452e-004,1.362352e-004
1.568175e-004,1.924718e-004
1.676758e-004,2.519498e-004
2.127300e-004,3.088348e-004
2.950592e-004,3.469201e-004
3.853296e-004,3.521062e-004
4.404318e-004,3.234207e-004
4.256839e-004,2.662116e-004
3.355756e-004,1.908512e-004
1.892305e-004,1.104668e-004
2.392390e-005,3.672706e-005
-1.154523e-004,-1.691656e-005
-1.987538e-004,-5.013995e-005
-2.160948e-004,-7.169464e-005
-1.762268e-004,-9.357346e-005
-1.050801e-004,-1.199901e-004
-3.604027e-005,-1.477033e-004
1.558884e-006,-1.720131e-004
2.369211e-006,-1.951884e-004
-7.840905e-006,-2.258187e-004
-6.176923e-008,-2.690902e-004
4.985435e-005,-3.204649e-004
1.435281e-004,-3.720016e-004
2.616738e-004,-4.105732e-004
3.668542e-004,-4.241867e-004
4.182289e-004,-4.021458e-004
3.914881e-004,-3.470436e-004
2.952213e-004,-2.746004e-004
1.587623e-004,-2.028055e-004
2.473423e-005,-1.431655e-004
-7.380149e-005,-1.049180e-004
-1.255003e-004,-9.681477e-005
-1.318209e-004,-1.130213e-004
-1.029732e-004,-1.355484e-004
-5.532604e-005,-1.481895e-004
-7.840905e-006,-1.441378e-004
2.894792e-005,-1.264727e-004
5.374392e-005,-9.746302e-005
6.573675e-005,-5.791909e-005
6.492643e-005,-8.975362e-006
4.726130e-005,4.418206e-005
1.387585e-005,8.858796e-005
-2.615429e-005,1.111150e-004
-6.521203e-005,1.038221e-004
-1.016767e-004,6.768154e-005
-1.389517e-004,1.679302e-005
-1.775233e-004,-2.826114e-005
-2.070192e-004,-4.997789e-005
-2.113949e-004,-4.236082e-005
-1.801163e-004,-3.465141e-006
-1.203142e-004,5.439218e-005
-4.900550e-005,1.116012e-004
1.614476e-005,1.526038e-004
6.298164e-005,1.678379e-004
8.793970e-005,1.576278e-004
9.588091e-005,1.308870e-004
9.555677e-005,1.049566e-004
9.490851e-005,9.296373e-005
9.620504e-005,1.060910e-004
8.972242e-005,1.469315e-004
5.990240e-005,2.073819e-004
2.045080e-006,2.733424e-004
-7.234290e-005,3.311998e-004
-1.430034e-004,3.781987e-004
-1.906506e-004,4.198496e-004
-2.083157e-004,4.563143e-004
-2.086398e-004,4.801379e-004
-2.104225e-004,4.833792e-004
-2.207947e-004,4.653899e-004
-2.334358e-004,4.313562e-004
-2.381357e-004,3.871123e-004
-2.258187e-004,3.380065e-004
-1.859507e-004,2.885766e-004
-1.084835e-004,2.402811e-004
-2.006553e-006,1.945787e-004
1.128978e-004,1.561692e-004
2.093267e-004,1.242423e-004
2.676702e-004,9.539470e-005
2.817699e-004,6.751948e-005
2.561635e-004,4.369587e-005
2.036544e-004,2.878586e-005
1.420695e-004,2.311357e-005
9.166720e-005,2.359977e-005
6.103686e-005,2.765140e-005
4.223728e-005,3.283749e-005
2.327564e-005,3.656499e-005
-6.220252e-006,3.332369e-005
-4.868137e-005,1.971020e-005
-1.023250e-004,-5.409925e-006
-1.627754e-004,-3.685060e-005
-2.188499e-004,-6.861539e-005
-2.616352e-004,-9.535618e-005
-2.921034e-004,-1.180453e-004
-3.159271e-004,-1.357104e-004
-3.303509e-004,-1.467309e-004
-3.190063e-004,-1.511067e-004
-2.729798e-004,-1.491618e-004
-2.018331e-004,-1.434896e-004
-1.272830e-004,-1.383035e-004
-7.428769e-005,-1.370070e-004
-5.937768e-005,-1.323071e-004
-8.303922e-005,-1.109144e-004
-1.242038e-004,-7.250496e-005
-1.506204e-004,-3.231277e-005
-1.423551e-004,-1.837515e-005
-9.973194e-005,-4.754691e-005
-3.733679e-005,-1.217728e-004
2.732727e-005,-2.267911e-004
7.918817e-005,-3.446126e-004
1.026876e-004,-4.585445e-004
9.782569e-005,-5.533527e-004
8.097089e-005,-6.188271e-004
6.849186e-005,-6.518884e-004
6.200925e-005,-6.583710e-004
4.661304e-005,-6.473506e-004
6.096713e-006,-6.223925e-004
-6.018800e-005,-5.857658e-004
-1.387897e-004,-5.405495e-004
-2.023193e-004,-4.950092e-004
-2.233878e-004,-4.614617e-004
-1.835197e-004,-4.486585e-004
-8.871149e-005,-4.559515e-004
3.397195e-005,-4.773441e-004
1.524417e-004,-5.021401e-004
2.438466e-004,-5.230465e-004
3.064038e-004,-5.390910e-004
3.490270e-004,-5.408737e-004
3.840331e-004,-5.219121e-004
4.204978e-004,-4.797751e-004
4.580970e-004,-4.096008e-004
4.828930e-004,-3.133340e-004
4.858102e-004,-1.971332e-004
4.707381e-004,-6.991193e-005
4.423766e-004,5.795762e-005
4.023465e-004,1.715654e-004
3.409237e-004,2.587566e-004
2.561635e-004,3.222862e-004
1.563313e-004,3.788470e-004
5.568870e-005,4.467524e-004
-3.085418e-005,5.354022e-004
-9.713889e-005,6.355586e-004
-1.383035e-004,7.287462e-004
-1.520790e-004,7.938966e-004
-1.336036e-004,8.130203e-004
-7.558420e-005,7.772038e-004
2.489629e-005,6.888782e-004
1.514693e-004,5.546879e-004
2.744769e-004,3.916502e-004
3.660439e-004,2.182402e-004
4.156358e-004,4.953022e-005
4.298976e-004,-9.811128e-005
4.227667e-004,-2.050744e-004
4.025085e-004,-2.611490e-004
3.631267e-004,-2.588801e-004
2.948972e-004,-1.943781e-004
2.067336e-004,-6.893953e-005
1.163011e-004,1.081979e-004
3.640293e-005,3.276344e-004
-2.599222e-005,5.793219e-004
-7.688073e-005,8.595330e-004
-1.269589e-004,1.156761e-003
-1.784957e-004,1.440700e-003
-2.219292e-004,1.658355e-003
-2.523975e-004,1.750732e-003
-2.630937e-004,1.684933e-003
-2.475355e-004,1.471006e-003
-2.079916e-004,1.162758e-003
-1.549962e-004,8.316578e-004
-9.843541e-005,5.381573e-004
-4.511593e-005,3.143450e-004
-1.844488e-006,1.603829e-004
2.424803e-005,6.006447e-005
2.084466e-005,-7.030578e-006
-2.226472e-005,-5.613637e-005
-1.036215e-004,-9.454585e-005
-2.079916e-004,-1.267968e-004
-3.097686e-004,-1.554824e-004
-3.846427e-004,-1.841680e-004
-4.177041e-004,-2.173914e-004
-4.083043e-004,-2.556388e-004
-3.627639e-004,-2.946965e-004
-2.955068e-004,-3.285682e-004
-2.293842e-004,-3.517435e-004
-1.849783e-004,-3.551469e-004
-1.733096e-004,-3.297026e-004
-1.898403e-004,-2.736280e-004
-2.186879e-004,-1.956746e-004
-2.438080e-004,-1.096179e-004
-2.575835e-004,-3.474375e-005
-2.609869e-004,1.128280e-005
-2.605007e-004,1.808955e-005
-2.601766e-004,-1.335113e-005
-2.645523e-004,-7.169464e-005
-2.694143e-004,-1.428413e-004
-2.721694e-004,-2.146363e-004
-2.775176e-004,-2.801106e-004
-2.857829e-004,-3.361852e-004
-2.919414e-004,-3.799429e-004
-2.836761e-004,-4.113835e-004
-2.546664e-004,-4.334244e-004
-2.037779e-004,-4.509274e-004
-1.358725e-004,-4.681064e-004
-5.953974e-005,-4.830164e-004
1.646890e-005,-4.919299e-004
8.615699e-005,-4.948471e-004
1.438522e-004,-4.912817e-004
1.858272e-004,-4.784786e-004
2.135403e-004,-4.587066e-004
2.342847e-004,-4.397449e-004
2.590807e-004,-4.275900e-004
2.987867e-004,-4.198109e-004
3.553475e-004,-4.104111e-004
4.219564e-004,-3.979321e-004
4.858102e-004,-3.836704e-004
5.339436e-004,-3.685983e-004
5.527431e-004,-3.488263e-004
5.332953e-004,-3.228959e-004
4.790034e-004,-2.943724e-004
3.974845e-004,-2.671454e-004
2.995970e-004,-2.415391e-004
2.025199e-004,-2.139880e-004
1.222976e-004,-1.841680e-004
6.800567e-005,-1.536997e-004
4.272347e-005,-1.199901e-004
4.693717e-005,-8.482193e-005
6.768154e-005,-5.013995e-005
7.853991e-005,-2.177852e-005
5.698522e-005,9.106227e-007
-6.220252e-006,2.230325e-005
-1.055663e-004,4.483033e-005
-2.263049e-004,7.027458e-005
-3.397507e-004,9.652917e-005
-4.112214e-004,1.221355e-004
-4.206212e-004,1.453108e-004
-3.767015e-004,1.598967e-004
-3.104168e-004,1.650828e-004
-2.569353e-004,1.639484e-004
-2.340841e-004,1.636242e-004
-2.408908e-004,1.667035e-004
-2.622834e-004,1.749688e-004
-2.793003e-004,1.863134e-004
-2.801106e-004,1.958752e-004
-2.666592e-004,2.002510e-004
-2.408908e-004,1.986303e-004
-2.091260e-004,1.924718e-004
-1.729855e-004,1.829100e-004
-1.340898e-004,1.692965e-004
-9.956988e-005,1.535762e-004
-8.174268e-005,1.381800e-004
-8.676672e-005,1.242423e-004
-1.068628e-004,1.119254e-004
-1.258245e-004,1.039842e-004
-1.272830e-004,1.013911e-004
-1.081593e-004,1.005808e-004
-7.363943e-005,9.782569e-005
-3.166451e-005,9.231547e-005
1.387585e-005,8.502253e-005
6.719535e-005,7.432621e-005
1.365593e-004,5.844381e-005
2.303951e-004,3.899597e-005
3.475684e-004,1.889987e-005
4.715484e-004,2.045080e-006
5.746220e-004,-1.286493e-005
6.396103e-004,-2.420950e-005
6.682958e-004,-3.263690e-005
6.794783e-004,-4.025397e-005
6.906608e-004,-4.706071e-005
7.104329e-004,-5.159854e-005
7.417115e-004,-5.176061e-005
7.801210e-004,-4.770897e-005
8.133444e-004,-3.944364e-005
8.193408e-004,-3.150244e-005
7.791486e-004,-2.923353e-005
6.770474e-004,-3.522994e-005
5.140096e-004,-4.706071e-005
3.185587e-004,-6.245691e-005
1.339663e-004,-7.688073e-005
6.582909e-006,-8.725291e-005
-5.046408e-005,-9.179074e-005
-4.981582e-005,-9.146661e-005
-1.335113e-005,-9.276313e-005
4.483033e-005,-9.989401e-005
1.185701e-004,-1.097800e-004
2.083542e-004,-1.183694e-004
3.094830e-004,-1.276072e-004
4.010500e-004,-1.379794e-004
4.480489e-004,-1.475412e-004
4.188772e-004,-1.509446e-004
3.072141e-004,-1.467309e-004
1.368834e-004,-1.383035e-004
-4.803310e-005,-1.310105e-004
-2.091260e-004,-1.302002e-004
-3.215994e-004,-1.323071e-004
-3.778360e-004,-1.327933e-004
-3.904771e-004,-1.259865e-004
-3.878840e-004,-1.081593e-004
-3.898288e-004,-7.914964e-005
-3.899909e-004,-4.009191e-005
-3.676259e-004,7.879432e-006
-3.125237e-004,5.763349e-005
-2.334358e-004,9.879808e-005
-1.593720e-004,1.247285e-004
-1.177212e-004,1.274836e-004
-1.148040e-004,1.078737e-004
-1.360346e-004,7.578480e-005
-1.669890e-004,4.142696e-005
-1.982676e-004,1.419998e-005
-2.232257e-004,-1.034161e-006
-2.323013e-004,-1.844488e-006
-2.173914e-004,9.662150e-006
-1.828714e-004,3.251336e-005
-1.430034e-004,7.205730e-005
-1.164247e-004,1.304008e-004
-1.144799e-004,2.004130e-004
-1.361966e-004,2.679943e-004
-1.681235e-004,3.161277e-004
-1.964849e-004,3.357376e-004
-2.190120e-004,3.273102e-004
-2.387840e-004,3.020280e-004
-2.579077e-004,2.791768e-004
-2.796244e-004,2.795009e-004
-3.076617e-004,3.172622e-004
-3.408851e-004,3.879227e-004
-3.728119e-004,4.791655e-004
-3.956632e-004,5.765668e-004
-4.060354e-004,6.626236e-004
-4.068457e-004,7.305289e-004
-4.050630e-004,7.775280e-004
-4.097628e-004,8.034584e-004
-4.267797e-004,8.054032e-004
-4.528722e-004,7.833623e-004
-4.771820e-004,7.386322e-004
-4.933886e-004,6.742922e-004
-5.000332e-004,5.999042e-004
-5.035987e-004,5.375090e-004
-5.120260e-004,5.130371e-004
-5.288809e-004,5.305402e-004
-5.518941e-004,5.712186e-004
-5.745832e-004,6.021731e-004
-5.975965e-004,5.965008e-004
-6.120203e-004,5.415607e-004
-6.065101e-004,4.415663e-004
-5.715040e-004,3.135347e-004
-5.081365e-004,1.761032e-004
-4.167317e-004,4.515445e-005
-2.993964e-004,-6.683268e-005
-1.611547e-004,-1.507825e-004
-1.691656e-005,-2.070192e-004
1.080358e-004,-2.449425e-004
1.999268e-004,-2.742763e-004
2.624841e-004,-3.065273e-004
3.088348e-004,-3.501228e-004
3.474063e-004,-4.086284e-004
3.786850e-004,-4.762096e-004
3.992672e-004,-5.392530e-004
4.012120e-004,-5.862520e-004
3.803056e-004,-6.172064e-004
3.457857e-004,-6.398956e-004
3.143450e-004,-6.648536e-004
2.960316e-004,-6.938633e-004
2.908455e-004,-7.243316e-004
2.923041e-004,-7.466965e-004
2.876042e-004,-7.526930e-004
2.663737e-004,-7.395657e-004
2.242366e-004,-7.118525e-004
1.688103e-004,-6.765223e-004
1.124116e-004,-6.398956e-004
6.832980e-005,-6.058619e-004
4.045456e-005,-5.713420e-004
2.522042e-005,-5.360117e-004
1.857574e-005,-4.977643e-004
2.327564e-005,-4.559515e-004
4.256141e-005,-4.139766e-004
7.578480e-005,-3.702189e-004
1.197045e-004,-3.185201e-004
1.603829e-004,-2.522354e-004
1.811273e-004,-1.707166e-004
1.786963e-004,-7.963584e-005
1.665414e-004,7.231170e-006
1.675138e-004,7.286763e-005
1.992786e-004,1.085220e-004
2.600531e-004,1.185701e-004
3.323342e-004,1.116012e-004
4.005638e-004,9.539470e-005
4.587452e-004,7.286763e-005
5.054200e-004,4.483033e-005
5.344298e-004,1.322759e-005
5.368608e-004,-1.999580e-005
5.081752e-004,-5.030202e-005
4.580970e-004,-7.072225e-005
4.029947e-004,-7.639453e-005
3.590750e-004,-7.088431e-005
3.337929e-004,-6.569822e-005
3.264999e-004,-6.440170e-005
3.276344e-004,-6.877746e-005
3.252034e-004,-7.850138e-005
3.067279e-004,-8.984595e-005
2.641047e-004,-9.697683e-005
1.976579e-004,-9.292520e-005
1.201907e-004,-7.607040e-005
4.774750e-005,-4.641245e-005
-5.085794e-006,-1.844488e-006
-2.955766e-005,5.763349e-005
-2.874733e-005,1.281319e-004
-1.853722e-005,1.999268e-004
-1.788895e-005,2.619979e-004
-3.360929e-005,3.033245e-004
-5.257093e-005,3.145071e-004
-5.240886e-005,2.963557e-004
-2.631635e-005,2.550291e-004
1.063454e-005,1.984683e-004
3.624086e-005,1.402868e-004
3.348575e-005,9.199134e-005
3.179537e-006,5.893001e-005
-4.009191e-005,4.158902e-005
-7.461182e-005,3.737532e-005
-8.417367e-005,3.980630e-005
-6.423963e-005,4.158902e-005
-2.809907e-005,3.899597e-005
4.244267e-007,3.218923e-005
-5.479652e-007,2.603075e-005
-3.701266e-005,2.230325e-005
-1.011905e-004,2.003433e-005
-1.720131e-004,1.808955e-005
-2.314910e-004,1.176900e-005
-2.652006e-004,-7.516774e-006
-2.630937e-004,-4.544006e-005
-2.352185e-004,-9.535618e-005
-2.049123e-004,-1.486757e-004
-1.872472e-004,-2.029675e-004
-1.901644e-004,-2.596904e-004
-2.117191e-004,-3.204649e-004
-2.391081e-004,-3.804291e-004
-2.588801e-004,-4.340726e-004
-2.713591e-004,-4.792889e-004
-2.801106e-004,-5.105674e-004
-2.857829e-004,-5.189948e-004
-2.830278e-004,-5.037607e-004
-2.697385e-004,-4.698891e-004
-2.378116e-004,-4.220798e-004
-1.640719e-004,-3.582261e-004
-3.393342e-005,-2.793003e-004
1.357490e-004,-1.820611e-004
2.942489e-004,-6.650855e-005
3.848434e-004,6.573675e-005
3.804677e-004,2.125679e-004
2.944109e-004,3.658818e-004
1.712413e-004,5.136854e-004
6.444023e-005,6.426895e-004
1.225520e-005,7.331221e-004
1.776542e-005,7.661834e-004
6.184718e-005,7.362012e-004
1.184080e-004,6.563030e-004
1.688103e-004,5.512846e-004
2.070577e-004,4.491834e-004
2.342847e-004,3.754436e-004
2.551911e-004,3.490270e-004
2.720459e-004,3.720403e-004
2.848491e-004,4.315182e-004
2.995970e-004,5.099580e-004
3.229345e-004,5.885597e-004
3.571303e-004,6.533858e-004
3.945674e-004,6.961711e-004
4.164462e-004,7.107570e-004
3.961880e-004,6.976296e-004
3.164518e-004,6.595443e-004
1.765894e-004,6.034696e-004
-8.720959e-007,5.337815e-004
-1.861127e-004,4.551798e-004
-3.433161e-004,3.675024e-004
-4.392588e-004,2.726942e-004
-4.578962e-004,1.757791e-004
-4.079801e-004,8.664318e-005
-3.084721e-004,1.565857e-005
-1.762268e-004,-3.117831e-005
-2.777494e-005,-5.678463e-005
1.143563e-004,-6.537409e-005
2.268297e-004,-6.132246e-005
2.965178e-004,-4.495386e-005
3.253654e-004,-2.210265e-005
3.302274e-004,-2.330684e-006
3.350894e-004,-3.951337e-006
3.582647e-004,-3.830919e-005
3.824125e-004,-9.730096e-005
3.691231e-004,-1.647201e-004
2.895490e-004,-2.220912e-004
1.540623e-004,-2.511010e-004
1.558884e-006,-2.408908e-004
-1.261486e-004,-1.950263e-004
-2.096122e-004,-1.263107e-004
-2.574215e-004,-4.706071e-005
-2.841623e-004,3.089271e-005
-2.959930e-004,1.049566e-004
-2.992343e-004,1.764274e-004
-2.992343e-004,2.475741e-004
-3.008550e-004,3.172622e-004
-3.084721e-004,3.767402e-004
-3.225718e-004,4.062361e-004
-3.423437e-004,3.887330e-004
-3.621157e-004,3.209897e-004
-3.771877e-004,2.124059e-004
-3.869116e-004,7.853991e-005
-3.872358e-004,-6.229485e-005
-3.776739e-004,-1.927574e-004
-3.666535e-004,-3.000446e-004
-3.593606e-004,-3.789705e-004
-3.619536e-004,-4.309934e-004
-3.760533e-004,-4.621100e-004
-3.982562e-004,-4.794509e-004
-4.178661e-004,-4.924161e-004
-4.211074e-004,-5.089468e-004
-4.021458e-004,-5.306636e-004
-3.651949e-004,-5.512458e-004
-3.207890e-004,-5.650214e-004
-2.793003e-004,-5.676145e-004
-2.507768e-004,-5.585388e-004
-2.366771e-004,-5.444391e-004
-2.276015e-004,-5.288809e-004
-2.088019e-004,-5.099192e-004
-1.797922e-004,-4.890127e-004
-1.524032e-004,-4.690787e-004
-1.327933e-004,-4.507654e-004
-1.156143e-004,-4.345588e-004
-8.449780e-005,-4.204592e-004
-2.923353e-005,-4.073319e-004
4.094075e-005,-3.925839e-004
1.031738e-004,-3.757291e-004
1.349386e-004,-3.574158e-004
1.346145e-004,-3.394265e-004
1.103047e-004,-3.253268e-004
7.837785e-005,-3.152788e-004
5.730935e-005,-3.047445e-004
6.136099e-005,-2.914552e-004
9.717743e-005,-2.763831e-004
1.662173e-004,-2.596904e-004
2.566497e-004,-2.415391e-004
3.449753e-004,-2.233878e-004
4.098015e-004,-2.122053e-004
4.443214e-004,-2.062088e-004
4.532350e-004,-2.055606e-004
4.462662e-004,-2.047502e-004
4.294114e-004,-2.003745e-004
4.004017e-004,-1.872472e-004
3.516200e-004,-1.648822e-004
2.866318e-004,-1.324691e-004
2.193747e-004,-9.195280e-005
1.647587e-004,-4.560212e-005
1.310491e-004,1.883015e-006
1.094944e-004,4.904402e-005
8.939829e-005,9.766362e-005
6.136099e-005,1.454729e-004
2.781346e-005,1.880961e-004
-1.682422e-006,2.245608e-004
-2.242678e-005,2.503292e-004
-3.312309e-005,2.645909e-004
-2.874733e-005,2.710735e-004
-3.627206e-006,2.806354e-004
4.304761e-005,3.057555e-004
1.026876e-004,3.525924e-004
1.574657e-004,4.174185e-004
1.842065e-004,4.909963e-004
1.701068e-004,5.699221e-004
1.174356e-004,6.548444e-004
4.774750e-005,7.473837e-004
-9.947754e-006,8.434886e-004
-4.462973e-005,9.408899e-004
-6.116039e-005,1.034078e-003
-6.407757e-005,1.114462e-003
-4.997789e-005,1.166971e-003
-1.075808e-005,1.177181e-003
5.828175e-005,1.137800e-003
1.428799e-004,1.051905e-003
2.196988e-004,9.298695e-004
2.616738e-004,7.827141e-004
2.590807e-004,6.221072e-004
2.206712e-004,4.637693e-004
1.608691e-004,3.222862e-004
8.810177e-005,2.005751e-004
6.582909e-006,9.458438e-005
-7.461182e-005,-2.654814e-006
-1.470550e-004,-9.438378e-005
-2.032917e-004,-1.797922e-004
-2.460769e-004,-2.598524e-004
-2.814071e-004,-3.371576e-004
-3.185201e-004,-4.136524e-004
-3.596847e-004,-4.860956e-004
-3.997148e-004,-5.463839e-004
-4.306693e-004,-5.883588e-004
-4.528722e-004,-6.050515e-004
-4.634065e-004,-5.995413e-004
-4.470379e-004,-5.794452e-004
-3.925839e-004,-5.552975e-004
-2.979378e-004,-5.329325e-004
-1.716889e-004,-5.147812e-004
-3.069211e-005,-4.972781e-004
1.015532e-004,-4.800992e-004
2.047888e-004,-4.619479e-004
2.670219e-004,-4.405553e-004
2.889007e-004,-4.121938e-004
2.692908e-004,-3.771877e-004
2.117576e-004,-3.366714e-004
1.278078e-004,-2.946965e-004
4.580272e-005,-2.577456e-004
2.623614e-007,-2.340841e-004
8.527692e-006,-2.237119e-004
7.011252e-005,-2.177155e-004
1.684862e-004,-2.013469e-004
2.816078e-004,-1.629374e-004
3.882468e-004,-9.341139e-005
4.671726e-004,8.365628e-006
4.982892e-004,1.312112e-004
4.767345e-004,2.545429e-004
4.162841e-004,3.636129e-004
3.407616e-004,4.501558e-004
2.636185e-004,5.170888e-004
1.921477e-004,5.660325e-004
1.308870e-004,5.953664e-004
7.821578e-005,6.000663e-004
3.170304e-005,5.747841e-004
-1.351319e-005,5.190336e-004
-6.650855e-005,4.399457e-004
-1.302002e-004,3.501615e-004
-2.024813e-004,2.632944e-004
-2.747625e-004,1.906891e-004
-3.378059e-004,1.406109e-004
-3.873979e-004,1.151667e-004
-4.159214e-004,1.107909e-004
-4.139766e-004,1.163011e-004
-3.765395e-004,1.180839e-004
-3.066893e-004,1.090082e-004
-2.211189e-004,9.134307e-005
-1.361966e-004,7.205730e-005
-6.618442e-005,5.779555e-005
-1.950961e-005,5.277153e-005
7.717366e-006,5.277153e-005
2.489629e-005,5.341979e-005
4.061663e-005,4.547859e-005
5.568870e-005,2.441009e-005
6.832980e-005,-5.734056e-006
7.221937e-005,-3.814712e-005
6.071273e-005,-6.877746e-005
3.024445e-005,-9.584238e-005
-1.529591e-005,-1.185315e-004
-6.926366e-005,-1.331174e-004
-1.198280e-004,-1.386276e-004
-1.527273e-004,-1.339277e-004
-1.509446e-004,-1.229073e-004
-9.859748e-005,-1.083214e-004
1.825161e-005,-9.632857e-005
1.978200e-004,-9.341139e-005
4.157979e-004,-1.002181e-004
6.366931e-004,-1.115627e-004
8.203132e-004,-1.238797e-004
9.335970e-004,-1.365208e-004
9.587171e-004,-1.528894e-004
8.904876e-004,-1.762268e-004
7.344186e-004,-2.036158e-004
5.164405e-004,-2.267911e-004
2.804733e-004,-2.391081e-004
7.205730e-005,-2.412149e-004
-8.303922e-005,-2.395943e-004
-1.814128e-004,-2.374874e-004
-2.421874e-004,-2.360289e-004
-2.921034e-004,-2.378116e-004
-3.538503e-004,-2.428356e-004
-4.339106e-004,-2.512630e-004
-5.238568e-004,-2.590421e-004
-6.045654e-004,-2.640662e-004
-6.501057e-004,-2.635799e-004
-6.486471e-004,-2.579077e-004
-6.019723e-004,-2.491561e-004
-5.288809e-004,-2.395943e-004
-4.457413e-004,-2.311669e-004
-3.627639e-004,-2.251705e-004
-2.788141e-004,-2.211189e-004
-1.823853e-004,-2.172293e-004
-5.727083e-005,-2.100984e-004
9.717743e-005,-1.976194e-004
2.621599e-004,-1.810887e-004
4.089912e-004,-1.637477e-004
5.127130e-004,-1.475412e-004
5.647360e-004,-1.308485e-004
5.618189e-004,-1.149661e-004
5.089855e-004,-1.011905e-004
4.174185e-004,-9.017008e-005
2.999212e-004,-8.206682e-005
1.668655e-004,-7.363943e-005
2.359977e-005,-6.294311e-005
-1.191798e-004,-4.868137e-005
-2.532078e-004,-3.215070e-005
-3.645466e-004,-1.027188e-005
-4.369898e-004,1.630683e-005
-4.546549e-004,4.564065e-005
-4.092767e-004,7.286763e-005
-3.079858e-004,8.972242e-005
-1.747682e-004,9.377406e-005
-4.625038e-005,8.729144e-005
4.742337e-005,7.497447e-005
9.831188e-005,6.022653e-005
1.187321e-004,4.888196e-005
1.205148e-004,4.612685e-005
1.153287e-004,5.455425e-005
1.161391e-004,7.173317e-005
1.328318e-004,9.847395e-005
1.720516e-004,1.310491e-004
2.255332e-004,1.641104e-004
2.746390e-004,1.869616e-004
2.957075e-004,1.936063e-004
2.752873e-004,1.846927e-004
2.222919e-004,1.694586e-004
1.496866e-004,1.602208e-004
6.055066e-005,1.621656e-004
-4.252288e-005,1.752929e-004
-1.511067e-004,1.940925e-004
-2.501286e-004,2.085163e-004
-3.329439e-004,2.109473e-004
-3.977700e-004,2.017096e-004
-4.405553e-004,1.884202e-004
-4.557894e-004,1.804790e-004
-4.316416e-004,1.803169e-004
-3.653570e-004,1.848548e-004
-2.686040e-004,1.921477e-004
-1.668270e-004,2.000889e-004
-8.368748e-005,2.036544e-004
-3.393342e-005,1.997648e-004
-2.096820e-005,1.861513e-004
-3.539201e-005,1.655690e-004
-5.548811e-005,1.441764e-004
-6.602235e-005,1.313732e-004
-6.812920e-005,1.331559e-004
-6.991193e-005,1.472556e-004
-8.028410e-005,1.726999e-004
-9.827335e-005,2.096508e-004
-1.114006e-004,2.564877e-004
-1.052422e-004,3.120761e-004
-7.963584e-005,3.731747e-004
-4.949169e-005,4.331389e-004
-3.701266e-005,4.788414e-004
-6.278104e-005,4.945617e-004
-1.352242e-004,4.725208e-004
-2.335979e-004,4.164462e-004
-3.193304e-004,3.354135e-004
-3.502849e-004,2.391467e-004
-3.034480e-004,1.432040e-004
-1.843300e-004,5.811968e-005
-2.501983e-005,-7.840905e-006
1.257009e-004,-5.176061e-005
2.300710e-004,-7.380149e-005
2.730183e-004,-7.817725e-005
2.665357e-004,-6.893953e-005
2.320158e-004,-5.224680e-005
1.898788e-004,-3.506788e-005
1.571416e-004,-2.518189e-005
1.467694e-004,-2.923353e-005
1.615174e-004,-4.997789e-005
1.929580e-004,-8.579432e-005
2.221298e-004,-1.337657e-004
2.312055e-004,-1.880575e-004
2.115956e-004,-2.350565e-004
1.671896e-004,-2.582318e-004
1.104668e-004,-2.428356e-004
5.666109e-005,-1.950263e-004
1.501031e-005,-1.334415e-004
-8.327101e-006,-7.542214e-005
-1.529591e-005,-3.053005e-005
-1.302700e-005,2.693341e-006
-5.085794e-006,3.526847e-005
4.476060e-006,7.416415e-005
8.527692e-006,1.151667e-004
3.989864e-006,1.495245e-004
-8.165035e-006,1.726999e-004
-2.161646e-005,1.835583e-004
-3.441962e-005,1.782101e-004
-5.127441e-005,1.517934e-004
-7.833932e-005,1.044704e-004
-1.092938e-004,4.677511e-005
-1.261486e-004,-1.092015e-005
-1.078352e-004,-6.197072e-005
-4.576419e-005,-1.005423e-004
5.260946e-005,-1.256624e-004
1.655690e-004,-1.392759e-004
2.615117e-004,-1.446240e-004
3.145071e-004,-1.468929e-004
3.073762e-004,-1.530514e-004
2.423880e-004,-1.665028e-004
1.428799e-004,-1.870851e-004
4.191315e-005,-2.120432e-004
-2.583016e-005,-2.363530e-004
-4.576419e-005,-2.567732e-004
-2.680255e-005,-2.718453e-004
9.013889e-006,-2.809209e-004
4.628891e-005,-2.867553e-004
7.578480e-005,-2.909690e-004
9.766362e-005,-2.924276e-004
1.106288e-004,-2.840002e-004
1.182459e-004,-2.596904e-004
1.252147e-004,-2.198223e-004
1.370455e-004,-1.728234e-004
1.530900e-004,-1.293899e-004
1.705930e-004,-9.843541e-005
1.801549e-004,-8.547019e-005
1.730240e-004,-8.968389e-005
1.406109e-004,-1.050801e-004
7.967438e-005,-1.235555e-004
3.827799e-006,-1.384655e-004
-6.229485e-005,-1.451102e-004
-9.551824e-005,-1.394379e-004
-9.017008e-005,-1.196660e-004
-6.229485e-005,-8.692878e-005
-3.863332e-005,-4.787104e-005
-4.268495e-005,-2.168618e-006
-7.850138e-005,4.904402e-005
-1.289037e-004,1.090082e-004
-1.690959e-004,1.731861e-004
-1.823853e-004,2.326641e-004
-1.699062e-004,2.717218e-004
-1.459206e-004,2.743149e-004
-1.279313e-004,2.360674e-004
-1.242038e-004,1.717275e-004
-1.282554e-004,1.009049e-004
-1.277692e-004,3.186510e-005
-1.079973e-004,-3.360929e-005
-6.180866e-005,-1.008664e-004
3.989864e-006,-1.750923e-004
6.978839e-005,-2.506147e-004
1.151667e-004,-3.172236e-004
1.278078e-004,-3.677880e-004
1.046324e-004,-4.011734e-004
5.585077e-005,-4.199730e-004
-4.113403e-006,-4.274280e-004
-6.472583e-005,-4.348830e-004
-1.222590e-004,-4.475241e-004
-1.810887e-004,-4.711856e-004
-2.480217e-004,-5.021401e-004
-3.245165e-004,-5.348772e-004
-4.068457e-004,-5.601594e-004
-4.773441e-004,-5.703696e-004
-5.134846e-004,-5.578905e-004
-4.901472e-004,-5.199672e-004
-3.885323e-004,-4.559515e-004
-2.070192e-004,-3.682741e-004
3.591673e-005,-2.627696e-004
2.937627e-004,-1.447861e-004
5.055821e-004,-1.756482e-005
6.264829e-004,1.116012e-004
6.387999e-004,2.406053e-004
5.566327e-004,3.642611e-004
4.209840e-004,4.764104e-004
2.735045e-004,5.637637e-004
1.362352e-004,6.115729e-004
1.987227e-005,6.109247e-004
-6.731888e-005,5.618189e-004
-1.201522e-004,4.812723e-004
-1.308485e-004,3.999155e-004
-9.243900e-005,3.483787e-004
-1.043395e-005,3.487029e-004
9.101894e-005,4.065602e-004
1.793446e-004,5.135234e-004
2.271538e-004,6.559788e-004
2.247229e-004,8.237166e-004
1.863134e-004,1.007661e-003
1.414213e-004,1.185447e-003
1.138702e-004,1.317368e-003
1.141943e-004,1.367771e-003
1.344524e-004,1.319961e-003
1.620036e-004,1.180909e-003
1.851789e-004,9.812443e-004
1.970097e-004,7.587284e-004
1.976579e-004,5.483674e-004
1.903650e-004,3.731747e-004
1.806411e-004,2.509774e-004
1.725378e-004,1.817755e-004
1.647587e-004,1.521176e-004
1.516314e-004,1.432040e-004
1.252147e-004,1.378558e-004
8.486046e-005,1.265113e-004
3.948217e-005,1.065772e-004
9.106227e-007,7.708133e-005
-1.902341e-005,3.915804e-005
-2.113026e-005,-6.382317e-006
-1.772689e-005,-5.565017e-005
-2.226472e-005,-1.008664e-004
-4.106429e-005,-1.387897e-004
-7.266703e-005,-1.705545e-004
-1.089697e-004,-2.018331e-004
-1.449482e-004,-2.361909e-004
-1.734716e-004,-2.723315e-004
-1.880575e-004,-3.079858e-004
-1.859507e-004,-3.415334e-004
-1.749302e-004,-3.692465e-004
-1.650443e-004,-3.854531e-004
-1.575893e-004,-3.895047e-004
-1.384655e-004,-3.867496e-004
-9.438378e-005,-3.825359e-004
-2.955766e-005,-3.835083e-004
3.218923e-005,-3.938804e-004
5.925414e-005,-4.162455e-004
3.380988e-005,-4.475241e-004
-3.847125e-005,-4.783165e-004
-1.313347e-004,-4.988988e-004
-2.130156e-004,-5.047331e-004
-2.585559e-004,-5.005194e-004
-2.587180e-004,-4.940368e-004
-2.237119e-004,-4.906334e-004
-1.741199e-004,-4.891749e-004
-1.313347e-004,-4.809095e-004
-1.044318e-004,-4.640547e-004
-9.665270e-005,-4.400691e-004
-1.065387e-004,-4.143007e-004
-1.255003e-004,-3.893426e-004
-1.408965e-004,-3.681121e-004
-1.426792e-004,-3.514194e-004
-1.297140e-004,-3.395886e-004
-1.088076e-004,-3.292164e-004
-8.806324e-005,-3.196545e-004
-6.877746e-005,-3.102548e-004
-5.500191e-005,-3.039342e-004
-5.095028e-005,-2.998826e-004
-5.013995e-005,-2.974516e-004
-3.798505e-005,-2.950206e-004
-5.571990e-006,-2.911311e-004
3.721326e-005,-2.815692e-004
7.416415e-005,-2.629317e-004
9.458438e-005,-2.365151e-004
1.025256e-004,-2.096122e-004
1.054428e-004,-1.877334e-004
1.120874e-004,-1.781716e-004
1.231079e-004,-1.786577e-004
1.357490e-004,-1.854645e-004
1.466074e-004,-1.942160e-004
1.576278e-004,-2.016710e-004
1.772377e-004,-2.013469e-004
2.172679e-004,-1.891920e-004
2.833905e-004,-1.666649e-004
3.548613e-004,-1.378173e-004
4.025085e-004,-1.065387e-004
3.994293e-004,-7.396356e-005
3.423823e-004,-4.057810e-005
2.581083e-004,-1.520357e-006
1.838824e-004,4.580272e-005
1.433661e-004,9.993253e-005
1.433661e-004,1.564933e-004
1.741585e-004,2.151610e-004
2.205092e-004,2.765838e-004
2.718839e-004,3.428685e-004
3.161277e-004,4.140152e-004
3.310377e-004,4.955341e-004
3.015418e-004,5.879114e-004
2.300710e-004,6.843403e-004
1.333180e-004,7.721797e-004
3.186510e-005,8.394370e-004
-5.565017e-005,8.750914e-004
-1.248521e-004,8.773603e-004
-1.781716e-004,8.455954e-004
-2.224154e-004,7.888725e-004
-2.583939e-004,7.180499e-004
-2.840002e-004,6.436619e-004
-2.899966e-004,5.713807e-004
-2.729798e-004,5.023408e-004
-2.384598e-004,4.380009e-004
-2.047502e-004,3.856538e-004
-1.896782e-004,3.490270e-004
-2.023193e-004,3.264999e-004
-2.376495e-004,3.117519e-004
-2.851347e-004,2.961937e-004
-3.366714e-004,2.764217e-004
-3.846427e-004,2.521119e-004
-4.206212e-004,2.227781e-004
-4.403932e-004,1.898788e-004
-4.425001e-004,1.526038e-004
-4.201350e-004,1.083599e-004
-3.535262e-004,5.260946e-005
-2.293842e-004,-1.594417e-005
-5.419158e-005,-8.806324e-005
1.325077e-004,-1.468929e-004
2.777182e-004,-1.840059e-004
3.459477e-004,-2.036158e-004
3.342791e-004,-2.126914e-004
2.654013e-004,-2.209568e-004
1.746447e-004,-2.326255e-004
9.069481e-005,-2.467252e-004
2.862379e-005,-2.622834e-004
-1.092015e-005,-2.794623e-004
-2.550602e-005,-2.971275e-004
-1.869928e-005,-3.100927e-004
-3.141010e-006,-3.096065e-004
6.420843e-006,-2.925897e-004
-8.489166e-006,-2.585559e-004
-5.840528e-005,-2.131776e-004
-1.425172e-004,-1.611547e-004
-2.438080e-004,-1.057284e-004
-3.391024e-004,-4.560212e-005
-4.061974e-004,1.711715e-005
-4.353692e-004,7.448828e-005
-4.334244e-004,1.148425e-004
-4.164075e-004,1.274836e-004
-3.976080e-004,1.106288e-004
-3.776739e-004,7.351589e-005
-3.527159e-004,3.218923e-005
-3.214373e-004,4.313994e-006
-2.865932e-004,1.002961e-007
-2.467252e-004,1.549650e-005
-2.050744e-004,4.142696e-005
-1.601823e-004,6.395404e-005
-1.032974e-004,7.043665e-005
-2.258885e-005,5.568870e-005
8.486046e-005,2.586868e-005
2.023578e-004,-4.599598e-006
3.059176e-004,-1.902341e-005
3.756057e-004,-1.124428e-005
3.968363e-004,1.144487e-005
3.696093e-004,3.575467e-005
3.072141e-004,4.855783e-005
2.339606e-004,4.353380e-005
1.827479e-004,2.019640e-005
1.733481e-004,-1.691656e-005
1.961994e-004,-6.035007e-005
2.276400e-004,-9.859748e-005
2.506533e-004,-1.255003e-004
2.587566e-004,-1.434896e-004
2.538946e-004,-1.583996e-004
2.417397e-004,-1.770371e-004
2.281262e-004,-2.031296e-004
2.187264e-004,-2.429977e-004
2.248849e-004,-2.951827e-004
2.564877e-004,-3.507711e-004
3.075383e-004,-3.911253e-004
3.538890e-004,-4.052250e-004
3.700955e-004,-3.919357e-004
3.456236e-004,-3.614674e-004
2.890628e-004,-3.248407e-004
2.156472e-004,-2.916173e-004
1.454729e-004,-2.655248e-004
9.782569e-005,-2.420253e-004
7.513654e-005,-2.157707e-004
7.529860e-005,-1.843300e-004
8.275361e-005,-1.468929e-004
8.518459e-005,-1.041077e-004
7.918817e-005,-5.646050e-005
7.043665e-005,-4.761664e-006
6.832980e-005,5.277153e-005
7.627100e-005,1.169494e-004
9.652917e-005,1.863134e-004
1.385041e-004,2.613496e-004
1.992786e-004,3.412479e-004
2.590807e-004,4.310321e-004
2.859836e-004,5.285954e-004
2.605393e-004,6.279415e-004
1.811273e-004,7.216153e-004
6.103686e-005,7.906552e-004
-7.639453e-005,8.188546e-004
-2.057227e-004,7.976240e-004
-3.040963e-004,7.240463e-004
-3.588744e-004,6.042800e-004
-3.723258e-004,4.563143e-004
-3.551469e-004,3.096451e-004
-3.209511e-004,1.817755e-004
-2.820554e-004,7.967438e-005
-2.464010e-004,4.800190e-006
-2.081536e-004,-4.787104e-005
-1.543479e-004,-8.692878e-005
-8.190475e-005,-1.161005e-004
-2.168618e-006,-1.345760e-004
6.152305e-005,-1.420310e-004
9.085688e-005,-1.417068e-004
8.615699e-005,-1.415448e-004
5.358185e-005,-1.481895e-004
4.962256e-006,-1.676373e-004
-4.689865e-005,-2.013469e-004
-8.790117e-005,-2.434839e-004
-1.144799e-004,-2.843243e-004
-1.267968e-004,-3.201407e-004
-1.285796e-004,-3.468815e-004
-1.211246e-004,-3.609812e-004
-1.050801e-004,-3.598467e-004
-7.785312e-005,-3.480160e-004
-4.592625e-005,-3.389403e-004
-2.080613e-005,-3.361852e-004
-1.643037e-005,-3.345645e-004
-3.976777e-005,-3.267854e-004
-8.482193e-005,-3.147926e-004
-1.410586e-004,-3.021515e-004
-1.961608e-004,-2.862691e-004
-2.498044e-004,-2.645523e-004
-3.071755e-004,-2.391081e-004
-3.708672e-004,-2.164190e-004
-4.269418e-004,-2.026434e-004
-4.496309e-004,-1.972953e-004
-4.134903e-004,-1.969711e-004
-3.065273e-004,-1.950263e-004
-1.420310e-004,-1.836818e-004
4.564065e-005,-1.621271e-004
2.125679e-004,-1.318209e-004
3.252034e-004,-9.778715e-005
3.705817e-004,-6.488790e-005
3.558337e-004,-3.944364e-005
2.981384e-004,-2.113026e-005
2.224539e-004,-5.571990e-006
1.417454e-004,1.468618e-005
6.152305e-005,4.596478e-005
-1.173047e-005,9.523264e-005
-7.444975e-005,1.620036e-004
-1.225832e-004,2.336365e-004
-1.506204e-004,2.965178e-004
-1.519170e-004,3.438409e-004
-1.248521e-004,3.749574e-004
-7.412562e-005,3.991052e-004
-2.978945e-006,4.266563e-004
8.323981e-005,4.639314e-004
1.733481e-004,5.018546e-004
2.490327e-004,5.221128e-004
2.957075e-004,5.075270e-004
3.060797e-004,4.498317e-004
2.874421e-004,3.475684e-004
2.587566e-004,2.093267e-004
2.522740e-004,5.487838e-005
2.927903e-004,-9.211487e-005
3.786850e-004,-2.107467e-004
4.728449e-004,-2.969654e-004
5.260024e-004,-3.561192e-004
5.078511e-004,-3.946908e-004
4.245494e-004,-4.099249e-004
3.109416e-004,-4.042526e-004
2.002510e-004,-3.802670e-004
1.052807e-004,-3.412093e-004
2.392390e-005,-2.814071e-004
-4.738484e-005,-1.934057e-004
-1.013526e-004,-7.769106e-005
-1.227452e-004,5.277153e-005
-1.092938e-004,1.769136e-004
-7.882551e-005,2.775562e-004
-5.483985e-005,3.532407e-004
-4.560212e-005,4.112601e-004
-4.041603e-005,4.597176e-004
-1.821308e-005,5.018546e-004
2.441009e-005,5.418848e-004
7.643307e-005,5.811046e-004
1.132219e-004,6.175694e-004
1.124116e-004,6.436619e-004
6.670914e-005,6.494962e-004
-1.416145e-005,6.298863e-004
-1.159385e-004,5.885597e-004
-2.253326e-004,5.297299e-004
-3.316474e-004,4.576108e-004
-4.222419e-004,3.705817e-004
-4.789647e-004,2.691288e-004
-4.826922e-004,1.511452e-004
-4.340726e-004,1.987227e-005
-3.574158e-004,-1.125351e-004
-2.846485e-004,-2.331117e-004
-2.363530e-004,-3.382920e-004
-2.170672e-004,-4.288866e-004
-2.128535e-004,-5.058676e-004
-2.138259e-004,-5.682627e-004
-2.243602e-004,-6.133168e-004
-2.587180e-004,-6.403818e-004
-3.170615e-004,-6.499436e-004
-3.820497e-004,-6.494574e-004
-4.240246e-004,-6.418404e-004
-4.201350e-004,-6.309819e-004
-3.650328e-004,-6.181788e-004
-2.695764e-004,-6.031067e-004
-1.509446e-004,-5.807417e-004
-3.296103e-005,-5.491390e-004
5.909208e-005,-5.110537e-004
1.119254e-004,-4.663236e-004
1.357490e-004,-4.107352e-004
1.480659e-004,-3.420196e-004
1.564933e-004,-2.619593e-004
1.589243e-004,-1.677994e-004
1.501728e-004,-5.662256e-005
1.291043e-004,7.059871e-005
1.013911e-004,2.093267e-004
7.870197e-005,3.485408e-004
7.351589e-005,4.734932e-004
9.020862e-005,5.663567e-004
1.349386e-004,6.115729e-004
2.060853e-004,6.034696e-004
2.957075e-004,5.507984e-004
3.814401e-004,4.683071e-004
4.341113e-004,3.715541e-004
4.339493e-004,2.807975e-004
3.877606e-004,2.093267e-004
3.229345e-004,1.564933e-004
2.655633e-004,1.125736e-004
2.282883e-004,6.930219e-005
2.099749e-004,2.619281e-005
2.064095e-004,-1.221667e-005
2.093267e-004,-4.203669e-005
2.130541e-004,-6.148453e-005
2.117576e-004,-6.974985e-005
1.973338e-004,-7.104638e-005
1.574657e-004,-6.910160e-005
9.004655e-005,-6.877746e-005
6.582909e-006,-7.590833e-005
-7.088431e-005,-8.903562e-005
-1.219349e-004,-1.044318e-004
-1.308485e-004,-1.123730e-004
-9.551824e-005,-1.089697e-004
-3.668853e-005,-9.535618e-005
1.695509e-005,-7.201877e-005
4.596478e-005,-4.300908e-005
4.466826e-005,-1.254080e-005
2.003433e-005,1.452411e-005
-2.064406e-005,3.235129e-005
-7.056019e-005,4.402000e-005
-1.250141e-004,5.131294e-005
-1.784957e-004,5.601284e-005
-2.277635e-004,6.103686e-005
-2.660110e-004,6.930219e-005
-2.793003e-004,8.032264e-005
-2.567732e-004,9.523264e-005
-2.024813e-004,1.188942e-004
-1.274451e-004,1.574657e-004
-4.657452e-005,2.140265e-004
2.910999e-005,2.859836e-004
9.280167e-005,3.644232e-004
1.375317e-004,4.345975e-004
1.608691e-004,4.879170e-004
1.680000e-004,5.177371e-004
1.600588e-004,5.153061e-004
1.354248e-004,4.764104e-004
9.490851e-005,4.042913e-004
4.580272e-005,3.119140e-004
-9.623623e-006,2.132162e-004
-7.299116e-005,1.182459e-004
-1.407345e-004,3.137890e-005
-2.065330e-004,-4.219875e-005
-2.574215e-004,-1.007043e-004
-2.870794e-004,-1.477033e-004
-2.942103e-004,-1.836818e-004
-2.867553e-004,-2.071812e-004
-2.739521e-004,-2.170672e-004
-2.600145e-004,-2.201465e-004
-2.417012e-004,-2.258187e-004
-2.173914e-004,-2.373254e-004
-1.848162e-004,-2.519113e-004
-1.405724e-004,-2.656868e-004
-8.498399e-005,-2.713591e-004
-1.967167e-005,-2.655248e-004
4.191315e-005,-2.532078e-004
7.724339e-005,-2.415391e-004
7.384002e-005,-2.399184e-004
3.753739e-005,-2.530457e-004
-1.059602e-005,-2.793003e-004
-5.030202e-005,-3.117133e-004
-7.752899e-005,-3.429920e-004
-1.005423e-004,-3.673017e-004
-1.198280e-004,-3.833462e-004
-1.204763e-004,-3.917736e-004
-8.676672e-005,-3.906392e-004
-1.821308e-005,-3.825359e-004
7.011252e-005,-3.737844e-004
1.647587e-004,-3.677880e-004
2.618358e-004,-3.643846e-004
3.619922e-004,-3.590364e-004
4.449697e-004,-3.489884e-004
4.840274e-004,-3.319715e-004
4.598797e-004,-3.081479e-004
3.775505e-004,-2.804347e-004
2.665357e-004,-2.507768e-004
1.637863e-004,-2.233878e-004
8.810177e-005,-1.942160e-004
4.596478e-005,-1.543479e-004
3.996837e-005,-9.649064e-005
6.881599e-005,-2.177852e-005
1.177597e-004,6.022653e-005
1.624898e-004,1.393144e-004
1.798307e-004,2.093267e-004
1.607070e-004,2.662116e-004
1.175977e-004,3.073762e-004
6.930219e-005,3.311998e-004
3.656499e-005,3.389789e-004
3.121684e-005,3.428685e-004
5.179914e-005,3.593992e-004
8.777764e-005,3.948915e-004
1.257009e-004,4.433490e-004
1.535762e-004,4.948858e-004
1.654069e-004,5.413986e-004
1.600588e-004,5.738117e-004
1.430419e-004,5.854804e-004
1.159770e-004,5.780254e-004
7.837785e-005,5.642498e-004
2.716521e-005,5.584154e-004
-3.604027e-005,5.634395e-004
-1.081593e-004,5.665187e-004
-1.827094e-004,5.496639e-004
-2.574215e-004,5.047718e-004
-3.254889e-004,4.313562e-004
-3.700569e-004,3.409237e-004
-3.566054e-004,2.462775e-004
-2.536940e-004,1.594105e-004
-6.812920e-005,9.101894e-005
1.435281e-004,4.920609e-005
3.013798e-004,3.769945e-005
3.527545e-004,5.666109e-005
2.944109e-004,1.000946e-004
1.621656e-004,1.576278e-004
1.112074e-005,2.213195e-004
-1.151281e-004,2.869559e-004
-1.888679e-004,3.495132e-004
-2.023193e-004,4.044533e-004
-1.702304e-004,4.420525e-004
-1.186936e-004,4.478869e-004
-6.602235e-005,4.132049e-004
-2.372331e-005,3.431926e-004
-2.492749e-006,2.509774e-004
-5.734056e-006,1.487142e-004
-2.988179e-005,4.304761e-005
-6.229485e-005,-6.326724e-005
-8.028410e-005,-1.687718e-004
-6.667062e-005,-2.669833e-004
-1.837515e-005,-3.541745e-004
4.531652e-005,-4.277521e-004
8.891209e-005,-4.830164e-004
7.951231e-005,-5.196431e-004
2.207145e-006,-5.478425e-004
-1.256624e-004,-5.708557e-004
-2.705488e-004,-5.873864e-004
-4.014975e-004,-5.948414e-004
-5.053814e-004,-5.911139e-004
-5.822003e-004,-5.789590e-004
-6.348715e-004,-5.627525e-004
-6.590193e-004,-5.493010e-004
-6.369784e-004,-5.400634e-004
-5.552975e-004,-5.330946e-004
-4.112214e-004,-5.207775e-004
-2.198223e-004,-4.940368e-004
-1.497178e-005,-4.522240e-004
1.650828e-004,-4.029561e-004
2.963557e-004,-3.514194e-004
3.713920e-004,-2.998826e-004
3.987811e-004,-2.447804e-004
3.944053e-004,-1.802784e-004
3.722023e-004,-9.956988e-005
3.405996e-004,-3.789272e-006
3.052694e-004,1.025256e-004
2.746390e-004,2.088404e-004
2.550291e-004,2.979764e-004
2.436845e-004,3.496752e-004
2.336365e-004,3.543751e-004
2.154851e-004,3.112658e-004
1.856651e-004,2.310434e-004
1.445005e-004,1.320215e-004
1.007429e-004,3.218923e-005
6.606088e-005,-5.516398e-005
5.455425e-005,-1.214487e-004
7.205730e-005,-1.642339e-004
1.120874e-004,-1.851404e-004
1.519555e-004,-1.883817e-004
1.637863e-004,-1.770371e-004
1.409351e-004,-1.609926e-004
9.896015e-005,-1.507825e-004
6.541262e-005,-1.572651e-004
6.022653e-005,-1.831956e-004
8.259155e-005,-2.220912e-004
1.120874e-004,-2.593663e-004
1.120874e-004,-2.804347e-004
5.131294e-005,-2.802727e-004
-7.282909e-005,-2.605007e-004
-2.282497e-004,-2.224154e-004
-3.501228e-004,-1.613168e-004
-3.737844e-004,-7.817725e-005
-2.780038e-004,2.732727e-005
-1.018388e-004,1.537382e-004
8.583286e-005,2.940868e-004
2.350950e-004,4.399457e-004
3.235827e-004,5.843459e-004
3.519442e-004,7.152948e-004
3.292550e-004,8.130203e-004
2.689667e-004,8.596951e-004
1.858272e-004,8.509436e-004
9.442231e-005,7.960034e-004
9.013889e-006,7.102708e-004
-6.294311e-005,6.101143e-004
-1.196660e-004,5.081752e-004
-1.613168e-004,4.146635e-004
-1.888679e-004,3.360618e-004
-2.028055e-004,2.741528e-004
-1.994021e-004,2.266676e-004
-1.838438e-004,1.837203e-004
-1.679614e-004,1.367214e-004
-1.622891e-004,8.777764e-005
-1.632615e-004,4.645098e-005
-1.619650e-004,2.003433e-005
-1.562927e-004,6.258778e-006
-1.502963e-004,-3.951337e-006
-1.499722e-004,-1.740276e-005
-1.556445e-004,-3.328516e-005
-1.608306e-004,-4.835724e-005
-1.572651e-004,-6.586029e-005
-1.397621e-004,-9.227693e-005
-1.144799e-004,-1.319829e-004
-8.579432e-005,-1.831956e-004
-5.548811e-005,-2.384598e-004
-2.177852e-005,-2.909690e-004
1.128280e-005,-3.335922e-004
3.445814e-005,-3.640605e-004
3.915804e-005,-3.854531e-004
2.424803e-005,-4.003631e-004
-5.571990e-006,-4.128421e-004
-4.252288e-005,-4.262935e-004
-8.239095e-005,-4.429862e-004
-1.199901e-004,-4.587066e-004
-1.488377e-004,-4.634065e-004
-1.622891e-004,-4.557894e-004
-1.545100e-004,-4.382863e-004
-1.310105e-004,-4.152731e-004
-1.016767e-004,-3.924218e-004
-7.752899e-005,-3.742705e-004
-6.586029e-005,-3.606571e-004
-6.359137e-005,-3.454229e-004
-6.423963e-005,-3.214373e-004
-5.905355e-005,-2.869174e-004
-4.122636e-005,-2.476975e-004
-7.678839e-006,-2.084778e-004
4.110282e-005,-1.718510e-004
1.005808e-004,-1.378173e-004
1.620036e-004,-1.002181e-004
2.073819e-004,-5.921561e-005
2.159713e-004,-1.221667e-005
1.809652e-004,4.158902e-005
1.120874e-004,1.023635e-004
4.418206e-005,1.678379e-004
1.808955e-005,2.318537e-004
5.844381e-005,2.893870e-004
1.509831e-004,3.360618e-004
2.532463e-004,3.681507e-004
3.316860e-004,3.851676e-004
3.796573e-004,3.856538e-004
4.119083e-004,3.709058e-004
4.446456e-004,3.467581e-004
4.806241e-004,3.214759e-004
5.029891e-004,3.067279e-004
4.935893e-004,3.031625e-004
4.475628e-004,3.055935e-004
3.781987e-004,3.122381e-004
3.036487e-004,3.216380e-004
2.328261e-004,3.266619e-004
1.587623e-004,3.192070e-004
7.351589e-005,2.960316e-004
-2.631635e-005,2.581083e-004
-1.399241e-004,2.149989e-004
-2.558008e-004,1.744826e-004
-3.486642e-004,1.451488e-004
-4.027940e-004,1.336421e-004
-4.243487e-004,1.479039e-004
-4.331002e-004,1.846927e-004
-4.434724e-004,2.273159e-004
-4.523860e-004,2.603772e-004
-4.447690e-004,2.820940e-004
-4.006872e-004,2.944109e-004
-3.083100e-004,3.018659e-004
-1.770371e-004,3.054314e-004
-3.134038e-005,3.012177e-004
1.044704e-004,2.846870e-004
2.141886e-004,2.521119e-004
2.820940e-004,2.068957e-004
2.997591e-004,1.603829e-004
2.728562e-004,1.260251e-004
2.269918e-004,1.175977e-004
1.861513e-004,1.378558e-004
1.621656e-004,1.736723e-004
1.558451e-004,2.041406e-004
1.517934e-004,2.132162e-004
1.312112e-004,1.944166e-004
8.048470e-005,1.521176e-004
7.555301e-006,9.798775e-005
-6.910160e-005,4.402000e-005
-1.434896e-004,-8.720959e-007
-2.284118e-004,-3.069211e-005
-3.262992e-004,-4.446767e-005
-4.168937e-004,-4.398147e-005
-4.651892e-004,-3.668853e-005
-4.543308e-004,-3.182657e-005
-3.867496e-004,-3.879538e-005
-2.804347e-004,-6.391550e-005
-1.619650e-004,-1.078352e-004
-5.775702e-005,-1.661787e-004
1.290346e-005,-2.355427e-004
4.272347e-005,-3.125237e-004
4.466826e-005,-3.869116e-004
3.494434e-005,-4.493068e-004
2.813760e-005,-4.930644e-004
3.332369e-005,-5.183466e-004
5.163707e-005,-5.261258e-004
7.789165e-005,-5.201293e-004
1.034980e-004,-5.084606e-004
1.177597e-004,-4.943609e-004
1.175977e-004,-4.749131e-004
1.073875e-004,-4.452552e-004
9.588091e-005,-4.076560e-004
8.729144e-005,-3.690845e-004
7.837785e-005,-3.407231e-004
6.233338e-005,-3.303509e-004
3.656499e-005,-3.386162e-004
1.558884e-006,-3.622777e-004
-4.009191e-005,-3.948528e-004
-8.158062e-005,-4.285624e-004
-1.143178e-004,-4.572480e-004
-1.332795e-004,-4.708614e-004
-1.306864e-004,-4.650271e-004
-1.089697e-004,-4.382863e-004
-7.590833e-005,-3.888564e-004
-3.847125e-005,-3.144685e-004
7.393236e-006,-2.209568e-004
7.675720e-005,-1.154523e-004
1.681620e-004,-6.382317e-006
2.602152e-004,9.231547e-005
3.271482e-004,1.689724e-004
3.555096e-004,2.219677e-004
3.530786e-004,2.548670e-004
3.277964e-004,2.728562e-004
2.846870e-004,2.837146e-004
2.359054e-004,2.994350e-004
2.021958e-004,3.290929e-004
2.025199e-004,3.726885e-004
2.433604e-004,4.222805e-004
3.077003e-004,4.741415e-004
3.678266e-004,5.321609e-004
3.931088e-004,5.953664e-004
3.687990e-004,6.561409e-004
3.013798e-004,7.031399e-004
2.138645e-004,7.232360e-004
1.415833e-004,7.063812e-004
9.928428e-005,6.592202e-004
7.967438e-005,5.969870e-004
5.617490e-005,5.344298e-004
4.151929e-006,4.828930e-004
-7.704279e-005,4.467524e-004
-1.674752e-004,4.227667e-004
-2.460769e-004,4.034809e-004
-2.987481e-004,3.828986e-004
-3.266234e-004,3.553475e-004
-3.389403e-004,3.166139e-004
-3.467195e-004,2.663737e-004
-3.580640e-004,2.018716e-004
-3.661673e-004,1.250527e-004
-3.562813e-004,3.591673e-005
-3.183580e-004,-6.051213e-005
-2.553146e-004,-1.596961e-004
-1.817370e-004,-2.502906e-004
-1.169109e-004,-3.245165e-004
-7.428769e-005,-3.781601e-004
-5.840528e-005,-4.130042e-004
-6.002594e-005,-4.316416e-004
-6.261898e-005,-4.382863e-004
-5.370539e-005,-4.390967e-004
-3.166451e-005,-4.449310e-004
-4.761664e-006,-4.648651e-004
1.517237e-005,-5.013297e-004
1.419998e-005,-5.471942e-004
-1.205460e-005,-5.959758e-004
-5.872941e-005,-6.408680e-004
-1.136696e-004,-6.752257e-004
-1.661787e-004,-6.891634e-004
-2.078295e-004,-6.757120e-004
-2.334358e-004,-6.274165e-004
-2.370013e-004,-5.501114e-004
-2.147983e-004,-4.551412e-004
-1.671511e-004,-3.553089e-004
-1.023250e-004,-2.588801e-004
-3.571614e-005,-1.622891e-004
1.306552e-005,-5.629844e-005
2.781346e-005,6.444023e-005
3.989864e-006,1.861513e-004
-4.284701e-005,2.822560e-004
-8.563225e-005,3.305515e-004
-9.875954e-005,3.169380e-004
-8.077030e-005,2.404432e-004
-4.576419e-005,1.141943e-004
-9.623623e-006,-3.198864e-005
2.797553e-005,-1.643960e-004
6.784360e-005,-2.624455e-004
1.020394e-004,-3.228959e-004
1.229458e-004,-3.470436e-004
1.265113e-004,-3.389403e-004
1.164632e-004,-3.079858e-004
1.023635e-004,-2.679557e-004
9.588091e-005,-2.326255e-004
1.033359e-004,-2.068571e-004
1.239182e-004,-1.880575e-004
1.498487e-004,-1.712027e-004
1.767515e-004,-1.524032e-004
2.081922e-004,-1.253383e-004
2.406053e-004,-7.396356e-005
2.652392e-004,2.943412e-005
2.743149e-004,2.068957e-004
2.671840e-004,4.490213e-004
2.462775e-004,7.169155e-004
2.154851e-004,9.723307e-004
1.795066e-004,1.188526e-003
1.380179e-004,1.362747e-003
8.631905e-005,1.508120e-003
2.376183e-005,1.639717e-003
-3.944364e-005,1.751704e-003
-8.952183e-005,1.810210e-003
-1.136696e-004,1.770990e-003
-1.128592e-004,1.614273e-003
-9.892161e-005,1.355130e-003
-7.817725e-005,1.040236e-003
-4.252288e-005,7.289083e-004
4.962256e-006,4.666864e-004
4.888196e-005,2.720459e-004
6.832980e-005,1.386662e-004
5.666109e-005,5.115087e-005
2.489629e-005,-7.678839e-006
-4.923729e-006,-5.354332e-005
-1.659243e-005,-9.892161e-005
-1.335113e-005,-1.454344e-004
-5.247859e-006,-1.938919e-004
-4.437533e-006,-2.412149e-004
-1.480971e-005,-2.841623e-004
-3.036798e-005,-3.230579e-004
-3.960571e-005,-3.585502e-004
-3.733679e-005,-3.909633e-004
-2.566809e-005,-4.201350e-004
-1.399939e-005,-4.457413e-004
-1.578211e-005,-4.687546e-004
-4.495386e-005,-4.891749e-004
-1.034594e-004,-5.084606e-004
-1.788198e-004,-5.214258e-004
-2.549905e-004,-5.236948e-004
-3.157650e-004,-5.151053e-004
-3.517435e-004,-4.992229e-004
-3.556330e-004,-4.833405e-004
-3.290543e-004,-4.747511e-004
-2.864312e-004,-4.784786e-004
-2.514251e-004,-4.914437e-004
-2.446183e-004,-5.048952e-004
-2.692523e-004,-5.134846e-004
-3.131719e-004,-5.193190e-004
-3.546606e-004,-5.261258e-004
-3.720016e-004,-5.339049e-004
-3.472056e-004,-5.420081e-004
-2.750866e-004,-5.509217e-004
-1.671511e-004,-5.574043e-004
-5.321920e-005,-5.557837e-004
3.380988e-005,-5.449253e-004
7.805372e-005,-5.293671e-004
8.534666e-005,-5.131605e-004
6.816773e-005,-5.013297e-004
4.094075e-005,-4.951713e-004
1.095867e-005,-4.933886e-004
-1.934754e-005,-4.917679e-004
-5.095028e-005,-4.883645e-004
-8.077030e-005,-4.794509e-004
-1.002181e-004,-4.611376e-004
-1.044318e-004,-4.296969e-004
-9.600444e-005,-3.877220e-004
-7.720486e-005,-3.386162e-004
-4.932962e-005,-2.890242e-004
-8.651231e-006,-2.451045e-004
4.742337e-005,-2.078295e-004
1.175977e-004,-1.724993e-004
1.970097e-004,-1.319829e-004
2.764217e-004,-8.514606e-005
3.490270e-004,-3.231277e-005
4.112601e-004,2.246531e-005
4.553419e-004,7.189524e-005
4.704139e-004,1.127357e-004
4.512903e-004,1.396385e-004
4.059119e-004,1.550348e-004
3.527545e-004,1.628139e-004
3.059176e-004,1.704310e-004
2.752873e-004,1.845306e-004
2.697770e-004,2.026820e-004
2.918179e-004,2.187264e-004
3.417340e-004,2.265056e-004
4.086671e-004,2.232643e-004
4.765725e-004,2.125679e-004
5.316747e-004,2.031682e-004
5.629533e-004,1.999268e-004
5.623050e-004,2.068957e-004
5.294057e-004,2.218057e-004
4.762483e-004,2.386605e-004
4.130428e-004,2.487085e-004
3.415720e-004,2.440086e-004
2.563256e-004,2.214815e-004
1.607070e-004,1.863134e-004
6.897806e-005,1.516314e-004
-7.030578e-006,1.273216e-004
-6.472583e-005,1.200286e-004
-1.097800e-004,1.278078e-004
-1.477033e-004,1.529279e-004
-1.818991e-004,1.932822e-004
-2.233878e-004,2.482223e-004
-2.776796e-004,3.154794e-004
-3.340784e-004,3.924605e-004
-3.663294e-004,4.731691e-004
-3.481781e-004,5.491778e-004
-2.622834e-004,6.093040e-004
-1.115627e-004,6.413930e-004
5.828175e-005,6.399344e-004
1.793446e-004,6.005525e-004
2.026820e-004,5.264886e-004
1.279698e-004,4.274666e-004
-3.465141e-006,3.211517e-004
-1.246900e-004,2.256952e-004
-1.859507e-004,1.576278e-004
-1.771992e-004,1.213252e-004
-1.217728e-004,1.088461e-004
-5.143648e-005,1.064152e-004
8.203562e-006,1.023635e-004
4.499239e-005,9.053275e-005
5.374392e-005,7.351589e-005
3.121684e-005,5.325772e-005
-1.416145e-005,3.591673e-005
-7.380149e-005,2.635488e-005
-1.352242e-004,2.651694e-005
-1.872472e-004,3.056858e-005
-2.292221e-004,3.251336e-005
-2.694143e-004,3.299956e-005
-3.053928e-004,3.996837e-005
-3.306750e-004,5.779555e-005
-3.342404e-004,9.166720e-005
-3.117133e-004,1.398006e-004
-2.660110e-004,1.936063e-004
-2.060468e-004,2.396328e-004
-1.478653e-004,2.688046e-004
-1.078352e-004,2.741528e-004
-9.519411e-005,2.490327e-004
-1.052422e-004,1.931201e-004
-1.232314e-004,1.143563e-004
-1.371690e-004,2.619281e-005
-1.439758e-004,-5.435365e-005
-1.444620e-004,-1.165867e-004
-1.464067e-004,-1.588858e-004
-1.577513e-004,-1.838438e-004
-1.822232e-004,-1.935677e-004
-2.146363e-004,-1.911368e-004
-2.426735e-004,-1.851404e-004
-2.517492e-004,-1.783336e-004
-2.352185e-004,-1.695821e-004
-1.955125e-004,-1.571031e-004
-1.439758e-004,-1.399241e-004
-8.838737e-005,-1.159385e-004
-3.539201e-005,-8.271508e-005
1.484824e-005,-3.733679e-005
6.249545e-005,2.003433e-005
1.081979e-004,8.583286e-005
1.446626e-004,1.490383e-004
1.665414e-004,1.971717e-004
1.804790e-004,2.234263e-004
1.903650e-004,2.250470e-004
1.955511e-004,2.085163e-004
1.963614e-004,1.812893e-004
1.927960e-004,1.492004e-004
1.843686e-004,1.156529e-004
1.733481e-004,7.789165e-005
1.590864e-004,3.397195e-005
1.410971e-004,-1.480971e-005
1.226217e-004,-6.569822e-005
1.056048e-004,-1.162626e-004
9.037068e-005,-1.613168e-004
7.173317e-005,-1.958367e-004
4.709924e-005,-2.190120e-004
1.679302e-005,-2.272773e-004
-1.691656e-005,-2.238740e-004
-4.722278e-005,-2.149604e-004
-6.391550e-005,-2.068571e-004
-5.305713e-005,-2.044261e-004
-1.043395e-005,-2.109087e-004
6.152305e-005,-2.240360e-004
1.513072e-004,-2.368392e-004
2.440086e-004,-2.433218e-004
3.290929e-004,-2.428356e-004
3.945674e-004,-2.378116e-004
4.250357e-004,-2.326255e-004
4.067223e-004,-2.324634e-004
3.316860e-004,-2.418632e-004
2.080301e-004,-2.567732e-004
6.038860e-005,-2.666592e-004
-8.060823e-005,-2.692523e-004
-1.914609e-004,-2.609869e-004
-2.624455e-004,-2.408908e-004
-2.911311e-004,-2.115570e-004
-2.742763e-004,-1.723372e-004
-2.139880e-004,-1.151281e-004
-1.161005e-004,-2.923353e-005
-1.034161e-006,8.469840e-005
9.361199e-005,2.158093e-004
1.370455e-004,3.393030e-004
1.163011e-004,4.253598e-004
3.332369e-005,4.490213e-004
-1.013526e-004,4.028327e-004
-2.648765e-004,3.028383e-004
-4.193247e-004,1.767515e-004
-5.272602e-004,4.936815e-005
-5.625904e-004,-6.083626e-005
-5.219121e-004,-1.374932e-004
-4.251591e-004,-1.741199e-004
-3.045825e-004,-1.783336e-004
-1.891920e-004,-1.639098e-004
-8.822530e-005,-1.404103e-004
-5.896120e-006,-1.089697e-004
4.839576e-005,-6.342931e-005
6.638502e-005,6.258778e-006
5.552663e-005,1.072255e-004
3.688912e-005,2.271538e-004
2.619281e-005,3.373583e-004
2.149292e-005,4.081808e-004
9.986281e-006,4.251977e-004
-1.643037e-005,3.984569e-004
-5.402952e-005,3.543751e-004
-8.968389e-005,3.195311e-004
-1.099421e-004,3.075383e-004
-1.128592e-004,3.136967e-004
-1.041077e-004,3.185587e-004
-8.757704e-005,3.038107e-004
-6.472583e-005,2.574601e-004
-3.279896e-005,1.798307e-004
1.112074e-005,7.918817e-005
6.217132e-005,-2.777494e-005
1.112771e-004,-1.251762e-004
1.445005e-004,-2.019951e-004
1.501728e-004,-2.522354e-004
1.289422e-004,-2.765452e-004
9.361199e-005,-2.825416e-004
5.358185e-005,-2.801106e-004
1.906194e-005,-2.752487e-004
2.693341e-006,-2.663351e-004
1.776542e-005,-2.533699e-004
6.589881e-005,-2.389460e-004
1.357490e-004,-2.261429e-004
2.088404e-004,-2.122053e-004
2.707494e-004,-1.924333e-004
3.128864e-004,-1.632615e-004
3.349273e-004,-1.277692e-004
3.444891e-004,-9.454585e-005
3.582647e-004,-7.120844e-005
3.890571e-004,-6.261898e-005
4.302217e-004,-7.120844e-005
4.629590e-004,-9.373552e-005
4.699278e-004,-1.255003e-004
4.495075e-004,-1.585616e-004
4.104497e-004,-1.844921e-004
3.568061e-004,-1.981056e-004
2.893870e-004,-1.938919e-004
2.172679e-004,-1.724993e-004
1.542244e-004,-1.379794e-004
1.067393e-004,-9.762509e-005
6.914012e-005,-5.370539e-005
3.705119e-005,-1.140634e-005
3.665733e-006,1.889987e-005
-3.636440e-005,3.089271e-005
-8.887356e-005,2.295151e-005
-1.549962e-004,2.207145e-006
-2.303566e-004,-2.339918e-005
-3.047445e-004,-4.722278e-005
-3.642225e-004,-6.764301e-005
-3.955011e-004,-8.060823e-005
-3.880461e-004,-8.838737e-005
-3.394265e-004,-9.616651e-005
-2.626076e-004,-1.054042e-004
-1.783336e-004,-1.105903e-004
-1.073490e-004,-1.079973e-004
-6.132246e-005,-9.843541e-005
-3.749886e-005,-8.725291e-005
-2.437157e-005,-7.769106e-005
-1.221667e-005,-6.748094e-005
-5.409925e-006,-5.565017e-005
-1.205460e-005,-4.462973e-005
-4.009191e-005,-4.025397e-005
-8.368748e-005,-4.900550e-005
-1.237176e-004,-7.201877e-005
-1.412206e-004,-1.008664e-004
-1.352242e-004,-1.233935e-004
-1.263107e-004,-1.271210e-004
-1.339277e-004,-1.079973e-004
-1.551583e-004,-6.731888e-005
-1.660166e-004,-1.513384e-005
-1.447861e-004,4.337174e-005
-9.762509e-005,1.031738e-004
-5.889148e-005,1.566554e-004
-5.030202e-005,1.919856e-004
-6.472583e-005,2.033302e-004
-7.444975e-005,1.905271e-004
-5.483985e-005,1.564933e-004
-3.141010e-006,1.030118e-004
5.990240e-005,3.786152e-005
1.090082e-004,-3.134038e-005
1.316974e-004,-9.486997e-005
1.242423e-004,-1.464067e-004
9.847395e-005,-1.825473e-004
6.832980e-005,-1.972953e-004
4.580272e-005,-1.861127e-004
3.948217e-005,-1.511067e-004
5.082674e-005,-1.013526e-004
7.416415e-005,-4.479180e-005
9.912221e-005,7.879432e-006
1.151667e-004,4.515445e-005
1.141943e-004,6.346784e-005
9.393612e-005,6.249545e-005
6.055066e-005,5.017848e-005
2.522042e-005,3.559260e-005
2.693341e-006,2.376183e-005
1.558884e-006,1.533444e-005
1.711715e-005,1.031041e-005
2.927205e-005,7.231170e-006
2.473423e-005,4.151929e-006
4.638125e-006,2.207145e-006
-1.545797e-005,4.800190e-006
-1.173047e-005,1.549650e-005
1.857574e-005,3.672706e-005
5.520250e-005,6.962632e-005
7.367795e-005,1.140322e-004
6.314371e-005,1.710792e-004
2.748934e-005,2.337985e-004
-1.432352e-005,2.913317e-004
-3.441962e-005,3.289309e-004
-5.085794e-006,3.370341e-004
7.627100e-005,3.109416e-004
1.728619e-004,2.556773e-004
2.312055e-004,1.808031e-004
2.143507e-004,9.960841e-005
1.187321e-004,3.089271e-005
-2.096820e-005,-9.137427e-006
-1.501342e-004,-8.327101e-006
-2.222533e-004,4.029250e-005
-2.211189e-004,1.308870e-004
-1.613168e-004,2.474120e-004
-6.991193e-005,3.681507e-004
2.505836e-005,4.744656e-004
9.798775e-005,5.495019e-004
1.344524e-004,5.846701e-004
1.338042e-004,5.822391e-004
1.072255e-004,5.537156e-004
6.865393e-005,5.114165e-004
2.084466e-005,4.624728e-004
-4.203669e-005,4.086671e-004
-1.276072e-004,3.472443e-004
-2.303566e-004,2.769079e-004
-3.240303e-004,1.978200e-004
-3.784843e-004,1.197045e-004
-3.771877e-004,5.585077e-005
-3.238683e-004,2.165498e-005
-2.342462e-004,2.894792e-005
-1.332795e-004,7.967438e-005
-4.527799e-005,1.705930e-004
1.274139e-005,2.876042e-004
3.154097e-005,4.039671e-004
1.452411e-005,4.909963e-004
-2.696461e-005,5.295678e-004
-8.077030e-005,5.161164e-004
-1.350622e-004,4.595556e-004
-1.822232e-004,3.794953e-004
-2.175534e-004,2.950592e-004
-2.417012e-004,2.200230e-004
-2.559629e-004,1.545486e-004
-2.579077e-004,9.182927e-005
-2.483458e-004,3.170304e-005
-2.298704e-004,-2.323711e-005
-2.126914e-004,-7.428769e-005
-2.052365e-004,-1.250141e-004
-2.063709e-004,-1.780095e-004
-2.036158e-004,-2.353806e-004
-1.780095e-004,-2.937241e-004
-1.164247e-004,-3.481781e-004
-2.518189e-005,-3.937184e-004
6.687121e-005,-4.264556e-004
1.321835e-004,-4.459034e-004
1.488763e-004,-4.512515e-004
1.122495e-004,-4.476861e-004
3.429608e-005,-4.415277e-004
-6.342931e-005,-4.386105e-004
-1.600202e-004,-4.382863e-004
-2.288980e-004,-4.407173e-004
-2.438080e-004,-4.442827e-004
-1.922712e-004,-4.489826e-004
-7.331530e-005,-4.538446e-004
9.458438e-005,-4.569239e-004
2.717218e-004,-4.538446e-004
4.138531e-004,-4.418518e-004
4.909963e-004,-4.215936e-004
4.945617e-004,-3.964735e-004
4.490213e-004,-3.728119e-004
3.926226e-004,-3.566054e-004
3.576164e-004,-3.525538e-004
3.543751e-004,-3.569296e-004
3.867882e-004,-3.653570e-004
4.585832e-004,-3.707051e-004
5.636016e-004,-3.656811e-004
6.825576e-004,-3.494746e-004
7.893587e-004,-3.248407e-004
8.619640e-004,-2.980999e-004
8.916220e-004,-2.713591e-004
8.789809e-004,-2.408908e-004
8.269579e-004,-2.008607e-004
7.360392e-004,-1.470550e-004
6.125454e-004,-7.752899e-005
4.730070e-004,1.079661e-005
3.401134e-004,1.146805e-004
2.303951e-004,2.234263e-004
1.440143e-004,3.175863e-004
6.638502e-005,3.780367e-004
-2.339918e-005,3.974845e-004
-1.293899e-004,3.799815e-004
-2.387840e-004,3.370341e-004
-3.224097e-004,2.846870e-004
-3.554710e-004,2.391467e-004
-3.339163e-004,2.086784e-004
-2.797865e-004,1.955511e-004
-2.182017e-004,1.966855e-004
-1.705545e-004,2.081922e-004
-1.387897e-004,2.273159e-004
-1.097800e-004,2.474120e-004
-7.120844e-005,2.600531e-004
-3.636440e-005,2.574601e-004
-3.425755e-005,2.347709e-004
-8.417367e-005,1.970097e-004
-1.736337e-004,1.508211e-004
-2.705488e-004,1.002567e-004
-3.460712e-004,4.645098e-005
-3.862634e-004,-1.043395e-005
-3.901529e-004,-7.282909e-005
-3.681121e-004,-1.410586e-004
-3.369955e-004,-2.107467e-004
-3.097686e-004,-2.754107e-004
-2.946965e-004,-3.297026e-004
-2.927517e-004,-3.742705e-004
-3.053928e-004,-4.146248e-004
-3.314853e-004,-4.577342e-004
-3.575778e-004,-5.019780e-004
-3.635742e-004,-5.397392e-004
-3.405610e-004,-5.630766e-004
-2.966413e-004,-5.715040e-004
-2.489941e-004,-5.672903e-004
-2.152845e-004,-5.429805e-004
-1.977815e-004,-4.883645e-004
-1.786577e-004,-3.951770e-004
-1.336036e-004,-2.690902e-004
-5.824322e-005,-1.314967e-004
3.202716e-005,-2.168618e-006
1.091703e-004,1.091703e-004
1.498487e-004,2.013854e-004
1.490383e-004,2.816078e-004
1.137081e-004,3.516200e-004
6.217132e-005,4.028327e-004
7.069105e-006,4.232529e-004
-4.560212e-005,4.051016e-004
-9.260107e-005,3.527545e-004
-1.250141e-004,2.822560e-004
-1.314967e-004,2.175920e-004
-1.041077e-004,1.801549e-004
-4.608832e-005,1.855030e-004
2.505836e-005,2.389846e-004
8.372601e-005,3.333067e-004
1.083599e-004,4.517764e-004
9.004655e-005,5.738117e-004
3.105477e-005,6.879058e-004
-6.213279e-005,7.951931e-004
-1.736337e-004,8.938910e-004
-2.822175e-004,9.784892e-004
-3.595226e-004,1.034402e-003
-3.805911e-004,1.045260e-003
-3.444506e-004,9.951819e-004
-2.752487e-004,8.776844e-004
-2.019951e-004,7.076777e-004
-1.410586e-004,5.154681e-004
-9.665270e-005,3.311998e-004
-6.440170e-005,1.759412e-004
-3.733679e-005,6.136099e-005
-7.678839e-006,-1.513384e-005
2.441009e-005,-5.953974e-005
5.050261e-005,-8.773911e-005
6.055066e-005,-1.136696e-004
5.115087e-005,-1.452723e-004
3.186510e-005,-1.809267e-004
1.857574e-005,-2.110708e-004
2.181705e-005,-2.287359e-004
4.353380e-005,-2.335979e-004
7.967438e-005,-2.316531e-004
1.201907e-004,-2.269532e-004
1.534141e-004,-2.248464e-004
1.723757e-004,-2.293842e-004
1.756171e-004,-2.407288e-004
1.608691e-004,-2.566112e-004
1.427178e-004,-2.733039e-004
1.402868e-004,-2.840002e-004
1.623277e-004,-2.818933e-004
1.955511e-004,-2.609869e-004
2.085163e-004,-2.251705e-004
1.767515e-004,-1.878955e-004
1.041462e-004,-1.603444e-004
2.133085e-005,-1.473791e-004
-3.863332e-005,-1.452723e-004
-6.197072e-005,-1.512687e-004
-5.305713e-005,-1.601823e-004
-2.647842e-005,-1.687718e-004
8.851824e-006,-1.799543e-004
4.953022e-005,-1.958367e-004
9.539470e-005,-2.160948e-004
1.435281e-004,-2.308428e-004
1.900409e-004,-2.318152e-004
2.325020e-004,-2.159328e-004
2.717218e-004,-1.921092e-004
3.065659e-004,-1.718510e-004
3.299033e-004,-1.647201e-004
3.261758e-004,-1.739578e-004
2.756114e-004,-1.987538e-004
1.707551e-004,-2.378116e-004
2.651694e-005,-2.859450e-004
-1.255003e-004,-3.335922e-004
-2.460769e-004,-3.716775e-004
-3.032860e-004,-3.908012e-004
-2.856209e-004,-3.888564e-004
-2.073433e-004,-3.705430e-004
-1.010285e-004,-3.478539e-004
-3.789272e-006,-3.261372e-004
5.941620e-005,-3.034480e-004
8.178122e-005,-2.763831e-004
7.675720e-005,-2.446183e-004
6.330578e-005,-2.075054e-004
5.811968e-005,-1.634236e-004
6.411610e-005,-1.065387e-004
7.124698e-005,-3.247483e-005
6.525056e-005,5.358185e-005
3.996837e-005,1.398006e-004
7.485573e-007,2.132162e-004
-3.587821e-005,2.634565e-004
-5.953974e-005,2.793389e-004
-6.440170e-005,2.569738e-004
-4.835724e-005,2.047888e-004
-1.399939e-005,1.381800e-004
3.170304e-005,7.708133e-005
7.416415e-005,3.867184e-005
9.798775e-005,3.786152e-005
9.604298e-005,8.032264e-005
7.238143e-005,1.513072e-004
3.753739e-005,2.214815e-004
7.231170e-006,2.645909e-004
-4.599598e-006,2.692908e-004
1.095867e-005,2.381743e-004
4.645098e-005,1.796687e-004
8.242948e-005,1.046324e-004
9.928428e-005,2.651694e-005
9.344993e-005,-4.511593e-005
8.097089e-005,-1.007043e-004
7.659513e-005,-1.344139e-004
8.242948e-005,-1.441378e-004
8.939829e-005,-1.280934e-004
8.648112e-005,-9.049421e-005
6.557468e-005,-3.571614e-005
3.105477e-005,2.894792e-005
2.369211e-006,9.588091e-005
-1.034161e-006,1.631380e-004
2.408596e-005,2.312055e-004
6.557468e-005,2.999212e-004
1.070634e-004,3.642611e-004
1.430419e-004,4.177427e-004
1.751309e-004,4.537212e-004
1.966855e-004,4.657141e-004
2.043026e-004,4.522626e-004
2.038164e-004,4.119083e-004
2.090025e-004,3.551855e-004
2.256952e-004,2.976523e-004
2.478982e-004,2.603772e-004
2.654013e-004,2.547049e-004
2.701012e-004,2.816078e-004
2.594049e-004,3.303894e-004
2.307193e-004,3.840331e-004
1.801549e-004,4.253598e-004
1.098185e-004,4.439973e-004
2.862379e-005,4.373526e-004
-5.646050e-005,4.133669e-004
-1.417068e-004,3.882468e-004
-2.201465e-004,3.715541e-004
-2.836761e-004,3.598854e-004
-3.250027e-004,3.423823e-004
-3.381300e-004,3.067279e-004
-3.241924e-004,2.534084e-004
-2.895104e-004,1.855030e-004
-2.475355e-004,1.078737e-004
-2.144742e-004,2.343770e-005
-2.026434e-004,-6.764301e-005
-2.144742e-004,-1.658546e-004
-2.472114e-004,-2.664971e-004
-2.890242e-004,-3.596847e-004
-3.201407e-004,-4.343968e-004
-3.269475e-004,-4.859335e-004
-3.058790e-004,-5.142950e-004
-2.710350e-004,-5.254775e-004
-2.442942e-004,-5.183466e-004
-2.420253e-004,-4.929024e-004
-2.663351e-004,-4.548170e-004
-3.133340e-004,-4.212695e-004
-3.630881e-004,-4.123559e-004
-3.831841e-004,-4.384484e-004
-3.525538e-004,-4.937127e-004
-2.796244e-004,-5.580526e-004
-1.857886e-004,-6.102377e-004
-9.373552e-005,-6.420024e-004
-2.566809e-005,-6.583710e-004
-8.489166e-006,-6.698776e-004
-5.759496e-005,-6.802498e-004
-1.600202e-004,-6.836532e-004
-2.767073e-004,-6.776568e-004
-3.810773e-004,-6.624226e-004
-4.564377e-004,-6.457299e-004
-4.870680e-004,-6.421645e-004
-4.600031e-004,-6.580469e-004
-3.708672e-004,-6.896496e-004
-2.277635e-004,-7.220627e-004
-5.613637e-005,-7.372968e-004
1.190562e-004,-7.191455e-004
2.702632e-004,-6.544815e-004
3.780367e-004,-5.390910e-004
4.412422e-004,-3.703810e-004
4.696036e-004,-1.543479e-004
4.733311e-004,1.046324e-004
4.577728e-004,3.947294e-004
4.250357e-004,7.062191e-004
3.794953e-004,1.022247e-003
3.311998e-004,1.303107e-003
2.994350e-004,1.495802e-003
2.944109e-004,1.570029e-003
3.111037e-004,1.533564e-003
3.323342e-004,1.428869e-003
3.456236e-004,1.305862e-003
3.480546e-004,1.198412e-003
3.420582e-004,1.113166e-003
3.239069e-004,1.037481e-003
3.017039e-004,9.509380e-004
2.913317e-004,8.470541e-004
3.089969e-004,7.319876e-004
3.579406e-004,6.190279e-004
4.303838e-004,5.183853e-004
5.127130e-004,4.316803e-004
5.887217e-004,3.574544e-004
6.438239e-004,2.995970e-004
6.665131e-004,2.637806e-004
6.464170e-004,2.444948e-004
5.799701e-004,2.320158e-004
4.747897e-004,2.156472e-004
3.465960e-004,1.874478e-004
2.133783e-004,1.443384e-004
8.777764e-005,9.101894e-005
-2.647842e-005,3.559260e-005
-1.345760e-004,-1.335113e-005
-2.447804e-004,-5.338126e-005
-3.660052e-004,-8.692878e-005
-4.967919e-004,-1.203142e-004
-6.235270e-004,-1.595340e-004
-7.316245e-004,-2.075054e-004
-7.961266e-004,-2.626076e-004
-7.732753e-004,-3.211132e-004
-6.338991e-004,-3.801049e-004
-4.061974e-004,-4.399070e-004
-1.681235e-004,-4.998712e-004
-1.034161e-006,-5.578905e-004
6.670914e-005,-6.108859e-004
5.536457e-005,-6.543194e-004
6.744974e-006,-6.843015e-004
-4.900550e-005,-7.032631e-004
-9.811128e-005,-7.150938e-004
-1.397621e-004,-7.189835e-004
-1.770371e-004,-7.120146e-004
-2.107467e-004,-6.880290e-004
-2.366771e-004,-6.434610e-004
-2.447804e-004,-5.823624e-004
-2.254946e-004,-5.131605e-004
-1.831956e-004,-4.470379e-004
-1.298761e-004,-3.908012e-004
-7.979791e-005,-3.434782e-004
-4.446767e-005,-2.943724e-004
-4.057810e-005,-2.240360e-004
-8.384954e-005,-1.220970e-004
-1.692580e-004,4.800190e-006
-2.624455e-004,1.414213e-004
-3.156029e-004,2.688046e-004
-3.006929e-004,3.671783e-004
-2.327876e-004,4.193634e-004
-1.575893e-004,4.149876e-004
-1.092938e-004,3.598854e-004
-9.519411e-005,2.689667e-004
-9.503204e-005,1.655690e-004
-8.709085e-005,7.011252e-005
-6.229485e-005,-8.002969e-006
-3.733679e-005,-7.137051e-005
-3.344723e-005,-1.300382e-004
-5.240886e-005,-1.856265e-004
-7.688073e-005,-2.358668e-004
-7.250496e-005,-2.742763e-004
-1.108221e-005,-2.945344e-004
1.044704e-004,-2.878898e-004
2.350950e-004,-2.517492e-004
3.226103e-004,-1.924333e-004
3.266619e-004,-1.188556e-004
2.508154e-004,-3.425755e-005
1.362352e-004,5.666109e-005
3.834771e-005,1.443384e-004
-5.085794e-006,2.141886e-004
1.144487e-005,2.545429e-004
6.930219e-005,2.623220e-004
1.381800e-004,2.407673e-004
1.968476e-004,2.041406e-004
2.368777e-004,1.691344e-004
2.545429e-004,1.456350e-004
2.451431e-004,1.338042e-004
2.068957e-004,1.295905e-004
1.436902e-004,1.286181e-004
6.751948e-005,1.255389e-004
-7.354709e-006,1.190562e-004
-6.715681e-005,1.107909e-004
-1.020008e-004,1.020394e-004
-1.128592e-004,9.150514e-005
-1.156143e-004,7.918817e-005
-1.222590e-004,6.849186e-005
-1.339277e-004,6.249545e-005
-1.441378e-004,6.508849e-005
-1.421931e-004,7.805372e-005
-1.222590e-004,1.033359e-004
