-1.452723e-004,-2.758969e-004
-1.742820e-004,-2.726556e-004
-1.977815e-004,-2.796244e-004
-2.044261e-004,-2.922655e-004
-1.895161e-004,-3.023136e-004
-1.613168e-004,-3.013411e-004
-1.300382e-004,-2.797865e-004
-9.098041e-005,-2.368392e-004
-3.004385e-005,-1.823853e-004
5.163707e-005,-1.358725e-004
1.312112e-004,-1.258245e-004
1.785342e-004,-1.716889e-004
1.816135e-004,-2.710350e-004
1.504969e-004,-3.979321e-004
9.944634e-005,-5.193190e-004
3.591673e-005,-6.116962e-004
-4.090223e-005,-6.705259e-004
-1.285796e-004,-7.050458e-004
-2.147983e-004,-7.278970e-004
-2.716832e-004,-7.432932e-004
-2.713591e-004,-7.466965e-004
-2.128535e-004,-7.274108e-004
-1.224211e-004,-6.773326e-004
-3.458168e-005,-5.997034e-004
2.635488e-005,-5.123502e-004
4.029250e-005,-4.356933e-004
-6.868513e-006,-3.724878e-004
-1.057284e-004,-3.120375e-004
-2.269532e-004,-2.358668e-004
-3.293785e-004,-1.342519e-004
-3.805911e-004,-1.383732e-005
-3.747568e-004,1.124116e-004
-3.266234e-004,2.261814e-004
-2.572594e-004,3.182346e-004
-1.878955e-004,3.866261e-004
-1.370070e-004,4.435111e-004
-1.146419e-004,5.130371e-004
-1.206384e-004,6.093040e-004
-1.464067e-004,7.199947e-004
-1.799543e-004,8.028102e-004
-2.053985e-004,8.034584e-004
-2.063709e-004,6.994124e-004
-1.715269e-004,5.088235e-004
-1.044318e-004,2.726942e-004
-1.918548e-005,3.656499e-005
6.427817e-005,-1.627754e-004
1.281319e-004,-3.131719e-004
1.668655e-004,-4.193247e-004
1.856651e-004,-4.932265e-004
1.924718e-004,-5.421702e-004
1.913374e-004,-5.640491e-004
1.838824e-004,-5.556216e-004
1.743205e-004,-5.196431e-004
1.573037e-004,-4.651892e-004
1.214872e-004,-4.049009e-004
6.298164e-005,-3.481781e-004
-4.275467e-006,-2.976137e-004
-5.289507e-005,-2.528836e-004
-6.326724e-005,-2.094502e-004
-3.360929e-005,-1.600202e-004
2.473423e-005,-9.503204e-005
9.717743e-005,-9.947754e-006
1.688103e-004,9.166720e-005
2.235884e-004,1.987924e-004
2.459534e-004,2.971661e-004
2.287745e-004,3.720403e-004
1.765894e-004,4.209840e-004
1.018773e-004,4.498317e-004
2.084466e-005,4.666864e-004
-5.565017e-005,4.733311e-004
-1.284175e-004,4.673347e-004
-2.015090e-004,4.444835e-004
-2.650386e-004,4.078567e-004
-2.921034e-004,3.660439e-004
-2.538560e-004,3.299033e-004
-1.396000e-004,3.172622e-004
3.964424e-005,3.427064e-004
2.487085e-004,4.026706e-004
4.261701e-004,4.785172e-004
5.149820e-004,5.470709e-004
4.979651e-004,5.864528e-004
4.007258e-004,5.822391e-004
2.660495e-004,5.305402e-004
1.302388e-004,4.334631e-004
1.371378e-005,2.989488e-004
-6.650855e-005,1.475797e-004
-1.029732e-004,6.096713e-006
-9.503204e-005,-1.083214e-004
-5.613637e-005,-1.844921e-004
-2.816880e-006,-2.225774e-004
4.288554e-005,-2.342462e-004
6.281957e-005,-2.374874e-004
5.730935e-005,-2.462390e-004
3.462021e-005,-2.689281e-004
5.864920e-007,-3.066893e-004
-5.159854e-005,-3.570916e-004
-1.334415e-004,-4.155972e-004
-2.431597e-004,-4.755614e-004
-3.556330e-004,-5.379565e-004
-4.368278e-004,-6.000275e-004
-4.570859e-004,-6.520505e-004
-4.194868e-004,-6.776568e-004
-3.497987e-004,-6.590193e-004
-2.603387e-004,-5.823624e-004
-1.387897e-004,-4.400691e-004
1.922400e-005,-2.371633e-004
1.882582e-004,1.403791e-005
3.230965e-004,2.983005e-004
3.910019e-004,6.047662e-004
3.919743e-004,9.182008e-004
3.480546e-004,1.208784e-003
2.829043e-004,1.428707e-003
2.135403e-004,1.519302e-003
1.401247e-004,1.445886e-003
5.115087e-005,1.223208e-003
-5.370539e-005,9.128526e-004
-1.535376e-004,5.905044e-004
-2.156086e-004,3.128864e-004
-2.073433e-004,9.831188e-005
-1.110765e-004,-5.451572e-005
6.735741e-005,-1.520790e-004
2.838767e-004,-2.058847e-004
4.668485e-004,-2.360289e-004
5.590637e-004,-2.558008e-004
5.446399e-004,-2.723315e-004
4.469145e-004,-2.835140e-004
3.055935e-004,-2.914552e-004
1.668655e-004,-3.024756e-004
7.432621e-005,-3.214373e-004
5.050261e-005,-3.488263e-004
8.939829e-005,-3.758912e-004
1.689724e-004,-3.869116e-004
2.619979e-004,-3.718396e-004
3.363859e-004,-3.280820e-004
3.610198e-004,-2.609869e-004
3.211517e-004,-1.757406e-004
2.279642e-004,-7.850138e-005
1.151667e-004,2.052053e-005
1.452411e-005,1.114392e-004
-5.613637e-005,1.872858e-004
-9.243900e-005,2.456293e-004
-9.892161e-005,2.842008e-004
-8.838737e-005,3.000832e-004
-7.201877e-005,2.885766e-004
-5.759496e-005,2.524360e-004
-4.284701e-005,1.932822e-004
-2.550602e-005,1.197045e-004
-4.923729e-006,4.061663e-005
1.160693e-005,-3.928157e-005
1.841368e-005,-1.235555e-004
5.124321e-006,-2.159328e-004
-3.652646e-005,-3.168994e-004
-1.045939e-004,-4.238625e-004
-1.921092e-004,-5.347152e-004
-2.830278e-004,-6.431369e-004
-3.557951e-004,-7.408622e-004
-3.924218e-004,-8.243258e-004
-3.839945e-004,-8.917450e-004
-3.342404e-004,-9.418232e-004
-2.543422e-004,-9.774775e-004
-1.618029e-004,-9.987081e-004
-7.671866e-005,-1.002760e-003
-1.351319e-005,-9.859049e-004
2.505836e-005,-9.481438e-004
3.397195e-005,-8.886658e-004
1.889987e-005,-8.063366e-004
-7.030578e-006,-7.005080e-004
-3.036798e-005,-5.702075e-004
-4.706071e-005,-4.181903e-004
-6.229485e-005,-2.489941e-004
-7.931171e-005,-6.310517e-005
-8.222889e-005,1.461212e-004
-4.868137e-005,3.908399e-004
2.473423e-005,6.947125e-004
1.111150e-004,1.077511e-003
1.618415e-004,1.529836e-003
1.407730e-004,2.001448e-003
5.212327e-005,2.409530e-003
-6.359137e-005,2.670619e-003
-1.679614e-004,2.730745e-003
-2.405667e-004,2.587317e-003
-2.851347e-004,2.279715e-003
-3.196545e-004,1.876657e-003
-3.590364e-004,1.451396e-003
-3.953390e-004,1.062601e-003
-4.058733e-004,7.441425e-004
-3.711913e-004,5.042856e-004
-2.904828e-004,3.339549e-004
-1.870851e-004,2.158093e-004
-9.778715e-005,1.360731e-004
-5.581224e-005,8.583286e-005
-7.736692e-005,5.617490e-005
-1.525652e-004,3.316162e-005
-2.481838e-004,4.244267e-007
-3.165753e-004,-4.997789e-005
-3.251648e-004,-1.196660e-004
-2.708729e-004,-2.057227e-004
-1.827094e-004,-3.049066e-004
-1.052422e-004,-4.141386e-004
-6.650855e-005,-5.256396e-004
-6.132246e-005,-6.277406e-004
-4.868137e-005,-7.065044e-004
1.711715e-005,-7.526930e-004
1.475797e-004,-7.692237e-004
3.182346e-004,-7.684134e-004
4.759242e-004,-7.653341e-004
5.673291e-004,-7.740856e-004
5.627912e-004,-8.030953e-004
4.655520e-004,-8.536596e-004
3.030004e-004,-9.181616e-004
1.154908e-004,-9.857429e-004
-5.273300e-005,-1.045383e-003
-1.699062e-004,-1.091409e-003
-2.230636e-004,-1.119285e-003
-2.159328e-004,-1.130305e-003
-1.668270e-004,-1.126416e-003
-9.713889e-005,-1.110695e-003
-2.566809e-005,-1.084603e-003
3.624086e-005,-1.051217e-003
9.231547e-005,-1.009242e-003
1.410971e-004,-9.620814e-004
1.731861e-004,-9.165410e-004
1.803169e-004,-8.742420e-004
1.564933e-004,-8.222190e-004
1.010670e-004,-7.436173e-004
1.549650e-005,-6.204477e-004
-8.401160e-005,-4.502792e-004
-1.627754e-004,-2.515871e-004
-1.900023e-004,-5.710876e-005
-1.433275e-004,9.701536e-005
-1.367526e-005,1.921477e-004
1.996027e-004,2.258573e-004
4.790034e-004,2.025199e-004
7.631041e-004,1.351007e-004
9.635791e-004,4.515445e-005
1.007337e-003,-4.252288e-005
8.734707e-004,-1.068628e-004
5.977973e-004,-1.378173e-004
2.629703e-004,-1.355484e-004
-3.409549e-005,-1.020008e-004
-2.136638e-004,-3.409549e-005
-2.366771e-004,7.675720e-005
-1.191798e-004,2.440086e-004
7.286763e-005,4.762483e-004
2.519498e-004,7.749349e-004
3.461098e-004,1.131641e-003
3.349273e-004,1.518006e-003
2.511395e-004,1.873902e-003
1.501728e-004,2.122997e-003
7.999851e-005,2.199168e-003
6.314371e-005,2.086856e-003
9.361199e-005,1.823824e-003
1.420695e-004,1.482513e-003
1.754550e-004,1.137962e-003
1.733481e-004,8.475402e-004
1.312112e-004,6.331276e-004
5.649903e-005,4.927790e-004
-3.571614e-005,4.091532e-004
-1.271210e-004,3.501615e-004
-2.044261e-004,2.850112e-004
-2.637420e-004,1.958752e-004
-3.066893e-004,7.724339e-005
-3.344025e-004,-7.542214e-005
-3.436402e-004,-2.600145e-004
-3.303509e-004,-4.621100e-004
-2.917793e-004,-6.586951e-004
-2.329496e-004,-8.296740e-004
-1.695821e-004,-9.675916e-004
-1.256624e-004,-1.074717e-003
-1.212866e-004,-1.160125e-003
-1.692580e-004,-1.235161e-003
-2.668213e-004,-1.311170e-003
-3.940425e-004,-1.395282e-003
-5.157535e-004,-1.486363e-003
-5.980827e-004,-1.574202e-003
-6.206098e-004,-1.647294e-003
-5.802555e-004,-1.696724e-003
-4.977643e-004,-1.712768e-003
-4.040906e-004,-1.679383e-003
-3.238683e-004,-1.582954e-003
-2.570974e-004,-1.411489e-003
-1.898403e-004,-1.159963e-003
-1.026491e-004,-8.277292e-004
1.517237e-005,-4.096008e-004
1.540623e-004,1.187321e-004
2.832284e-004,7.678040e-004
3.749574e-004,1.514440e-003
4.167703e-004,2.286846e-003
4.081808e-004,2.974979e-003
3.527545e-004,3.463124e-003
2.556773e-004,3.659387e-003
1.248906e-004,3.530706e-003
-2.761287e-005,3.115977e-003
-1.780095e-004,2.520869e-003
-3.045825e-004,1.875523e-003
-3.974459e-004,1.293220e-003
-4.462276e-004,8.378163e-004
-4.348830e-004,5.196818e-004
-3.433161e-004,3.190449e-004
-1.789819e-004,1.992786e-004
9.500085e-006,1.253768e-004
1.634622e-004,7.027458e-005
2.456293e-004,2.181705e-005
2.542187e-004,-2.534396e-005
2.094887e-004,-7.201877e-005
1.425557e-004,-1.188556e-004
7.951231e-005,-1.624512e-004
4.369587e-005,-1.934057e-004
4.450620e-005,-2.024813e-004
7.546067e-005,-1.870851e-004
1.281319e-004,-1.596961e-004
2.021958e-004,-1.431655e-004
2.934386e-004,-1.540238e-004
3.760919e-004,-1.948643e-004
4.047775e-004,-2.595283e-004
3.467581e-004,-3.303509e-004
2.130541e-004,-3.916115e-004
5.406805e-005,-4.292107e-004
-6.796714e-005,-4.399070e-004
-1.062146e-004,-4.334244e-004
-5.030202e-005,-4.206212e-004
7.513654e-005,-4.113835e-004
2.289366e-004,-4.089525e-004
3.751195e-004,-4.087905e-004
4.955341e-004,-4.074939e-004
5.773771e-004,-4.024699e-004
6.096281e-004,-3.951770e-004
5.858046e-004,-3.854531e-004
5.101200e-004,-3.682741e-004
3.965121e-004,-3.382920e-004
2.577842e-004,-2.961551e-004
1.116012e-004,-2.425115e-004
-2.469570e-005,-1.846542e-004
-1.358725e-004,-1.339277e-004
-2.144742e-004,-1.042698e-004
-2.606628e-004,-1.039456e-004
-2.867553e-004,-1.360346e-004
-3.110651e-004,-1.925954e-004
-3.483401e-004,-2.653627e-004
-3.922598e-004,-3.400748e-004
-4.212695e-004,-4.097628e-004
-4.031182e-004,-4.702132e-004
-3.245165e-004,-5.183466e-004
-2.089640e-004,-5.496252e-004
-1.076731e-004,-5.590250e-004
-6.423963e-005,-5.442770e-004
-8.401160e-005,-5.104054e-004
-1.430034e-004,-4.672960e-004
-2.060468e-004,-4.266177e-004
-2.536940e-004,-3.979321e-004
-2.814071e-004,-3.817256e-004
-2.912931e-004,-3.760533e-004
-2.840002e-004,-3.763774e-004
-2.590421e-004,-3.786463e-004
-2.243602e-004,-3.802670e-004
-1.903264e-004,-3.770257e-004
-1.564548e-004,-3.674638e-004
-1.191798e-004,-3.517435e-004
-8.790117e-005,-3.322956e-004
-8.174268e-005,-3.097686e-004
-1.135075e-004,-2.833519e-004
-1.801163e-004,-2.528836e-004
-2.580697e-004,-2.178775e-004
-3.170615e-004,-1.810887e-004
-3.373197e-004,-1.454344e-004
-3.115513e-004,-1.146419e-004
-2.412149e-004,-9.033215e-005
-1.391138e-004,-6.974985e-005
-2.923353e-005,-4.997789e-005
6.330578e-005,-3.150244e-005
1.265113e-004,-1.335113e-005
1.673517e-004,5.286387e-006
1.963614e-004,2.522042e-005
2.180782e-004,4.499239e-005
2.300710e-004,6.217132e-005
2.289366e-004,7.335383e-005
2.132162e-004,7.805372e-005
1.754550e-004,8.016057e-005
1.047945e-004,8.226741e-005
8.203562e-006,8.405014e-005
-8.968389e-005,8.761557e-005
-1.653684e-004,8.664318e-005
-2.086398e-004,7.578480e-005
-2.224154e-004,5.568870e-005
-2.011848e-004,3.526847e-005
-1.224211e-004,2.489629e-005
1.533444e-005,2.765140e-005
1.759412e-004,4.142696e-005
3.143450e-004,5.925414e-005
4.089912e-004,6.978839e-005
4.624728e-004,6.379197e-005
4.759242e-004,4.288554e-005
4.464283e-004,1.727922e-005
3.760919e-004,3.503668e-006
2.861456e-004,1.176900e-005
2.106232e-004,4.661304e-005
1.723757e-004,1.031738e-004
1.678379e-004,1.754550e-004
1.837203e-004,2.592428e-004
2.080301e-004,3.504856e-004
2.312055e-004,4.462662e-004
2.467637e-004,5.392918e-004
2.475741e-004,6.175694e-004
2.265056e-004,6.708889e-004
1.825859e-004,7.036261e-004
1.232699e-004,7.323117e-004
6.427817e-005,7.747728e-004
2.149292e-005,8.381404e-004
1.072688e-006,9.092872e-004
-3.303076e-006,9.621205e-004
4.244267e-007,9.773547e-004
8.041497e-006,9.481829e-004
1.873781e-005,8.776844e-004
3.364782e-005,7.794728e-004
4.855783e-005,6.720233e-004
5.585077e-005,5.699221e-004
4.936815e-005,4.840274e-004
2.570662e-005,4.188772e-004
-1.659243e-005,3.722023e-004
-8.255302e-005,3.391410e-004
-1.789819e-004,3.125623e-004
-3.073376e-004,2.853353e-004
-4.572480e-004,2.543808e-004
-6.118583e-004,2.169437e-004
-7.640376e-004,1.767515e-004
-9.055205e-004,1.417454e-004
-1.012322e-003,1.206769e-004
-1.042304e-003,1.122495e-004
-9.437680e-004,1.054428e-004
-6.812222e-004,9.231547e-005
-2.773555e-004,6.978839e-005
1.694586e-004,3.624086e-005
5.388056e-004,-1.140634e-005
7.665075e-004,-7.363943e-005
8.525642e-004,-1.507825e-004
8.326302e-004,-2.353806e-004
7.421977e-004,-3.151167e-004
6.073592e-004,-3.856151e-004
4.517764e-004,-4.470379e-004
3.028383e-004,-5.023021e-004
1.898788e-004,-5.543251e-004
1.310491e-004,-6.058619e-004
1.132219e-004,-6.548056e-004
1.052807e-004,-6.949978e-004
8.534666e-005,-7.212523e-004
6.006447e-005,-7.298418e-004
6.055066e-005,-7.209282e-004
1.018773e-004,-6.961322e-004
1.650828e-004,-6.599916e-004
2.151610e-004,-6.175305e-004
2.243987e-004,-5.689110e-004
1.778860e-004,-5.152673e-004
8.712937e-005,-4.632444e-004
-2.064406e-005,-4.186764e-004
-1.071869e-004,-3.891806e-004
-1.413827e-004,-3.775118e-004
-1.164247e-004,-3.763774e-004
-5.678463e-005,-3.673017e-004
-2.168618e-006,-3.334301e-004
2.246531e-005,-2.653627e-004
1.630683e-005,-1.673132e-004
1.883015e-006,-5.532604e-005
3.503668e-006,4.953022e-005
2.716521e-005,1.260251e-004
6.152305e-005,1.598967e-004
9.118101e-005,1.511452e-004
1.090082e-004,1.214872e-004
1.195424e-004,9.863601e-005
1.339663e-004,9.685330e-005
1.608691e-004,1.154908e-004
1.996027e-004,1.427178e-004
2.474120e-004,1.607070e-004
3.015418e-004,1.592484e-004
3.581026e-004,1.367214e-004
4.052637e-004,9.977047e-005
4.234150e-004,6.330578e-005
4.042913e-004,4.434413e-005
3.509718e-004,5.536457e-005
2.765838e-004,1.065772e-004
1.955511e-004,1.936063e-004
1.179218e-004,3.013798e-004
4.450620e-005,4.073705e-004
-2.031993e-005,4.956961e-004
-6.958779e-005,5.520949e-004
-9.584238e-005,5.670050e-004
-1.041077e-004,5.355643e-004
-9.762509e-005,4.553419e-004
-7.833932e-005,3.289309e-004
-5.370539e-005,1.686482e-004
-4.236082e-005,-3.951337e-006
-6.148453e-005,-1.622891e-004
-1.139937e-004,-2.916173e-004
-1.969711e-004,-3.859393e-004
-3.073376e-004,-4.535205e-004
-4.331002e-004,-5.094330e-004
-5.478425e-004,-5.651835e-004
-6.133168e-004,-6.159099e-004
-5.940311e-004,-6.441093e-004
-4.768579e-004,-6.300096e-004
-2.844864e-004,-5.570802e-004
-7.299116e-005,-4.198109e-004
8.696731e-005,-2.316531e-004
1.501728e-004,-1.173047e-005
1.222976e-004,2.323399e-004
5.309566e-005,5.067165e-004
3.503668e-006,8.237166e-004
5.124321e-006,1.181719e-003
5.228533e-005,1.541505e-003
1.135460e-004,1.836789e-003
1.547106e-004,2.008579e-003
1.501728e-004,2.028513e-003
9.393612e-005,1.902101e-003
1.002961e-007,1.666944e-003
-1.076731e-004,1.370202e-003
-2.084778e-004,1.061143e-003
-2.942103e-004,7.749349e-004
-3.697327e-004,5.287575e-004
-4.407173e-004,3.260137e-004
-5.102433e-004,1.603829e-004
-5.723144e-004,1.954813e-005
-6.074825e-004,-1.050801e-004
-6.001896e-004,-2.186879e-004
-5.478425e-004,-3.217614e-004
-4.666478e-004,-4.121938e-004
-3.750809e-004,-4.836646e-004
-2.893484e-004,-5.374703e-004
-2.207947e-004,-5.807417e-004
-1.817370e-004,-6.207718e-004
-1.765509e-004,-6.617744e-004
-1.969711e-004,-7.073147e-004
-2.196603e-004,-7.575550e-004
-2.182017e-004,-8.068228e-004
-1.723372e-004,-8.450702e-004
-7.752899e-005,-8.705144e-004
5.115087e-005,-8.953104e-004
1.842065e-004,-9.286959e-004
2.931144e-004,-9.638641e-004
3.498373e-004,-9.902808e-004
3.326584e-004,-9.975737e-004
2.402811e-004,-9.799085e-004
1.026876e-004,-9.406887e-004
-3.166451e-005,-8.894761e-004
-1.162626e-004,-8.355084e-004
-1.256624e-004,-7.851060e-004
-6.002594e-005,-7.335693e-004
5.439218e-005,-6.638812e-004
1.775618e-004,-5.685869e-004
2.801492e-004,-4.583824e-004
3.512959e-004,-3.544986e-004
3.952156e-004,-2.789762e-004
4.166082e-004,-2.353806e-004
4.182289e-004,-2.175534e-004
4.075326e-004,-2.065330e-004
3.908399e-004,-1.814128e-004
3.744712e-004,-1.295519e-004
3.603715e-004,-4.835724e-005
3.443271e-004,6.168512e-005
3.297412e-004,2.044647e-004
3.174242e-004,3.866261e-004
3.080245e-004,6.007145e-004
2.987867e-004,8.096169e-004
2.885766e-004,9.535311e-004
2.846870e-004,9.862683e-004
2.940868e-004,8.942151e-004
3.133726e-004,7.055709e-004
3.252034e-004,4.726828e-004
3.107795e-004,2.495189e-004
2.608634e-004,7.384002e-005
1.791825e-004,-3.798505e-005
7.027458e-005,-8.919769e-005
-6.440170e-005,-9.568031e-005
-2.253326e-004,-7.769106e-005
-4.039285e-004,-5.402952e-005
-5.843072e-004,-3.652646e-005
-7.488034e-004,-3.344723e-005
-8.742420e-004,-4.754691e-005
-9.385819e-004,-7.769106e-005
-9.280476e-004,-1.130213e-004
-8.359946e-004,-1.358725e-004
-6.857601e-004,-1.329553e-004
-5.301774e-004,-1.032974e-004
-4.228902e-004,-5.905355e-005
-3.854531e-004,-2.096820e-005
-4.014975e-004,-6.220252e-006
-4.300210e-004,-1.594417e-005
-4.170558e-004,-3.733679e-005
-3.159271e-004,-5.727083e-005
-1.212866e-004,-6.423963e-005
1.177597e-004,-5.354332e-005
3.183966e-004,-3.101625e-005
4.200116e-004,-7.516774e-006
4.200116e-004,4.151929e-006
3.631267e-004,4.244267e-007
3.012177e-004,-1.562004e-005
2.603772e-004,-3.798505e-005
2.401191e-004,-6.051213e-005
2.325020e-004,-7.882551e-005
2.360674e-004,-9.049421e-005
2.545429e-004,-9.551824e-005
2.848491e-004,-9.730096e-005
3.205035e-004,-9.940781e-005
3.496752e-004,-1.047560e-004
3.632887e-004,-1.170729e-004
3.524304e-004,-1.391138e-004
3.230965e-004,-1.712027e-004
2.970040e-004,-2.099363e-004
2.970040e-004,-2.454286e-004
3.297412e-004,-2.653627e-004
3.704196e-004,-2.632558e-004
3.769022e-004,-2.402425e-004
3.179104e-004,-2.023193e-004
1.955511e-004,-1.575893e-004
4.304761e-005,-1.138316e-004
-8.611845e-005,-7.347736e-005
-1.502963e-004,-3.847125e-005
-1.363587e-004,-1.108221e-005
-5.111234e-005,7.393236e-006
7.400208e-005,2.100672e-005
1.850168e-004,3.024445e-005
2.376881e-004,3.607880e-005
2.227781e-004,3.089271e-005
1.782101e-004,1.193106e-005
1.545486e-004,-2.194059e-005
1.717275e-004,-6.342931e-005
2.102990e-004,-1.083214e-004
2.339606e-004,-1.540238e-004
2.114335e-004,-2.011848e-004
1.352628e-004,-2.460769e-004
2.992031e-005,-2.802727e-004
-7.607040e-005,-2.995585e-004
-1.611547e-004,-2.980999e-004
-2.209568e-004,-2.686040e-004
-2.634179e-004,-2.112329e-004
-2.953447e-004,-1.327933e-004
-3.167374e-004,-4.754691e-005
-3.254889e-004,3.202716e-005
-3.269475e-004,9.928428e-005
-3.285682e-004,1.539003e-004
-3.295405e-004,2.067336e-004
-3.279199e-004,2.731804e-004
-3.211132e-004,3.605336e-004
-3.073376e-004,4.723587e-004
-2.793003e-004,6.086557e-004
-2.214430e-004,7.692626e-004
-1.277692e-004,9.512621e-004
-1.286493e-005,1.153196e-003
8.891209e-005,1.373281e-003
1.514693e-004,1.599038e-003
1.637863e-004,1.803565e-003
1.344524e-004,1.946183e-003
8.097089e-005,1.985889e-003
1.727922e-005,1.905181e-003
-6.035007e-005,1.712484e-003
-1.538618e-004,1.434380e-003
-2.523975e-004,1.104900e-003
-3.356990e-004,7.627800e-004
-3.723258e-004,4.373526e-004
-3.230579e-004,1.495245e-004
-1.707166e-004,-9.033215e-005
5.941620e-005,-2.789762e-004
2.921420e-004,-4.295348e-004
4.525868e-004,-5.578905e-004
5.067165e-004,-6.770085e-004
4.679830e-004,-8.003402e-004
3.733368e-004,-9.329096e-004
2.621599e-004,-1.065155e-003
1.675138e-004,-1.172928e-003
1.083599e-004,-1.228193e-003
9.344993e-005,-1.213769e-003
1.153287e-004,-1.133871e-003
1.527658e-004,-9.996805e-004
1.791825e-004,-8.102262e-004
1.804790e-004,-5.476804e-004
1.595726e-004,-1.848162e-004
1.334801e-004,2.871180e-004
1.180839e-004,8.237166e-004
1.269974e-004,1.335358e-003
1.589243e-004,1.715239e-003
2.021958e-004,1.884274e-003
2.344468e-004,1.822851e-003
2.427121e-004,1.576025e-003
2.256952e-004,1.226287e-003
1.885823e-004,8.590469e-004
1.376938e-004,5.388056e-004
7.627100e-005,2.945730e-004
4.244267e-007,1.269974e-004
-9.065628e-005,1.663096e-005
-1.966470e-004,-6.229485e-005
-3.068514e-004,-1.310105e-004
-4.071698e-004,-1.964849e-004
-4.864197e-004,-2.545043e-004
-5.431426e-004,-2.987481e-004
-5.742591e-004,-3.250027e-004
-5.749074e-004,-3.379679e-004
-5.455735e-004,-3.488263e-004
-4.856094e-004,-3.687603e-004
-3.974459e-004,-4.024699e-004
-2.898345e-004,-4.449310e-004
-1.789819e-004,-4.839888e-004
-8.692878e-005,-5.139708e-004
-2.971972e-005,-5.381186e-004
-1.335113e-005,-5.622663e-004
-3.377136e-005,-5.894933e-004
-7.898758e-005,-6.197995e-004
-1.336036e-004,-6.488092e-004
-1.663408e-004,-6.708500e-004
-1.447861e-004,-6.810602e-004
-5.159854e-005,-6.808981e-004
1.083599e-004,-6.753879e-004
3.025142e-004,-6.663122e-004
4.775448e-004,-6.536711e-004
5.879114e-004,-6.407059e-004
6.107626e-004,-6.257959e-004
5.532294e-004,-6.086170e-004
4.457800e-004,-5.893312e-004
3.255275e-004,-5.627525e-004
2.227781e-004,-5.227224e-004
1.513072e-004,-4.715097e-004
1.051186e-004,-4.120317e-004
7.076078e-005,-3.431540e-004
3.397195e-005,-2.655248e-004
-1.383732e-005,-1.867610e-004
-6.667062e-005,-1.167488e-004
-1.092938e-004,-6.618442e-005
-1.313347e-004,-4.414354e-005
-1.295519e-004,-5.143648e-005
-1.125351e-004,-7.931171e-005
-9.892161e-005,-1.114006e-004
-1.008664e-004,-1.371690e-004
-1.177212e-004,-1.527273e-004
-1.318209e-004,-1.605064e-004
-1.222590e-004,-1.645581e-004
-8.628052e-005,-1.673132e-004
-4.365734e-005,-1.737958e-004
-2.437157e-005,-1.885437e-004
-4.916756e-005,-2.113949e-004
-1.161005e-004,-2.441321e-004
-2.000504e-004,-2.830278e-004
-2.658489e-004,-3.173856e-004
-2.793003e-004,-3.415334e-004
-2.194982e-004,-3.496366e-004
-9.535618e-005,-3.428299e-004
5.779555e-005,-3.303509e-004
2.021958e-004,-3.311612e-004
3.093210e-004,-3.673017e-004
3.694472e-004,-4.491447e-004
3.863020e-004,-5.728005e-004
3.616681e-004,-7.220627e-004
2.983005e-004,-8.722972e-004
2.077060e-004,-9.982219e-004
1.020394e-004,-1.081523e-003
-8.165035e-006,-1.111830e-003
-1.139937e-004,-1.093840e-003
-2.013469e-004,-1.030473e-003
-2.538560e-004,-9.167031e-004
-2.574215e-004,-7.374589e-004
-2.120432e-004,-4.872300e-004
-1.274451e-004,-1.736337e-004
-2.955766e-005,1.863134e-004
4.402000e-005,5.809425e-004
6.492643e-005,9.951819e-004
2.489629e-005,1.386570e-003
-5.532604e-005,1.697088e-003
-1.327933e-004,1.877143e-003
-1.750923e-004,1.902263e-003
-1.747682e-004,1.793193e-003
-1.459206e-004,1.608762e-003
-1.146419e-004,1.419308e-003
-1.011905e-004,1.277014e-003
-1.101041e-004,1.206515e-003
-1.340898e-004,1.205543e-003
-1.533756e-004,1.260483e-003
-1.441378e-004,1.352050e-003
-9.017008e-005,1.454800e-003
-2.238346e-007,1.539398e-003
9.150514e-005,1.570677e-003
1.574657e-004,1.521895e-003
1.932822e-004,1.387056e-003
2.128921e-004,1.183664e-003
2.337985e-004,9.442933e-004
2.684805e-004,7.018434e-004
3.172622e-004,4.820827e-004
3.592371e-004,3.017039e-004
3.653956e-004,1.605450e-004
3.161277e-004,4.985435e-005
2.216436e-004,-4.187462e-005
1.193804e-004,-1.227452e-004
5.455425e-005,-1.912988e-004
5.374392e-005,-2.475355e-004
1.022015e-004,-2.859450e-004
1.555210e-004,-3.027998e-004
1.733481e-004,-3.013411e-004
1.443384e-004,-2.895104e-004
7.351589e-005,-2.700626e-004
-2.388537e-005,-2.485079e-004
-1.211246e-004,-2.280877e-004
-1.887058e-004,-2.182017e-004
-2.058847e-004,-2.288980e-004
-1.728234e-004,-2.562870e-004
-1.058904e-004,-2.896725e-004
-3.733679e-005,-3.215994e-004
-3.789272e-006,-3.517435e-004
-2.566809e-005,-3.760533e-004
-9.762509e-005,-3.904771e-004
-1.851404e-004,-3.930701e-004
-2.425115e-004,-3.908012e-004
-2.378116e-004,-3.922598e-004
-1.724993e-004,-4.003631e-004
-6.569822e-005,-4.057112e-004
4.807163e-005,-4.050630e-004
1.292664e-004,-3.992286e-004
1.563313e-004,-3.925839e-004
1.409351e-004,-3.908012e-004
1.083599e-004,-3.974459e-004
8.323981e-005,-4.074939e-004
8.178122e-005,-4.154351e-004
1.056048e-004,-4.186764e-004
1.360731e-004,-4.154351e-004
1.425557e-004,-4.100870e-004
1.028497e-004,-4.037664e-004
1.322759e-005,-3.961493e-004
-1.110765e-004,-3.870737e-004
-2.345703e-004,-3.734602e-004
-3.177098e-004,-3.527159e-004
-3.292164e-004,-3.214373e-004
-2.627696e-004,-2.802727e-004
-1.498101e-004,-2.316531e-004
-3.766092e-005,-1.901644e-004
3.283749e-005,-1.736337e-004
4.888196e-005,-1.924333e-004
2.052053e-005,-2.421874e-004
-3.652646e-005,-3.052308e-004
-1.079973e-004,-3.606571e-004
-1.796301e-004,-3.945287e-004
-2.370013e-004,-4.014975e-004
-2.671454e-004,-3.826980e-004
-2.733039e-004,-3.450988e-004
-2.671454e-004,-2.985861e-004
-2.579077e-004,-2.525595e-004
-2.501286e-004,-2.182017e-004
-2.423494e-004,-1.971332e-004
-2.387840e-004,-1.883817e-004
-2.366771e-004,-1.815749e-004
-2.246843e-004,-1.637477e-004
-1.922712e-004,-1.222590e-004
-1.327933e-004,-5.824322e-005
-5.062615e-005,1.857574e-005
3.575467e-005,9.685330e-005
1.043083e-004,1.620036e-004
1.456350e-004,1.994406e-004
1.696206e-004,2.065715e-004
1.897167e-004,1.940925e-004
2.107852e-004,1.785342e-004
2.235884e-004,1.808031e-004
2.219677e-004,2.161334e-004
2.114335e-004,2.840388e-004
2.077060e-004,3.691231e-004
2.135403e-004,4.491834e-004
2.211574e-004,5.067165e-004
2.219677e-004,5.383193e-004
2.132162e-004,5.478812e-004
2.008992e-004,5.439916e-004
1.837203e-004,5.336195e-004
1.534141e-004,5.133613e-004
1.086841e-004,4.725208e-004
6.119892e-005,4.052637e-004
3.364782e-005,3.169380e-004
3.834771e-005,2.200230e-004
7.027458e-005,1.346145e-004
1.156529e-004,7.205730e-005
1.576278e-004,4.337174e-005
1.717275e-004,5.260946e-005
1.376938e-004,9.507057e-005
4.936815e-005,1.597346e-004
-7.655660e-005,2.302331e-004
-2.058847e-004,2.931144e-004
-2.942103e-004,3.396272e-004
-3.023136e-004,3.668542e-004
-2.029675e-004,3.780367e-004
1.396819e-006,3.741471e-004
2.542187e-004,3.563199e-004
4.600418e-004,3.218000e-004
5.321609e-004,2.613496e-004
4.521006e-004,1.650828e-004
2.866318e-004,3.121684e-005
1.368834e-004,-1.209625e-004
7.027458e-005,-2.642282e-004
1.041462e-004,-3.810773e-004
2.146748e-004,-4.715097e-004
3.511338e-004,-5.467080e-004
4.491834e-004,-6.209339e-004
4.632831e-004,-6.966184e-004
3.882468e-004,-7.682513e-004
2.506533e-004,-8.288636e-004
9.004655e-005,-8.752144e-004
-5.678463e-005,-9.132997e-004
-1.679614e-004,-9.518713e-004
-2.434839e-004,-1.001463e-003
-2.875656e-004,-1.072772e-003
-3.084721e-004,-1.167418e-003
-3.107410e-004,-1.263523e-003
-3.024756e-004,-1.324459e-003
-2.943724e-004,-1.318139e-003
-2.995585e-004,-1.240347e-003
-3.214373e-004,-1.103564e-003
-3.491504e-004,-9.251304e-004
-3.630881e-004,-7.115284e-004
-3.447747e-004,-4.601652e-004
-2.984240e-004,-1.728234e-004
-2.459149e-004,1.211631e-004
-2.104225e-004,3.647473e-004
-2.088019e-004,4.965065e-004
-2.360289e-004,4.833792e-004
-2.642282e-004,3.508097e-004
-2.579077e-004,1.717275e-004
-1.966470e-004,3.883391e-005
-8.563225e-005,2.781346e-005
4.839576e-005,1.759412e-004
1.654069e-004,4.825689e-004
2.370398e-004,9.285730e-004
2.607014e-004,1.499530e-003
2.446569e-004,2.182313e-003
2.023578e-004,2.934462e-003
1.527658e-004,3.656794e-003
1.103047e-004,4.217060e-003
7.918817e-005,4.488523e-003
5.779555e-005,4.402789e-003
5.309566e-005,3.982224e-003
6.622294e-005,3.323584e-003
8.810177e-005,2.555227e-003
1.039842e-004,1.802107e-003
1.072255e-004,1.150765e-003
9.960841e-005,6.428516e-004
8.810177e-005,2.778803e-004
7.983644e-005,3.348575e-005
7.837785e-005,-1.242038e-004
8.161915e-005,-2.303566e-004
8.956036e-005,-3.115513e-004
9.928428e-005,-3.820497e-004
1.041462e-004,-4.436345e-004
9.004655e-005,-4.941989e-004
5.034055e-005,-5.287188e-004
-1.205460e-005,-5.475183e-004
-8.368748e-005,-5.564319e-004
-1.444620e-004,-5.656697e-004
-1.778474e-004,-5.849554e-004
-1.780095e-004,-6.207718e-004
-1.480274e-004,-6.739292e-004
-9.908367e-005,-7.421587e-004
-4.381940e-005,-8.167088e-004
6.096713e-006,-8.839659e-004
4.337174e-005,-9.316131e-004
6.751948e-005,-9.517092e-004
8.712937e-005,-9.484679e-004
1.127357e-004,-9.325854e-004
1.433661e-004,-9.173513e-004
1.662173e-004,-9.085998e-004
1.701068e-004,-9.042240e-004
1.487142e-004,-8.974173e-004
1.114392e-004,-8.820211e-004
7.238143e-005,-8.554424e-004
3.543054e-005,-8.175191e-004
-8.720959e-007,-7.711684e-004
-3.441962e-005,-7.235213e-004
-5.402952e-005,-6.791154e-004
-5.192267e-005,-6.424887e-004
-2.793700e-005,-6.181788e-004
1.128280e-005,-6.078067e-004
5.471631e-005,-6.061860e-004
9.296373e-005,-6.108859e-004
1.150046e-004,-6.197995e-004
1.023635e-004,-6.319543e-004
3.721326e-005,-6.454058e-004
-7.914964e-005,-6.573986e-004
-2.217671e-004,-6.646916e-004
-3.420196e-004,-6.645294e-004
-3.893426e-004,-6.570745e-004
-3.491504e-004,-6.426507e-004
-2.511010e-004,-6.225546e-004
-1.499722e-004,-5.959758e-004
-9.713889e-005,-5.632387e-004
-1.097800e-004,-5.233706e-004
-1.665028e-004,-4.778303e-004
-2.241981e-004,-4.306693e-004
-2.468872e-004,-3.882082e-004
-2.220912e-004,-3.553089e-004
-1.580754e-004,-3.305129e-004
-7.850138e-005,-3.049066e-004
-2.330684e-006,-2.692523e-004
5.682316e-005,-2.182017e-004
9.004655e-005,-1.485136e-004
8.810177e-005,-7.039812e-005
4.985435e-005,-4.761664e-006
-1.497178e-005,2.667901e-005
-9.405965e-005,1.112074e-005
-1.695821e-004,-4.625038e-005
-2.212809e-004,-1.258245e-004
-2.253326e-004,-2.086398e-004
-1.635857e-004,-2.818933e-004
-4.560212e-005,-3.331060e-004
7.983644e-005,-3.564434e-004
1.556830e-004,-3.541745e-004
1.603829e-004,-3.305129e-004
1.098185e-004,-2.861070e-004
3.332369e-005,-2.224154e-004
-4.835724e-005,-1.507825e-004
-1.255003e-004,-8.644259e-005
-1.856265e-004,-3.944364e-005
-2.138259e-004,-8.165035e-006
-1.997262e-004,1.549650e-005
-1.454344e-004,4.450620e-005
-6.764301e-005,9.377406e-005
1.031041e-005,1.675138e-004
6.362991e-005,2.569738e-004
7.967438e-005,3.428685e-004
6.233338e-005,4.088291e-004
3.267542e-005,4.467524e-004
8.689758e-006,4.524247e-004
-3.789272e-006,4.287631e-004
-7.192643e-006,3.833848e-004
-4.437533e-006,3.284447e-004
6.744974e-006,2.791768e-004
3.186510e-005,2.472499e-004
6.897806e-005,2.329882e-004
1.088461e-004,2.333123e-004
1.448246e-004,2.430362e-004
1.773998e-004,2.618358e-004
2.106232e-004,2.913317e-004
2.436845e-004,3.326584e-004
2.710735e-004,3.867882e-004
2.786906e-004,4.478869e-004
2.560015e-004,5.063924e-004
2.020337e-004,5.511225e-004
1.315353e-004,5.742979e-004
7.238143e-005,5.739738e-004
4.223728e-005,5.559844e-004
4.175109e-005,5.251921e-004
5.115087e-005,4.890515e-004
3.996837e-005,4.533971e-004
-1.448558e-005,4.255218e-004
-1.044318e-004,4.109360e-004
-1.885437e-004,4.083429e-004
-2.118811e-004,4.140152e-004
-1.499722e-004,4.243874e-004
-1.027188e-005,4.303838e-004
1.809652e-004,4.226047e-004
3.940812e-004,4.004017e-004
5.906665e-004,3.739850e-004
7.104329e-004,3.546993e-004
7.060571e-004,3.522683e-004
5.785116e-004,3.665301e-004
3.710679e-004,3.858158e-004
1.373696e-004,3.900295e-004
-7.995997e-005,3.689610e-004
-2.462390e-004,3.286068e-004
-3.361852e-004,2.851732e-004
-3.418575e-004,2.457913e-004
-2.789762e-004,2.077060e-004
-1.807646e-004,1.637863e-004
-8.935975e-005,1.137081e-004
-4.122636e-005,5.990240e-005
-5.208474e-005,4.800190e-006
-1.131834e-004,-5.743289e-005
-1.924333e-004,-1.269589e-004
-2.528836e-004,-2.050744e-004
-2.741142e-004,-2.887001e-004
-2.561249e-004,-3.643846e-004
-2.089640e-004,-4.230522e-004
-1.470550e-004,-4.619479e-004
-8.952183e-005,-4.822060e-004
-5.305713e-005,-4.894990e-004
-4.398147e-005,-4.948471e-004
-6.018800e-005,-5.094330e-004
-8.595638e-005,-5.376324e-004
-9.000802e-005,-5.736109e-004
-4.673658e-005,-6.001896e-004
4.337174e-005,-6.001896e-004
1.482280e-004,-5.651835e-004
2.263435e-004,-4.937127e-004
2.561635e-004,-3.971218e-004
2.363916e-004,-2.872415e-004
1.796687e-004,-1.694200e-004
1.109530e-004,-4.138842e-005
6.006447e-005,1.059290e-004
4.774750e-005,2.772320e-004
8.405014e-005,4.717105e-004
1.660552e-004,6.822334e-004
2.715597e-004,8.974564e-004
3.639370e-004,1.107979e-003
4.031568e-004,1.303755e-003
3.642611e-004,1.465496e-003
2.532463e-004,1.565653e-003
9.717743e-005,1.585911e-003
-6.861539e-005,1.525461e-003
-2.165810e-004,1.398725e-003
-3.329439e-004,1.229367e-003
-4.049009e-004,1.049636e-003
-4.165696e-004,8.854635e-004
-3.694086e-004,7.490044e-004
-2.864312e-004,6.439860e-004
-1.961608e-004,5.658705e-004
-1.178833e-004,4.979651e-004
-5.629844e-005,4.188772e-004
-5.247859e-006,3.136967e-004
4.450620e-005,1.827479e-004
1.017153e-004,3.137890e-005
1.639484e-004,-1.285796e-004
2.138645e-004,-2.827037e-004
2.276400e-004,-4.212695e-004
1.952270e-004,-5.387668e-004
1.276457e-004,-6.335750e-004
5.860588e-005,-7.060182e-004
3.380988e-005,-7.591756e-004
7.886404e-005,-8.050401e-004
1.856651e-004,-8.543079e-004
3.146691e-004,-9.084377e-004
4.185530e-004,-9.632158e-004
4.550177e-004,-1.012160e-003
4.075326e-004,-1.051703e-003
2.974902e-004,-1.078768e-003
1.744826e-004,-1.089627e-003
8.453633e-005,-1.080875e-003
5.293359e-005,-1.047652e-003
7.043665e-005,-9.803947e-004
1.030118e-004,-8.729455e-004
1.116012e-004,-7.253040e-004
7.286763e-005,-5.387668e-004
-1.416145e-005,-3.079858e-004
-1.293899e-004,-2.907146e-005
-2.348944e-004,2.767458e-004
-2.901587e-004,5.498260e-004
-2.674695e-004,7.195085e-004
-1.715269e-004,7.425218e-004
-4.706071e-005,6.331276e-004
5.098881e-005,4.506420e-004
8.307774e-005,2.715597e-004
4.434413e-005,1.524417e-004
-4.268495e-005,1.072255e-004
-1.444620e-004,1.205148e-004
-2.232257e-004,1.564933e-004
-2.559629e-004,1.798307e-004
-2.407288e-004,1.647587e-004
-1.961608e-004,1.060910e-004
-1.522411e-004,1.776542e-005
-1.342519e-004,-7.655660e-005
-1.528894e-004,-1.556445e-004
-2.005366e-004,-2.084778e-004
-2.564491e-004,-2.374874e-004
-3.003688e-004,-2.541802e-004
-3.206269e-004,-2.690902e-004
-3.147926e-004,-2.927517e-004
-2.909690e-004,-3.290543e-004
-2.689281e-004,-3.781601e-004
-2.668213e-004,-4.298589e-004
-2.906449e-004,-4.755614e-004
-3.309991e-004,-5.110537e-004
-3.685983e-004,-5.345531e-004
-3.838324e-004,-5.471942e-004
-3.673017e-004,-5.507597e-004
-3.194925e-004,-5.439529e-004
-2.561249e-004,-5.305015e-004
-2.099363e-004,-5.129984e-004
-2.065330e-004,-4.904714e-004
-2.426735e-004,-4.548170e-004
-2.887001e-004,-4.078181e-004
-3.079858e-004,-3.630881e-004
-2.681178e-004,-3.369955e-004
-1.595340e-004,-3.347266e-004
-1.043395e-005,-3.536883e-004
1.268354e-004,-3.856151e-004
2.090025e-004,-4.219178e-004
2.239125e-004,-4.588687e-004
1.846927e-004,-4.935506e-004
1.185701e-004,-5.186707e-004
5.196120e-005,-5.317981e-004
2.623614e-007,-5.334187e-004
-3.279896e-005,-5.300153e-004
-4.446767e-005,-5.217500e-004
-3.441962e-005,-5.141329e-004
-9.461558e-006,-5.123502e-004
2.003433e-005,-5.113778e-004
4.531652e-005,-4.979264e-004
6.703327e-005,-4.538446e-004
9.442231e-005,-3.705430e-004
1.284560e-004,-2.470493e-004
1.545486e-004,-8.239095e-005
1.501728e-004,1.208390e-004
9.750156e-005,3.572923e-004
-6.058186e-006,6.276174e-004
-1.324691e-004,9.305178e-004
-2.198223e-004,1.244925e-003
-1.833576e-004,1.522867e-003
3.218923e-005,1.702760e-003
3.978086e-004,1.738091e-003
7.982723e-004,1.618162e-003
1.097445e-003,1.369391e-003
1.206515e-003,1.049474e-003
1.117055e-003,7.243705e-004
8.903255e-004,4.509661e-004
6.117350e-004,2.585945e-004
3.563199e-004,1.485521e-004
1.626518e-004,1.023635e-004
4.207521e-005,9.490851e-005
-1.772689e-005,1.060910e-004
-3.863332e-005,1.200286e-004
-3.895745e-005,1.214872e-004
-3.441962e-005,1.052807e-004
-3.134038e-005,7.400208e-005
-1.578211e-005,3.510641e-005
2.619281e-005,-2.978945e-006
9.231547e-005,-2.664048e-005
1.655690e-004,-2.404744e-005
2.180782e-004,3.665733e-006
2.269918e-004,4.353380e-005
1.864754e-004,8.275361e-005
1.064152e-004,1.221355e-004
1.225520e-005,1.683241e-004
-6.440170e-005,2.258573e-004
-9.956988e-005,2.914938e-004
-8.757704e-005,3.506476e-004
-3.733679e-005,3.898674e-004
2.570662e-005,4.042913e-004
6.687121e-005,3.955397e-004
6.687121e-005,3.709058e-004
3.316162e-005,3.399513e-004
-1.513384e-005,3.148312e-004
-5.937768e-005,3.064038e-004
-9.243900e-005,3.232586e-004
-1.115627e-004,3.712299e-004
-1.088076e-004,4.345975e-004
-7.801519e-005,4.817585e-004
-3.101625e-005,4.822447e-004
5.610517e-006,4.243874e-004
5.610517e-006,3.140208e-004
-4.187462e-005,1.702689e-004
-1.233935e-004,1.922400e-005
-2.091260e-004,-1.146419e-004
-2.711970e-004,-2.178775e-004
-2.932379e-004,-2.825416e-004
-2.750866e-004,-3.078238e-004
-2.340841e-004,-3.019894e-004
-1.948643e-004,-2.797865e-004
-1.763888e-004,-2.554767e-004
-1.848162e-004,-2.342462e-004
-2.126914e-004,-2.225774e-004
-2.426735e-004,-2.292221e-004
-2.577456e-004,-2.564491e-004
-2.397564e-004,-2.953447e-004
-1.893541e-004,-3.329439e-004
-1.293899e-004,-3.566054e-004
-9.373552e-005,-3.556330e-004
-1.076731e-004,-3.322956e-004
-1.789819e-004,-2.927517e-004
-2.843243e-004,-2.431597e-004
-3.752429e-004,-1.880575e-004
-4.076560e-004,-1.350622e-004
-3.724878e-004,-9.017008e-005
-2.971275e-004,-5.678463e-005
-2.151224e-004,-2.388537e-005
-1.489998e-004,2.586868e-005
-1.049180e-004,9.896015e-005
-6.910160e-005,1.795066e-004
-8.165035e-006,2.407673e-004
1.034980e-004,2.595669e-004
2.566497e-004,2.245608e-004
4.088291e-004,1.477418e-004
5.144958e-004,5.487838e-005
5.529052e-004,-2.890940e-005
5.336195e-004,-9.033215e-005
4.825689e-004,-1.256624e-004
4.229288e-004,-1.404103e-004
3.624784e-004,-1.442999e-004
3.026763e-004,-1.457585e-004
2.448189e-004,-1.480274e-004
1.906891e-004,-1.438137e-004
1.441764e-004,-1.259865e-004
1.065772e-004,-9.503204e-005
7.497447e-005,-5.273300e-005
4.061663e-005,-9.137427e-006
1.720949e-006,2.311357e-005
-3.053005e-005,4.677511e-005
-4.057810e-005,6.881599e-005
-2.372331e-005,9.442231e-005
1.160693e-005,1.221355e-004
4.645098e-005,1.393144e-004
6.395404e-005,1.263492e-004
5.730935e-005,6.703327e-005
2.197911e-005,-3.879538e-005
-3.814712e-005,-1.712027e-004
-1.102662e-004,-3.018274e-004
-1.747682e-004,-4.096008e-004
-2.259808e-004,-4.882024e-004
-2.760590e-004,-5.525423e-004
-3.410472e-004,-6.243373e-004
-4.280762e-004,-7.227109e-004
-5.288809e-004,-8.437737e-004
-6.201236e-004,-9.654847e-004
-6.714982e-004,-1.061265e-003
-6.512401e-004,-1.116854e-003
-5.449253e-004,-1.128522e-003
-3.535262e-004,-1.103240e-003
-9.211487e-005,-1.057214e-003
2.038164e-004,-1.008270e-003
4.671726e-004,-9.614331e-004
6.344241e-004,-9.111929e-004
6.734819e-004,-8.518770e-004
5.960147e-004,-7.901301e-004
4.519385e-004,-7.335693e-004
2.945730e-004,-6.740913e-004
1.647587e-004,-5.865761e-004
8.275361e-005,-4.463896e-004
4.353380e-005,-2.421874e-004
3.202716e-005,3.640293e-005
3.089271e-005,4.025085e-004
2.732727e-005,8.734707e-004
1.338965e-005,1.454962e-003
-1.610624e-005,2.124780e-003
-6.602235e-005,2.815020e-003
-1.334415e-004,3.416286e-003
-2.065330e-004,3.809299e-003
-2.702246e-004,3.904108e-003
-3.062031e-004,3.664087e-003
-3.049066e-004,3.133318e-003
-2.715212e-004,2.417147e-003
-2.269532e-004,1.648468e-003
-1.958367e-004,9.475346e-004
-1.904885e-004,3.944053e-004
-2.081536e-004,1.063454e-005
-2.311669e-004,-2.305186e-004
-2.451045e-004,-3.715154e-004
-2.470493e-004,-4.544929e-004
-2.491561e-004,-5.097571e-004
-2.627696e-004,-5.591870e-004
-2.757348e-004,-6.136410e-004
-2.582318e-004,-6.742534e-004
-1.827094e-004,-7.371347e-004
-4.446767e-005,-7.967748e-004
1.300767e-004,-8.491218e-004
2.984626e-004,-8.917450e-004
4.242253e-004,-9.152445e-004
4.856481e-004,-9.082757e-004
4.743035e-004,-8.641939e-004
3.992672e-004,-7.800820e-004
2.846870e-004,-6.465403e-004
1.696206e-004,-4.470379e-004
1.022015e-004,-1.645581e-004
1.077117e-004,1.872858e-004
1.756171e-004,5.462606e-004
2.655633e-004,8.297130e-004
3.333067e-004,9.698996e-004
3.496752e-004,9.426727e-004
3.122381e-004,7.832003e-004
2.427121e-004,5.592257e-004
1.754550e-004,3.375204e-004
1.328318e-004,1.592484e-004
1.109530e-004,3.688912e-005
8.956036e-005,-3.571614e-005
5.520250e-005,-7.558420e-005
9.500085e-006,-9.486997e-005
-3.279896e-005,-1.018388e-004
-5.467778e-005,-9.811128e-005
-3.814712e-005,-9.162867e-005
2.230325e-005,-8.903562e-005
1.104668e-004,-9.697683e-005
1.944166e-004,-1.237176e-004
2.605393e-004,-1.759026e-004
3.169380e-004,-2.546664e-004
3.679886e-004,-3.494746e-004
3.978086e-004,-4.425001e-004
3.824125e-004,-5.155915e-004
3.109416e-004,-5.632387e-004
1.908512e-004,-5.927345e-004
4.758544e-005,-6.107238e-004
-8.514606e-005,-6.209339e-004
-1.786577e-004,-6.267683e-004
-2.138259e-004,-6.293613e-004
-1.799543e-004,-6.296854e-004
-8.336335e-005,-6.246614e-004
4.256141e-005,-6.103997e-004
1.433661e-004,-5.873864e-004
1.736723e-004,-5.572423e-004
1.224596e-004,-5.183466e-004
1.387585e-005,-4.715097e-004
-1.055663e-004,-4.177041e-004
-1.908126e-004,-3.551469e-004
-2.261429e-004,-2.788141e-004
-2.245222e-004,-1.799543e-004
-2.032917e-004,-5.629844e-005
-1.598582e-004,8.178122e-005
-8.255302e-005,2.156472e-004
2.765140e-005,3.281205e-004
1.414213e-004,4.026706e-004
2.149989e-004,4.253598e-004
2.245608e-004,3.929467e-004
1.748067e-004,3.128864e-004
8.016057e-005,1.979821e-004
-4.349527e-005,6.346784e-005
-1.775233e-004,-6.845333e-005
-2.940482e-004,-1.809267e-004
-3.619536e-004,-2.663351e-004
-3.671397e-004,-3.269475e-004
-3.185201e-004,-3.695707e-004
-2.410529e-004,-4.029561e-004
-1.618029e-004,-4.275900e-004
-9.227693e-005,-4.459034e-004
-3.425755e-005,-4.536825e-004
8.689758e-006,-4.480103e-004
3.348575e-005,-4.329382e-004
3.996837e-005,-4.177041e-004
2.635488e-005,-4.068457e-004
-2.816880e-006,-4.005251e-004
-4.203669e-005,-3.967976e-004
-8.109443e-005,-3.937184e-004
-1.047560e-004,-3.899909e-004
-1.032974e-004,-3.873979e-004
-8.125649e-005,-3.854531e-004
-5.483985e-005,-3.830221e-004
-4.074016e-005,-3.784843e-004
-4.576419e-005,-3.656811e-004
-6.796714e-005,-3.386162e-004
-9.794922e-005,-3.006929e-004
-1.154523e-004,-2.580697e-004
-1.032974e-004,-2.141500e-004
-5.953974e-005,-1.695821e-004
-1.844488e-006,-1.224211e-004
4.207521e-005,-7.266703e-005
4.483033e-005,-2.080613e-005
-5.479652e-007,3.073064e-005
-7.655660e-005,7.935024e-005
-1.511067e-004,1.206769e-004
-2.029675e-004,1.527658e-004
-2.429977e-004,1.811273e-004
-3.018274e-004,2.114335e-004
-4.049009e-004,2.487085e-004
-5.446012e-004,2.913317e-004
-6.794395e-004,3.346032e-004
-7.539895e-004,3.717161e-004
-7.295177e-004,4.029947e-004
-6.068342e-004,4.352458e-004
-4.293727e-004,4.767345e-004
-2.499665e-004,5.289196e-004
-1.042698e-004,5.832114e-004
-2.330684e-006,6.274553e-004
6.119892e-005,6.524134e-004
1.000946e-004,6.540340e-004
1.368834e-004,6.342620e-004
1.867996e-004,6.060627e-004
2.521119e-004,5.807805e-004
3.216380e-004,5.707325e-004
3.859779e-004,5.820770e-004
4.454559e-004,6.162729e-004
5.039615e-004,6.652166e-004
5.623050e-004,7.144845e-004
6.028214e-004,7.457631e-004
5.918010e-004,7.431700e-004
5.117406e-004,6.971435e-004
3.759298e-004,6.106006e-004
2.328261e-004,5.076890e-004
1.425557e-004,4.148255e-004
1.402868e-004,3.454615e-004
2.047888e-004,2.966799e-004
2.801492e-004,2.569738e-004
3.104554e-004,2.214815e-004
2.728562e-004,1.908512e-004
1.884202e-004,1.647587e-004
1.039842e-004,1.399627e-004
6.281957e-005,1.122495e-004
8.210535e-005,8.421220e-005
1.441764e-004,6.087479e-005
2.145127e-004,4.175109e-005
2.608634e-004,1.906194e-005
2.600531e-004,-1.140634e-005
2.012234e-004,-5.095028e-005
8.729144e-005,-9.730096e-005
-6.440170e-005,-1.455964e-004
-2.256567e-004,-1.896782e-004
-3.533641e-004,-2.233878e-004
-4.131662e-004,-2.470493e-004
-4.036044e-004,-2.614731e-004
-3.549848e-004,-2.687660e-004
-3.024756e-004,-2.720074e-004
-2.596904e-004,-2.739521e-004
-2.201465e-004,-2.752487e-004
-1.596961e-004,-2.771934e-004
-6.569822e-005,-2.763831e-004
4.612685e-005,-2.752487e-004
1.362352e-004,-2.783279e-004
1.739964e-004,-2.817312e-004
1.615174e-004,-2.757348e-004
1.159770e-004,-2.596904e-004
4.888196e-005,-2.425115e-004
-4.009191e-005,-2.402425e-004
-1.441378e-004,-2.601766e-004
-2.329496e-004,-2.982619e-004
-2.546664e-004,-3.433161e-004
-1.754164e-004,-3.788084e-004
7.231170e-006,-3.851289e-004
2.647530e-004,-3.491504e-004
5.295678e-004,-2.677937e-004
7.300428e-004,-1.527273e-004
8.256614e-004,-2.874733e-005
8.209614e-004,8.469840e-005
7.365254e-004,1.748067e-004
5.867769e-004,2.323399e-004
3.960259e-004,2.553532e-004
2.085163e-004,2.564877e-004
7.351589e-005,2.457913e-004
2.116879e-005,2.279642e-004
4.920609e-005,1.960373e-004
1.320215e-004,1.451488e-004
2.355812e-004,8.323981e-005
3.287688e-004,2.214118e-005
3.859779e-004,-3.117831e-005
3.950536e-004,-8.514606e-005
3.579406e-004,-1.577513e-004
2.835526e-004,-2.570974e-004
1.872858e-004,-3.708672e-004
8.372601e-005,-4.846370e-004
-1.659243e-005,-5.894933e-004
-1.083214e-004,-6.859221e-004
-1.838438e-004,-7.752200e-004
-2.457528e-004,-8.562527e-004
-3.031239e-004,-9.249684e-004
-3.716775e-004,-9.841222e-004
-4.556273e-004,-1.042952e-003
-5.501114e-004,-1.112802e-003
-6.366542e-004,-1.189297e-003
-6.943495e-004,-1.254933e-003
-7.016424e-004,-1.273085e-003
-6.330888e-004,-1.205990e-003
-4.796130e-004,-1.021883e-003
-2.851347e-004,-7.090974e-004
-1.290658e-004,-2.893484e-004
-7.380149e-005,1.971717e-004
-1.211246e-004,7.042743e-004
-2.219292e-004,1.194523e-003
-3.152788e-004,1.643444e-003
-3.587123e-004,2.031430e-003
-3.467195e-004,2.335790e-003
-3.011791e-004,2.531890e-003
-2.522354e-004,2.599147e-003
-2.128535e-004,2.530755e-003
-1.870851e-004,2.353455e-003
-1.708786e-004,2.123483e-003
-1.520790e-004,1.909881e-003
-1.217728e-004,1.775528e-003
-7.736692e-005,1.764345e-003
-2.680255e-005,1.894484e-003
1.792748e-005,2.151197e-003
4.726130e-005,2.477112e-003
6.362991e-005,2.779203e-003
7.935024e-005,2.950831e-003
1.004187e-004,2.909180e-003
1.227837e-004,2.621999e-003
1.294284e-004,2.122997e-003
1.072255e-004,1.497423e-003
5.844381e-005,8.585607e-004
-8.489166e-006,3.047831e-004
-7.995997e-005,-1.067007e-004
-1.496481e-004,-3.791325e-004
-2.214430e-004,-5.552975e-004
-3.032860e-004,-6.844635e-004
-3.886944e-004,-8.039057e-004
-4.442827e-004,-9.267511e-004
-4.262935e-004,-1.047004e-003
-3.107410e-004,-1.155749e-003
-1.144799e-004,-1.248289e-003
1.104668e-004,-1.326242e-003
3.012177e-004,-1.388961e-003
4.042913e-004,-1.434988e-003
3.966742e-004,-1.463674e-003
2.877662e-004,-1.480042e-003
1.177597e-004,-1.490090e-003
-6.229485e-005,-1.498518e-003
-2.115570e-004,-1.506459e-003
-3.062031e-004,-1.519424e-003
-3.418575e-004,-1.534496e-003
-3.287302e-004,-1.545841e-003
-2.833519e-004,-1.547785e-003
-2.238740e-004,-1.539196e-003
-1.653684e-004,-1.521207e-003
-1.188556e-004,-1.493980e-003
-8.838737e-005,-1.462053e-003
-6.796714e-005,-1.431909e-003
-4.738484e-005,-1.408895e-003
-1.788895e-005,-1.390744e-003
1.889987e-005,-1.373079e-003
5.212327e-005,-1.351362e-003
7.059871e-005,-1.323001e-003
7.400208e-005,-1.286212e-003
6.654708e-005,-1.246020e-003
5.779555e-005,-1.204531e-003
5.811968e-005,-1.163204e-003
7.789165e-005,-1.119123e-003
1.221355e-004,-1.071800e-003
1.897167e-004,-1.019452e-003
2.720459e-004,-9.627296e-004
3.522683e-004,-9.111929e-004
4.114222e-004,-8.708386e-004
4.422146e-004,-8.356704e-004
4.501558e-004,-7.893197e-004
4.462662e-004,-7.231971e-004
4.396215e-004,-6.343853e-004
4.308700e-004,-5.201293e-004
4.119083e-004,-3.744326e-004
3.811159e-004,-1.917850e-004
3.412479e-004,2.570662e-005
2.906835e-004,2.618358e-004
2.289366e-004,4.931031e-004
1.618415e-004,6.924436e-004
9.766362e-005,8.420300e-004
4.158902e-005,9.392693e-004
-4.599598e-006,9.886993e-004
-4.236082e-005,9.985853e-004
-7.185670e-005,9.914545e-004
-9.114248e-005,9.935612e-004
-1.024871e-004,1.018843e-003
-1.117248e-004,1.059036e-003
-1.190177e-004,1.084804e-003
-1.138316e-004,1.064060e-003
-7.866345e-005,9.836752e-004
-2.330684e-006,8.577504e-004
9.863601e-005,7.146465e-004
1.905271e-004,5.799701e-004
2.380122e-004,4.756001e-004
2.232643e-004,4.114222e-004
1.524417e-004,3.822504e-004
5.017848e-005,3.699334e-004
-5.078821e-005,3.637749e-004
-1.319829e-004,3.558337e-004
-1.841680e-004,3.352514e-004
-2.079916e-004,2.947351e-004
-2.010227e-004,2.365536e-004
-1.658546e-004,1.757791e-004
-1.047560e-004,1.252147e-004
-1.286493e-005,8.469840e-005
1.096565e-004,4.790957e-005
2.453052e-004,6.096713e-006
3.670162e-004,-4.106429e-005
4.456179e-004,-8.790117e-005
4.621486e-004,-1.274451e-004
4.123946e-004,-1.538618e-004
3.114278e-004,-1.613168e-004
1.893926e-004,-1.447861e-004
7.886404e-005,-1.052422e-004
-8.720959e-007,-4.884343e-005
-4.090223e-005,1.144487e-005
-4.155049e-005,5.293359e-005
-1.399939e-005,5.309566e-005
1.468618e-005,2.693341e-006
1.906194e-005,-8.676672e-005
-1.092015e-005,-1.938919e-004
-6.245691e-005,-2.929138e-004
-1.183694e-004,-3.614674e-004
-1.627754e-004,-3.854531e-004
-1.841680e-004,-3.660052e-004
-1.818991e-004,-3.128478e-004
-1.627754e-004,-2.313290e-004
-1.340898e-004,-1.196660e-004
-9.892161e-005,2.829966e-005
-5.905355e-005,2.128921e-004
-1.610624e-005,4.313562e-004
2.100672e-005,6.835299e-004
4.450620e-005,9.671446e-004
5.017848e-005,1.254973e-003
4.596478e-005,1.501799e-003
4.353380e-005,1.656896e-003
4.304761e-005,1.687850e-003
3.056858e-005,1.594663e-003
-6.058186e-006,1.402291e-003
-6.958779e-005,1.149144e-003
-1.535376e-004,8.686088e-004
-2.468872e-004,5.924492e-004
-3.410472e-004,3.431926e-004
-4.173799e-004,1.407730e-004
-4.520619e-004,-6.382317e-006
-4.201350e-004,-1.034594e-004
-3.194925e-004,-1.572651e-004
-1.885437e-004,-1.746061e-004
-9.843541e-005,-1.629374e-004
-1.036215e-004,-1.295519e-004
-1.963229e-004,-8.547019e-005
-3.284061e-004,-4.479180e-005
-4.520619e-004,-1.788895e-005
-5.356876e-004,-9.461558e-006
-5.531906e-004,-1.594417e-005
-4.773441e-004,-2.955766e-005
-3.092824e-004,-3.992984e-005
-9.308726e-005,-3.685060e-005
1.034980e-004,-2.291298e-005
2.265056e-004,-1.075808e-005
2.602152e-004,-1.480971e-005
2.299089e-004,-3.830919e-005
1.822617e-004,-7.347736e-005
1.540623e-004,-1.044318e-004
1.543865e-004,-1.172350e-004
1.728619e-004,-1.097800e-004
2.015475e-004,-8.854943e-005
2.342847e-004,-5.500191e-005
2.621599e-004,-9.299493e-006
2.754493e-004,3.656499e-005
2.658874e-004,6.200925e-005
2.300710e-004,5.098881e-005
1.765894e-004,-1.034161e-006
1.179218e-004,-8.384954e-005
6.508849e-005,-1.804405e-004
2.327564e-005,-2.679557e-004
-8.975362e-006,-3.279199e-004
-3.069211e-005,-3.544986e-004
-4.284701e-005,-3.575778e-004
-5.159854e-005,-3.473677e-004
-6.213279e-005,-3.269475e-004
-7.558420e-005,-2.969654e-004
-9.292520e-005,-2.611490e-004
-1.178833e-004,-2.254946e-004
-1.446240e-004,-1.914609e-004
-1.673132e-004,-1.559686e-004
-1.773612e-004,-1.182074e-004
-1.713648e-004,-8.060823e-005
-1.538618e-004,-4.155049e-005
-1.298761e-004,-3.858999e-007
-1.036215e-004,4.207521e-005
-7.671866e-005,8.210535e-005
-5.467778e-005,1.154908e-004
-3.992984e-005,1.326697e-004
-3.263690e-005,1.245665e-004
-2.712668e-005,9.053275e-005
-1.934754e-005,3.559260e-005
-1.124428e-005,-3.604027e-005
-5.896120e-006,-1.222590e-004
-6.176923e-008,-2.147983e-004
2.052053e-005,-3.026377e-004
6.735741e-005,-3.767015e-004
1.456350e-004,-4.319658e-004
2.482223e-004,-4.724821e-004
3.636129e-004,-5.087847e-004
4.668485e-004,-5.507597e-004
5.253541e-004,-6.053757e-004
5.144958e-004,-6.711741e-004
4.279528e-004,-7.408622e-004
2.848491e-004,-8.003402e-004
1.187321e-004,-8.361567e-004
-3.198864e-005,-8.393980e-004
-1.334415e-004,-8.047160e-004
-1.755785e-004,-7.257902e-004
-1.723372e-004,-6.050515e-004
-1.496481e-004,-4.465517e-004
-1.250141e-004,-2.491561e-004
-9.373552e-005,-2.978945e-006
-4.430560e-005,3.051073e-004
2.684107e-005,6.752646e-004
1.088461e-004,1.074432e-003
1.782101e-004,1.432273e-003
2.171058e-004,1.661920e-003
2.243987e-004,1.696764e-003
2.117576e-004,1.526433e-003
1.981441e-004,1.207488e-003
1.976579e-004,8.348991e-004
2.169437e-004,4.990995e-004
2.477361e-004,2.577842e-004
2.751252e-004,1.210010e-004
2.911697e-004,6.427817e-005
2.944109e-004,5.050261e-005
2.811216e-004,4.726130e-005
2.409294e-004,3.494434e-005
1.571416e-004,7.393236e-006
2.441009e-005,-3.069211e-005
-1.449482e-004,-6.748094e-005
-3.227338e-004,-9.568031e-005
-4.838267e-004,-1.138316e-004
-6.018102e-004,-1.271210e-004
-6.515643e-004,-1.412206e-004
-6.079687e-004,-1.632615e-004
-4.655133e-004,-1.955125e-004
-2.462390e-004,-2.355427e-004
1.468618e-005,-2.749245e-004
2.843629e-004,-3.057169e-004
5.381573e-004,-3.211132e-004
7.504630e-004,-3.227338e-004
8.836808e-004,-3.139823e-004
8.984288e-004,-2.993964e-004
7.849830e-004,-2.818933e-004
5.811046e-004,-2.643903e-004
3.514580e-004,-2.446183e-004
1.492004e-004,-2.196603e-004
-7.840905e-006,-1.848162e-004
-1.269589e-004,-1.358725e-004
-2.164190e-004,-6.521203e-005
-2.828657e-004,3.186510e-005
-3.356990e-004,1.530900e-004
-3.825359e-004,2.911697e-004
-4.277521e-004,4.290873e-004
-4.799371e-004,5.391297e-004
-5.504355e-004,5.974732e-004
-6.363301e-004,5.898562e-004
-7.181731e-004,5.141716e-004
-7.651721e-004,3.837090e-004
-7.419967e-004,2.243987e-004
-6.189891e-004,6.281957e-005
-3.890185e-004,-7.850138e-005
-8.838737e-005,-1.901644e-004
2.117576e-004,-2.733039e-004
4.376768e-004,-3.371576e-004
5.579292e-004,-3.937184e-004
5.796460e-004,-4.504412e-004
5.350781e-004,-5.053814e-004
4.564763e-004,-5.517320e-004
3.644232e-004,-5.799314e-004
2.670219e-004,-5.838210e-004
1.684862e-004,-5.614560e-004
7.643307e-005,-5.129984e-004
1.396819e-006,-4.421759e-004
-4.803310e-005,-3.569296e-004
-7.526008e-005,-2.613110e-004
-9.892161e-005,-1.496481e-004
-1.396000e-004,-1.432352e-005
-1.950263e-004,1.420695e-004
-2.493182e-004,2.981384e-004
-2.817312e-004,4.256839e-004
-2.840002e-004,5.036374e-004
-2.653627e-004,5.208163e-004
-2.496423e-004,4.767345e-004
-2.587180e-004,3.841952e-004
-2.987481e-004,2.679943e-004
-3.561192e-004,1.530900e-004
-4.071698e-004,5.617490e-005
-4.232143e-004,-1.675450e-005
-3.857772e-004,-6.569822e-005
-2.958309e-004,-9.179074e-005
-1.749302e-004,-1.068628e-004
-5.159854e-005,-1.331174e-004
5.228533e-005,-1.972953e-004
1.200286e-004,-3.016653e-004
1.485521e-004,-4.258073e-004
1.482280e-004,-5.463839e-004
1.354248e-004,-6.538332e-004
1.219734e-004,-7.492896e-004
1.247285e-004,-8.290258e-004
1.519555e-004,-8.820211e-004
1.934442e-004,-8.940139e-004
2.208333e-004,-8.693800e-004
2.041406e-004,-8.334015e-004
1.393144e-004,-8.124951e-004
4.774750e-005,-8.165467e-004
-4.689865e-005,-8.440978e-004
-1.289037e-004,-8.779695e-004
-1.890299e-004,-8.875313e-004
-2.104225e-004,-8.455564e-004
-1.770371e-004,-7.397278e-004
-7.947377e-005,-5.783107e-004
6.962632e-005,-3.737844e-004
2.253711e-004,-1.245279e-004
3.341170e-004,1.979821e-004
3.644232e-004,6.209727e-004
3.269861e-004,1.134882e-003
2.666978e-004,1.674885e-003
2.367157e-004,2.134990e-003
2.584324e-004,2.407261e-003
3.101313e-004,2.434488e-003
3.446512e-004,2.236606e-003
3.282826e-004,1.907125e-003
2.600531e-004,1.561439e-003
1.726999e-004,1.300513e-003
1.072255e-004,1.183178e-003
9.426025e-005,1.220939e-003
1.385041e-004,1.381060e-003
2.124059e-004,1.589639e-003
2.783665e-004,1.757863e-003
3.004074e-004,1.815234e-003
2.665357e-004,1.724639e-003
1.825859e-004,1.495316e-003
6.589881e-005,1.172320e-003
-6.342931e-005,8.165857e-004
-1.882196e-004,4.775448e-004
-2.946965e-004,1.903650e-004
-3.752429e-004,-2.842320e-005
-4.290486e-004,-1.830335e-004
-4.551412e-004,-2.870794e-004
-4.569239e-004,-3.564434e-004
-4.499550e-004,-4.063595e-004
-4.457413e-004,-4.394208e-004
-4.400691e-004,-4.601652e-004
-4.164075e-004,-4.702132e-004
-3.627639e-004,-4.658375e-004
-2.809209e-004,-4.437966e-004
-1.862748e-004,-4.143007e-004
-1.010285e-004,-4.003631e-004
-3.928157e-005,-4.269418e-004
-1.140634e-005,-5.100812e-004
-1.983374e-005,-6.421645e-004
-5.613637e-005,-7.946679e-004
-1.042698e-004,-9.447403e-004
-1.480274e-004,-1.080875e-003
-1.655305e-004,-1.202424e-003
-1.420310e-004,-1.310522e-003
-8.125649e-005,-1.408733e-003
-1.196227e-006,-1.496735e-003
7.627100e-005,-1.575985e-003
1.347766e-004,-1.640325e-003
1.634622e-004,-1.681489e-003
1.594105e-004,-1.687486e-003
1.273216e-004,-1.652966e-003
7.837785e-005,-1.577930e-003
1.776542e-005,-1.462863e-003
-5.402952e-005,-1.309387e-003
-1.465688e-004,-1.115719e-003
-2.609869e-004,-8.807246e-004
-3.770257e-004,-6.014861e-004
-4.528722e-004,-2.694143e-004
-4.399070e-004,1.184080e-004
-3.081479e-004,5.464226e-004
-6.569822e-005,9.671446e-004
2.376881e-004,1.308617e-003
5.172509e-004,1.507633e-003
6.939021e-004,1.537777e-003
7.373357e-004,1.424007e-003
6.793162e-004,1.234553e-003
5.861287e-004,1.046719e-003
5.112545e-004,9.180387e-004
4.694416e-004,8.624502e-004
4.355699e-004,8.546711e-004
3.777126e-004,8.540229e-004
2.897111e-004,8.230684e-004
1.879340e-004,7.449528e-004
9.053275e-005,6.227554e-004
1.176900e-005,4.738173e-004
-3.555408e-005,3.232586e-004
-3.944364e-005,1.937684e-004
2.045080e-006,9.750156e-005
7.270556e-005,3.996837e-005
1.462832e-004,1.371378e-005
2.039785e-004,7.485573e-007
2.344468e-004,-1.902341e-005
2.372019e-004,-5.678463e-005
2.185644e-004,-1.105903e-004
1.808031e-004,-1.686097e-004
1.237561e-004,-2.199844e-004
5.536457e-005,-2.590421e-004
-5.247859e-006,-2.906449e-004
-4.349527e-005,-3.228959e-004
-5.759496e-005,-3.562813e-004
-6.456377e-005,-3.859393e-004
-8.611845e-005,-4.107352e-004
-1.386276e-004,-4.301831e-004
-2.212809e-004,-4.439586e-004
-3.186821e-004,-4.544929e-004
-4.100870e-004,-4.647030e-004
-4.755614e-004,-4.734545e-004
-4.963057e-004,-4.836646e-004
-4.716718e-004,-4.932265e-004
-4.254832e-004,-4.958195e-004
-3.898288e-004,-4.869059e-004
-3.878840e-004,-4.679443e-004
-4.193247e-004,-4.416897e-004
-4.655133e-004,-4.100870e-004
-5.052193e-004,-3.752429e-004
-5.254775e-004,-3.366714e-004
-5.191569e-004,-2.888622e-004
-4.836646e-004,-2.238740e-004
-4.308313e-004,-1.358725e-004
-3.809152e-004,-2.339918e-005
-3.442885e-004,1.034980e-004
-3.151167e-004,2.235884e-004
-2.822175e-004,3.156415e-004
-2.421874e-004,3.576164e-004
-1.998883e-004,3.393030e-004
-1.697442e-004,2.660495e-004
-1.580754e-004,1.584381e-004
-1.522411e-004,3.883391e-005
-1.199901e-004,-7.444975e-005
-3.182657e-005,-1.692580e-004
1.219734e-004,-2.446183e-004
3.334687e-004,-3.062031e-004
5.678153e-004,-3.596847e-004
7.666696e-004,-4.102490e-004
8.759017e-004,-4.577342e-004
8.731466e-004,-4.987367e-004
7.780141e-004,-5.301774e-004
6.373413e-004,-5.446012e-004
5.042856e-004,-5.321222e-004
4.185530e-004,-4.870680e-004
3.974845e-004,-4.074939e-004
4.324906e-004,-2.937241e-004
4.963444e-004,-1.436516e-004
5.527431e-004,4.515445e-005
5.778633e-004,2.688046e-004
5.679773e-004,5.146578e-004
5.308643e-004,7.635903e-004
4.743035e-004,9.955061e-004
4.070464e-004,1.190309e-003
3.378445e-004,1.327578e-003
2.736666e-004,1.396456e-003
2.200230e-004,1.394998e-003
1.850168e-004,1.329523e-003
1.675138e-004,1.216887e-003
1.602208e-004,1.078970e-003
1.561692e-004,9.318143e-004
1.496866e-004,7.882243e-004
1.372076e-004,6.561409e-004
1.098185e-004,5.425331e-004
5.568870e-005,4.501558e-004
-2.809907e-005,3.739850e-004
-1.319829e-004,3.008936e-004
-2.407288e-004,2.214815e-004
-3.373197e-004,1.357490e-004
-4.008493e-004,5.228533e-005
-4.160834e-004,-2.145439e-005
-3.809152e-004,-8.255302e-005
-3.091203e-004,-1.342519e-004
-2.254946e-004,-1.760647e-004
-1.562927e-004,-2.060468e-004
-1.138316e-004,-2.220912e-004
-9.098041e-005,-2.227395e-004
-7.120844e-005,-2.019951e-004
-4.268495e-005,-1.548341e-004
7.069105e-006,-8.401160e-005
8.631905e-005,3.665733e-006
1.902029e-004,9.377406e-005
2.884145e-004,1.673517e-004
3.320101e-004,2.065715e-004
2.778803e-004,1.989545e-004
1.279698e-004,1.516314e-004
-7.428769e-005,8.259155e-005
-2.703867e-004,1.598270e-005
-4.177041e-004,-3.053005e-005
-4.987367e-004,-5.224680e-005
-5.176983e-004,-5.354332e-005
-5.013297e-004,-4.511593e-005
-4.786406e-004,-3.749886e-005
-4.753993e-004,-4.268495e-005
-4.932265e-004,-7.007399e-005
-5.117019e-004,-1.182074e-004
-5.019780e-004,-1.741199e-004
-4.481723e-004,-2.232257e-004
-3.624398e-004,-2.545043e-004
-2.746004e-004,-2.640662e-004
-2.091260e-004,-2.577456e-004
-1.767130e-004,-2.439701e-004
-1.708786e-004,-2.300324e-004
-1.708786e-004,-2.194982e-004
-1.603444e-004,-2.149604e-004
-1.379794e-004,-2.209568e-004
-1.102662e-004,-2.334358e-004
-8.595638e-005,-2.394322e-004
-7.315322e-005,-2.292221e-004
-7.963584e-005,-1.974573e-004
-1.002181e-004,-1.451102e-004
-1.201522e-004,-7.347736e-005
-1.255003e-004,8.527692e-006
-1.170729e-004,8.777764e-005
-9.665270e-005,1.504969e-004
-6.407757e-005,1.843686e-004
-2.161646e-005,1.798307e-004
2.230325e-005,1.354248e-004
5.682316e-005,6.152305e-005
7.870197e-005,-3.053005e-005
8.826383e-005,-1.259865e-004
9.182927e-005,-2.100984e-004
8.712937e-005,-2.720074e-004
6.314371e-005,-3.079858e-004
9.662150e-006,-3.272716e-004
-6.910160e-005,-3.478539e-004
-1.451102e-004,-3.844807e-004
-1.840059e-004,-4.356933e-004
-1.582375e-004,-4.899852e-004
-5.759496e-005,-5.329325e-004
1.088461e-004,-5.567560e-004
3.138588e-004,-5.629146e-004
5.154681e-004,-5.559457e-004
6.765611e-004,-5.499493e-004
7.762314e-004,-5.596732e-004
8.159374e-004,-5.891691e-004
8.065377e-004,-6.301716e-004
7.556491e-004,-6.697156e-004
6.684579e-004,-6.932151e-004
5.503122e-004,-6.940254e-004
4.136911e-004,-6.685811e-004
2.804733e-004,-6.079687e-004
1.663793e-004,-5.008436e-004
7.465034e-005,-3.423437e-004
-2.168618e-006,-1.360346e-004
-7.785312e-005,1.156529e-004
-1.595340e-004,4.145014e-004
-2.412149e-004,7.616456e-004
-3.011791e-004,1.137638e-003
-3.160891e-004,1.485754e-003
-2.726556e-004,1.736794e-003
-1.775233e-004,1.840516e-003
-5.597430e-005,1.788980e-003
5.520250e-005,1.616866e-003
1.295905e-004,1.380736e-003
1.514693e-004,1.136665e-003
1.226217e-004,9.198214e-004
5.487838e-005,7.415494e-004
-3.134038e-005,5.947181e-004
-1.008664e-004,4.666864e-004
-1.164247e-004,3.431926e-004
-6.893953e-005,2.127300e-004
1.193106e-005,7.400208e-005
8.777764e-005,-6.618442e-005
1.342904e-004,-1.953505e-004
1.453108e-004,-2.977757e-004
1.313732e-004,-3.634122e-004
1.127357e-004,-3.982562e-004
1.090082e-004,-4.131662e-004
1.329939e-004,-4.162455e-004
1.871237e-004,-4.063595e-004
2.555152e-004,-3.716775e-004
3.158036e-004,-2.959930e-004
3.491891e-004,-1.737958e-004
3.384927e-004,-1.027188e-005
2.858215e-004,1.757791e-004
2.015475e-004,3.532407e-004
1.033359e-004,4.848378e-004
1.112074e-005,5.418848e-004
-5.824322e-005,5.131993e-004
-9.973194e-005,4.091532e-004
-1.208004e-004,2.572980e-004
-1.363587e-004,9.215340e-005
-1.575893e-004,-6.359137e-005
-1.878955e-004,-1.956746e-004
-2.256567e-004,-2.971275e-004
-2.686040e-004,-3.621157e-004
-3.167374e-004,-3.998769e-004
-3.660052e-004,-4.274280e-004
-4.061974e-004,-4.614617e-004
-4.254832e-004,-5.057055e-004
-4.160834e-004,-5.514079e-004
-3.784843e-004,-5.911139e-004
-3.277578e-004,-6.249856e-004
-2.930758e-004,-6.552918e-004
-3.045825e-004,-6.810602e-004
-3.684362e-004,-7.037492e-004
-4.580583e-004,-7.275729e-004
-5.262878e-004,-7.619307e-004
-5.303394e-004,-8.115227e-004
-4.544929e-004,-8.710006e-004
-3.212752e-004,-9.350164e-004
-1.728234e-004,-1.007298e-003
-5.419158e-005,-1.083144e-003
3.017472e-006,-1.138895e-003
-1.043395e-005,-1.150887e-003
-7.979791e-005,-1.108264e-003
-1.702304e-004,-1.016535e-003
-2.451045e-004,-8.902864e-004
-2.770314e-004,-7.403760e-004
-2.499665e-004,-5.729626e-004
-1.567789e-004,-3.796187e-004
-6.176923e-008,-1.488377e-004
1.960373e-004,1.125736e-004
3.833848e-004,3.613439e-004
5.054200e-004,5.302161e-004
5.269747e-004,5.742979e-004
4.568005e-004,5.020167e-004
3.461098e-004,3.790091e-004
2.498430e-004,2.874421e-004
2.008992e-004,2.887387e-004
2.052750e-004,4.075326e-004
2.495189e-004,6.365310e-004
3.171001e-004,9.574206e-004
3.968363e-004,1.358695e-003
4.900239e-004,1.819610e-003
5.919630e-004,2.287170e-003
6.786680e-004,2.682611e-003
7.101087e-004,2.917122e-003
6.624615e-004,2.928952e-003
5.418848e-004,2.715187e-003
3.751195e-004,2.330118e-003
1.999268e-004,1.864016e-003
4.483033e-005,1.407315e-003
-7.688073e-005,1.013657e-003
-1.658546e-004,6.955228e-004
-2.227395e-004,4.389733e-004
-2.515871e-004,2.284504e-004
-2.533699e-004,5.601284e-005
-2.321393e-004,-8.206682e-005
-1.984297e-004,-1.867610e-004
-1.582375e-004,-2.613110e-004
-1.094559e-004,-3.105789e-004
-5.613637e-005,-3.412093e-004
-1.448558e-005,-3.595226e-004
-1.682422e-006,-3.783222e-004
-2.793700e-005,-4.060354e-004
-8.935975e-005,-4.392588e-004
-1.728234e-004,-4.757234e-004
-2.703867e-004,-5.151053e-004
-3.804291e-004,-5.582146e-004
-5.026262e-004,-6.050515e-004
-6.266062e-004,-6.520505e-004
-7.264384e-004,-6.964564e-004
-7.688995e-004,-7.407002e-004
-7.372968e-004,-7.804062e-004
-6.363301e-004,-8.099020e-004
-4.869059e-004,-8.262706e-004
-3.123616e-004,-8.295119e-004
-1.392759e-004,-8.233535e-004
9.013889e-006,-8.073090e-004
1.140322e-004,-7.873750e-004
1.704310e-004,-7.698719e-004
1.764274e-004,-7.554481e-004
1.406109e-004,-7.413484e-004
7.837785e-005,-7.313004e-004
1.484824e-005,-7.335693e-004
-3.166451e-005,-7.484793e-004
-5.143648e-005,-7.677651e-004
-4.511593e-005,-7.807303e-004
-2.113026e-005,-7.795958e-004
3.503668e-006,-7.551240e-004
9.500085e-006,-7.043975e-004
-1.464765e-005,-6.291993e-004
-5.775702e-005,-5.347152e-004
-8.806324e-005,-4.254832e-004
-8.125649e-005,-3.006929e-004
-3.393342e-005,-1.540238e-004
4.531652e-005,1.776542e-005
1.435281e-004,1.965235e-004
2.446569e-004,3.553475e-004
3.263378e-004,4.712243e-004
3.692851e-004,5.294057e-004
3.683128e-004,5.240576e-004
3.326584e-004,4.563143e-004
2.848491e-004,3.418961e-004
2.451431e-004,2.031682e-004
2.218057e-004,7.108491e-005
2.135403e-004,-3.036798e-005
2.119197e-004,-9.292520e-005
2.034923e-004,-1.196660e-004
1.853410e-004,-1.196660e-004
1.621656e-004,-1.032974e-004
1.398006e-004,-8.255302e-005
1.216493e-004,-5.597430e-005
1.169494e-004,-1.594417e-005
1.308870e-004,4.385793e-005
1.629760e-004,1.177597e-004
2.039785e-004,1.913374e-004
2.513016e-004,2.485465e-004
3.013798e-004,2.869559e-004
3.475684e-004,3.151553e-004
3.819262e-004,3.462718e-004
3.948915e-004,3.830607e-004
3.733368e-004,4.099636e-004
3.158036e-004,4.078567e-004
2.354192e-004,3.717161e-004
1.529279e-004,3.042970e-004
8.388807e-005,2.115956e-004
3.235129e-005,1.041462e-004
-2.978945e-006,-3.951337e-006
-2.615429e-005,-1.008664e-004
-4.462973e-005,-1.827094e-004
-6.974985e-005,-2.512630e-004
-1.073490e-004,-3.037722e-004
-1.551583e-004,-3.358611e-004
-2.037779e-004,-3.418575e-004
-2.451045e-004,-3.212752e-004
-2.708729e-004,-2.804347e-004
-2.721694e-004,-2.263049e-004
-2.431597e-004,-1.632615e-004
-1.917850e-004,-9.600444e-005
-1.383035e-004,-2.437157e-005
-9.762509e-005,4.693717e-005
-7.526008e-005,1.171115e-004
-6.877746e-005,1.884202e-004
-7.704279e-005,2.663737e-004
-9.681477e-005,3.650715e-004
-1.229073e-004,5.049339e-004
-1.494860e-004,7.031399e-004
-1.784957e-004,9.527208e-004
-2.131776e-004,1.217212e-003
-2.517492e-004,1.427087e-003
-2.840002e-004,1.518654e-003
-2.935620e-004,1.460634e-003
-2.655248e-004,1.272314e-003
-1.997262e-004,1.010254e-003
-1.120489e-004,7.384702e-004
-2.664048e-005,5.008822e-004
4.385793e-005,3.156415e-004
1.070634e-004,1.825859e-004
1.791825e-004,9.069481e-005
2.602152e-004,2.035846e-005
3.316860e-004,-4.479180e-005
3.704196e-004,-1.131834e-004
3.579406e-004,-1.856265e-004
2.893870e-004,-2.572594e-004
1.772377e-004,-3.175477e-004
4.466826e-005,-3.585502e-004
-8.692878e-005,-3.771877e-004
-1.997262e-004,-3.786463e-004
-2.793003e-004,-3.776739e-004
-3.131719e-004,-3.961493e-004
-2.916173e-004,-4.457413e-004
-2.209568e-004,-5.230465e-004
-1.305243e-004,-6.129927e-004
-6.180866e-005,-6.964564e-004
-4.560212e-005,-7.656582e-004
-8.595638e-005,-8.194639e-004
-1.569410e-004,-8.594940e-004
-2.248464e-004,-8.878555e-004
-2.621213e-004,-9.094102e-004
-2.548284e-004,-9.356647e-004
-2.084778e-004,-9.674295e-004
-1.391138e-004,-9.948185e-004
-6.553616e-005,-1.010539e-003
-5.085794e-006,-1.012646e-003
3.688912e-005,-9.983840e-004
6.152305e-005,-9.601366e-004
7.659513e-005,-8.917450e-004
9.134307e-005,-7.935334e-004
1.111150e-004,-6.702017e-004
1.389903e-004,-5.253154e-004
1.726999e-004,-3.572537e-004
2.043026e-004,-1.655305e-004
2.218057e-004,4.920609e-005
2.232643e-004,2.782044e-004
2.174299e-004,5.162785e-004
2.137024e-004,7.509492e-004
2.127300e-004,9.601758e-004
2.055991e-004,1.125645e-003
1.825859e-004,1.241684e-003
1.440143e-004,1.315748e-003
1.010670e-004,1.358209e-003
6.849186e-005,1.384625e-003
6.071273e-005,1.414283e-003
8.745350e-005,1.459824e-003
1.517934e-004,1.516223e-003
2.388225e-004,1.563546e-003
3.222862e-004,1.575215e-003
3.644232e-004,1.529188e-003
3.407616e-004,1.416876e-003
2.500050e-004,1.244439e-003
1.143563e-004,1.029216e-003
-3.279896e-005,7.976240e-004
-1.546721e-004,5.777013e-004
-2.316531e-004,3.879227e-004
-2.639041e-004,2.299089e-004
-2.562870e-004,9.393612e-005
-2.097743e-004,-2.437157e-005
-1.271210e-004,-1.251762e-004
-2.874733e-005,-2.036158e-004
4.920609e-005,-2.579077e-004
7.546067e-005,-2.875656e-004
4.126489e-005,-3.015032e-004
-3.166451e-005,-3.204649e-004
-1.081593e-004,-3.630881e-004
-1.595340e-004,-4.352071e-004
-1.828714e-004,-5.340669e-004
-1.849783e-004,-6.483230e-004
-1.708786e-004,-7.573929e-004
-1.399241e-004,-8.439358e-004
-9.162867e-005,-9.035757e-004
-2.842320e-005,-9.395542e-004
3.024445e-005,-9.648365e-004
6.119892e-005,-9.899565e-004
4.953022e-005,-1.023666e-003
-3.303076e-006,-1.064507e-003
-7.947377e-005,-1.109075e-003
-1.509446e-004,-1.149591e-003
-1.953505e-004,-1.180545e-003
-2.005366e-004,-1.203721e-003
-1.718510e-004,-1.216200e-003
-1.267968e-004,-1.203721e-003
-9.065628e-005,-1.156560e-003
-8.563225e-005,-1.069207e-003
-1.167488e-004,-9.405267e-004
-1.723372e-004,-7.753822e-004
-2.340841e-004,-5.775004e-004
-2.810830e-004,-3.502849e-004
-2.888622e-004,-9.162867e-005
-2.378116e-004,2.064095e-004
-1.370070e-004,5.391297e-004
-2.064406e-005,8.677984e-004
7.189524e-005,1.127265e-003
1.286181e-004,1.259997e-003
1.526038e-004,1.249301e-003
1.537382e-004,1.122890e-003
1.406109e-004,9.386210e-004
1.271595e-004,7.491665e-004
1.248906e-004,5.841838e-004
1.360731e-004,4.474007e-004
1.504969e-004,3.323342e-004
1.513072e-004,2.239125e-004
1.310491e-004,1.127357e-004
9.312580e-005,-7.030578e-006
4.499239e-005,-1.350622e-004
-8.327101e-006,-2.608248e-004
-6.618442e-005,-3.673017e-004
-1.316588e-004,-4.433104e-004
-2.005366e-004,-4.860956e-004
-2.601766e-004,-5.018159e-004
-2.961551e-004,-5.095950e-004
-3.045825e-004,-5.317981e-004
-2.872415e-004,-5.878726e-004
-2.451045e-004,-6.833291e-004
-1.778474e-004,-8.134675e-004
-8.141856e-005,-9.703467e-004
4.790957e-005,-1.136464e-003
1.974959e-004,-1.279567e-003
3.386548e-004,-1.358169e-003
4.368664e-004,-1.343583e-003
4.730070e-004,-1.233217e-003
4.519385e-004,-1.046031e-003
3.976466e-004,-7.995299e-004
3.371962e-004,-4.938748e-004
2.908455e-004,-1.141558e-004
2.649151e-004,3.593992e-004
2.568118e-004,9.217662e-004
2.587566e-004,1.530971e-003
2.628082e-004,2.102739e-003
2.644289e-004,2.535942e-003
2.637806e-004,2.745331e-003
2.631324e-004,2.698980e-003
2.619979e-004,2.437405e-003
2.508154e-004,2.062223e-003
2.153231e-004,1.700329e-003
1.466074e-004,1.463876e-003
4.661304e-005,1.417525e-003
-6.618442e-005,1.568732e-003
-1.585616e-004,1.864664e-003
-2.024813e-004,2.199654e-003
-1.992400e-004,2.460419e-003
-1.757406e-004,2.563979e-003
-1.494860e-004,2.480839e-003
-1.126972e-004,2.235957e-003
-4.835724e-005,1.892215e-003
4.483033e-005,1.522057e-003
1.492004e-004,1.189174e-003
2.384984e-004,9.384590e-004
2.924662e-004,7.776900e-004
3.010556e-004,6.762370e-004
2.561635e-004,5.893700e-004
1.620036e-004,4.806241e-004
4.337174e-005,3.331446e-004
-7.169464e-005,1.526038e-004
-1.734716e-004,-4.203669e-005
-2.634179e-004,-2.293842e-004
-3.423437e-004,-3.951770e-004
-4.061974e-004,-5.426564e-004
-4.502792e-004,-6.911082e-004
-4.687546e-004,-8.549562e-004
-4.527101e-004,-1.030797e-003
-3.987424e-004,-1.199183e-003
-3.094444e-004,-1.341800e-003
-1.966470e-004,-1.441957e-003
-8.530812e-005,-1.494304e-003
-7.030578e-006,-1.507269e-003
2.084466e-005,-1.498031e-003
5.934648e-006,-1.484418e-003
-3.296103e-005,-1.482311e-003
-7.120844e-005,-1.495925e-003
-8.530812e-005,-1.519100e-003
-7.039812e-005,-1.541951e-003
-4.430560e-005,-1.552485e-003
-3.182657e-005,-1.542437e-003
-4.527799e-005,-1.511321e-003
-8.125649e-005,-1.464808e-003
-1.183694e-004,-1.408571e-003
-1.245279e-004,-1.347797e-003
-8.271508e-005,-1.291398e-003
-1.610624e-005,-1.239699e-003
3.526847e-005,-1.196104e-003
4.110282e-005,-1.158342e-003
-2.816880e-006,-1.124147e-003
-8.060823e-005,-1.088816e-003
-1.579134e-004,-1.049597e-003
-1.995642e-004,-1.000815e-003
-1.900023e-004,-9.418232e-004
-1.360346e-004,-8.748902e-004
-4.754691e-005,-8.063366e-004
6.265751e-005,-7.363244e-004
1.801549e-004,-6.682570e-004
2.833905e-004,-6.068342e-004
3.527545e-004,-5.572423e-004
3.780367e-004,-5.149432e-004
3.572923e-004,-4.715097e-004
3.002453e-004,-4.198109e-004
2.315296e-004,-3.587123e-004
1.769136e-004,-2.938862e-004
1.511452e-004,-2.276015e-004
1.539003e-004,-1.639098e-004
1.770756e-004,-1.034594e-004
2.038164e-004,-4.722278e-005
2.188885e-004,8.851824e-006
2.167816e-004,6.606088e-005
1.983062e-004,1.184080e-004
1.654069e-004,1.634622e-004
1.226217e-004,2.036544e-004
7.546067e-005,2.417397e-004
3.332369e-005,2.733424e-004
3.665733e-006,2.958695e-004
-1.124428e-005,3.072141e-004
-1.221667e-005,3.174242e-004
-3.858999e-007,3.277964e-004
1.792748e-005,3.341170e-004
3.364782e-005,3.333067e-004
3.899597e-005,3.235827e-004
3.235129e-005,3.080245e-004
1.744129e-005,2.898731e-004
-8.165035e-006,2.720459e-004
-4.738484e-005,2.618358e-004
-1.044318e-004,2.660495e-004
-1.814128e-004,2.853353e-004
-2.684419e-004,3.140208e-004
-3.418575e-004,3.430306e-004
-3.861013e-004,3.631267e-004
-3.924218e-004,3.650715e-004
-3.590364e-004,3.503235e-004
-2.935620e-004,3.299033e-004
-2.088019e-004,3.171001e-004
-1.177212e-004,3.219621e-004
-2.712668e-005,3.462718e-004
5.390598e-005,3.812780e-004
1.031738e-004,4.041292e-004
9.182927e-005,3.841952e-004
6.582909e-006,3.098072e-004
-1.389517e-004,1.961994e-004
-3.074997e-004,7.578480e-005
-4.614617e-004,-2.842320e-005
-5.749074e-004,-1.094559e-004
-6.434610e-004,-1.739578e-004
-6.744154e-004,-2.340841e-004
-6.684191e-004,-2.972895e-004
-6.146134e-004,-3.682741e-004
-5.110537e-004,-4.428242e-004
-3.872358e-004,-5.094330e-004
-2.890242e-004,-5.587008e-004
-2.418632e-004,-5.839830e-004
-2.374874e-004,-5.668041e-004
-2.462390e-004,-4.797751e-004
-2.418632e-004,-2.971275e-004
-2.073433e-004,-1.448558e-005
-1.459206e-004,3.449753e-004
-7.639453e-005,7.480320e-004
-1.594417e-005,1.168916e-003
3.073064e-005,1.605683e-003
7.481241e-005,2.067571e-003
1.273216e-004,2.541128e-003
1.837203e-004,2.976438e-003
2.320158e-004,3.292792e-003
2.632944e-004,3.415152e-003
2.830664e-004,3.310781e-003
3.059176e-004,3.013875e-003
3.482167e-004,2.611302e-003
4.157979e-004,2.193010e-003
4.987754e-004,1.817665e-003
5.778633e-004,1.499530e-003
6.358828e-004,1.225153e-003
6.684579e-004,9.792994e-004
6.823955e-004,7.554871e-004
6.856368e-004,5.495019e-004
6.830437e-004,3.584268e-004
6.681338e-004,1.817755e-004
6.230795e-004,2.068259e-005
5.392918e-004,-1.232314e-004
4.248736e-004,-2.480217e-004
3.064038e-004,-3.572537e-004
2.137024e-004,-4.600031e-004
1.615174e-004,-5.684248e-004
1.357490e-004,-6.901358e-004
1.103047e-004,-8.334015e-004
6.816773e-005,-1.006649e-003
1.225520e-005,-1.208745e-003
-3.863332e-005,-1.418619e-003
-6.391550e-005,-1.606291e-003
-4.446767e-005,-1.753771e-003
2.603075e-005,-1.854899e-003
1.372076e-004,-1.914215e-003
2.587566e-004,-1.940956e-003
3.519442e-004,-1.940794e-003
3.825745e-004,-1.918267e-003
3.373583e-004,-1.870620e-003
2.221298e-004,-1.790073e-003
6.541262e-005,-1.671765e-003
-9.000802e-005,-1.514886e-003
-1.984297e-004,-1.303391e-003
-2.410529e-004,-1.003570e-003
-2.329496e-004,-5.919242e-004
-1.976194e-004,-7.817725e-005
-1.566169e-004,4.718725e-004
-1.173971e-004,9.656859e-004
-8.271508e-005,1.345406e-003
-4.349527e-005,1.599038e-003
1.063454e-005,1.763535e-003
6.897806e-005,1.892378e-003
1.060910e-004,2.015548e-003
9.620504e-005,2.110032e-003
3.705119e-005,2.117001e-003
-4.592625e-005,1.989779e-003
-1.191798e-004,1.724315e-003
-1.635857e-004,1.361612e-003
-1.810887e-004,9.642274e-004
-1.904885e-004,5.896941e-004
-2.164190e-004,2.772320e-004
-2.737901e-004,3.883391e-005
-3.603330e-004,-1.357104e-004
-4.577342e-004,-2.669833e-004
-5.408737e-004,-3.754050e-004
-5.935449e-004,-4.791268e-004
-6.063480e-004,-5.901415e-004
-5.750695e-004,-7.163903e-004
-5.035987e-004,-8.546321e-004
-4.049009e-004,-9.923875e-004
-2.883759e-004,-1.109885e-003
-1.673132e-004,-1.188811e-003
-6.537409e-005,-1.224141e-003
-1.140634e-005,-1.223007e-003
-1.724069e-005,-1.198859e-003
-5.694670e-005,-1.164015e-003
-8.935975e-005,-1.126416e-003
-8.871149e-005,-1.088816e-003
-5.710876e-005,-1.049272e-003
-7.840905e-006,-1.005515e-003
5.179914e-005,-9.583539e-004
1.145184e-004,-9.120032e-004
1.691344e-004,-8.682456e-004
2.070577e-004,-8.254603e-004
2.286124e-004,-7.825130e-004
2.354192e-004,-7.424829e-004
2.234263e-004,-7.150938e-004
1.889064e-004,-7.092595e-004
1.344524e-004,-7.238454e-004
7.513654e-005,-7.488034e-004
3.413401e-005,-7.697099e-004
2.797553e-005,-7.758683e-004
6.071273e-005,-7.630652e-004
1.219734e-004,-7.402140e-004
1.950649e-004,-7.162283e-004
2.649151e-004,-6.964564e-004
3.237448e-004,-6.830050e-004
3.665301e-004,-6.703638e-004
3.914881e-004,-6.531850e-004
4.042913e-004,-6.253097e-004
4.072085e-004,-5.838210e-004
3.952156e-004,-5.258016e-004
3.585888e-004,-4.544929e-004
2.884145e-004,-3.682741e-004
1.851789e-004,-2.728177e-004
6.346784e-005,-1.713648e-004
-4.754691e-005,-6.375344e-005
-1.170729e-004,5.098881e-005
-1.287416e-004,1.772377e-004
-9.098041e-005,3.171001e-004
-2.826114e-005,4.644175e-004
3.526847e-005,6.093040e-004
9.393612e-005,7.470596e-004
1.526038e-004,8.760638e-004
2.060853e-004,9.825408e-004
2.459534e-004,1.049798e-003
2.757735e-004,1.066653e-003
3.091589e-004,1.025488e-003
3.602095e-004,9.293833e-004
4.235771e-004,7.958413e-004
4.657141e-004,6.488480e-004
4.486972e-004,5.099580e-004
3.576164e-004,3.973225e-004
2.086784e-004,3.222862e-004
4.450620e-005,2.892249e-004
-8.919769e-005,2.955454e-004
-1.705545e-004,3.383307e-004
-2.151224e-004,4.159600e-004
-2.543422e-004,5.362125e-004
-3.118754e-004,7.045984e-004
-3.997148e-004,9.157698e-004
-5.120260e-004,1.140879e-003
-6.223925e-004,1.329523e-003
-6.914323e-004,1.432921e-003
-6.962943e-004,1.425628e-003
-6.467023e-004,1.319637e-003
-5.763660e-004,1.160327e-003
-5.194810e-004,9.998818e-004
-4.909576e-004,8.797912e-004
-4.778303e-004,8.224201e-004
-4.468758e-004,8.258235e-004
-3.630881e-004,8.600192e-004
-2.279256e-004,8.815739e-004
-7.963584e-005,8.553194e-004
3.121684e-005,7.663454e-004
7.286763e-005,6.253485e-004
4.953022e-005,4.580970e-004
-8.165035e-006,2.942489e-004
-5.451572e-005,1.569795e-004
-5.402952e-005,5.828175e-005
-1.196227e-006,-9.947754e-006
7.902610e-005,-7.623246e-005
1.457970e-004,-1.771992e-004
1.665414e-004,-3.290543e-004
1.346145e-004,-5.243430e-004
7.302970e-005,-7.486413e-004
1.841368e-005,-9.800706e-004
-9.623623e-006,-1.198697e-003
-2.015787e-005,-1.384748e-003
-3.863332e-005,-1.530444e-003
-8.206682e-005,-1.638704e-003
-1.358725e-004,-1.721033e-003
-1.665028e-004,-1.791208e-003
-1.491618e-004,-1.859599e-003
-9.098041e-005,-1.926046e-003
-2.307504e-005,-1.972235e-003
1.792748e-005,-1.974017e-003
1.549650e-005,-1.909839e-003
-2.210265e-005,-1.767546e-003
-6.650855e-005,-1.543896e-003
-8.336335e-005,-1.236296e-003
-4.641245e-005,-8.314567e-004
4.774750e-005,-2.961551e-004
1.707551e-004,4.018603e-004
2.738286e-004,1.241197e-003
3.159656e-004,2.136287e-003
2.948972e-004,2.947914e-003
2.430362e-004,3.527788e-003
2.033302e-004,3.769268e-003
2.044647e-004,3.638966e-003
2.519498e-004,3.188583e-003
3.276344e-004,2.533511e-003
3.953777e-004,1.811507e-003
4.235771e-004,1.139582e-003
3.999155e-004,5.930975e-004
3.342791e-004,2.002510e-004
2.482223e-004,-5.727083e-005
1.597346e-004,-2.180396e-004
7.546067e-005,-3.256510e-004
2.623614e-007,-4.147869e-004
-5.970181e-005,-4.998712e-004
-9.324933e-005,-5.789590e-004
-8.935975e-005,-6.313061e-004
-5.289507e-005,-6.327647e-004
-2.048200e-005,-5.664800e-004
-4.138842e-005,-4.311555e-004
-1.370070e-004,-2.420253e-004
-2.877277e-004,-2.404744e-005
-4.475241e-004,2.043026e-004
-5.723144e-004,4.399457e-004
-6.324406e-004,6.947125e-004
-6.152617e-004,9.731410e-004
-5.215878e-004,1.238929e-003
-3.671397e-004,1.419145e-003
-1.840059e-004,1.438431e-003
-9.299493e-006,1.270531e-003
1.315353e-004,9.574206e-004
2.213195e-004,5.836976e-004
2.572980e-004,2.248849e-004
2.430362e-004,-6.861539e-005
1.919856e-004,-2.783279e-004
1.234320e-004,-4.181903e-004
6.055066e-005,-5.172121e-004
2.165498e-005,-5.984068e-004
1.160693e-005,-6.693914e-004
2.781346e-005,-7.298418e-004
5.893001e-005,-7.808923e-004
8.486046e-005,-8.259465e-004
8.080883e-005,-8.651663e-004
3.380988e-005,-8.975794e-004
-4.041603e-005,-9.262649e-004
-1.021629e-004,-9.497644e-004
-1.229073e-004,-9.661330e-004
-9.584238e-005,-9.792603e-004
-4.138842e-005,-9.954668e-004
1.225520e-005,-1.019615e-003
4.709924e-005,-1.051866e-003
5.941620e-005,-1.080065e-003
5.001642e-005,-1.088978e-003
1.306552e-005,-1.066613e-003
-5.159854e-005,-1.012160e-003
-1.342519e-004,-9.390680e-004
-2.199844e-004,-8.669490e-004
-2.940482e-004,-8.045539e-004
-3.452609e-004,-7.515585e-004
-3.663294e-004,-7.039114e-004
-3.595226e-004,-6.595054e-004
-3.368335e-004,-6.160720e-004
-3.105789e-004,-5.732867e-004
-2.885380e-004,-5.339049e-004
-2.710350e-004,-4.998712e-004
-2.506147e-004,-4.661616e-004
-2.188499e-004,-4.262935e-004
-1.728234e-004,-3.731361e-004
-1.177212e-004,-3.060411e-004
-7.039812e-005,-2.327876e-004
-4.430560e-005,-1.635857e-004
-4.398147e-005,-1.130213e-004
-6.099833e-005,-9.422172e-005
-7.995997e-005,-1.081593e-004
-8.579432e-005,-1.394379e-004
-6.440170e-005,-1.736337e-004
-1.464765e-005,-1.989159e-004
5.163707e-005,-2.062088e-004
1.197045e-004,-1.940539e-004
1.808031e-004,-1.681235e-004
2.354192e-004,-1.336036e-004
2.816078e-004,-9.697683e-005
3.171001e-004,-6.359137e-005
3.467581e-004,-3.425755e-005
3.811159e-004,-6.058186e-006
4.264942e-004,2.781346e-005
4.845136e-004,7.335383e-005
5.486915e-004,1.342904e-004
6.068730e-004,2.104611e-004
6.412309e-004,2.947351e-004
6.353966e-004,3.786850e-004
5.926113e-004,4.597176e-004
5.323229e-004,5.375090e-004
4.793275e-004,6.117350e-004
4.527488e-004,6.726716e-004
4.538833e-004,7.107570e-004
4.743035e-004,7.240463e-004
5.034753e-004,7.152948e-004
5.350781e-004,6.885540e-004
5.553362e-004,6.514410e-004
5.493398e-004,6.106006e-004
5.093097e-004,5.747841e-004
4.394595e-004,5.491778e-004
3.485408e-004,5.324850e-004
2.443328e-004,5.149820e-004
1.422316e-004,4.874308e-004
5.844381e-005,4.431870e-004
8.365628e-006,3.828986e-004
-7.192643e-006,3.153174e-004
-4.113403e-006,2.529222e-004
5.864920e-007,2.033302e-004
3.665733e-006,1.673517e-004
1.971020e-005,1.367214e-004
6.735741e-005,1.057669e-004
1.470936e-004,7.659513e-005
2.337985e-004,4.628891e-005
2.807975e-004,1.338965e-005
2.485465e-004,-1.999580e-005
1.338042e-004,-4.884343e-005
-3.425755e-005,-6.488790e-005
-2.117191e-004,-5.953974e-005
-3.650328e-004,-2.793700e-005
-4.901472e-004,2.538249e-005
-5.987309e-004,9.215340e-005
-6.961322e-004,1.620036e-004
-7.791097e-004,2.247229e-004
-8.364808e-004,2.726942e-004
-8.539838e-004,3.039728e-004
-8.238396e-004,3.196932e-004
-7.533412e-004,3.201794e-004
-6.669604e-004,3.049452e-004
-5.875485e-004,2.733424e-004
-5.293671e-004,2.263435e-004
-4.953333e-004,1.639484e-004
-4.708614e-004,8.907416e-005
-4.378002e-004,1.047248e-005
-3.908012e-004,-5.775702e-005
-3.319715e-004,-1.047560e-004
-2.656868e-004,-1.255003e-004
-1.947022e-004,-1.188556e-004
-1.196660e-004,-8.935975e-005
-3.539201e-005,-5.273300e-005
5.909208e-005,-2.712668e-005
1.469315e-004,-2.129233e-005
2.036544e-004,-3.377136e-005
2.167816e-004,-5.451572e-005
1.911753e-004,-6.586029e-005
1.415833e-004,-5.386745e-005
9.263960e-005,-1.351319e-005
5.747142e-005,4.450620e-005
3.332369e-005,9.993253e-005
1.274139e-005,1.278078e-004
-8.165035e-006,1.201907e-004
-2.826114e-005,8.048470e-005
-3.847125e-005,2.052053e-005
-3.036798e-005,-4.187462e-005
-7.354709e-006,-8.644259e-005
1.825161e-005,-1.047560e-004
4.013043e-005,-1.021629e-004
5.844381e-005,-9.211487e-005
7.076078e-005,-8.709085e-005
7.302970e-005,-8.838737e-005
6.346784e-005,-8.984595e-005
5.147500e-005,-7.785312e-005
5.098881e-005,-4.349527e-005
7.027458e-005,1.063454e-005
1.119254e-004,8.064677e-005
1.626518e-004,1.608691e-004
1.986303e-004,2.483844e-004
2.091646e-004,3.402755e-004
2.125679e-004,4.276287e-004
2.406053e-004,5.010443e-004
3.122381e-004,5.514466e-004
4.188772e-004,5.640878e-004
5.289196e-004,5.289196e-004
6.059006e-004,4.506420e-004
6.295622e-004,3.546993e-004
6.039558e-004,2.692908e-004
5.456123e-004,2.070577e-004
4.683071e-004,1.529279e-004
3.759298e-004,9.118101e-005
2.751252e-004,1.501031e-005
1.733481e-004,-7.639453e-005
8.048470e-005,-1.818991e-004
3.341602e-006,-2.992343e-004
-5.629844e-005,-4.151110e-004
-1.007043e-004,-5.112157e-004
-1.376552e-004,-5.781487e-004
-1.718510e-004,-6.188271e-004
-1.989159e-004,-6.455678e-004
-2.105846e-004,-6.689052e-004
-2.081536e-004,-6.930530e-004
-2.060468e-004,-7.125008e-004
-2.227395e-004,-7.052079e-004
-2.663351e-004,-6.348715e-004
-3.280820e-004,-4.773441e-004
-3.901529e-004,-2.394322e-004
-4.378002e-004,3.397195e-005
-4.698891e-004,2.749631e-004
-4.958195e-004,4.251977e-004
-5.209396e-004,4.700898e-004
-5.473563e-004,4.461041e-004
-5.750695e-004,4.211461e-004
-5.954896e-004,4.678209e-004
-5.873864e-004,6.415551e-004
-5.353634e-004,9.582310e-004
-4.350450e-004,1.367284e-003
-2.995585e-004,1.766128e-003
-1.585616e-004,2.023165e-003
-4.009191e-005,2.035320e-003
3.218923e-005,1.781687e-003
4.758544e-005,1.327092e-003
1.727922e-005,7.938966e-004
-2.955766e-005,3.023522e-004
-6.569822e-005,-7.282909e-005
-7.736692e-005,-3.168994e-004
-6.699475e-005,-4.593548e-004
-5.046408e-005,-5.418460e-004
-4.592625e-005,-5.967862e-004
-6.407757e-005,-6.475127e-004
-1.045939e-004,-7.047217e-004
-1.533756e-004,-7.765166e-004
-1.861127e-004,-8.609526e-004
-1.807646e-004,-9.403646e-004
-1.208004e-004,-9.812050e-004
-9.947754e-006,-9.478196e-004
1.279698e-004,-8.146020e-004
2.582704e-004,-5.927345e-004
3.525924e-004,-3.284061e-004
3.911640e-004,-7.218083e-005
3.726885e-004,1.485521e-004
3.154794e-004,3.347652e-004
2.500050e-004,4.974789e-004
2.067336e-004,6.300483e-004
2.094887e-004,6.990883e-004
2.584324e-004,6.616511e-004
3.321722e-004,4.995857e-004
4.025085e-004,2.303951e-004
4.543695e-004,-9.162867e-005
4.937514e-004,-4.005251e-004
5.354022e-004,-6.458920e-004
5.806184e-004,-8.026091e-004
6.165970e-004,-8.726213e-004
6.200004e-004,-8.838038e-004
5.731634e-004,-8.679214e-004
4.629590e-004,-8.479874e-004
2.931144e-004,-8.345360e-004
9.263960e-005,-8.301602e-004
-9.081835e-005,-8.314567e-004
-2.141500e-004,-8.372911e-004
-2.616352e-004,-8.513908e-004
-2.522354e-004,-8.765109e-004
-2.261429e-004,-9.095722e-004
-2.227395e-004,-9.468472e-004
-2.621213e-004,-9.732639e-004
-3.400748e-004,-9.695364e-004
-4.303451e-004,-9.199444e-004
-4.916058e-004,-8.191398e-004
-4.967919e-004,-6.808981e-004
-4.373140e-004,-5.290429e-004
-3.311612e-004,-3.830221e-004
-2.123673e-004,-2.556388e-004
-1.133454e-004,-1.496481e-004
-4.155049e-005,-5.937768e-005
1.549650e-005,3.494434e-005
7.286763e-005,1.415833e-004
1.286181e-004,2.519498e-004
1.733481e-004,3.506476e-004
1.966855e-004,4.240633e-004
1.929580e-004,4.678209e-004
1.645966e-004,4.815964e-004
1.239182e-004,4.660382e-004
8.939829e-005,4.318424e-004
7.286763e-005,3.986190e-004
7.027458e-005,3.924605e-004
6.865393e-005,4.339493e-004
5.341979e-005,5.287575e-004
2.214118e-005,6.582477e-004
-2.113026e-005,7.857933e-004
-6.602235e-005,8.650433e-004
-1.036215e-004,8.621261e-004
-1.318209e-004,7.770417e-004
-1.418689e-004,6.383138e-004
-1.227452e-004,4.913204e-004
-7.769106e-005,3.700955e-004
-3.069211e-005,2.848491e-004
-8.651231e-006,2.313675e-004
-2.793700e-005,1.996027e-004
-7.931171e-005,1.833962e-004
-1.350622e-004,1.739964e-004
-1.720131e-004,1.620036e-004
-1.809267e-004,1.341283e-004
-1.716889e-004,8.518459e-005
-1.639098e-004,1.987227e-005
-1.648822e-004,-4.641245e-005
-1.703924e-004,-9.908367e-005
-1.757406e-004,-1.235555e-004
-1.807646e-004,-1.219349e-004
-1.877334e-004,-1.062146e-004
-1.948643e-004,-8.887356e-005
-1.878955e-004,-8.158062e-005
-1.473791e-004,-8.919769e-005
-6.132246e-005,-1.089697e-004
5.617490e-005,-1.318209e-004
1.704310e-004,-1.483515e-004
2.457913e-004,-1.548341e-004
2.587566e-004,-1.572651e-004
2.068957e-004,-1.648822e-004
1.078737e-004,-1.788198e-004
-4.761664e-006,-1.959987e-004
-9.146661e-005,-2.138259e-004
-1.161005e-004,-2.305186e-004
-6.699475e-005,-2.408908e-004
4.418206e-005,-2.371633e-004
1.926339e-004,-2.199844e-004
3.516200e-004,-1.947022e-004
4.971547e-004,-1.668270e-004
6.073592e-004,-1.402483e-004
6.687820e-004,-1.173971e-004
6.741302e-004,-9.616651e-005
6.295622e-004,-7.914964e-005
5.507984e-004,-6.829127e-005
4.579349e-004,-6.035007e-005
3.662059e-004,-5.176061e-005
2.843629e-004,-3.944364e-005
2.161334e-004,-2.113026e-005
1.681620e-004,1.720949e-006
1.410971e-004,2.473423e-005
1.281319e-004,4.726130e-005
1.130598e-004,7.124698e-005
8.242948e-005,1.009049e-004
3.478228e-005,1.328318e-004
-1.432352e-005,1.628139e-004
-5.435365e-005,1.848548e-004
-8.206682e-005,1.966855e-004
-9.551824e-005,2.010613e-004
-9.486997e-005,2.020337e-004
-8.077030e-005,2.004130e-004
-5.338126e-005,1.971717e-004
-1.918548e-005,1.934442e-004
1.063454e-005,1.905271e-004
2.327564e-005,1.936063e-004
1.371378e-005,2.010613e-004
-5.896120e-006,2.039785e-004
-1.999580e-005,1.968476e-004
-1.432352e-005,1.795066e-004
1.906194e-005,1.579519e-004
7.238143e-005,1.391524e-004
1.174356e-004,1.300767e-004
1.201907e-004,1.295905e-004
6.330578e-005,1.313732e-004
-3.490581e-005,1.310491e-004
-1.280934e-004,1.276457e-004
-1.669890e-004,1.245665e-004
-1.355484e-004,1.268354e-004
-6.164659e-005,1.357490e-004
9.106227e-007,1.513072e-004
8.689758e-006,1.717275e-004
-5.321920e-005,1.973338e-004
-1.663408e-004,2.243987e-004
-2.951827e-004,2.478982e-004
-3.979321e-004,2.632944e-004
-4.480103e-004,2.675081e-004
-4.395829e-004,2.605393e-004
-3.801049e-004,2.490327e-004
-2.750866e-004,2.443328e-004
-1.349001e-004,2.525981e-004
1.306552e-005,2.722080e-004
1.258630e-004,2.858215e-004
1.623277e-004,2.746390e-004
1.083599e-004,2.289366e-004
-6.868513e-006,1.506590e-004
-1.293899e-004,5.098881e-005
-2.122053e-004,-5.273300e-005
-2.389460e-004,-1.475412e-004
-2.253326e-004,-2.285739e-004
-2.023193e-004,-2.966413e-004
-2.034537e-004,-3.546606e-004
-2.493182e-004,-4.097628e-004
-3.473677e-004,-4.603272e-004
-4.859335e-004,-4.997091e-004
-6.332509e-004,-5.245051e-004
-7.476690e-004,-5.394151e-004
-7.914266e-004,-5.510838e-004
-7.421587e-004,-5.587008e-004
-6.044033e-004,-5.593491e-004
-4.168937e-004,-5.509217e-004
-2.284118e-004,-5.258016e-004
-8.628052e-005,-4.779923e-004
-1.318906e-005,-4.074939e-004
-5.409925e-006,-3.214373e-004
-3.198864e-005,-2.295462e-004
-5.759496e-005,-1.442999e-004
-6.035007e-005,-7.655660e-005
-4.122636e-005,-2.501983e-005
-9.785688e-006,2.278944e-005
2.813760e-005,8.777764e-005
7.465034e-005,2.000889e-004
1.273216e-004,3.856538e-004
1.861513e-004,6.494962e-004
2.525981e-004,9.598516e-004
3.247172e-004,1.244115e-003
3.910019e-004,1.424656e-003
4.344354e-004,1.450100e-003
4.480489e-004,1.326606e-003
4.405939e-004,1.115597e-003
4.365423e-004,8.904876e-004
4.522626e-004,7.054088e-004
4.884033e-004,5.817529e-004
5.339436e-004,5.089855e-004
5.799701e-004,4.589073e-004
6.229175e-004,4.034809e-004
6.567892e-004,3.256896e-004
6.666752e-004,2.242366e-004
6.355586e-004,1.163011e-004
5.587396e-004,1.403791e-005
4.498317e-004,-9.195280e-005
3.341170e-004,-2.245222e-004
2.357433e-004,-3.950149e-004
1.678379e-004,-5.975965e-004
1.349386e-004,-8.155743e-004
1.308870e-004,-1.023342e-003
1.334801e-004,-1.200642e-003
1.154908e-004,-1.338883e-003
6.087479e-005,-1.434988e-003
-2.647842e-005,-1.492521e-003
-1.289037e-004,-1.526879e-003
-2.196603e-004,-1.557185e-003
-2.789762e-004,-1.596081e-003
-3.047445e-004,-1.643404e-003
-2.993964e-004,-1.679869e-003
-2.681178e-004,-1.673386e-003
-2.182017e-004,-1.590571e-003
-1.611547e-004,-1.412137e-003
-1.130213e-004,-1.128684e-003
-9.017008e-005,-7.337314e-004
-9.940781e-005,-2.157707e-004
-1.332795e-004,4.318424e-004
-1.741199e-004,1.188688e-003
-2.031296e-004,1.998368e-003
-2.073433e-004,2.780013e-003
-1.838438e-004,3.443838e-003
-1.418689e-004,3.912860e-003
-1.045939e-004,4.131488e-003
-9.503204e-005,4.059854e-003
-1.180453e-004,3.702496e-003
-1.650443e-004,3.127808e-003
-2.182017e-004,2.448102e-003
-2.640662e-004,1.781200e-003
-2.943724e-004,1.213322e-003
-3.029619e-004,7.904932e-004
-2.838381e-004,5.157923e-004
-2.391081e-004,3.655576e-004
-1.851404e-004,2.976523e-004
-1.394379e-004,2.602152e-004
-1.136696e-004,2.107852e-004
-1.073490e-004,1.235941e-004
-1.092938e-004,-7.354709e-006
-1.126972e-004,-1.765509e-004
-1.173971e-004,-3.626019e-004
-1.272830e-004,-5.403875e-004
-1.442999e-004,-6.912703e-004
-1.630995e-004,-8.139537e-004
-1.749302e-004,-9.170272e-004
-1.754164e-004,-1.009566e-003
-1.600202e-004,-1.098216e-003
-1.217728e-004,-1.180707e-003
-6.067420e-005,-1.249909e-003
8.689758e-006,-1.297719e-003
7.189524e-005,-1.323325e-003
1.218114e-004,-1.328187e-003
1.540623e-004,-1.315870e-003
1.655690e-004,-1.290426e-003
1.551968e-004,-1.251854e-003
1.313732e-004,-1.198048e-003
1.047945e-004,-1.131278e-003
8.323981e-005,-1.058348e-003
7.335383e-005,-9.855808e-004
7.853991e-005,-9.205926e-004
9.280167e-005,-8.740799e-004
1.043083e-004,-8.533355e-004
9.814982e-005,-8.585216e-004
7.319176e-005,-8.810487e-004
3.867184e-005,-9.045482e-004
-2.238346e-007,-9.184858e-004
-3.895745e-005,-9.154066e-004
-7.558420e-005,-8.930415e-004
-1.055663e-004,-8.528493e-004
-1.256624e-004,-7.990437e-004
-1.259865e-004,-7.368106e-004
-1.010285e-004,-6.765223e-004
-5.305713e-005,-6.334129e-004
7.555301e-006,-6.139652e-004
6.233338e-005,-6.113721e-004
9.912221e-005,-6.136410e-004
1.148425e-004,-6.073205e-004
1.185701e-004,-5.838210e-004
1.198666e-004,-5.426564e-004
1.237561e-004,-4.898231e-004
1.365593e-004,-4.269418e-004
1.752929e-004,-3.442885e-004
2.538946e-004,-2.342462e-004
3.671783e-004,-9.730096e-005
4.898618e-004,4.726130e-005
5.893700e-004,1.757791e-004
6.303725e-004,2.699391e-004
5.979594e-004,3.276344e-004
5.083373e-004,3.568061e-004
3.997535e-004,3.749574e-004
3.106175e-004,3.932708e-004
2.595669e-004,4.065602e-004
2.375260e-004,4.051016e-004
2.187264e-004,3.846814e-004
1.799928e-004,3.488649e-004
1.104668e-004,3.021901e-004
2.035846e-005,2.540567e-004
-6.148453e-005,2.167816e-004
-9.940781e-005,1.963614e-004
-7.542214e-005,1.932822e-004
5.864920e-007,1.968476e-004
9.166720e-005,1.871237e-004
1.550348e-004,1.469315e-004
1.633001e-004,7.627100e-005
1.163011e-004,-4.275467e-006
3.850978e-005,-6.991193e-005
-3.798505e-005,-1.023250e-004
-9.049421e-005,-9.859748e-005
-1.170729e-004,-5.921561e-005
-1.306864e-004,1.031041e-005
-1.439758e-004,9.458438e-005
-1.601823e-004,1.731861e-004
-1.797922e-004,2.360674e-004
-2.144742e-004,2.976523e-004
-2.809209e-004,3.801436e-004
-3.770257e-004,4.837033e-004
-4.788027e-004,5.934216e-004
-5.580526e-004,6.882299e-004
-5.954896e-004,7.512733e-004
-5.899795e-004,7.817416e-004
-5.540010e-004,7.754210e-004
-4.992229e-004,7.109190e-004
-4.356933e-004,5.645740e-004
-3.677880e-004,3.376824e-004
-2.997205e-004,6.589881e-005
-2.368392e-004,-1.869231e-004
-1.903264e-004,-3.653570e-004
-1.713648e-004,-4.476861e-004
-1.789819e-004,-4.478482e-004
-2.013469e-004,-4.052250e-004
-2.256567e-004,-3.483401e-004
-2.412149e-004,-2.758969e-004
-2.350565e-004,-1.598582e-004
-2.000504e-004,2.035846e-005
-1.418689e-004,2.545429e-004
-7.250496e-005,4.854860e-004
-2.238346e-007,6.316690e-004
6.849186e-005,6.319932e-004
1.245665e-004,4.780310e-004
1.607070e-004,2.138645e-004
1.744826e-004,-8.255302e-005
1.856651e-004,-3.298647e-004
2.232643e-004,-4.716718e-004
3.026763e-004,-4.763717e-004
4.136911e-004,-3.384541e-004
5.272989e-004,-6.229485e-005
6.101143e-004,3.529166e-004
6.375034e-004,9.162560e-004
6.117350e-004,1.626265e-003
5.574431e-004,2.423143e-003
5.028270e-004,3.206896e-003
4.632831e-004,3.868777e-003
4.298976e-004,4.312355e-003
3.832228e-004,4.468589e-003
3.114278e-004,4.301821e-003
2.205092e-004,3.828747e-003
1.305629e-004,3.135587e-003
6.071273e-005,2.351348e-003
1.403791e-005,1.599687e-003
-1.497178e-005,9.630929e-004
-4.236082e-005,4.754380e-004
-8.125649e-005,1.323456e-004
-1.332795e-004,-1.000561e-004
-1.924333e-004,-2.621213e-004
-2.494803e-004,-3.937184e-004
-2.932379e-004,-5.183466e-004
-3.133340e-004,-6.384369e-004
-3.063652e-004,-7.475069e-004
-2.780038e-004,-8.364808e-004
-2.374874e-004,-9.022792e-004
-1.998883e-004,-9.471713e-004
-1.885437e-004,-9.766672e-004
-2.136638e-004,-9.995184e-004
-2.608248e-004,-1.028042e-003
-3.010170e-004,-1.066613e-003
-3.113892e-004,-1.112640e-003
-2.867553e-004,-1.158991e-003
-2.371633e-004,-1.198211e-003
-1.778474e-004,-1.224465e-003
-1.185315e-004,-1.235972e-003
-6.245691e-005,-1.232730e-003
-1.302700e-005,-1.223007e-003
2.522042e-005,-1.220251e-003
5.341979e-005,-1.226410e-003
8.161915e-005,-1.233541e-003
1.174356e-004,-1.235972e-003
1.645966e-004,-1.235161e-003
2.281262e-004,-1.234351e-003
2.963557e-004,-1.231596e-003
3.435168e-004,-1.221224e-003
3.548613e-004,-1.199669e-003
3.307136e-004,-1.170659e-003
2.790148e-004,-1.145377e-003
2.145127e-004,-1.128522e-003
1.563313e-004,-1.120095e-003
1.107909e-004,-1.111181e-003
7.302970e-005,-1.093030e-003
3.478228e-005,-1.063372e-003
-4.599598e-006,-1.023666e-003
-4.268495e-005,-9.722915e-004
-8.206682e-005,-9.100584e-004
-1.297140e-004,-8.436117e-004
-1.843300e-004,-7.787855e-004
-2.412149e-004,-7.173628e-004
-2.932379e-004,-6.603158e-004
-3.311612e-004,-6.050515e-004
-3.444506e-004,-5.475183e-004
-3.314853e-004,-4.903093e-004
-2.946965e-004,-4.329382e-004
-2.360289e-004,-3.789705e-004
-1.629374e-004,-3.301888e-004
-8.660465e-005,-2.865932e-004
-9.461558e-006,-2.460769e-004
7.546067e-005,-2.045882e-004
1.762653e-004,-1.593720e-004
2.879283e-004,-1.096179e-004
3.887330e-004,-5.678463e-005
4.425387e-004,-6.868513e-006
4.188772e-004,3.364782e-005
3.107795e-004,6.525056e-005
1.383420e-004,8.988449e-005
-5.078821e-005,1.109530e-004
-2.036158e-004,1.312112e-004
-2.840002e-004,1.573037e-004
-2.750866e-004,1.940925e-004
-1.786577e-004,2.394708e-004
-1.302700e-005,2.877662e-004
1.858272e-004,3.300653e-004
3.598854e-004,3.587509e-004
4.548557e-004,3.692851e-004
4.522626e-004,3.650715e-004
3.767402e-004,3.538890e-004
2.850112e-004,3.428685e-004
2.252090e-004,3.350894e-004
2.094887e-004,3.318480e-004
2.164575e-004,3.352514e-004
2.159713e-004,3.459477e-004
1.824238e-004,3.636129e-004
1.054428e-004,3.898674e-004
-4.761664e-006,4.251977e-004
-1.316588e-004,4.674968e-004
-2.558008e-004,5.060683e-004
-3.643846e-004,5.305402e-004
-4.462276e-004,5.375090e-004
-4.924161e-004,5.310264e-004
-4.916058e-004,5.206542e-004
-4.387725e-004,5.120648e-004
-3.452609e-004,5.039615e-004
-2.345703e-004,4.924549e-004
-1.323071e-004,4.775448e-004
-5.856735e-005,4.611762e-004
-2.372331e-005,4.420525e-004
-2.437157e-005,4.211461e-004
-4.203669e-005,4.063981e-004
-6.245691e-005,4.008879e-004
-7.995997e-005,4.049396e-004
-9.811128e-005,4.156358e-004
-1.149661e-004,4.255218e-004
-1.220970e-004,4.286011e-004
-1.115627e-004,4.240633e-004
-8.628052e-005,4.119083e-004
-6.261898e-005,3.957018e-004
-5.889148e-005,3.811159e-004
-8.125649e-005,3.670162e-004
-1.152902e-004,3.525924e-004
-1.396000e-004,3.363859e-004
-1.408965e-004,3.156415e-004
-1.242038e-004,2.853353e-004
-1.101041e-004,2.419018e-004
-1.233935e-004,1.887444e-004
-1.767130e-004,1.291043e-004
-2.627696e-004,6.508849e-005
-3.510952e-004,-5.479652e-007
-4.078181e-004,-6.051213e-005
-4.078181e-004,-1.094559e-004
-3.459091e-004,-1.420310e-004
-2.378116e-004,-1.569410e-004
-1.107524e-004,-1.567789e-004
6.258778e-006,-1.520790e-004
8.858796e-005,-1.545100e-004
1.265113e-004,-1.665028e-004
1.244044e-004,-1.844921e-004
9.328786e-005,-2.021572e-004
5.115087e-005,-2.178775e-004
1.679302e-005,-2.276015e-004
1.322759e-005,-2.248464e-004
5.455425e-005,-2.091260e-004
1.422316e-004,-1.870851e-004
2.587566e-004,-1.632615e-004
3.598854e-004,-1.407345e-004
3.997535e-004,-1.206384e-004
3.621543e-004,-1.047560e-004
2.701012e-004,-8.935975e-005
1.733481e-004,-7.007399e-005
1.210010e-004,-4.446767e-005
1.407730e-004,-1.075808e-005
2.383363e-004,2.781346e-005
3.987811e-004,6.622294e-005
5.859666e-004,9.944634e-005
7.567836e-004,1.325077e-004
8.747673e-004,1.701068e-004
9.172284e-004,2.080301e-004
8.767120e-004,2.349330e-004
7.575939e-004,2.368777e-004
5.812666e-004,2.117576e-004
3.850055e-004,1.757791e-004
2.078681e-004,1.490383e-004
8.631905e-005,1.410971e-004
3.624086e-005,1.548727e-004
4.434413e-005,1.869616e-004
8.259155e-005,2.297469e-004
1.195424e-004,2.782044e-004
1.282940e-004,3.310377e-004
1.060910e-004,3.913261e-004
6.687121e-005,4.574487e-004
2.700314e-005,5.251921e-004
-3.303076e-006,5.848321e-004
-2.031993e-005,6.212969e-004
-1.805102e-005,6.224313e-004
6.420843e-006,5.859666e-004
4.353380e-005,5.167646e-004
7.497447e-005,4.266563e-004
7.853991e-005,3.279585e-004
4.094075e-005,2.284504e-004
-3.587821e-005,1.346145e-004
-1.394379e-004,5.439218e-005
-2.554767e-004,-8.975362e-006
-3.721637e-004,-5.694670e-005
-4.791268e-004,-9.341139e-005
-5.692351e-004,-1.212866e-004
-6.390853e-004,-1.384655e-004
-6.828429e-004,-1.397621e-004
-6.979149e-004,-1.209625e-004
-6.860842e-004,-8.465986e-005
-6.543194e-004,-4.738484e-005
-6.079687e-004,-2.550602e-005
-5.450874e-004,-2.518189e-005
-4.672960e-004,-3.830919e-005
-3.864254e-004,-5.030202e-005
-3.173856e-004,-4.900550e-005
-2.789762e-004,-3.101625e-005
-2.807589e-004,-1.520357e-006
-3.201407e-004,2.878586e-005
-3.817256e-004,4.807163e-005
-4.421759e-004,4.272347e-005
-4.781544e-004,-8.720959e-007
-4.779923e-004,-8.579432e-005
-4.329382e-004,-1.987538e-004
-3.410472e-004,-3.220855e-004
-2.211189e-004,-4.374760e-004
-1.091317e-004,-5.327704e-004
-3.587821e-005,-5.997034e-004
-1.034161e-006,-6.374646e-004
2.116879e-005,-6.586951e-004
6.346784e-005,-6.690673e-004
1.357490e-004,-6.763602e-004
2.219677e-004,-6.823567e-004
2.968419e-004,-6.885151e-004
3.490270e-004,-6.932151e-004
3.778746e-004,-6.924047e-004
3.882468e-004,-6.841394e-004
3.783608e-004,-6.655019e-004
3.415720e-004,-6.389232e-004
2.701012e-004,-6.011620e-004
1.694586e-004,-5.504355e-004
6.152305e-005,-4.992229e-004
-2.275091e-005,-4.694029e-004
-5.840528e-005,-4.847991e-004
-2.971972e-005,-5.625904e-004
5.666109e-005,-6.967805e-004
1.733481e-004,-8.650042e-004
2.829043e-004,-1.044735e-003
3.538890e-004,-1.220576e-003
3.722023e-004,-1.375024e-003
3.459477e-004,-1.494142e-003
2.923041e-004,-1.573392e-003
2.188885e-004,-1.619418e-003
1.252147e-004,-1.640325e-003
1.484824e-005,-1.645673e-003
-9.438378e-005,-1.644052e-003
-1.715269e-004,-1.633518e-003
-1.854645e-004,-1.592678e-003
-1.199901e-004,-1.476315e-003
1.679302e-005,-1.240510e-003
1.949028e-004,-8.750523e-004
3.722023e-004,-4.016596e-004
5.109303e-004,1.482280e-004
5.828873e-004,7.501388e-004
5.827253e-004,1.390946e-003
5.307022e-004,2.060602e-003
4.733311e-004,2.739335e-003
4.564763e-004,3.403321e-003
5.081752e-004,4.012369e-003
6.178935e-004,4.504081e-003
7.478700e-004,4.806662e-003
8.532125e-004,4.864358e-003
9.041011e-004,4.662745e-003
8.948633e-004,4.236508e-003
8.311716e-004,3.660359e-003
7.238843e-004,3.020196e-003
5.969870e-004,2.392513e-003
4.744656e-004,1.830468e-003
3.710679e-004,1.356102e-003
2.919800e-004,9.668204e-004
2.352571e-004,6.469032e-004
1.885823e-004,3.853296e-004
1.323456e-004,1.783722e-004
6.071273e-005,2.116879e-005
-2.113026e-005,-8.952183e-005
-1.114006e-004,-1.608306e-004
-2.167431e-004,-2.062088e-004
-3.400748e-004,-2.512630e-004
-4.778303e-004,-3.134961e-004
-6.126686e-004,-4.018217e-004
-7.189835e-004,-5.159156e-004
-7.770028e-004,-6.455678e-004
-7.875370e-004,-7.771649e-004
-7.679272e-004,-8.979035e-004
-7.447518e-004,-9.974116e-004
-7.368106e-004,-1.071313e-003
-7.390795e-004,-1.123174e-003
-7.316245e-004,-1.162880e-003
-7.021286e-004,-1.196428e-003
-6.588572e-004,-1.224951e-003
-6.194753e-004,-1.249099e-003
-5.817142e-004,-1.265306e-003
-5.298533e-004,-1.274381e-003
-4.497930e-004,-1.276002e-003
-3.433161e-004,-1.270330e-003
-2.250084e-004,-1.256716e-003
-1.115627e-004,-1.238727e-003
-1.545797e-005,-1.224951e-003
5.196120e-005,-1.222034e-003
8.518459e-005,-1.229003e-003
7.951231e-005,-1.235486e-003
3.607880e-005,-1.232082e-003
-3.879538e-005,-1.212472e-003
-1.366828e-004,-1.176818e-003
-2.408908e-004,-1.127712e-003
-3.318095e-004,-1.072448e-003
-3.916115e-004,-1.018642e-003
-4.146248e-004,-9.684019e-004
-3.993907e-004,-9.181616e-004
-3.473677e-004,-8.598181e-004
-2.613110e-004,-7.878611e-004
-1.577513e-004,-6.995356e-004
-7.315322e-005,-5.932208e-004
-4.300908e-005,-4.723200e-004
-8.255302e-005,-3.501228e-004
-1.695821e-004,-2.436459e-004
-2.634179e-004,-1.609926e-004
-3.264613e-004,-1.016767e-004
-3.394265e-004,-5.354332e-005
-3.052308e-004,-2.238346e-007
-2.444563e-004,7.497447e-005
-1.788198e-004,1.731861e-004
-1.224211e-004,2.911697e-004
-7.688073e-005,4.243874e-004
-4.009191e-005,5.613327e-004
-1.383732e-005,6.833679e-004
-2.006553e-006,7.716935e-004
-4.923729e-006,8.151271e-004
-1.869928e-005,8.123720e-004
-3.668853e-005,7.663454e-004
-5.208474e-005,6.804507e-004
-5.305713e-005,5.636016e-004
-3.458168e-005,4.404318e-004
-2.006553e-006,3.365480e-004
3.624086e-005,2.663737e-004
7.643307e-005,2.341226e-004
1.138702e-004,2.313675e-004
1.496866e-004,2.420638e-004
1.840444e-004,2.504913e-004
2.214815e-004,2.483844e-004
2.581083e-004,2.342847e-004
2.854973e-004,2.115956e-004
2.948972e-004,1.892305e-004
2.851732e-004,1.770756e-004
2.619979e-004,1.808031e-004
2.323399e-004,2.026820e-004
1.906891e-004,2.347709e-004
1.265113e-004,2.657254e-004
3.915804e-005,2.889007e-004
-5.872941e-005,3.026763e-004
-1.365208e-004,3.096451e-004
-1.527273e-004,3.122381e-004
-7.704279e-005,3.125623e-004
8.323981e-005,3.128864e-004
2.710735e-004,3.216380e-004
4.133669e-004,3.440029e-004
4.663623e-004,3.803056e-004
4.310321e-004,4.237391e-004
3.394651e-004,4.670106e-004
2.334744e-004,4.953720e-004
1.425557e-004,4.804620e-004
7.254349e-005,4.021844e-004
1.355172e-005,2.639427e-004
-4.398147e-005,9.717743e-005
-9.568031e-005,-6.229485e-005
-1.178833e-004,-1.945401e-004
-8.547019e-005,-3.070135e-004
2.623614e-007,-4.198109e-004
1.128978e-004,-5.467080e-004
2.232643e-004,-6.935392e-004
3.146691e-004,-8.543079e-004
3.856538e-004,-1.016697e-003
4.405939e-004,-1.168228e-003
4.751139e-004,-1.295936e-003
4.775448e-004,-1.375510e-003
4.384871e-004,-1.381992e-003
3.598854e-004,-1.302256e-003
2.555152e-004,-1.135977e-003
1.457970e-004,-8.925553e-004
5.017848e-005,-5.810658e-004
-6.706447e-006,-1.995642e-004
-1.108221e-005,2.611876e-004
3.526847e-005,7.908173e-004
1.004187e-004,1.332278e-003
1.383420e-004,1.792869e-003
1.120874e-004,2.075836e-003
1.760335e-005,2.128670e-003
-1.159385e-004,1.971952e-003
-2.465631e-004,1.682988e-003
-3.439643e-004,1.360640e-003
-3.942046e-004,1.083508e-003
-3.950149e-004,8.929186e-004
-3.582261e-004,7.964896e-004
-3.003688e-004,7.773659e-004
-2.379736e-004,8.126961e-004
-1.752544e-004,8.767120e-004
-1.105903e-004,9.429968e-004
-3.377136e-005,9.865924e-004
5.828175e-005,9.864303e-004
1.626518e-004,9.285730e-004
2.741528e-004,8.133444e-004
3.759298e-004,6.528996e-004
4.470765e-004,4.679830e-004
4.827309e-004,2.845250e-004
4.898618e-004,1.211631e-004
4.718725e-004,-1.270286e-005
4.274666e-004,-1.135075e-004
3.532407e-004,-1.882196e-004
2.483844e-004,-2.434839e-004
1.197045e-004,-2.807589e-004
-1.464765e-005,-3.034480e-004
-1.373311e-004,-3.160891e-004
-2.405667e-004,-3.201407e-004
-3.215994e-004,-3.173856e-004
-3.745947e-004,-3.096065e-004
-3.903150e-004,-3.003688e-004
-3.603330e-004,-2.921034e-004
-2.852967e-004,-2.856209e-004
-1.788198e-004,-2.775176e-004
-6.683268e-005,-2.669833e-004
3.786152e-005,-2.574215e-004
1.419075e-004,-2.498044e-004
2.530843e-004,-2.436459e-004
3.670162e-004,-2.378116e-004
4.734932e-004,-2.342462e-004
5.684635e-004,-2.374874e-004
6.514410e-004,-2.494803e-004
7.230740e-004,-2.673075e-004
7.718556e-004,-2.856209e-004
7.744487e-004,-3.021515e-004
7.029778e-004,-3.131719e-004
5.550121e-004,-3.113892e-004
3.618301e-004,-2.946965e-004
1.746447e-004,-2.661730e-004
3.656499e-005,-2.404046e-004
-3.717473e-005,-2.280877e-004
-5.986387e-005,-2.370013e-004
-5.516398e-005,-2.621213e-004
-5.435365e-005,-2.958309e-004
-8.206682e-005,-3.288923e-004
-1.449482e-004,-3.541745e-004
-2.311669e-004,-3.671397e-004
-3.199787e-004,-3.715154e-004
-4.050630e-004,-3.731361e-004
-4.826922e-004,-3.767015e-004
-5.444391e-004,-3.797808e-004
-5.757177e-004,-3.775118e-004
-5.656697e-004,-3.679500e-004
-5.131605e-004,-3.525538e-004
-4.365036e-004,-3.392644e-004
-3.638984e-004,-3.353749e-004
-3.131719e-004,-3.428299e-004
-2.867553e-004,-3.617915e-004
-2.789762e-004,-3.935563e-004
-2.804347e-004,-4.415277e-004
-2.851347e-004,-5.052193e-004
-2.896725e-004,-5.778245e-004
-2.899966e-004,-6.514022e-004
-2.854588e-004,-7.186593e-004
-2.801106e-004,-7.757063e-004
-2.799486e-004,-8.214086e-004
-2.849726e-004,-8.565768e-004
-2.893484e-004,-8.829935e-004
-2.908069e-004,-9.017931e-004
-2.852967e-004,-9.175134e-004
-2.744383e-004,-9.342061e-004
-2.590421e-004,-9.573814e-004
-2.478596e-004,-9.816912e-004
-2.546664e-004,-9.980599e-004
-2.901587e-004,-9.951427e-004
-3.468815e-004,-9.622434e-004
-4.052250e-004,-8.907726e-004
-4.463896e-004,-7.810544e-004
-4.627582e-004,-6.377887e-004
-4.471999e-004,-4.499550e-004
-3.933943e-004,-1.971332e-004
-3.000446e-004,1.310491e-004
-1.801163e-004,5.185474e-004
-5.095028e-005,9.113940e-004
6.136099e-005,1.237794e-003
1.294284e-004,1.437135e-003
1.360731e-004,1.483324e-003
8.891209e-005,1.395970e-003
2.343770e-005,1.229042e-003
-2.599222e-005,1.044288e-003
-5.435365e-005,9.021563e-004
-7.461182e-005,8.394370e-004
-1.063766e-004,8.671501e-004
-1.629374e-004,9.718445e-004
-2.431597e-004,1.124024e-003
-3.292164e-004,1.286414e-003
-3.888564e-004,1.419632e-003
-3.822118e-004,1.505689e-003
-2.820554e-004,1.559494e-003
-7.720486e-005,1.617352e-003
2.171058e-004,1.703247e-003
5.457744e-004,1.791086e-003
8.316578e-004,1.818475e-003
1.005230e-003,1.728043e-003
1.032943e-003,1.509416e-003
9.245213e-004,1.200357e-003
7.318255e-004,8.639088e-004
5.305402e-004,5.627912e-004
3.856538e-004,3.422202e-004
3.289309e-004,2.127300e-004
3.629646e-004,1.550348e-004
4.697657e-004,1.436902e-004
6.217830e-004,1.532520e-004
7.846588e-004,1.605450e-004
9.159319e-004,1.461212e-004
9.802718e-004,9.507057e-005
9.669825e-004,4.151929e-006
8.849773e-004,-1.136696e-004
7.609973e-004,-2.431597e-004
6.256726e-004,-3.713534e-004
4.999099e-004,-4.963057e-004
3.835469e-004,-6.244993e-004
2.607014e-004,-7.591756e-004
1.140322e-004,-8.925553e-004
-5.483985e-005,-1.010053e-003
-2.258187e-004,-1.104861e-003
-3.742705e-004,-1.174549e-003
-4.847991e-004,-1.216200e-003
-5.562698e-004,-1.230137e-003
-5.979206e-004,-1.220413e-003
-6.222305e-004,-1.194969e-003
-6.348715e-004,-1.162880e-003
-6.343853e-004,-1.126902e-003
-6.149375e-004,-1.084927e-003
-5.779866e-004,-1.028366e-003
-5.347152e-004,-9.507368e-004
-5.031124e-004,-8.534976e-004
-4.828543e-004,-7.398899e-004
-4.647030e-004,-6.222305e-004
-4.361795e-004,-5.191569e-004
-3.865875e-004,-4.373140e-004
-3.045825e-004,-3.643846e-004
-1.846542e-004,-2.815692e-004
-3.587821e-005,-1.859507e-004
1.047945e-004,-1.020008e-004
1.976579e-004,-6.407757e-005
2.253711e-004,-9.519411e-005
2.026820e-004,-1.976194e-004
1.582761e-004,-3.587123e-004
1.135460e-004,-5.591870e-004
8.080883e-005,-7.758683e-004
6.784360e-005,-9.828256e-004
7.691926e-005,-1.154777e-003
1.012291e-004,-1.257851e-003
1.289422e-004,-1.264819e-003
1.430419e-004,-1.159639e-003
1.307250e-004,-9.447403e-004
8.226741e-005,-6.394094e-004
-2.330684e-006,-2.603387e-004
-1.047560e-004,1.858272e-004
-2.075054e-004,7.089743e-004
-2.964792e-004,1.317530e-003
-3.557951e-004,1.977624e-003
-3.744326e-004,2.593799e-003
-3.591985e-004,3.031865e-003
-3.277578e-004,3.175293e-003
-3.026377e-004,2.983407e-003
-2.877277e-004,2.516169e-003
-2.724935e-004,1.904694e-003
-2.507768e-004,1.289169e-003
-2.331117e-004,7.768797e-004
-2.391081e-004,4.114222e-004
-2.810830e-004,1.817755e-004
-3.486642e-004,4.677511e-005
-4.078181e-004,-3.474375e-005
-4.147869e-004,-9.211487e-005
-3.412093e-004,-1.407345e-004
-1.904885e-004,-1.830335e-004
7.393236e-006,-2.126914e-004
2.231022e-004,-2.269532e-004
4.452938e-004,-2.238740e-004
6.762370e-004,-2.037779e-004
9.165801e-004,-1.677994e-004
1.138448e-003,-1.195039e-004
1.287062e-003,-6.796714e-005
1.313641e-003,-1.562004e-005
1.204733e-003,4.466826e-005
9.895095e-004,1.221355e-004
7.253428e-004,2.068957e-004
4.741415e-004,2.754493e-004
2.773941e-004,3.042970e-004
1.479039e-004,2.825802e-004
7.513654e-005,2.078681e-004
3.299956e-005,8.567078e-005
3.989864e-006,-7.039812e-005
-1.772689e-005,-2.345703e-004
-4.009191e-005,-3.796187e-004
-6.586029e-005,-4.862577e-004
-9.568031e-005,-5.462218e-004
-1.246900e-004,-5.642111e-004
-1.452723e-004,-5.514079e-004
-1.535376e-004,-5.206155e-004
-1.536997e-004,-4.838267e-004
-1.561307e-004,-4.509274e-004
-1.674752e-004,-4.296969e-004
-1.877334e-004,-4.248349e-004
-2.123673e-004,-4.368278e-004
-2.342462e-004,-4.611376e-004
-2.476975e-004,-4.859335e-004
-2.475355e-004,-4.954954e-004
-2.358668e-004,-4.781544e-004
-2.099363e-004,-4.300210e-004
-1.765509e-004,-3.543365e-004
-1.451102e-004,-2.634179e-004
-1.264727e-004,-1.684476e-004
-1.243659e-004,-7.752899e-005
-1.412206e-004,4.800190e-006
-1.739578e-004,8.194328e-005
-2.136638e-004,1.576278e-004
-2.528836e-004,2.307193e-004
-2.856209e-004,2.908455e-004
-3.089583e-004,3.276344e-004
-3.264613e-004,3.328204e-004
-3.426678e-004,2.978143e-004
-3.647087e-004,2.198609e-004
-3.951770e-004,1.104668e-004
-4.343968e-004,-6.382317e-006
-4.813957e-004,-1.020008e-004
-5.316359e-004,-1.605064e-004
-5.726385e-004,-1.825473e-004
-6.011620e-004,-1.814128e-004
-6.128307e-004,-1.724993e-004
-6.032689e-004,-1.684476e-004
-5.655076e-004,-1.702304e-004
-4.961436e-004,-1.801163e-004
-4.061974e-004,-1.992400e-004
-3.128478e-004,-2.305186e-004
-2.287359e-004,-2.705488e-004
-1.574272e-004,-3.178718e-004
-9.454585e-005,-3.708672e-004
-3.766092e-005,-4.240246e-004
1.112074e-005,-4.685925e-004
4.774750e-005,-4.966299e-004
6.816773e-005,-5.044090e-004
6.622294e-005,-4.924161e-004
4.742337e-005,-4.632444e-004
2.992031e-005,-4.232143e-004
3.850978e-005,-3.762153e-004
9.182927e-005,-3.264613e-004
1.889064e-004,-2.799486e-004
3.114278e-004,-2.491561e-004
4.384871e-004,-2.417012e-004
5.537156e-004,-2.588801e-004
6.443101e-004,-2.914552e-004
7.088122e-004,-3.241924e-004
7.580801e-004,-3.463953e-004
8.007033e-004,-3.506090e-004
8.360335e-004,-3.332680e-004
8.569400e-004,-2.940482e-004
8.491609e-004,-2.405667e-004
8.024860e-004,-1.809267e-004
7.154569e-004,-1.235555e-004
5.997422e-004,-7.444975e-005
4.838654e-004,-3.814712e-005
3.979707e-004,-1.059602e-005
3.585888e-004,1.889987e-005
3.584268e-004,6.784360e-005
3.712299e-004,1.517934e-004
3.691231e-004,2.770700e-004
3.362238e-004,4.386491e-004
2.822560e-004,6.282657e-004
2.231022e-004,8.447851e-004
1.712413e-004,1.087721e-003
1.393144e-004,1.353833e-003
1.282940e-004,1.613948e-003
1.289422e-004,1.811831e-003
1.336421e-004,1.886705e-003
1.495245e-004,1.808103e-003
1.822617e-004,1.593204e-003
2.269918e-004,1.294679e-003
2.683184e-004,9.708721e-004
2.931144e-004,6.712130e-004
2.965178e-004,4.268184e-004
2.838767e-004,2.500050e-004
2.751252e-004,1.389903e-004
2.929524e-004,8.113296e-005
3.405996e-004,6.200925e-005
3.913261e-004,6.703327e-005
4.025085e-004,8.307774e-005
3.363859e-004,1.069013e-004
1.806411e-004,1.388282e-004
-4.333321e-005,1.820997e-004
-2.867553e-004,2.342847e-004
-4.979264e-004,2.911697e-004
-6.420024e-004,3.545372e-004
-7.116905e-004,4.195254e-004
-7.210903e-004,4.762483e-004
-6.937013e-004,5.198439e-004
-6.569124e-004,5.507984e-004
-6.335750e-004,5.673291e-004
-6.368163e-004,5.668429e-004
-6.575607e-004,5.459364e-004
-6.821946e-004,4.994237e-004
-6.935392e-004,4.266563e-004
-6.838153e-004,3.295791e-004
-6.530228e-004,2.112714e-004
-6.055377e-004,8.032264e-005
-5.491390e-004,-4.576419e-005
-4.909576e-004,-1.524032e-004
-4.365036e-004,-2.321393e-004
-3.904771e-004,-2.874036e-004
-3.544986e-004,-3.254889e-004
-3.306750e-004,-3.478539e-004
-3.228959e-004,-3.604950e-004
-3.331060e-004,-3.716775e-004
-3.491504e-004,-3.898288e-004
-3.562813e-004,-4.164075e-004
-3.421817e-004,-4.478482e-004
-3.143064e-004,-4.812336e-004
-2.909690e-004,-5.181845e-004
-2.888622e-004,-5.591870e-004
-3.032860e-004,-6.048895e-004
-3.121996e-004,-6.520505e-004
-2.815692e-004,-6.940254e-004
-1.924333e-004,-7.223868e-004
-5.694670e-005,-7.329211e-004
7.983644e-005,-7.262764e-004
1.715654e-004,-7.056941e-004
1.971717e-004,-6.770085e-004
1.631380e-004,-6.488092e-004
9.118101e-005,-6.280648e-004
8.689758e-006,-6.142893e-004
-5.305713e-005,-6.032689e-004
-7.088431e-005,-5.912760e-004
