9.442231e-005,-1.157764e-004
7.384002e-005,-1.130213e-004
5.374392e-005,-1.096179e-004
3.445814e-005,-1.088076e-004
2.246531e-005,-1.104282e-004
2.197911e-005,-1.128592e-004
3.186510e-005,-1.126972e-004
5.082674e-005,-1.058904e-004
7.708133e-005,-9.324933e-005
1.077117e-004,-7.558420e-005
1.354248e-004,-5.532604e-005
1.498487e-004,-3.296103e-005
1.488763e-004,-1.124428e-005
1.440143e-004,9.013889e-006
1.581140e-004,2.635488e-005
2.034923e-004,4.045456e-005
2.735045e-004,4.969229e-005
3.474063e-004,5.196120e-005
4.065602e-004,4.677511e-005
4.360561e-004,3.786152e-005
4.274666e-004,3.170304e-005
3.744712e-004,3.235129e-005
2.812837e-004,3.607880e-005
1.665414e-004,3.721326e-005
6.006447e-005,3.073064e-005
-8.975362e-006,1.906194e-005
-2.777494e-005,9.662150e-006
-3.627206e-006,8.041497e-006
4.239934e-005,1.371378e-005
8.567078e-005,2.327564e-005
1.073875e-004,3.332369e-005
1.043083e-004,4.320967e-005
8.502253e-005,5.228533e-005
5.990240e-005,5.568870e-005
3.705119e-005,5.552663e-005
1.954813e-005,5.293359e-005
8.689758e-006,5.358185e-005
4.151929e-006,6.087479e-005
6.582909e-006,7.011252e-005
1.468618e-005,7.384002e-005
2.700314e-005,7.335383e-005
3.915804e-005,7.416415e-005
4.353380e-005,8.502253e-005
3.526847e-005,1.059290e-004
1.193106e-005,1.315353e-004
-2.161646e-005,1.534141e-004
-5.743289e-005,1.642725e-004
-8.919769e-005,1.642725e-004
-1.188556e-004,1.569795e-004
-1.506204e-004,1.482280e-004
-1.828714e-004,1.420695e-004
-2.053985e-004,1.351007e-004
-2.151224e-004,1.258630e-004
-2.164190e-004,1.130598e-004
-2.251705e-004,9.685330e-005
-2.506147e-004,7.740546e-005
-2.848105e-004,5.893001e-005
-3.078238e-004,4.531652e-005
-3.068514e-004,3.818565e-005
-2.831898e-004,3.543054e-005
-2.501286e-004,3.380988e-005
-2.243602e-004,3.251336e-005
-2.147983e-004,2.927205e-005
-2.235498e-004,2.424803e-005
-2.413770e-004,1.679302e-005
-2.556388e-004,8.365628e-006
-2.635799e-004,-1.196227e-006
-2.619593e-004,-1.010982e-005
-2.462390e-004,-1.983374e-005
-2.156086e-004,-2.988179e-005
-1.788198e-004,-4.252288e-005
-1.488377e-004,-5.678463e-005
-1.334415e-004,-7.299116e-005
-1.331174e-004,-8.854943e-005
-1.363587e-004,-9.794922e-005
-1.336036e-004,-9.827335e-005
-1.164247e-004,-9.292520e-005
-8.060823e-005,-8.644259e-005
-3.247483e-005,-8.028410e-005
1.257933e-005,-7.493595e-005
4.466826e-005,-7.137051e-005
5.974033e-005,-6.618442e-005
6.217132e-005,-6.148453e-005
6.119892e-005,-5.921561e-005
6.735741e-005,-6.083626e-005
8.810177e-005,-6.294311e-005
1.239182e-004,-5.986387e-005
1.697827e-004,-5.111234e-005
2.148369e-004,-3.879538e-005
2.464396e-004,-2.518189e-005
2.519498e-004,-1.367526e-005
2.279642e-004,-4.923729e-006
1.812893e-004,1.883015e-006
1.302388e-004,8.041497e-006
8.972242e-005,1.582063e-005
6.589881e-005,2.716521e-005
5.617490e-005,3.721326e-005
5.487838e-005,4.466826e-005
6.038860e-005,5.098881e-005
7.173317e-005,5.633696e-005
8.793970e-005,5.957827e-005
1.077117e-004,6.281957e-005
1.282940e-004,6.638502e-005
1.449867e-004,6.800567e-005
1.500107e-004,6.687121e-005
1.378558e-004,6.427817e-005
1.083599e-004,6.119892e-005
7.351589e-005,5.795762e-005
4.742337e-005,5.325772e-005
3.478228e-005,5.050261e-005
3.591673e-005,5.001642e-005
4.061663e-005,5.374392e-005
3.073064e-005,6.038860e-005
-6.176923e-008,6.395404e-005
-3.992984e-005,6.103686e-005
-6.893953e-005,5.390598e-005
-7.574627e-005,4.920609e-005
-6.164659e-005,5.131294e-005
-2.971972e-005,5.844381e-005
1.906194e-005,6.508849e-005
8.712937e-005,6.573675e-005
1.756171e-004,6.233338e-005
2.718839e-004,6.249545e-005
3.566440e-004,7.043665e-005
4.117463e-004,8.080883e-005
4.271425e-004,8.956036e-005
4.023465e-004,9.507057e-005
3.449753e-004,9.539470e-005
2.666978e-004,9.053275e-005
1.761032e-004,8.437427e-005
7.772959e-005,8.016057e-005
-1.869928e-005,7.627100e-005
-1.063766e-004,6.978839e-005
-1.806025e-004,6.200925e-005
-2.455907e-004,5.455425e-005
-3.003688e-004,4.790957e-005
-3.450988e-004,4.320967e-005
-3.760533e-004,4.175109e-005
-3.919357e-004,4.158902e-005
-3.908012e-004,4.029250e-005
-3.687603e-004,3.737532e-005
-3.209511e-004,3.121684e-005
-2.441321e-004,2.084466e-005
-1.522411e-004,1.193106e-005
-6.942573e-005,6.420843e-006
-1.983374e-005,3.989864e-006
-1.497178e-005,3.179537e-006
-4.997789e-005,-1.520357e-006
-1.060525e-004,-1.059602e-005
-1.608306e-004,-2.307504e-005
-1.895161e-004,-3.555408e-005
-1.786577e-004,-4.495386e-005
-1.305243e-004,-4.787104e-005
-5.953974e-005,-4.608832e-005
1.971020e-005,-4.236082e-005
1.020394e-004,-3.814712e-005
1.829100e-004,-3.620233e-005
2.569738e-004,-3.798505e-005
3.198552e-004,-4.203669e-005
3.713920e-004,-4.706071e-005
4.109360e-004,-5.192267e-005
4.324906e-004,-5.516398e-005
4.324906e-004,-5.581224e-005
4.138531e-004,-5.321920e-005
3.827366e-004,-4.965376e-005
3.483787e-004,-4.738484e-005
3.222862e-004,-4.835724e-005
3.099692e-004,-5.435365e-005
3.039728e-004,-6.326724e-005
2.851732e-004,-6.942573e-005
2.433604e-004,-6.910160e-005
1.856651e-004,-6.359137e-005
1.286181e-004,-5.386745e-005
8.631905e-005,-4.317115e-005
7.238143e-005,-3.393342e-005
9.150514e-005,-2.307504e-005
1.386662e-004,-6.868513e-006
1.973338e-004,1.549650e-005
2.448189e-004,4.191315e-005
2.579462e-004,6.330578e-005
2.227781e-004,7.270556e-005
1.412592e-004,7.302970e-005
3.786152e-005,7.092284e-005
-5.986387e-005,6.832980e-005
-1.310105e-004,6.492643e-005
-1.643960e-004,6.233338e-005
-1.611547e-004,6.265751e-005
-1.342519e-004,6.589881e-005
-1.010285e-004,7.092284e-005
-7.477388e-005,7.821578e-005
-6.083626e-005,8.939829e-005
-5.808115e-005,1.030118e-004
-6.375344e-005,1.166253e-004
-7.169464e-005,1.248906e-004
-7.801519e-005,1.266733e-004
-8.287715e-005,1.240803e-004
-8.644259e-005,1.175977e-004
-9.211487e-005,1.109530e-004
-9.859748e-005,1.083599e-004
-1.068628e-004,1.070634e-004
-1.154523e-004,1.033359e-004
-1.238797e-004,9.977047e-005
-1.324691e-004,9.814982e-005
-1.365208e-004,9.944634e-005
-1.332795e-004,1.002567e-004
-1.216107e-004,9.814982e-005
-1.068628e-004,8.956036e-005
-9.649064e-005,7.772959e-005
-9.438378e-005,6.557468e-005
-9.713889e-005,5.244739e-005
-9.908367e-005,3.607880e-005
-9.843541e-005,1.646890e-005
-9.794922e-005,-3.858999e-007
-1.036215e-004,-8.165035e-006
-1.229073e-004,-6.382317e-006
-1.561307e-004,3.827799e-006
-1.948643e-004,1.663096e-005
-2.245222e-004,2.489629e-005
-2.358668e-004,2.489629e-005
-2.238740e-004,1.484824e-005
-1.982676e-004,-2.330684e-006
-1.747682e-004,-2.275091e-005
-1.663408e-004,-3.960571e-005
-1.746061e-004,-4.900550e-005
-1.880575e-004,-5.030202e-005
-1.972953e-004,-4.673658e-005
-1.964849e-004,-4.284701e-005
-1.877334e-004,-4.479180e-005
-1.754164e-004,-5.370539e-005
-1.647201e-004,-6.748094e-005
-1.572651e-004,-8.109443e-005
-1.558065e-004,-8.935975e-005
-1.614788e-004,-9.260107e-005
-1.703924e-004,-9.162867e-005
-1.801163e-004,-8.935975e-005
-1.938919e-004,-8.854943e-005
-2.154466e-004,-9.162867e-005
-2.410529e-004,-9.405965e-005
-2.621213e-004,-9.422172e-005
-2.647144e-004,-9.243900e-005
-2.352185e-004,-9.405965e-005
-1.716889e-004,-9.908367e-005
-8.449780e-005,-1.047560e-004
6.744974e-006,-1.063766e-004
8.161915e-005,-1.008664e-004
1.245665e-004,-8.887356e-005
1.291043e-004,-7.574627e-005
1.044704e-004,-6.586029e-005
6.930219e-005,-5.937768e-005
4.499239e-005,-5.613637e-005
4.904402e-005,-5.597430e-005
8.453633e-005,-5.775702e-005
1.449867e-004,-5.872941e-005
2.185644e-004,-5.532604e-005
2.995970e-004,-4.592625e-005
3.867882e-004,-3.215070e-005
4.820827e-004,-1.562004e-005
5.801322e-004,5.286387e-006
6.635960e-004,2.603075e-005
7.050846e-004,4.158902e-005
6.848265e-004,5.001642e-005
6.021731e-004,5.341979e-005
4.744656e-004,5.358185e-005
3.286068e-004,5.131294e-005
1.939304e-004,4.807163e-005
9.523264e-005,4.531652e-005
4.175109e-005,4.499239e-005
2.392390e-005,4.677511e-005
2.295151e-005,5.179914e-005
2.068259e-005,5.876794e-005
9.824215e-006,6.395404e-005
-9.947754e-006,6.314371e-005
-3.733679e-005,5.649903e-005
-6.699475e-005,4.628891e-005
-9.730096e-005,3.769945e-005
-1.173971e-004,3.640293e-005
-1.135075e-004,4.369587e-005
-7.185670e-005,5.860588e-005
1.452411e-005,7.610894e-005
1.367214e-004,8.972242e-005
2.699391e-004,1.013911e-004
3.770643e-004,1.130598e-004
4.294114e-004,1.227837e-004
4.192013e-004,1.279698e-004
3.592371e-004,1.278078e-004
2.804733e-004,1.273216e-004
2.130541e-004,1.286181e-004
1.746447e-004,1.329939e-004
1.673517e-004,1.376938e-004
1.842065e-004,1.394765e-004
2.140265e-004,1.362352e-004
2.509774e-004,1.269974e-004
2.921420e-004,1.145184e-004
3.320101e-004,1.034980e-004
3.624784e-004,9.652917e-005
3.738230e-004,9.426025e-005
3.592371e-004,9.652917e-005
3.149933e-004,9.782569e-005
2.427121e-004,9.312580e-005
1.514693e-004,7.935024e-005
5.990240e-005,5.795762e-005
-9.137427e-006,3.218923e-005
-4.706071e-005,5.934648e-006
-6.342931e-005,-1.643037e-005
-7.185670e-005,-2.907146e-005
-8.401160e-005,-3.053005e-005
-1.071869e-004,-2.696461e-005
-1.400862e-004,-2.339918e-005
-1.786577e-004,-2.096820e-005
-2.193361e-004,-2.096820e-005
-2.637420e-004,-2.485776e-005
-3.178718e-004,-2.955766e-005
-3.818876e-004,-3.279896e-005
-4.481723e-004,-3.393342e-005
-5.001953e-004,-3.847125e-005
-5.236948e-004,-4.884343e-005
-5.149432e-004,-6.018800e-005
-4.817198e-004,-6.910160e-005
-4.390967e-004,-7.250496e-005
-4.018217e-004,-6.926366e-005
-3.741085e-004,-6.148453e-005
-3.528779e-004,-5.273300e-005
-3.355370e-004,-4.608832e-005
-3.237062e-004,-4.414354e-005
-3.128478e-004,-4.706071e-005
-2.909690e-004,-5.224680e-005
-2.493182e-004,-5.646050e-005
-1.916230e-004,-5.646050e-005
-1.310105e-004,-5.354332e-005
-8.725291e-005,-5.013995e-005
-7.218083e-005,-4.787104e-005
-8.190475e-005,-4.738484e-005
-9.875954e-005,-4.900550e-005
-1.065387e-004,-5.192267e-005
-9.486997e-005,-5.062615e-005
-5.791909e-005,-4.317115e-005
-5.479652e-007,-2.988179e-005
6.735741e-005,-1.335113e-005
1.389903e-004,-1.196227e-006
2.075439e-004,5.934648e-006
2.644289e-004,1.225520e-005
3.044590e-004,2.311357e-005
3.261758e-004,3.899597e-005
3.315239e-004,5.795762e-005
3.185587e-004,7.821578e-005
2.837146e-004,9.685330e-005
2.269918e-004,1.137081e-004
1.517934e-004,1.287802e-004
7.059871e-005,1.410971e-004
1.720949e-006,1.487142e-004
-4.317115e-005,1.480659e-004
-6.116039e-005,1.428799e-004
-6.083626e-005,1.399627e-004
-4.835724e-005,1.435281e-004
-3.620233e-005,1.509831e-004
-3.360929e-005,1.571416e-004
-3.863332e-005,1.558451e-004
-3.895745e-005,1.475797e-004
-2.664048e-005,1.341283e-004
-3.858999e-007,1.195424e-004
3.251336e-005,1.057669e-004
6.103686e-005,9.393612e-005
7.740546e-005,8.437427e-005
7.708133e-005,7.918817e-005
5.990240e-005,7.465034e-005
3.137890e-005,6.978839e-005
-1.682422e-006,6.476436e-005
-2.696461e-005,5.941620e-005
-3.474375e-005,5.115087e-005
-2.566809e-005,4.077869e-005
-1.027188e-005,3.137890e-005
9.106227e-007,2.635488e-005
2.623614e-007,2.878586e-005
-1.221667e-005,3.559260e-005
-3.279896e-005,4.142696e-005
-5.257093e-005,4.175109e-005
-6.504996e-005,3.834771e-005
-6.893953e-005,3.235129e-005
-6.569822e-005,2.603075e-005
-6.197072e-005,2.408596e-005
-6.067420e-005,2.813760e-005
-5.872941e-005,3.445814e-005
-5.305713e-005,3.672706e-005
-4.608832e-005,3.316162e-005
-4.074016e-005,2.829966e-005
-3.425755e-005,2.408596e-005
-2.777494e-005,2.116879e-005
-2.485776e-005,1.711715e-005
-2.437157e-005,1.338965e-005
-2.339918e-005,6.744974e-006
-1.983374e-005,-2.330684e-006
-1.578211e-005,-1.367526e-005
-1.335113e-005,-3.101625e-005
-1.399939e-005,-5.613637e-005
-1.302700e-005,-8.644259e-005
-3.627206e-006,-1.141558e-004
1.727922e-005,-1.339277e-004
4.515445e-005,-1.438137e-004
7.270556e-005,-1.462447e-004
9.150514e-005,-1.423551e-004
9.361199e-005,-1.353863e-004
8.145709e-005,-1.256624e-004
6.654708e-005,-1.128592e-004
5.844381e-005,-9.940781e-005
6.557468e-005,-8.952183e-005
8.388807e-005,-8.611845e-005
1.010670e-004,-8.611845e-005
1.086841e-004,-8.595638e-005
1.036600e-004,-8.482193e-005
9.004655e-005,-8.287715e-005
7.432621e-005,-7.688073e-005
6.038860e-005,-6.812920e-005
4.888196e-005,-5.824322e-005
3.445814e-005,-4.949169e-005
1.468618e-005,-4.122636e-005
-4.923729e-006,-3.020592e-005
-1.529591e-005,-1.788895e-005
-1.124428e-005,-5.247859e-006
7.069105e-006,7.231170e-006
3.478228e-005,2.262738e-005
6.768154e-005,3.883391e-005
1.072255e-004,5.179914e-005
1.470936e-004,6.200925e-005
1.752929e-004,6.897806e-005
1.838824e-004,7.367795e-005
1.709172e-004,7.481241e-005
1.415833e-004,7.384002e-005
1.039842e-004,7.546067e-005
6.930219e-005,8.194328e-005
5.439218e-005,9.199134e-005
6.768154e-005,9.814982e-005
1.047945e-004,9.977047e-005
1.483901e-004,1.009049e-004
1.761032e-004,1.036600e-004
1.762653e-004,1.069013e-004
1.503349e-004,1.064152e-004
1.111150e-004,9.847395e-005
7.351589e-005,8.421220e-005
4.839576e-005,7.092284e-005
3.526847e-005,6.314371e-005
2.943412e-005,6.119892e-005
3.008238e-005,6.152305e-005
4.564065e-005,6.071273e-005
8.875003e-005,5.682316e-005
1.594105e-004,4.726130e-005
2.433604e-004,3.413401e-005
3.190449e-004,2.538249e-005
3.666921e-004,2.619281e-005
3.723644e-004,3.332369e-005
3.342791e-004,4.661304e-005
2.670219e-004,6.265751e-005
1.900409e-004,7.789165e-005
1.143563e-004,8.486046e-005
4.434413e-005,8.048470e-005
-1.837515e-005,6.654708e-005
-7.169464e-005,4.612685e-005
-1.165867e-004,2.457216e-005
-1.494860e-004,6.907040e-006
-1.653684e-004,-5.571990e-006
-1.626133e-004,-1.286493e-005
-1.407345e-004,-1.545797e-005
-1.092938e-004,-1.416145e-005
-7.914964e-005,-1.254080e-005
-6.407757e-005,-9.947754e-006
-7.574627e-005,-6.868513e-006
-1.112386e-004,-5.247859e-006
-1.556445e-004,-5.734056e-006
-1.909747e-004,-1.173047e-005
-2.094502e-004,-2.437157e-005
-2.117191e-004,-3.798505e-005
-2.028055e-004,-5.176061e-005
-1.891920e-004,-6.553616e-005
-1.754164e-004,-7.769106e-005
-1.642339e-004,-8.320128e-005
-1.580754e-004,-7.833932e-005
-1.585616e-004,-6.748094e-005
-1.669890e-004,-5.937768e-005
-1.812508e-004,-6.067420e-005
-1.982676e-004,-6.845333e-005
-2.123673e-004,-7.833932e-005
-2.173914e-004,-8.709085e-005
-2.126914e-004,-9.130454e-005
-1.968091e-004,-8.854943e-005
-1.692580e-004,-7.736692e-005
-1.360346e-004,-5.921561e-005
-1.094559e-004,-4.187462e-005
-9.665270e-005,-3.101625e-005
-9.859748e-005,-2.599222e-005
-1.122110e-004,-2.404744e-005
-1.303623e-004,-2.177852e-005
-1.481895e-004,-1.448558e-005
-1.658546e-004,-1.844488e-006
-1.814128e-004,1.193106e-005
-1.972953e-004,2.214118e-005
-2.100984e-004,3.024445e-005
-2.105846e-004,3.656499e-005
-1.880575e-004,4.094075e-005
-1.389517e-004,4.256141e-005
-6.877746e-005,4.110282e-005
9.824215e-006,4.061663e-005
8.956036e-005,3.996837e-005
1.667035e-004,4.077869e-005
2.391467e-004,4.645098e-005
3.089969e-004,5.666109e-005
3.746333e-004,6.995045e-005
4.229288e-004,8.469840e-005
4.367043e-004,9.701536e-005
4.115842e-004,1.044704e-004
3.603715e-004,1.098185e-004
3.023522e-004,1.143563e-004
2.566497e-004,1.197045e-004
2.344468e-004,1.234320e-004
2.391467e-004,1.175977e-004
2.615117e-004,1.018773e-004
2.871180e-004,8.113296e-005
3.089969e-004,6.233338e-005
3.274723e-004,4.985435e-005
3.417340e-004,4.499239e-005
3.498373e-004,4.726130e-005
3.459477e-004,5.423012e-005
3.245551e-004,6.087479e-005
2.842008e-004,6.249545e-005
2.274780e-004,5.876794e-005
1.566554e-004,5.115087e-005
7.999851e-005,4.142696e-005
1.209313e-005,3.380988e-005
-3.717473e-005,3.024445e-005
-6.051213e-005,2.943412e-005
-5.354332e-005,2.748934e-005
-1.205460e-005,2.538249e-005
6.476436e-005,2.635488e-005
1.639484e-004,3.170304e-005
2.605393e-004,4.094075e-005
3.324963e-004,4.888196e-005
3.631267e-004,5.001642e-005
3.504856e-004,4.402000e-005
3.038107e-004,3.332369e-005
2.441707e-004,2.246531e-005
1.876099e-004,1.290346e-005
1.328318e-004,2.693341e-006
7.059871e-005,-5.734056e-006
-1.196227e-006,-9.623623e-006
-8.060823e-005,-9.137427e-006
-1.609926e-004,-4.275467e-006
-2.290601e-004,1.720949e-006
-2.695764e-004,6.258778e-006
-2.788141e-004,1.112074e-005
-2.663351e-004,1.484824e-005
-2.525595e-004,1.403791e-005
-2.570974e-004,7.555301e-006
-2.841623e-004,-1.034161e-006
-3.251648e-004,-9.461558e-006
-3.658432e-004,-1.756482e-005
-3.935563e-004,-2.453363e-005
-3.980942e-004,-2.793700e-005
-3.831841e-004,-2.874733e-005
-3.593606e-004,-2.777494e-005
-3.386162e-004,-2.631635e-005
-3.215994e-004,-2.826114e-005
-3.050687e-004,-3.441962e-005
-2.985861e-004,-3.992984e-005
-3.151167e-004,-3.928157e-005
-3.582261e-004,-2.955766e-005
-4.147869e-004,-1.740276e-005
-4.578962e-004,-7.840905e-006
-4.656754e-004,-8.720959e-007
-4.280762e-004,4.638125e-006
-3.514194e-004,9.175954e-006
-2.535319e-004,1.452411e-005
-1.556445e-004,2.133085e-005
-7.056019e-005,2.586868e-005
6.582909e-006,2.732727e-005
9.166720e-005,2.684107e-005
1.992786e-004,2.619281e-005
3.268240e-004,2.684107e-005
4.496696e-004,3.105477e-005
5.344298e-004,3.996837e-005
5.623050e-004,5.131294e-005
5.401021e-004,5.860588e-005
4.861343e-004,5.698522e-005
4.224426e-004,4.418206e-005
3.663680e-004,2.651694e-005
3.219621e-004,1.322759e-005
2.879283e-004,8.203562e-006
2.594049e-004,1.079661e-005
2.305572e-004,2.116879e-005
1.900409e-004,3.348575e-005
1.328318e-004,4.191315e-005
7.238143e-005,4.758544e-005
2.846173e-005,5.341979e-005
1.290346e-005,5.925414e-005
1.744129e-005,6.800567e-005
2.522042e-005,7.675720e-005
1.646890e-005,8.194328e-005
-2.210265e-005,8.113296e-005
-9.535618e-005,7.627100e-005
-1.846542e-004,6.816773e-005
-2.613110e-004,6.168512e-005
-3.058790e-004,6.022653e-005
-3.186821e-004,6.265751e-005
-3.134961e-004,6.346784e-005
-3.019894e-004,6.281957e-005
-2.891863e-004,6.427817e-005
-2.729798e-004,7.043665e-005
-2.480217e-004,7.805372e-005
-2.131776e-004,8.323981e-005
-1.666649e-004,8.291568e-005
-1.049180e-004,7.983644e-005
-2.291298e-005,7.708133e-005
8.064677e-005,7.529860e-005
1.987924e-004,7.448828e-005
3.146691e-004,7.189524e-005
4.013741e-004,5.876794e-005
4.355699e-004,3.753739e-005
4.073705e-004,1.565857e-005
3.271482e-004,-3.858999e-007
2.240746e-004,-3.465141e-006
1.323456e-004,5.934648e-006
6.849186e-005,2.197911e-005
3.624086e-005,3.786152e-005
2.586868e-005,4.823370e-005
2.035846e-005,4.985435e-005
4.151929e-006,4.628891e-005
-3.263690e-005,4.077869e-005
-8.303922e-005,3.575467e-005
-1.310105e-004,2.910999e-005
-1.640719e-004,2.068259e-005
-1.775233e-004,1.225520e-005
-1.754164e-004,8.203562e-006
-1.652063e-004,9.662150e-006
-1.551583e-004,1.679302e-005
-1.512687e-004,2.781346e-005
-1.548341e-004,3.656499e-005
-1.569410e-004,3.802358e-005
-1.496481e-004,3.154097e-005
-1.267968e-004,1.889987e-005
-9.017008e-005,8.365628e-006
-5.419158e-005,2.045080e-006
-3.377136e-005,-1.520357e-006
-3.344723e-005,-5.571990e-006
-4.754691e-005,-8.651231e-006
-6.553616e-005,-7.516774e-006
-7.574627e-005,-1.358292e-006
-6.958779e-005,5.772582e-006
-4.333321e-005,1.047248e-005
-6.868513e-006,1.209313e-005
2.214118e-005,1.047248e-005
2.846173e-005,7.231170e-006
8.689758e-006,2.369211e-006
-2.745081e-005,-5.247859e-006
-6.051213e-005,-1.675450e-005
-6.910160e-005,-3.101625e-005
-4.138842e-005,-4.722278e-005
1.922400e-005,-6.180866e-005
9.426025e-005,-7.185670e-005
1.647587e-004,-7.736692e-005
2.151610e-004,-8.255302e-005
2.357433e-004,-9.341139e-005
2.268297e-004,-1.131834e-004
1.939304e-004,-1.404103e-004
1.488763e-004,-1.692580e-004
1.054428e-004,-1.914609e-004
7.448828e-005,-2.058847e-004
6.249545e-005,-2.144742e-004
6.897806e-005,-2.193361e-004
8.583286e-005,-2.194982e-004
9.993253e-005,-2.131776e-004
1.043083e-004,-2.002124e-004
1.033359e-004,-1.815749e-004
1.085220e-004,-1.561307e-004
1.326697e-004,-1.212866e-004
1.790204e-004,-7.688073e-005
2.336365e-004,-3.101625e-005
2.752873e-004,7.393236e-006
2.892249e-004,3.056858e-005
2.796630e-004,4.045456e-005
2.608634e-004,4.596478e-005
2.410915e-004,5.196120e-005
2.224539e-004,5.585077e-005
2.023578e-004,5.520250e-005
1.777239e-004,5.423012e-005
1.480659e-004,6.022653e-005
1.206769e-004,7.497447e-005
9.944634e-005,9.798775e-005
8.161915e-005,1.226217e-004
6.525056e-005,1.425557e-004
4.661304e-005,1.540623e-004
2.278944e-005,1.577899e-004
-2.978945e-006,1.563313e-004
-2.258885e-005,1.542244e-004
-2.712668e-005,1.555210e-004
-1.983374e-005,1.608691e-004
-1.367526e-005,1.634622e-004
-2.518189e-005,1.566554e-004
-6.278104e-005,1.440143e-004
-1.229073e-004,1.291043e-004
-1.985918e-004,1.156529e-004
-2.784900e-004,1.034980e-004
-3.512573e-004,9.134307e-005
-4.078181e-004,7.643307e-005
-4.246728e-004,6.330578e-005
-3.779981e-004,5.341979e-005
-2.656868e-004,4.531652e-005
-1.148040e-004,3.948217e-005
2.846173e-005,3.656499e-005
1.308870e-004,3.688912e-005
1.798307e-004,4.320967e-005
1.931201e-004,4.774750e-005
1.997648e-004,4.515445e-005
2.172679e-004,3.316162e-005
2.368777e-004,1.549650e-005
2.367157e-004,-2.492749e-006
1.970097e-004,-1.448558e-005
1.190562e-004,-2.161646e-005
2.457216e-005,-2.501983e-005
-5.451572e-005,-3.036798e-005
-8.984595e-005,-3.960571e-005
-7.866345e-005,-4.997789e-005
-3.879538e-005,-5.743289e-005
1.002961e-007,-6.099833e-005
2.165498e-005,-6.067420e-005
2.862379e-005,-5.727083e-005
4.515445e-005,-5.338126e-005
9.879808e-005,-5.030202e-005
2.018716e-004,-4.884343e-005
3.410858e-004,-4.592625e-005
4.830550e-004,-4.106429e-005
5.986077e-004,-3.701266e-005
6.689441e-004,-3.506788e-005
6.840162e-004,-3.101625e-005
6.481997e-004,-2.453363e-005
5.705704e-004,-1.497178e-005
4.653899e-004,-6.868513e-006
3.436788e-004,-2.492749e-006
2.146748e-004,-1.196227e-006
8.680524e-005,-1.358292e-006
-2.664048e-005,-3.789272e-006
-1.143178e-004,-9.947754e-006
-1.721751e-004,-1.578211e-005
-2.084778e-004,-1.886135e-005
-2.355427e-004,-1.691656e-005
-2.558008e-004,-6.544382e-006
-2.629317e-004,7.717366e-006
-2.538560e-004,1.889987e-005
-2.225774e-004,2.489629e-005
-1.671511e-004,3.137890e-005
-9.843541e-005,4.239934e-005
-3.668853e-005,6.006447e-005
4.800190e-006,8.016057e-005
1.841368e-005,1.013911e-004
3.665733e-006,1.231079e-004
-3.296103e-005,1.422316e-004
-8.109443e-005,1.539003e-004
-1.308485e-004,1.535762e-004
-1.802784e-004,1.410971e-004
-2.313290e-004,1.226217e-004
-2.799486e-004,1.031738e-004
-3.152788e-004,8.680524e-005
-3.324577e-004,7.594687e-005
-3.326198e-004,7.124698e-005
-3.181960e-004,7.059871e-005
-2.985861e-004,7.124698e-005
-2.802727e-004,6.962632e-005
-2.666592e-004,6.281957e-005
-2.572594e-004,5.487838e-005
-2.514251e-004,4.823370e-005
-2.499665e-004,4.320967e-005
-2.562870e-004,3.850978e-005
-2.692523e-004,3.656499e-005
-2.801106e-004,3.802358e-005
-2.825416e-004,4.272347e-005
-2.757348e-004,5.179914e-005
-2.668213e-004,6.476436e-005
-2.630937e-004,8.016057e-005
-2.624455e-004,9.571884e-005
-2.616352e-004,1.083599e-004
-2.582318e-004,1.188942e-004
-2.498044e-004,1.300767e-004
-2.363530e-004,1.427178e-004
-2.216050e-004,1.535762e-004
-2.063709e-004,1.582761e-004
-1.854645e-004,1.508211e-004
-1.472171e-004,1.299146e-004
-8.757704e-005,9.928428e-005
-1.124428e-005,6.476436e-005
6.897806e-005,3.299956e-005
1.404489e-004,9.824215e-006
1.926339e-004,-3.627206e-006
2.222919e-004,-7.192643e-006
2.336365e-004,-3.858999e-007
2.355812e-004,1.338965e-005
2.349330e-004,2.408596e-005
2.383363e-004,2.408596e-005
2.514636e-004,1.193106e-005
2.718839e-004,-6.706447e-006
2.884145e-004,-2.534396e-005
2.908455e-004,-3.571614e-005
2.731804e-004,-4.041603e-005
2.396328e-004,-4.057810e-005
1.944166e-004,-4.171256e-005
1.386662e-004,-5.013995e-005
7.772959e-005,-6.586029e-005
2.278944e-005,-8.579432e-005
-1.594417e-005,-1.045939e-004
-3.960571e-005,-1.151281e-004
-5.516398e-005,-1.148040e-004
-6.504996e-005,-1.045939e-004
-7.023606e-005,-8.790117e-005
-6.731888e-005,-6.829127e-005
-5.370539e-005,-5.176061e-005
-2.955766e-005,-4.398147e-005
3.017472e-006,-4.462973e-005
3.964424e-005,-4.916756e-005
6.751948e-005,-5.305713e-005
7.789165e-005,-5.710876e-005
6.978839e-005,-6.245691e-005
5.341979e-005,-6.974985e-005
3.769945e-005,-7.655660e-005
2.975825e-005,-8.044617e-005
2.829966e-005,-7.752899e-005
2.943412e-005,-6.845333e-005
3.267542e-005,-5.613637e-005
4.158902e-005,-4.381940e-005
5.504044e-005,-3.198864e-005
6.541262e-005,-1.724069e-005
6.379197e-005,-2.006553e-006
5.406805e-005,1.322759e-005
4.628891e-005,2.765140e-005
5.682316e-005,3.932010e-005
9.344993e-005,4.790957e-005
1.443384e-004,5.034055e-005
1.937684e-004,4.726130e-005
2.261814e-004,3.996837e-005
2.360674e-004,3.186510e-005
2.269918e-004,2.684107e-005
2.054371e-004,2.667901e-005
1.761032e-004,3.154097e-005
1.385041e-004,3.899597e-005
8.826383e-005,4.726130e-005
2.732727e-005,5.260946e-005
-3.911951e-005,5.358185e-005
-1.029732e-004,5.277153e-005
-1.519170e-004,5.277153e-005
-1.729855e-004,5.504044e-005
-1.590478e-004,5.876794e-005
-1.045939e-004,6.168512e-005
-1.416145e-005,6.152305e-005
9.442231e-005,6.038860e-005
1.939304e-004,5.925414e-005
2.540567e-004,5.730935e-005
2.582704e-004,5.131294e-005
2.179161e-004,3.980630e-005
1.637863e-004,2.716521e-005
1.268354e-004,1.873781e-005
1.240803e-004,1.679302e-005
1.506590e-004,2.246531e-005
1.869616e-004,3.316162e-005
2.128921e-004,4.077869e-005
2.188885e-004,4.094075e-005
1.983062e-004,3.429608e-005
1.508211e-004,2.878586e-005
8.291568e-005,2.700314e-005
7.555301e-006,2.765140e-005
-6.148453e-005,2.748934e-005
-1.159385e-004,2.635488e-005
-1.548341e-004,2.603075e-005
-1.783336e-004,2.959619e-005
-1.849783e-004,3.364782e-005
-1.780095e-004,3.202716e-005
-1.679614e-004,2.295151e-005
-1.642339e-004,1.014835e-005
-1.686097e-004,5.864920e-007
-1.720131e-004,-1.682422e-006
-1.637477e-004,4.244267e-007
-1.391138e-004,1.883015e-006
-1.003802e-004,2.369211e-006
-5.629844e-005,-1.682422e-006
-1.351319e-005,-1.124428e-005
2.635488e-005,-2.194059e-005
6.670914e-005,-2.809907e-005
1.091703e-004,-2.453363e-005
1.493625e-004,-1.075808e-005
1.803169e-004,6.420843e-006
1.910133e-004,1.971020e-005
1.762653e-004,2.570662e-005
1.415833e-004,2.586868e-005
9.847395e-005,2.133085e-005
5.957827e-005,1.193106e-005
3.251336e-005,1.234753e-006
1.857574e-005,-6.868513e-006
1.452411e-005,-8.813297e-006
1.338965e-005,-1.682422e-006
1.225520e-005,1.274139e-005
1.565857e-005,2.748934e-005
2.765140e-005,3.445814e-005
4.758544e-005,3.073064e-005
7.043665e-005,2.149292e-005
8.923623e-005,1.355172e-005
9.685330e-005,1.047248e-005
8.875003e-005,1.419998e-005
7.238143e-005,2.327564e-005
5.909208e-005,3.575467e-005
5.374392e-005,4.564065e-005
5.423012e-005,4.855783e-005
5.341979e-005,4.547859e-005
4.450620e-005,3.705119e-005
2.732727e-005,2.570662e-005
8.851824e-006,1.598270e-005
-9.785688e-006,1.014835e-005
-2.761287e-005,1.193106e-005
-4.171256e-005,2.570662e-005
-4.560212e-005,5.147500e-005
-3.944364e-005,7.902610e-005
-3.069211e-005,9.879808e-005
-2.550602e-005,1.039842e-004
-2.469570e-005,9.507057e-005
-2.518189e-005,7.513654e-005
-2.728874e-005,5.293359e-005
-3.409549e-005,3.818565e-005
-4.446767e-005,3.478228e-005
-5.354332e-005,4.288554e-005
-5.872941e-005,5.649903e-005
-6.002594e-005,6.865393e-005
-6.035007e-005,7.691926e-005
-7.234290e-005,8.291568e-005
-1.063766e-004,8.988449e-005
-1.655305e-004,9.328786e-005
-2.376495e-004,8.712937e-005
-3.047445e-004,7.221937e-005
-3.472056e-004,5.228533e-005
-3.569296e-004,3.040651e-005
-3.379679e-004,8.689758e-006
-3.015032e-004,-7.840905e-006
-2.643903e-004,-1.934754e-005
-2.324634e-004,-2.680255e-005
-1.955125e-004,-3.296103e-005
-1.387897e-004,-3.782299e-005
-5.759496e-005,-4.138842e-005
4.061663e-005,-4.333321e-005
1.373696e-004,-4.462973e-005
2.068957e-004,-4.657452e-005
2.313675e-004,-4.997789e-005
2.112714e-004,-5.240886e-005
1.613553e-004,-5.062615e-005
1.007429e-004,-4.576419e-005
4.855783e-005,-4.236082e-005
1.582063e-005,-4.203669e-005
1.558884e-006,-4.576419e-005
-3.789272e-006,-5.224680e-005
-1.237873e-005,-5.743289e-005
-3.555408e-005,-5.483985e-005
-7.347736e-005,-4.365734e-005
-1.156143e-004,-2.955766e-005
-1.483515e-004,-1.659243e-005
-1.553203e-004,-1.189254e-005
-1.203142e-004,-1.659243e-005
-3.604027e-005,-3.004385e-005
9.101894e-005,-4.770897e-005
2.409294e-004,-6.359137e-005
4.018603e-004,-7.104638e-005
5.551741e-004,-7.169464e-005
6.731578e-004,-6.731888e-005
7.303669e-004,-5.775702e-005
7.130259e-004,-4.673658e-005
6.334517e-004,-3.636440e-005
5.248679e-004,-3.101625e-005
4.276287e-004,-3.020592e-005
3.730126e-004,-3.101625e-005
3.710679e-004,-3.020592e-005
4.028327e-004,-2.680255e-005
4.321665e-004,-2.291298e-005
4.258460e-004,-1.886135e-005
3.637749e-004,-1.270286e-005
2.525981e-004,-3.141010e-006
1.265113e-004,8.851824e-006
2.975825e-005,2.295151e-005
-3.141010e-006,3.753739e-005
3.737532e-005,4.985435e-005
1.284560e-004,5.487838e-005
2.213195e-004,5.293359e-005
2.671840e-004,4.823370e-005
2.363916e-004,4.645098e-005
1.368834e-004,4.790957e-005
3.017472e-006,5.293359e-005
-1.282554e-004,5.666109e-005
-2.319772e-004,5.374392e-005
-2.995585e-004,4.288554e-005
-3.412093e-004,2.878586e-005
-3.697327e-004,1.808955e-005
-3.920977e-004,1.744129e-005
-4.105732e-004,2.765140e-005
-4.219178e-004,4.337174e-005
-4.188385e-004,5.860588e-005
-3.917736e-004,7.124698e-005
-3.321336e-004,8.145709e-005
-2.399184e-004,8.988449e-005
-1.336036e-004,9.669123e-005
-4.122636e-005,1.005808e-004
1.954813e-005,1.041462e-004
4.175109e-005,1.125736e-004
3.105477e-005,1.278078e-004
1.002961e-007,1.470936e-004
-3.685060e-005,1.663793e-004
-7.153257e-005,1.788584e-004
-1.062146e-004,1.777239e-004
-1.425172e-004,1.607070e-004
-1.778474e-004,1.313732e-004
-2.018331e-004,1.013911e-004
-2.000504e-004,8.064677e-005
-1.718510e-004,7.043665e-005
-1.342519e-004,6.914012e-005
-1.099421e-004,6.962632e-005
-1.109144e-004,6.816773e-005
-1.345760e-004,6.314371e-005
-1.733096e-004,5.487838e-005
-2.169052e-004,4.466826e-005
-2.548284e-004,3.429608e-005
-2.862691e-004,2.376183e-005
-3.102548e-004,1.419998e-005
-3.228959e-004,4.151929e-006
-3.222476e-004,-1.010982e-005
-3.113892e-004,-2.907146e-005
-2.953447e-004,-4.657452e-005
-2.767073e-004,-5.743289e-005
-2.640662e-004,-6.229485e-005
-2.622834e-004,-6.407757e-005
-2.658489e-004,-6.715681e-005
-2.661730e-004,-7.590833e-005
-2.558008e-004,-9.227693e-005
-2.360289e-004,-1.088076e-004
-2.133397e-004,-1.177212e-004
-1.961608e-004,-1.149661e-004
-1.815749e-004,-1.031353e-004
-1.596961e-004,-8.984595e-005
-1.201522e-004,-8.028410e-005
-6.326724e-005,-7.185670e-005
2.623614e-007,-6.261898e-005
5.714729e-005,-5.548811e-005
9.523264e-005,-5.483985e-005
1.137081e-004,-5.905355e-005
1.184080e-004,-6.342931e-005
1.184080e-004,-6.261898e-005
1.250527e-004,-5.305713e-005
1.393144e-004,-3.814712e-005
1.553589e-004,-2.015787e-005
1.581140e-004,-1.196227e-006
1.339663e-004,1.614476e-005
7.999851e-005,2.797553e-005
7.069105e-006,3.494434e-005
-6.164659e-005,4.077869e-005
-9.892161e-005,5.082674e-005
-8.871149e-005,6.508849e-005
-2.874733e-005,7.951231e-005
6.330578e-005,9.020862e-005
1.584381e-004,9.928428e-005
2.281262e-004,1.070634e-004
2.521119e-004,1.167873e-004
2.237505e-004,1.310491e-004
1.517934e-004,1.483901e-004
5.909208e-005,1.629760e-004
-2.712668e-005,1.699448e-004
-8.449780e-005,1.649207e-004
-1.112386e-004,1.522796e-004
-1.169109e-004,1.417454e-004
-1.114006e-004,1.375317e-004
-9.503204e-005,1.357490e-004
-5.808115e-005,1.316974e-004
7.555301e-006,1.260251e-004
9.669123e-005,1.188942e-004
1.932822e-004,1.080358e-004
2.746390e-004,9.037068e-005
3.297412e-004,6.687121e-005
3.579406e-004,3.899597e-005
3.736609e-004,8.365628e-006
3.919743e-004,-2.177852e-005
4.148255e-004,-4.673658e-005
4.371906e-004,-6.780507e-005
4.538833e-004,-8.547019e-005
4.619866e-004,-9.989401e-005
4.657141e-004,-1.110765e-004
4.723587e-004,-1.173971e-004
4.896998e-004,-1.199901e-004
5.214646e-004,-1.203142e-004
5.598741e-004,-1.173971e-004
5.935837e-004,-1.084835e-004
6.135177e-004,-9.260107e-005
6.230795e-004,-7.218083e-005
6.266450e-004,-4.981582e-005
6.248623e-004,-2.842320e-005
6.157866e-004,-1.124428e-005
5.974732e-004,-3.303076e-006
5.783495e-004,-7.030578e-006
5.603603e-004,-1.918548e-005
5.407503e-004,-3.360929e-005
5.174129e-004,-4.090223e-005
4.820827e-004,-3.474375e-005
4.271425e-004,-1.529591e-005
3.472443e-004,1.193106e-005
2.470879e-004,3.980630e-005
1.388282e-004,6.589881e-005
3.056858e-005,8.875003e-005
-7.266703e-005,1.052807e-004
-1.653684e-004,1.135460e-004
-2.412149e-004,1.109530e-004
-2.916173e-004,1.015532e-004
-3.172236e-004,8.826383e-005
-3.254889e-004,7.416415e-005
-3.292164e-004,6.168512e-005
-3.345645e-004,5.487838e-005
-3.438023e-004,5.423012e-005
-3.583881e-004,5.585077e-005
-3.757291e-004,5.844381e-005
-3.914495e-004,6.217132e-005
-4.006872e-004,6.492643e-005
-4.011734e-004,6.476436e-005
-3.914495e-004,5.893001e-005
-3.745947e-004,4.612685e-005
-3.564434e-004,2.975825e-005
-3.418575e-004,1.533444e-005
-3.313232e-004,2.693341e-006
-3.203028e-004,-8.327101e-006
-3.053928e-004,-1.626830e-005
-2.864312e-004,-2.307504e-005
-2.661730e-004,-3.263690e-005
-2.501286e-004,-4.560212e-005
-2.434839e-004,-5.872941e-005
-2.494803e-004,-6.618442e-005
-2.669833e-004,-6.796714e-005
-2.817312e-004,-6.326724e-005
-2.836761e-004,-5.727083e-005
-2.771934e-004,-5.451572e-005
-2.650386e-004,-5.775702e-005
-2.455907e-004,-6.569822e-005
-2.193361e-004,-7.363943e-005
-1.857886e-004,-7.769106e-005
-1.514308e-004,-7.266703e-005
-1.235555e-004,-5.532604e-005
-1.054042e-004,-3.117831e-005
-9.373552e-005,-9.623623e-006
-9.049421e-005,4.313994e-006
-9.324933e-005,1.225520e-005
-9.843541e-005,1.873781e-005
-9.924574e-005,2.732727e-005
-9.778715e-005,4.191315e-005
-9.519411e-005,6.022653e-005
-8.757704e-005,7.627100e-005
-6.521203e-005,8.745350e-005
-2.971972e-005,9.069481e-005
1.079661e-005,8.550872e-005
4.596478e-005,7.400208e-005
6.525056e-005,6.589881e-005
6.492643e-005,7.140904e-005
4.953022e-005,9.231547e-005
2.278944e-005,1.200286e-004
-1.140634e-005,1.436902e-004
-5.159854e-005,1.561692e-004
-9.746302e-005,1.558451e-004
-1.496481e-004,1.454729e-004
-2.003745e-004,1.308870e-004
-2.384598e-004,1.198666e-004
-2.520733e-004,1.167873e-004
-2.360289e-004,1.237561e-004
-1.974573e-004,1.376938e-004
-1.402483e-004,1.514693e-004
-6.132246e-005,1.564933e-004
4.547859e-005,1.519555e-004
1.686482e-004,1.420695e-004
2.829043e-004,1.359110e-004
3.611819e-004,1.391524e-004
3.926226e-004,1.503349e-004
3.846814e-004,1.626518e-004
3.470822e-004,1.642725e-004
2.892249e-004,1.503349e-004
2.171058e-004,1.247285e-004
1.351007e-004,9.442231e-005
5.082674e-005,6.654708e-005
-2.777494e-005,4.434413e-005
-9.341139e-005,2.700314e-005
-1.418689e-004,1.176900e-005
-1.723372e-004,-7.030578e-006
-1.786577e-004,-3.198864e-005
-1.535376e-004,-5.743289e-005
-9.000802e-005,-7.704279e-005
2.045080e-006,-8.903562e-005
9.620504e-005,-9.794922e-005
1.680000e-004,-1.089697e-004
2.075439e-004,-1.225832e-004
2.200230e-004,-1.370070e-004
2.190506e-004,-1.506204e-004
2.184023e-004,-1.642339e-004
2.198609e-004,-1.765509e-004
2.122438e-004,-1.853024e-004
1.853410e-004,-1.883817e-004
1.381800e-004,-1.859507e-004
7.870197e-005,-1.802784e-004
2.295151e-005,-1.726613e-004
-1.205460e-005,-1.653684e-004
-1.529591e-005,-1.551583e-004
1.598270e-005,-1.384655e-004
7.562274e-005,-1.191798e-004
1.498487e-004,-9.908367e-005
2.148369e-004,-8.077030e-005
2.498430e-004,-6.132246e-005
2.425500e-004,-4.203669e-005
1.916615e-004,-2.307504e-005
1.104668e-004,-9.461558e-006
2.133085e-005,-2.168618e-006
-5.095028e-005,-2.168618e-006
-9.179074e-005,-6.382317e-006
-1.045939e-004,-8.327101e-006
-1.024871e-004,-7.100305e-007
-1.041077e-004,1.484824e-005
-1.173971e-004,3.380988e-005
-1.425172e-004,5.406805e-005
-1.697442e-004,7.497447e-005
-1.856265e-004,9.069481e-005
-1.870851e-004,1.009049e-004
-1.807646e-004,1.086841e-004
-1.729855e-004,1.120874e-004
-1.647201e-004,1.094944e-004
-1.502963e-004,1.031738e-004
-1.251762e-004,9.977047e-005
-8.871149e-005,1.043083e-004
-5.062615e-005,1.187321e-004
-1.902341e-005,1.389903e-004
4.244267e-007,1.603829e-004
1.176900e-005,1.759412e-004
2.052053e-005,1.806411e-004
3.283749e-005,1.754550e-004
5.293359e-005,1.615174e-004
8.793970e-005,1.425557e-004
1.482280e-004,1.222976e-004
2.441707e-004,1.009049e-004
3.746333e-004,8.016057e-005
5.222749e-004,6.038860e-005
6.592202e-004,3.899597e-005
7.546768e-004,1.112074e-005
7.948689e-004,-2.242678e-005
7.885484e-004,-5.613637e-005
7.567836e-004,-8.660465e-005
7.073536e-004,-1.151281e-004
6.328035e-004,-1.433275e-004
5.298919e-004,-1.734716e-004
4.034809e-004,-2.032917e-004
2.641047e-004,-2.335979e-004
1.213252e-004,-2.632558e-004
-1.189254e-005,-2.862691e-004
-1.216107e-004,-2.984240e-004
-2.006986e-004,-2.955068e-004
-2.575835e-004,-2.765452e-004
-3.066893e-004,-2.457528e-004
-3.569296e-004,-2.079916e-004
-4.086284e-004,-1.665028e-004
-4.478482e-004,-1.191798e-004
-4.593548e-004,-6.569822e-005
-4.397449e-004,-2.978945e-006
-3.985804e-004,6.735741e-005
-3.506090e-004,1.376938e-004
-3.110651e-004,1.976579e-004
-2.843243e-004,2.433604e-004
-2.679557e-004,2.748010e-004
-2.553146e-004,2.908455e-004
-2.408908e-004,2.869559e-004
-2.207947e-004,2.619979e-004
-1.979435e-004,2.190506e-004
-1.760647e-004,1.694586e-004
-1.548341e-004,1.206769e-004
-1.305243e-004,7.594687e-005
-1.086455e-004,3.672706e-005
-1.044318e-004,-2.238346e-007
-1.261486e-004,-4.106429e-005
-1.712027e-004,-8.822530e-005
-2.216050e-004,-1.383035e-004
-2.627696e-004,-1.857886e-004
-2.835140e-004,-2.282497e-004
-2.760590e-004,-2.588801e-004
-2.355427e-004,-2.762210e-004
-1.575893e-004,-2.856209e-004
-4.025397e-005,-2.877277e-004
1.051186e-004,-2.788141e-004
2.503292e-004,-2.569353e-004
3.743092e-004,-2.240360e-004
4.639314e-004,-1.835197e-004
5.083373e-004,-1.405724e-004
5.047718e-004,-9.616651e-005
4.627969e-004,-5.046408e-005
4.007258e-004,-2.816880e-006
3.362238e-004,4.499239e-005
2.830664e-004,8.696731e-005
2.500050e-004,1.182459e-004
2.386605e-004,1.391524e-004
2.425500e-004,1.548727e-004
2.491947e-004,1.699448e-004
2.466017e-004,1.871237e-004
2.284504e-004,2.023578e-004
2.036544e-004,2.125679e-004
1.880961e-004,2.169437e-004
1.966855e-004,2.190506e-004
2.406053e-004,2.222919e-004
3.190449e-004,2.303951e-004
4.130428e-004,2.417397e-004
4.914824e-004,2.535705e-004
5.240576e-004,2.624841e-004
4.858102e-004,2.655633e-004
3.756057e-004,2.634565e-004
2.180782e-004,2.551911e-004
4.661304e-005,2.435224e-004
-1.114006e-004,2.278021e-004
-2.379736e-004,2.119197e-004
-3.266234e-004,1.979821e-004
-3.839945e-004,1.859892e-004
-4.237005e-004,1.773998e-004
-4.535205e-004,1.757791e-004
-4.771820e-004,1.812893e-004
-4.954954e-004,1.905271e-004
-5.045711e-004,1.965235e-004
-5.006815e-004,1.952270e-004
-4.862577e-004,1.825859e-004
-4.619479e-004,1.639484e-004
-4.280762e-004,1.440143e-004
-3.849669e-004,1.313732e-004
-3.331060e-004,1.265113e-004
-2.728177e-004,1.266733e-004
-2.110708e-004,1.265113e-004
-1.635857e-004,1.229458e-004
-1.449482e-004,1.153287e-004
-1.574272e-004,1.044704e-004
-1.870851e-004,9.555677e-005
-2.097743e-004,8.875003e-005
-1.958367e-004,8.145709e-005
-1.269589e-004,7.367795e-005
-6.706447e-006,6.670914e-005
1.328318e-004,6.022653e-005
2.446569e-004,5.358185e-005
2.911697e-004,4.774750e-005
2.642668e-004,4.304761e-005
1.845306e-004,4.142696e-005
8.972242e-005,4.094075e-005
9.662150e-006,4.045456e-005
-4.754691e-005,3.996837e-005
-8.158062e-005,3.688912e-005
-8.725291e-005,2.797553e-005
-6.002594e-005,1.079661e-005
-9.137427e-006,-9.947754e-006
4.175109e-005,-2.728874e-005
6.573675e-005,-3.960571e-005
4.823370e-005,-4.949169e-005
-5.571990e-006,-6.067420e-005
-6.845333e-005,-7.137051e-005
-1.092938e-004,-8.012204e-005
-1.126972e-004,-8.449780e-005
-8.287715e-005,-8.352541e-005
-3.879538e-005,-8.239095e-005
-3.465141e-006,-8.660465e-005
1.322759e-005,-9.730096e-005
9.986281e-006,-1.109144e-004
-3.627206e-006,-1.229073e-004
-1.886135e-005,-1.284175e-004
-3.328516e-005,-1.267968e-004
-4.851930e-005,-1.195039e-004
-6.278104e-005,-1.092938e-004
-7.380149e-005,-1.002181e-004
-7.866345e-005,-9.486997e-005
-7.817725e-005,-9.422172e-005
-7.347736e-005,-9.989401e-005
-6.602235e-005,-1.086455e-004
-5.727083e-005,-1.144799e-004
-4.965376e-005,-1.156143e-004
-4.398147e-005,-1.139937e-004
-3.263690e-005,-1.133454e-004
-1.173047e-005,-1.118868e-004
1.582063e-005,-1.115627e-004
3.996837e-005,-1.162626e-004
5.179914e-005,-1.203142e-004
4.580272e-005,-1.165867e-004
2.230325e-005,-1.036215e-004
-9.299493e-006,-8.871149e-005
-3.587821e-005,-7.736692e-005
-4.787104e-005,-6.958779e-005
-5.078821e-005,-6.180866e-005
-4.981582e-005,-5.046408e-005
-4.414354e-005,-3.717473e-005
-3.555408e-005,-2.453363e-005
-1.837515e-005,-1.140634e-005
1.922400e-005,3.179537e-006
8.145709e-005,1.646890e-005
1.577899e-004,2.376183e-005
2.252090e-004,2.343770e-005
2.637806e-004,2.068259e-005
2.618358e-004,2.100672e-005
2.218057e-004,2.700314e-005
1.581140e-004,3.591673e-005
9.053275e-005,4.466826e-005
3.802358e-005,4.790957e-005
1.322759e-005,4.564065e-005
1.679302e-005,3.899597e-005
3.251336e-005,2.975825e-005
4.256141e-005,2.116879e-005
4.628891e-005,1.614476e-005
5.974033e-005,1.128280e-005
1.020394e-004,5.610517e-006
1.731861e-004,-2.330684e-006
2.568118e-004,-1.205460e-005
3.308757e-004,-2.275091e-005
3.767402e-004,-3.150244e-005
3.890571e-004,-3.393342e-005
3.738230e-004,-3.134038e-005
3.402755e-004,-2.339918e-005
2.958695e-004,-1.010982e-005
2.466017e-004,4.476060e-006
1.927960e-004,1.501031e-005
1.357490e-004,1.598270e-005
7.967438e-005,1.014835e-005
2.910999e-005,2.045080e-006
-1.967167e-005,-3.789272e-006
-7.120844e-005,-4.599598e-006
-1.243659e-004,3.989864e-006
-1.718510e-004,2.230325e-005
-1.990780e-004,4.320967e-005
-1.927574e-004,6.119892e-005
-1.532135e-004,7.384002e-005
-9.049421e-005,7.935024e-005
-2.680255e-005,8.080883e-005
1.744129e-005,8.016057e-005
3.283749e-005,8.048470e-005
2.214118e-005,8.242948e-005
-1.358292e-006,8.405014e-005
-1.886135e-005,8.194328e-005
-1.351319e-005,7.384002e-005
1.403791e-005,5.876794e-005
5.066468e-005,3.850978e-005
8.599492e-005,1.646890e-005
1.130598e-004,-3.789272e-006
1.292664e-004,-2.210265e-005
1.389903e-004,-3.506788e-005
1.503349e-004,-3.911951e-005
1.730240e-004,-3.458168e-005
2.125679e-004,-2.518189e-005
2.663737e-004,-1.886135e-005
3.269861e-004,-1.853722e-005
3.850055e-004,-2.339918e-005
4.331389e-004,-3.393342e-005
4.644175e-004,-4.754691e-005
4.707381e-004,-5.905355e-005
4.488593e-004,-6.391550e-005
4.010500e-004,-5.986387e-005
3.333067e-004,-4.835724e-005
2.553532e-004,-3.539201e-005
1.799928e-004,-2.696461e-005
1.154908e-004,-2.242678e-005
6.298164e-005,-1.950961e-005
1.987227e-005,-1.918548e-005
-1.902341e-005,-2.275091e-005
-5.905355e-005,-2.550602e-005
-1.044318e-004,-2.226472e-005
-1.530514e-004,-1.043395e-005
-2.016710e-004,7.717366e-006
-2.391081e-004,3.186510e-005
-2.530457e-004,5.633696e-005
-2.360289e-004,7.594687e-005
-1.922712e-004,9.069481e-005
-1.439758e-004,1.007429e-004
-1.133454e-004,1.049566e-004
-1.102662e-004,1.036600e-004
-1.271210e-004,9.831188e-005
-1.483515e-004,9.020862e-005
-1.582375e-004,8.518459e-005
-1.485136e-004,8.680524e-005
-1.199901e-004,9.458438e-005
-7.817725e-005,1.077117e-004
-3.441962e-005,1.222976e-004
-6.868513e-006,1.349386e-004
-8.327101e-006,1.422316e-004
-3.944364e-005,1.415833e-004
-9.000802e-005,1.346145e-004
-1.433275e-004,1.229458e-004
-1.865989e-004,1.072255e-004
-2.073433e-004,9.101894e-005
-2.016710e-004,8.194328e-005
-1.783336e-004,8.064677e-005
-1.478653e-004,8.129502e-005
-1.267968e-004,7.724339e-005
-1.253383e-004,6.784360e-005
-1.438137e-004,5.617490e-005
-1.710407e-004,4.434413e-005
-1.935677e-004,3.089271e-005
-2.032917e-004,1.695509e-005
-1.990780e-004,3.017472e-006
-1.900023e-004,-7.516774e-006
-1.890299e-004,-1.432352e-005
-2.159328e-004,-1.756482e-005
-2.809209e-004,-2.323711e-005
-3.736223e-004,-3.668853e-005
-4.736166e-004,-5.500191e-005
-5.565940e-004,-7.331530e-005
-6.045654e-004,-8.320128e-005
-6.133168e-004,-8.077030e-005
-5.896553e-004,-6.699475e-005
-5.442770e-004,-4.738484e-005
-4.867439e-004,-2.939559e-005
-4.224039e-004,-1.691656e-005
-3.556330e-004,-5.085794e-006
-2.861070e-004,8.527692e-006
-2.112329e-004,2.052053e-005
-1.272830e-004,2.748934e-005
-3.279896e-005,2.765140e-005
6.687121e-005,1.922400e-005
1.636242e-004,2.693341e-006
2.503292e-004,-1.335113e-005
3.346032e-004,-1.950961e-005
4.279528e-004,-1.578211e-005
5.360505e-004,-7.354709e-006
6.494962e-004,1.002961e-007
7.459252e-004,3.665733e-006
7.976240e-004,2.207145e-006
7.870898e-004,-2.238346e-007
7.139983e-004,2.045080e-006
6.028214e-004,1.014835e-005
4.931031e-004,2.278944e-005
4.138531e-004,3.283749e-005
3.816021e-004,3.445814e-005
3.984569e-004,3.154097e-005
4.491834e-004,2.910999e-005
5.026649e-004,2.732727e-005
5.289196e-004,2.651694e-005
5.073649e-004,2.700314e-005
4.362182e-004,2.846173e-005
3.256896e-004,2.910999e-005
1.908512e-004,2.992031e-005
4.774750e-005,3.251336e-005
-8.871149e-005,4.094075e-005
-2.044261e-004,5.034055e-005
-2.861070e-004,5.423012e-005
-3.251648e-004,5.309566e-005
-3.164132e-004,4.920609e-005
-2.570974e-004,4.661304e-005
-1.590478e-004,4.790957e-005
-4.576419e-005,5.504044e-005
4.936815e-005,6.622294e-005
9.750156e-005,8.048470e-005
8.453633e-005,9.636710e-005
1.517237e-005,1.107909e-004
-8.660465e-005,1.179218e-004
-1.856265e-004,1.120874e-004
-2.592042e-004,9.620504e-005
-3.031239e-004,7.627100e-005
-3.241924e-004,6.233338e-005
-3.266234e-004,5.828175e-005
-3.074997e-004,6.330578e-005
-2.595283e-004,7.108491e-005
-1.841680e-004,7.918817e-005
-9.486997e-005,8.972242e-005
-4.923729e-006,1.044704e-004
8.129502e-005,1.197045e-004
1.686482e-004,1.308870e-004
2.603772e-004,1.339663e-004
3.527545e-004,1.273216e-004
4.310321e-004,1.122495e-004
4.777069e-004,9.231547e-005
4.820827e-004,7.011252e-005
4.511282e-004,5.179914e-005
3.966742e-004,3.834771e-005
3.401134e-004,2.457216e-005
3.017039e-004,7.393236e-006
2.811216e-004,-1.108221e-005
2.511395e-004,-2.615429e-005
1.851789e-004,-3.150244e-005
7.967438e-005,-2.615429e-005
-4.738484e-005,-1.367526e-005
-1.715269e-004,1.396819e-006
-2.617972e-004,1.371378e-005
-2.958309e-004,1.841368e-005
-2.731418e-004,1.630683e-005
-2.136638e-004,9.338019e-006
-1.483515e-004,2.693341e-006
-1.016767e-004,1.720949e-006
-8.012204e-005,4.800190e-006
-7.898758e-005,1.031041e-005
-9.470791e-005,1.549650e-005
-1.287416e-004,1.825161e-005
-1.793060e-004,1.598270e-005
-2.360289e-004,7.231170e-006
-2.867553e-004,-1.358292e-006
-3.211132e-004,-9.461558e-006
-3.360231e-004,-1.675450e-005
-3.356990e-004,-2.080613e-005
-3.300267e-004,-1.869928e-005
-3.274337e-004,-1.140634e-005
-3.327818e-004,-2.168618e-006
-3.426678e-004,5.864920e-007
-3.489884e-004,-5.571990e-006
-3.460712e-004,-1.383732e-005
-3.371576e-004,-1.756482e-005
-3.253268e-004,-1.837515e-005
-3.143064e-004,-1.869928e-005
-3.034480e-004,-1.983374e-005
-2.930758e-004,-1.869928e-005
-2.877277e-004,-1.643037e-005
-2.896725e-004,-1.707863e-005
-2.951827e-004,-2.356124e-005
-3.027998e-004,-3.296103e-005
-3.097686e-004,-4.625038e-005
-3.071755e-004,-6.083626e-005
-2.833519e-004,-7.866345e-005
-2.306807e-004,-9.989401e-005
-1.536997e-004,-1.208004e-004
-6.375344e-005,-1.387897e-004
2.295151e-005,-1.494860e-004
9.523264e-005,-1.507825e-004
1.496866e-004,-1.525652e-004
1.832341e-004,-1.618029e-004
1.981441e-004,-1.773612e-004
2.017096e-004,-1.903264e-004
2.062474e-004,-1.940539e-004
2.282883e-004,-1.893541e-004
2.850112e-004,-1.786577e-004
3.791712e-004,-1.643960e-004
5.008822e-004,-1.488377e-004
6.294001e-004,-1.303623e-004
7.379840e-004,-1.060525e-004
8.089686e-004,-7.720486e-005
8.293889e-004,-4.430560e-005
7.921138e-004,-9.947754e-006
7.011951e-004,2.149292e-005
5.773771e-004,4.223728e-005
4.490213e-004,4.790957e-005
3.367100e-004,4.369587e-005
2.556773e-004,3.624086e-005
2.137024e-004,3.299956e-005
2.096508e-004,3.883391e-005
2.313675e-004,5.601284e-005
2.592428e-004,7.902610e-005
2.726942e-004,1.054428e-004
2.547049e-004,1.289422e-004
1.989545e-004,1.441764e-004
1.119254e-004,1.508211e-004
7.231170e-006,1.511452e-004
-9.195280e-005,1.537382e-004
-1.614788e-004,1.631380e-004
-1.836818e-004,1.790204e-004
-1.536997e-004,1.965235e-004
-8.109443e-005,2.077060e-004
6.744974e-006,2.119197e-004
7.756752e-005,2.077060e-004
1.120874e-004,1.936063e-004
1.143563e-004,1.722137e-004
1.010670e-004,1.467694e-004
8.242948e-005,1.203528e-004
5.649903e-005,1.004187e-004
2.262738e-005,9.020862e-005
-1.075808e-005,8.858796e-005
-2.372331e-005,8.875003e-005
-6.176923e-008,8.486046e-005
6.071273e-005,7.935024e-005
1.412592e-004,7.400208e-005
2.159713e-004,6.816773e-005
2.692908e-004,6.249545e-005
3.012177e-004,5.990240e-005
3.154794e-004,5.763349e-005
3.044590e-004,5.455425e-005
2.532463e-004,4.953022e-005
1.524417e-004,4.288554e-005
1.630683e-005,3.380988e-005
-1.300382e-004,2.441009e-005
-2.624455e-004,1.663096e-005
-3.626019e-004,1.193106e-005
-4.230522e-004,1.095867e-005
-4.455793e-004,8.527692e-006
-4.379622e-004,2.531276e-006
-4.108973e-004,-7.192643e-006
-3.736223e-004,-1.902341e-005
-3.389403e-004,-3.231277e-005
-3.118754e-004,-4.738484e-005
-2.891863e-004,-6.213279e-005
-2.677937e-004,-7.120844e-005
-2.418632e-004,-7.218083e-005
-2.131776e-004,-6.683268e-005
-1.841680e-004,-5.694670e-005
-1.588858e-004,-4.592625e-005
-1.379794e-004,-3.749886e-005
-1.237176e-004,-3.360929e-005
-1.206384e-004,-3.409549e-005
-1.368449e-004,-3.571614e-005
-1.754164e-004,-3.506788e-005
-2.267911e-004,-3.296103e-005
-2.663351e-004,-3.004385e-005
-2.697385e-004,-2.566809e-005
-2.222533e-004,-2.064406e-005
-1.242038e-004,-1.480971e-005
7.879432e-006,-7.678839e-006
1.482280e-004,3.665733e-006
2.662116e-004,1.436204e-005
3.336308e-004,2.327564e-005
3.329825e-004,3.267542e-005
2.607014e-004,4.369587e-005
1.368834e-004,5.179914e-005
-7.516774e-006,5.617490e-005
-1.408965e-004,5.714729e-005
-2.340841e-004,5.163707e-005
-2.718453e-004,3.591673e-005
-2.574215e-004,1.679302e-005
-2.133397e-004,8.041497e-006
-1.676373e-004,1.436204e-005
-1.358725e-004,3.137890e-005
-1.159385e-004,4.709924e-005
-9.195280e-005,5.698522e-005
-6.099833e-005,6.444023e-005
-3.069211e-005,7.335383e-005
-1.237873e-005,8.356394e-005
-1.335113e-005,8.923623e-005
-2.501983e-005,8.793970e-005
-3.328516e-005,7.740546e-005
-3.458168e-005,6.395404e-005
-4.252288e-005,5.390598e-005
-7.509801e-005,4.742337e-005
-1.326312e-004,4.612685e-005
-1.987538e-004,5.098881e-005
-2.514251e-004,6.427817e-005
-2.791382e-004,8.615699e-005
-2.736280e-004,1.088461e-004
-2.331117e-004,1.210010e-004
-1.572651e-004,1.141943e-004
-5.159854e-005,9.150514e-005
6.735741e-005,6.119892e-005
1.783722e-004,3.348575e-005
2.629703e-004,1.565857e-005
3.156415e-004,1.160693e-005
3.504856e-004,2.149292e-005
3.874365e-004,3.688912e-005
4.443214e-004,4.888196e-005
5.191956e-004,4.888196e-005
5.965008e-004,3.656499e-005
6.580857e-004,1.614476e-005
6.911471e-004,-8.327101e-006
6.939021e-004,-3.571614e-005
6.695924e-004,-6.715681e-005
6.274553e-004,-1.037836e-004
5.788357e-004,-1.371690e-004
5.292437e-004,-1.590478e-004
4.777069e-004,-1.665028e-004
4.211461e-004,-1.671511e-004
3.530786e-004,-1.686097e-004
2.684805e-004,-1.729855e-004
1.701068e-004,-1.794681e-004
6.346784e-005,-1.812508e-004
-3.879538e-005,-1.721751e-004
-1.238797e-004,-1.483515e-004
-1.833576e-004,-1.136696e-004
-2.248464e-004,-7.461182e-005
-2.650386e-004,-3.733679e-005
-3.147926e-004,-7.516774e-006
-3.729740e-004,8.365628e-006
-4.339106e-004,1.176900e-005
-4.940368e-004,9.338019e-006
-5.496252e-004,7.555301e-006
-5.987309e-004,6.744974e-006
-6.403818e-004,7.879432e-006
-6.676087e-004,1.241726e-005
-6.749016e-004,1.906194e-005
-6.570745e-004,2.700314e-005
-6.055377e-004,3.251336e-005
-5.167259e-004,3.494434e-005
-3.929081e-004,3.705119e-005
-2.504527e-004,4.288554e-005
-1.062146e-004,5.050261e-005
2.894792e-005,5.649903e-005
1.477418e-004,5.811968e-005
2.391467e-004,5.763349e-005
2.861456e-004,5.811968e-005
2.795009e-004,5.990240e-005
2.248849e-004,6.411610e-005
1.479039e-004,6.832980e-005
7.546067e-005,6.622294e-005
3.089271e-005,5.682316e-005
2.068259e-005,4.434413e-005
3.672706e-005,3.543054e-005
6.622294e-005,3.283749e-005
9.944634e-005,3.624086e-005
1.315353e-004,4.320967e-005
1.692965e-004,5.617490e-005
2.179161e-004,7.497447e-005
2.756114e-004,9.085688e-005
3.459477e-004,9.766362e-005
4.297355e-004,9.393612e-005
5.300540e-004,8.469840e-005
6.464170e-004,7.448828e-005
7.645627e-004,6.589881e-005
8.606675e-004,6.119892e-005
9.091251e-004,5.925414e-005
8.883807e-004,6.103686e-005
7.924379e-004,6.152305e-005
6.386379e-004,5.763349e-005
4.589073e-004,5.034055e-005
2.890628e-004,4.223728e-005
1.558451e-004,3.834771e-005
6.832980e-005,4.142696e-005
1.711715e-005,4.871989e-005
-1.950961e-005,5.747142e-005
-6.067420e-005,6.654708e-005
-1.130213e-004,7.562274e-005
-1.726613e-004,8.550872e-005
-2.318152e-004,9.215340e-005
-2.844864e-004,9.166720e-005
-3.266234e-004,8.194328e-005
-3.583881e-004,6.719535e-005
-3.744326e-004,5.293359e-005
-3.737844e-004,4.320967e-005
-3.601709e-004,3.915804e-005
-3.421817e-004,3.705119e-005
-3.227338e-004,3.251336e-005
-2.998826e-004,2.343770e-005
-2.736280e-004,1.565857e-005
-2.489941e-004,1.322759e-005
-2.327876e-004,1.808955e-005
-2.323013e-004,2.862379e-005
-2.423494e-004,4.175109e-005
-2.533699e-004,5.277153e-005
-2.637420e-004,5.795762e-005
-2.715212e-004,5.568870e-005
-2.708729e-004,4.547859e-005
-2.564491e-004,2.716521e-005
-2.264670e-004,4.962256e-006
-1.887058e-004,-1.545797e-005
-1.533756e-004,-2.907146e-005
-1.258245e-004,-3.279896e-005
-1.029732e-004,-2.955766e-005
-8.012204e-005,-2.680255e-005
-5.435365e-005,-3.312309e-005
-3.117831e-005,-5.159854e-005
-1.432352e-005,-7.558420e-005
-8.327101e-006,-9.470791e-005
-1.432352e-005,-9.584238e-005
-2.923353e-005,-8.028410e-005
-4.122636e-005,-5.483985e-005
-3.620233e-005,-2.745081e-005
-1.059602e-005,-3.141010e-006
2.813760e-005,1.565857e-005
6.930219e-005,2.700314e-005
9.863601e-005,3.089271e-005
1.083599e-004,2.522042e-005
1.030118e-004,4.476060e-006
9.053275e-005,-2.842320e-005
7.708133e-005,-6.667062e-005
6.362991e-005,-1.011905e-004
5.098881e-005,-1.282554e-004
4.175109e-005,-1.462447e-004
4.612685e-005,-1.583996e-004
7.254349e-005,-1.679614e-004
1.206769e-004,-1.759026e-004
1.769136e-004,-1.853024e-004
2.146748e-004,-1.914609e-004
2.101370e-004,-1.912988e-004
1.618415e-004,-1.799543e-004
8.988449e-005,-1.551583e-004
1.371378e-005,-1.199901e-004
-5.240886e-005,-7.931171e-005
-9.486997e-005,-4.106429e-005
-9.422172e-005,-9.137427e-006
-4.576419e-005,1.792748e-005
3.332369e-005,4.564065e-005
1.143563e-004,7.367795e-005
1.765894e-004,9.944634e-005
2.112714e-004,1.153287e-004
2.109473e-004,1.175977e-004
1.701068e-004,1.122495e-004
9.507057e-005,1.093323e-004
6.096713e-006,1.125736e-004
-7.558420e-005,1.179218e-004
-1.370070e-004,1.211631e-004
-1.713648e-004,1.213252e-004
-1.754164e-004,1.198666e-004
-1.514308e-004,1.185701e-004
-1.136696e-004,1.172735e-004
-8.093236e-005,1.133840e-004
-6.829127e-005,1.064152e-004
-7.947377e-005,9.798775e-005
-1.073490e-004,9.247754e-005
-1.413827e-004,9.296373e-005
-1.703924e-004,9.944634e-005
-1.885437e-004,1.085220e-004
-1.887058e-004,1.153287e-004
-1.695821e-004,1.188942e-004
-1.373311e-004,1.182459e-004
-1.041077e-004,1.150046e-004
-7.769106e-005,1.119254e-004
-6.310517e-005,1.069013e-004
-5.646050e-005,1.022015e-004
-5.030202e-005,9.717743e-005
-4.187462e-005,9.134307e-005
-3.069211e-005,8.599492e-005
-8.813297e-006,7.853991e-005
4.256141e-005,6.914012e-005
1.329939e-004,6.249545e-005
2.511395e-004,5.763349e-005
3.673404e-004,5.406805e-005
4.572867e-004,4.904402e-005
5.065545e-004,4.142696e-005
5.115786e-004,3.251336e-005
4.767345e-004,2.505836e-005
4.099636e-004,1.808955e-005
3.226103e-004,1.355172e-005
2.214815e-004,9.338019e-006
1.151667e-004,5.610517e-006
2.052053e-005,4.151929e-006
-4.625038e-005,6.744974e-006
-7.866345e-005,1.468618e-005
-8.514606e-005,2.651694e-005
-8.514606e-005,3.737532e-005
-9.405965e-005,4.223728e-005
-1.146419e-004,4.158902e-005
-1.381414e-004,3.445814e-005
-1.460826e-004,2.246531e-005
-1.289037e-004,6.096713e-006
-9.065628e-005,-1.124428e-005
-4.868137e-005,-2.356124e-005
-2.291298e-005,-2.874733e-005
-2.291298e-005,-2.793700e-005
-4.381940e-005,-2.258885e-005
-6.634648e-005,-1.416145e-005
-7.607040e-005,-3.789272e-006
-6.504996e-005,6.258778e-006
-3.296103e-005,1.128280e-005
1.873781e-005,1.095867e-005
9.085688e-005,7.717366e-006
1.748067e-004,3.827799e-006
2.521119e-004,2.623614e-007
3.080245e-004,-4.923729e-006
3.362238e-004,-1.075808e-005
3.427064e-004,-1.173047e-005
3.376824e-004,-5.571990e-006
3.297412e-004,5.864920e-007
3.203414e-004,5.864920e-007
3.104554e-004,-6.220252e-006
2.979764e-004,-1.707863e-005
2.778803e-004,-2.907146e-005
2.427121e-004,-3.685060e-005
1.879340e-004,-4.122636e-005
1.158149e-004,-4.122636e-005
3.980630e-005,-3.701266e-005
-2.258885e-005,-3.053005e-005
-5.775702e-005,-2.485776e-005
-6.569822e-005,-2.113026e-005
-5.889148e-005,-1.756482e-005
-5.111234e-005,-1.367526e-005
-4.657452e-005,-1.010982e-005
-4.462973e-005,-5.409925e-006
-4.009191e-005,2.693341e-006
-3.166451e-005,1.403791e-005
-1.902341e-005,2.603075e-005
-1.682422e-006,3.786152e-005
1.290346e-005,4.855783e-005
1.841368e-005,5.844381e-005
9.338019e-006,6.670914e-005
-1.643037e-005,7.238143e-005
-6.472583e-005,7.270556e-005
-1.358725e-004,6.865393e-005
-2.165810e-004,6.071273e-005
-2.870794e-004,5.325772e-005
-3.373197e-004,4.758544e-005
-3.655190e-004,4.175109e-005
-3.705430e-004,3.202716e-005
-3.429920e-004,2.214118e-005
-2.781658e-004,1.679302e-005
-1.806025e-004,2.262738e-005
-7.169464e-005,3.802358e-005
2.424803e-005,5.698522e-005
8.453633e-005,7.319176e-005
1.033359e-004,8.275361e-005
8.664318e-005,8.405014e-005
4.758544e-005,8.242948e-005
3.179537e-006,8.097089e-005
-3.247483e-005,7.756752e-005
-5.467778e-005,6.687121e-005
-6.586029e-005,4.531652e-005
-7.120844e-005,1.711715e-005
-7.477388e-005,-7.516774e-006
-7.817725e-005,-1.886135e-005
-8.206682e-005,-1.513384e-005
-8.709085e-005,-2.492749e-006
-9.632857e-005,9.986281e-006
-1.123730e-004,1.436204e-005
-1.366828e-004,7.069105e-006
-1.652063e-004,-1.059602e-005
-1.862748e-004,-3.344723e-005
-1.911368e-004,-5.694670e-005
-1.731475e-004,-7.477388e-005
-1.360346e-004,-8.303922e-005
-1.015147e-004,-8.320128e-005
-9.713889e-005,-8.077030e-005
-1.347380e-004,-7.736692e-005
-2.068571e-004,-7.331530e-005
-2.961551e-004,-6.423963e-005
-3.849669e-004,-5.338126e-005
-4.590307e-004,-4.090223e-005
-5.016539e-004,-2.566809e-005
-4.946851e-004,-7.192643e-006
-4.196489e-004,9.338019e-006
-2.668213e-004,1.954813e-005
-4.317115e-005,2.278944e-005
2.132162e-004,2.052053e-005
4.496696e-004,2.019640e-005
6.141660e-004,2.376183e-005
6.786680e-004,2.667901e-005
6.546823e-004,2.829966e-005
5.731634e-004,2.278944e-005
4.692795e-004,8.041497e-006
3.728506e-004,-1.108221e-005
2.978143e-004,-2.664048e-005
2.461155e-004,-3.198864e-005
2.137024e-004,-2.388537e-005
1.934442e-004,-4.599598e-006
1.819376e-004,1.663096e-005
1.809652e-004,2.943412e-005
1.898788e-004,3.105477e-005
2.015475e-004,2.522042e-005
2.070577e-004,1.646890e-005
2.004130e-004,7.393236e-006
1.761032e-004,-7.100305e-007
1.357490e-004,-8.651231e-006
8.761557e-005,-2.064406e-005
4.061663e-005,-3.733679e-005
-3.858999e-007,-5.565017e-005
-2.971972e-005,-7.250496e-005
-4.349527e-005,-8.384954e-005
-3.895745e-005,-8.968389e-005
-1.999580e-005,-9.260107e-005
5.934648e-006,-9.503204e-005
2.862379e-005,-9.665270e-005
4.110282e-005,-8.919769e-005
4.061663e-005,-7.072225e-005
2.927205e-005,-3.992984e-005
9.986281e-006,5.864920e-007
-8.489166e-006,4.547859e-005
-2.080613e-005,8.712937e-005
-2.501983e-005,1.195424e-004
-2.372331e-005,1.402868e-004
-1.950961e-005,1.503349e-004
-1.578211e-005,1.517934e-004
-1.351319e-005,1.508211e-004
-1.027188e-005,1.504969e-004
-2.168618e-006,1.534141e-004
1.112074e-005,1.573037e-004
2.052053e-005,1.582761e-004
2.457216e-005,1.587623e-004
2.975825e-005,1.607070e-004
4.045456e-005,1.620036e-004
5.277153e-005,1.584381e-004
6.654708e-005,1.487142e-004
8.826383e-005,1.349386e-004
1.214872e-004,1.221355e-004
1.676758e-004,1.158149e-004
2.294227e-004,1.171115e-004
3.070520e-004,1.224596e-004
3.906778e-004,1.312112e-004
4.561522e-004,1.428799e-004
4.781931e-004,1.545486e-004
4.409181e-004,1.621656e-004
3.457857e-004,1.608691e-004
2.167816e-004,1.453108e-004
8.664318e-005,1.166253e-004
-1.497178e-005,8.064677e-005
-7.396356e-005,4.353380e-005
-9.568031e-005,1.290346e-005
-9.600444e-005,-7.678839e-006
-9.519411e-005,-2.194059e-005
-1.075111e-004,-3.117831e-005
-1.374932e-004,-3.992984e-005
-1.802784e-004,-4.835724e-005
-2.308428e-004,-5.435365e-005
-2.887001e-004,-5.840528e-005
-3.494746e-004,-5.953974e-005
-4.036044e-004,-6.067420e-005
-4.379622e-004,-6.488790e-005
-4.501171e-004,-7.169464e-005
-4.446069e-004,-8.028410e-005
-4.245108e-004,-8.741498e-005
-3.848048e-004,-9.033215e-005
-3.186821e-004,-8.871149e-005
-2.308428e-004,-8.547019e-005
-1.292278e-004,-8.028410e-005
-2.890940e-005,-6.926366e-005
5.390598e-005,-4.997789e-005
1.056048e-004,-2.518189e-005
1.166253e-004,-3.627206e-006
9.101894e-005,4.962256e-006
4.175109e-005,4.244267e-007
-9.137427e-006,-1.497178e-005
-4.090223e-005,-3.377136e-005
-3.847125e-005,-4.689865e-005
-3.858999e-007,-5.305713e-005
5.439218e-005,-5.646050e-005
9.960841e-005,-5.921561e-005
1.169494e-004,-6.067420e-005
9.993253e-005,-6.132246e-005
5.649903e-005,-6.002594e-005
2.207145e-006,-6.067420e-005
-4.787104e-005,-6.164659e-005
-8.579432e-005,-6.180866e-005
-1.096179e-004,-5.905355e-005
-1.178833e-004,-5.386745e-005
-1.096179e-004,-4.641245e-005
-8.806324e-005,-3.847125e-005
-5.483985e-005,-2.858527e-005
-1.124428e-005,-1.724069e-005
3.478228e-005,-4.113403e-006
6.687121e-005,1.128280e-005
7.286763e-005,2.846173e-005
5.471631e-005,4.450620e-005
2.700314e-005,5.568870e-005
8.203562e-006,6.168512e-005
1.938607e-005,6.541262e-005
7.238143e-005,7.108491e-005
1.670276e-004,7.594687e-005
2.877662e-004,8.097089e-005
4.047775e-004,8.875003e-005
4.814344e-004,9.847395e-005
4.874308e-004,1.041462e-004
4.180668e-004,1.015532e-004
2.968419e-004,9.507057e-005
1.658931e-004,8.696731e-005
6.492643e-005,8.097089e-005
1.306552e-005,8.226741e-005
9.106227e-007,9.085688e-005
1.883015e-006,1.022015e-004
-9.299493e-006,1.133840e-004
-4.608832e-005,1.218114e-004
-1.042698e-004,1.269974e-004
-1.757406e-004,1.308870e-004
-2.468872e-004,1.321835e-004
-3.045825e-004,1.278078e-004
-3.413713e-004,1.180839e-004
-3.575778e-004,1.059290e-004
-3.519055e-004,9.604298e-005
-3.254889e-004,9.150514e-005
-2.796244e-004,9.280167e-005
-2.146363e-004,1.004187e-004
-1.311726e-004,1.116012e-004
-2.907146e-005,1.179218e-004
9.150514e-005,1.167873e-004
2.149989e-004,1.052807e-004
3.198552e-004,8.502253e-005
3.955397e-004,6.298164e-005
4.367043e-004,4.515445e-005
4.396215e-004,3.380988e-005
4.042913e-004,3.121684e-005
3.360618e-004,3.380988e-005
2.461155e-004,3.316162e-005
1.479039e-004,2.813760e-005
4.904402e-005,1.614476e-005
-3.895745e-005,-3.789272e-006
-1.091317e-004,-2.583016e-005
-1.585616e-004,-4.479180e-005
-1.841680e-004,-6.116039e-005
-1.869231e-004,-7.396356e-005
-1.793060e-004,-8.174268e-005
-1.747682e-004,-8.514606e-005
-1.780095e-004,-8.741498e-005
-1.853024e-004,-9.227693e-005
-1.883817e-004,-9.697683e-005
-1.771992e-004,-9.908367e-005
-1.470550e-004,-9.470791e-005
-1.028112e-004,-8.498399e-005
-5.953974e-005,-7.218083e-005
-3.166451e-005,-5.905355e-005
-2.647842e-005,-5.208474e-005
-4.219875e-005,-5.224680e-005
-8.093236e-005,-5.516398e-005
-1.361966e-004,-5.986387e-005
-1.943781e-004,-6.715681e-005
-2.415391e-004,-7.671866e-005
-2.632558e-004,-8.417367e-005
-2.556388e-004,-8.887356e-005
-2.227395e-004,-9.276313e-005
-1.767130e-004,-9.422172e-005
-1.284175e-004,-9.162867e-005
-8.968389e-005,-8.514606e-005
-6.099833e-005,-7.704279e-005
-4.009191e-005,-6.602235e-005
-2.874733e-005,-5.240886e-005
-2.647842e-005,-4.074016e-005
-2.745081e-005,-3.685060e-005
-2.372331e-005,-4.236082e-005
-1.043395e-005,-5.078821e-005
8.689758e-006,-5.143648e-005
2.716521e-005,-3.782299e-005
4.402000e-005,-1.254080e-005
5.860588e-005,1.257933e-005
6.995045e-005,2.910999e-005
8.064677e-005,3.186510e-005
8.939829e-005,2.619281e-005
9.101894e-005,1.971020e-005
7.886404e-005,1.776542e-005
5.374392e-005,1.938607e-005
2.019640e-005,2.019640e-005
-9.623623e-006,2.100672e-005
-1.853722e-005,2.522042e-005
4.638125e-006,3.299956e-005
6.200925e-005,3.867184e-005
1.543865e-004,4.207521e-005
2.757735e-004,4.693717e-005
4.086671e-004,5.471631e-005
5.180612e-004,6.573675e-005
5.720290e-004,7.724339e-005
5.648981e-004,8.583286e-005
5.083373e-004,9.085688e-005
4.256839e-004,9.555677e-005
3.488649e-004,1.022015e-004
3.064038e-004,1.057669e-004
3.138588e-004,1.036600e-004
3.645853e-004,9.296373e-005
4.394595e-004,7.902610e-005
5.247059e-004,6.816773e-005
6.131936e-004,6.379197e-005
7.067053e-004,6.298164e-005
8.037825e-004,6.022653e-005
8.862739e-004,5.293359e-005
9.267902e-004,4.483033e-005
9.045873e-004,3.753739e-005
8.177201e-004,3.380988e-005
6.788301e-004,3.121684e-005
5.157923e-004,2.603075e-005
3.556717e-004,1.776542e-005
2.161334e-004,1.387585e-005
1.060910e-004,1.484824e-005
2.278944e-005,1.727922e-005
-4.106429e-005,1.679302e-005
-9.730096e-005,1.549650e-005
-1.536997e-004,1.646890e-005
-2.122053e-004,1.792748e-005
-2.713591e-004,1.646890e-005
-3.254889e-004,1.128280e-005
-3.750809e-004,2.623614e-007
-4.228902e-004,-1.902341e-005
-4.677822e-004,-4.252288e-005
-5.099192e-004,-6.261898e-005
-5.488148e-004,-7.201877e-005
-5.812279e-004,-6.780507e-005
-6.019723e-004,-4.965376e-005
-6.100755e-004,-2.485776e-005
-6.055377e-004,-1.520357e-006
-5.898174e-004,1.371378e-005
-5.664800e-004,1.679302e-005
-5.392530e-004,7.717366e-006
-5.144570e-004,-6.058186e-006
-4.909576e-004,-1.545797e-005
-4.635685e-004,-1.675450e-005
-4.232143e-004,-1.075808e-005
-3.650328e-004,-5.479652e-007
-2.914552e-004,9.013889e-006
-2.188499e-004,1.727922e-005
-1.690959e-004,2.197911e-005
-1.553203e-004,2.214118e-005
-1.770371e-004,1.760335e-005
-2.243602e-004,8.689758e-006
-2.822175e-004,-2.238346e-007
-3.314853e-004,-4.923729e-006
-3.507711e-004,-4.923729e-006
-3.327818e-004,-1.844488e-006
-2.844864e-004,-1.196227e-006
-2.240360e-004,-1.682422e-006
-1.700683e-004,-3.465141e-006
-1.371690e-004,-5.896120e-006
-1.308485e-004,-1.205460e-005
-1.499722e-004,-2.275091e-005
-1.835197e-004,-3.425755e-005
-2.190120e-004,-4.333321e-005
-2.410529e-004,-5.078821e-005
-2.392702e-004,-5.613637e-005
-2.123673e-004,-5.581224e-005
-1.720131e-004,-4.819517e-005
-1.276072e-004,-3.117831e-005
-7.882551e-005,-7.354709e-006
-1.918548e-005,2.149292e-005
5.341979e-005,5.293359e-005
1.360731e-004,8.356394e-005
2.175920e-004,1.094944e-004
2.790148e-004,1.258630e-004
3.059176e-004,1.268354e-004
2.948972e-004,1.163011e-004
2.632944e-004,9.928428e-005
2.365536e-004,8.680524e-005
2.347709e-004,8.307774e-005
2.548670e-004,8.534666e-005
2.791768e-004,9.134307e-005
2.923041e-004,9.474644e-005
2.879283e-004,9.101894e-005
2.707494e-004,7.870197e-005
2.621599e-004,6.508849e-005
2.804733e-004,5.601284e-005
3.367100e-004,5.325772e-005
4.213082e-004,5.536457e-005
5.094717e-004,6.233338e-005
5.694359e-004,7.286763e-005
5.739738e-004,8.356394e-005
5.102821e-004,9.458438e-005
3.957018e-004,1.044704e-004
2.650771e-004,1.104668e-004
1.487142e-004,1.107909e-004
6.119892e-005,1.077117e-004
-5.571990e-006,9.960841e-005
-6.991193e-005,8.761557e-005
-1.498101e-004,7.594687e-005
-2.428356e-004,6.800567e-005
-3.180339e-004,6.022653e-005
-3.371576e-004,5.374392e-005
-2.765452e-004,4.661304e-005
-1.486757e-004,3.753739e-005
1.002961e-007,2.522042e-005
1.232699e-004,1.128280e-005
1.921477e-004,-2.006553e-006
1.916615e-004,-1.270286e-005
1.328318e-004,-2.064406e-005
4.029250e-005,-2.437157e-005
-5.581224e-005,-2.420950e-005
-1.336036e-004,-2.080613e-005
-1.788198e-004,-1.691656e-005
-1.862748e-004,-1.383732e-005
-1.645581e-004,-8.327101e-006
-1.302002e-004,1.234753e-006
-1.024871e-004,7.555301e-006
-9.081835e-005,6.582909e-006
-9.341139e-005,-6.176923e-008
-1.034594e-004,-1.043395e-005
-1.125351e-004,-2.242678e-005
-1.199901e-004,-3.231277e-005
-1.250141e-004,-3.895745e-005
-1.264727e-004,-4.138842e-005
-1.232314e-004,-4.171256e-005
-1.143178e-004,-4.203669e-005
-1.028112e-004,-4.203669e-005
-9.568031e-005,-4.138842e-005
-9.875954e-005,-3.766092e-005
-1.144799e-004,-2.761287e-005
-1.337657e-004,-1.367526e-005
-1.412206e-004,-6.176923e-008
-1.233935e-004,1.063454e-005
-7.704279e-005,1.825161e-005
-1.335113e-005,2.586868e-005
4.628891e-005,3.397195e-005
8.599492e-005,4.304761e-005
9.588091e-005,5.439218e-005
6.865393e-005,6.557468e-005
9.338019e-006,7.221937e-005
-6.180866e-005,6.946425e-005
-1.157764e-004,5.730935e-005
-1.276072e-004,4.385793e-005
-8.206682e-005,3.462021e-005
2.165498e-005,2.878586e-005
1.574657e-004,2.732727e-005
2.838767e-004,3.283749e-005
3.655576e-004,4.547859e-005
3.851676e-004,6.314371e-005
3.535648e-004,8.064677e-005
2.973281e-004,9.280167e-005
2.472499e-004,9.847395e-005
2.187264e-004,9.977047e-005
2.125679e-004,9.733949e-005
2.206712e-004,9.377406e-005
2.294227e-004,9.215340e-005
2.333123e-004,9.134307e-005
2.271538e-004,8.777764e-005
2.098128e-004,7.902610e-005
1.803169e-004,6.670914e-005
1.456350e-004,5.682316e-005
1.193804e-004,5.131294e-005
1.062531e-004,5.196120e-005
1.049566e-004,5.795762e-005
1.044704e-004,6.654708e-005
9.490851e-005,7.270556e-005
7.497447e-005,7.286763e-005
5.358185e-005,6.638502e-005
4.077869e-005,5.698522e-005
4.304761e-005,5.001642e-005
6.460230e-005,4.304761e-005
1.025256e-004,3.575467e-005
1.417454e-004,3.105477e-005
1.589243e-004,3.040651e-005
1.422316e-004,3.413401e-005
9.555677e-005,4.223728e-005
3.624086e-005,4.969229e-005
-1.432352e-005,5.196120e-005
-4.284701e-005,4.677511e-005
-4.981582e-005,3.380988e-005
-4.608832e-005,1.825161e-005
-4.673658e-005,2.369211e-006
-6.440170e-005,-1.189254e-005
-1.028112e-004,-2.874733e-005
-1.507825e-004,-5.321920e-005
-1.867610e-004,-8.563225e-005
-1.904885e-004,-1.235555e-004
-1.473791e-004,-1.627754e-004
-5.872941e-005,-1.934057e-004
5.196120e-005,-2.096122e-004
1.521176e-004,-2.075054e-004
2.099749e-004,-1.929195e-004
2.010613e-004,-1.762268e-004
1.271595e-004,-1.632615e-004
1.160693e-005,-1.571031e-004
-1.084835e-004,-1.533756e-004
-2.023193e-004,-1.441378e-004
-2.561249e-004,-1.266348e-004
-2.713591e-004,-1.045939e-004
-2.587180e-004,-8.222889e-005
-2.331117e-004,-5.694670e-005
-2.083157e-004,-3.279896e-005
-1.901644e-004,-1.480971e-005
-1.835197e-004,-5.571990e-006
-1.880575e-004,-3.303076e-006
-1.917850e-004,-2.816880e-006
-1.822232e-004,-4.437533e-006
-1.541859e-004,-7.192643e-006
-1.101041e-004,-8.002969e-006
-5.710876e-005,-2.330684e-006
-4.923729e-006,6.420843e-006
4.029250e-005,1.225520e-005
7.465034e-005,1.257933e-005
9.782569e-005,7.555301e-006
1.111150e-004,-8.720959e-007
1.184080e-004,-1.173047e-005
1.307250e-004,-2.453363e-005
1.574657e-004,-3.668853e-005
2.007372e-004,-4.300908e-005
2.453052e-004,-4.074016e-005
2.786906e-004,-3.117831e-005
3.015418e-004,-1.659243e-005
3.177483e-004,-7.100305e-007
3.203414e-004,1.436204e-005
3.042970e-004,2.943412e-005
2.694529e-004,4.499239e-005
2.216436e-004,6.200925e-005
1.655690e-004,7.724339e-005
1.081979e-004,8.518459e-005
6.233338e-005,8.518459e-005
3.526847e-005,7.886404e-005
2.181705e-005,7.238143e-005
8.041497e-006,7.108491e-005
-1.221667e-005,7.691926e-005
-3.863332e-005,8.745350e-005
-6.893953e-005,9.685330e-005
-1.018388e-004,1.049566e-004
-1.392759e-004,1.083599e-004
-1.799543e-004,1.070634e-004
-2.117191e-004,1.018773e-004
-2.196603e-004,9.442231e-005
-1.997262e-004,8.761557e-005
-1.574272e-004,8.469840e-005
-1.054042e-004,8.664318e-005
-6.294311e-005,9.199134e-005
-4.398147e-005,9.361199e-005
-5.078821e-005,8.777764e-005
-7.785312e-005,7.789165e-005
-1.135075e-004,6.865393e-005
-1.446240e-004,6.217132e-005
-1.574272e-004,6.022653e-005
-1.387897e-004,6.589881e-005
-8.287715e-005,7.967438e-005
9.986281e-006,9.620504e-005
1.299146e-004,1.099806e-004
2.556773e-004,1.138702e-004
3.537269e-004,1.067393e-004
3.937570e-004,9.652917e-005
3.649094e-004,8.972242e-005
2.790148e-004,8.988449e-005
1.561692e-004,9.134307e-005
2.651694e-005,9.085688e-005
-8.352541e-005,9.085688e-005
-1.606685e-004,9.020862e-005
-2.089640e-004,8.631905e-005
-2.361909e-004,7.562274e-005
-2.486699e-004,5.828175e-005
-2.457528e-004,3.705119e-005
-2.229016e-004,1.565857e-005
-1.797922e-004,-1.520357e-006
-1.178833e-004,-1.351319e-005
-4.252288e-005,-2.145439e-005
3.462021e-005,-2.388537e-005
9.701536e-005,-2.145439e-005
1.253768e-004,-1.416145e-005
1.051186e-004,-6.706447e-006
4.077869e-005,-1.844488e-006
-4.560212e-005,-2.238346e-007
-1.269589e-004,-2.654814e-006
-1.825473e-004,-5.571990e-006
-2.050744e-004,-8.327101e-006
-1.953505e-004,-1.254080e-005
-1.611547e-004,-1.853722e-005
-1.185315e-004,-2.647842e-005
-8.547019e-005,-3.539201e-005
-7.428769e-005,-3.992984e-005
-7.979791e-005,-3.749886e-005
-8.968389e-005,-3.036798e-005
-9.276313e-005,-2.437157e-005
-8.482193e-005,-2.258885e-005
-6.083626e-005,-2.485776e-005
-1.837515e-005,-3.150244e-005
3.543054e-005,-3.895745e-005
9.134307e-005,-4.236082e-005
1.467694e-004,-4.155049e-005
2.004130e-004,-3.766092e-005
2.435224e-004,-3.247483e-005
2.628082e-004,-2.842320e-005
2.581083e-004,-2.923353e-005
2.482223e-004,-3.150244e-005
2.581083e-004,-3.279896e-005
2.908455e-004,-3.004385e-005
3.206656e-004,-2.583016e-005
3.230965e-004,-2.096820e-005
2.919800e-004,-1.545797e-005
2.362295e-004,-9.137427e-006
1.754550e-004,-7.100305e-007
1.310491e-004,9.500085e-006
1.080358e-004,1.987227e-005
9.669123e-005,2.829966e-005
8.113296e-005,3.397195e-005
4.839576e-005,3.850978e-005
2.693341e-006,4.353380e-005
-4.090223e-005,4.628891e-005
-6.926366e-005,4.466826e-005
-7.396356e-005,3.932010e-005
-5.289507e-005,3.299956e-005
-1.448558e-005,3.235129e-005
2.181705e-005,3.932010e-005
4.483033e-005,5.244739e-005
4.596478e-005,6.606088e-005
2.797553e-005,7.772959e-005
-5.479652e-007,8.680524e-005
-3.182657e-005,8.745350e-005
-6.148453e-005,7.562274e-005
-8.773911e-005,5.601284e-005
-1.118868e-004,3.397195e-005
-1.352242e-004,1.857574e-005
-1.571031e-004,1.290346e-005
-1.705545e-004,1.582063e-005
-1.671511e-004,2.278944e-005
-1.460826e-004,3.218923e-005
-1.164247e-004,3.915804e-005
-9.065628e-005,4.239934e-005
-7.769106e-005,4.272347e-005
-7.979791e-005,3.964424e-005
-9.422172e-005,3.575467e-005
-1.133454e-004,3.348575e-005
-1.298761e-004,3.235129e-005
-1.418689e-004,3.510641e-005
-1.549962e-004,4.126489e-005
-1.755785e-004,4.661304e-005
-2.099363e-004,4.239934e-005
-2.545043e-004,2.829966e-005
-2.987481e-004,9.986281e-006
-3.245165e-004,-9.785688e-006
-3.160891e-004,-2.631635e-005
-2.664971e-004,-3.717473e-005
-1.854645e-004,-3.879538e-005
-9.762509e-005,-3.506788e-005
-2.745081e-005,-3.020592e-005
1.144487e-005,-2.971972e-005
1.257933e-005,-3.506788e-005
-1.610624e-005,-4.738484e-005
-5.338126e-005,-6.407757e-005
-7.266703e-005,-8.352541e-005
-5.759496e-005,-1.049180e-004
-4.923729e-006,-1.263107e-004
6.427817e-005,-1.405724e-004
1.250527e-004,-1.478653e-004
1.657311e-004,-1.504584e-004
1.903650e-004,-1.504584e-004
2.073819e-004,-1.485136e-004
2.222919e-004,-1.478653e-004
2.388225e-004,-1.506204e-004
2.632944e-004,-1.556445e-004
2.953834e-004,-1.567789e-004
3.250413e-004,-1.447861e-004
3.389789e-004,-1.183694e-004
3.308757e-004,-8.028410e-005
3.125623e-004,-3.506788e-005
3.025142e-004,1.193106e-005
3.049452e-004,5.260946e-005
3.117519e-004,7.740546e-005
3.106175e-004,8.356394e-005
2.913317e-004,7.594687e-005
2.449810e-004,6.573675e-005
1.726999e-004,6.314371e-005
8.242948e-005,7.659513e-005
-1.335113e-005,1.025256e-004
-9.551824e-005,1.304008e-004
-1.532135e-004,1.493625e-004
-1.807646e-004,1.539003e-004
-1.784957e-004,1.446626e-004
-1.509446e-004,1.284560e-004
-1.060525e-004,1.184080e-004
-5.727083e-005,1.185701e-004
-1.967167e-005,1.276457e-004
-2.168618e-006,1.427178e-004
-3.465141e-006,1.603829e-004
-1.302700e-005,1.743205e-004
-1.740276e-005,1.799928e-004
-1.010982e-005,1.782101e-004
7.069105e-006,1.720516e-004
2.894792e-005,1.660552e-004
5.439218e-005,1.574657e-004
7.659513e-005,1.457970e-004
9.004655e-005,1.328318e-004
8.858796e-005,1.211631e-004
6.897806e-005,1.104668e-004
3.526847e-005,1.012291e-004
-5.409925e-006,9.069481e-005
-4.511593e-005,8.113296e-005
-7.995997e-005,7.481241e-005
-1.071869e-004,7.270556e-005
-1.243659e-004,7.092284e-005
-1.297140e-004,7.011252e-005
-1.167488e-004,6.978839e-005
-6.683268e-005,6.800567e-005
2.781346e-005,6.476436e-005
1.482280e-004,6.314371e-005
2.558394e-004,6.379197e-005
3.077003e-004,6.314371e-005
2.837146e-004,5.828175e-005
1.997648e-004,5.082674e-005
9.393612e-005,3.996837e-005
-4.761664e-006,3.105477e-005
-9.081835e-005,2.570662e-005
-1.673132e-004,2.214118e-005
-2.295462e-004,1.598270e-005
-2.663351e-004,4.313994e-006
-2.681178e-004,-1.335113e-005
-2.384598e-004,-3.393342e-005
-1.844921e-004,-5.289507e-005
-1.144799e-004,-6.731888e-005
-4.252288e-005,-7.558420e-005
1.144487e-005,-7.671866e-005
2.878586e-005,-7.218083e-005
2.045080e-006,-6.910160e-005
-5.370539e-005,-6.942573e-005
-1.057284e-004,-7.104638e-005
-1.336036e-004,-6.910160e-005
-1.323071e-004,-6.294311e-005
-1.076731e-004,-5.565017e-005
-6.359137e-005,-4.657452e-005
1.396819e-006,-3.782299e-005
8.242948e-005,-2.826114e-005
1.662173e-004,-2.015787e-005
2.425500e-004,-1.432352e-005
3.195311e-004,-9.299493e-006
4.115842e-004,-4.599598e-006
5.157923e-004,-2.238346e-007
6.060627e-004,5.124321e-006
6.483617e-004,9.662150e-006
6.238899e-004,9.986281e-006
5.337815e-004,2.369211e-006
4.067223e-004,-8.651231e-006
2.822560e-004,-1.480971e-005
1.931201e-004,-1.383732e-005
1.474177e-004,-1.205460e-005
1.316974e-004,-1.497178e-005
1.192183e-004,-2.518189e-005
8.875003e-005,-3.604027e-005
3.786152e-005,-4.041603e-005
-2.048200e-005,-3.425755e-005
-6.521203e-005,-2.323711e-005
-8.547019e-005,-1.205460e-005
-8.077030e-005,-3.789272e-006
-5.597430e-005,1.558884e-006
-1.659243e-005,5.286387e-006
2.700314e-005,1.079661e-005
6.832980e-005,1.598270e-005
1.005808e-004,1.776542e-005
1.179218e-004,1.501031e-005
1.099806e-004,1.031041e-005
7.643307e-005,5.772582e-006
2.392390e-005,3.503668e-006
-3.458168e-005,8.203562e-006
-8.952183e-005,2.100672e-005
-1.405724e-004,4.077869e-005
-1.870851e-004,6.038860e-005
-2.250084e-004,7.254349e-005
-2.511010e-004,7.837785e-005
-2.621213e-004,7.951231e-005
-2.595283e-004,7.789165e-005
-2.485079e-004,7.578480e-005
-2.314910e-004,7.205730e-005
-2.066950e-004,6.865393e-005
-1.715269e-004,6.719535e-005
-1.242038e-004,7.043665e-005
-6.877746e-005,7.675720e-005
-1.805102e-005,8.502253e-005
9.338019e-006,9.053275e-005
3.503668e-006,8.907416e-005
-2.323711e-005,8.129502e-005
-4.738484e-005,7.076078e-005
-5.386745e-005,6.152305e-005
-4.009191e-005,5.552663e-005
-1.205460e-005,4.823370e-005
2.619281e-005,3.769945e-005
6.865393e-005,2.359977e-005
1.047945e-004,7.717366e-006
1.235941e-004,-7.840905e-006
1.167873e-004,-2.258885e-005
7.529860e-005,-3.782299e-005
-3.789272e-006,-5.289507e-005
-1.157764e-004,-6.294311e-005
-2.428356e-004,-6.634648e-005
-3.559572e-004,-6.164659e-005
-4.279142e-004,-4.868137e-005
-4.460655e-004,-3.069211e-005
-4.211074e-004,-9.623623e-006
-3.784843e-004,8.203562e-006
-3.473677e-004,1.808955e-005
-3.355370e-004,1.841368e-005
-3.309991e-004,1.031041e-005
-3.170615e-004,-3.465141e-006
-2.893484e-004,-2.080613e-005
-2.532078e-004,-3.733679e-005
-2.198223e-004,-4.738484e-005
-1.958367e-004,-4.527799e-005
-1.763888e-004,-3.393342e-005
-1.554824e-004,-1.902341e-005
-1.248521e-004,-6.544382e-006
-7.801519e-005,2.693341e-006
-9.461558e-006,6.096713e-006
7.902610e-005,4.962256e-006
1.728619e-004,-3.858999e-007
2.480603e-004,-5.409925e-006
2.929524e-004,-6.058186e-006
3.075383e-004,-2.330684e-006
2.984626e-004,4.800190e-006
2.717218e-004,1.484824e-005
2.316917e-004,2.230325e-005
1.853410e-004,2.554455e-005
1.410971e-004,2.262738e-005
1.007429e-004,1.031041e-005
5.828175e-005,-7.192643e-006
1.306552e-005,-2.372331e-005
-2.826114e-005,-3.393342e-005
-6.213279e-005,-3.409549e-005
-9.049421e-005,-2.599222e-005
-1.169109e-004,-1.351319e-005
-1.412206e-004,-2.330684e-006
-1.588858e-004,5.864920e-007
-1.652063e-004,-4.923729e-006
-1.556445e-004,-1.691656e-005
-1.264727e-004,-3.685060e-005
-8.190475e-005,-6.002594e-005
-2.323711e-005,-8.401160e-005
4.726130e-005,-1.044318e-004
1.218114e-004,-1.185315e-004
1.817755e-004,-1.277692e-004
2.112714e-004,-1.308485e-004
2.028440e-004,-1.284175e-004
1.605450e-004,-1.201522e-004
1.077117e-004,-1.071869e-004
6.849186e-005,-9.162867e-005
6.346784e-005,-7.607040e-005
1.009049e-004,-5.694670e-005
1.686482e-004,-2.501983e-005
2.422259e-004,2.165498e-005
2.940868e-004,7.837785e-005
3.078624e-004,1.363972e-004
2.856594e-004,1.848548e-004
2.422259e-004,2.180782e-004
1.949028e-004,2.357433e-004
1.551968e-004,2.419018e-004
1.257009e-004,2.417397e-004
1.070634e-004,2.350950e-004
9.474644e-005,2.219677e-004
8.437427e-005,2.068957e-004
6.962632e-005,1.921477e-004
5.277153e-005,1.791825e-004
3.737532e-005,1.683241e-004
2.570662e-005,1.615174e-004
1.889987e-005,1.592484e-004
1.889987e-005,1.579519e-004
2.505836e-005,1.576278e-004
3.299956e-005,1.598967e-004
3.462021e-005,1.616794e-004
2.570662e-005,1.608691e-004
3.827799e-006,1.558451e-004
-3.117831e-005,1.457970e-004
-7.104638e-005,1.323456e-004
-1.021629e-004,1.158149e-004
-1.097800e-004,9.296373e-005
-9.000802e-005,6.541262e-005
-5.127441e-005,4.013043e-005
-9.785688e-006,2.505836e-005
2.376183e-005,2.149292e-005
5.034055e-005,2.035846e-005
7.205730e-005,1.582063e-005
8.502253e-005,6.744974e-006
8.340187e-005,-2.654814e-006
6.946425e-005,-1.092015e-005
4.645098e-005,-1.837515e-005
1.452411e-005,-2.647842e-005
-2.291298e-005,-3.944364e-005
-5.370539e-005,-5.970181e-005
-6.423963e-005,-8.611845e-005
-5.305713e-005,-1.102662e-004
-2.955766e-005,-1.230693e-004
-1.010982e-005,-1.183694e-004
-6.058186e-006,-9.956988e-005
-1.626830e-005,-7.590833e-005
-2.842320e-005,-5.208474e-005
-3.117831e-005,-3.328516e-005
-1.562004e-005,-1.983374e-005
2.441009e-005,-1.399939e-005
8.437427e-005,-1.983374e-005
1.440143e-004,-3.830919e-005
1.806411e-004,-6.180866e-005
1.846927e-004,-7.526008e-005
1.587623e-004,-6.667062e-005
1.128978e-004,-3.782299e-005
5.828175e-005,-3.951337e-006
7.717366e-006,1.598270e-005
-2.890940e-005,1.549650e-005
-4.317115e-005,-2.006553e-006
-3.685060e-005,-2.485776e-005
-1.837515e-005,-4.041603e-005
9.106227e-007,-4.300908e-005
1.938607e-005,-3.182657e-005
4.013043e-005,-1.399939e-005
7.092284e-005,4.962256e-006
1.070634e-004,2.068259e-005
1.341283e-004,3.235129e-005
1.409351e-004,3.850978e-005
1.257009e-004,3.705119e-005
1.009049e-004,3.024445e-005
8.032264e-005,2.149292e-005
7.708133e-005,1.614476e-005
1.030118e-004,1.776542e-005
1.535762e-004,2.619281e-005
2.132162e-004,3.705119e-005
2.611876e-004,4.094075e-005
2.814457e-004,3.526847e-005
2.736666e-004,2.116879e-005
2.464396e-004,6.258778e-006
2.106232e-004,-2.006553e-006
1.770756e-004,-1.520357e-006
1.582761e-004,3.017472e-006
1.607070e-004,6.096713e-006
1.769136e-004,5.448452e-006
1.822617e-004,1.002961e-007
1.574657e-004,-7.840905e-006
1.013911e-004,-1.529591e-005
2.505836e-005,-2.323711e-005
-5.030202e-005,-2.777494e-005
-9.989401e-005,-2.712668e-005
-1.060525e-004,-2.080613e-005
-6.650855e-005,-7.030578e-006
1.160693e-005,1.598270e-005
1.117633e-004,4.628891e-005
2.086784e-004,7.594687e-005
2.733424e-004,9.588091e-005
2.866318e-004,9.977047e-005
2.388225e-004,8.939829e-005
1.415833e-004,6.800567e-005
2.052053e-005,3.915804e-005
-9.081835e-005,9.175954e-006
-1.710407e-004,-1.545797e-005
-2.172293e-004,-2.955766e-005
-2.314910e-004,-2.858527e-005
-2.250084e-004,-1.545797e-005
-2.162569e-004,4.244267e-007
-2.264670e-004,9.175954e-006
-2.647144e-004,8.041497e-006
-3.279199e-004,9.106227e-007
-4.050630e-004,-8.165035e-006
-4.809095e-004,-1.724069e-005
-5.358497e-004,-2.534396e-005
-5.494631e-004,-3.101625e-005
-4.990608e-004,-3.198864e-005
-3.765395e-004,-2.453363e-005
-2.023193e-004,-1.237873e-005
-2.420950e-005,-2.816880e-006
1.026876e-004,-3.858999e-007
1.430419e-004,-2.978945e-006
9.344993e-005,-8.165035e-006
-1.562004e-005,-9.461558e-006
-1.373311e-004,-5.409925e-006
-2.329496e-004,1.883015e-006
-2.898345e-004,6.096713e-006
-3.227338e-004,5.286387e-006
-3.549848e-004,-3.627206e-006
-3.992286e-004,-1.756482e-005
-4.514136e-004,-3.166451e-005
-5.024642e-004,-4.138842e-005
-5.387668e-004,-4.689865e-005
-5.423322e-004,-4.803310e-005
-4.997091e-004,-4.333321e-005
-4.113835e-004,-3.312309e-005
-2.927517e-004,-2.161646e-005
-1.663408e-004,-1.383732e-005
-5.030202e-005,-1.156841e-005
4.839576e-005,-1.108221e-005
1.257009e-004,-8.651231e-006
1.799928e-004,-3.141010e-006
2.177540e-004,3.503668e-006
2.485465e-004,7.555301e-006
2.816078e-004,6.258778e-006
3.203414e-004,-1.358292e-006
3.611819e-004,-9.299493e-006
4.070464e-004,-1.173047e-005
4.650658e-004,-3.789272e-006
5.339436e-004,1.338965e-005
5.973112e-004,3.607880e-005
6.300483e-004,5.844381e-005
6.153004e-004,8.032264e-005
5.493398e-004,1.002567e-004
4.457800e-004,1.175977e-004
3.271482e-004,1.326697e-004
2.180782e-004,1.427178e-004
1.402868e-004,1.472556e-004
1.034980e-004,1.436902e-004
1.070634e-004,1.289422e-004
1.435281e-004,1.054428e-004
1.992786e-004,7.870197e-005
2.615117e-004,5.358185e-005
3.130485e-004,3.607880e-005
3.358997e-004,2.781346e-005
3.153174e-004,2.797553e-005
2.461155e-004,3.494434e-005
1.341283e-004,4.790957e-005
1.072688e-006,6.638502e-005
-1.237176e-004,8.826383e-005
-2.149604e-004,1.086841e-004
-2.593663e-004,1.221355e-004
-2.637420e-004,1.286181e-004
-2.486699e-004,1.323456e-004
-2.392702e-004,1.346145e-004
-2.546664e-004,1.376938e-004
-2.985861e-004,1.425557e-004
-3.621157e-004,1.475797e-004
-4.288866e-004,1.482280e-004
-4.752372e-004,1.412592e-004
-4.669719e-004,1.323456e-004
-3.729740e-004,1.300767e-004
-1.903264e-004,1.346145e-004
5.212327e-005,1.381800e-004
3.101313e-004,1.352628e-004
5.423710e-004,1.245665e-004
7.193465e-004,1.075496e-004
8.144788e-004,8.712937e-005
8.075100e-004,6.703327e-005
7.000606e-004,4.888196e-005
5.227611e-004,3.624086e-005
3.171001e-004,2.975825e-005
1.125736e-004,2.441009e-005
-6.618442e-005,1.776542e-005
-1.953505e-004,8.041497e-006
-2.475355e-004,-6.868513e-006
-2.131776e-004,-2.437157e-005
-1.190177e-004,-4.268495e-005
-7.030578e-006,-5.840528e-005
8.956036e-005,-7.088431e-005
1.545486e-004,-8.255302e-005
1.820997e-004,-9.438378e-005
1.790204e-004,-1.079973e-004
1.600588e-004,-1.198280e-004
1.380179e-004,-1.269589e-004
1.188942e-004,-1.274451e-004
9.620504e-005,-1.225832e-004
6.184718e-005,-1.183694e-004
1.209313e-005,-1.195039e-004
-4.333321e-005,-1.255003e-004
-9.324933e-005,-1.337657e-004
-1.295519e-004,-1.386276e-004
-1.540238e-004,-1.324691e-004
-1.686097e-004,-1.170729e-004
-1.793060e-004,-9.730096e-005
-1.880575e-004,-7.979791e-005
-1.925954e-004,-6.796714e-005
-1.932436e-004,-6.164659e-005
-1.943781e-004,-5.581224e-005
-1.977815e-004,-4.706071e-005
-1.990780e-004,-3.506788e-005
-1.961608e-004,-2.339918e-005
-1.849783e-004,-1.707863e-005
-1.658546e-004,-1.788895e-005
-1.494860e-004,-2.599222e-005
-1.481895e-004,-3.182657e-005
-1.642339e-004,-2.890940e-005
-1.898403e-004,-1.805102e-005
-2.107467e-004,-8.002969e-006
-2.139880e-004,-4.923729e-006
-1.992400e-004,-6.382317e-006
-1.729855e-004,-5.896120e-006
-1.470550e-004,7.485573e-007
-1.368449e-004,1.468618e-005
-1.485136e-004,3.494434e-005
-1.715269e-004,5.925414e-005
-1.908126e-004,8.550872e-005
-1.901644e-004,1.080358e-004
-1.630995e-004,1.200286e-004
-1.112386e-004,1.200286e-004
-4.868137e-005,1.069013e-004
1.072688e-006,8.583286e-005
1.938607e-005,6.200925e-005
3.665733e-006,3.672706e-005
-3.782299e-005,1.160693e-005
-9.568031e-005,-8.813297e-006
-1.596961e-004,-2.015787e-005
-2.125294e-004,-2.226472e-005
-2.323013e-004,-1.853722e-005
-2.023193e-004,-1.270286e-005
-1.266348e-004,-6.544382e-006
-2.323711e-005,-5.479652e-007
8.291568e-005,7.555301e-006
1.739964e-004,1.711715e-005
2.388225e-004,2.732727e-005
2.726942e-004,4.110282e-005
2.736666e-004,5.633696e-005
2.496809e-004,6.832980e-005
2.117576e-004,7.416415e-005
1.751309e-004,7.432621e-005
1.461212e-004,7.059871e-005
1.177597e-004,6.476436e-005
7.853991e-005,5.779555e-005
2.765140e-005,5.341979e-005
-2.307504e-005,5.358185e-005
-5.759496e-005,5.957827e-005
-7.234290e-005,6.816773e-005
-7.817725e-005,7.416415e-005
-8.449780e-005,7.659513e-005
-9.081835e-005,7.853991e-005
-8.692878e-005,7.789165e-005
-6.359137e-005,7.627100e-005
-1.805102e-005,8.016057e-005
4.434413e-005,9.377406e-005
1.009049e-004,1.128978e-004
1.284560e-004,1.269974e-004
1.203528e-004,1.271595e-004
9.182927e-005,1.128978e-004
7.562274e-005,9.085688e-005
1.069013e-004,6.768154e-005
2.051129e-004,4.774750e-005
3.610198e-004,3.089271e-005
5.345919e-004,1.549650e-005
6.723474e-004,-1.682422e-006
7.302048e-004,-2.048200e-005
6.987641e-004,-4.074016e-005
5.961767e-004,-5.840528e-005
4.540453e-004,-7.315322e-005
2.983005e-004,-8.773911e-005
1.483901e-004,-1.037836e-004
1.857574e-005,-1.182074e-004
-7.558420e-005,-1.308485e-004
-1.165867e-004,-1.433275e-004
-1.016767e-004,-1.609926e-004
-4.997789e-005,-1.835197e-004
1.452411e-005,-2.055606e-004
6.946425e-005,-2.201465e-004
1.044704e-004,-2.211189e-004
1.198666e-004,-2.019951e-004
1.184080e-004,-1.635857e-004
1.013911e-004,-1.123730e-004
6.784360e-005,-5.419158e-005
2.473423e-005,8.851824e-006
-1.513384e-005,7.221937e-005
-4.236082e-005,1.284560e-004
-6.035007e-005,1.691344e-004
-7.558420e-005,1.900409e-004
-9.179074e-005,1.897167e-004
-1.114006e-004,1.754550e-004
-1.349001e-004,1.537382e-004
-1.583996e-004,1.325077e-004
-1.783336e-004,1.148425e-004
-1.927574e-004,1.031738e-004
-1.985918e-004,9.733949e-005
-1.929195e-004,9.831188e-005
-1.763888e-004,1.036600e-004
-1.538618e-004,1.127357e-004
-1.219349e-004,1.226217e-004
-7.655660e-005,1.276457e-004
-1.756482e-005,1.208390e-004
5.277153e-005,1.007429e-004
1.289422e-004,6.930219e-005
1.971717e-004,3.413401e-005
2.431983e-004,-5.479652e-007
2.572980e-004,-2.971972e-005
2.350950e-004,-5.176061e-005
1.843686e-004,-6.504996e-005
1.175977e-004,-7.104638e-005
5.228533e-005,-6.991193e-005
5.610517e-006,-6.067420e-005
-1.416145e-005,-4.349527e-005
-1.367526e-005,-2.048200e-005
-1.221667e-005,4.313994e-006
-2.728874e-005,3.202716e-005
-6.018800e-005,6.168512e-005
-1.018388e-004,9.199134e-005
-1.431655e-004,1.200286e-004
-1.796301e-004,1.410971e-004
-2.094502e-004,1.501728e-004
-2.381357e-004,1.448246e-004
-2.673075e-004,1.286181e-004
-2.951827e-004,1.120874e-004
-3.194925e-004,1.022015e-004
-3.382920e-004,9.928428e-005
-3.476919e-004,9.928428e-005
-3.402368e-004,9.474644e-005
-3.094444e-004,8.129502e-005
-2.476975e-004,5.974033e-005
-1.545100e-004,3.429608e-005
-3.830919e-005,9.013889e-006
9.037068e-005,-1.108221e-005
2.162954e-004,-2.518189e-005
3.218000e-004,-3.539201e-005
3.926226e-004,-4.203669e-005
4.221185e-004,-4.333321e-005
4.104497e-004,-3.733679e-005
3.608578e-004,-2.647842e-005
2.736666e-004,-1.675450e-005
1.623277e-004,-1.513384e-005
5.325772e-005,-2.194059e-005
-3.020592e-005,-2.842320e-005
-7.396356e-005,-2.826114e-005
-8.109443e-005,-2.258885e-005
-6.796714e-005,-1.529591e-005
-5.435365e-005,-1.448558e-005
-5.208474e-005,-2.388537e-005
-6.618442e-005,-3.928157e-005
-9.762509e-005,-5.370539e-005
-1.413827e-004,-6.067420e-005
-1.822232e-004,-6.164659e-005
-2.029675e-004,-6.213279e-005
-1.908126e-004,-6.440170e-005
-1.441378e-004,-6.910160e-005
-7.931171e-005,-7.331530e-005
-1.675450e-005,-7.201877e-005
3.024445e-005,-6.537409e-005
6.298164e-005,-5.208474e-005
8.437427e-005,-3.409549e-005
9.199134e-005,-1.351319e-005
8.486046e-005,6.907040e-006
7.027458e-005,2.522042e-005
5.277153e-005,3.526847e-005
3.429608e-005,3.559260e-005
1.646890e-005,3.024445e-005
-2.168618e-006,2.846173e-005
-1.983374e-005,3.332369e-005
-3.344723e-005,4.223728e-005
-4.187462e-005,4.790957e-005
-4.965376e-005,4.385793e-005
-6.051213e-005,3.283749e-005
-7.461182e-005,1.906194e-005
-8.790117e-005,8.203562e-006
-8.887356e-005,3.341602e-006
-6.893953e-005,5.124321e-006
-2.728874e-005,1.193106e-005
2.927205e-005,2.457216e-005
8.615699e-005,4.175109e-005
1.266733e-004,5.957827e-005
1.414213e-004,6.946425e-005
1.310491e-004,6.703327e-005
9.977047e-005,5.196120e-005
5.082674e-005,2.927205e-005
-8.002969e-006,7.231170e-006
-6.391550e-005,-6.382317e-006
-1.029732e-004,-9.137427e-006
-1.185315e-004,-4.761664e-006
-1.067007e-004,3.503668e-006
-7.347736e-005,1.517237e-005
-3.150244e-005,2.846173e-005
9.500085e-006,4.320967e-005
4.661304e-005,5.779555e-005
7.983644e-005,6.978839e-005
1.085220e-004,8.210535e-005
1.365593e-004,9.896015e-005
1.662173e-004,1.218114e-004
2.039785e-004,1.466074e-004
2.597290e-004,1.616794e-004
3.310377e-004,1.621656e-004
4.015361e-004,1.493625e-004
4.478869e-004,1.310491e-004
4.551798e-004,1.138702e-004
4.216323e-004,1.022015e-004
3.632887e-004,9.831188e-005
3.044590e-004,9.814982e-005
2.592428e-004,9.750156e-005
2.346088e-004,9.409818e-005
2.287745e-004,8.696731e-005
2.459534e-004,7.643307e-005
2.864697e-004,6.606088e-005
3.389789e-004,5.876794e-005
3.794953e-004,5.552663e-005
3.846814e-004,5.552663e-005
3.417340e-004,5.909208e-005
2.535705e-004,5.779555e-005
1.305629e-004,4.596478e-005
-1.318906e-005,2.473423e-005
-1.595340e-004,9.106227e-007
-2.945344e-004,-1.772689e-005
-4.091146e-004,-3.004385e-005
-5.050572e-004,-3.863332e-005
-5.805797e-004,-4.317115e-005
-6.272545e-004,-4.462973e-005
-6.353577e-004,-4.479180e-005
-6.021344e-004,-4.592625e-005
-5.329325e-004,-5.257093e-005
-4.405553e-004,-6.148453e-005
-3.378059e-004,-6.942573e-005
-2.438080e-004,-7.428769e-005
-1.721751e-004,-7.947377e-005
-1.284175e-004,-8.465986e-005
-1.105903e-004,-9.276313e-005
-1.130213e-004,-1.024871e-004
-1.232314e-004,-1.057284e-004
-1.352242e-004,-9.989401e-005
-1.379794e-004,-8.741498e-005
-1.219349e-004,-7.509801e-005
-7.931171e-005,-6.472583e-005
-1.205460e-005,-5.824322e-005
6.638502e-005,-5.159854e-005
1.333180e-004,-4.090223e-005
1.704310e-004,-2.437157e-005
1.754550e-004,-4.437533e-006
1.642725e-004,1.355172e-005
1.524417e-004,2.376183e-005
1.509831e-004,2.197911e-005
1.610312e-004,1.144487e-005
1.843686e-004,-6.176923e-008
2.166196e-004,-5.896120e-006
2.504913e-004,-4.923729e-006
2.709115e-004,-2.654814e-006
2.657254e-004,-2.006553e-006
2.302331e-004,-8.165035e-006
1.675138e-004,-1.918548e-005
9.037068e-005,-3.182657e-005
1.630683e-005,-4.203669e-005
-4.398147e-005,-4.608832e-005
-9.146661e-005,-4.025397e-005
-1.248521e-004,-2.534396e-005
-1.415448e-004,-4.761664e-006
-1.421931e-004,1.452411e-005
-1.293899e-004,2.878586e-005
-1.055663e-004,3.624086e-005
-7.380149e-005,3.802358e-005
-3.296103e-005,3.672706e-005
2.295151e-005,3.559260e-005
9.847395e-005,3.705119e-005
1.859892e-004,4.094075e-005
2.663737e-004,4.531652e-005
3.234207e-004,4.871989e-005
3.459477e-004,5.034055e-005
3.323342e-004,5.066468e-005
2.892249e-004,5.098881e-005
2.307193e-004,5.406805e-005
1.678379e-004,6.006447e-005
1.069013e-004,6.881599e-005
4.547859e-005,7.837785e-005
-2.177852e-005,8.518459e-005
-9.438378e-005,8.291568e-005
-1.640719e-004,7.205730e-005
-2.229016e-004,5.649903e-005
-2.663351e-004,4.223728e-005
-2.911311e-004,3.348575e-005
-2.969654e-004,2.927205e-005
-2.929138e-004,2.505836e-005
-2.882139e-004,2.003433e-005
-2.912931e-004,1.501031e-005
-3.078238e-004,1.419998e-005
-3.337542e-004,1.857574e-005
-3.591985e-004,2.813760e-005
-3.788084e-004,3.786152e-005
-3.904771e-004,4.596478e-005
-3.946908e-004,5.260946e-005
-3.904771e-004,5.585077e-005
-3.697327e-004,5.471631e-005
-3.152788e-004,5.017848e-005
-2.071812e-004,4.726130e-005
-3.928157e-005,4.742337e-005
1.663793e-004,4.709924e-005
3.605336e-004,4.353380e-005
4.856481e-004,3.591673e-005
5.039615e-004,2.538249e-005
4.156358e-004,1.549650e-005
2.650771e-004,8.365628e-006
1.125736e-004,5.124321e-006
-1.196227e-006,4.962256e-006
-6.537409e-005,4.800190e-006
-9.000802e-005,2.369211e-006
-8.790117e-005,-4.923729e-006
-7.153257e-005,-1.529591e-005
-4.625038e-005,-2.712668e-005
-1.448558e-005,-3.863332e-005
2.003433e-005,-5.467778e-005
5.212327e-005,-7.720486e-005
7.189524e-005,-1.024871e-004
6.914012e-005,-1.267968e-004
4.094075e-005,-1.486757e-004
-6.058186e-006,-1.639098e-004
-5.727083e-005,-1.734716e-004
-1.015147e-004,-1.830335e-004
-1.302002e-004,-1.942160e-004
-1.308485e-004,-2.065330e-004
-9.227693e-005,-2.146363e-004
-1.092015e-005,-2.110708e-004
9.782569e-005,-1.891920e-004
2.067336e-004,-1.480274e-004
2.966799e-004,-9.470791e-005
3.636129e-004,-3.944364e-005
4.122325e-004,8.203562e-006
4.451317e-004,4.418206e-005
4.647417e-004,6.865393e-005
4.712243e-004,8.810177e-005
4.627969e-004,1.073875e-004
4.368664e-004,1.263492e-004
3.908399e-004,1.417454e-004
3.286068e-004,1.530900e-004
2.602152e-004,1.623277e-004
1.945787e-004,1.701068e-004
1.318594e-004,1.767515e-004
7.076078e-005,1.795066e-004
1.095867e-005,1.796687e-004
-4.706071e-005,1.785342e-004
-9.859748e-005,1.767515e-004
-1.339277e-004,1.748067e-004
-1.522411e-004,1.736723e-004
-1.614788e-004,1.722137e-004
-1.697442e-004,1.684862e-004
-1.810887e-004,1.637863e-004
-1.935677e-004,1.589243e-004
-1.945401e-004,1.555210e-004
-1.665028e-004,1.524417e-004
-9.730096e-005,1.501728e-004
5.772582e-006,1.474177e-004
1.169494e-004,1.466074e-004
2.151610e-004,1.487142e-004
2.983005e-004,1.513072e-004
3.772264e-004,1.534141e-004
4.611762e-004,1.534141e-004
5.451261e-004,1.506590e-004
6.115729e-004,1.446626e-004
6.387999e-004,1.355869e-004
6.115729e-004,1.250527e-004
5.328091e-004,1.133840e-004
4.187151e-004,1.013911e-004
2.911697e-004,9.231547e-005
1.680000e-004,8.664318e-005
6.362991e-005,8.048470e-005
-9.461558e-006,7.011252e-005
-4.819517e-005,5.163707e-005
-5.629844e-005,2.813760e-005
-5.435365e-005,5.772582e-006
-6.537409e-005,-1.254080e-005
-1.065387e-004,-2.680255e-005
-1.724993e-004,-4.203669e-005
-2.462390e-004,-5.791909e-005
-3.062031e-004,-7.315322e-005
-3.405610e-004,-8.806324e-005
-3.519055e-004,-1.037836e-004
-3.512573e-004,-1.191798e-004
-3.468815e-004,-1.298761e-004
-3.382920e-004,-1.297140e-004
-3.274337e-004,-1.161005e-004
-3.160891e-004,-9.130454e-005
-3.042584e-004,-6.375344e-005
-2.950206e-004,-4.349527e-005
-2.925897e-004,-3.555408e-005
-2.982619e-004,-3.668853e-005
-3.104168e-004,-4.171256e-005
-3.225718e-004,-4.706071e-005
-3.297026e-004,-5.030202e-005
-3.324577e-004,-5.402952e-005
-3.339163e-004,-6.132246e-005
-3.352128e-004,-7.752899e-005
-3.230579e-004,-9.908367e-005
-2.909690e-004,-1.173971e-004
-2.405667e-004,-1.263107e-004
-1.828714e-004,-1.285796e-004
-1.349001e-004,-1.293899e-004
-1.078352e-004,-1.295519e-004
-1.018388e-004,-1.274451e-004
-1.104282e-004,-1.209625e-004
-1.274451e-004,-1.083214e-004
-1.449482e-004,-9.600444e-005
-1.567789e-004,-8.741498e-005
-1.567789e-004,-7.785312e-005
-1.434896e-004,-6.359137e-005
-1.204763e-004,-4.495386e-005
-8.871149e-005,-2.599222e-005
-4.819517e-005,-8.002969e-006
-5.085794e-006,1.031041e-005
3.251336e-005,3.202716e-005
5.374392e-005,5.325772e-005
5.374392e-005,6.865393e-005
3.121684e-005,7.902610e-005
-5.479652e-007,8.275361e-005
-1.999580e-005,8.307774e-005
-5.247859e-006,8.372601e-005
5.115087e-005,8.518459e-005
1.425557e-004,8.631905e-005
2.530843e-004,8.907416e-005
3.644232e-004,9.539470e-005
4.568005e-004,1.044704e-004
5.191956e-004,1.120874e-004
5.441537e-004,1.135460e-004
5.352402e-004,1.090082e-004
4.982892e-004,9.977047e-005
4.446456e-004,8.388807e-005
3.851676e-004,6.330578e-005
3.260137e-004,4.045456e-005
2.644289e-004,1.792748e-005
1.968476e-004,-8.720959e-007
1.304008e-004,-8.975362e-006
8.032264e-005,-3.858999e-007
5.747142e-005,2.554455e-005
5.730935e-005,6.233338e-005
6.622294e-005,1.004187e-004
7.238143e-005,1.312112e-004
6.930219e-005,1.479039e-004
5.941620e-005,1.527658e-004
4.483033e-005,1.500107e-004
2.619281e-005,1.410971e-004
8.851824e-006,1.271595e-004
-3.858999e-007,1.080358e-004
-1.358292e-006,8.583286e-005
2.369211e-006,6.622294e-005
4.151929e-006,5.390598e-005
-3.858999e-007,4.953022e-005
-1.691656e-005,4.790957e-005
-4.657452e-005,4.207521e-005
-7.931171e-005,3.024445e-005
-1.042698e-004,1.565857e-005
-1.185315e-004,2.623614e-007
-1.173971e-004,-1.918548e-005
-1.015147e-004,-4.398147e-005
-8.012204e-005,-6.958779e-005
-6.569822e-005,-9.065628e-005
-6.586029e-005,-1.063766e-004
-7.898758e-005,-1.219349e-004
-9.486997e-005,-1.421931e-004
-9.843541e-005,-1.637477e-004
-8.547019e-005,-1.775233e-004
-6.829127e-005,-1.760647e-004
-6.342931e-005,-1.582375e-004
-8.271508e-005,-1.313347e-004
-1.238797e-004,-1.016767e-004
-1.668270e-004,-7.315322e-005
-1.877334e-004,-4.592625e-005
-1.687718e-004,-1.869928e-005
-1.096179e-004,4.962256e-006
-3.312309e-005,2.230325e-005
2.829966e-005,3.364782e-005
5.147500e-005,3.980630e-005
3.429608e-005,4.207521e-005
-1.156841e-005,3.899597e-005
-6.893953e-005,2.943412e-005
-1.203142e-004,2.035846e-005
-1.454344e-004,1.792748e-005
-1.238797e-004,2.586868e-005
-4.155049e-005,4.207521e-005
8.810177e-005,6.249545e-005
2.227781e-004,8.048470e-005
3.136967e-004,8.729144e-005
3.363859e-004,8.453633e-005
3.026763e-004,7.772959e-005
2.410915e-004,7.205730e-005
1.735102e-004,6.768154e-005
1.112771e-004,6.460230e-005
6.071273e-005,6.022653e-005
2.278944e-005,5.147500e-005
-3.858999e-007,4.029250e-005
-5.734056e-006,3.121684e-005
2.531276e-006,2.910999e-005
1.436204e-005,3.607880e-005
1.695509e-005,5.260946e-005
3.503668e-006,7.497447e-005
-3.101625e-005,9.896015e-005
-8.239095e-005,1.187321e-004
-1.327933e-004,1.331559e-004
-1.601823e-004,1.441764e-004
-1.545100e-004,1.526038e-004
-1.235555e-004,1.547106e-004
-8.384954e-005,1.485521e-004
-4.932962e-005,1.376938e-004
-2.453363e-005,1.304008e-004
-1.059602e-005,1.318594e-004
-1.520357e-006,1.420695e-004
1.112074e-005,1.602208e-004
3.656499e-005,1.809652e-004
8.745350e-005,1.929580e-004
1.616794e-004,1.887444e-004
2.417397e-004,1.636242e-004
2.968419e-004,1.200286e-004
3.059176e-004,6.541262e-005
2.718839e-004,1.176900e-005
2.192126e-004,-3.036798e-005
1.743205e-004,-5.759496e-005
1.577899e-004,-6.893953e-005
1.707551e-004,-7.331530e-005
2.005751e-004,-7.607040e-005
2.295848e-004,-8.320128e-005
2.480603e-004,-9.778715e-005
2.572980e-004,-1.198280e-004
2.615117e-004,-1.430034e-004
2.632944e-004,-1.634236e-004
2.592428e-004,-1.760647e-004
2.456293e-004,-1.773612e-004
2.261814e-004,-1.674752e-004
2.013854e-004,-1.525652e-004
1.663793e-004,-1.407345e-004
1.156529e-004,-1.386276e-004
4.985435e-005,-1.454344e-004
-2.145439e-005,-1.561307e-004
-8.530812e-005,-1.645581e-004
-1.336036e-004,-1.658546e-004
-1.682856e-004,-1.596961e-004
-1.908126e-004,-1.477033e-004
-2.032917e-004,-1.363587e-004
-2.117191e-004,-1.289037e-004
-2.203085e-004,-1.290658e-004
-2.311669e-004,-1.319829e-004
-2.438080e-004,-1.332795e-004
-2.614731e-004,-1.229073e-004
-2.854588e-004,-9.551824e-005
-3.109030e-004,-5.354332e-005
-3.267854e-004,-4.599598e-006
-3.256510e-004,3.850978e-005
-3.063652e-004,6.606088e-005
-2.744383e-004,7.691926e-005
-2.379736e-004,7.789165e-005
-2.047502e-004,7.140904e-005
-1.771992e-004,6.330578e-005
-1.517549e-004,6.038860e-005
-1.258245e-004,6.687121e-005
-1.016767e-004,8.340187e-005
-8.482193e-005,1.026876e-004
-8.141856e-005,1.148425e-004
-8.968389e-005,1.175977e-004
-9.778715e-005,1.184080e-004
-9.859748e-005,1.218114e-004
-8.968389e-005,1.252147e-004
-7.072225e-005,1.276457e-004
-4.835724e-005,1.284560e-004
-3.231277e-005,1.299146e-004
-3.360929e-005,1.331559e-004
-5.516398e-005,1.363972e-004
-9.276313e-005,1.359110e-004
-1.386276e-004,1.310491e-004
-1.817370e-004,1.239182e-004
-2.125294e-004,1.174356e-004
-2.285739e-004,1.133840e-004
-2.434839e-004,1.114392e-004
-2.731418e-004,1.106288e-004
-3.157650e-004,1.083599e-004
-3.566054e-004,1.049566e-004
-3.770257e-004,1.000946e-004
-3.685983e-004,9.377406e-005
-3.329439e-004,8.567078e-005
-2.734659e-004,7.529860e-005
-1.903264e-004,6.897806e-005
-8.530812e-005,6.849186e-005
3.915804e-005,7.189524e-005
1.746447e-004,7.367795e-005
3.060797e-004,7.205730e-005
4.217943e-004,6.784360e-005
5.196818e-004,6.087479e-005
6.016869e-004,5.439218e-005
6.733199e-004,5.341979e-005
7.413874e-004,6.071273e-005
8.204753e-004,6.946425e-005
9.225765e-004,7.432621e-005
1.049474e-003,7.286763e-005
1.185285e-003,6.735741e-005
1.297272e-003,6.233338e-005
1.347675e-003,6.022653e-005
1.322554e-003,6.249545e-005
1.230339e-003,7.043665e-005
1.090638e-003,7.675720e-005
9.225765e-004,7.659513e-005
7.421977e-004,6.784360e-005
5.613327e-004,5.066468e-005
3.859779e-004,2.927205e-005
2.185644e-004,1.014835e-005
6.525056e-005,5.864920e-007
-6.326724e-005,2.531276e-006
-1.554824e-004,1.014835e-005
-2.081536e-004,1.630683e-005
-2.319772e-004,1.841368e-005
-2.520733e-004,1.468618e-005
-2.937241e-004,5.610517e-006
-3.685983e-004,-4.437533e-006
-4.640547e-004,-1.059602e-005
-5.544871e-004,-1.318906e-005
-6.155858e-004,-1.286493e-005
-6.361681e-004,-1.545797e-005
-6.160720e-004,-2.258885e-005
-5.655076e-004,-3.458168e-005
-4.972781e-004,-4.738484e-005
-4.178661e-004,-5.419158e-005
-3.366714e-004,-5.289507e-005
-2.721694e-004,-4.754691e-005
-2.397564e-004,-4.803310e-005
-2.417012e-004,-6.067420e-005
-2.653627e-004,-8.255302e-005
-2.971275e-004,-1.062146e-004
-3.272716e-004,-1.222590e-004
-3.501228e-004,-1.290658e-004
-3.676259e-004,-1.290658e-004
-3.797808e-004,-1.233935e-004
-3.849669e-004,-1.146419e-004
-3.812394e-004,-1.073490e-004
-3.682741e-004,-1.057284e-004
-3.467195e-004,-1.107524e-004
-3.214373e-004,-1.203142e-004
-2.930758e-004,-1.287416e-004
-2.635799e-004,-1.329553e-004
-2.306807e-004,-1.313347e-004
-1.943781e-004,-1.266348e-004
-1.595340e-004,-1.173971e-004
-1.332795e-004,-1.034594e-004
-1.235555e-004,-8.935975e-005
-1.259865e-004,-7.720486e-005
-1.238797e-004,-6.634648e-005
-1.076731e-004,-5.338126e-005
-7.639453e-005,-3.571614e-005
-3.847125e-005,-1.788895e-005
-2.330684e-006,-3.789272e-006
2.667901e-005,9.662150e-006
4.483033e-005,2.278944e-005
4.466826e-005,2.959619e-005
2.586868e-005,2.765140e-005
-4.761664e-006,2.052053e-005
-4.300908e-005,1.565857e-005
-8.854943e-005,1.987227e-005
-1.399241e-004,3.105477e-005
-1.854645e-004,4.223728e-005
-2.105846e-004,4.871989e-005
-2.104225e-004,5.050261e-005
-1.880575e-004,5.066468e-005
-1.460826e-004,5.001642e-005
-9.324933e-005,4.871989e-005
-4.333321e-005,4.774750e-005
-4.761664e-006,4.320967e-005
1.889987e-005,3.121684e-005
2.894792e-005,1.322759e-005
3.137890e-005,-1.844488e-006
3.137890e-005,-5.896120e-006
3.186510e-005,2.855407e-006
3.154097e-005,1.825161e-005
2.505836e-005,2.910999e-005
8.689758e-006,3.251336e-005
-1.302700e-005,3.267542e-005
-3.198864e-005,3.769945e-005
-4.009191e-005,5.131294e-005
-2.323711e-005,6.978839e-005
2.943412e-005,8.777764e-005
1.146805e-004,9.896015e-005
2.195368e-004,9.928428e-005
3.242310e-004,8.939829e-005
4.115842e-004,7.416415e-005
4.692795e-004,5.811968e-005
5.013684e-004,4.418206e-005
5.190336e-004,3.429608e-005
5.350781e-004,2.992031e-005
5.533914e-004,3.283749e-005
5.702463e-004,4.045456e-005
5.744600e-004,5.098881e-005
5.535535e-004,6.217132e-005
5.026649e-004,7.173317e-005
4.316803e-004,7.951231e-005
3.602095e-004,8.356394e-005
2.995970e-004,8.097089e-005
2.428742e-004,7.384002e-005
1.769136e-004,6.492643e-005
9.150514e-005,5.795762e-005
-9.299493e-006,5.455425e-005
-1.068628e-004,5.293359e-005
-1.806025e-004,5.325772e-005
-2.146363e-004,5.568870e-005
-1.976194e-004,5.828175e-005
-1.180453e-004,5.860588e-005
2.910999e-005,5.860588e-005
2.169437e-004,6.071273e-005
3.885709e-004,6.541262e-005
4.848378e-004,7.076078e-005
4.700898e-004,7.546067e-005
3.584268e-004,7.594687e-005
1.960373e-004,7.432621e-005
3.624086e-005,7.189524e-005
-8.012204e-005,7.124698e-005
-1.357104e-004,7.205730e-005
-1.368449e-004,7.481241e-005
-1.070249e-004,7.789165e-005
-7.574627e-005,7.983644e-005
-6.229485e-005,7.610894e-005
-7.461182e-005,6.265751e-005
-1.105903e-004,4.402000e-005
-1.598582e-004,2.684107e-005
-2.052365e-004,1.436204e-005
-2.318152e-004,7.393236e-006
-2.334358e-004,3.989864e-006
-2.169052e-004,2.693341e-006
-1.958367e-004,3.665733e-006
-1.828714e-004,6.582909e-006
-1.807646e-004,7.555301e-006
-1.838438e-004,5.610517e-006
-1.890299e-004,1.720949e-006
-1.891920e-004,2.693341e-006
-1.815749e-004,7.069105e-006
-1.699062e-004,1.257933e-005
-1.588858e-004,1.841368e-005
-1.485136e-004,2.408596e-005
-1.376552e-004,2.813760e-005
-1.251762e-004,2.716521e-005
-1.109144e-004,2.278944e-005
-9.924574e-005,1.582063e-005
-9.065628e-005,1.047248e-005
-8.417367e-005,6.907040e-006
-8.060823e-005,6.744974e-006
-8.320128e-005,1.387585e-005
-9.584238e-005,2.424803e-005
-1.180453e-004,3.462021e-005
-1.449482e-004,4.402000e-005
-1.716889e-004,5.179914e-005
-1.943781e-004,5.698522e-005
-2.047502e-004,5.795762e-005
-1.951884e-004,5.439218e-005
-1.635857e-004,4.353380e-005
-1.120489e-004,2.927205e-005
-5.402952e-005,1.695509e-005
-3.627206e-006,1.306552e-005
3.283749e-005,1.889987e-005
5.552663e-005,3.445814e-005
6.832980e-005,5.455425e-005
8.307774e-005,6.978839e-005
1.093323e-004,7.513654e-005
1.472556e-004,7.400208e-005
1.913374e-004,7.400208e-005
2.310434e-004,7.805372e-005
2.558394e-004,8.599492e-005
2.529222e-004,9.409818e-005
2.184023e-004,9.960841e-005
1.589243e-004,9.993253e-005
9.555677e-005,9.620504e-005
5.277153e-005,8.939829e-005
5.017848e-005,7.902610e-005
9.004655e-005,6.460230e-005
1.623277e-004,4.580272e-005
2.508154e-004,2.441009e-005
3.363859e-004,3.179537e-006
3.968363e-004,-1.529591e-005
4.161220e-004,-2.923353e-005
3.901916e-004,-3.701266e-005
3.252034e-004,-4.106429e-005
2.325020e-004,-4.317115e-005
1.295905e-004,-4.770897e-005
3.445814e-005,-5.240886e-005
-4.106429e-005,-5.791909e-005
-9.276313e-005,-6.440170e-005
-1.264727e-004,-7.088431e-005
-1.558065e-004,-7.234290e-005
-1.890299e-004,-6.715681e-005
-2.235498e-004,-5.889148e-005
-2.499665e-004,-5.224680e-005
-2.592042e-004,-4.932962e-005
-2.514251e-004,-5.208474e-005
-2.339220e-004,-6.391550e-005
-2.126914e-004,-8.012204e-005
-1.867610e-004,-9.535618e-005
-1.575893e-004,-1.076731e-004
-1.206384e-004,-1.154523e-004
-6.974985e-005,-1.183694e-004
1.234753e-006,-1.175591e-004
9.507057e-005,-1.143178e-004
2.046267e-004,-1.110765e-004
3.182346e-004,-1.078352e-004
4.211461e-004,-1.029732e-004
4.956961e-004,-9.616651e-005
5.319988e-004,-8.984595e-005
5.334574e-004,-8.547019e-005
5.169268e-004,-8.109443e-005
5.003960e-004,-7.461182e-005
4.978030e-004,-6.245691e-005
5.151440e-004,-4.689865e-005
5.415607e-004,-3.150244e-005
5.558224e-004,-2.177852e-005
5.324850e-004,-1.934754e-005
4.592314e-004,-1.902341e-005
3.407616e-004,-1.788895e-005
1.937684e-004,-1.351319e-005
4.207521e-005,-2.330684e-006
-9.357346e-005,1.501031e-005
-2.045882e-004,3.332369e-005
-2.885380e-004,4.953022e-005
-3.455850e-004,6.298164e-005
-3.750809e-004,6.995045e-005
-3.698948e-004,7.124698e-005
-3.285682e-004,7.140904e-005
-2.556388e-004,7.302970e-005
-1.716889e-004,7.740546e-005
-1.015147e-004,8.599492e-005
-6.213279e-005,9.766362e-005
-5.856735e-005,1.078737e-004
-8.044617e-005,1.172735e-004
-1.151281e-004,1.239182e-004
-1.467309e-004,1.252147e-004
-1.650443e-004,1.206769e-004
-1.737958e-004,1.069013e-004
-1.870851e-004,8.421220e-005
-2.097743e-004,5.374392e-005
-2.387840e-004,1.971020e-005
-2.583939e-004,-1.027188e-005
-2.541802e-004,-3.004385e-005
-2.251705e-004,-3.944364e-005
-1.865989e-004,-3.668853e-005
-1.593720e-004,-2.096820e-005
-1.592099e-004,6.744974e-006
-1.828714e-004,3.526847e-005
-2.138259e-004,5.698522e-005
-2.350565e-004,7.286763e-005
-2.397564e-004,8.745350e-005
-2.310048e-004,1.022015e-004
-2.175534e-004,1.138702e-004
-2.117191e-004,1.167873e-004
-2.169052e-004,1.062531e-004
-2.253326e-004,8.307774e-005
-2.259808e-004,5.536457e-005
-2.136638e-004,3.348575e-005
-1.916230e-004,2.441009e-005
-1.663408e-004,2.457216e-005
-1.428413e-004,2.700314e-005
-1.263107e-004,2.829966e-005
-1.195039e-004,2.667901e-005
-1.211246e-004,1.938607e-005
-1.256624e-004,6.744974e-006
-1.203142e-004,-6.544382e-006
-9.017008e-005,-1.610624e-005
-3.474375e-005,-1.659243e-005
2.781346e-005,-7.030578e-006
7.448828e-005,9.338019e-006
8.956036e-005,2.554455e-005
7.027458e-005,3.624086e-005
2.813760e-005,3.850978e-005
-2.031993e-005,3.818565e-005
-6.051213e-005,4.207521e-005
-8.336335e-005,5.115087e-005
-8.384954e-005,5.893001e-005
-6.326724e-005,5.957827e-005
-3.441962e-005,5.244739e-005
-1.156841e-005,4.320967e-005
7.485573e-007,3.462021e-005
3.503668e-006,2.667901e-005
3.989864e-006,1.906194e-005
1.031041e-005,1.306552e-005
2.651694e-005,7.393236e-006
5.196120e-005,5.448452e-006
8.615699e-005,6.096713e-006
1.308870e-004,1.031041e-005
1.940925e-004,1.889987e-005
2.829043e-004,3.040651e-005
3.937570e-004,4.369587e-005
5.117406e-004,5.455425e-005
6.104385e-004,6.136099e-005
6.614891e-004,6.362991e-005
6.457687e-004,6.200925e-005
5.658705e-004,6.087479e-005
4.469145e-004,6.200925e-005
3.247172e-004,6.346784e-005
2.256952e-004,6.427817e-005
1.563313e-004,6.136099e-005
1.135460e-004,6.055066e-005
9.118101e-005,6.751948e-005
8.178122e-005,7.837785e-005
7.627100e-005,8.842590e-005
6.930219e-005,9.604298e-005
5.957827e-005,1.026876e-004
5.358185e-005,1.075496e-004
5.844381e-005,1.098185e-004
7.562274e-005,1.112771e-004
9.879808e-005,1.096565e-004
1.195424e-004,1.025256e-004
1.257009e-004,8.923623e-005
1.130598e-004,7.481241e-005
8.032264e-005,5.909208e-005
3.040651e-005,4.369587e-005
-2.858527e-005,2.408596e-005
-8.952183e-005,1.720949e-006
-1.452723e-004,-1.999580e-005
-1.917850e-004,-3.409549e-005
-2.246843e-004,-3.976777e-005
-2.408908e-004,-4.138842e-005
-2.444563e-004,-4.527799e-005
-2.395943e-004,-5.143648e-005
-2.254946e-004,-5.646050e-005
-2.026434e-004,-6.164659e-005
-1.836818e-004,-6.829127e-005
-1.830335e-004,-7.720486e-005
-2.039399e-004,-8.498399e-005
-2.392702e-004,-8.790117e-005
-2.708729e-004,-8.530812e-005
-2.805968e-004,-8.125649e-005
-2.593663e-004,-8.255302e-005
-2.133397e-004,-9.227693e-005
-1.690959e-004,-1.067007e-004
-1.491618e-004,-1.224211e-004
-1.551583e-004,-1.366828e-004
-1.720131e-004,-1.511067e-004
-1.807646e-004,-1.671511e-004
-1.671511e-004,-1.804405e-004
-1.306864e-004,-1.861127e-004
-7.153257e-005,-1.801163e-004
1.031041e-005,-1.648822e-004
1.143563e-004,-1.402483e-004
2.373639e-004,-1.122110e-004
3.681507e-004,-8.320128e-005
4.882411e-004,-5.597430e-005
5.814288e-004,-3.263690e-005
6.399344e-004,-1.545797e-005
6.629477e-004,7.485573e-007
6.520892e-004,1.954813e-005
6.070351e-004,3.834771e-005
5.308643e-004,5.212327e-005
4.253598e-004,5.714729e-005
2.984626e-004,5.406805e-005
1.662173e-004,4.515445e-005
4.515445e-005,3.543054e-005
-5.127441e-005,2.910999e-005
-1.177212e-004,2.408596e-005
-1.527273e-004,1.938607e-005
-1.609926e-004,1.646890e-005
-1.452723e-004,1.387585e-005
-1.107524e-004,9.500085e-006
-6.829127e-005,2.623614e-007
-3.198864e-005,-1.108221e-005
-1.075808e-005,-1.756482e-005
-7.516774e-006,-1.562004e-005
-1.886135e-005,-4.437533e-006
-3.766092e-005,1.452411e-005
-5.759496e-005,3.494434e-005
-7.428769e-005,5.179914e-005
-8.838737e-005,5.974033e-005
-1.018388e-004,6.119892e-005
-1.115627e-004,6.022653e-005
-1.131834e-004,6.217132e-005
-1.042698e-004,6.962632e-005
-8.611845e-005,8.064677e-005
-5.986387e-005,9.020862e-005
-3.296103e-005,9.458438e-005
-1.513384e-005,8.988449e-005
-9.947754e-006,7.659513e-005
-1.205460e-005,5.811968e-005
-1.756482e-005,4.304761e-005
-2.485776e-005,3.672706e-005
-3.604027e-005,4.013043e-005
-5.872941e-005,5.179914e-005
-9.308726e-005,6.784360e-005
-1.203142e-004,8.016057e-005
-1.126972e-004,8.729144e-005
-5.840528e-005,9.247754e-005
2.262738e-005,1.000946e-004
9.474644e-005,1.099806e-004
1.310491e-004,1.210010e-004
1.253768e-004,1.338042e-004
9.280167e-005,1.506590e-004
5.293359e-005,1.692965e-004
2.295151e-005,1.819376e-004
2.531276e-006,1.825859e-004
-1.416145e-005,1.718896e-004
-2.518189e-005,1.555210e-004
-2.469570e-005,1.352628e-004
-8.489166e-006,1.145184e-004
2.214118e-005,9.539470e-005
5.860588e-005,8.226741e-005
8.502253e-005,7.513654e-005
8.956036e-005,7.643307e-005
7.286763e-005,8.226741e-005
4.547859e-005,8.469840e-005
1.225520e-005,8.291568e-005
-2.453363e-005,7.724339e-005
-6.310517e-005,6.816773e-005
-1.039456e-004,5.779555e-005
-1.501342e-004,4.871989e-005
-2.008607e-004,4.158902e-005
-2.498044e-004,3.672706e-005
-2.896725e-004,3.105477e-005
-3.157650e-004,2.295151e-005
-3.298647e-004,1.225520e-005
-3.413713e-004,2.045080e-006
-3.596847e-004,-3.141010e-006
-3.854531e-004,-6.544382e-006
-4.120317e-004,-1.367526e-005
-4.258073e-004,-2.647842e-005
-4.074939e-004,-4.284701e-005
-3.499608e-004,-5.629844e-005
-2.603387e-004,-6.132246e-005
-1.478653e-004,-5.970181e-005
-2.258885e-005,-5.613637e-005
1.078737e-004,-5.629844e-005
2.318537e-004,-6.035007e-005
3.289309e-004,-6.910160e-005
3.773884e-004,-7.898758e-005
3.681507e-004,-8.692878e-005
3.046211e-004,-9.551824e-005
2.086784e-004,-1.068628e-004
1.099806e-004,-1.167488e-004
3.607880e-005,-1.152902e-004
5.124321e-006,-1.008664e-004
1.679302e-005,-7.801519e-005
6.330578e-005,-5.467778e-005
1.393144e-004,-3.944364e-005
2.443328e-004,-3.522994e-005
3.700955e-004,-3.539201e-005
5.018546e-004,-3.685060e-005
6.277795e-004,-3.830919e-005
7.371737e-004,-3.960571e-005
8.177201e-004,-4.025397e-005
8.605054e-004,-4.252288e-005
8.671501e-004,-4.138842e-005
8.457575e-004,-3.344723e-005
7.947069e-004,-1.675450e-005
7.024916e-004,6.744974e-006
