5.860587e-005,-1.854645e-004
-3.150244e-005,-1.635857e-004
-1.347380e-004,-1.227452e-004
-2.429977e-004,-7.444974e-005
-3.335922e-004,-3.701266e-005
-3.792946e-004,-1.934754e-005
-3.595226e-004,-1.869928e-005
-2.721694e-004,-2.518189e-005
-1.384655e-004,-3.992984e-005
2.693341e-006,-6.731887e-005
1.164632e-004,-1.078352e-004
1.799928e-004,-1.491618e-004
1.950649e-004,-1.708786e-004
1.770756e-004,-1.569410e-004
1.428798e-004,-1.079973e-004
1.073875e-004,-4.268495e-005
8.226741e-005,1.873781e-005
7.011251e-005,5.828174e-005
6.816773e-005,7.513654e-005
7.157111e-005,7.886404e-005
7.529860e-005,7.789165e-005
7.384001e-005,7.189524e-005
6.444023e-005,5.568870e-005
5.698522e-005,2.667901e-005
7.319175e-005,-6.544382e-006
1.266733e-004,-3.069211e-005
2.148369e-004,-3.150244e-005
3.151553e-004,-1.059601e-005
3.992672e-004,1.322759e-005
4.409180e-004,3.040651e-005
4.289252e-004,4.126489e-005
3.807918e-004,4.904402e-005
3.255275e-004,6.087479e-005
2.889007e-004,8.437427e-005
2.835526e-004,1.175977e-004
3.002453e-004,1.524417e-004
3.250413e-004,1.863134e-004
3.576164e-004,2.132162e-004
4.010499e-004,2.226160e-004
4.405939e-004,2.060853e-004
4.491834e-004,1.652449e-004
4.021844e-004,1.146805e-004
2.804733e-004,6.606088e-005
8.486046e-005,2.765140e-005
-1.606685e-004,8.527692e-006
-4.078180e-004,1.889987e-005
-6.150996e-004,5.406805e-005
-7.578791e-004,9.912220e-005
-8.267568e-004,1.292664e-004
-8.246499e-004,1.221355e-004
-7.664685e-004,6.849186e-005
-6.611261e-004,-2.356124e-005
-5.070020e-004,-1.227452e-004
-3.034480e-004,-1.906506e-004
-7.428768e-005,-2.092881e-004
1.315353e-004,-1.862748e-004
2.649151e-004,-1.400862e-004
3.021901e-004,-8.368747e-005
2.500050e-004,-2.031993e-005
1.321835e-004,5.925414e-005
-3.004385e-005,1.480659e-004
-2.224154e-004,2.216436e-004
-4.258073e-004,2.448189e-004
-6.071583e-004,1.926339e-004
-7.351899e-004,7.335382e-005
-7.898059e-004,-7.623246e-005
-7.688995e-004,-2.088019e-004
-6.771705e-004,-2.885380e-004
-5.264499e-004,-3.109030e-004
-3.378058e-004,-2.945344e-004
-1.374931e-004,-2.605007e-004
4.596478e-005,-2.185258e-004
1.837203e-004,-1.781715e-004
2.461155e-004,-1.392759e-004
2.276400e-004,-9.568031e-005
1.483901e-004,-4.851930e-005
4.839576e-005,-1.034161e-006
-3.279896e-005,4.061663e-005
-7.493595e-005,7.772959e-005
-8.028410e-005,1.224596e-004
-7.444974e-005,1.752929e-004
-8.125648e-005,2.287745e-004
-9.811128e-005,2.689667e-004
-1.067007e-004,2.887386e-004
-8.579432e-005,2.893869e-004
-2.793700e-005,2.676701e-004
5.325772e-005,2.321778e-004
1.344524e-004,2.002510e-004
1.950649e-004,1.850168e-004
2.111093e-004,1.929580e-004
1.704310e-004,2.187264e-004
7.562274e-005,2.414156e-004
-5.889147e-005,2.409294e-004
-2.068571e-004,2.052750e-004
-3.280819e-004,1.396385e-004
-3.826979e-004,5.893001e-005
-3.525538e-004,-2.210265e-005
-2.412149e-004,-9.713889e-005
-7.412562e-005,-1.603444e-004
9.474644e-005,-2.031296e-004
1.984682e-004,-2.144742e-004
2.098128e-004,-1.930815e-004
1.613553e-004,-1.481895e-004
1.156529e-004,-9.324932e-005
1.244044e-004,-3.847125e-005
2.036543e-004,9.175954e-006
3.295791e-004,4.450619e-005
4.580969e-004,6.654707e-005
5.530672e-004,7.805372e-005
6.000663e-004,8.437427e-005
6.054144e-004,9.377405e-005
5.849942e-004,1.073875e-004
5.525811e-004,1.188942e-004
5.161164e-004,1.252147e-004
4.866205e-004,1.211631e-004
4.791655e-004,1.025256e-004
4.981271e-004,7.448828e-005
5.379952e-004,4.855782e-005
5.867769e-004,3.105477e-005
6.316690e-004,2.862379e-005
6.528996e-004,4.483032e-005
6.362069e-004,7.432621e-005
5.730013e-004,1.025256e-004
4.696036e-004,1.156529e-004
3.441650e-004,1.056048e-004
2.205091e-004,7.643306e-005
1.229458e-004,3.640293e-005
7.302969e-005,-8.813297e-006
7.448828e-005,-5.467778e-005
1.161391e-004,-9.535618e-005
1.775618e-004,-1.227452e-004
2.438465e-004,-1.329553e-004
3.112657e-004,-1.225831e-004
3.801435e-004,-9.065627e-005
4.493454e-004,-3.766092e-005
5.078511e-004,2.846173e-005
5.420469e-004,9.490851e-005
5.460985e-004,1.472556e-004
5.298919e-004,1.748067e-004
5.072028e-004,1.816135e-004
4.846757e-004,1.752929e-004
4.582590e-004,1.678379e-004
4.146634e-004,1.594105e-004
3.195311e-004,1.432040e-004
1.399627e-004,1.156529e-004
-1.263107e-004,7.254349e-005
-4.416897e-004,8.203561e-006
-7.381071e-004,-7.477388e-005
-9.492782e-004,-1.574272e-004
-1.040197e-003,-2.146362e-004
-1.018966e-003,-2.368392e-004
-9.081136e-004,-2.227395e-004
-7.322727e-004,-1.788198e-004
-5.196431e-004,-1.201522e-004
-2.987481e-004,-6.067420e-005
-9.422171e-005,-1.529591e-005
7.416414e-005,5.610517e-006
1.971717e-004,1.558884e-006
2.863077e-004,-1.432352e-005
3.632887e-004,-3.231276e-005
4.402698e-004,-4.527799e-005
5.159543e-004,-4.949169e-005
5.830494e-004,-3.668853e-005
6.405826e-004,-7.516774e-006
6.935780e-004,2.813760e-005
7.475458e-004,5.617490e-005
7.908173e-004,6.816773e-005
8.118858e-004,7.221937e-005
8.057273e-004,8.923622e-005
7.520836e-004,1.269974e-004
6.169211e-004,1.691344e-004
3.754436e-004,1.986303e-004
4.061663e-005,2.112714e-004
-3.413713e-004,2.106232e-004
-7.154179e-004,2.021958e-004
-1.037117e-003,1.947408e-004
-1.285888e-003,2.039785e-004
-1.453787e-003,2.470879e-004
-1.536441e-003,3.264999e-004
-1.527689e-003,4.203357e-004
-1.437743e-003,5.028270e-004
-1.306794e-003,5.493397e-004
-1.187514e-003,5.441537e-004
-1.118799e-003,4.806241e-004
-1.097892e-003,3.653956e-004
-1.097244e-003,2.187264e-004
-1.084927e-003,7.205730e-005
-1.039710e-003,-4.365734e-005
-9.633778e-004,-1.102662e-004
-8.872072e-004,-1.334415e-004
-8.607905e-004,-1.295519e-004
-8.948242e-004,-1.117248e-004
-9.505747e-004,-8.482193e-005
-9.624055e-004,-5.013995e-005
-8.961207e-004,-8.975361e-006
-7.609583e-004,2.603075e-005
-5.971103e-004,4.466826e-005
-4.402311e-004,4.774750e-005
-3.034480e-004,3.996836e-005
-1.874093e-004,2.586868e-005
-7.833932e-005,1.387585e-005
3.899597e-005,6.582909e-006
1.756170e-004,-8.002969e-006
3.276343e-004,-4.511592e-005
4.751138e-004,-1.125351e-004
5.934216e-004,-1.995642e-004
6.629477e-004,-2.848105e-004
6.823955e-004,-3.429920e-004
6.593821e-004,-3.603329e-004
6.123832e-004,-3.444505e-004
5.670049e-004,-3.049066e-004
5.454502e-004,-2.481837e-004
5.577672e-004,-1.831956e-004
5.986076e-004,-1.235555e-004
6.546823e-004,-8.190475e-005
7.099466e-004,-6.748093e-005
7.501388e-004,-7.979790e-005
7.624558e-004,-1.023250e-004
7.488423e-004,-1.026491e-004
7.180499e-004,-5.743289e-005
6.815851e-004,2.343770e-005
6.460928e-004,1.025256e-004
6.130315e-004,1.524417e-004
5.791598e-004,1.594105e-004
5.451261e-004,1.261871e-004
5.221128e-004,7.367795e-005
5.274609e-004,3.202716e-005
5.600361e-004,1.792748e-005
5.921251e-004,3.624086e-005
5.960146e-004,7.124698e-005
5.595500e-004,1.005808e-004
4.913204e-004,1.090082e-004
4.088291e-004,9.134307e-005
3.247172e-004,5.714729e-005
2.453051e-004,2.197911e-005
1.738343e-004,-5.247859e-006
1.090082e-004,-2.550602e-005
6.022653e-005,-4.171255e-005
4.596478e-005,-5.451571e-005
9.053274e-005,-6.764300e-005
2.094887e-004,-7.639453e-005
4.070464e-004,-7.558420e-005
6.637580e-004,-6.391550e-005
9.415381e-004,-4.219875e-005
1.184961e-003,-1.173047e-005
1.342326e-003,2.700314e-005
1.389487e-003,6.281957e-005
1.337464e-003,8.161915e-005
1.222884e-003,7.740545e-005
1.091611e-003,6.103685e-005
9.784891e-004,4.969228e-005
8.844911e-004,5.423011e-005
7.814175e-004,7.691926e-005
6.324793e-004,1.043083e-004
4.166082e-004,1.292664e-004
1.409351e-004,1.466074e-004
-1.640719e-004,1.582760e-004
-4.606513e-004,1.657311e-004
-7.223868e-004,1.725378e-004
-9.395542e-004,1.786963e-004
-1.105995e-003,1.835582e-004
-1.215227e-003,1.798307e-004
-1.259147e-003,1.675138e-004
-1.235485e-003,1.566554e-004
-1.149267e-003,1.555209e-004
-1.021883e-003,1.662173e-004
-8.812107e-004,1.827479e-004
-7.483172e-004,1.953890e-004
-6.285509e-004,2.015475e-004
-5.196431e-004,2.010613e-004
-4.170558e-004,1.953890e-004
-3.207890e-004,1.895547e-004
-2.433218e-004,1.858272e-004
-1.934057e-004,1.864754e-004
-1.608306e-004,1.859892e-004
-1.267968e-004,1.811273e-004
-8.012203e-005,1.726999e-004
-2.437157e-005,1.616794e-004
2.392390e-005,1.430419e-004
5.585077e-005,1.143563e-004
6.168512e-005,8.469840e-005
3.624086e-005,6.249544e-005
-1.189254e-005,5.520250e-005
-6.407756e-005,6.103685e-005
-1.026491e-004,7.076077e-005
-1.298761e-004,7.610893e-005
-1.618029e-004,7.205730e-005
-2.083157e-004,5.001641e-005
-2.608248e-004,6.907039e-006
-3.186821e-004,-4.916756e-005
-3.955011e-004,-1.097800e-004
-4.995470e-004,-1.720131e-004
-6.197994e-004,-2.352185e-004
-7.233592e-004,-2.925896e-004
-7.640375e-004,-3.287302e-004
-7.100698e-004,-3.384541e-004
-5.575664e-004,-3.261371e-004
-3.297026e-004,-3.021515e-004
-6.391550e-005,-2.723315e-004
2.039785e-004,-2.266291e-004
4.287631e-004,-1.601823e-004
5.655463e-004,-8.806324e-005
5.969870e-004,-3.166451e-005
5.426951e-004,-4.437533e-006
4.597176e-004,-1.844488e-006
4.102877e-004,-5.896120e-006
4.271425e-004,5.864920e-007
5.041235e-004,2.133085e-005
6.151383e-004,5.520250e-005
7.229118e-004,9.555677e-005
8.036204e-004,1.393144e-004
8.426782e-004,1.845306e-004
8.337646e-004,2.300710e-004
7.728280e-004,2.722080e-004
6.626235e-004,3.004074e-004
5.178991e-004,3.055935e-004
3.555096e-004,2.827422e-004
1.717275e-004,2.362295e-004
-4.317114e-005,1.795066e-004
-2.825416e-004,1.279698e-004
-5.165638e-004,9.393611e-005
-7.065043e-004,7.691926e-005
-8.243258e-004,6.881599e-005
-8.716489e-004,6.606088e-005
-8.633835e-004,5.925414e-005
-8.319428e-004,4.061663e-005
-8.218948e-004,8.689757e-006
-8.528493e-004,-2.777494e-005
-9.238339e-004,-5.808115e-005
-1.007784e-003,-8.060822e-005
-1.049272e-003,-1.045939e-004
-9.948185e-004,-1.363587e-004
-8.554424e-004,-1.757406e-004
-6.954839e-004,-2.079916e-004
-5.677765e-004,-2.131776e-004
-4.762096e-004,-1.823852e-004
-3.836703e-004,-1.263107e-004
-2.511009e-004,-6.342930e-005
-5.905355e-005,-1.189254e-005
1.798307e-004,1.906194e-005
4.339492e-004,3.737532e-005
6.674855e-004,5.293359e-005
8.536986e-004,6.654707e-005
9.846475e-004,7.238143e-005
1.063898e-003,6.719534e-005
1.104090e-003,5.277152e-005
1.128886e-003,3.591673e-005
1.156275e-003,2.262737e-005
1.182205e-003,1.419998e-005
1.179937e-003,8.851824e-006
1.125158e-003,1.387585e-005
1.013819e-003,3.202716e-005
8.609916e-004,5.763348e-005
6.948745e-004,7.708132e-005
5.410744e-004,8.307774e-005
4.221185e-004,7.627100e-005
3.686369e-004,6.119892e-005
4.263321e-004,4.645098e-005
6.242140e-004,3.964423e-005
9.295453e-004,4.466826e-005
1.251245e-003,5.552663e-005
1.477327e-003,6.768153e-005
1.541343e-003,8.161915e-005
1.458203e-003,9.393611e-005
1.292734e-003,1.043083e-004
1.094204e-003,1.117633e-004
8.663398e-004,1.128978e-004
5.879113e-004,1.112771e-004
2.420638e-004,1.114392e-004
-1.950263e-004,1.179218e-004
-7.350278e-004,1.286181e-004
-1.347959e-003,1.422316e-004
-1.955866e-003,1.577899e-004
-2.449841e-003,1.723757e-004
-2.756956e-003,1.827479e-004
-2.853061e-003,1.859892e-004
-2.734915e-003,1.764274e-004
-2.398467e-003,1.517934e-004
-1.844203e-003,1.151667e-004
-1.085089e-003,7.416414e-005
-1.378173e-004,3.413401e-005
9.561240e-004,-3.465141e-006
2.095446e-003,-4.009190e-005
3.144338e-003,-7.218083e-005
3.931497e-003,-1.003802e-004
4.303603e-003,-1.292278e-004
4.117874e-003,-1.598582e-004
3.287281e-003,-1.921091e-004
1.941321e-003,-2.300324e-004
3.595612e-004,-2.674695e-004
-1.165635e-003,-2.927517e-004
-2.460214e-003,-2.882139e-004
-3.494679e-003,-2.475355e-004
-4.260118e-003,-1.869231e-004
-4.800772e-003,-1.339277e-004
-4.967702e-003,-1.055663e-004
-4.967539e-003,-9.811128e-005
-4.967377e-003,-1.005423e-004
-4.967377e-003,-1.021629e-004
-4.967539e-003,-9.940780e-005
-4.967377e-003,-8.952182e-005
-4.967539e-003,-6.893953e-005
-4.967377e-003,-4.219875e-005
-4.052349e-003,-1.659243e-005
-2.361354e-003,2.369210e-006
-6.287130e-004,1.355172e-005
8.934047e-004,1.744128e-005
2.017654e-003,2.052053e-005
2.738849e-003,2.959618e-005
3.131049e-003,4.936815e-005
3.311267e-003,7.432621e-005
3.391490e-003,9.604297e-005
3.432331e-003,1.012291e-004
3.443838e-003,8.583285e-005
3.414666e-003,5.844381e-005
3.334443e-003,4.207521e-005
3.206734e-003,5.277152e-005
3.050826e-003,8.145709e-005
2.889894e-003,1.072255e-004
2.739821e-003,1.210010e-004
2.605792e-003,1.258630e-004
2.483918e-003,1.334801e-004
2.366258e-003,1.432040e-004
2.250867e-003,1.545486e-004
2.141797e-003,1.662173e-004
2.032240e-003,1.754550e-004
1.911177e-003,1.762653e-004
1.768397e-003,1.694586e-004
1.596931e-003,1.613553e-004
1.407801e-003,1.598967e-004
1.230663e-003,1.655690e-004
1.092421e-003,1.702689e-004
1.000854e-003,1.696206e-004
9.595274e-004,1.631380e-004
9.656859e-004,1.540623e-004
1.013981e-003,1.493625e-004
1.096635e-003,1.500107e-004
1.193388e-003,1.581140e-004
1.267290e-003,1.696206e-004
1.283983e-003,1.752929e-004
1.235525e-003,1.701068e-004
1.136827e-003,1.537382e-004
1.012847e-003,1.286181e-004
8.754155e-004,1.007429e-004
7.303669e-004,7.853991e-005
5.911527e-004,6.930219e-005
4.793275e-004,6.687120e-005
4.026706e-004,6.638501e-005
3.469201e-004,6.735740e-005
2.908455e-004,7.853991e-005
2.200230e-004,1.060910e-004
1.363972e-004,1.451487e-004
4.969228e-005,1.790204e-004
-3.409548e-005,1.927960e-004
-1.114006e-004,1.816135e-004
-1.781715e-004,1.456350e-004
-2.337599e-004,9.182927e-005
-2.820554e-004,2.910999e-005
-3.253268e-004,-2.501983e-005
-3.684362e-004,-5.273300e-005
-4.094387e-004,-4.787104e-005
-4.433104e-004,-2.129233e-005
-4.664857e-004,8.203561e-006
-4.854473e-004,3.024445e-005
-5.141328e-004,4.823369e-005
-5.661558e-004,7.286762e-005
-6.445954e-004,1.114392e-004
-7.332451e-004,1.642725e-004
-8.092538e-004,2.125679e-004
-8.607905e-004,2.337985e-004
-8.851003e-004,2.175920e-004
-8.883416e-004,1.752929e-004
-8.716489e-004,1.282940e-004
-8.322670e-004,8.891209e-005
-7.620928e-004,5.990240e-005
-6.567503e-004,4.142695e-005
-5.301774e-004,3.753739e-005
-4.123559e-004,4.628891e-005
-3.292164e-004,5.941620e-005
-2.817312e-004,6.865393e-005
-2.525595e-004,7.027457e-005
-2.227395e-004,6.687120e-005
-1.877334e-004,5.957827e-005
-1.467309e-004,4.953022e-005
-9.875954e-005,3.267542e-005
-4.090223e-005,8.041497e-006
3.802358e-005,-2.210265e-005
1.414213e-004,-5.678463e-005
2.480603e-004,-9.276313e-005
3.162897e-004,-1.274451e-004
3.000832e-004,-1.645580e-004
1.652449e-004,-2.104225e-004
-9.179074e-005,-2.679557e-004
-4.408794e-004,-3.459091e-004
-8.385876e-004,-4.590307e-004
-1.241806e-003,-5.959758e-004
-1.612612e-003,-7.134731e-004
-1.920536e-003,-7.658203e-004
-2.156827e-003,-7.350278e-004
-2.328779e-003,-6.306578e-004
-2.447087e-003,-4.822060e-004
-2.506889e-003,-3.237062e-004
-2.490844e-003,-1.818990e-004
-2.359247e-003,-6.472583e-005
-2.073364e-003,4.077869e-005
-1.651993e-003,1.608691e-004
-1.175683e-003,3.017039e-004
-7.544757e-004,4.333010e-004
-4.690787e-004,5.170887e-004
-3.397506e-004,5.383193e-004
-3.361852e-004,5.039615e-004
-4.107352e-004,4.381629e-004
-5.189948e-004,3.728506e-004
-6.215821e-004,3.289309e-004
-6.844635e-004,3.089968e-004
-7.055320e-004,2.984626e-004
-7.027768e-004,2.850111e-004
-6.883531e-004,2.629703e-004
-6.663122e-004,2.339606e-004
-6.338991e-004,2.007372e-004
-5.820383e-004,1.633001e-004
-5.034365e-004,1.282940e-004
-3.967976e-004,1.125736e-004
-2.575835e-004,1.190562e-004
-8.660465e-005,1.323456e-004
1.067393e-004,1.359110e-004
3.136967e-004,1.266733e-004
5.305402e-004,1.064151e-004
7.430080e-004,8.696730e-005
9.327867e-004,7.805372e-005
1.083994e-003,7.675719e-005
1.192902e-003,6.930219e-005
1.275717e-003,4.645098e-005
1.353671e-003,1.176900e-005
1.430490e-003,-2.518189e-005
1.500826e-003,-6.002593e-005
1.555443e-003,-8.384953e-005
1.594014e-003,-9.195280e-005
1.613300e-003,-8.773910e-005
1.604711e-003,-7.363942e-005
1.569056e-003,-5.062615e-005
1.518654e-003,-2.177852e-005
1.475868e-003,8.203561e-006
1.454638e-003,3.380988e-005
1.451883e-003,5.050261e-005
1.455124e-003,5.341978e-005
1.457069e-003,3.964423e-005
1.451883e-003,1.614476e-005
1.435190e-003,-6.868512e-006
1.406342e-003,-2.323711e-005
1.364043e-003,-3.782299e-005
1.299865e-003,-5.370539e-005
1.197602e-003,-6.829127e-005
1.042829e-003,-7.234290e-005
8.251751e-004,-5.791909e-005
5.564707e-004,-2.826113e-005
2.636185e-004,4.962256e-006
-1.691656e-005,2.927205e-005
-2.473734e-004,3.834771e-005
-3.932322e-004,2.894792e-005
-4.387725e-004,-7.100305e-007
-3.979321e-004,-3.652646e-005
-3.076617e-004,-6.440169e-005
-1.968091e-004,-7.412562e-005
-7.590833e-005,-6.650855e-005
4.888196e-005,-5.013995e-005
1.683241e-004,-3.928157e-005
2.731804e-004,-4.203669e-005
3.569682e-004,-5.095028e-005
4.140152e-004,-5.402952e-005
4.388112e-004,-3.928157e-005
4.217943e-004,-3.141010e-006
3.525924e-004,4.110282e-005
2.357433e-004,7.610893e-005
8.810177e-005,9.118101e-005
-6.132245e-005,8.680524e-005
-1.752544e-004,7.205730e-005
-2.402425e-004,5.228533e-005
-2.802727e-004,3.413401e-005
-3.452609e-004,2.214118e-005
-4.946851e-004,1.565857e-005
-7.664685e-004,1.436204e-005
-1.115233e-003,1.695509e-005
-1.447629e-003,2.311357e-005
-1.705961e-003,3.834771e-005
-1.887474e-003,6.103685e-005
-1.992493e-003,8.907416e-005
-2.010644e-003,1.164632e-004
-1.927991e-003,1.349386e-004
-1.743884e-003,1.388282e-004
-1.467725e-003,1.313732e-004
-1.126415e-003,1.219734e-004
-7.442656e-004,1.197045e-004
-3.507711e-004,1.239182e-004
1.128280e-005,1.346145e-004
3.060797e-004,1.522796e-004
5.272989e-004,1.741585e-004
6.867713e-004,1.953890e-004
7.955172e-004,2.028440e-004
8.564538e-004,1.919856e-004
8.702294e-004,1.670276e-004
8.397610e-004,1.402868e-004
7.760693e-004,1.240803e-004
6.922815e-004,1.222975e-004
6.024972e-004,1.271595e-004
5.217887e-004,1.286181e-004
4.694415e-004,1.304008e-004
4.496696e-004,1.338042e-004
4.572866e-004,1.370455e-004
4.793275e-004,1.336421e-004
5.026649e-004,1.145184e-004
5.225990e-004,6.881599e-005
5.399400e-004,-1.318906e-005
5.516087e-004,-1.220969e-004
5.517707e-004,-2.420253e-004
5.355643e-004,-3.499608e-004
4.997478e-004,-4.170558e-004
4.428628e-004,-4.224039e-004
3.709058e-004,-3.668155e-004
2.968419e-004,-2.726556e-004
2.287745e-004,-1.686097e-004
1.735102e-004,-7.558420e-005
1.331559e-004,-7.516774e-006
1.013911e-004,3.105477e-005
6.930219e-005,4.418206e-005
3.283749e-005,4.337174e-005
-7.678839e-006,3.915804e-005
-6.099833e-005,3.818564e-005
-1.329553e-004,3.899597e-005
-2.147983e-004,3.721326e-005
-2.852967e-004,2.927205e-005
-3.275957e-004,1.663096e-005
-3.340783e-004,4.476060e-006
-3.134960e-004,-5.085794e-006
-2.835140e-004,-1.302699e-005
-2.593662e-004,-2.080613e-005
-2.460769e-004,-2.712668e-005
-2.473734e-004,-2.745081e-005
-2.606628e-004,-2.339917e-005
-2.752486e-004,-1.788895e-005
-2.775176e-004,-1.286493e-005
-2.545043e-004,-5.896120e-006
-2.021572e-004,5.772582e-006
-1.277692e-004,1.987226e-005
-4.949169e-005,3.413401e-005
1.436204e-005,4.661304e-005
4.499239e-005,5.471631e-005
2.441009e-005,5.244739e-005
-5.419158e-005,3.899597e-005
-1.763888e-004,2.165498e-005
-3.032860e-004,1.355172e-005
-3.948528e-004,1.841368e-005
-4.214316e-004,2.992031e-005
-3.765395e-004,3.964423e-005
-2.836761e-004,4.564065e-005
-1.781715e-004,4.839576e-005
-8.822530e-005,5.423011e-005
-1.983374e-005,6.865393e-005
3.397195e-005,8.842590e-005
8.097089e-005,1.052807e-004
1.227837e-004,1.174356e-004
1.568175e-004,1.271595e-004
1.795066e-004,1.347766e-004
1.872858e-004,1.378558e-004
1.845306e-004,1.399627e-004
1.749688e-004,1.496866e-004
1.603829e-004,1.624898e-004
1.430419e-004,1.686482e-004
1.276457e-004,1.670276e-004
1.208390e-004,1.602208e-004
1.268354e-004,1.532520e-004
1.451487e-004,1.503348e-004
1.665414e-004,1.490383e-004
1.808031e-004,1.469315e-004
1.859892e-004,1.435281e-004
1.876099e-004,1.370455e-004
1.947408e-004,1.268354e-004
2.162954e-004,1.158149e-004
2.548670e-004,1.109530e-004
3.070520e-004,1.135460e-004
3.608577e-004,1.219734e-004
4.089912e-004,1.292664e-004
4.462662e-004,1.302387e-004
4.639313e-004,1.269974e-004
4.558280e-004,1.257009e-004
4.198496e-004,1.333180e-004
3.603715e-004,1.521176e-004
2.869559e-004,1.773998e-004
2.080301e-004,1.983062e-004
1.294284e-004,2.023578e-004
5.763348e-005,1.824238e-004
4.244267e-007,1.432040e-004
-4.268495e-005,9.507057e-005
-8.174268e-005,4.320967e-005
-1.279313e-004,-7.678839e-006
-1.836818e-004,-4.868136e-005
-2.483458e-004,-7.509801e-005
-3.193304e-004,-8.190475e-005
-3.940425e-004,-6.812920e-005
-4.650271e-004,-3.944364e-005
-5.288809e-004,-9.623623e-006
-5.898174e-004,9.500084e-006
-6.449196e-004,1.306552e-005
-6.847876e-004,2.693341e-006
-6.980770e-004,-1.659243e-005
-6.792774e-004,-4.236081e-005
-6.338991e-004,-7.104637e-005
-5.749073e-004,-9.486997e-005
-5.081365e-004,-1.102662e-004
-4.282383e-004,-1.156143e-004
-3.240303e-004,-1.110765e-004
-1.921091e-004,-1.028112e-004
-3.928157e-005,-9.892161e-005
1.234320e-004,-1.049180e-004
2.760976e-004,-1.148040e-004
3.955397e-004,-1.133454e-004
4.650658e-004,-9.389758e-005
4.767345e-004,-6.326724e-005
4.345975e-004,-3.279896e-005
3.498373e-004,-2.816880e-006
2.357433e-004,3.202716e-005
9.571883e-005,6.541262e-005
-7.493595e-005,8.161915e-005
-2.720073e-004,7.027457e-005
-4.718338e-004,3.591673e-005
-6.259579e-004,-9.947754e-006
-6.723086e-004,-5.451571e-005
-5.718281e-004,-8.595638e-005
-3.366714e-004,-9.616650e-005
-2.404744e-005,-8.320127e-005
2.908455e-004,-5.710876e-005
5.449640e-004,-3.053005e-005
7.078398e-004,-1.043395e-005
7.853070e-004,4.151929e-006
8.159374e-004,1.971020e-005
8.391127e-004,4.045456e-005
8.741189e-004,6.492643e-005
9.141491e-004,8.712937e-005
9.384589e-004,1.047945e-004
9.243592e-004,1.132219e-004
8.606674e-004,1.150046e-004
7.289082e-004,1.109530e-004
5.055821e-004,1.044704e-004
1.924718e-004,9.960840e-005
-1.767129e-004,9.458438e-005
-5.358497e-004,8.842590e-005
-8.115227e-004,8.323980e-005
-9.474955e-004,7.967437e-005
-9.330716e-004,7.643306e-005
-7.995298e-004,7.708132e-005
-5.951655e-004,7.967437e-005
-3.676258e-004,8.064676e-005
-1.564548e-004,7.659513e-005
9.500084e-006,6.654707e-005
1.201907e-004,5.649903e-005
1.863134e-004,5.309565e-005
2.289365e-004,5.811968e-005
2.675081e-004,7.092283e-005
3.109416e-004,8.323980e-005
3.559958e-004,8.583285e-005
3.906778e-004,8.080882e-005
4.106118e-004,7.254349e-005
4.203357e-004,6.265751e-005
4.303838e-004,5.034054e-005
4.485351e-004,3.932010e-005
4.717104e-004,3.559260e-005
4.858101e-004,4.175108e-005
4.815964e-004,4.823369e-005
4.559901e-004,4.580272e-005
4.133669e-004,3.672705e-005
3.613439e-004,2.473422e-005
3.128864e-004,1.468617e-005
2.754493e-004,1.338965e-005
2.480603e-004,2.052053e-005
2.265056e-004,3.235129e-005
2.041405e-004,4.515445e-005
1.788584e-004,5.552663e-005
1.446626e-004,5.893001e-005
9.960840e-005,5.196120e-005
4.709924e-005,4.126489e-005
-2.330684e-006,3.056858e-005
-4.317114e-005,1.971020e-005
-7.477388e-005,6.744974e-006
-9.713889e-005,-9.785687e-006
-1.123730e-004,-2.874733e-005
-1.238797e-004,-4.868136e-005
-1.420310e-004,-6.472583e-005
-1.736337e-004,-7.153257e-005
-2.188499e-004,-6.472583e-005
-2.637420e-004,-4.689864e-005
-2.880518e-004,-2.793700e-005
-2.815692e-004,-1.529591e-005
-2.545043e-004,-1.189254e-005
-2.237119e-004,-1.302699e-005
-2.006986e-004,-1.335112e-005
-1.867610e-004,-1.075808e-005
-1.807646e-004,-9.623623e-006
-1.754164e-004,-1.367526e-005
-1.690959e-004,-2.323711e-005
-1.681235e-004,-3.231276e-005
-1.776853e-004,-3.150244e-005
-1.968091e-004,-2.194059e-005
-2.182017e-004,-7.516774e-006
-2.335979e-004,6.744974e-006
-2.429977e-004,1.501031e-005
-2.434839e-004,1.144487e-005
-2.248463e-004,-1.358292e-006
-1.799543e-004,-1.480971e-005
-1.117248e-004,-2.031993e-005
-2.971972e-005,-1.724069e-005
5.682316e-005,-1.140634e-005
1.341283e-004,-2.978945e-006
1.863134e-004,1.403791e-005
2.127300e-004,3.932010e-005
2.303951e-004,6.444023e-005
2.597290e-004,8.793970e-005
3.064038e-004,1.043083e-004
3.687989e-004,1.091703e-004
4.394594e-004,1.004187e-004
5.072028e-004,8.210535e-005
5.684635e-004,6.055066e-005
6.248623e-004,4.596478e-005
6.704027e-004,4.256141e-005
6.992503e-004,4.936815e-005
7.088121e-004,6.525056e-005
7.002227e-004,8.388807e-005
6.699165e-004,1.022014e-004
6.080074e-004,1.200286e-004
5.136854e-004,1.331559e-004
4.052637e-004,1.376937e-004
2.921420e-004,1.325077e-004
1.668655e-004,1.203528e-004
1.144487e-005,1.028497e-004
-1.870851e-004,8.518459e-005
-4.267797e-004,7.432621e-005
-6.841394e-004,7.286762e-005
-9.226995e-004,7.513654e-005
-1.117664e-003,7.335382e-005
-1.259309e-003,6.719534e-005
-1.343421e-003,6.444023e-005
-1.359141e-003,6.687120e-005
-1.297718e-003,7.351588e-005
-1.173090e-003,8.405013e-005
-1.009080e-003,9.750155e-005
-8.314567e-004,1.052807e-004
-6.672845e-004,1.117633e-004
-5.287188e-004,1.239182e-004
-4.180282e-004,1.410971e-004
-3.350507e-004,1.545486e-004
-2.762210e-004,1.540623e-004
-2.305186e-004,1.341283e-004
-1.853024e-004,1.000946e-004
-1.324691e-004,6.800567e-005
-7.169464e-005,4.742337e-005
-7.516774e-006,3.834771e-005
6.152305e-005,3.283749e-005
1.373696e-004,2.959618e-005
2.094887e-004,2.992031e-005
2.636185e-004,3.040651e-005
2.913317e-004,3.089270e-005
2.903593e-004,3.008238e-005
2.660495e-004,2.667901e-005
2.328261e-004,2.327564e-005
2.044647e-004,2.068259e-005
1.923098e-004,1.517237e-005
1.910132e-004,2.369210e-006
1.924718e-004,-1.529591e-005
1.900409e-004,-2.793700e-005
1.850168e-004,-3.328516e-005
1.819376e-004,-3.279896e-005
1.819376e-004,-2.777494e-005
1.919856e-004,-2.080613e-005
2.111093e-004,-1.902341e-005
2.312054e-004,-2.469570e-005
2.453051e-004,-3.717472e-005
2.579462e-004,-5.046408e-005
2.786906e-004,-5.824321e-005
3.049452e-004,-5.710876e-005
3.292550e-004,-4.738484e-005
3.448132e-004,-3.620233e-005
3.548613e-004,-3.020592e-005
3.692851e-004,-3.247483e-005
3.947294e-004,-4.187462e-005
4.294114e-004,-5.273300e-005
4.697657e-004,-6.164659e-005
5.101199e-004,-6.326724e-005
5.389676e-004,-5.840528e-005
5.410744e-004,-5.095028e-005
5.060683e-004,-4.122636e-005
4.334631e-004,-2.826113e-005
3.300653e-004,-1.383732e-005
2.101370e-004,-4.599598e-006
9.377405e-005,-5.085794e-006
-1.221667e-005,-8.651231e-006
-1.089697e-004,-6.058186e-006
-1.971332e-004,4.476060e-006
-2.664971e-004,2.052053e-005
-3.055549e-004,3.624086e-005
-3.066893e-004,5.066468e-005
-2.676316e-004,6.071273e-005
-1.917850e-004,6.071273e-005
-9.033214e-005,5.115087e-005
1.744128e-005,4.175108e-005
1.138701e-004,4.013043e-005
1.916615e-004,4.337174e-005
2.516257e-004,4.936815e-005
2.970040e-004,5.552663e-005
3.381686e-004,6.087479e-005
3.814400e-004,6.622294e-005
4.237391e-004,7.659513e-005
4.566384e-004,9.134307e-005
4.791655e-004,1.030118e-004
4.976409e-004,1.056048e-004
5.161164e-004,1.000946e-004
5.376711e-004,9.263960e-005
5.600361e-004,8.745350e-005
5.833735e-004,8.405013e-005
6.033076e-004,7.918817e-005
6.071971e-004,7.092283e-005
5.809425e-004,6.330577e-005
5.170887e-004,5.990240e-005
4.182289e-004,6.136099e-005
2.961937e-004,6.281957e-005
1.702689e-004,6.022653e-005
5.941620e-005,5.747142e-005
-2.874733e-005,5.666109e-005
-9.730095e-005,6.233338e-005
-1.473791e-004,7.335382e-005
-1.861127e-004,9.069480e-005
-2.276015e-004,1.112771e-004
-2.823795e-004,1.289422e-004
-3.544986e-004,1.334801e-004
-4.454172e-004,1.203528e-004
-5.410357e-004,9.701536e-005
-6.254717e-004,7.400208e-005
-6.954839e-004,5.536457e-005
-7.549619e-004,4.272347e-005
-8.149261e-004,3.510640e-005
-8.838038e-004,3.137890e-005
-9.555987e-004,2.522042e-005
-1.020587e-003,1.468617e-005
-1.069044e-003,5.610517e-006
-1.099351e-003,4.476060e-006
-1.107778e-003,1.176900e-005
-1.082334e-003,2.230324e-005
-1.010053e-003,2.797553e-005
-8.873692e-004,2.538249e-005
-7.149318e-004,1.582063e-005
-5.040848e-004,7.485573e-007
-2.763831e-004,-8.165034e-006
-5.581224e-005,-4.599598e-006
1.427178e-004,1.095867e-005
3.224483e-004,3.348575e-005
4.909962e-004,4.871989e-005
6.449584e-004,4.531652e-005
7.750969e-004,2.765140e-005
8.705535e-004,4.313994e-006
9.162559e-004,-1.999580e-005
9.032907e-004,-4.090223e-005
8.355473e-004,-5.532604e-005
7.232359e-004,-6.667061e-005
5.728393e-004,-7.380149e-005
4.010499e-004,-7.655659e-005
2.276400e-004,-7.347736e-005
6.038860e-005,-6.197072e-005
-9.179074e-005,-3.976777e-005
-2.091260e-004,-1.010982e-005
-2.669833e-004,2.230324e-005
-2.605007e-004,5.098881e-005
-2.053985e-004,6.784360e-005
-1.308485e-004,7.189524e-005
-7.266703e-005,6.978838e-005
-5.727082e-005,6.832980e-005
-9.260106e-005,7.270556e-005
-1.687718e-004,8.064676e-005
-2.561249e-004,9.085687e-005
-3.261371e-004,9.831188e-005
-3.591985e-004,1.015532e-004
-3.476918e-004,1.044704e-004
-2.917793e-004,1.070634e-004
-1.968091e-004,1.064151e-004
-7.590833e-005,1.015532e-004
5.893001e-005,9.409818e-005
1.966855e-004,8.615698e-005
3.237448e-004,7.740545e-005
4.222805e-004,6.638501e-005
4.768966e-004,5.374392e-005
4.799758e-004,4.045456e-005
4.350837e-004,2.684107e-005
3.683128e-004,1.695509e-005
3.102933e-004,1.225519e-005
2.872800e-004,1.241726e-005
3.065658e-004,1.501031e-005
3.569682e-004,2.262737e-005
4.226046e-004,3.964423e-005
4.841895e-004,6.427816e-005
5.266506e-004,8.777764e-005
5.456123e-004,1.069013e-004
5.491777e-004,1.159770e-004
5.504742e-004,1.111150e-004
5.610085e-004,9.717742e-005
5.788357e-004,8.307774e-005
5.906665e-004,7.076077e-005
5.856425e-004,6.249544e-005
5.592257e-004,5.536457e-005
5.091476e-004,5.179913e-005
4.384870e-004,5.455424e-005
3.548613e-004,6.298164e-005
2.676701e-004,7.497447e-005
1.903650e-004,8.453633e-005
1.334801e-004,8.323980e-005
9.993253e-005,6.995045e-005
8.226741e-005,5.374392e-005
6.589881e-005,3.964423e-005
4.385793e-005,2.554455e-005
1.387585e-005,9.175954e-006
-2.372330e-005,-7.030578e-006
-7.396355e-005,-1.513384e-005
-1.441378e-004,-5.085794e-006
-2.391081e-004,2.684107e-005
-3.543365e-004,6.589881e-005
-4.718338e-004,8.939829e-005
-5.677765e-004,8.340186e-005
-6.277406e-004,4.904402e-005
-6.536711e-004,2.855406e-006
-6.525366e-004,-3.539201e-005
-6.369783e-004,-5.597430e-005
-6.123444e-004,-6.261898e-005
-5.768521e-004,-6.067420e-005
-5.298532e-004,-5.775702e-005
-4.718338e-004,-5.872941e-005
-4.076560e-004,-6.229485e-005
-3.408851e-004,-6.764300e-005
-2.786520e-004,-7.444974e-005
-2.243601e-004,-7.493595e-005
-1.806025e-004,-6.845333e-005
-1.412206e-004,-5.905355e-005
-9.924574e-005,-4.868136e-005
-4.495386e-005,-4.122636e-005
2.473422e-005,-4.738484e-005
1.056048e-004,-7.169464e-005
1.931201e-004,-1.010285e-004
2.876042e-004,-1.167488e-004
3.884088e-004,-1.054042e-004
4.918065e-004,-6.521203e-005
5.974732e-004,-1.610623e-005
7.024916e-004,8.203561e-006
7.982723e-004,-7.030578e-006
8.686087e-004,-5.419158e-005
8.927564e-004,-1.057284e-004
8.588848e-004,-1.327932e-004
7.503009e-004,-1.243659e-004
5.401021e-004,-7.688072e-005
2.214815e-004,-2.330684e-006
-1.676373e-004,8.502253e-005
-5.441150e-004,1.683241e-004
-8.118468e-004,2.339606e-004
-9.132997e-004,2.722080e-004
-8.458805e-004,2.775562e-004
-6.561021e-004,2.535705e-004
-4.070077e-004,2.044647e-004
-1.536997e-004,1.435281e-004
6.087479e-005,8.518459e-005
2.114335e-004,4.450619e-005
2.986246e-004,2.975825e-005
3.410858e-004,3.753739e-005
3.522683e-004,5.811968e-005
3.350894e-004,8.469840e-005
2.916558e-004,1.117633e-004
2.274780e-004,1.354248e-004
1.449867e-004,1.540623e-004
4.256141e-005,1.671896e-004
-9.422171e-005,1.726999e-004
-2.814071e-004,1.660552e-004
-5.168880e-004,1.496866e-004
-7.669547e-004,1.294284e-004
-9.651606e-004,1.093323e-004
-1.048786e-003,9.134307e-005
-9.956289e-004,7.659513e-005
-8.335636e-004,7.173317e-005
-6.168823e-004,7.772959e-005
-4.045767e-004,8.583285e-005
-2.381357e-004,9.004655e-005
-1.329553e-004,8.907416e-005
-8.174268e-005,8.469840e-005
-6.456376e-005,7.821578e-005
-6.083626e-005,6.849186e-005
-4.641245e-005,5.633696e-005
2.369210e-006,4.564065e-005
9.798775e-005,3.932010e-005
2.346088e-004,3.575467e-005
3.926225e-004,3.364782e-005
5.478812e-004,3.121684e-005
6.762370e-004,2.376183e-005
7.618075e-004,1.598270e-005
8.058894e-004,1.128280e-005
8.199890e-004,9.013888e-006
8.230683e-004,9.013888e-006
8.300371e-004,7.393235e-006
8.378162e-004,4.476060e-006
8.321439e-004,3.179537e-006
8.062135e-004,2.531276e-006
7.472216e-004,-2.168618e-006
6.371792e-004,-1.464765e-005
4.696036e-004,-3.004385e-005
2.501671e-004,-4.560212e-005
-7.678839e-006,-6.375343e-005
-2.869173e-004,-8.449779e-005
-5.619422e-004,-1.086455e-004
-8.055263e-004,-1.302002e-004
-9.930359e-004,-1.389517e-004
-1.105185e-003,-1.255003e-004
-1.128684e-003,-9.146661e-005
-1.067910e-003,-5.078821e-005
-9.380956e-004,-1.707863e-005
-7.630652e-004,4.244267e-007
-5.745832e-004,1.002961e-007
-3.984183e-004,-1.318906e-005
-2.459148e-004,-2.955766e-005
-1.175591e-004,-4.236081e-005
-1.950961e-005,-4.317114e-005
4.175108e-005,-3.215070e-005
6.379197e-005,-9.947754e-006
4.774750e-005,1.760335e-005
-1.520357e-006,4.839576e-005
-6.342930e-005,7.465034e-005
-1.101041e-004,8.826383e-005
-1.208004e-004,8.437427e-005
-9.600443e-005,6.816773e-005
-5.062615e-005,4.483032e-005
3.989864e-006,2.424803e-005
6.703327e-005,1.808955e-005
1.493625e-004,2.700314e-005
2.504912e-004,4.337174e-005
3.556717e-004,5.487837e-005
4.428628e-004,5.633696e-005
4.969927e-004,5.617490e-005
5.204921e-004,6.168512e-005
5.250300e-004,6.946425e-005
5.261644e-004,7.351588e-005
5.318367e-004,7.092283e-005
5.401021e-004,6.719534e-005
5.478812e-004,7.011251e-005
5.527431e-004,8.242948e-005
5.473950e-004,9.733949e-005
5.263265e-004,1.064151e-004
4.955340e-004,1.073875e-004
4.700898e-004,1.000946e-004
4.624727e-004,8.567078e-005
4.749518e-004,6.865393e-005
4.978030e-004,5.795762e-005
5.128751e-004,6.055066e-005
5.089855e-004,7.789165e-005
4.871067e-004,1.018773e-004
4.550177e-004,1.227837e-004
4.182289e-004,1.351007e-004
3.817642e-004,1.409351e-004
3.461098e-004,1.425557e-004
3.135346e-004,1.407730e-004
2.919800e-004,1.328318e-004
2.910076e-004,1.174356e-004
3.062417e-004,9.798775e-005
3.242310e-004,7.837785e-005
3.286067e-004,6.136099e-005
3.085106e-004,4.790957e-005
2.688046e-004,3.688912e-005
2.193747e-004,3.040651e-005
1.704310e-004,2.505835e-005
1.200286e-004,2.100672e-005
6.411610e-005,2.149292e-005
5.934647e-006,2.586868e-005
-4.819516e-005,3.380988e-005
-9.811128e-005,4.142695e-005
-1.447861e-004,4.337174e-005
-1.833576e-004,3.575467e-005
-2.117190e-004,2.457216e-005
-2.271153e-004,1.630683e-005
-2.235498e-004,1.533444e-005
-1.997262e-004,2.359977e-005
-1.624512e-004,3.948217e-005
-1.256624e-004,5.860587e-005
-1.063766e-004,7.691926e-005
-1.162626e-004,9.085687e-005
-1.543479e-004,9.442231e-005
-2.084778e-004,8.712937e-005
-2.652006e-004,7.594687e-005
-3.175477e-004,6.557468e-005
-3.647087e-004,5.828174e-005
-4.058733e-004,4.985435e-005
-4.403932e-004,3.494434e-005
-4.676201e-004,9.662150e-006
-4.888507e-004,-2.161646e-005
-5.066778e-004,-5.257093e-005
-5.199672e-004,-7.752898e-005
-5.279084e-004,-9.081834e-005
-5.283947e-004,-8.935975e-005
-5.204534e-004,-7.655659e-005
-5.162397e-004,-6.375343e-005
-5.305015e-004,-6.537409e-005
-5.669662e-004,-8.255302e-005
-6.139651e-004,-1.045939e-004
-6.502677e-004,-1.282554e-004
-6.556159e-004,-1.511066e-004
-6.188271e-004,-1.648822e-004
-5.424943e-004,-1.614788e-004
-4.356933e-004,-1.442999e-004
-3.139823e-004,-1.237176e-004
-1.955125e-004,-1.036215e-004
-8.530812e-005,-7.963584e-005
2.084466e-005,-4.641245e-005
1.232699e-004,7.485573e-007
2.146748e-004,5.795762e-005
2.842008e-004,1.078737e-004
3.305515e-004,1.261871e-004
3.598853e-004,1.080358e-004
3.767402e-004,6.152305e-005
3.809539e-004,2.531276e-006
3.736609e-004,-5.143647e-005
3.670162e-004,-9.211487e-005
3.731747e-004,-1.186936e-004
4.002396e-004,-1.365208e-004
4.572866e-004,-1.488377e-004
5.488536e-004,-1.556445e-004
6.635959e-004,-1.481895e-004
7.755831e-004,-1.167488e-004
8.524021e-004,-6.310517e-005
8.702294e-004,4.244267e-007
8.186925e-004,5.487837e-005
6.930918e-004,8.891209e-005
5.072028e-004,1.025256e-004
2.890628e-004,1.030118e-004
7.270556e-005,1.012291e-004
-1.277692e-004,1.106288e-004
-3.133340e-004,1.362352e-004
-5.000332e-004,1.730240e-004
-6.914323e-004,2.064095e-004
-8.705144e-004,2.281262e-004
-1.002436e-003,2.404432e-004
-1.053000e-003,2.495188e-004
-1.009566e-003,2.611876e-004
-8.812107e-004,2.739907e-004
-6.899737e-004,2.819319e-004
-4.713476e-004,2.782044e-004
-2.734659e-004,2.663736e-004
-1.261486e-004,2.530843e-004
-2.388537e-005,2.448189e-004
5.358185e-005,2.443327e-004
1.153287e-004,2.487085e-004
1.678379e-004,2.538946e-004
2.193747e-004,2.560015e-004
2.722080e-004,2.524360e-004
3.164518e-004,2.410914e-004
3.307136e-004,2.271538e-004
2.940868e-004,2.209953e-004
1.976579e-004,2.214815e-004
6.395403e-005,2.169437e-004
-8.109442e-005,1.949028e-004
-2.285738e-004,1.540623e-004
-3.661673e-004,1.054428e-004
-4.689167e-004,6.460230e-005
-5.048952e-004,3.656499e-005
-4.580583e-004,1.582063e-005
-3.381300e-004,-3.303075e-006
-1.791439e-004,-2.712668e-005
-1.886135e-005,-5.289506e-005
1.175977e-004,-7.607040e-005
2.224539e-004,-9.616650e-005
3.017039e-004,-1.149661e-004
3.632887e-004,-1.329553e-004
4.128807e-004,-1.489998e-004
4.483731e-004,-1.645580e-004
4.674967e-004,-1.739578e-004
4.694415e-004,-1.728234e-004
4.608521e-004,-1.626133e-004
4.474007e-004,-1.480274e-004
4.350837e-004,-1.331174e-004
4.297355e-004,-1.203142e-004
4.310320e-004,-1.075111e-004
4.342734e-004,-9.503204e-005
4.305458e-004,-8.530812e-005
4.114221e-004,-7.688072e-005
3.734988e-004,-6.310517e-005
3.196932e-004,-4.446767e-005
2.602152e-004,-2.842320e-005
2.077060e-004,-1.626830e-005
1.725378e-004,-7.192643e-006
1.597346e-004,-2.492749e-006
1.735102e-004,1.002961e-007
2.149989e-004,1.002961e-007
2.780423e-004,-4.599598e-006
3.503235e-004,-1.124428e-005
4.161220e-004,-1.497178e-005
4.676588e-004,-1.173047e-005
5.046097e-004,-6.706447e-006
5.324850e-004,-7.840905e-006
5.546879e-004,-1.578211e-005
5.731634e-004,-2.437157e-005
5.867769e-004,-2.226472e-005
5.874252e-004,-1.043395e-005
5.668428e-004,5.124321e-006
5.323229e-004,2.116879e-005
4.921307e-004,3.786152e-005
4.467524e-004,5.698522e-005
3.932708e-004,7.870197e-005
3.232586e-004,9.750155e-005
2.337985e-004,1.091703e-004
1.316973e-004,1.174356e-004
3.591673e-005,1.268354e-004
-3.279896e-005,1.326697e-004
-7.590833e-005,1.291043e-004
-1.141557e-004,1.150046e-004
-1.739578e-004,9.507057e-005
-2.658489e-004,7.335382e-005
-3.830221e-004,5.374392e-005
-5.071640e-004,4.434413e-005
-6.178546e-004,5.244739e-005
-6.959701e-004,7.432621e-005
-7.364865e-004,9.263960e-005
-7.476689e-004,9.636710e-005
-7.402139e-004,8.648111e-005
-7.099077e-004,7.189524e-005
-6.407059e-004,6.119892e-005
-5.183466e-004,5.795762e-005
-3.392644e-004,5.730935e-005
-1.135075e-004,5.504044e-005
1.367214e-004,5.293359e-005
3.945674e-004,5.390598e-005
6.358827e-004,6.152305e-005
8.323060e-004,7.562274e-005
9.622825e-004,8.939829e-005
1.014143e-003,9.539470e-005
9.838373e-004,9.166720e-005
8.621261e-004,8.437427e-005
6.373413e-004,7.789165e-005
3.153174e-004,7.400208e-005
-6.650855e-005,6.930219e-005
-4.449310e-004,6.395403e-005
-7.512344e-004,5.698522e-005
-9.390680e-004,4.936815e-005
-1.001949e-003,3.996836e-005
-9.646743e-004,2.716520e-005
-8.703523e-004,1.225519e-005
-7.614445e-004,-5.409925e-006
-6.711741e-004,-2.404744e-005
-6.136409e-004,-3.749886e-005
-5.890070e-004,-3.847125e-005
-5.820383e-004,-2.988179e-005
-5.747453e-004,-2.064406e-005
-5.507596e-004,-1.399939e-005
-5.037607e-004,-1.497178e-005
-4.442827e-004,-2.647842e-005
-3.873978e-004,-4.592625e-005
-3.463953e-004,-6.326724e-005
-3.259751e-004,-7.056018e-005
-3.245165e-004,-6.521203e-005
-3.305129e-004,-4.722277e-005
-3.329439e-004,-2.485776e-005
-3.199787e-004,-5.571990e-006
-2.771934e-004,3.017472e-006
-1.865989e-004,-4.437533e-006
-4.965375e-005,-2.388537e-005
1.158149e-004,-4.592625e-005
2.843629e-004,-6.067420e-005
4.250356e-004,-6.456376e-005
5.175750e-004,-6.229485e-005
5.613326e-004,-6.391550e-005
5.695979e-004,-7.509801e-005
5.647360e-004,-9.065627e-005
5.639257e-004,-9.811128e-005
5.751082e-004,-9.000801e-005
5.864528e-004,-6.213279e-005
5.739737e-004,-1.675450e-005
5.141716e-004,4.515445e-005
3.921364e-004,1.146805e-004
2.114335e-004,1.743205e-004
-5.479652e-007,2.060853e-004
-2.037778e-004,2.065715e-004
-3.681121e-004,1.840444e-004
-4.770199e-004,1.461212e-004
-5.230465e-004,9.685329e-005
-5.006815e-004,5.034054e-005
-4.052250e-004,1.906194e-005
-2.459148e-004,8.041497e-006
-4.074016e-005,2.068259e-005
1.880961e-004,5.309565e-005
4.196875e-004,9.539470e-005
6.347482e-004,1.354248e-004
8.191787e-004,1.615174e-004
9.609860e-004,1.714033e-004
1.055632e-003,1.701068e-004
1.105711e-003,1.616794e-004
1.092907e-003,1.516314e-004
9.877268e-004,1.443384e-004
7.895207e-004,1.378558e-004
5.337815e-004,1.289422e-004
2.713976e-004,1.185700e-004
5.925414e-005,1.057669e-004
-6.861539e-005,9.150514e-005
-1.136696e-004,7.708132e-005
-1.015147e-004,6.411610e-005
-6.229485e-005,5.536457e-005
-1.675450e-005,5.260946e-005
3.251336e-005,5.957827e-005
8.875003e-005,7.092283e-005
1.410971e-004,8.340186e-005
1.686482e-004,9.474644e-005
1.472556e-004,1.025256e-004
5.439218e-005,1.031738e-004
-1.237176e-004,9.539470e-005
-3.848048e-004,8.372600e-005
-7.021286e-004,6.865393e-005
-1.030797e-003,5.212327e-005
-1.313925e-003,3.624086e-005
-1.506621e-003,2.262737e-005
-1.597377e-003,8.203561e-006
-1.599160e-003,3.017472e-006
-1.521045e-003,1.144487e-005
-1.355414e-003,2.133085e-005
-1.092544e-003,2.505835e-005
-7.382691e-004,1.857574e-005
-3.198166e-004,9.175954e-006
1.065772e-004,3.179537e-006
4.738173e-004,3.503668e-006
7.310151e-004,6.096713e-006
8.603433e-004,7.069104e-006
8.767120e-004,4.244267e-007
8.157754e-004,-1.464765e-005
7.230739e-004,-2.890940e-005
6.340999e-004,-3.717472e-005
5.691118e-004,-3.652646e-005
5.358884e-004,-2.907146e-005
5.319988e-004,-1.788895e-005
5.517707e-004,-4.923729e-006
5.859666e-004,5.934647e-006
6.222692e-004,1.128280e-005
6.507927e-004,1.209313e-005
6.708889e-004,1.095867e-005
6.913091e-004,7.393235e-006
7.080018e-004,4.800190e-006
7.034640e-004,1.558884e-006
6.566271e-004,-7.516774e-006
5.590637e-004,-3.004385e-005
4.132048e-004,-6.488790e-005
2.331502e-004,-9.989400e-005
4.531652e-005,-1.284175e-004
-1.238797e-004,-1.455964e-004
-2.583938e-004,-1.477033e-004
-3.496366e-004,-1.311726e-004
-3.865875e-004,-1.002181e-004
-3.685983e-004,-5.921561e-005
-3.053928e-004,-1.837515e-005
-2.125294e-004,1.436204e-005
-1.058904e-004,4.126489e-005
1.883015e-006,6.606088e-005
1.085220e-004,8.210535e-005
2.232642e-004,8.729143e-005
3.478925e-004,8.421220e-005
4.738173e-004,7.724339e-005
5.914768e-004,7.027457e-005
6.870954e-004,6.427816e-005
7.451148e-004,4.936815e-005
7.533801e-004,2.489629e-005
7.042743e-004,1.396819e-006
6.070351e-004,-5.247859e-006
4.765724e-004,1.760335e-005
3.234207e-004,6.362990e-005
1.543865e-004,1.125736e-004
-2.550602e-005,1.470936e-004
-2.097743e-004,1.597346e-004
-3.885323e-004,1.496866e-004
-5.491390e-004,1.299146e-004
-6.852738e-004,1.125736e-004
-7.933713e-004,1.004187e-004
-8.661386e-004,9.669123e-005
-8.962828e-004,1.009049e-004
-8.813728e-004,1.091703e-004
-8.173570e-004,1.143563e-004
-7.026148e-004,1.086841e-004
-5.514079e-004,9.280166e-005
-3.784843e-004,7.497447e-005
-1.977814e-004,6.395403e-005
-3.231276e-005,6.184718e-005
1.000946e-004,6.573675e-005
1.937684e-004,6.995045e-005
2.517877e-004,7.837785e-005
2.762596e-004,9.523264e-005
2.699391e-004,1.150046e-004
2.346088e-004,1.320215e-004
1.699447e-004,1.457970e-004
8.194328e-005,1.530900e-004
-8.813297e-006,1.477418e-004
-8.012203e-005,1.269974e-004
-1.196660e-004,9.507057e-005
-1.300381e-004,5.390598e-005
-1.233935e-004,9.500084e-006
-1.157764e-004,-3.053005e-005
-1.138316e-004,-6.245691e-005
-1.170729e-004,-8.692878e-005
-1.219349e-004,-1.021629e-004
-1.269589e-004,-1.016767e-004
-1.263107e-004,-8.417366e-005
-1.154523e-004,-5.419158e-005
-9.179074e-005,-2.485776e-005
-6.197072e-005,-1.075808e-005
-4.122636e-005,-1.302699e-005
-4.446767e-005,-2.048200e-005
-7.509801e-005,-2.664048e-005
-1.227452e-004,-3.036798e-005
-1.676373e-004,-2.939559e-005
-1.904885e-004,-2.469570e-005
-1.849783e-004,-1.837515e-005
-1.473791e-004,-8.002969e-006
-8.854943e-005,9.106226e-007
-2.064406e-005,4.476060e-006
4.531652e-005,-1.034161e-006
1.018773e-004,-1.092015e-005
1.500107e-004,-2.404744e-005
1.895547e-004,-3.863331e-005
2.161334e-004,-5.305713e-005
2.240746e-004,-6.067420e-005
2.093266e-004,-5.402952e-005
1.743205e-004,-3.279896e-005
1.308870e-004,-3.789271e-006
9.604297e-005,1.971020e-005
7.886404e-005,3.348575e-005
8.097089e-005,3.316162e-005
1.013911e-004,2.230324e-005
1.315353e-004,8.851824e-006
1.576278e-004,-6.176923e-008
1.694586e-004,-3.627206e-006
1.628139e-004,-3.789271e-006
1.420695e-004,1.883015e-006
1.128978e-004,1.630683e-005
7.189524e-005,3.478227e-005
9.338019e-006,5.309565e-005
-7.428768e-005,7.076077e-005
-1.543479e-004,8.761556e-005
-2.037778e-004,1.047945e-004
-2.100984e-004,1.219734e-004
-1.734716e-004,1.326697e-004
-1.083214e-004,1.320215e-004
-3.166451e-005,1.169494e-004
4.596478e-005,9.312579e-005
1.214872e-004,6.995045e-005
1.884202e-004,5.277152e-005
2.475740e-004,4.094075e-005
3.046211e-004,3.640293e-005
3.561578e-004,4.142695e-005
3.905157e-004,5.601283e-005
3.986190e-004,7.157111e-005
3.877606e-004,8.080882e-005
3.744712e-004,8.210535e-005
3.720402e-004,8.129502e-005
3.884088e-004,8.307774e-005
4.230909e-004,9.247753e-005
4.611762e-004,1.104668e-004
4.882411e-004,1.325077e-004
4.922927e-004,1.493625e-004
4.670106e-004,1.526038e-004
4.135290e-004,1.420695e-004
3.326584e-004,1.231079e-004
2.226160e-004,1.013911e-004
9.215340e-005,8.129502e-005
-3.587821e-005,6.606088e-005
-1.365208e-004,5.568870e-005
-2.052364e-004,5.131293e-005
-2.455907e-004,5.601283e-005
-2.595283e-004,6.362990e-005
-2.473734e-004,6.735740e-005
-2.049123e-004,6.298164e-005
-1.324691e-004,5.423011e-005
-3.992984e-005,4.661304e-005
5.196120e-005,4.223728e-005
1.177597e-004,4.418206e-005
1.415833e-004,4.531652e-005
1.229458e-004,4.013043e-005
6.314371e-005,2.943412e-005
-2.761287e-005,1.727922e-005
-1.396000e-004,1.257933e-005
-2.621213e-004,1.695509e-005
-3.831841e-004,2.197911e-005
-4.862576e-004,2.133085e-005
-5.530285e-004,1.209313e-005
-5.773383e-004,-5.896120e-006
-5.557836e-004,-3.474375e-005
-4.833405e-004,-6.942573e-005
-3.749188e-004,-9.843541e-005
-2.608248e-004,-1.123730e-004
-1.660166e-004,-1.094559e-004
-9.632856e-005,-9.000801e-005
-4.754691e-005,-6.375343e-005
-2.275091e-005,-3.798505e-005
-4.252288e-005,-1.610623e-005
-1.216107e-004,-1.196226e-006
-2.399184e-004,5.772582e-006
-3.546606e-004,1.720949e-006
-4.227281e-004,-1.335112e-005
-4.314796e-004,-3.231276e-005
-3.945287e-004,-4.657451e-005
-3.316474e-004,-5.127441e-005
-2.746004e-004,-4.074016e-005
-2.658489e-004,-1.805102e-005
-3.340783e-004,1.063454e-005
-4.729683e-004,3.024445e-005
-6.351956e-004,3.380988e-005
-7.549619e-004,2.424803e-005
-7.805682e-004,1.095867e-005
-6.985632e-004,-1.520357e-006
-5.245051e-004,-7.840905e-006
-2.794623e-004,-9.137427e-006
9.986280e-006,-4.599598e-006
3.012177e-004,3.179537e-006
5.495019e-004,1.614476e-005
7.243704e-004,3.380988e-005
8.133444e-004,5.260946e-005
8.237166e-004,6.930219e-005
7.801210e-004,8.567078e-005
7.115673e-004,1.005808e-004
6.454446e-004,1.099806e-004
5.895320e-004,1.120874e-004
5.412365e-004,1.083599e-004
5.005581e-004,1.026876e-004
4.717104e-004,9.523264e-005
4.559901e-004,9.150514e-005
4.469145e-004,9.118101e-005
4.324906e-004,9.215340e-005
4.070464e-004,9.101894e-005
3.778746e-004,9.150514e-005
3.572923e-004,9.571883e-005
3.504856e-004,9.977046e-005
3.553475e-004,1.033359e-004
3.670162e-004,1.073875e-004
3.871123e-004,1.086841e-004
4.136910e-004,1.088461e-004
4.308700e-004,1.122495e-004
4.250356e-004,1.180839e-004
3.960259e-004,1.174356e-004
3.623164e-004,1.054428e-004
3.467580e-004,8.405013e-005
3.644232e-004,5.504044e-005
4.149876e-004,3.008238e-005
4.862963e-004,1.614476e-005
5.606844e-004,1.517237e-005
6.219451e-004,2.197911e-005
6.621373e-004,3.397195e-005
6.799645e-004,5.439218e-005
6.669993e-004,8.437427e-005
6.068730e-004,1.161391e-004
4.918065e-004,1.393144e-004
3.243930e-004,1.436902e-004
1.122495e-004,1.289422e-004
-1.381414e-004,1.072255e-004
-4.198109e-004,9.004655e-005
-7.079630e-004,8.194328e-005
-9.640261e-004,8.161915e-005
-1.138408e-003,8.453633e-005
-1.195293e-003,8.793970e-005
-1.131277e-003,9.085687e-005
-9.755327e-004,9.426025e-005
-7.714925e-004,9.344992e-005
-5.557836e-004,8.323980e-005
-3.489884e-004,6.346784e-005
-1.629374e-004,3.380988e-005
-5.085794e-006,-4.113402e-006
1.167873e-004,-5.143647e-005
2.005751e-004,-1.028112e-004
2.435224e-004,-1.486757e-004
2.482223e-004,-1.765509e-004
2.214815e-004,-1.755785e-004
1.759412e-004,-1.473791e-004
1.263492e-004,-1.045939e-004
8.793970e-005,-6.229485e-005
6.525056e-005,-3.247483e-005
4.564065e-005,-2.518189e-005
1.355172e-005,-3.798505e-005
-3.555407e-005,-6.002593e-005
-9.357345e-005,-7.428768e-005
-1.420310e-004,-7.088431e-005
-1.606685e-004,-5.532604e-005
-1.430034e-004,-3.652646e-005
-9.697682e-005,-2.583015e-005
-3.668853e-005,-2.583015e-005
2.619281e-005,-3.198863e-005
7.918817e-005,-3.312309e-005
1.145184e-004,-2.064406e-005
1.346145e-004,-2.238345e-007
1.428798e-004,1.695509e-005
1.414213e-004,2.619281e-005
1.255388e-004,3.154097e-005
9.004655e-005,3.656499e-005
4.256141e-005,3.915804e-005
4.244267e-007,3.964423e-005
-2.453363e-005,4.434413e-005
-2.242678e-005,5.325772e-005
1.112074e-005,6.233338e-005
6.071273e-005,7.157111e-005
1.000946e-004,8.323980e-005
1.148425e-004,9.669123e-005
1.033359e-004,1.077117e-004
6.832980e-005,1.166253e-004
2.376183e-005,1.206769e-004
-9.785687e-006,1.201907e-004
-1.659243e-005,1.184080e-004
4.151929e-006,1.175977e-004
4.353380e-005,1.143563e-004
9.409818e-005,1.046324e-004
1.485521e-004,9.199134e-005
2.007372e-004,7.821578e-005
2.485465e-004,6.184718e-005
2.973281e-004,4.645098e-005
3.493511e-004,3.510640e-005
4.002396e-004,2.910999e-005
4.360561e-004,2.748933e-005
4.401077e-004,2.797553e-005
4.025085e-004,3.299956e-005
3.346032e-004,3.656499e-005
2.566497e-004,3.640293e-005
1.877719e-004,3.510640e-005
1.305629e-004,3.299956e-005
7.708132e-005,3.559260e-005
1.873781e-005,4.256141e-005
-4.462973e-005,4.807163e-005
-9.746302e-005,5.277152e-005
-1.298761e-004,5.828174e-005
-1.368449e-004,6.589881e-005
-1.237176e-004,7.513654e-005
-1.031353e-004,8.323980e-005
-8.790116e-005,8.712937e-005
-8.806324e-005,8.567078e-005
-1.020008e-004,8.145709e-005
-1.256624e-004,7.481241e-005
-1.545100e-004,6.314371e-005
-1.771991e-004,4.904402e-005
-1.854645e-004,3.510640e-005
-1.823852e-004,2.343770e-005
-1.778474e-004,1.371378e-005
-1.781715e-004,6.582909e-006
-1.822232e-004,1.396819e-006
-1.846541e-004,-3.465141e-006
-1.767129e-004,-5.409925e-006
-1.616409e-004,-7.100305e-007
-1.439758e-004,1.209313e-005
-1.314967e-004,2.586868e-005
-1.264727e-004,3.332369e-005
-1.306864e-004,3.769945e-005
-1.438137e-004,3.640293e-005
-1.603444e-004,2.100672e-005
-1.755785e-004,-3.627206e-006
-1.859507e-004,-2.404744e-005
-1.971332e-004,-3.393342e-005
-2.130156e-004,-3.409548e-005
-2.347323e-004,-2.955766e-005
-2.676316e-004,-2.680255e-005
-3.157650e-004,-3.263690e-005
-3.760532e-004,-4.641245e-005
-4.423380e-004,-6.278104e-005
-4.979264e-004,-7.201877e-005
-5.199672e-004,-6.877746e-005
-5.035987e-004,-5.921561e-005
-4.583824e-004,-5.143647e-005
-4.000389e-004,-4.706071e-005
-3.416954e-004,-4.527799e-005
-2.885380e-004,-4.349527e-005
-2.363530e-004,-4.074016e-005
-1.817370e-004,-3.604027e-005
-1.214487e-004,-3.198863e-005
-5.451571e-005,-3.166451e-005
1.355172e-005,-3.166451e-005
7.335382e-005,-2.453363e-005
1.195424e-004,-7.840905e-006
1.558451e-004,1.517237e-005
1.889064e-004,3.980630e-005
2.203471e-004,6.525056e-005
2.475740e-004,8.567078e-005
2.712356e-004,9.426025e-005
2.882525e-004,9.101894e-005
2.953833e-004,8.242948e-005
2.885766e-004,7.270556e-005
2.707494e-004,6.071273e-005
2.542187e-004,4.693717e-005
2.485465e-004,3.575467e-005
2.538946e-004,3.267542e-005
2.571359e-004,4.175108e-005
2.389846e-004,5.941620e-005
1.892305e-004,8.275361e-005
1.216493e-004,1.031738e-004
7.951231e-005,1.132219e-004
1.044704e-004,1.103047e-004
2.007372e-004,9.847395e-005
3.342790e-004,8.810177e-005
4.592314e-004,8.712937e-005
5.428572e-004,9.474644e-005
5.741358e-004,1.043083e-004
5.653843e-004,1.093323e-004
5.435054e-004,1.090082e-004
5.292437e-004,1.005808e-004
5.297298e-004,8.712937e-005
5.422089e-004,7.756751e-005
5.545259e-004,7.837785e-005
5.535535e-004,8.907416e-005
5.276230e-004,1.038221e-004
4.756000e-004,1.166253e-004
4.018603e-004,1.198666e-004
3.088348e-004,1.143563e-004
2.002510e-004,1.044704e-004
8.113296e-005,8.793970e-005
-3.944364e-005,6.670914e-005
-1.525652e-004,5.131293e-005
-2.494803e-004,5.050261e-005
-3.246786e-004,5.601283e-005
-3.823738e-004,6.233338e-005
-4.259694e-004,6.784360e-005
-4.554653e-004,7.157111e-005
-4.637306e-004,6.995045e-005
-4.484964e-004,6.589881e-005
-4.191626e-004,6.476436e-005
-3.943666e-004,6.914012e-005
-3.872357e-004,7.189524e-005
-3.920977e-004,6.687120e-005
-3.925839e-004,5.358185e-005
-3.814014e-004,3.413401e-005
-3.588744e-004,1.533444e-005
-3.256510e-004,4.244267e-007
-2.815692e-004,-9.785687e-006
-2.295462e-004,-1.756482e-005
-1.771991e-004,-2.064406e-005
-1.305243e-004,-1.886135e-005
-9.081834e-005,-1.950961e-005
-5.727082e-005,-2.113026e-005
-3.182657e-005,-1.788895e-005
-1.821308e-005,-8.327101e-006
-1.626830e-005,-2.654814e-006
-3.085418e-005,-1.140634e-005
-6.586029e-005,-3.101624e-005
-1.102662e-004,-4.673658e-005
-1.387897e-004,-4.738484e-005
-1.290658e-004,-3.717472e-005
-7.169464e-005,-2.485776e-005
1.857574e-005,-1.286493e-005
1.148425e-004,-2.006553e-006
1.961993e-004,5.124321e-006
2.553532e-004,3.827798e-006
2.945730e-004,-1.844488e-006
3.214759e-004,-8.489165e-006
3.469201e-004,-1.529591e-005
3.780367e-004,-2.372330e-005
4.115842e-004,-2.745081e-005
4.396215e-004,-2.015787e-005
4.482110e-004,-9.299492e-006
4.358940e-004,-4.923729e-006
4.094774e-004,-3.789271e-006
3.814400e-004,2.693341e-006
3.655576e-004,1.549650e-005
3.668542e-004,3.105477e-005
3.780367e-004,4.612685e-005
3.895433e-004,5.763348e-005
4.046154e-004,6.168512e-005
4.318423e-004,5.763348e-005
4.726828e-004,4.628891e-005
5.206542e-004,3.251336e-005
5.691118e-004,2.457216e-005
6.143280e-004,2.359977e-005
6.567891e-004,2.505835e-005
6.951987e-004,2.781346e-005
7.253428e-004,3.526847e-005
7.438183e-004,5.244739e-005
7.478699e-004,7.594687e-005
7.319875e-004,1.012291e-004
6.927677e-004,1.214872e-004
6.360448e-004,1.354248e-004
5.532294e-004,1.453108e-004
4.156358e-004,1.522796e-004
1.991165e-004,1.563313e-004
-9.243900e-005,1.514693e-004
-4.224039e-004,1.381799e-004
-7.259522e-004,1.247285e-004
-9.342061e-004,1.164632e-004
-1.007135e-003,1.099806e-004
-9.476575e-004,9.782569e-005
-7.933713e-004,7.772959e-005
-5.980827e-004,5.309565e-005
-4.120317e-004,3.202716e-005
-2.648765e-004,2.133085e-005
-1.656925e-004,2.343770e-005
-1.102662e-004,3.494434e-005
-8.303921e-005,4.418206e-005
-6.942573e-005,4.758544e-005
-6.456376e-005,4.936815e-005
-7.282909e-005,5.747142e-005
-9.535618e-005,6.962632e-005
-1.272830e-004,8.064676e-005
-1.587237e-004,8.405013e-005
-1.809267e-004,8.194328e-005
-1.911368e-004,7.448828e-005
-1.912988e-004,6.638501e-005
-1.887058e-004,5.747142e-005
-1.885437e-004,4.855782e-005
-1.887058e-004,3.737532e-005
-1.806025e-004,2.635488e-005
-1.519170e-004,1.841368e-005
-1.047560e-004,1.403791e-005
-4.738484e-005,1.274139e-005
1.306552e-005,1.306552e-005
6.849186e-005,9.824214e-006
1.135460e-004,4.476060e-006
1.467694e-004,1.002961e-007
1.694586e-004,-2.492749e-006
1.845306e-004,-7.354708e-006
1.872858e-004,-1.821308e-005
1.647587e-004,-3.182657e-005
1.065772e-004,-4.333321e-005
1.565857e-005,-4.981582e-005
-9.794922e-005,-4.868136e-005
-2.263049e-004,-3.863331e-005
-3.559572e-004,-2.615428e-005
-4.760475e-004,-1.805102e-005
-5.809038e-004,-2.015787e-005
-6.578848e-004,-2.842320e-005
-6.904599e-004,-3.020592e-005
-6.763602e-004,-2.161646e-005
-6.259579e-004,-5.571990e-006
-5.616180e-004,1.209313e-005
-4.980884e-004,2.165498e-005
-4.421759e-004,1.776542e-005
-3.966356e-004,5.772582e-006
-3.624398e-004,-4.761663e-006
-3.350507e-004,-9.623623e-006
-3.052307e-004,-1.043395e-005
-2.606628e-004,-9.947754e-006
-1.917850e-004,-8.489165e-006
-1.020008e-004,-1.520357e-006
-9.137427e-006,1.225519e-005
6.816773e-005,2.975825e-005
1.145184e-004,4.564065e-005
1.321835e-004,5.520250e-005
1.388282e-004,5.568870e-005
1.577899e-004,5.196120e-005
2.128921e-004,4.709924e-005
3.130485e-004,4.288554e-005
4.444834e-004,3.526847e-005
5.804563e-004,1.922400e-005
6.968193e-004,2.531276e-006
7.720176e-004,-4.437533e-006
7.893587e-004,-1.520357e-006
7.263152e-004,9.500084e-006
5.721910e-004,2.781346e-005
3.401134e-004,5.001641e-005
6.606088e-005,6.865393e-005
-1.997262e-004,7.789165e-005
-4.147868e-004,7.805372e-005
-5.514079e-004,7.675719e-005
-5.904656e-004,7.999850e-005
-5.279084e-004,8.875003e-005
-3.750809e-004,1.002567e-004
-1.551583e-004,1.132219e-004
1.017153e-004,1.276457e-004
3.584267e-004,1.402868e-004
5.827252e-004,1.482280e-004
7.514353e-004,1.522796e-004
8.501332e-004,1.492004e-004
8.729845e-004,1.385041e-004
8.266338e-004,1.195424e-004
7.332840e-004,9.458438e-005
6.234036e-004,7.319175e-005
5.268127e-004,5.893001e-005
4.546936e-004,5.228533e-005
3.869503e-004,5.358185e-005
2.952213e-004,6.298164e-005
1.681620e-004,7.384001e-005
2.473422e-005,7.351588e-005
-1.070249e-004,5.698522e-005
-2.088019e-004,2.813760e-005
-2.700626e-004,-2.654814e-006
-2.861070e-004,-2.356124e-005
-2.689281e-004,-2.631635e-005
-2.392702e-004,-1.367526e-005
-2.186879e-004,4.476060e-006
-2.175534e-004,1.938607e-005
-2.358668e-004,2.651694e-005
-2.605007e-004,2.230324e-005
-2.728177e-004,1.014835e-005
-2.566112e-004,-3.858999e-007
-2.070192e-004,-3.141010e-006
-1.305243e-004,1.720949e-006
-4.641245e-005,8.365628e-006
2.619281e-005,1.176900e-005
7.497447e-005,8.203561e-006
9.831188e-005,-3.465141e-006
9.814982e-005,-2.307504e-005
6.962632e-005,-4.446767e-005
6.258778e-006,-5.500191e-005
-9.697682e-005,-5.224680e-005
-2.429977e-004,-4.722277e-005
-4.259694e-004,-4.657451e-005
-6.214201e-004,-4.754691e-005
-7.925610e-004,-4.317114e-005
-8.910967e-004,-3.069211e-005
-8.782936e-004,-1.351319e-005
-7.510723e-004,6.258778e-006
-5.399013e-004,2.700314e-005
-2.903207e-004,4.774750e-005
-4.414354e-005,6.541262e-005
1.634621e-004,7.805372e-005
3.145071e-004,8.226741e-005
4.135290e-004,7.951231e-005
4.845136e-004,7.173317e-005
5.491777e-004,6.330577e-005
6.219451e-004,5.682316e-005
7.081639e-004,4.709924e-005
8.052411e-004,2.748933e-005
8.958357e-004,-3.627206e-006
9.540172e-004,-3.814712e-005
9.645515e-004,-6.504996e-005
9.350555e-004,-7.542214e-005
8.840049e-004,-6.683268e-005
8.222580e-004,-4.268495e-005
7.629420e-004,-1.189254e-005
7.191843e-004,1.112074e-005
6.864471e-004,2.035846e-005
6.313449e-004,1.549650e-005
5.285954e-004,-1.358292e-006
3.833848e-004,-2.372330e-005
2.122438e-004,-4.333321e-005
4.709924e-005,-5.548810e-005
-7.331529e-005,-5.759496e-005
-1.251762e-004,-4.576419e-005
-1.037836e-004,-2.015787e-005
-3.263690e-005,1.533444e-005
4.839576e-005,5.017848e-005
1.054428e-004,7.643306e-005
1.240803e-004,9.442231e-005
1.103047e-004,1.107909e-004
9.474644e-005,1.329939e-004
1.138701e-004,1.579519e-004
1.769136e-004,1.773998e-004
2.626462e-004,1.869616e-004
3.358997e-004,1.861513e-004
3.632887e-004,1.806411e-004
3.218000e-004,1.704310e-004
2.146748e-004,1.566554e-004
7.108490e-005,1.430419e-004
-6.586029e-005,1.307249e-004
-1.695821e-004,1.169494e-004
-2.378116e-004,1.017153e-004
-2.888622e-004,8.972242e-005
-3.408851e-004,8.194328e-005
-3.946908e-004,7.594687e-005
-4.434724e-004,6.849186e-005
-4.833405e-004,6.508849e-005
-5.142949e-004,7.205730e-005
-5.418460e-004,8.988448e-005
-5.737729e-004,1.069013e-004
-6.103996e-004,1.167873e-004
-6.454058e-004,1.179218e-004
-6.655018e-004,1.127357e-004
-6.620985e-004,1.020394e-004
-6.272544e-004,8.631904e-005
-5.554595e-004,6.395403e-005
-4.591928e-004,3.802358e-005
-3.638984e-004,1.209313e-005
-2.938861e-004,-7.840905e-006
-2.587180e-004,-1.805102e-005
-2.494803e-004,-2.291298e-005
-2.538560e-004,-2.631635e-005
-2.590421e-004,-3.182657e-005
-2.530457e-004,-3.944364e-005
-2.285738e-004,-4.527799e-005
-1.875713e-004,-4.608832e-005
-1.391138e-004,-3.944364e-005
-9.260106e-005,-2.761287e-005
-5.613637e-005,-1.902341e-005
-3.360929e-005,-1.886135e-005
-2.518189e-005,-2.372330e-005
-2.696461e-005,-3.020592e-005
-3.279896e-005,-3.490581e-005
-2.988179e-005,-3.620233e-005
-7.840905e-006,-3.247483e-005
3.186510e-005,-2.420950e-005
8.048469e-005,-1.805102e-005
1.304008e-004,-1.643037e-005
1.764274e-004,-1.983374e-005
2.107852e-004,-2.583015e-005
2.265056e-004,-2.809907e-005
2.253711e-004,-1.934754e-005
2.140265e-004,-5.479652e-007
2.065715e-004,2.068259e-005
2.117576e-004,3.688912e-005
2.269918e-004,4.515445e-005
2.453051e-004,4.677511e-005
2.637806e-004,4.499239e-005
2.764217e-004,3.721326e-005
2.788527e-004,2.295151e-005
2.681563e-004,8.365628e-006
2.412535e-004,-3.303075e-006
1.983062e-004,-9.947754e-006
1.443384e-004,-8.975361e-006
8.923622e-005,-5.085794e-006
4.304760e-005,-6.220251e-006
1.209313e-005,-1.140634e-005
1.883015e-006,-1.173047e-005
2.538249e-005,2.207145e-006
8.113296e-005,2.392390e-005
1.490383e-004,4.158902e-005
2.013854e-004,4.969228e-005
2.208333e-004,5.131293e-005
2.047888e-004,5.115087e-005
1.663793e-004,5.115087e-005
1.188942e-004,5.682316e-005
7.659513e-005,6.849186e-005
4.807163e-005,8.842590e-005
2.424803e-005,1.127357e-004
-2.492749e-006,1.357490e-004
-3.101624e-005,1.501728e-004
-4.754691e-005,1.511452e-004
-2.469570e-005,1.504969e-004
5.568870e-005,1.555209e-004
1.902029e-004,1.621656e-004
3.530786e-004,1.647587e-004
5.128751e-004,1.582760e-004
6.464170e-004,1.422316e-004
7.396046e-004,1.231079e-004
7.867657e-004,1.056048e-004
7.785003e-004,8.858796e-005
7.112431e-004,7.092283e-005
5.820770e-004,5.779555e-005
3.885709e-004,5.487837e-005
1.208390e-004,6.249544e-005
-2.276015e-004,7.205730e-005
-6.358439e-004,7.319175e-005
-1.060293e-003,6.703327e-005
-1.434178e-003,5.730935e-005
-1.695103e-003,4.677511e-005
-1.802066e-003,4.045456e-005
-1.748422e-003,4.288554e-005
-1.556537e-003,4.823369e-005
-1.268871e-003,4.871989e-005
-9.361508e-004,4.158902e-005
-6.039171e-004,2.927205e-005
-3.032860e-004,1.760335e-005
-4.916756e-005,1.257933e-005
1.573037e-004,1.630683e-005
3.179104e-004,1.873781e-005
4.318423e-004,1.128280e-005
5.013684e-004,-7.192643e-006
5.397779e-004,-2.874733e-005
5.648981e-004,-4.576419e-005
5.903423e-004,-5.646050e-005
6.143280e-004,-6.586029e-005
6.253485e-004,-7.250496e-005
6.060626e-004,-7.234290e-005
5.472329e-004,-6.877746e-005
4.585831e-004,-6.586029e-005
3.636129e-004,-6.245691e-005
2.863077e-004,-5.224680e-005
2.399570e-004,-3.053005e-005
2.289365e-004,-4.761663e-006
2.470879e-004,1.630683e-005
2.778803e-004,2.894792e-005
3.062417e-004,2.943412e-005
3.264999e-004,1.938607e-005
3.430306e-004,6.420843e-006
3.579406e-004,-1.358292e-006
3.681507e-004,-8.002969e-006
3.694472e-004,-1.707863e-005
3.621542e-004,-2.664048e-005
3.511338e-004,-3.263690e-005
3.462718e-004,-3.344722e-005
3.493511e-004,-3.117831e-005
3.577785e-004,-2.761287e-005
3.697713e-004,-2.534396e-005
3.861399e-004,-2.420950e-005
4.072085e-004,-2.615428e-005
4.311941e-004,-3.328516e-005
4.467524e-004,-3.344722e-005
4.457800e-004,-1.788895e-005
4.256839e-004,4.800190e-006
3.905157e-004,2.538249e-005
3.469201e-004,3.786152e-005
2.908455e-004,4.402000e-005
2.093266e-004,4.693717e-005
8.972242e-005,5.374392e-005
-7.039811e-005,6.897806e-005
-2.603386e-004,8.907416e-005
-4.638926e-004,1.047945e-004
-6.556159e-004,1.124116e-004
-8.030953e-004,1.135460e-004
-8.766729e-004,1.103047e-004
-8.637077e-004,1.020394e-004
-7.705201e-004,8.939829e-005
-6.172064e-004,7.384001e-005
-4.365036e-004,6.136099e-005
-2.551526e-004,5.714729e-005
-9.438377e-005,5.682316e-005
3.267542e-005,5.957827e-005
1.231079e-004,6.816773e-005
1.906891e-004,7.951231e-005
2.605393e-004,8.939829e-005
3.501614e-004,1.010670e-004
4.637692e-004,1.179218e-004
5.956905e-004,1.427178e-004
7.212912e-004,1.730240e-004
8.172339e-004,2.043026e-004
8.744430e-004,2.310434e-004
8.901634e-004,2.480603e-004
8.674742e-004,2.560015e-004
8.235545e-004,2.561635e-004
7.768796e-004,2.514636e-004
7.357150e-004,2.425500e-004
6.937401e-004,2.219677e-004
6.392861e-004,1.833962e-004
5.483674e-004,1.336421e-004
3.948915e-004,8.194328e-005
1.712413e-004,3.980630e-005
-1.092938e-004,1.063454e-005
-4.222419e-004,-1.254080e-005
-7.382691e-004,-3.296103e-005
-1.023504e-003,-5.030201e-005
-1.248127e-003,-6.829127e-005
-1.390096e-003,-8.336334e-005
-1.440822e-003,-9.632856e-005
-1.401440e-003,-1.130213e-004
-1.289615e-003,-1.386276e-004
-1.138408e-003,-1.673132e-004
-9.771533e-004,-1.861127e-004
-8.230293e-004,-1.799543e-004
-6.914323e-004,-1.540238e-004
-5.883588e-004,-1.195039e-004
-5.141328e-004,-8.433573e-005
-4.671339e-004,-5.208473e-005
-4.475240e-004,-3.004385e-005
-4.486585e-004,-2.712668e-005
-4.554653e-004,-4.187462e-005
-4.514136e-004,-6.261898e-005
-4.225660e-004,-7.574627e-005
-3.643846e-004,-7.266703e-005
-2.807589e-004,-5.613637e-005
-1.757406e-004,-3.733679e-005
-5.078821e-005,-2.485776e-005
8.550872e-005,-2.372330e-005
2.185644e-004,-3.458168e-005
3.266619e-004,-5.273300e-005
3.914881e-004,-6.861539e-005
4.127187e-004,-7.331529e-005
3.986190e-004,-6.116039e-005
3.623164e-004,-3.247483e-005
3.214759e-004,-5.479652e-007
2.945730e-004,1.484824e-005
2.910076e-004,5.610517e-006
3.077003e-004,-1.724069e-005
3.329825e-004,-3.944364e-005
3.592371e-004,-4.560212e-005
3.777125e-004,-3.474375e-005
3.848434e-004,-7.840905e-006
3.905157e-004,3.348575e-005
4.101256e-004,8.161915e-005
4.478869e-004,1.263492e-004
4.874308e-004,1.560071e-004
5.104441e-004,1.652449e-004
5.110924e-004,1.568175e-004
4.931031e-004,1.432040e-004
4.673347e-004,1.367214e-004
4.412422e-004,1.440143e-004
4.185530e-004,1.657311e-004
3.948915e-004,1.979821e-004
3.537268e-004,2.352571e-004
2.822560e-004,2.678322e-004
1.877719e-004,2.880904e-004
8.858796e-005,2.984626e-004
-5.896120e-006,2.992729e-004
-9.405964e-005,2.911697e-004
-1.723372e-004,2.726942e-004
-2.331117e-004,2.427121e-004
-2.682798e-004,2.059233e-004
-2.742762e-004,1.667035e-004
-2.504527e-004,1.304008e-004
-2.005366e-004,1.017153e-004
-1.352242e-004,8.421220e-005
-7.007398e-005,7.351588e-005
-1.156841e-005,6.606088e-005
3.834771e-005,6.055066e-005
8.226741e-005,5.682316e-005
1.214872e-004,5.649903e-005
1.519555e-004,5.860587e-005
1.712413e-004,6.103685e-005
1.780480e-004,6.022653e-005
1.738343e-004,5.828174e-005
1.621656e-004,5.730935e-005
1.475797e-004,5.649903e-005
1.271595e-004,5.520250e-005
1.000946e-004,5.131293e-005
7.335382e-005,4.191315e-005
5.844381e-005,2.667901e-005
6.427816e-005,1.193106e-005
8.745350e-005,-2.006553e-006
1.163011e-004,-2.388537e-005
1.399627e-004,-5.257093e-005
1.519555e-004,-7.542214e-005
1.519555e-004,-8.725291e-005
1.438522e-004,-8.806324e-005
1.320215e-004,-8.158062e-005
1.210010e-004,-7.218083e-005
1.120874e-004,-6.407756e-005
1.075496e-004,-5.581224e-005
1.111150e-004,-5.095028e-005
1.227837e-004,-5.257093e-005
1.380179e-004,-5.840528e-005
1.385041e-004,-6.472583e-005
1.059289e-004,-6.910160e-005
2.716520e-005,-6.877746e-005
-8.158062e-005,-6.764300e-005
-1.857886e-004,-6.812920e-005
-2.536940e-004,-6.796713e-005
-2.729797e-004,-6.586029e-005
-2.580697e-004,-6.407756e-005
-2.326255e-004,-6.472583e-005
-2.079916e-004,-6.456376e-005
-1.840059e-004,-5.629843e-005
-1.507825e-004,-3.960571e-005
-1.047560e-004,-2.437157e-005
-5.581224e-005,-1.724069e-005
-1.626830e-005,-1.529591e-005
4.800190e-006,-1.464765e-005
1.419998e-005,-1.675450e-005
2.651694e-005,-2.031993e-005
5.325772e-005,-2.356124e-005
9.474644e-005,-2.858526e-005
1.443384e-004,-3.960571e-005
1.955511e-004,-5.548810e-005
2.441707e-004,-6.974985e-005
2.796630e-004,-7.752898e-005
3.013797e-004,-7.623246e-005
3.107795e-004,-6.893953e-005
3.068900e-004,-6.213279e-005
2.863077e-004,-5.305713e-005
2.488706e-004,-4.138842e-005
1.965235e-004,-2.971972e-005
1.363972e-004,-2.161646e-005
8.016056e-005,-1.594417e-005
3.737532e-005,-5.409925e-006
1.209313e-005,1.176900e-005
7.555300e-006,3.559260e-005
1.695509e-005,5.925414e-005
3.267542e-005,7.821578e-005
4.304760e-005,8.972242e-005
2.667901e-005,9.296372e-005
-3.620233e-005,8.972242e-005
-1.475412e-004,8.307774e-005
-2.799485e-004,7.465034e-005
-3.925839e-004,7.157111e-005
-4.486585e-004,8.178122e-005
-4.316416e-004,1.025256e-004
-3.527158e-004,1.263492e-004
-2.428356e-004,1.404489e-004
-1.373311e-004,1.378558e-004
-5.727082e-005,1.276457e-004
-4.275467e-006,1.224596e-004
2.603075e-005,1.226217e-004
5.017848e-005,1.245665e-004
7.967437e-005,1.242423e-004
1.153287e-004,1.200286e-004
1.574657e-004,1.119254e-004
1.960373e-004,1.036600e-004
2.198609e-004,9.798775e-005
2.279641e-004,9.555677e-005
2.255332e-004,9.409818e-005
2.221298e-004,9.588090e-005
2.235884e-004,9.977046e-005
2.266676e-004,9.879807e-005
2.245608e-004,9.296372e-005
2.135403e-004,8.810177e-005
1.910132e-004,8.356393e-005
1.595726e-004,7.529860e-005
1.237561e-004,6.476436e-005
8.810177e-005,5.844381e-005
5.860587e-005,5.990240e-005
3.850977e-005,6.687120e-005
2.797553e-005,7.238143e-005
1.906194e-005,7.286762e-005
2.045080e-006,7.076077e-005
-2.356124e-005,6.541262e-005
-5.710876e-005,5.698522e-005
-9.632856e-005,5.066468e-005
-1.340898e-004,5.082674e-005
-1.608306e-004,5.649903e-005
-1.697441e-004,5.568870e-005
-1.605064e-004,3.737532e-005
-1.465688e-004,5.286386e-006
-1.383035e-004,-2.599222e-005
-1.360346e-004,-4.673658e-005
-1.383035e-004,-5.435365e-005
-1.475412e-004,-4.949169e-005
-1.703924e-004,-3.198863e-005
-2.088019e-004,-9.785687e-006
-2.577456e-004,9.500084e-006
-2.979378e-004,2.376183e-005
-3.068514e-004,3.283749e-005
-2.699005e-004,3.769945e-005
-1.971332e-004,3.640293e-005
-1.191798e-004,3.218923e-005
-7.347736e-005,2.878586e-005
-8.757703e-005,2.311357e-005
-1.600202e-004,1.225519e-005
-2.580697e-004,-1.520357e-006
-3.363473e-004,-1.075808e-005
-3.661673e-004,-1.416145e-005
-3.431540e-004,-1.318906e-005
-2.804347e-004,-9.137427e-006
-1.995642e-004,-6.176923e-008
-1.178833e-004,1.160693e-005
-4.398147e-005,2.197911e-005
1.971020e-005,3.056858e-005
7.756751e-005,3.445814e-005
1.394765e-004,3.299956e-005
2.138645e-004,2.667901e-005
3.041349e-004,2.343770e-005
4.081808e-004,3.008238e-005
5.167646e-004,4.774750e-005
6.149763e-004,6.784360e-005
6.953607e-004,8.226741e-005
7.614834e-004,8.891209e-005
8.133444e-004,8.891209e-005
8.438127e-004,8.810177e-005
8.295509e-004,9.523264e-005
7.386322e-004,1.114392e-004
5.631153e-004,1.291043e-004
3.248792e-004,1.396385e-004
6.930219e-005,1.355869e-004
-1.460826e-004,1.184080e-004
-2.817312e-004,9.701536e-005
-3.282440e-004,7.918817e-005
-3.066893e-004,6.606088e-005
-2.583938e-004,6.055066e-005
-2.207947e-004,6.589881e-005
-2.130156e-004,8.080882e-005
-2.329496e-004,9.863601e-005
-2.677937e-004,1.077117e-004
-3.058790e-004,1.046324e-004
-3.439643e-004,9.393611e-005
-3.872357e-004,8.615698e-005
-4.368277e-004,8.437427e-005
-4.788027e-004,8.388807e-005
-4.972781e-004,8.032263e-005
-4.835025e-004,7.076077e-005
-4.358554e-004,5.244739e-005
-3.523917e-004,3.429608e-005
-2.382978e-004,2.457216e-005
-1.062145e-004,2.619281e-005
2.538249e-005,3.235129e-005
1.445005e-004,3.559260e-005
2.457913e-004,3.575467e-005
3.208276e-004,3.397195e-005
3.603715e-004,2.927205e-005
3.511338e-004,2.473422e-005
2.835526e-004,1.938607e-005
1.673517e-004,1.225519e-005
2.797553e-005,2.369210e-006
-8.903562e-005,-7.030578e-006
-1.420310e-004,-1.189254e-005
-1.225831e-004,-7.840905e-006
-4.949169e-005,7.393235e-006
4.920609e-005,2.862379e-005
1.492004e-004,4.564065e-005
2.344468e-004,5.309565e-005
2.947351e-004,4.709924e-005
3.303894e-004,2.992031e-005
3.465960e-004,6.096713e-006
3.499994e-004,-1.967167e-005
3.548613e-004,-4.187462e-005
3.781987e-004,-5.435365e-005
4.308700e-004,-5.662256e-005
5.097958e-004,-4.932962e-005
6.005524e-004,-3.604027e-005
6.838541e-004,-2.907146e-005
7.504629e-004,-3.020592e-005
7.974620e-004,-3.296103e-005
8.225821e-004,-3.360929e-005
8.117237e-004,-3.312309e-005
7.478699e-004,-3.571614e-005
6.339379e-004,-4.284701e-005
4.862963e-004,-4.981582e-005
3.192069e-004,-5.013995e-005
1.389903e-004,-4.738484e-005
-4.268495e-005,-4.333321e-005
-2.041020e-004,-3.830918e-005
-3.241924e-004,-3.150244e-005
-3.823738e-004,-2.680255e-005
-3.638984e-004,-2.161646e-005
-2.776796e-004,-1.140634e-005
-1.470550e-004,2.623614e-007
-7.354708e-006,7.555300e-006
1.094944e-004,1.047248e-005
1.872858e-004,1.598270e-005
2.226160e-004,2.700314e-005
2.141886e-004,3.802358e-005
1.597346e-004,3.964423e-005
6.508849e-005,3.008238e-005
-5.046408e-005,1.112074e-005
-1.668270e-004,-9.299492e-006
-2.700626e-004,-1.999580e-005
-3.653569e-004,-1.999580e-005
-4.637306e-004,-1.221667e-005
-5.734488e-004,-3.627206e-006
-6.932150e-004,6.258778e-006
-7.980713e-004,1.987226e-005
-8.622491e-004,3.948217e-005
-8.810487e-004,6.281957e-005
-8.625732e-004,8.648111e-005
-8.097399e-004,1.049566e-004
-7.165524e-004,1.127357e-004
-5.836589e-004,1.098185e-004
-4.010113e-004,1.009049e-004
-1.643960e-004,9.101894e-005
1.086841e-004,8.194328e-005
3.733367e-004,7.529860e-005
5.849942e-004,7.076077e-005
7.185361e-004,6.768153e-005
7.702350e-004,6.638501e-005
7.507871e-004,6.816773e-005
6.754267e-004,7.205730e-005
5.663566e-004,7.756751e-005
4.435111e-004,8.291567e-005
3.169380e-004,8.583285e-005
1.965235e-004,8.599491e-005
9.296372e-005,7.708132e-005
1.419998e-005,6.103685e-005
-3.587821e-005,4.953022e-005
-5.662256e-005,4.677511e-005
-6.083626e-005,5.358185e-005
-6.359137e-005,6.638501e-005
-7.995997e-005,7.886404e-005
-1.173971e-004,8.097089e-005
-1.690959e-004,6.946425e-005
-2.180396e-004,4.839576e-005
-2.540181e-004,3.024445e-005
-2.754107e-004,2.424803e-005
-2.831898e-004,3.073064e-005
-2.814071e-004,4.353380e-005
-2.734659e-004,5.617490e-005
-2.614731e-004,6.281957e-005
-2.506147e-004,6.006446e-005
-2.382978e-004,5.050261e-005
-2.177155e-004,4.126489e-005
-1.859507e-004,3.721326e-005
-1.451102e-004,3.850977e-005
-9.632856e-005,3.996836e-005
-4.138842e-005,3.543053e-005
1.614476e-005,2.311357e-005
6.687120e-005,4.800190e-006
1.091703e-004,-1.286493e-005
1.457970e-004,-1.934754e-005
1.736723e-004,-1.351319e-005
1.850168e-004,-1.520357e-006
1.717275e-004,9.175954e-006
1.363972e-004,1.630683e-005
8.680524e-005,2.100672e-005
3.316162e-005,1.971020e-005
-1.529591e-005,1.549650e-005
-4.916756e-005,9.986280e-006
-6.229485e-005,2.045080e-006
-5.565017e-005,-9.137427e-006
-3.587821e-005,-1.999580e-005
-1.844488e-006,-2.518189e-005
4.645098e-005,-2.113026e-005
1.020394e-004,-8.165034e-006
1.561692e-004,8.041497e-006
1.996027e-004,2.084466e-005
2.290986e-004,2.635488e-005
2.430362e-004,2.554455e-005
2.451431e-004,2.505835e-005
2.381743e-004,2.376183e-005
2.308813e-004,2.457216e-005
2.346088e-004,3.008238e-005
2.560015e-004,4.110282e-005
2.923041e-004,5.649903e-005
3.370341e-004,7.529860e-005
3.765781e-004,9.280166e-005
3.942432e-004,1.067393e-004
3.833848e-004,1.154908e-004
3.514579e-004,1.174356e-004
3.094830e-004,1.086841e-004
2.681563e-004,9.296372e-005
2.320158e-004,7.756751e-005
1.992786e-004,7.092283e-005
1.675138e-004,7.756751e-005
1.329939e-004,9.247753e-005
1.012291e-004,1.125736e-004
7.546067e-005,1.341283e-004
5.795762e-005,1.539003e-004
4.320967e-005,1.657311e-004
2.392390e-005,1.655690e-004
7.485573e-007,1.555209e-004
-2.177852e-005,1.375317e-004
-3.814712e-005,1.117633e-004
-5.208473e-005,8.064676e-005
-6.488790e-005,5.374392e-005
-7.185670e-005,4.077869e-005
-6.683268e-005,4.450619e-005
-5.240886e-005,5.666109e-005
-4.268495e-005,6.849186e-005
-5.127441e-005,8.016056e-005
-7.866345e-005,9.053274e-005
-1.144799e-004,9.442231e-005
-1.465688e-004,9.037068e-005
-1.652063e-004,7.805372e-005
-1.697441e-004,5.795762e-005
-1.616409e-004,3.316162e-005
-1.420310e-004,7.879431e-006
-1.091317e-004,-1.237873e-005
-6.197072e-005,-1.643037e-005
-8.489165e-006,-6.706447e-006
3.964423e-005,6.420843e-006
7.432621e-005,1.630683e-005
8.875003e-005,2.019640e-005
8.291567e-005,1.760335e-005
6.589881e-005,9.662150e-006
4.353380e-005,-2.006553e-006
1.711715e-005,-1.529591e-005
-8.002969e-006,-2.615428e-005
-2.210265e-005,-3.117831e-005
-2.258885e-005,-2.842320e-005
-1.205460e-005,-1.869928e-005
1.720949e-006,-6.868512e-006
1.079661e-005,3.179537e-006
1.144487e-005,7.879431e-006
1.720949e-006,3.341602e-006
-1.173047e-005,-1.189254e-005
-1.805102e-005,-3.490581e-005
-1.934754e-005,-5.548810e-005
-2.145439e-005,-6.877746e-005
-3.150244e-005,-7.250496e-005
-5.273300e-005,-6.812920e-005
-8.449779e-005,-5.970180e-005
-1.212866e-004,-5.159854e-005
-1.551583e-004,-4.430560e-005
-1.759026e-004,-3.847125e-005
-1.734716e-004,-3.668853e-005
-1.441378e-004,-4.171255e-005
-8.822530e-005,-5.257093e-005
-1.853721e-005,-6.326724e-005
5.115087e-005,-6.667061e-005
1.004187e-004,-5.775702e-005
1.051186e-004,-4.057810e-005
5.585077e-005,-2.291298e-005
-2.955766e-005,-1.075808e-005
-1.195039e-004,-8.813297e-006
-1.878955e-004,-1.756482e-005
-2.371633e-004,-3.150244e-005
-2.989102e-004,-4.057810e-005
-4.037664e-004,-3.474375e-005
-5.549733e-004,-1.286493e-005
-7.201179e-004,1.776542e-005
-8.348601e-004,4.969228e-005
-8.350221e-004,7.643306e-005
-6.959701e-004,9.166720e-005
-4.439586e-004,9.328785e-005
-1.481895e-004,8.307774e-005
1.198666e-004,7.027457e-005
3.132105e-004,5.649903e-005
4.271425e-004,4.547859e-005
4.877549e-004,3.591673e-005
5.247058e-004,2.975825e-005
5.517707e-004,2.603075e-005
5.692738e-004,2.359977e-005
5.751082e-004,2.084466e-005
5.733254e-004,1.533444e-005
5.699221e-004,1.371378e-005
5.673291e-004,1.889987e-005
5.645739e-004,2.797553e-005
5.574430e-004,3.478227e-005
5.428572e-004,3.624086e-005
5.154681e-004,3.445814e-005
4.744656e-004,3.267542e-005
4.313562e-004,3.656499e-005
3.986190e-004,4.272347e-005
3.853296e-004,4.936815e-005
3.921364e-004,6.022653e-005
4.119083e-004,8.259154e-005
4.326527e-004,1.107909e-004
4.402698e-004,1.333180e-004
4.310320e-004,1.427178e-004
4.062360e-004,1.326697e-004
3.715541e-004,1.083599e-004
3.344411e-004,8.583285e-005
2.968419e-004,7.384001e-005
2.577842e-004,7.481241e-005
2.167816e-004,8.858796e-005
1.686482e-004,1.096565e-004
1.091703e-004,1.295905e-004
4.223728e-005,1.410971e-004
-2.339917e-005,1.404489e-004
-7.655659e-005,1.284560e-004
-1.143178e-004,1.069013e-004
-1.413827e-004,8.486046e-005
-1.666649e-004,7.059870e-005
-1.985918e-004,7.173317e-005
-2.365150e-004,8.340186e-005
-2.687660e-004,9.652916e-005
-2.822175e-004,1.060910e-004
-2.797865e-004,1.145184e-004
-2.758969e-004,1.214872e-004
-2.857829e-004,1.221355e-004
-3.118754e-004,1.203528e-004
-3.428299e-004,1.179218e-004
-3.600088e-004,1.124116e-004
-3.549847e-004,9.879807e-005
-3.319715e-004,7.140904e-005
-3.034480e-004,3.462021e-005
-2.746004e-004,-1.034161e-006
-2.468872e-004,-2.453363e-005
-2.167431e-004,-3.328516e-005
-1.831956e-004,-3.296103e-005
-1.417068e-004,-2.469570e-005
-8.773910e-005,-1.562004e-005
-2.145439e-005,-1.156841e-005
4.807163e-005,-1.254080e-005
1.117633e-004,-1.156841e-005
1.603829e-004,-8.002969e-006
1.918236e-004,-7.354708e-006
2.062474e-004,-1.513384e-005
2.051129e-004,-2.420950e-005
2.007372e-004,-2.955766e-005
2.096508e-004,-3.004385e-005
2.402811e-004,-2.550602e-005
2.908455e-004,-1.286493e-005
3.506476e-004,5.772582e-006
3.991052e-004,1.808955e-005
4.245494e-004,2.133085e-005
4.243874e-004,2.116879e-005
3.919743e-004,2.133085e-005
3.171001e-004,1.906194e-005
1.885823e-004,1.014835e-005
1.002961e-007,-3.951337e-006
-2.365150e-004,-1.805102e-005
-4.922540e-004,-2.339917e-005
-7.209282e-004,-1.335112e-005
-8.797522e-004,1.063454e-005
-9.496023e-004,4.013043e-005
-9.288579e-004,6.119892e-005
-8.282154e-004,6.622294e-005
-6.736051e-004,5.439218e-005
-4.927402e-004,3.024445e-005
-3.118754e-004,2.369210e-006
-1.472171e-004,-1.173047e-005
-1.351319e-005,-3.465141e-006
7.886404e-005,2.408596e-005
1.255388e-004,5.860587e-005
1.263492e-004,8.696730e-005
8.178122e-005,1.020394e-004
2.369210e-006,1.007429e-004
-9.243900e-005,8.567078e-005
-1.890299e-004,6.670914e-005
-2.797865e-004,5.633696e-005
-3.530400e-004,6.087479e-005
-3.963114e-004,7.740545e-005
-4.003631e-004,9.604297e-005
-3.593605e-004,1.078737e-004
-2.697384e-004,1.078737e-004
-1.370070e-004,9.685329e-005
2.894792e-005,8.469840e-005
2.156472e-004,7.675719e-005
4.044533e-004,7.238143e-005
5.744599e-004,6.832980e-005
7.080018e-004,6.184718e-005
7.922758e-004,5.196120e-005
8.266338e-004,4.175108e-005
8.219338e-004,3.802358e-005
7.856312e-004,3.932010e-005
7.289082e-004,4.402000e-005
6.632718e-004,4.531652e-005
5.979594e-004,3.802358e-005
5.410744e-004,2.716520e-005
5.029890e-004,1.501031e-005
4.960202e-004,2.531276e-006
5.174129e-004,-8.975361e-006
5.519328e-004,-1.383732e-005
5.752702e-004,-1.302699e-005
5.655463e-004,-7.678839e-006
5.141716e-004,3.341602e-006
4.274666e-004,2.019640e-005
3.167760e-004,3.705119e-005
1.910132e-004,4.953022e-005
5.520250e-005,5.115087e-005
-7.785312e-005,4.045456e-005
-1.942160e-004,1.825161e-005
-2.912931e-004,-7.516774e-006
-3.776739e-004,-2.712668e-005
-4.624341e-004,-3.198863e-005
-5.557836e-004,-1.853721e-005
-6.609640e-004,7.069104e-006
-7.606342e-004,3.526847e-005
-8.205983e-004,5.893001e-005
-8.144398e-004,7.108490e-005
-7.424828e-004,6.751947e-005
-6.197994e-004,5.098881e-005
-4.713476e-004,2.538249e-005
-3.201407e-004,-2.654814e-006
-1.896782e-004,-2.696461e-005
-1.039456e-004,-4.446767e-005
-7.914964e-005,-5.483985e-005
-1.156143e-004,-5.548810e-005
-2.010227e-004,-4.576419e-005
-3.084720e-004,-2.826113e-005
-3.995527e-004,-9.299492e-006
-4.326140e-004,2.855406e-006
-3.864254e-004,8.041497e-006
-2.600145e-004,4.800190e-006
-7.185670e-005,-8.975361e-006
1.414213e-004,-3.344722e-005
3.407616e-004,-6.407756e-005
4.935893e-004,-9.600443e-005
5.836976e-004,-1.203142e-004
6.120591e-004,-1.311726e-004
5.971491e-004,-1.232314e-004
5.606844e-004,-1.029732e-004
5.203301e-004,-7.639453e-005
4.848377e-004,-4.479180e-005
4.524247e-004,-1.205460e-005
4.217943e-004,1.663096e-005
3.927846e-004,3.786152e-005
3.647473e-004,5.001641e-005
3.393030e-004,5.341978e-005
3.221241e-004,5.390598e-005
3.198552e-004,5.633696e-005
3.268240e-004,5.957827e-005
3.282826e-004,6.525056e-005
3.162897e-004,7.643306e-005
2.918179e-004,9.263960e-005
2.644288e-004,1.119254e-004
2.396328e-004,1.315353e-004
2.153230e-004,1.485521e-004
1.842065e-004,1.623277e-004
1.504969e-004,1.681620e-004
1.201907e-004,1.673517e-004
9.507057e-005,1.581140e-004
8.178122e-005,1.401247e-004
8.323980e-005,1.213252e-004
8.761556e-005,1.054428e-004
8.356393e-005,9.750155e-005
6.800567e-005,9.669123e-005
4.661304e-005,1.028497e-004
2.684107e-005,1.101426e-004
1.209313e-005,1.124116e-004
5.124321e-006,1.070634e-004
4.476060e-006,9.393611e-005
8.365628e-006,7.870197e-005
1.371378e-005,6.832980e-005
1.468617e-005,6.865393e-005
8.689757e-006,7.837785e-005
-6.544382e-006,8.891209e-005
-2.615428e-005,9.685329e-005
-4.722277e-005,1.000946e-004
-6.278104e-005,9.571883e-005
-6.926366e-005,8.567078e-005
-6.974985e-005,7.238143e-005
-6.602235e-005,5.974033e-005
-5.548810e-005,5.244739e-005
-4.041603e-005,5.439218e-005
-2.177852e-005,6.314371e-005
1.396819e-006,7.416414e-005
2.197911e-005,8.631904e-005
3.186510e-005,9.458438e-005
2.943412e-005,9.393611e-005
1.501031e-005,8.210535e-005
-8.651231e-006,6.200925e-005
-3.830918e-005,3.721326e-005
-7.201877e-005,5.610517e-006
-1.089697e-004,-3.458168e-005
-1.488377e-004,-7.477388e-005
-1.903264e-004,-9.551824e-005
-2.334358e-004,-8.887356e-005
-2.768693e-004,-6.213279e-005
-3.128478e-004,-3.749886e-005
-3.293785e-004,-3.279896e-005
-3.258130e-004,-4.770897e-005
-3.206269e-004,-6.910160e-005
-3.335922e-004,-8.222889e-005
-3.656811e-004,-8.174268e-005
-4.086284e-004,-7.704279e-005
-4.536825e-004,-8.222889e-005
-4.890127e-004,-1.031353e-004
-5.082985e-004,-1.264727e-004
-5.131605e-004,-1.381414e-004
-5.065158e-004,-1.337657e-004
-4.809095e-004,-1.157764e-004
-4.293727e-004,-9.486997e-005
-3.410472e-004,-7.979790e-005
-2.105846e-004,-7.023605e-005
-4.641245e-005,-6.132245e-005
1.351007e-004,-4.495386e-005
3.107795e-004,-1.918548e-005
4.576108e-004,1.468617e-005
5.647360e-004,5.390598e-005
6.214589e-004,9.636710e-005
6.136798e-004,1.383420e-004
5.362125e-004,1.790204e-004
3.991052e-004,2.154851e-004
2.300710e-004,2.454672e-004
6.006446e-005,2.632944e-004
-9.794922e-005,2.704253e-004
-2.507768e-004,2.652392e-004
-4.006872e-004,2.511395e-004
-5.309877e-004,2.334744e-004
-6.123444e-004,2.120818e-004
-6.181788e-004,1.872858e-004
-5.449253e-004,1.621656e-004
-4.078180e-004,1.402868e-004
-2.288980e-004,1.206769e-004
-3.312309e-005,1.022014e-004
1.551968e-004,9.004655e-005
3.073762e-004,8.550872e-005
4.065602e-004,8.453633e-005
4.559901e-004,8.340186e-005
4.754380e-004,8.145709e-005
4.866205e-004,8.032263e-005
4.979650e-004,7.708132e-005
5.107682e-004,7.124698e-005
5.277850e-004,6.411610e-005
5.537155e-004,5.390598e-005
5.846700e-004,4.547859e-005
6.104385e-004,4.758544e-005
6.175693e-004,6.217131e-005
5.906665e-004,7.983643e-005
5.260024e-004,9.069480e-005
4.333010e-004,8.923622e-005
3.315239e-004,7.659513e-005
2.401191e-004,5.358185e-005
1.764274e-004,2.975825e-005
1.399627e-004,1.808955e-005
1.156529e-004,2.133085e-005
9.085687e-005,3.073064e-005
5.309565e-005,3.802358e-005
-6.544382e-006,3.316162e-005
-9.260106e-005,1.257933e-005
-1.990780e-004,-1.351319e-005
-3.053928e-004,-3.458168e-005
-3.848048e-004,-4.317114e-005
-4.199730e-004,-4.074016e-005
-4.115455e-004,-3.247483e-005
-3.668155e-004,-2.890940e-005
-2.992343e-004,-3.668853e-005
-2.232257e-004,-5.581224e-005
-1.579134e-004,-7.882551e-005
-1.084835e-004,-9.324932e-005
-6.974985e-005,-9.697682e-005
-3.717472e-005,-9.341139e-005
-6.220251e-006,-8.547019e-005
2.262737e-005,-8.044616e-005
4.790957e-005,-8.287714e-005
7.043664e-005,-9.519411e-005
9.280166e-005,-1.096179e-004
1.182459e-004,-1.178833e-004
1.457970e-004,-1.157764e-004
1.770756e-004,-1.081593e-004
2.128921e-004,-9.794922e-005
2.453051e-004,-8.741497e-005
2.621599e-004,-7.331529e-005
2.514636e-004,-4.868136e-005
2.093266e-004,-1.399939e-005
1.333180e-004,1.760335e-005
3.413401e-005,3.494434e-005
-6.213279e-005,3.607880e-005
-1.267968e-004,2.441009e-005
-1.455964e-004,9.013888e-006
-1.204763e-004,-1.520357e-006
-7.315322e-005,-8.002969e-006
-3.263690e-005,-1.270286e-005
-1.756482e-005,-1.448558e-005
-2.615428e-005,-9.299492e-006
-4.932962e-005,-7.100305e-007
-7.688072e-005,4.151929e-006
-1.045939e-004,8.689757e-006
-1.311726e-004,1.776542e-005
-1.546721e-004,3.040651e-005
-1.663408e-004,3.883391e-005
-1.512687e-004,3.818564e-005
-9.260106e-005,3.478227e-005
1.193106e-005,3.510640e-005
1.492004e-004,3.786152e-005
2.965178e-004,4.045456e-005
4.355699e-004,4.888196e-005
5.598741e-004,6.735740e-005
6.639201e-004,8.907416e-005
7.394425e-004,1.030118e-004
7.840105e-004,1.022014e-004
7.994067e-004,8.842590e-005
7.950310e-004,7.043664e-005
7.820657e-004,5.763348e-005
7.655350e-004,5.439218e-005
7.410632e-004,6.249544e-005
6.979537e-004,8.080882e-005
6.308586e-004,1.062531e-004
5.631153e-004,1.363972e-004
5.211404e-004,1.616794e-004
5.097958e-004,1.714033e-004
5.089855e-004,1.628139e-004
4.874308e-004,1.401247e-004
4.041292e-004,1.075496e-004
2.294227e-004,7.335382e-005
-4.090223e-005,4.580272e-005
-3.763774e-004,3.186510e-005
-7.253040e-004,3.397195e-005
-1.030473e-003,5.212327e-005
-1.238889e-003,7.594687e-005
-1.321542e-003,9.377405e-005
-1.281512e-003,1.004187e-004
-1.152346e-003,9.539470e-005
-9.795843e-004,8.453633e-005
-8.087676e-004,8.016056e-005
-6.761981e-004,8.518459e-005
-5.956517e-004,9.717742e-005
-5.616180e-004,1.101426e-004
-5.609698e-004,1.187321e-004
-5.786348e-004,1.146805e-004
-5.997033e-004,1.007429e-004
-6.048895e-004,8.486046e-005
-5.775004e-004,7.221937e-005
-5.108916e-004,6.152305e-005
-4.032802e-004,5.260946e-005
-2.614731e-004,4.531652e-005
-1.000561e-004,4.110282e-005
6.395403e-005,3.883391e-005
2.174299e-004,3.672705e-005
3.498373e-004,3.964423e-005
4.509661e-004,5.066468e-005
5.081752e-004,6.265751e-005
5.102821e-004,6.670914e-005
4.566384e-004,6.152305e-005
3.644232e-004,5.147500e-005
2.679943e-004,4.256141e-005
2.028440e-004,3.121684e-005
1.927960e-004,2.035846e-005
2.381743e-004,1.501031e-005
3.182345e-004,9.824214e-006
3.926225e-004,-1.682422e-006
4.221185e-004,-2.177852e-005
3.884088e-004,-4.138842e-005
3.021901e-004,-4.900549e-005
1.905270e-004,-3.976777e-005
8.129502e-005,-2.177852e-005
-6.544382e-006,-6.706447e-006
-6.553616e-005,-2.330684e-006
-1.011905e-004,-9.461557e-006
-1.232314e-004,-2.420950e-005
-1.360346e-004,-3.668853e-005
-1.410586e-004,-3.749886e-005
-1.386276e-004,-2.420950e-005
-1.277692e-004,-2.654814e-006
-1.193418e-004,2.019640e-005
-1.324691e-004,3.640293e-005
-1.660166e-004,4.385793e-005
-2.057227e-004,4.418206e-005
-2.357047e-004,4.272347e-005
-2.499665e-004,4.418206e-005
-2.451045e-004,4.661304e-005
-2.233878e-004,4.839576e-005
-1.853024e-004,5.163707e-005
-1.323070e-004,5.552663e-005
-6.553616e-005,5.698522e-005
9.500084e-006,5.763348e-005
8.453633e-005,5.828174e-005
1.620035e-004,6.119892e-005
2.504912e-004,6.460230e-005
3.532407e-004,6.508849e-005
4.610142e-004,5.909207e-005
5.613326e-004,4.742337e-005
6.439860e-004,3.235129e-005
7.024916e-004,1.630683e-005
7.323117e-004,4.151929e-006
7.327978e-004,-8.720958e-007
7.107570e-004,5.448451e-006
6.733198e-004,2.262737e-005
6.276174e-004,4.580272e-005
5.832114e-004,6.541262e-005
5.428572e-004,6.962632e-005
5.080131e-004,5.309565e-005
4.757621e-004,1.889987e-005
4.428628e-004,-1.999580e-005
4.076946e-004,-5.143647e-005
3.717161e-004,-7.039811e-005
3.368721e-004,-7.882551e-005
2.983005e-004,-7.947377e-005
2.555152e-004,-6.991192e-005
2.102990e-004,-4.770897e-005
1.667035e-004,-1.108221e-005
1.289422e-004,3.705119e-005
9.993253e-005,8.729143e-005
8.064676e-005,1.248906e-004
6.800567e-005,1.445005e-004
5.617490e-005,1.485521e-004
3.737532e-005,1.409351e-004
5.286386e-006,1.273216e-004
-4.171255e-005,1.171115e-004
-9.940780e-005,1.106288e-004
-1.629374e-004,1.038221e-004
-2.300324e-004,9.652916e-005
-2.976136e-004,8.842590e-005
-3.685983e-004,8.275361e-005
-4.433104e-004,7.724339e-005
-5.094330e-004,7.481241e-005
-5.541630e-004,7.870197e-005
-5.703695e-004,8.793970e-005
-5.638869e-004,9.620503e-005
-5.481666e-004,9.814982e-005
-5.379565e-004,9.215340e-005
-5.436288e-004,8.194328e-005
-5.622663e-004,7.238143e-005
-5.843071e-004,6.816773e-005
-5.956517e-004,6.816773e-005
-5.907897e-004,6.865393e-005
-5.737729e-004,6.865393e-005
-5.548113e-004,6.735740e-005
-5.424943e-004,5.974033e-005
-5.313118e-004,4.223728e-005
-5.113778e-004,1.679302e-005
-4.736166e-004,-1.529591e-005
-4.165696e-004,-4.868136e-005
-3.405610e-004,-7.590833e-005
-2.512630e-004,-9.260106e-005
-1.567789e-004,-9.989400e-005
-7.169464e-005,-9.730095e-005
-6.544382e-006,-8.465986e-005
3.672705e-005,-6.326724e-005
6.427816e-005,-3.798505e-005
8.161915e-005,-9.137427e-006
9.652916e-005,1.727922e-005
1.184080e-004,3.235129e-005
1.493625e-004,3.380988e-005
1.804790e-004,2.359977e-005
2.020337e-004,1.047248e-005
2.132162e-004,2.693341e-006
2.211574e-004,3.503668e-006
2.295848e-004,1.193106e-005
2.391467e-004,2.619281e-005
2.477361e-004,3.948217e-005
2.568118e-004,4.677511e-005
2.707494e-004,4.580272e-005
2.866318e-004,3.769945e-005
2.986246e-004,2.716520e-005
3.057555e-004,2.084466e-005
3.115899e-004,1.954813e-005
3.175863e-004,2.295151e-005
3.218000e-004,2.716520e-005
3.218000e-004,3.170303e-005
3.171001e-004,3.267542e-005
3.130485e-004,2.943412e-005
3.153174e-004,2.716520e-005
3.264999e-004,2.619281e-005
3.508097e-004,2.862379e-005
3.895433e-004,3.413401e-005
4.448076e-004,4.628891e-005
5.136854e-004,6.849186e-005
5.866148e-004,9.571883e-005
6.504686e-004,1.180839e-004
6.953607e-004,1.268354e-004
7.250187e-004,1.214872e-004
7.503009e-004,1.041462e-004
7.728280e-004,8.129502e-005
7.901690e-004,5.811968e-005
8.037825e-004,3.980630e-005
8.089686e-004,2.781346e-005
7.909793e-004,2.100672e-005
7.384701e-004,1.663096e-005
6.418792e-004,1.436204e-005
4.966685e-004,1.614476e-005
2.965178e-004,1.971020e-005
3.121684e-005,2.262737e-005
-3.015032e-004,2.603075e-005
-6.838152e-004,3.348575e-005
-1.065479e-003,4.272347e-005
-1.371620e-003,5.439218e-005
-1.535792e-003,6.427816e-005
-1.536279e-003,6.525056e-005
-1.399982e-003,5.698522e-005
-1.189621e-003,4.564065e-005
-9.739121e-004,3.721326e-005
-7.992057e-004,2.862379e-005
-6.734430e-004,1.565857e-005
-5.873864e-004,-1.520357e-006
-5.225603e-004,-2.015787e-005
-4.480102e-004,-3.231276e-005
-3.402368e-004,-3.522994e-005
-2.157707e-004,-2.890940e-005
-1.258244e-004,-2.064406e-005
-1.028112e-004,-1.788895e-005
-1.454343e-004,-2.275091e-005
-2.284118e-004,-3.101624e-005
-3.125237e-004,-3.587821e-005
-3.682741e-004,-3.312309e-005
-3.852910e-004,-2.583015e-005
-3.721637e-004,-2.453363e-005
-3.416954e-004,-3.198863e-005
-3.042583e-004,-4.333321e-005
-2.684419e-004,-4.981582e-005
-2.404046e-004,-4.689864e-005
-2.222533e-004,-3.766092e-005
-2.115570e-004,-3.004385e-005
-2.125294e-004,-2.712668e-005
-2.259808e-004,-2.923352e-005
-2.350565e-004,-3.312309e-005
-2.165810e-004,-3.166451e-005
-1.549962e-004,-2.485776e-005
-4.527799e-005,-1.578211e-005
1.033359e-004,-8.651231e-006
2.634565e-004,-4.599598e-006
4.110980e-004,-6.544382e-006
5.326470e-004,-1.318906e-005
6.214589e-004,-1.221667e-005
6.802886e-004,-7.100305e-007
7.094605e-004,1.744128e-005
7.180499e-004,3.834771e-005
7.182119e-004,5.974033e-005
7.190223e-004,7.562274e-005
7.233981e-004,8.226741e-005
7.217774e-004,7.691926e-005
7.070294e-004,6.508849e-005
6.763990e-004,5.504044e-005
6.355586e-004,4.985435e-005
5.901803e-004,5.098881e-005
5.460985e-004,5.617490e-005
5.076890e-004,6.379197e-005
4.827309e-004,7.400208e-005
4.772207e-004,8.356393e-005
4.903480e-004,9.118101e-005
5.089855e-004,9.960840e-005
5.209784e-004,1.114392e-004
5.174129e-004,1.247285e-004
4.950479e-004,1.362352e-004
4.584211e-004,1.430419e-004
4.162841e-004,1.466074e-004
3.749574e-004,1.477418e-004
3.381686e-004,1.454729e-004
3.047831e-004,1.425557e-004
2.715597e-004,1.373696e-004
2.412535e-004,1.316973e-004
2.137024e-004,1.276457e-004
1.885823e-004,1.263492e-004
1.683241e-004,1.265113e-004
1.532520e-004,1.265113e-004
1.430419e-004,1.279698e-004
1.304008e-004,1.334801e-004
1.112771e-004,1.415833e-004
8.858796e-005,1.495245e-004
6.314371e-005,1.492004e-004
3.591673e-005,1.360731e-004
6.096713e-006,1.146805e-004
-2.615428e-005,9.620503e-005
-5.435365e-005,8.599491e-005
-7.201877e-005,8.129502e-005
-7.979790e-005,7.740545e-005
-8.352540e-005,6.849186e-005
-8.563225e-005,5.682316e-005
-8.709084e-005,4.402000e-005
-9.260106e-005,3.089270e-005
-9.632856e-005,1.760335e-005
-8.174268e-005,1.193106e-005
-4.268495e-005,1.225519e-005
8.689757e-006,1.776542e-005
5.260946e-005,2.732727e-005
7.335382e-005,3.915804e-005
6.071273e-005,4.969228e-005
1.241726e-005,5.471631e-005
-7.331529e-005,5.179913e-005
-1.921091e-004,4.110282e-005
-3.266234e-004,2.278944e-005
-4.465517e-004,3.665733e-006
-5.248292e-004,-1.497178e-005
-5.507596e-004,-3.798505e-005
-5.347152e-004,-6.586029e-005
-5.008435e-004,-9.098041e-005
-4.732924e-004,-1.055663e-004
-4.622720e-004,-1.029732e-004
-4.695649e-004,-8.547019e-005
-4.890127e-004,-6.667061e-005
-5.035987e-004,-5.791909e-005
-4.924161e-004,-6.278104e-005
-4.425000e-004,-7.153257e-005
-3.562813e-004,-7.218083e-005
-2.462390e-004,-6.067420e-005
-1.282554e-004,-4.657451e-005
-1.529591e-005,-4.155049e-005
8.680524e-005,-4.722277e-005
1.756170e-004,-5.240886e-005
2.543808e-004,-4.657451e-005
3.295791e-004,-3.134038e-005
4.025085e-004,-1.399939e-005
4.658761e-004,-2.330684e-006
5.157922e-004,2.207145e-006
5.498260e-004,5.286386e-006
5.569568e-004,1.031041e-005
5.272989e-004,1.971020e-005
4.472386e-004,3.170303e-005
3.039728e-004,4.483032e-005
9.344992e-005,5.795762e-005
-1.677994e-004,6.670914e-005
-4.369898e-004,6.589881e-005
-6.582089e-004,5.682316e-005
-7.962885e-004,4.547859e-005
-8.389117e-004,3.397195e-005
-7.873749e-004,2.538249e-005
-6.538332e-004,1.727922e-005
-4.606513e-004,1.338965e-005
-2.392702e-004,1.549650e-005
-2.615428e-005,2.651694e-005
1.504969e-004,4.353380e-005
2.785285e-004,6.200925e-005
3.574544e-004,8.372600e-005
3.944053e-004,1.091703e-004
4.047775e-004,1.323456e-004
4.028327e-004,1.466074e-004
3.957018e-004,1.526038e-004
3.697713e-004,1.513072e-004
3.088348e-004,1.432040e-004
2.093266e-004,1.304008e-004
7.951231e-005,1.159770e-004
-6.359137e-005,1.015532e-004
-1.998883e-004,8.923622e-005
-3.139823e-004,7.983643e-005
-3.989045e-004,7.238143e-005
-4.533584e-004,6.881599e-005
-4.768579e-004,7.124698e-005
-4.713476e-004,7.935023e-005
-4.382863e-004,8.242948e-005
-3.750809e-004,7.302969e-005
-2.820554e-004,6.119892e-005
-1.619650e-004,5.957827e-005
-2.501983e-005,7.189524e-005
1.195424e-004,8.875003e-005
2.613496e-004,9.928427e-005
3.927846e-004,9.993253e-005
5.028270e-004,9.636710e-005
5.742979e-004,9.312579e-005
5.793219e-004,9.199134e-005
4.819206e-004,8.761556e-005
2.636185e-004,7.610893e-005
-4.965375e-005,6.476436e-005
-3.796187e-004,5.617490e-005
-6.324405e-004,5.001641e-005
-7.473448e-004,4.175108e-005
-7.225489e-004,3.462021e-005
-5.964620e-004,3.089270e-005
-4.204591e-004,2.505835e-005
-2.389460e-004,1.079661e-005
-8.239095e-005,-1.464765e-005
3.737532e-005,-4.138842e-005
1.257009e-004,-5.953974e-005
1.945787e-004,-6.180866e-005
2.521119e-004,-5.208473e-005
2.984626e-004,-3.604027e-005
3.250413e-004,-2.210265e-005
3.234207e-004,-2.080613e-005
2.950592e-004,-3.458168e-005
2.537325e-004,-5.224680e-005
2.096508e-004,-6.180866e-005
1.598967e-004,-5.937767e-005
1.054428e-004,-4.932962e-005
5.568870e-005,-3.814712e-005
2.408596e-005,-2.923352e-005
1.889987e-005,-2.226472e-005
3.705119e-005,-1.432352e-005
7.205730e-005,-5.896120e-006
1.174356e-004,-2.006553e-006
1.692965e-004,-3.627206e-006
2.276400e-004,-1.173047e-005
2.838767e-004,-2.258885e-005
3.229344e-004,-3.279896e-005
3.347652e-004,-3.733679e-005
3.138588e-004,-3.441962e-005
2.725321e-004,-3.020592e-005
2.329882e-004,-2.923352e-005
2.187264e-004,-3.539201e-005
2.373639e-004,-4.738484e-005
2.743148e-004,-5.370539e-005
3.062417e-004,-5.030201e-005
3.179104e-004,-4.041603e-005
3.101313e-004,-2.988179e-005
2.983005e-004,-2.420950e-005
2.989488e-004,-2.031993e-005
3.114278e-004,-1.399939e-005
3.271481e-004,-5.409925e-006
3.415720e-004,1.079661e-005
3.496752e-004,3.786152e-005
3.428685e-004,7.108490e-005
3.218000e-004,1.046324e-004
2.968419e-004,1.297525e-004
2.730183e-004,1.393144e-004
2.517877e-004,1.295905e-004
2.299089e-004,1.051186e-004
2.060853e-004,7.724339e-005
1.782101e-004,5.957827e-005
1.393144e-004,6.136099e-005
9.231547e-005,7.562274e-005
4.953022e-005,8.939829e-005
3.089270e-005,9.199134e-005
4.661304e-005,8.291567e-005
9.377405e-005,7.546067e-005
1.464453e-004,7.870197e-005
1.756170e-004,9.490851e-005
1.696206e-004,1.182459e-004
1.300767e-004,1.360731e-004
6.541262e-005,1.422316e-004
-1.124428e-005,1.415833e-004
-8.514606e-005,1.420695e-004
-1.426792e-004,1.427178e-004
-1.804405e-004,1.389903e-004
-2.032917e-004,1.287802e-004
-2.139880e-004,1.130598e-004
-2.135018e-004,9.426025e-005
-2.057227e-004,7.691926e-005
-1.953505e-004,6.508849e-005
-1.856265e-004,6.427816e-005
-1.763888e-004,7.789165e-005
-1.669890e-004,1.023635e-004
-1.493239e-004,1.269974e-004
-1.120489e-004,1.344524e-004
-4.835723e-005,1.192183e-004
3.316162e-005,8.696730e-005
1.161391e-004,4.871989e-005
1.793446e-004,1.355172e-005
2.036543e-004,-9.623623e-006
1.867996e-004,-2.113026e-005
1.381799e-004,-2.404744e-005
7.902610e-005,-2.680255e-005
3.802358e-005,-3.441962e-005
3.332369e-005,-4.430560e-005
6.508849e-005,-4.738484e-005
1.111150e-004,-3.749886e-005
1.469315e-004,-2.113026e-005
1.592484e-004,-9.461557e-006
1.420695e-004,-7.030578e-006
9.312579e-005,-1.010982e-005
1.387585e-005,-1.529591e-005
-9.956987e-005,-2.242678e-005
-2.532078e-004,-3.134038e-005
-4.449310e-004,-3.717472e-005
-6.635570e-004,-3.279896e-005
-8.750523e-004,-2.064406e-005
-1.036631e-003,-1.335112e-005
-1.112802e-003,-1.902341e-005
-1.084116e-003,-3.506787e-005
-9.611089e-004,-5.321919e-005
-7.776510e-004,-6.569822e-005
-5.710178e-004,-7.039811e-005
-3.697327e-004,-6.618442e-005
-1.904885e-004,-5.013995e-005
-4.284701e-005,-2.550602e-005
7.367795e-005,1.720949e-006
1.613553e-004,2.359977e-005
2.253711e-004,3.380988e-005
2.697770e-004,3.251336e-005
2.955454e-004,2.003433e-005
3.030004e-004,-2.492749e-006
2.963557e-004,-2.404744e-005
2.811216e-004,-3.409548e-005
2.696149e-004,-2.793700e-005
2.644288e-004,-8.975361e-006
2.569738e-004,1.663096e-005
2.427121e-004,4.256141e-005
2.196988e-004,6.703327e-005
1.960373e-004,8.826383e-005
1.791825e-004,1.043083e-004
1.735102e-004,1.143563e-004
1.795066e-004,1.229458e-004
1.900409e-004,1.316973e-004
1.966855e-004,1.401247e-004
1.958752e-004,1.454729e-004
1.882581e-004,1.467694e-004
1.856651e-004,1.469315e-004
1.942546e-004,1.469315e-004
2.156472e-004,1.443384e-004
2.474120e-004,1.396385e-004
2.848491e-004,1.349386e-004
3.161277e-004,1.295905e-004
3.380065e-004,1.206769e-004
3.546993e-004,1.044704e-004
3.697713e-004,8.016056e-005
3.846813e-004,5.698522e-005
3.944053e-004,4.920609e-005
4.002396e-004,6.330577e-005
4.026706e-004,9.377405e-005
3.957018e-004,1.250527e-004
3.713920e-004,1.432040e-004
3.281205e-004,1.446626e-004
2.649151e-004,1.376937e-004
1.752929e-004,1.281319e-004
5.617490e-005,1.161391e-004
-8.757703e-005,1.070634e-004
-2.470493e-004,1.004187e-004
-4.105731e-004,9.912220e-005
-5.645352e-004,9.993253e-005
-7.040733e-004,9.312579e-005
-8.241637e-004,7.935023e-005
-9.110307e-004,5.909207e-005
-9.468471e-004,3.494434e-005
-9.235098e-004,9.662150e-006
-8.457184e-004,-7.516774e-006
-7.303280e-004,-9.623623e-006
-5.937069e-004,3.179537e-006
-4.553032e-004,2.084466e-005
-3.301888e-004,3.040651e-005
-2.250084e-004,2.684107e-005
-1.374931e-004,1.436204e-005
-6.067420e-005,-1.358292e-006
8.365628e-006,-1.416145e-005
7.416414e-005,-2.453363e-005
1.383420e-004,-3.604027e-005
2.010613e-004,-5.402952e-005
2.589186e-004,-7.477388e-005
3.085106e-004,-8.968388e-005
3.456236e-004,-9.616650e-005
3.671783e-004,-9.989400e-005
3.734988e-004,-9.859748e-005
3.681507e-004,-8.935975e-005
3.514579e-004,-7.477388e-005
3.247172e-004,-6.083626e-005
2.924662e-004,-5.613637e-005
2.590807e-004,-6.067420e-005
2.274780e-004,-6.845333e-005
2.021958e-004,-7.250496e-005
1.884202e-004,-6.926366e-005
1.880961e-004,-5.921561e-005
1.991165e-004,-4.398147e-005
2.156472e-004,-2.842320e-005
2.245608e-004,-2.242678e-005
2.114335e-004,-2.728874e-005
1.692965e-004,-4.398147e-005
1.114392e-004,-6.342930e-005
6.330577e-005,-7.639453e-005
4.239934e-005,-7.639453e-005
5.244739e-005,-6.326724e-005
8.875003e-005,-4.057810e-005
1.456350e-004,-1.772689e-005
2.214815e-004,-2.006553e-006
3.130485e-004,4.962256e-006
4.104497e-004,8.527692e-006
4.971547e-004,1.403791e-005
5.571189e-004,2.505835e-005
5.836976e-004,4.013043e-005
5.785116e-004,5.601283e-005
5.516087e-004,7.076077e-005
5.193577e-004,8.210535e-005
4.955340e-004,8.502253e-005
4.812723e-004,7.627100e-005
4.694415e-004,6.233338e-005
4.533971e-004,5.455424e-005
4.295734e-004,5.698522e-005
3.963500e-004,6.233338e-005
3.538889e-004,5.974033e-005
3.068900e-004,5.066468e-005
2.584324e-004,4.207521e-005
2.052750e-004,4.094075e-005
1.401247e-004,4.985435e-005
6.395403e-005,6.784360e-005
-1.545797e-005,8.567078e-005
-8.773910e-005,9.296372e-005
-1.436516e-004,9.150514e-005
-1.776853e-004,8.777764e-005
-1.878955e-004,8.777764e-005
-1.736337e-004,9.037068e-005
-1.371690e-004,8.858796e-005
-9.130454e-005,8.356393e-005
-4.754691e-005,8.453633e-005
-2.339917e-005,9.231547e-005
-3.701266e-005,1.070634e-004
-9.081834e-005,1.201907e-004
-1.737958e-004,1.242423e-004
-2.695764e-004,1.201907e-004
-3.664914e-004,1.146805e-004
-4.616237e-004,1.150046e-004
-5.473563e-004,1.222975e-004
-6.214201e-004,1.328318e-004
-6.852738e-004,1.407730e-004
-7.452379e-004,1.402868e-004
-8.123330e-004,1.295905e-004
-8.862347e-004,1.141943e-004
-9.478196e-004,9.717742e-005
-9.812050e-004,8.194328e-005
-9.688881e-004,7.319175e-005
-8.995241e-004,7.578480e-005
-7.791096e-004,8.875003e-005
-6.277406e-004,1.104668e-004
-4.638926e-004,1.363972e-004
-2.950206e-004,1.581140e-004
-1.298761e-004,1.649207e-004
2.278944e-005,1.479039e-004
1.522796e-004,1.117633e-004
2.456293e-004,6.573675e-005
2.997591e-004,2.149292e-005
3.177483e-004,-1.286493e-005
3.055935e-004,-3.279896e-005
2.696149e-004,-3.863331e-005
2.180782e-004,-3.814712e-005
1.626518e-004,-3.847125e-005
1.109530e-004,-3.782299e-005
6.379197e-005,-3.490581e-005
2.230324e-005,-3.004385e-005
-1.448558e-005,-2.858526e-005
-4.592625e-005,-3.053005e-005
-7.169464e-005,-3.377135e-005
-8.887356e-005,-3.458168e-005
-9.681476e-005,-3.312309e-005
-9.519411e-005,-3.231276e-005
-7.704279e-005,-3.652646e-005
-3.215070e-005,-5.062615e-005
4.223728e-005,-7.947377e-005
1.435281e-004,-1.170729e-004
2.632944e-004,-1.447861e-004
3.793332e-004,-1.455964e-004
4.696036e-004,-1.186936e-004
5.227610e-004,-7.493595e-005
5.456123e-004,-2.988179e-005
5.532294e-004,7.555300e-006
5.579292e-004,3.299956e-005
5.619809e-004,4.515445e-005
5.644119e-004,4.807163e-005
5.699221e-004,4.223728e-005
5.783495e-004,3.445814e-005
5.867769e-004,2.846173e-005
5.908285e-004,2.797553e-005
5.877493e-004,2.927205e-005
5.765667e-004,2.586868e-005
5.603603e-004,2.116879e-005
5.439916e-004,1.987226e-005
5.310263e-004,1.954813e-005
5.214645e-004,1.938607e-005
5.093096e-004,2.311357e-005
4.848377e-004,3.607880e-005
4.401077e-004,5.844381e-005
3.783608e-004,8.178122e-005
3.065658e-004,9.717742e-005
2.339606e-004,1.004187e-004
1.657311e-004,9.523264e-005
1.065772e-004,8.842590e-005
6.119892e-005,8.891209e-005
3.121684e-005,9.912220e-005
1.095867e-005,1.154908e-004
-3.627206e-006,1.286181e-004
-1.513384e-005,1.289422e-004
-2.680255e-005,1.171115e-004
-4.155049e-005,9.879807e-005
-5.678463e-005,8.210535e-005
-7.412562e-005,7.432621e-005
-9.389758e-005,7.675719e-005
-1.094559e-004,8.194328e-005
-1.170729e-004,9.134307e-005
-1.172350e-004,1.069013e-004
-1.172350e-004,1.226217e-004
-1.208004e-004,1.347766e-004
-1.293899e-004,1.399627e-004
-1.381414e-004,1.349386e-004
-1.438137e-004,1.141943e-004
-1.499722e-004,7.999850e-005
-1.613168e-004,4.369587e-005
-1.827094e-004,1.889987e-005
-2.144742e-004,1.176900e-005
-2.523974e-004,1.387585e-005
-2.955068e-004,1.274139e-005
-3.413713e-004,4.476060e-006
-3.822118e-004,-7.030578e-006
-4.170558e-004,-1.448558e-005
-4.460654e-004,-1.205460e-005
-4.742648e-004,-3.141010e-006
-5.023021e-004,5.772582e-006
-5.246671e-004,9.986280e-006
-5.436288e-004,4.800190e-006
-5.533526e-004,-7.678839e-006
-5.460597e-004,-2.469570e-005
-5.215878e-004,-4.722277e-005
-4.807474e-004,-6.812920e-005
-4.243487e-004,-8.060822e-005
-3.566054e-004,-8.384953e-005
-2.789761e-004,-8.222889e-005
-1.961608e-004,-7.882551e-005
-1.114006e-004,-7.720485e-005
-2.550602e-005,-7.671866e-005
6.071273e-005,-7.088431e-005
1.406109e-004,-5.889147e-005
2.112714e-004,-4.706071e-005
2.790147e-004,-3.798505e-005
3.551854e-004,-2.664048e-005
4.401077e-004,-1.237873e-005
5.276230e-004,1.234753e-006
6.039558e-004,1.241726e-005
6.629477e-004,2.230324e-005
6.994124e-004,3.089270e-005
7.078398e-004,3.948217e-005
6.892022e-004,5.179913e-005
6.438239e-004,6.751947e-005
5.413986e-004,8.178122e-005
3.206655e-004,8.469840e-005
-3.279896e-005,6.670914e-005
-4.608134e-004,3.753739e-005
-8.757006e-004,1.079661e-005
-1.185407e-003,-3.627206e-006
-1.325270e-003,-2.978945e-006
-1.282808e-003,8.203561e-006
-1.078768e-003,2.424803e-005
-7.672788e-004,4.110282e-005
-4.199730e-004,4.985435e-005
-9.422171e-005,5.017848e-005
1.837203e-004,5.082674e-005
4.047775e-004,6.411610e-005
5.697600e-004,9.296372e-005
6.870954e-004,1.310491e-004
7.588904e-004,1.639483e-004
7.760693e-004,1.825858e-004
7.344185e-004,1.855030e-004
6.431757e-004,1.738343e-004
5.342677e-004,1.530900e-004
4.524247e-004,1.320215e-004
4.247115e-004,1.200286e-004
4.493454e-004,1.169494e-004
4.986133e-004,1.218114e-004
5.425331e-004,1.271595e-004
5.605223e-004,1.271595e-004
5.439916e-004,1.195424e-004
4.974788e-004,1.056048e-004
4.300596e-004,8.956035e-005
3.504856e-004,7.610893e-005
2.650771e-004,7.108490e-005
1.838824e-004,7.594687e-005
1.137081e-004,8.388807e-005
5.601283e-005,8.534666e-005
9.500084e-006,7.805372e-005
-2.615428e-005,6.930219e-005
-4.981582e-005,6.622294e-005
-6.245691e-005,7.205730e-005
-6.391550e-005,8.242948e-005
-5.516398e-005,9.280166e-005
-4.203669e-005,9.733949e-005
-4.365734e-005,8.858796e-005
-7.607040e-005,6.476436e-005
-1.408965e-004,3.591673e-005
-2.295462e-004,1.452411e-005
-3.329439e-004,3.179537e-006
-4.413656e-004,-1.196226e-006
-5.426563e-004,-2.978945e-006
-6.183409e-004,-7.100305e-007
-6.539952e-004,7.069104e-006
-6.444334e-004,1.808955e-005
-5.907897e-004,2.894792e-005
-5.066778e-004,3.267542e-005
-4.115455e-004,2.927205e-005
-3.259751e-004,2.181705e-005
-2.577456e-004,1.257933e-005
-2.031296e-004,3.017472e-006
-1.593720e-004,-9.461557e-006
-1.248521e-004,-2.631635e-005
-1.015147e-004,-4.495386e-005
-8.773910e-005,-5.889147e-005
-7.995997e-005,-6.521203e-005
-7.266703e-005,-6.180866e-005
-6.051213e-005,-5.548810e-005
-4.414354e-005,-5.127441e-005
-2.664048e-005,-5.192267e-005
-8.651231e-006,-5.419158e-005
1.403791e-005,-5.548810e-005
3.899597e-005,-5.565017e-005
6.314371e-005,-5.694669e-005
8.648111e-005,-5.889147e-005
1.119254e-004,-6.197072e-005
1.386661e-004,-6.731887e-005
1.663793e-004,-7.412562e-005
1.903650e-004,-7.736692e-005
2.171058e-004,-7.607040e-005
2.506533e-004,-7.218083e-005
2.914938e-004,-6.715681e-005
3.341170e-004,-5.889147e-005
3.665300e-004,-4.689864e-005
3.769022e-004,-2.647842e-005
3.637749e-004,4.151929e-006
3.336308e-004,3.380988e-005
2.991108e-004,4.936815e-005
2.699391e-004,4.596478e-005
2.503292e-004,3.186510e-005
2.386605e-004,2.197911e-005
2.263435e-004,2.505835e-005
2.104611e-004,3.656499e-005
1.937684e-004,4.839576e-005
1.767515e-004,5.358185e-005
1.652449e-004,5.196120e-005
1.595726e-004,4.920609e-005
1.623277e-004,4.920609e-005
1.775618e-004,5.309565e-005
2.031682e-004,6.006446e-005
2.329882e-004,6.687120e-005
2.619979e-004,7.011251e-005
2.918179e-004,7.351588e-005
3.242310e-004,7.740545e-005
3.559958e-004,8.534666e-005
3.760919e-004,9.426025e-005
3.675024e-004,1.004187e-004
3.159656e-004,1.039842e-004
2.216436e-004,1.090082e-004
1.041462e-004,1.175977e-004
-8.651231e-006,1.299146e-004
-9.324932e-005,1.407730e-004
-1.444620e-004,1.425557e-004
-1.687718e-004,1.331559e-004
-1.707165e-004,1.175977e-004
-1.533756e-004,9.896014e-005
-1.167488e-004,7.578480e-005
-6.229485e-005,5.131293e-005
1.720949e-006,3.316162e-005
6.427816e-005,2.813760e-005
1.150046e-004,3.688912e-005
1.508210e-004,5.439218e-005
1.702689e-004,7.465034e-005
1.764274e-004,8.988448e-005
1.639483e-004,9.134307e-005
1.370455e-004,8.210535e-005
1.041462e-004,7.254349e-005
7.124698e-005,6.930219e-005
4.774750e-005,6.865393e-005
3.316162e-005,6.152305e-005
1.646889e-005,4.272347e-005
-8.165034e-006,1.209313e-005
-3.863331e-005,-2.599222e-005
-7.056018e-005,-6.278104e-005
-1.023250e-004,-9.033214e-005
-1.396000e-004,-1.042698e-004
-1.912988e-004,-1.015147e-004
-2.582318e-004,-8.773910e-005
-3.334301e-004,-6.926366e-005
-4.078180e-004,-4.868136e-005
-4.747510e-004,-2.680255e-005
-5.389288e-004,-6.382316e-006
-6.092652e-004,4.800190e-006
-6.773326e-004,6.420843e-006
-7.231971e-004,1.883015e-006
-7.334072e-004,-2.978945e-006
-7.159041e-004,-8.720958e-007
-6.945115e-004,8.851824e-006
-6.846256e-004,2.230324e-005
-6.778188e-004,3.591673e-005
-6.499436e-004,4.564065e-005
-5.844692e-004,4.823369e-005
-4.852852e-004,4.450619e-005
-3.697327e-004,4.304760e-005
-2.609869e-004,4.904402e-005
-1.679614e-004,6.606088e-005
-9.000801e-005,8.842590e-005
-2.242678e-005,1.138701e-004
3.526847e-005,1.344524e-004
9.037068e-005,1.449867e-004
1.516314e-004,1.391524e-004
2.156472e-004,1.190562e-004
2.778803e-004,9.377405e-005
3.467580e-004,7.270556e-005
4.336251e-004,6.103685e-005
5.392918e-004,6.006446e-005
6.446342e-004,6.314371e-005
7.407391e-004,6.525056e-005
8.292268e-004,6.152305e-005
9.109078e-004,5.309565e-005
9.822166e-004,4.239934e-005
1.037481e-003,3.397195e-005
1.080915e-003,3.186510e-005
1.123214e-003,3.316162e-005
1.166485e-003,3.364782e-005
1.193388e-003,3.705119e-005
1.179126e-003,4.742337e-005
1.099228e-003,6.346784e-005
9.569344e-004,7.837785e-005
7.713694e-004,8.437427e-005
5.520949e-004,8.242948e-005
2.995970e-004,7.351588e-005
2.019640e-005,6.362990e-005
-2.569353e-004,5.876794e-005
-4.956574e-004,6.103685e-005
-6.682570e-004,6.800567e-005
-7.617687e-004,7.286762e-005
-7.698719e-004,7.302969e-005
-6.996976e-004,6.557468e-005
-5.716661e-004,5.455424e-005
-4.170558e-004,4.742337e-005
-2.718453e-004,4.969228e-005
-1.605064e-004,5.633696e-005
-8.255302e-005,5.941620e-005
-2.728874e-005,5.860587e-005
1.711715e-005,6.055066e-005
5.795762e-005,6.687120e-005
9.296372e-005,7.448828e-005
1.187321e-004,8.080882e-005
1.305629e-004,8.129502e-005
1.291043e-004,7.497447e-005
1.255388e-004,5.649903e-005
1.224596e-004,2.441009e-005
1.133840e-004,-1.173047e-005
9.393611e-005,-3.863331e-005
6.152305e-005,-4.576419e-005
1.808955e-005,-3.312309e-005
-3.182657e-005,-7.030578e-006
-8.757703e-005,2.165498e-005
-1.517549e-004,3.964423e-005
-2.253325e-004,4.256141e-005
-3.040963e-004,3.316162e-005
-3.724878e-004,2.489629e-005
-4.073319e-004,2.181705e-005
-3.961493e-004,2.878586e-005
-3.533641e-004,3.915804e-005
-3.060411e-004,4.369587e-005
-2.767072e-004,3.429608e-005
-2.742762e-004,1.371378e-005
-2.943724e-004,-8.975361e-006
-3.274337e-004,-3.085418e-005
-3.645466e-004,-4.560212e-005
-3.927460e-004,-5.289506e-005
-3.961493e-004,-5.662256e-005
-3.658432e-004,-6.002593e-005
-3.008549e-004,-6.197072e-005
-2.096122e-004,-6.051213e-005
-1.065387e-004,-5.775702e-005
-5.247859e-006,-5.694669e-005
8.534666e-005,-5.662256e-005
1.540623e-004,-5.354332e-005
2.008992e-004,-4.689864e-005
2.372019e-004,-4.414354e-005
2.777182e-004,-5.013995e-005
3.243930e-004,-5.970180e-005
3.670162e-004,-6.488790e-005
3.897054e-004,-6.375343e-005
3.809539e-004,-5.305713e-005
3.436788e-004,-3.895744e-005
3.004074e-004,-2.518189e-005
2.723700e-004,-1.675450e-005
2.657254e-004,-1.286493e-005
2.710735e-004,-1.189254e-005
2.709115e-004,-1.027188e-005
2.469258e-004,-2.238345e-007
1.863134e-004,1.841368e-005
9.361198e-005,3.056858e-005
-2.161646e-005,3.283749e-005
-1.715269e-004,3.056858e-005
-3.771877e-004,2.635488e-005
-6.264441e-004,2.457216e-005
-8.779694e-004,3.413401e-005
-1.082172e-003,5.293359e-005
-1.194483e-003,7.302969e-005
-1.186380e-003,8.486046e-005
-1.053162e-003,8.372600e-005
-8.160605e-004,7.497447e-005
-5.160776e-004,6.849186e-005
-2.028055e-004,6.995045e-005
8.161915e-005,7.529860e-005
3.119140e-004,8.032263e-005
4.809482e-004,8.583285e-005
5.926113e-004,9.588090e-005
6.587339e-004,1.106288e-004
6.973055e-004,1.276457e-004
7.240463e-004,1.372075e-004
7.467354e-004,1.386661e-004
7.666695e-004,1.318594e-004
7.801210e-004,1.198666e-004
7.862794e-004,1.119254e-004
7.820657e-004,1.070634e-004
7.669936e-004,1.038221e-004
7.418735e-004,1.022014e-004
7.091363e-004,1.026876e-004
6.682958e-004,1.036600e-004
6.221071e-004,1.062531e-004
5.713807e-004,1.046324e-004
5.156302e-004,9.814982e-005
4.525867e-004,9.053274e-005
3.833848e-004,8.567078e-005
3.093210e-004,8.161915e-005
2.323399e-004,7.918817e-005
1.535762e-004,7.983643e-005
7.335382e-005,8.421220e-005
-8.165034e-006,9.118101e-005
-9.454584e-005,9.620503e-005
-1.804405e-004,9.750155e-005
-2.600145e-004,9.733949e-005
-3.282440e-004,9.296372e-005
-3.802670e-004,7.789165e-005
-4.152730e-004,5.601283e-005
-4.373140e-004,3.688912e-005
-4.488206e-004,2.603075e-005
-4.416897e-004,2.165498e-005
-4.130041e-004,1.857574e-005
-3.614674e-004,1.144487e-005
-2.946965e-004,7.485573e-007
-2.230636e-004,-1.075808e-005
-1.559686e-004,-1.967167e-005
-9.260106e-005,-2.242678e-005
-2.745081e-005,-2.258885e-005
5.471631e-005,-2.339917e-005
1.586002e-004,-2.437157e-005
2.743148e-004,-2.145439e-005
3.781987e-004,-1.821308e-005
4.423766e-004,-1.886135e-005
4.490213e-004,-2.534396e-005
4.063981e-004,-3.458168e-005
3.396272e-004,-4.236081e-005
2.751252e-004,-3.992984e-005
2.213195e-004,-2.712668e-005
1.657311e-004,-7.516774e-006
9.182927e-005,1.306552e-005
-1.682422e-006,2.570661e-005
-1.115627e-004,2.343770e-005
-2.276015e-004,9.338019e-006
-3.368334e-004,-1.059601e-005
-4.368277e-004,-3.555407e-005
-5.326083e-004,-6.002593e-005
-6.261200e-004,-7.412562e-005
-7.043975e-004,-7.639453e-005
-7.492896e-004,-6.812920e-005
-7.517206e-004,-4.949169e-005
-7.100698e-004,-2.307504e-005
-6.347094e-004,1.883015e-006
-5.360117e-004,1.987226e-005
-4.230522e-004,3.283749e-005
-3.018273e-004,4.272347e-005
-1.702303e-004,5.017848e-005
-2.793700e-005,5.487837e-005
1.114392e-004,5.860587e-005
2.252090e-004,6.508849e-005
2.966798e-004,7.529860e-005
3.258516e-004,8.307774e-005
3.277964e-004,8.777764e-005
3.247172e-004,8.712937e-005
3.367100e-004,7.935023e-005
3.747953e-004,6.832980e-005
4.336251e-004,5.990240e-005
4.950479e-004,6.298164e-005
5.405883e-004,8.048469e-005
5.627912e-004,1.059289e-004
5.671670e-004,1.295905e-004
5.626291e-004,1.415833e-004
5.538776e-004,1.378558e-004
5.402641e-004,1.242423e-004
