6.274553e-004,-1.626830e-005
1.507633e-003,1.063454e-005
2.688446e-003,1.112074e-005
4.182863e-003,-1.286493e-005
4.958681e-003,-4.754691e-005
4.958843e-003,-8.060822e-005
4.958681e-003,-1.123730e-004
4.908116e-003,-1.549962e-004
3.354215e-003,-2.193361e-004
2.003554e-003,-2.980999e-004
1.213484e-003,-3.695707e-004
1.011388e-003,-4.118697e-004
1.195657e-003,-4.102490e-004
1.504230e-003,-3.635742e-004
1.723505e-003,-2.827036e-004
1.731446e-003,-1.838438e-004
1.503906e-003,-8.368747e-005
1.100849e-003,4.962256e-006
6.431757e-004,7.416414e-005
2.782044e-004,1.206769e-004
1.190562e-004,1.479039e-004
1.932822e-004,1.692965e-004
4.422145e-004,1.965235e-004
7.652109e-004,2.337985e-004
1.068111e-003,2.757734e-004
1.275717e-003,3.098072e-004
1.348809e-003,3.284447e-004
1.296138e-003,3.321721e-004
1.173454e-003,3.294171e-004
1.055956e-003,3.255275e-004
1.008147e-003,3.193690e-004
1.054012e-003,3.049452e-004
1.169402e-003,2.733424e-004
1.301972e-003,2.166196e-004
1.401804e-003,1.393144e-004
1.453179e-003,5.585077e-005
1.462741e-003,-1.788895e-005
1.451883e-003,-7.299116e-005
1.440862e-003,-1.092938e-004
1.441510e-003,-1.306864e-004
1.455286e-003,-1.405724e-004
1.465982e-003,-1.441378e-004
1.443941e-003,-1.420310e-004
1.360640e-003,-1.282554e-004
1.210891e-003,-1.039456e-004
1.013981e-003,-7.153257e-005
8.042687e-004,-3.474375e-005
6.130315e-004,1.720949e-006
4.493454e-004,3.753739e-005
3.004074e-004,7.886404e-005
1.571416e-004,1.255388e-004
2.392390e-005,1.699447e-004
-7.995997e-005,2.023578e-004
-1.408965e-004,2.242366e-004
-1.755785e-004,2.410914e-004
-2.402425e-004,2.572980e-004
-3.856151e-004,2.807975e-004
-6.147754e-004,3.143450e-004
-8.945001e-004,3.509718e-004
-1.186056e-003,3.794953e-004
-1.455408e-003,3.864641e-004
-1.667876e-003,3.576164e-004
-1.777432e-003,2.885766e-004
-1.745019e-003,1.887443e-004
-1.557995e-003,7.902610e-005
-1.244237e-003,-2.064406e-005
-8.672731e-004,-1.031353e-004
-4.937127e-004,-1.668270e-004
-1.715269e-004,-2.164190e-004
7.805372e-005,-2.592042e-004
2.564876e-004,-2.990722e-004
3.689610e-004,-3.395886e-004
4.170944e-004,-3.848048e-004
4.070464e-004,-4.254832e-004
3.506476e-004,-4.488206e-004
2.589186e-004,-4.431483e-004
1.386661e-004,-4.078180e-004
-6.544382e-006,-3.463953e-004
-1.559686e-004,-2.655248e-004
-2.864312e-004,-1.731475e-004
-3.796187e-004,-8.222889e-005
-4.329382e-004,9.106226e-007
-4.567618e-004,7.853991e-005
-4.690787e-004,1.595726e-004
-4.825302e-004,2.451431e-004
-4.888507e-004,3.311998e-004
-4.734545e-004,4.151496e-004
-4.272659e-004,4.931031e-004
-3.444505e-004,5.626291e-004
-2.206326e-004,6.222692e-004
-6.164659e-005,6.781818e-004
1.211631e-004,7.319875e-004
3.140208e-004,7.812554e-004
5.141716e-004,8.237166e-004
7.169154e-004,8.535366e-004
8.990770e-004,8.629364e-004
1.016574e-003,8.459195e-004
1.023543e-003,8.018378e-004
8.987529e-004,7.362012e-004
6.397723e-004,6.540340e-004
2.752873e-004,5.542017e-004
-1.418689e-004,4.415663e-004
-5.651835e-004,3.243930e-004
-9.483058e-004,2.106232e-004
-1.234999e-003,1.091703e-004
-1.391878e-003,2.392390e-005
-1.425588e-003,-4.770897e-005
-1.378589e-003,-1.063766e-004
-1.298205e-003,-1.546721e-004
-1.207610e-003,-1.964849e-004
-1.098864e-003,-2.323013e-004
-9.554367e-004,-2.605007e-004
-7.770028e-004,-2.838381e-004
-5.907897e-004,-3.023136e-004
-4.347209e-004,-3.139823e-004
-3.413713e-004,-3.201407e-004
-3.168994e-004,-3.256510e-004
-3.363473e-004,-3.400748e-004
-3.645466e-004,-3.716775e-004
-3.609812e-004,-4.267797e-004
-3.005308e-004,-5.018159e-004
-1.874093e-004,-5.873864e-004
-5.176060e-005,-6.565882e-004
6.444023e-005,-6.784671e-004
1.282940e-004,-6.397335e-004
1.338042e-004,-5.591870e-004
9.101894e-005,-4.742648e-004
2.311357e-005,-4.151110e-004
-4.576419e-005,-3.997148e-004
-1.015147e-004,-4.256452e-004
-1.451102e-004,-4.820439e-004
-1.874093e-004,-5.544871e-004
-2.420253e-004,-6.285509e-004
-3.149546e-004,-6.959701e-004
-4.006872e-004,-7.510723e-004
-4.828543e-004,-7.862404e-004
-5.345531e-004,-7.907783e-004
-5.176983e-004,-7.630652e-004
-4.008492e-004,-7.068285e-004
-1.844921e-004,-6.274165e-004
8.388807e-005,-5.364979e-004
3.465960e-004,-4.418518e-004
5.697600e-004,-3.538503e-004
7.310151e-004,-2.780037e-004
8.220959e-004,-2.050744e-004
8.681225e-004,-1.211245e-004
9.267902e-004,-1.999580e-005
1.051419e-003,9.344992e-005
1.259511e-003,2.120818e-004
1.504554e-003,3.227724e-004
1.682178e-003,4.245494e-004
1.709891e-003,5.318367e-004
1.596121e-003,6.548443e-004
1.372146e-003,7.958413e-004
9.976128e-004,9.525587e-004
3.581026e-004,1.110572e-003
-5.035987e-004,1.246870e-003
-1.218955e-003,1.351564e-003
-1.373079e-003,1.425952e-003
-8.201121e-004,1.479920e-003
2.341226e-004,1.516223e-003
1.318665e-003,1.530322e-003
1.934514e-003,1.510874e-003
1.746356e-003,1.447345e-003
7.133500e-004,1.334223e-003
-7.771648e-004,1.179288e-003
-2.113556e-003,9.971267e-004
-2.880126e-003,8.060514e-004
-2.946087e-003,6.232416e-004
-2.437524e-003,4.582590e-004
-1.642918e-003,3.143450e-004
-8.752143e-004,1.864754e-004
-3.861013e-004,6.541262e-005
-2.762210e-004,-5.111234e-005
-4.484964e-004,-1.643960e-004
-6.982390e-004,-2.703867e-004
-8.546320e-004,-3.598467e-004
-8.283774e-004,-4.298589e-004
-5.930586e-004,-4.799371e-004
-1.652063e-004,-5.081365e-004
4.363802e-004,-5.110536e-004
1.175075e-003,-4.909575e-004
1.979083e-003,-4.544929e-004
2.745655e-003,-4.224039e-004
3.355673e-003,-4.083042e-004
3.702821e-003,-4.157593e-004
3.709951e-003,-4.384484e-004
3.353728e-003,-4.625961e-004
2.675318e-003,-4.711856e-004
1.766776e-003,-4.588686e-004
7.376598e-004,-4.298589e-004
-3.159270e-004,-3.929080e-004
-1.308739e-003,-3.575778e-004
-2.195237e-003,-3.329439e-004
-2.969424e-003,-3.209511e-004
-3.628384e-003,-3.160891e-004
-4.119931e-003,-3.047445e-004
-4.315221e-003,-2.805968e-004
-4.061425e-003,-2.442942e-004
-3.260170e-003,-2.058847e-004
-1.953759e-003,-1.741199e-004
-3.168994e-004,-1.514308e-004
1.441835e-003,-1.342519e-004
3.090046e-003,-1.230693e-004
4.318838e-003,-1.209625e-004
4.686731e-003,-1.319829e-004
3.922584e-003,-1.618029e-004
2.168538e-003,-2.081536e-004
-9.681476e-005,-2.630937e-004
-2.141269e-003,-3.181959e-004
-3.387068e-003,-3.671397e-004
-3.610233e-003,-4.108973e-004
-2.902167e-003,-4.476861e-004
-1.635787e-003,-4.705373e-004
-3.525538e-004,-4.692408e-004
3.989431e-004,-4.397449e-004
3.436788e-004,-3.904771e-004
-4.143007e-004,-3.332680e-004
-1.449088e-003,-2.765452e-004
-2.246449e-003,-2.243601e-004
-2.449031e-003,-1.759026e-004
-1.983417e-003,-1.313347e-004
-1.057052e-003,-9.357345e-005
-3.198863e-005,-6.893953e-005
7.358771e-004,-6.018800e-005
1.085776e-003,-6.213279e-005
1.086263e-003,-6.278104e-005
9.240351e-004,-5.483985e-005
7.835244e-004,-3.928157e-005
7.613213e-004,-2.307504e-005
8.596951e-004,-1.448558e-005
1.024354e-003,-1.221667e-005
1.187230e-003,-1.140634e-005
1.298731e-003,-9.461557e-006
1.350105e-003,-1.844488e-006
1.365988e-003,1.565857e-005
1.385112e-003,4.158902e-005
1.429518e-003,6.379197e-005
1.481217e-003,7.772959e-005
1.492885e-003,8.599491e-005
1.414445e-003,9.426025e-005
1.246383e-003,1.081979e-004
1.048501e-003,1.331559e-004
8.900014e-004,1.654069e-004
8.028101e-004,1.921477e-004
7.618075e-004,2.036543e-004
6.841783e-004,2.031682e-004
4.618245e-004,2.034923e-004
1.452411e-005,2.143507e-004
-6.340612e-004,2.354192e-004
-1.317490e-003,2.637806e-004
-1.778404e-003,2.942489e-004
-1.804497e-003,3.175863e-004
-1.346986e-003,3.302274e-004
-5.249913e-004,3.337928e-004
4.543695e-004,3.337928e-004
1.387705e-003,3.290929e-004
2.174372e-003,3.169380e-004
2.798813e-003,2.976522e-004
3.249844e-003,2.744769e-004
3.493268e-003,2.503292e-004
3.508988e-003,2.310434e-004
3.272695e-003,2.190506e-004
2.740955e-003,2.109473e-004
1.832413e-003,2.023578e-004
4.770586e-004,1.874478e-004
-1.165635e-003,1.654069e-004
-2.668630e-003,1.394765e-004
-3.690131e-003,1.169494e-004
-4.095945e-003,1.051186e-004
-3.953975e-003,1.017153e-004
-3.430988e-003,1.020394e-004
-2.712550e-003,1.062531e-004
-1.941442e-003,1.143563e-004
-1.182814e-003,1.265113e-004
-4.530342e-004,1.381799e-004
2.333123e-004,1.433660e-004
8.379783e-004,1.385041e-004
1.314127e-003,1.269974e-004
1.619783e-003,1.140322e-004
1.730312e-003,1.044704e-004
1.657868e-003,1.030118e-004
1.449614e-003,1.041462e-004
1.171347e-003,1.004187e-004
8.874083e-004,8.615698e-005
6.423653e-004,6.492643e-005
4.653899e-004,4.855782e-005
3.684748e-004,4.693717e-005
3.477304e-004,6.330577e-005
3.822504e-004,8.550872e-005
4.376767e-004,1.023635e-004
4.825688e-004,1.184080e-004
4.934272e-004,1.385041e-004
4.644175e-004,1.684862e-004
4.031568e-004,2.125679e-004
3.198552e-004,2.713976e-004
2.250470e-004,3.402754e-004
1.316973e-004,4.059119e-004
6.006446e-005,4.493454e-004
2.538249e-005,4.572866e-004
2.797553e-005,4.273045e-004
5.844381e-005,3.718782e-004
1.018773e-004,3.083486e-004
1.457970e-004,2.509774e-004
1.820997e-004,2.055991e-004
2.039785e-004,1.668655e-004
1.895547e-004,1.304008e-004
1.279698e-004,1.012291e-004
3.380988e-005,8.534666e-005
-7.801519e-005,8.648111e-005
-1.966470e-004,1.052807e-004
-3.052307e-004,1.321835e-004
-3.613053e-004,1.462832e-004
-3.181959e-004,1.316973e-004
-1.553203e-004,8.615698e-005
8.810177e-005,2.084466e-005
3.670162e-004,-4.641245e-005
6.695923e-004,-9.730095e-005
9.721686e-004,-1.263107e-004
1.214457e-003,-1.404103e-004
1.338437e-003,-1.595340e-004
1.300675e-003,-1.922712e-004
1.069246e-003,-2.358668e-004
6.110867e-004,-2.762210e-004
-9.227693e-005,-3.029618e-004
-9.011448e-004,-3.138202e-004
-1.529958e-003,-3.094444e-004
-1.716982e-003,-2.891863e-004
-1.354765e-003,-2.523974e-004
-5.763660e-004,-2.005366e-004
2.760976e-004,-1.361966e-004
8.292268e-004,-6.197072e-005
8.614778e-004,1.808955e-005
2.696149e-004,9.685329e-005
-9.611089e-004,1.665414e-004
-2.680785e-003,2.198609e-004
-4.530607e-003,2.571359e-004
-4.968025e-003,2.825802e-004
-4.968025e-003,2.961937e-004
-4.967863e-003,2.957075e-004
-4.968025e-003,2.782044e-004
-4.968025e-003,2.406053e-004
-4.494142e-003,1.822617e-004
-3.711200e-003,1.114392e-004
-2.757442e-003,3.948217e-005
-1.501110e-003,-1.983374e-005
-2.696461e-005,-5.775702e-005
1.288520e-003,-6.845333e-005
2.099174e-003,-5.710876e-005
2.312452e-003,-3.701266e-005
1.938242e-003,-2.420950e-005
8.825463e-004,-2.583015e-005
-9.786120e-004,-3.847125e-005
-3.302145e-003,-6.278104e-005
-4.967863e-003,-1.089697e-004
-4.968025e-003,-1.827094e-004
-4.968025e-003,-2.784900e-004
-4.579551e-003,-3.702189e-004
-2.212740e-003,-4.306693e-004
2.931144e-004,-4.441207e-004
2.335303e-003,-4.139765e-004
3.688073e-003,-3.600088e-004
4.440875e-003,-3.045825e-004
4.779920e-003,-2.533698e-004
4.879916e-003,-2.060468e-004
4.824651e-003,-1.619650e-004
4.598080e-003,-1.209625e-004
4.150936e-003,-9.033214e-005
3.467661e-003,-7.574627e-005
2.612437e-003,-7.882551e-005
1.735498e-003,-9.616650e-005
9.992335e-004,-1.186936e-004
5.094717e-004,-1.366828e-004
2.853353e-004,-1.387897e-004
2.738286e-004,-1.222590e-004
3.875985e-004,-9.292519e-005
5.358884e-004,-6.310517e-005
6.556546e-004,-3.733679e-005
7.310151e-004,-1.643037e-005
7.844967e-004,-3.141010e-006
8.488367e-004,-1.034161e-006
9.324625e-004,-4.923729e-006
1.013981e-003,-9.947754e-006
1.084318e-003,-1.675450e-005
1.159516e-003,-2.339917e-005
1.244601e-003,-3.150244e-005
1.320609e-003,-3.928157e-005
1.360154e-003,-4.171255e-005
1.354643e-003,-2.907146e-005
1.317530e-003,1.072688e-006
1.272638e-003,4.450619e-005
1.237794e-003,8.307774e-005
1.211539e-003,1.017153e-004
1.198574e-003,9.879807e-005
1.219643e-003,8.307774e-005
1.289169e-003,6.136099e-005
1.399049e-003,4.256141e-005
1.526271e-003,3.413401e-005
1.661110e-003,3.737532e-005
1.817179e-003,4.807163e-005
2.023651e-003,5.925414e-005
2.268857e-003,6.816773e-005
2.452153e-003,7.594687e-005
2.417633e-003,8.226741e-005
2.020247e-003,8.810177e-005
1.191605e-003,9.604297e-005
-2.330684e-006,1.041462e-004
-1.330618e-003,1.067393e-004
-2.457459e-003,1.020394e-004
-3.059047e-003,9.085687e-005
-2.942359e-003,8.291567e-005
-2.154720e-003,8.826383e-005
-9.568952e-004,1.109530e-004
3.148312e-004,1.420695e-004
1.359505e-003,1.702689e-004
2.047474e-003,1.877719e-004
2.384896e-003,1.950649e-004
2.435947e-003,1.986303e-004
2.249733e-003,2.030061e-004
1.881519e-003,2.109473e-004
1.416552e-003,2.226160e-004
9.345693e-004,2.370398e-004
5.036373e-004,2.485465e-004
1.921477e-004,2.550291e-004
5.374392e-005,2.563256e-004
7.610893e-005,2.513016e-004
1.812893e-004,2.334744e-004
2.542187e-004,1.981441e-004
1.756170e-004,1.483901e-004
-1.746061e-004,9.101894e-005
-8.846141e-004,3.316162e-005
-1.854575e-003,-1.643037e-005
-2.762952e-003,-5.240886e-005
-3.263574e-003,-7.412562e-005
-3.196478e-003,-8.352540e-005
-2.661499e-003,-8.384953e-005
-1.947925e-003,-7.623246e-005
-1.375834e-003,-6.148453e-005
-1.161908e-003,-5.046408e-005
-1.349579e-003,-4.851930e-005
-1.838531e-003,-5.240886e-005
-2.470748e-003,-5.548810e-005
-3.094701e-003,-5.565017e-005
-3.568582e-003,-5.224680e-005
-3.753823e-003,-4.544005e-005
-3.541355e-003,-3.555407e-005
-2.898925e-003,-2.242678e-005
-1.916646e-003,-1.358292e-006
-7.849439e-004,3.024445e-005
2.710735e-004,7.140904e-005
1.050122e-003,1.153287e-004
1.450262e-003,1.543865e-004
1.485917e-003,1.812893e-004
1.281876e-003,1.918236e-004
1.012523e-003,1.840444e-004
8.224201e-004,1.675138e-004
7.684522e-004,1.503348e-004
8.097789e-004,1.300767e-004
8.447851e-004,1.065772e-004
7.815795e-004,8.340186e-005
5.919630e-004,6.119892e-005
3.255275e-004,3.867184e-005
7.059870e-005,2.441009e-005
-9.713889e-005,2.424803e-005
-1.397621e-004,3.413401e-005
-6.504996e-005,5.260946e-005
8.129502e-005,7.481241e-005
2.404432e-004,9.928427e-005
3.637749e-004,1.195424e-004
4.323286e-004,1.310491e-004
4.485351e-004,1.313732e-004
4.286011e-004,1.185700e-004
3.939191e-004,9.393611e-005
3.611819e-004,6.622294e-005
3.435167e-004,4.029249e-005
3.506476e-004,1.744128e-005
3.814400e-004,2.693341e-006
4.227667e-004,-6.706447e-006
4.527488e-004,-1.772689e-005
4.525867e-004,-4.138842e-005
4.162841e-004,-8.919769e-005
3.615060e-004,-1.621271e-004
3.174242e-004,-2.480217e-004
2.929523e-004,-3.293785e-004
2.637806e-004,-3.969597e-004
2.047888e-004,-4.473620e-004
1.164632e-004,-4.765338e-004
9.500084e-006,-4.747510e-004
-1.042698e-004,-4.345588e-004
-2.086398e-004,-3.559572e-004
-2.775176e-004,-2.429977e-004
-3.011791e-004,-1.058904e-004
-2.916172e-004,4.515445e-005
-2.695764e-004,1.978200e-004
-2.444563e-004,3.307136e-004
-1.979435e-004,4.277907e-004
-8.158062e-005,4.877549e-004
1.569795e-004,5.166026e-004
5.119027e-004,5.251920e-004
8.940530e-004,5.178991e-004
1.192902e-003,4.922927e-004
1.334709e-003,4.414042e-004
1.288683e-003,3.636129e-004
1.061143e-003,2.679943e-004
7.097846e-004,1.746447e-004
3.161277e-004,9.733949e-005
-1.011905e-004,4.612685e-005
-5.517320e-004,2.473422e-005
-1.014753e-003,2.992031e-005
-1.425750e-003,4.953022e-005
-1.693644e-003,7.335382e-005
-1.774029e-003,9.863601e-005
-1.669659e-003,1.247285e-004
-1.409219e-003,1.490383e-004
-1.036307e-003,1.662173e-004
-6.013240e-004,1.749688e-004
-1.695821e-004,1.744826e-004
1.835582e-004,1.642725e-004
4.200116e-004,1.453108e-004
5.478812e-004,1.218114e-004
5.854804e-004,9.701536e-005
5.422089e-004,7.221937e-005
4.112601e-004,5.341978e-005
1.793446e-004,4.272347e-005
-1.515928e-004,3.380988e-005
-5.434667e-004,1.630683e-005
-9.277235e-004,-1.578211e-005
-1.210365e-003,-5.694669e-005
-1.303067e-003,-1.007043e-004
-1.169525e-003,-1.376552e-004
-8.444219e-004,-1.650442e-004
-4.099249e-004,-1.840059e-004
4.774750e-005,-1.964849e-004
4.624727e-004,-2.049123e-004
7.819037e-004,-2.122052e-004
9.593654e-004,-2.261429e-004
9.572585e-004,-2.592042e-004
7.710453e-004,-3.094444e-004
4.456179e-004,-3.621157e-004
5.909207e-005,-4.053871e-004
-2.977757e-004,-4.314796e-004
-5.377944e-004,-4.374760e-004
-6.037550e-004,-4.271038e-004
-4.791268e-004,-4.074939e-004
-1.908126e-004,-3.841565e-004
1.952270e-004,-3.566054e-004
6.012007e-004,-3.271095e-004
9.658480e-004,-3.063652e-004
1.232770e-003,-3.063652e-004
1.347188e-003,-3.352128e-004
1.259349e-003,-3.930701e-004
9.232247e-004,-4.721580e-004
3.264999e-004,-5.574043e-004
-4.578962e-004,-6.364922e-004
-1.263199e-003,-7.013183e-004
-1.894281e-003,-7.424828e-004
-2.180489e-003,-7.416725e-004
-2.041112e-003,-6.834911e-004
-1.525744e-003,-5.565939e-004
-7.886714e-004,-3.570916e-004
-1.902341e-005,-9.422171e-005
6.318311e-004,2.073818e-004
1.100362e-003,5.083373e-004
1.392405e-003,7.793106e-004
1.537291e-003,1.006364e-003
1.576349e-003,1.188202e-003
1.555767e-003,1.330820e-003
1.507471e-003,1.427411e-003
1.459176e-003,1.466469e-003
1.435028e-003,1.435514e-003
1.441024e-003,1.331630e-003
1.458527e-003,1.167133e-003
1.440862e-003,9.711962e-004
1.348323e-003,7.721797e-004
1.178316e-003,5.851563e-004
9.517483e-004,4.203357e-004
6.793162e-004,2.861456e-004
3.702575e-004,1.840444e-004
4.094075e-005,1.135460e-004
-2.817312e-004,6.541262e-005
-5.522182e-004,2.700314e-005
-7.439414e-004,-5.409925e-006
-8.768350e-004,-2.955766e-005
-9.919014e-004,-4.527799e-005
-1.074230e-003,-5.565017e-005
-1.036145e-003,-6.391550e-005
-8.189777e-004,-7.039811e-005
-4.637306e-004,-7.493595e-005
-4.689864e-005,-7.412562e-005
3.793332e-004,-7.120844e-005
7.851450e-004,-6.796713e-005
1.072487e-003,-6.407756e-005
1.037481e-003,-5.386745e-005
5.334574e-004,-3.328516e-005
-3.522297e-004,-6.544382e-006
-1.329321e-003,1.906194e-005
-2.094594e-003,3.656499e-005
-2.479824e-003,4.272347e-005
-2.466372e-003,3.948217e-005
-2.133976e-003,3.251336e-005
-1.586195e-003,2.684107e-005
-9.134617e-004,2.295151e-005
-2.097743e-004,1.922400e-005
4.230909e-004,1.290346e-005
9.118802e-004,-2.330684e-006
1.279607e-003,-2.793700e-005
1.633558e-003,-6.035006e-005
2.010037e-003,-9.081834e-005
2.169672e-003,-1.193418e-004
1.698871e-003,-1.451102e-004
4.580969e-004,-1.677994e-004
-1.126091e-003,-1.830335e-004
-2.324889e-003,-1.865989e-004
-2.704447e-003,-1.708786e-004
-2.264115e-003,-1.360346e-004
-1.348283e-003,-9.584237e-005
-3.955011e-004,-6.731887e-005
2.879283e-004,-6.423963e-005
6.289139e-004,-8.709084e-005
7.128638e-004,-1.331174e-004
6.216210e-004,-1.930815e-004
3.780367e-004,-2.558008e-004
1.558884e-006,-3.105789e-004
-4.280762e-004,-3.525538e-004
-7.842957e-004,-3.831841e-004
-9.586780e-004,-4.091146e-004
-9.220512e-004,-4.339106e-004
-7.274108e-004,-4.548170e-004
-4.669719e-004,-4.648650e-004
-2.251705e-004,-4.583824e-004
-3.652646e-005,-4.431483e-004
1.012291e-004,-4.321278e-004
2.085163e-004,-4.269418e-004
3.017039e-004,-4.180282e-004
3.882468e-004,-3.904771e-004
4.704139e-004,-3.402368e-004
5.462606e-004,-2.736280e-004
6.120591e-004,-2.010227e-004
6.575995e-004,-1.256624e-004
6.853127e-004,-4.398147e-005
7.037881e-004,4.645098e-005
7.135121e-004,1.436902e-004
7.133500e-004,2.451431e-004
7.099466e-004,3.423823e-004
7.240463e-004,4.230909e-004
7.699108e-004,4.746277e-004
8.289026e-004,4.953720e-004
8.679605e-004,4.898618e-004
8.812498e-004,4.697657e-004
9.105837e-004,4.488592e-004
1.007661e-003,4.341113e-004
1.172968e-003,4.240632e-004
1.342326e-003,4.114221e-004
1.448317e-003,3.968363e-004
1.464848e-003,3.780367e-004
1.394836e-003,3.465960e-004
1.256431e-003,2.979764e-004
1.067625e-003,2.393087e-004
8.566158e-004,1.830720e-004
6.595443e-004,1.402868e-004
5.031511e-004,1.151667e-004
3.950535e-004,1.098185e-004
3.239068e-004,1.232699e-004
2.629703e-004,1.545486e-004
1.937684e-004,1.992786e-004
1.000946e-004,2.538946e-004
-3.393342e-005,3.171001e-004
-2.198223e-004,3.757677e-004
-4.574100e-004,4.151496e-004
-7.244936e-004,4.307079e-004
-9.752086e-004,4.279528e-004
-1.150725e-003,4.182289e-004
-1.216200e-003,4.085050e-004
-1.170497e-003,3.955397e-004
-1.032580e-003,3.687989e-004
-8.068228e-004,3.243930e-004
-4.954954e-004,2.618358e-004
-1.256624e-004,1.861513e-004
2.525981e-004,1.107909e-004
5.657084e-004,4.499239e-005
7.451148e-004,-4.113402e-006
7.525698e-004,-3.393342e-005
5.887217e-004,-4.592625e-005
2.738286e-004,-5.095028e-005
-1.470550e-004,-6.148453e-005
-6.052136e-004,-8.563225e-005
-1.049110e-003,-1.191798e-004
-1.448763e-003,-1.543479e-004
-1.775001e-003,-1.874093e-004
-2.006430e-003,-2.147983e-004
-2.134462e-003,-2.395943e-004
-2.155044e-003,-2.630937e-004
-2.033981e-003,-2.830278e-004
-1.706771e-003,-2.955068e-004
-1.133060e-003,-2.985860e-004
-3.423437e-004,-2.906448e-004
5.412365e-004,-2.763831e-004
1.327254e-003,-2.668213e-004
1.852995e-003,-2.656868e-004
2.033051e-003,-2.677937e-004
1.889136e-003,-2.630937e-004
1.544908e-003,-2.467252e-004
1.172157e-003,-2.222533e-004
9.324625e-004,-1.935677e-004
9.397555e-004,-1.613168e-004
1.240711e-003,-1.264727e-004
1.751866e-003,-9.665269e-005
2.270964e-003,-8.158062e-005
2.536266e-003,-7.882551e-005
2.284253e-003,-8.174268e-005
1.371660e-003,-8.093235e-005
-1.397621e-004,-7.169464e-005
-1.909839e-003,-5.273300e-005
-3.450111e-003,-2.971972e-005
-4.339206e-003,-8.975361e-006
-4.368054e-003,1.396819e-006
-3.629843e-003,-6.176923e-008
-2.455676e-003,-8.327101e-006
-1.240510e-003,-1.594417e-005
-3.194925e-004,-2.372330e-005
1.216493e-004,-2.939559e-005
1.080358e-004,-3.215070e-005
-1.726613e-004,-3.312309e-005
-4.885265e-004,-3.620233e-005
-6.642053e-004,-4.284701e-005
-6.220684e-004,-5.046408e-005
-3.629260e-004,-5.289506e-005
7.059870e-005,-4.495386e-005
6.319931e-004,-2.372330e-005
1.308292e-003,8.527692e-006
2.122025e-003,4.758544e-005
3.045316e-003,8.875003e-005
3.963748e-003,1.295905e-004
4.733406e-003,1.655690e-004
4.959005e-003,1.952270e-004
4.958843e-003,2.132162e-004
4.018365e-003,2.161334e-004
2.294625e-003,1.999268e-004
6.751947e-005,1.688103e-004
-2.234457e-003,1.323456e-004
-4.267573e-003,1.020394e-004
-4.968025e-003,8.518459e-005
-4.968187e-003,8.242948e-005
-4.968025e-003,8.810177e-005
-4.968025e-003,9.426025e-005
-4.225112e-003,9.409818e-005
-2.444169e-003,8.323980e-005
-7.992057e-004,6.298164e-005
3.879227e-004,4.337174e-005
9.695755e-004,3.543053e-005
1.004906e-003,3.721326e-005
6.674855e-004,4.320967e-005
2.054371e-004,4.936815e-005
-1.556445e-004,5.374392e-005
-3.172235e-004,5.439218e-005
-3.034480e-004,5.228533e-005
-1.870851e-004,4.871989e-005
-3.117831e-005,4.790957e-005
1.250527e-004,5.471631e-005
2.702632e-004,7.059870e-005
4.008879e-004,9.182927e-005
5.190336e-004,1.094944e-004
6.332896e-004,1.197045e-004
7.538663e-004,1.247285e-004
8.895152e-004,1.278078e-004
1.041533e-003,1.302387e-004
1.190147e-003,1.320215e-004
1.276366e-003,1.307249e-004
1.226773e-003,1.271595e-004
1.019330e-003,1.227837e-004
7.162672e-004,1.158149e-004
4.248735e-004,1.039842e-004
2.250470e-004,9.134307e-005
1.318594e-004,8.421220e-005
1.148425e-004,8.145709e-005
1.175977e-004,7.756751e-005
7.465034e-005,6.978838e-005
-6.748093e-005,5.374392e-005
-3.164132e-004,3.380988e-005
-6.400576e-004,1.727922e-005
-9.820153e-004,1.209313e-005
-1.257364e-003,1.825161e-005
-1.380210e-003,2.878586e-005
-1.298691e-003,3.543053e-005
-1.007622e-003,3.299956e-005
-5.496251e-004,1.598270e-005
-5.085794e-006,-1.675450e-005
5.222749e-004,-5.483985e-005
9.428347e-004,-8.336334e-005
1.213646e-003,-9.324932e-005
1.338113e-003,-8.498399e-005
1.352536e-003,-6.342930e-005
1.314613e-003,-3.279896e-005
1.276366e-003,1.558884e-006
1.266480e-003,3.462021e-005
1.279283e-003,6.492643e-005
1.276528e-003,9.053274e-005
1.217860e-003,1.064151e-004
1.084804e-003,1.069013e-004
8.887048e-004,9.118101e-005
6.642442e-004,6.622294e-005
4.584211e-004,4.045456e-005
3.227724e-004,1.825161e-005
2.795009e-004,4.800190e-006
3.127243e-004,2.531276e-006
3.783608e-004,1.241726e-005
4.349216e-004,3.818564e-005
4.514523e-004,7.367795e-005
3.965121e-004,1.125736e-004
2.545429e-004,1.461212e-004
5.017848e-005,1.645966e-004
-1.666649e-004,1.607070e-004
-3.677879e-004,1.368834e-004
-5.627525e-004,1.030118e-004
-7.799199e-004,6.978838e-005
-1.031283e-003,4.564065e-005
-1.283133e-003,3.575467e-005
-1.467077e-003,4.385793e-005
-1.516345e-003,6.751947e-005
-1.401602e-003,9.555677e-005
-1.129495e-003,1.114392e-004
-7.494516e-004,1.034980e-004
-3.848048e-004,6.670914e-005
-1.820611e-004,1.209313e-005
-1.656925e-004,-3.847125e-005
-1.963229e-004,-6.440169e-005
-7.363942e-005,-5.775702e-005
2.869559e-004,-2.631635e-005
7.640765e-004,1.193106e-005
1.149468e-003,3.769945e-005
1.299865e-003,3.753739e-005
1.208622e-003,1.047248e-005
1.005716e-003,-3.198863e-005
8.567779e-004,-7.752898e-005
8.595330e-004,-1.240417e-004
1.006364e-003,-1.728234e-004
1.212836e-003,-2.207947e-004
1.347026e-003,-2.600145e-004
1.251408e-003,-2.797865e-004
8.117237e-004,-2.775176e-004
6.006446e-005,-2.632558e-004
-7.786234e-004,-2.533698e-004
-1.421050e-003,-2.567732e-004
-1.689592e-003,-2.739521e-004
-1.567881e-003,-2.990722e-004
-1.178763e-003,-3.201407e-004
-7.009942e-004,-3.232200e-004
-2.815692e-004,-2.945344e-004
9.338019e-006,-2.222533e-004
1.767515e-004,-1.114006e-004
2.867939e-004,2.149292e-005
4.010499e-004,1.527658e-004
5.379952e-004,2.704253e-004
6.892022e-004,3.747953e-004
8.254993e-004,4.768966e-004
9.156077e-004,5.845079e-004
9.407278e-004,6.963331e-004
9.096113e-004,8.005412e-004
8.477023e-004,8.859496e-004
7.898449e-004,9.421864e-004
7.473837e-004,9.609860e-004
7.057329e-004,9.405658e-004
6.371792e-004,8.763878e-004
5.213025e-004,7.726659e-004
3.613439e-004,6.397723e-004
1.798307e-004,4.892135e-004
4.800190e-006,3.297412e-004
-1.370070e-004,1.714033e-004
-2.308428e-004,2.424803e-005
-2.789761e-004,-1.037836e-004
-2.896725e-004,-2.133397e-004
-2.694143e-004,-3.006929e-004
-2.253325e-004,-3.624398e-004
-1.642339e-004,-3.938804e-004
-9.017008e-005,-3.964735e-004
-1.659243e-005,-3.791325e-004
3.526847e-005,-3.520676e-004
5.649903e-005,-3.206269e-004
5.941620e-005,-2.869173e-004
6.914012e-005,-2.536940e-004
1.022014e-004,-2.250084e-004
1.571416e-004,-2.023193e-004
2.201850e-004,-1.872472e-004
2.663736e-004,-1.783336e-004
2.590807e-004,-1.716889e-004
1.701068e-004,-1.643960e-004
-6.544382e-006,-1.541859e-004
-2.548284e-004,-1.418689e-004
-5.386047e-004,-1.269589e-004
-8.037435e-004,-1.076731e-004
-9.938461e-004,-8.530812e-005
-1.071961e-003,-6.537409e-005
-1.027069e-003,-5.159854e-005
-8.875313e-004,-4.527799e-005
-7.082871e-004,-4.997788e-005
-5.468701e-004,-6.667061e-005
-4.400690e-004,-9.081834e-005
-3.955011e-004,-1.109144e-004
-3.912874e-004,-1.157764e-004
-3.987424e-004,-1.055663e-004
-3.878840e-004,-8.660465e-005
-3.316474e-004,-6.359137e-005
-2.248463e-004,-4.236081e-005
-8.854943e-005,-2.307504e-005
2.392390e-005,-4.923729e-006
5.779555e-005,9.013888e-006
-1.545797e-005,1.241726e-005
-1.705545e-004,3.341602e-006
-3.486642e-004,-1.529591e-005
-4.899852e-004,-3.960571e-005
-5.596732e-004,-6.423963e-005
-5.640490e-004,-8.190475e-005
-5.358497e-004,-8.806324e-005
-4.985746e-004,-8.271508e-005
-4.619479e-004,-6.845333e-005
-4.399070e-004,-4.868136e-005
-4.608134e-004,-2.631635e-005
-5.437908e-004,-5.247859e-006
-6.773326e-004,1.306552e-005
-8.136295e-004,1.954813e-005
-8.867210e-004,3.827798e-006
-8.486356e-004,-3.814712e-005
-6.958080e-004,-1.015147e-004
-4.706994e-004,-1.710407e-004
-2.323013e-004,-2.324634e-004
-2.664048e-005,-2.804347e-004
1.276457e-004,-3.165753e-004
2.310434e-004,-3.470436e-004
3.002453e-004,-3.792946e-004
3.559958e-004,-4.206212e-004
4.109359e-004,-4.694028e-004
4.697657e-004,-5.133225e-004
5.290816e-004,-5.371462e-004
5.796460e-004,-5.337428e-004
6.175693e-004,-4.993849e-004
6.379896e-004,-4.369898e-004
6.400964e-004,-3.553089e-004
6.264829e-004,-2.619593e-004
5.929354e-004,-1.640719e-004
5.221128e-004,-6.375343e-005
3.914881e-004,4.434413e-005
2.002510e-004,1.626518e-004
-2.437157e-005,2.974902e-004
-2.535319e-004,4.498316e-004
-4.702132e-004,6.208106e-004
-6.583710e-004,7.989205e-004
-7.912645e-004,9.708721e-004
-8.398841e-004,1.124186e-003
-7.873749e-004,1.243628e-003
-6.428128e-004,1.321258e-003
-4.365036e-004,1.352374e-003
-1.969711e-004,1.341192e-003
6.346784e-005,1.288845e-003
3.378445e-004,1.202788e-003
6.089798e-004,1.096149e-003
8.870841e-004,9.833510e-004
1.206839e-003,8.762258e-004
1.592556e-003,7.736383e-004
2.043260e-003,6.691061e-004
2.533511e-003,5.579292e-004
2.996696e-003,4.446455e-004
3.318722e-003,3.370341e-004
3.342546e-003,2.352571e-004
2.909180e-003,1.363972e-004
1.987672e-003,4.272347e-005
7.415494e-004,-4.479180e-005
-5.588629e-004,-1.232314e-004
-1.646321e-003,-1.908126e-004
-2.396036e-003,-2.528836e-004
-2.777700e-003,-3.134960e-004
-2.818379e-003,-3.750809e-004
-2.585815e-003,-4.322899e-004
-2.197667e-003,-4.792888e-004
-1.816652e-003,-5.092709e-004
-1.574850e-003,-5.227224e-004
-1.494142e-003,-5.245051e-004
-1.493656e-003,-5.157535e-004
-1.465942e-003,-5.027883e-004
-1.338235e-003,-4.894990e-004
-1.108102e-003,-4.713476e-004
-8.225431e-004,-4.436345e-004
-5.421702e-004,-4.039285e-004
-3.164132e-004,-3.624398e-004
-1.632615e-004,-3.337542e-004
-6.569822e-005,-3.225717e-004
1.614476e-005,-3.238682e-004
1.227837e-004,-3.240303e-004
2.712356e-004,-3.120375e-004
4.475627e-004,-2.788141e-004
6.195141e-004,-2.318151e-004
7.554870e-004,-1.793060e-004
8.365197e-004,-1.357104e-004
8.603433e-004,-1.023250e-004
8.392748e-004,-7.671866e-005
7.922758e-004,-5.856734e-005
7.459251e-004,-5.289506e-005
7.280979e-004,-7.493595e-005
7.556491e-004,-1.368449e-004
8.389507e-004,-2.381357e-004
9.874026e-004,-3.611433e-004
1.197278e-003,-4.844749e-004
1.419956e-003,-5.922483e-004
1.568084e-003,-6.750637e-004
1.578780e-003,-7.261143e-004
1.460148e-003,-7.387553e-004
1.266317e-003,-7.168766e-004
1.049474e-003,-6.672845e-004
8.653674e-004,-5.946793e-004
7.729901e-004,-5.019780e-004
8.037825e-004,-3.937184e-004
9.366762e-004,-2.758969e-004
1.105386e-003,-1.504584e-004
1.246059e-003,-2.064406e-005
1.317692e-003,1.098185e-004
1.316558e-003,2.352571e-004
1.252704e-003,3.480546e-004
1.137799e-003,4.443214e-004
9.912923e-004,5.196818e-004
8.324681e-004,5.789977e-004
6.634339e-004,6.381517e-004
4.798137e-004,7.075156e-004
2.832284e-004,7.844967e-004
7.546067e-005,8.575883e-004
-1.271210e-004,9.152836e-004
-2.904828e-004,9.548275e-004
-3.916115e-004,9.780029e-004
-4.326140e-004,9.851338e-004
-4.138144e-004,9.749237e-004
-3.627639e-004,9.459139e-004
-4.107352e-004,8.997252e-004
-8.231914e-004,8.421920e-004
-1.721195e-003,7.755831e-004
-2.855168e-003,7.029778e-004
-3.788505e-003,6.294001e-004
-4.231757e-003,5.623050e-004
-4.172279e-003,5.073649e-004
-3.808602e-003,4.670106e-004
-3.382044e-003,4.336251e-004
-3.041867e-003,3.971604e-004
-2.810276e-003,3.443271e-004
-2.629248e-003,2.676701e-004
-2.434445e-003,1.665414e-004
-2.183244e-003,5.115087e-005
-1.865758e-003,-6.294311e-005
-1.491549e-003,-1.592099e-004
-1.072934e-003,-2.293842e-004
-6.290372e-004,-2.780037e-004
-1.812508e-004,-3.165753e-004
2.585945e-004,-3.575778e-004
6.840162e-004,-3.995527e-004
1.099228e-003,-4.340726e-004
1.499530e-003,-4.551411e-004
1.858181e-003,-4.591928e-004
2.133207e-003,-4.506033e-004
2.288953e-003,-4.369898e-004
2.315694e-003,-4.220798e-004
2.267236e-003,-4.105731e-004
2.238712e-003,-4.016596e-004
2.294949e-003,-3.922598e-004
2.428330e-003,-3.804290e-004
2.585372e-003,-3.660052e-004
2.700601e-003,-3.501228e-004
2.720049e-003,-3.339163e-004
2.612275e-003,-3.151167e-004
2.388623e-003,-2.930758e-004
2.078591e-003,-2.690902e-004
1.700978e-003,-2.464010e-004
1.275069e-003,-2.211188e-004
8.397610e-004,-1.935677e-004
4.394594e-004,-1.661787e-004
1.166253e-004,-1.399241e-004
-9.956987e-005,-1.173971e-004
-2.190120e-004,-9.697682e-005
-2.997205e-004,-7.898758e-005
-4.288865e-004,-6.650855e-005
-6.483229e-004,-5.970180e-005
-9.554367e-004,-5.646050e-005
-1.305660e-003,-5.516398e-005
-1.570961e-003,-5.613637e-005
-1.551837e-003,-5.402952e-005
-1.041331e-003,-4.851930e-005
1.954813e-005,-4.738484e-005
1.385274e-003,-4.754691e-005
2.618271e-003,-4.268495e-005
3.297491e-003,-3.198863e-005
3.082753e-003,-2.064406e-005
1.788169e-003,-1.448558e-005
-5.170500e-004,-1.545797e-005
-3.213009e-003,-1.724069e-005
-4.968025e-003,-1.626830e-005
-4.968025e-003,-1.010982e-005
-4.968025e-003,7.485573e-007
-4.968025e-003,1.501031e-005
-3.868566e-003,3.235129e-005
-2.094432e-003,5.179913e-005
-6.468644e-004,7.189524e-005
2.885766e-004,8.712937e-005
7.415494e-004,9.426025e-005
8.771982e-004,9.263960e-005
8.694190e-004,8.388807e-005
8.506195e-004,7.011251e-005
8.801153e-004,5.601283e-005
9.642273e-004,4.904402e-005
1.072649e-003,4.969228e-005
1.166323e-003,5.309565e-005
1.225477e-003,5.358185e-005
1.258862e-003,4.920609e-005
1.282362e-003,4.207521e-005
1.312344e-003,4.175108e-005
1.359019e-003,5.617490e-005
1.441510e-003,8.664317e-005
1.592394e-003,1.278078e-004
1.815882e-003,1.654069e-004
2.044557e-003,1.908512e-004
2.156221e-003,1.961993e-004
2.042937e-003,1.840444e-004
1.676668e-003,1.624898e-004
1.134234e-003,1.430419e-004
5.708945e-004,1.346145e-004
1.440143e-004,1.372075e-004
-6.148453e-005,1.485521e-004
-4.738484e-005,1.645966e-004
1.166253e-004,1.819376e-004
3.188828e-004,1.978200e-004
4.525867e-004,2.104611e-004
4.287631e-004,2.193747e-004
1.801549e-004,2.229401e-004
-3.008549e-004,2.177540e-004
-9.120032e-004,2.028440e-004
-1.474694e-003,1.772377e-004
-1.822972e-003,1.401247e-004
-1.877750e-003,8.534666e-005
-1.664310e-003,1.760335e-005
-1.277947e-003,-4.884343e-005
-8.230293e-004,-9.989400e-005
-3.912874e-004,-1.277692e-004
-4.365734e-005,-1.285796e-004
1.979821e-004,-1.020008e-004
3.431926e-004,-5.435365e-005
4.200116e-004,4.800190e-006
4.495075e-004,6.541262e-005
4.423766e-004,1.205148e-004
4.049395e-004,1.680000e-004
3.491890e-004,2.125679e-004
3.004074e-004,2.574600e-004
2.957075e-004,3.034866e-004
3.657197e-004,3.446512e-004
5.020167e-004,3.773884e-004
6.415550e-004,3.981328e-004
6.921194e-004,4.020223e-004
5.896941e-004,3.903536e-004
3.448132e-004,3.683128e-004
2.570661e-005,3.423823e-004
-2.788141e-004,3.172621e-004
-5.037607e-004,2.965178e-004
-6.287130e-004,2.833905e-004
-6.684190e-004,2.754493e-004
-6.671225e-004,2.652392e-004
-6.585330e-004,2.433604e-004
-6.463781e-004,2.075439e-004
-6.238511e-004,1.590864e-004
-5.847933e-004,1.000946e-004
-5.316359e-004,3.494434e-005
-4.763717e-004,-2.356124e-005
-4.253211e-004,-6.553616e-005
-3.765395e-004,-9.389758e-005
-3.262992e-004,-1.203142e-004
-2.796244e-004,-1.480274e-004
-2.441321e-004,-1.744440e-004
-2.157707e-004,-1.945401e-004
-1.912988e-004,-2.039399e-004
-1.700683e-004,-2.019951e-004
-1.399241e-004,-1.891920e-004
-9.162867e-005,-1.705545e-004
-3.215070e-005,-1.477033e-004
2.862379e-005,-1.269589e-004
8.275361e-005,-1.130213e-004
1.399627e-004,-1.057284e-004
2.036543e-004,-1.096179e-004
2.757734e-004,-1.319829e-004
3.558337e-004,-1.729855e-004
4.401077e-004,-2.204706e-004
5.302160e-004,-2.629317e-004
6.507927e-004,-2.972895e-004
8.243648e-004,-3.194925e-004
1.031323e-003,-3.230579e-004
1.219481e-003,-2.997205e-004
1.344919e-003,-2.444563e-004
1.413635e-003,-1.606685e-004
1.461445e-003,-6.051213e-005
1.520436e-003,3.802358e-005
1.595149e-003,1.231079e-004
1.669213e-003,1.926339e-004
1.723829e-003,2.521119e-004
1.749111e-003,3.102933e-004
1.736794e-003,3.722023e-004
1.682016e-003,4.345975e-004
1.580725e-003,4.841895e-004
1.424656e-003,5.044476e-004
1.174426e-003,4.916445e-004
7.608352e-004,4.488592e-004
1.148425e-004,3.858158e-004
-7.966127e-004,3.112657e-004
-1.885368e-003,2.333123e-004
-3.011561e-003,1.566554e-004
-4.146996e-003,8.242948e-005
-4.968025e-003,1.322759e-005
-4.968025e-003,-4.981582e-005
-4.967702e-003,-1.007043e-004
-4.968025e-003,-1.326312e-004
-4.967863e-003,-1.449481e-004
-4.728815e-003,-1.436516e-004
-2.997624e-003,-1.365208e-004
-1.455408e-003,-1.285796e-004
-3.807532e-004,-1.232314e-004
1.827479e-004,-1.243659e-004
4.039671e-004,-1.371690e-004
5.336195e-004,-1.590478e-004
7.556491e-004,-1.801163e-004
1.112841e-003,-1.914609e-004
1.527081e-003,-1.930815e-004
1.880060e-003,-1.898402e-004
2.086532e-003,-1.919471e-004
2.115866e-003,-2.024813e-004
1.993020e-003,-2.190120e-004
1.773745e-003,-2.348944e-004
1.511685e-003,-2.470493e-004
1.236822e-003,-2.511009e-004
9.538552e-004,-2.472113e-004
6.666752e-004,-2.363530e-004
3.895433e-004,-2.212809e-004
1.454729e-004,-2.006986e-004
-2.858526e-005,-1.755785e-004
-9.746302e-005,-1.517549e-004
-5.678463e-005,-1.349001e-004
6.217131e-005,-1.209625e-004
2.049509e-004,-1.026491e-004
3.211517e-004,-7.850138e-005
3.843572e-004,-5.354332e-005
4.143393e-004,-3.215070e-005
4.491834e-004,-1.302699e-005
5.232472e-004,7.069104e-006
6.595443e-004,2.781346e-005
8.540228e-004,4.904402e-005
1.062115e-003,6.476436e-005
1.195819e-003,6.930219e-005
1.156923e-003,6.460230e-005
8.835187e-004,5.666109e-005
3.981328e-004,5.017848e-005
-1.801163e-004,4.385793e-005
-6.817084e-004,3.267542e-005
-9.684018e-004,1.533444e-005
-9.878497e-004,-5.247859e-006
-7.755441e-004,-2.064406e-005
-4.298589e-004,-2.388537e-005
-6.634648e-005,-1.302699e-005
2.161334e-004,9.013888e-006
3.738230e-004,3.170303e-005
4.140152e-004,4.288554e-005
3.687989e-004,4.320967e-005
2.769079e-004,4.045456e-005
1.730240e-004,4.239934e-005
8.259154e-005,5.082674e-005
2.505835e-005,6.233338e-005
2.855406e-006,7.124698e-005
3.665733e-006,7.756751e-005
1.517237e-005,7.999850e-005
4.126489e-005,7.708132e-005
1.159770e-004,7.157111e-005
3.034866e-004,6.800567e-005
6.230795e-004,7.173317e-005
1.002151e-003,8.615698e-005
1.358371e-003,1.111150e-004
1.691254e-003,1.410971e-004
2.066598e-003,1.655690e-004
2.552148e-003,1.814514e-004
3.082915e-003,1.876099e-004
3.432331e-003,1.816135e-004
3.371070e-003,1.633001e-004
2.840788e-003,1.381799e-004
2.013765e-003,1.112771e-004
1.172968e-003,8.729143e-005
5.566327e-004,7.416414e-005
2.488706e-004,7.643306e-005
1.777239e-004,8.712937e-005
2.026820e-004,1.022014e-004
1.978200e-004,1.101426e-004
8.972242e-005,1.041462e-004
-1.386276e-004,8.372600e-005
-4.538446e-004,5.666109e-005
-7.885094e-004,3.494434e-005
-1.079903e-003,2.619281e-005
-1.285888e-003,2.992031e-005
-1.387665e-003,4.158902e-005
-1.380534e-003,5.439218e-005
-1.267250e-003,6.184718e-005
-1.072124e-003,5.925414e-005
-8.423151e-004,4.839576e-005
-6.298475e-004,3.883391e-005
-4.739407e-004,3.429608e-005
-3.823738e-004,3.462021e-005
-3.418575e-004,3.769945e-005
-3.266234e-004,4.110282e-005
-3.099306e-004,4.207521e-005
-2.765452e-004,4.175108e-005
-2.207947e-004,4.402000e-005
-1.483515e-004,4.904402e-005
-7.526008e-005,5.374392e-005
-1.772689e-005,4.936815e-005
1.436204e-005,3.121684e-005
2.246531e-005,6.582909e-006
1.257933e-005,-1.448558e-005
-1.578211e-005,-2.793700e-005
-7.428768e-005,-3.134038e-005
-1.645580e-004,-2.647842e-005
-2.744383e-004,-2.096819e-005
-3.807532e-004,-1.432352e-005
-4.625961e-004,-2.978945e-006
-5.159156e-004,1.403791e-005
-5.467080e-004,3.413401e-005
-5.658317e-004,4.807163e-005
-5.860899e-004,4.239934e-005
-6.150996e-004,1.776542e-005
-6.447575e-004,-1.448558e-005
-6.543194e-004,-3.425755e-005
-6.251476e-004,-2.890940e-005
-5.556216e-004,3.503668e-006
-4.588686e-004,5.666109e-005
-3.538503e-004,1.137081e-004
-2.564491e-004,1.620035e-004
-1.780095e-004,1.965235e-004
-1.230693e-004,2.158092e-004
-7.704279e-005,2.263435e-004
-2.404744e-005,2.380122e-004
3.202716e-005,2.590807e-004
7.708132e-005,2.955454e-004
9.814982e-005,3.391410e-004
8.696730e-005,3.757677e-004
3.380988e-005,3.911640e-004
-5.856734e-005,3.835469e-004
-1.797922e-004,3.569682e-004
-3.121995e-004,3.124002e-004
-4.403932e-004,2.454672e-004
-5.536768e-004,1.475797e-004
-6.455678e-004,1.889987e-005
-7.116904e-004,-1.280934e-004
-7.575550e-004,-2.721694e-004
-7.810544e-004,-3.977700e-004
-7.799199e-004,-4.961436e-004
-7.598238e-004,-5.593491e-004
-7.311383e-004,-5.766901e-004
-7.031010e-004,-5.465459e-004
-6.771705e-004,-4.687546e-004
-6.369783e-004,-3.444505e-004
-5.668041e-004,-1.755785e-004
-4.737786e-004,2.100672e-005
-3.741085e-004,2.133783e-004
-2.643903e-004,3.765781e-004
-1.271210e-004,5.013684e-004
3.170303e-005,5.921251e-004
1.697827e-004,6.635959e-004
2.406053e-004,7.230739e-004
2.480603e-004,7.640765e-004
2.457913e-004,7.796347e-004
2.816078e-004,7.645627e-004
3.623164e-004,7.224256e-004
4.610142e-004,6.631097e-004
5.553362e-004,6.015248e-004
6.306966e-004,5.459364e-004
6.830437e-004,4.990995e-004
7.052467e-004,4.595555e-004
6.969814e-004,4.258459e-004
6.741302e-004,3.935950e-004
6.759128e-004,3.517821e-004
7.208050e-004,2.871180e-004
7.948689e-004,1.973338e-004
8.857876e-004,8.858796e-005
9.822166e-004,-2.096819e-005
1.055794e-003,-1.144799e-004
1.079456e-003,-1.809267e-004
1.049798e-003,-2.214430e-004
9.728168e-004,-2.493182e-004
8.630984e-004,-2.831898e-004
7.230739e-004,-3.353749e-004
5.512845e-004,-4.031182e-004
3.506476e-004,-4.715097e-004
1.271595e-004,-5.285567e-004
-1.107524e-004,-5.622663e-004
-3.559572e-004,-5.661558e-004
-5.933827e-004,-5.379565e-004
-8.133054e-004,-4.875541e-004
-1.031931e-003,-4.272659e-004
-1.260768e-003,-3.723257e-004
-1.435312e-003,-3.329439e-004
-1.449574e-003,-3.112271e-004
-1.229489e-003,-3.005308e-004
-7.990436e-004,-2.972895e-004
-2.864312e-004,-2.982619e-004
1.081979e-004,-2.961551e-004
2.138645e-004,-2.848105e-004
-2.485776e-005,-2.632558e-004
-5.308256e-004,-2.313289e-004
-1.109723e-003,-1.921091e-004
-1.525744e-003,-1.481895e-004
-1.616987e-003,-1.073490e-004
-1.349255e-003,-8.498399e-005
-8.126571e-004,-8.757703e-005
-1.818990e-004,-1.159385e-004
3.430306e-004,-1.569410e-004
6.162728e-004,-1.963229e-004
6.007145e-004,-2.216050e-004
3.803056e-004,-2.305186e-004
1.143563e-004,-2.292221e-004
-5.662256e-005,-2.274394e-004
-6.910160e-005,-2.284118e-004
4.839576e-005,-2.303566e-004
2.114335e-004,-2.339220e-004
3.435167e-004,-2.417011e-004
4.157979e-004,-2.528836e-004
4.357320e-004,-2.666592e-004
4.281149e-004,-2.852967e-004
4.183909e-004,-3.112271e-004
4.277907e-004,-3.459091e-004
4.674967e-004,-3.844807e-004
5.375090e-004,-4.168937e-004
6.255105e-004,-4.301830e-004
7.141603e-004,-4.112214e-004
7.966516e-004,-3.556330e-004
8.775223e-004,-2.755728e-004
9.562862e-004,-1.901644e-004
1.023381e-003,-1.154523e-004
1.069246e-003,-6.407756e-005
1.079618e-003,-4.219875e-005
1.052067e-003,-4.219875e-005
1.000692e-003,-5.159854e-005
9.564482e-004,-5.159854e-005
9.475346e-004,-3.247483e-005
9.875648e-004,7.555300e-006
1.076701e-003,6.346784e-005
1.211377e-003,1.242423e-004
1.376684e-003,1.773998e-004
1.544422e-003,2.198609e-004
1.695792e-003,2.594048e-004
1.811020e-003,3.064038e-004
1.851699e-003,3.683128e-004
1.754784e-003,4.444834e-004
1.446048e-003,5.240575e-004
8.464057e-004,5.911527e-004
-7.914964e-005,6.365310e-004
-1.243913e-003,6.618132e-004
-2.435418e-003,6.731577e-004
-3.356762e-003,6.786680e-004
-3.729189e-003,6.823955e-004
-3.458215e-003,6.823955e-004
-2.691319e-003,6.738060e-004
-1.708230e-003,6.575995e-004
-7.698719e-004,6.331276e-004
-4.851930e-005,6.034696e-004
3.900295e-004,5.759185e-004
5.778632e-004,5.535535e-004
5.893700e-004,5.315125e-004
5.151440e-004,5.026649e-004
4.360561e-004,4.582590e-004
3.979707e-004,3.940811e-004
4.085050e-004,3.158036e-004
4.521005e-004,2.409294e-004
5.094717e-004,1.866375e-004
5.592257e-004,1.615174e-004
5.820770e-004,1.611932e-004
5.632774e-004,1.749688e-004
4.976409e-004,1.936063e-004
3.888950e-004,2.111093e-004
2.431983e-004,2.250470e-004
5.957827e-005,2.258573e-004
-1.720131e-004,2.059233e-004
-4.590307e-004,1.660552e-004
-7.992057e-004,1.154908e-004
-1.173901e-003,6.476436e-005
-1.548758e-003,2.068259e-005
-1.883909e-003,-1.837515e-005
-2.138352e-003,-5.467778e-005
-2.264277e-003,-8.271508e-005
-2.211281e-003,-1.000561e-004
-1.947439e-003,-1.092938e-004
-1.470480e-003,-1.161005e-004
-8.278912e-004,-1.235555e-004
-1.279313e-004,-1.360346e-004
4.892135e-004,-1.549962e-004
9.138250e-004,-1.773612e-004
1.103442e-003,-1.995642e-004
1.082535e-003,-2.198223e-004
9.235489e-004,-2.332737e-004
7.195084e-004,-2.344082e-004
5.375090e-004,-2.212809e-004
3.940811e-004,-1.995642e-004
2.736665e-004,-1.796301e-004
1.660552e-004,-1.697441e-004
9.960840e-005,-1.708786e-004
1.222975e-004,-1.791439e-004
2.668598e-004,-1.854645e-004
5.295678e-004,-1.838438e-004
8.828705e-004,-1.778474e-004
1.299865e-003,-1.760647e-004
1.773907e-003,-1.833576e-004
2.298190e-003,-1.990780e-004
2.786658e-003,-2.194982e-004
3.089560e-003,-2.423494e-004
3.036726e-003,-2.559629e-004
2.465443e-003,-2.545043e-004
1.310561e-003,-2.376495e-004
-3.115513e-004,-2.079916e-004
-2.003351e-003,-1.702303e-004
-3.305062e-003,-1.298761e-004
-3.888500e-003,-9.584237e-005
-3.669549e-003,-7.266703e-005
-2.836044e-003,-7.493595e-005
-1.726706e-003,-1.251762e-004
-6.752257e-004,-2.306807e-004
9.199134e-005,-3.724878e-004
5.083373e-004,-5.188328e-004
6.375034e-004,-6.356818e-004
5.940698e-004,-7.035872e-004
4.909962e-004,-7.165524e-004
4.102877e-004,-6.812222e-004
4.025085e-004,-6.065101e-004
4.710622e-004,-5.005194e-004
5.770529e-004,-3.622777e-004
6.866092e-004,-1.922712e-004
7.958413e-004,7.231170e-006
9.002115e-004,2.273159e-004
9.839993e-004,4.542074e-004
1.019654e-003,6.712130e-004
9.912923e-004,8.642329e-004
9.146353e-004,1.023868e-003
8.238786e-004,1.144768e-003
7.407391e-004,1.223856e-003
6.614891e-004,1.261294e-003
5.653843e-004,1.259187e-003
4.430249e-004,1.223694e-003
2.983005e-004,1.159030e-003
1.219734e-004,1.066491e-003
-1.125351e-004,9.452656e-004
-4.147868e-004,8.018378e-004
-7.452379e-004,6.488480e-004
-1.023180e-003,4.994237e-004
-1.148294e-003,3.652335e-004
-1.034038e-003,2.538946e-004
-6.676087e-004,1.628139e-004
-1.298761e-004,8.972242e-005
4.122324e-004,3.543053e-005
8.011895e-004,-4.113402e-006
9.789753e-004,-3.425755e-005
9.556379e-004,-6.148453e-005
7.579180e-004,-8.644258e-005
4.039671e-004,-1.099420e-004
-1.209625e-004,-1.316588e-004
-8.465288e-004,-1.561307e-004
-1.796880e-003,-1.853024e-004
-2.914646e-003,-2.203085e-004
-3.969371e-003,-2.579077e-004
-4.631737e-003,-2.937241e-004
-4.689433e-003,-3.254889e-004
-4.151371e-003,-3.501228e-004
-3.226136e-003,-3.664914e-004
-2.190699e-003,-3.713534e-004
-1.278109e-003,-3.627639e-004
-6.308199e-004,-3.438023e-004
-2.891863e-004,-3.194925e-004
-2.023193e-004,-2.961551e-004
-2.713591e-004,-2.786520e-004
-4.108973e-004,-2.737901e-004
-5.488148e-004,-2.841623e-004
-6.176926e-004,-3.065272e-004
-5.818761e-004,-3.301888e-004
-4.360174e-004,-3.433161e-004
-1.912988e-004,-3.371576e-004
1.342904e-004,-3.089582e-004
5.190336e-004,-2.640661e-004
9.417002e-004,-2.083157e-004
1.372308e-003,-1.528894e-004
1.764021e-003,-1.058904e-004
2.070812e-003,-7.104637e-005
2.260267e-003,-4.965375e-005
2.320393e-003,-3.717472e-005
2.267398e-003,-2.988179e-005
2.144714e-003,-2.550602e-005
1.990913e-003,-2.339917e-005
1.828199e-003,-2.404744e-005
1.680557e-003,-2.550602e-005
1.567598e-003,-2.145439e-005
1.493047e-003,-1.010982e-005
1.438107e-003,7.393235e-006
1.376360e-003,2.408596e-005
1.290952e-003,3.462021e-005
1.191119e-003,3.932010e-005
1.087073e-003,3.867184e-005
9.849716e-004,3.267542e-005
8.872462e-004,2.846173e-005
7.828761e-004,2.797553e-005
6.517651e-004,3.154097e-005
4.929410e-004,3.559260e-005
3.196932e-004,3.948217e-005
1.660552e-004,4.385793e-005
7.562274e-005,5.098881e-005
9.733949e-005,6.055066e-005
2.441707e-004,6.930219e-005
4.715484e-004,7.529860e-005
6.976296e-004,7.951231e-005
8.373301e-004,8.161915e-005
8.467298e-004,8.291567e-005
7.344185e-004,8.437427e-005
5.448019e-004,8.518459e-005
3.256896e-004,7.853991e-005
1.205148e-004,6.217131e-005
-3.928157e-005,3.899597e-005
-1.533756e-004,1.792748e-005
-2.464010e-004,7.555300e-006
-3.441264e-004,5.124321e-006
-4.403932e-004,4.962256e-006
-4.708614e-004,7.393235e-006
-3.820497e-004,1.598270e-005
-2.075054e-004,3.056858e-005
-6.229485e-005,4.483032e-005
-5.694669e-005,5.714729e-005
-2.036158e-004,6.995045e-005
-4.230522e-004,8.307774e-005
-6.183409e-004,9.426025e-005
-7.314624e-004,1.009049e-004
-7.523688e-004,1.022014e-004
-7.018045e-004,1.005808e-004
-6.063480e-004,1.004187e-004
-4.786406e-004,1.047945e-004
-3.233821e-004,1.195424e-004
-1.361966e-004,1.428798e-004
9.766362e-005,1.667035e-004
3.833848e-004,1.848548e-004
7.031398e-004,1.880961e-004
1.001826e-003,1.756170e-004
1.182530e-003,1.506590e-004
1.142013e-003,1.222975e-004
8.101031e-004,9.944633e-005
1.864754e-004,8.858796e-005
-6.009999e-004,9.361198e-005
-1.311818e-003,1.083599e-004
-1.707582e-003,1.227837e-004
-1.684406e-003,1.316973e-004
-1.314087e-003,1.331559e-004
-7.979092e-004,1.231079e-004
-3.651949e-004,1.043083e-004
-1.665028e-004,8.923622e-005
-2.345703e-004,8.567078e-005
-5.240189e-004,9.555677e-005
-9.330716e-004,1.106288e-004
-1.335156e-003,1.261871e-004
-1.611477e-003,1.370455e-004
-1.654100e-003,1.383420e-004
-1.402251e-003,1.282940e-004
-8.972552e-004,1.072255e-004
-2.784900e-004,7.853991e-005
2.647530e-004,4.547859e-005
5.781874e-004,9.106226e-007
6.209727e-004,-6.521203e-005
4.760862e-004,-1.514308e-004
2.824181e-004,-2.365150e-004
1.456350e-004,-2.955068e-004
8.761556e-005,-3.136581e-004
8.259154e-005,-2.885380e-004
8.486046e-005,-2.267911e-004
4.936815e-005,-1.473791e-004
-3.215070e-005,-6.910160e-005
-1.255003e-004,-3.141010e-006
-1.733096e-004,4.645098e-005
-1.266348e-004,8.631904e-005
3.413401e-005,1.271595e-004
2.796630e-004,1.730240e-004
5.702462e-004,2.218057e-004
8.992390e-004,2.696149e-004
1.278959e-003,3.107795e-004
1.695792e-003,3.358997e-004
2.099984e-003,3.380065e-004
2.412609e-003,3.175863e-004
2.536590e-003,2.770700e-004
2.398833e-003,2.205091e-004
1.974221e-003,1.522796e-004
1.299379e-003,8.145709e-005
4.712243e-004,2.003433e-005
-3.917736e-004,-2.437157e-005
-1.181031e-003,-5.143647e-005
-1.801256e-003,-6.569822e-005
-2.165741e-003,-7.428768e-005
-2.245153e-003,-8.093235e-005
-2.096053e-003,-8.498399e-005
-1.808386e-003,-8.449779e-005
-1.419268e-003,-7.979790e-005
-9.308027e-004,-7.315322e-005
-3.955011e-004,-6.423963e-005
6.573675e-005,-5.516398e-005
3.067279e-004,-4.819516e-005
2.423880e-004,-4.122636e-005
-9.632856e-005,-3.458168e-005
-6.078066e-004,-2.631635e-005
-1.197076e-003,-1.367526e-005
-1.798825e-003,5.610517e-006
-2.340771e-003,2.813760e-005
-2.715143e-003,4.596478e-005
-2.803793e-003,5.423011e-005
-2.529092e-003,5.244739e-005
-1.905302e-003,4.158902e-005
-1.049272e-003,1.679302e-005
-1.462447e-004,-4.009190e-005
6.131936e-004,-1.467309e-004
1.107817e-003,-2.937241e-004
1.314937e-003,-4.478482e-004
1.263400e-003,-5.749073e-004
1.028405e-003,-6.562641e-004
7.157809e-004,-6.919185e-004
4.266563e-004,-6.817084e-004
2.318537e-004,-6.309819e-004
1.568175e-004,-5.554595e-004
1.869616e-004,-4.732924e-004
2.937627e-004,-3.912874e-004
4.490213e-004,-3.089582e-004
6.349103e-004,-2.373254e-004
8.399231e-004,-1.814128e-004
1.042667e-003,-1.430034e-004
1.208946e-003,-1.123730e-004
1.302620e-003,-7.866345e-005
1.308455e-003,-3.895744e-005
1.239739e-003,5.772582e-006
1.125807e-003,5.439218e-005
9.997197e-004,1.098185e-004
8.809257e-004,1.848548e-004
7.802830e-004,2.911697e-004
6.968193e-004,4.276287e-004
6.308586e-004,5.822390e-004
5.851563e-004,7.383081e-004
5.507984e-004,8.835187e-004
5.031511e-004,1.007337e-003
4.068843e-004,1.105386e-003
2.423880e-004,1.177019e-003
1.047248e-005,1.221749e-003
-2.606628e-004,1.243628e-003
-5.248292e-004,1.249625e-003
-7.426449e-004,1.243953e-003
-8.930415e-004,1.228232e-003
-9.560849e-004,1.203274e-003
-9.105446e-004,1.159516e-003
-7.450759e-004,1.083994e-003
-4.791268e-004,9.705479e-004
-1.679614e-004,8.276061e-004
1.195424e-004,6.723474e-004
3.316860e-004,5.182232e-004
4.678209e-004,3.754436e-004
5.744599e-004,2.508154e-004
7.020054e-004,1.527658e-004
8.726603e-004,8.145709e-005
1.085939e-003,2.684107e-005
1.335357e-003,-2.404744e-005
1.625779e-003,-8.190475e-005
1.995289e-003,-1.514308e-004
2.460581e-003,-2.295462e-004
2.944349e-003,-3.097686e-004
3.283230e-003,-3.859392e-004
3.278854e-003,-4.531963e-004
2.787954e-003,-5.110536e-004
1.827065e-003,-5.679386e-004
5.580913e-004,-6.345474e-004
-7.199558e-004,-7.129869e-004
-1.668524e-003,-7.902921e-004
-2.103832e-003,-8.492839e-004
-2.024744e-003,-8.816969e-004
-1.606939e-003,-8.912588e-004
-1.121716e-003,-8.867210e-004
-8.298360e-004,-8.757006e-004
-8.522010e-004,-8.620870e-004
-1.112802e-003,-8.483115e-004
-1.431098e-003,-8.350221e-004
-1.662366e-003,-8.205983e-004
-1.752636e-003,-7.958023e-004
-1.712120e-003,-7.523688e-004
-1.578092e-003,-6.896496e-004
-1.393661e-003,-6.149375e-004
-1.190917e-003,-5.373082e-004
-9.888221e-004,-4.653512e-004
-7.878611e-004,-4.065215e-004
-5.865761e-004,-3.653569e-004
-3.856151e-004,-3.376438e-004
-1.877334e-004,-3.141443e-004
1.720949e-006,-2.865932e-004
1.730240e-004,-2.483458e-004
3.200173e-004,-1.994021e-004
4.459420e-004,-1.444620e-004
5.590637e-004,-8.449779e-005
6.652166e-004,-2.339917e-005
7.613213e-004,3.672705e-005
8.290648e-004,1.000946e-004
8.493229e-004,1.730240e-004
8.204752e-004,2.545429e-004
7.509491e-004,3.352514e-004
6.274553e-004,4.099635e-004
4.208219e-004,4.768966e-004
1.059289e-004,5.332953e-004
-2.945344e-004,5.757564e-004
-6.992114e-004,6.015248e-004
-1.008432e-003,6.024972e-004
-1.155101e-003,5.820770e-004
-1.132412e-003,5.449640e-004
-9.800706e-004,4.961823e-004
-7.697098e-004,4.392974e-004
-5.646973e-004,3.710678e-004
-3.862634e-004,2.901973e-004
-2.345703e-004,1.968476e-004
-1.182074e-004,9.231547e-005
-4.041603e-005,-1.399939e-005
1.014835e-005,-1.151281e-004
5.325772e-005,-2.057227e-004
1.128978e-004,-2.827036e-004
2.137024e-004,-3.428299e-004
3.647473e-004,-3.788084e-004
5.399400e-004,-3.854531e-004
6.877437e-004,-3.553089e-004
7.515974e-004,-2.865932e-004
7.013571e-004,-1.833576e-004
5.702462e-004,-5.759496e-005
4.478869e-004,7.562274e-005
4.151496e-004,2.002510e-004
4.882411e-004,3.101313e-004
6.266450e-004,4.029947e-004
7.720176e-004,4.775448e-004
8.579124e-004,5.289195e-004
8.148029e-004,5.551741e-004
5.947181e-004,5.548500e-004
2.036543e-004,5.247058e-004
-3.039342e-004,4.608521e-004
-8.440978e-004,3.668542e-004
-1.311332e-003,2.477361e-004
-1.609370e-003,1.109530e-004
-1.705799e-003,-2.615428e-005
-1.635787e-003,-1.442999e-004
-1.416512e-003,-2.345703e-004
-1.012322e-003,-2.940482e-004
-3.911253e-004,-3.238682e-004
3.841952e-004,-3.269475e-004
1.062115e-003,-3.045825e-004
1.290465e-003,-2.582318e-004
8.011895e-004,-1.948643e-004
-4.433104e-004,-1.256624e-004
-2.159420e-003,-5.743289e-005
-3.866297e-003,5.448451e-006
-4.968025e-003,6.865393e-005
-4.967863e-003,1.354248e-004
-4.353630e-003,2.025199e-004
-2.745773e-003,2.636185e-004
-8.969310e-004,3.128864e-004
6.981159e-004,3.462718e-004
1.712160e-003,3.585888e-004
2.141473e-003,3.514579e-004
2.132721e-003,3.358997e-004
1.886057e-003,3.226103e-004
1.582994e-003,3.206655e-004
1.334547e-003,3.318480e-004
1.178640e-003,3.401134e-004
1.107169e-003,3.320101e-004
1.094690e-003,3.034866e-004
1.112193e-003,2.587565e-004
1.139582e-003,2.002510e-004
1.168268e-003,1.304008e-004
1.193064e-003,4.807163e-005
1.206839e-003,-5.370539e-005
1.204571e-003,-1.781715e-004
1.190957e-003,-3.193304e-004
1.171347e-003,-4.702132e-004
1.149630e-003,-6.197994e-004
1.124024e-003,-7.476689e-004
1.089666e-003,-8.376152e-004
1.052553e-003,-8.755384e-004
1.029216e-003,-8.528493e-004
1.038939e-003,-7.646858e-004
1.077673e-003,-6.136409e-004
1.114948e-003,-4.091146e-004
1.099228e-003,-1.681235e-004
9.820545e-004,8.583285e-005
7.507871e-004,3.331445e-004
4.362181e-004,5.576051e-004
1.109530e-004,7.515974e-004
-1.355484e-004,9.086389e-004
-2.400805e-004,1.030512e-003
-1.917850e-004,1.117541e-003
-3.960571e-005,1.160813e-003
1.389903e-004,1.146227e-003
2.803112e-004,1.065356e-003
3.619922e-004,9.272764e-004
3.937570e-004,7.545147e-004
4.031568e-004,5.712186e-004
4.112601e-004,3.957018e-004
4.281149e-004,2.352571e-004
4.503178e-004,8.956035e-005
4.634451e-004,-3.636440e-005
4.493454e-004,-1.378173e-004
3.992672e-004,-2.073433e-004
3.208276e-004,-2.473734e-004
2.261814e-004,-2.617972e-004
1.248906e-004,-2.556388e-004
1.355172e-005,-2.340841e-004
-1.120489e-004,-2.045882e-004
-2.509389e-004,-1.710407e-004
-3.995527e-004,-1.357104e-004
-5.544871e-004,-1.003802e-004
-7.071526e-004,-6.456376e-005
-8.447461e-004,-3.182657e-005
-9.577055e-004,-3.303075e-006
-1.041655e-003,1.987226e-005
-1.090923e-003,3.980630e-005
-1.094327e-003,5.763348e-005
-1.044248e-003,7.221937e-005
-9.444162e-004,8.259154e-005
-8.040676e-004,9.118101e-005
-6.343853e-004,9.733949e-005
-4.496309e-004,8.599491e-005
-2.681178e-004,3.964423e-005
-1.039456e-004,-4.511592e-005
3.462021e-005,-1.527273e-004
1.453108e-004,-2.559629e-004
2.393087e-004,-3.313232e-004
3.248792e-004,-3.614674e-004
3.969983e-004,-3.488263e-004
4.427008e-004,-3.092824e-004
4.576108e-004,-2.582318e-004
4.470765e-004,-2.066950e-004
4.297355e-004,-1.582375e-004
4.166082e-004,-1.123730e-004
4.042912e-004,-6.893953e-005
3.825745e-004,-2.664048e-005
3.482167e-004,1.598270e-005
3.111037e-004,5.374392e-005
2.840387e-004,7.740545e-005
2.675081e-004,8.340186e-005
2.521119e-004,7.610893e-005
2.276400e-004,6.525056e-005
1.867996e-004,5.909207e-005
1.271595e-004,5.990240e-005
5.585077e-005,6.119892e-005
-1.010982e-005,5.763348e-005
-6.359137e-005,5.179913e-005
-1.123730e-004,5.017848e-005
-1.728234e-004,5.196120e-005
-2.535319e-004,5.147500e-005
-3.386162e-004,4.288554e-005
-3.912874e-004,2.635488e-005
-3.784843e-004,2.693341e-006
-2.861070e-004,-2.761287e-005
-1.318209e-004,-5.532604e-005
5.244739e-005,-7.153257e-005
2.402811e-004,-7.914964e-005
4.192013e-004,-8.498399e-005
5.961767e-004,-8.903562e-005
7.846588e-004,-9.260106e-005
9.925888e-004,-9.665269e-005
1.220129e-003,-1.028112e-004
1.436486e-003,-1.083214e-004
1.553660e-003,-1.107524e-004
1.456421e-003,-1.037836e-004
1.056605e-003,-8.579432e-005
3.380065e-004,-6.634648e-005
-6.100755e-004,-5.856734e-005
-1.603050e-003,-6.602235e-005
-2.428935e-003,-8.077029e-005
-2.903626e-003,-9.486997e-005
-2.908812e-003,-1.042698e-004
-2.424884e-003,-1.028112e-004
-1.548434e-003,-9.600443e-005
-4.483344e-004,-9.195280e-005
6.517651e-004,-9.114247e-005
1.525136e-003,-8.984595e-005
2.042126e-003,-8.465986e-005
2.170969e-003,-7.801519e-005
1.970493e-003,-7.477388e-005
1.538264e-003,-7.558420e-005
9.429968e-004,-7.882551e-005
2.240746e-004,-8.611845e-005
-5.706937e-004,-9.503204e-005
-1.385234e-003,-9.827335e-005
-2.155369e-003,-8.644258e-005
-2.787424e-003,-5.646050e-005
-3.179623e-003,-1.173047e-005
-3.283994e-003,3.543053e-005
-3.126628e-003,7.286762e-005
-2.783535e-003,9.798775e-005
-2.341258e-003,1.150046e-004
-1.868189e-003,1.244044e-004
-1.404033e-003,1.250527e-004
-9.708328e-004,1.242423e-004
-5.925724e-004,1.316973e-004
-2.953447e-004,1.446626e-004
-9.632856e-005,1.581140e-004
-1.196226e-006,1.657311e-004
-1.010982e-005,1.629759e-004
-6.991192e-005,1.511452e-004
-7.137050e-005,1.313732e-004
8.210535e-005,1.070634e-004
4.136910e-004,7.724339e-005
8.754155e-004,4.013043e-005
1.361288e-003,-6.058186e-006
1.746680e-003,-5.791909e-005
1.932570e-003,-1.058904e-004
1.866771e-003,-1.374931e-004
1.538426e-003,-1.491618e-004
9.697375e-004,-1.442999e-004
2.008992e-004,-1.287416e-004
-7.110421e-004,-1.078352e-004
-1.674682e-003,-8.465986e-005
-2.561343e-003,-6.051213e-005
-3.202313e-003,-3.085418e-005
-3.460484e-003,6.582909e-006
-3.289666e-003,4.823369e-005
-2.724543e-003,8.729143e-005
-1.861706e-003,1.184080e-004
-8.531734e-004,1.393144e-004
1.111150e-004,1.513072e-004
8.666639e-004,1.584381e-004
1.322068e-003,1.670276e-004
1.470034e-003,1.782101e-004
1.398887e-003,1.897167e-004
1.259835e-003,1.999268e-004
1.189336e-003,2.062474e-004
1.246221e-003,2.051129e-004
1.403101e-003,1.950649e-004
1.582832e-003,1.799928e-004
1.714105e-003,1.641104e-004
1.749111e-003,1.469315e-004
1.660299e-003,1.308870e-004
1.464038e-003,1.222975e-004
1.213808e-003,1.235941e-004
9.663342e-004,1.336421e-004
7.715315e-004,1.540623e-004
6.712130e-004,1.848548e-004
6.723474e-004,2.188885e-004
7.415494e-004,2.449810e-004
8.329543e-004,2.572980e-004
9.138250e-004,2.585945e-004
9.848096e-004,2.569738e-004
1.076053e-003,2.558394e-004
1.221749e-003,2.621599e-004
1.423521e-003,2.773941e-004
1.641175e-003,2.950592e-004
1.806969e-003,3.026763e-004
1.858830e-003,2.929523e-004
1.774069e-003,2.628082e-004
1.580563e-003,2.175920e-004
1.334547e-003,1.621656e-004
1.091935e-003,1.034980e-004
8.895152e-004,5.196120e-005
7.436562e-004,1.711715e-005
6.569512e-004,-1.520357e-006
6.190279e-004,-7.030578e-006
6.065489e-004,-3.627206e-006
5.929354e-004,2.855406e-006
5.569568e-004,8.203561e-006
4.869446e-004,1.193106e-005
3.840331e-004,1.371378e-005
2.631323e-004,1.630683e-005
1.427178e-004,1.727922e-005
4.385793e-005,1.128280e-005
-2.177852e-005,-1.196226e-006
-5.273300e-005,-1.480971e-005
-5.338126e-005,-2.826113e-005
-3.490581e-005,-3.976777e-005
-1.464765e-005,-4.495386e-005
-1.196226e-006,-4.527799e-005
1.396819e-006,-4.333321e-005
-6.868512e-006,-4.009190e-005
-1.950961e-005,-3.587821e-005
-3.101624e-005,-3.279896e-005
-4.511592e-005,-3.458168e-005
-6.958779e-005,-4.057810e-005
-1.052422e-004,-5.240886e-005
-1.473791e-004,-6.877746e-005
-1.919471e-004,-9.616650e-005
-2.374874e-004,-1.446240e-004
-2.896725e-004,-2.037778e-004
-3.501228e-004,-2.559629e-004
-4.091146e-004,-2.843243e-004
-4.493068e-004,-2.788141e-004
-4.587065e-004,-2.394322e-004
-4.379622e-004,-1.823852e-004
-4.021458e-004,-1.242038e-004
-3.695707e-004,-7.509801e-005
-3.530400e-004,-3.879538e-005
-3.567675e-004,-1.999580e-005
-3.778360e-004,-2.275091e-005
-4.108973e-004,-4.381940e-005
-4.554653e-004,-7.720485e-005
-5.117019e-004,-1.143178e-004
-5.753936e-004,-1.455964e-004
-6.355197e-004,-1.632615e-004
-6.815463e-004,-1.689338e-004
-7.073147e-004,-1.627753e-004
-7.126628e-004,-1.535376e-004
-6.972667e-004,-1.480274e-004
-6.609640e-004,-1.481895e-004
-6.173684e-004,-1.499722e-004
-5.809038e-004,-1.489998e-004
-5.546492e-004,-1.420310e-004
-5.322842e-004,-1.238797e-004
-4.971160e-004,-8.239095e-005
-4.386105e-004,-1.318906e-005
-3.611433e-004,7.772959e-005
-2.762210e-004,1.808031e-004
-1.955125e-004,2.842008e-004
-1.308485e-004,3.816021e-004
-8.287714e-005,4.683071e-004
-2.599222e-005,5.383193e-004
6.719534e-005,5.890458e-004
1.856651e-004,6.183797e-004
2.699391e-004,6.298863e-004
2.397949e-004,6.268070e-004
5.698522e-005,6.141660e-004
-2.266291e-004,5.979594e-004
-5.013297e-004,5.747841e-004
-6.684190e-004,5.386435e-004
-7.034251e-004,4.892135e-004
-6.570744e-004,4.333010e-004
-6.142893e-004,3.741471e-004
-6.249855e-004,3.122381e-004
-6.805739e-004,2.475740e-004
-7.387553e-004,1.829100e-004
-7.473448e-004,1.201907e-004
-6.734430e-004,6.362990e-005
-5.335807e-004,1.112074e-005
-3.788084e-004,-3.944364e-005
-2.559629e-004,-8.871149e-005
-1.780095e-004,-1.383035e-004
-1.295519e-004,-1.865989e-004
-8.838737e-005,-2.272773e-004
-3.360929e-005,-2.566112e-004
5.471631e-005,-2.736280e-004
1.903650e-004,-2.809209e-004
3.621542e-004,-2.818933e-004
5.140096e-004,-2.820554e-004
5.637636e-004,-2.877277e-004
4.509661e-004,-2.917793e-004
2.010613e-004,-2.857829e-004
-9.033214e-005,-2.686040e-004
-3.180339e-004,-2.464010e-004
-4.248349e-004,-2.248463e-004
-4.146248e-004,-2.063709e-004
-3.321336e-004,-1.922712e-004
-2.259808e-004,-1.830335e-004
-1.279313e-004,-1.759026e-004
-5.953974e-005,-1.708786e-004
-2.064406e-005,-1.686097e-004
1.047248e-005,-1.674752e-004
7.027457e-005,-1.643960e-004
2.008992e-004,-1.536997e-004
4.119083e-004,-1.321450e-004
6.704027e-004,-1.057284e-004
9.198214e-004,-8.611845e-005
1.098093e-003,-8.336334e-005
1.155789e-003,-9.260106e-005
1.082211e-003,-9.940780e-005
8.964840e-004,-9.519411e-005
6.115729e-004,-8.044616e-005
2.227780e-004,-6.423963e-005
-2.825416e-004,-5.289506e-005
-8.833176e-004,-5.095028e-005
-1.489280e-003,-6.132245e-005
-1.961538e-003,-7.558420e-005
-2.187620e-003,-8.449779e-005
-2.145159e-003,-7.963584e-005
-1.881154e-003,-6.083626e-005
-1.469346e-003,-3.085418e-005
-9.867153e-004,-2.238345e-007
-5.238568e-004,2.084466e-005
-1.835197e-004,2.635488e-005
-3.474375e-005,1.906194e-005
-6.342930e-005,4.476060e-006
-1.702303e-004,-1.075808e-005
-2.371633e-004,-2.194059e-005
-2.112329e-004,-2.907146e-005
-9.956987e-005,-3.425755e-005
7.384001e-005,-5.192267e-005
2.898731e-004,-9.486997e-005
5.253541e-004,-1.637477e-004
7.493285e-004,-2.442942e-004
9.209558e-004,-3.183580e-004
1.005878e-003,-3.765395e-004
1.009768e-003,-4.191626e-004
9.791374e-004,-4.598410e-004
9.658480e-004,-5.175362e-004
9.963163e-004,-6.008378e-004
1.063736e-003,-6.972667e-004
1.137475e-003,-7.797579e-004
1.188688e-003,-8.210845e-004
1.204571e-003,-8.029332e-004
1.187716e-003,-7.254660e-004
1.149468e-003,-6.014861e-004
1.104738e-003,-4.494688e-004
1.065842e-003,-2.835140e-004
1.037319e-003,-1.075111e-004
1.025650e-003,7.967437e-005
1.037643e-003,2.832284e-004
1.075728e-003,5.076890e-004
1.117541e-003,7.465734e-004
1.118514e-003,9.841614e-004
1.046719e-003,1.198250e-003
9.126905e-004,1.374902e-003
7.608352e-004,1.512495e-003
6.355586e-004,1.614597e-003
5.548500e-004,1.682016e-003
5.094717e-004,1.708919e-003
4.788413e-004,1.698222e-003
4.543695e-004,1.661110e-003
4.493454e-004,1.606655e-003
4.945617e-004,1.533402e-003
6.118970e-004,1.436000e-003
7.998929e-004,1.317854e-003
1.048015e-003,1.183826e-003
1.338275e-003,1.039588e-003
1.669051e-003,8.921082e-004
2.043423e-003,7.413873e-004
2.401589e-003,5.888838e-004
2.625078e-003,4.405939e-004
2.556038e-003,3.034866e-004
2.035644e-003,1.765894e-004
1.006040e-003,5.406805e-005
-4.201350e-004,-6.748093e-005
-1.881154e-003,-1.843300e-004
-2.980445e-003,-2.841623e-004
-3.483659e-003,-3.603329e-004
-3.423046e-003,-4.151110e-004
-3.075739e-003,-4.480102e-004
-2.782562e-003,-4.582204e-004
-2.758577e-003,-4.509274e-004
-3.005727e-003,-4.343967e-004
-3.359678e-003,-4.190006e-004
-3.607640e-003,-4.071698e-004
-3.614770e-003,-4.011734e-004
-3.376534e-003,-4.061974e-004
-2.995355e-003,-4.295348e-004
-2.615148e-003,-4.676201e-004
-2.347092e-003,-5.091088e-004
-2.214361e-003,-5.444391e-004
-2.155855e-003,-5.684248e-004
-2.071419e-003,-5.768521e-004
-1.880830e-003,-5.677765e-004
-1.562695e-003,-5.504355e-004
-1.142946e-003,-5.324463e-004
-6.593434e-004,-5.160776e-004
-1.363587e-004,-4.985746e-004
3.955397e-004,-4.763717e-004
8.804395e-004,-4.499550e-004
1.260159e-003,-4.284004e-004
1.504554e-003,-4.170558e-004
1.623348e-003,-4.126800e-004
1.650251e-003,-4.091146e-004
1.633072e-003,-4.053871e-004
1.629020e-003,-4.016596e-004
1.680071e-003,-3.942045e-004
1.807617e-003,-3.805911e-004
1.990265e-003,-3.582261e-004
2.145200e-003,-3.279199e-004
2.157679e-003,-2.934000e-004
1.946021e-003,-2.598524e-004
1.519626e-003,-2.323013e-004
9.917784e-004,-2.102605e-004
5.200059e-004,-1.938919e-004
2.239125e-004,-1.853024e-004
1.378558e-004,-1.817370e-004
2.145127e-004,-1.749302e-004
3.662059e-004,-1.626133e-004
5.196818e-004,-1.415448e-004
6.297242e-004,-1.107524e-004
6.689440e-004,-6.812920e-005
6.222692e-004,-2.307504e-005
5.013684e-004,1.355172e-005
3.503235e-004,3.299956e-005
2.248849e-004,3.332369e-005
1.720516e-004,1.938607e-005
2.156472e-004,6.258778e-006
3.568061e-004,1.047248e-005
5.730013e-004,3.980630e-005
8.146409e-004,8.486046e-005
1.012523e-003,1.282940e-004
1.096635e-003,1.490383e-004
1.024516e-003,1.402868e-004
8.183684e-004,1.049566e-004
5.480432e-004,5.406805e-005
2.901973e-004,3.341602e-006
9.588090e-005,-3.652646e-005
-1.140634e-005,-5.759496e-005
-3.587821e-005,-5.791909e-005
5.448451e-006,-4.203669e-005
7.983643e-005,-2.161646e-005
1.511452e-004,-2.492749e-006
1.947408e-004,9.986280e-006
2.093266e-004,1.663096e-005
2.073818e-004,2.214118e-005
2.062474e-004,2.797553e-005
2.171058e-004,2.894792e-005
2.346088e-004,1.614476e-005
2.407673e-004,-1.173047e-005
2.237504e-004,-4.090223e-005
1.840444e-004,-5.532604e-005
1.239182e-004,-5.354332e-005
4.191315e-005,-5.176060e-005
-5.678463e-005,-6.180866e-005
-1.540238e-004,-8.303921e-005
-2.313289e-004,-1.050801e-004
-2.791382e-004,-1.110765e-004
-2.964792e-004,-8.595638e-005
-2.901587e-004,-2.550602e-005
-2.648765e-004,6.573675e-005
-2.248463e-004,1.778859e-004
-1.737958e-004,3.049452e-004
-1.263107e-004,4.407560e-004
-9.697682e-005,5.747841e-004
-8.903562e-005,6.960090e-004
-1.034594e-004,8.000550e-004
-1.306864e-004,8.853014e-004
-1.575892e-004,9.553137e-004
-1.749302e-004,1.011388e-003
-1.831956e-004,1.049636e-003
-1.934057e-004,1.065032e-003
-2.149604e-004,1.048664e-003
-2.559629e-004,9.959922e-004
-3.196545e-004,9.083147e-004
-4.061974e-004,7.945448e-004
-4.997090e-004,6.631097e-004
-5.736108e-004,5.294057e-004
-6.091031e-004,4.036430e-004
-6.050515e-004,2.918179e-004
-5.690730e-004,1.978200e-004
-5.107295e-004,1.232699e-004
-4.352071e-004,6.751947e-005
-3.517435e-004,2.376183e-005
-2.699005e-004,-1.448558e-005
-1.950263e-004,-5.451571e-005
-1.297140e-004,-9.405964e-005
-7.736692e-005,-1.272830e-004
-3.344722e-005,-1.520790e-004
2.019640e-005,-1.694200e-004
9.766362e-005,-1.809267e-004
1.978200e-004,-1.900023e-004
3.018659e-004,-1.982676e-004
3.898674e-004,-2.062088e-004
4.593935e-004,-2.066950e-004
5.334574e-004,-1.995642e-004
6.383137e-004,-1.872472e-004
7.629420e-004,-1.710407e-004
8.668260e-004,-1.540238e-004
9.188490e-004,-1.399241e-004
9.122043e-004,-1.353863e-004
8.538608e-004,-1.405724e-004
7.572697e-004,-1.428413e-004
6.310208e-004,-1.331174e-004
4.707380e-004,-1.091317e-004
2.709115e-004,-7.688072e-005
2.538249e-005,-4.981582e-005
-2.583938e-004,-3.733679e-005
-5.645352e-004,-4.138842e-005
-8.808866e-004,-5.662256e-005
-1.183949e-003,-7.607040e-005
-1.419754e-003,-9.908367e-005
-1.520072e-003,-1.178833e-004
-1.439039e-003,-1.272830e-004
-1.210365e-003,-1.282554e-004
-9.528436e-004,-1.306864e-004
-7.987195e-004,-1.384655e-004
-8.000160e-004,-1.493239e-004
-8.957966e-004,-1.634236e-004
-9.773155e-004,-1.770371e-004
-9.684018e-004,-1.844921e-004
-8.562527e-004,-1.844921e-004
-6.784671e-004,-1.815749e-004
-4.815578e-004,-1.799543e-004
-2.976136e-004,-1.791439e-004
-1.460826e-004,-1.806025e-004
-3.895744e-005,-1.851403e-004
8.527692e-006,-1.908126e-004
-3.627206e-006,-1.942160e-004
-4.787104e-005,-1.890299e-004
-8.158062e-005,-1.814128e-004
-7.493595e-005,-1.833576e-004
-3.895744e-005,-1.981056e-004
-1.173047e-005,-2.191741e-004
-3.441962e-005,-2.366771e-004
-1.298761e-004,-2.429977e-004
-2.741142e-004,-2.381357e-004
-4.066836e-004,-2.280877e-004
-4.742648e-004,-2.151224e-004
-4.578962e-004,-1.924333e-004
-3.757291e-004,-1.569410e-004
-2.614731e-004,-1.126972e-004
-1.501342e-004,-6.440169e-005
-7.234290e-005,-1.173047e-005
-4.381940e-005,4.628891e-005
-7.218083e-005,1.065772e-004
-1.512687e-004,1.639483e-004
-2.582318e-004,2.127300e-004
-3.575778e-004,2.537325e-004
-4.121938e-004,2.884145e-004
-3.750809e-004,3.124002e-004
-2.196603e-004,3.282826e-004
2.992031e-005,3.381686e-004
3.062417e-004,3.491890e-004
5.519328e-004,3.640990e-004
7.452769e-004,3.781987e-004
8.887048e-004,3.853296e-004
9.867544e-004,3.812780e-004
1.036022e-003,3.624784e-004
1.033429e-003,3.318480e-004
9.839993e-004,2.957075e-004
9.011839e-004,2.574600e-004
8.029722e-004,2.190506e-004
7.036260e-004,1.808031e-004
6.036317e-004,1.407730e-004
4.990995e-004,9.766362e-005
3.910019e-004,5.698522e-005
2.918179e-004,3.008238e-005
2.171058e-004,2.197911e-005
1.803169e-004,3.251336e-005
1.902029e-004,5.649903e-005
2.438465e-004,8.210535e-005
3.264999e-004,9.993253e-005
4.125566e-004,1.059289e-004
4.822447e-004,1.065772e-004
5.310263e-004,1.088461e-004
5.707324e-004,1.140322e-004
6.209727e-004,1.114392e-004
6.948745e-004,9.831188e-005
7.960033e-004,7.724339e-005
9.151215e-004,5.747142e-005
1.033916e-003,4.256141e-005
1.131641e-003,3.170303e-005
1.184312e-003,1.971020e-005
1.170699e-003,2.693341e-006
1.093069e-003,-2.015787e-005
9.771925e-004,-4.171255e-005
8.470540e-004,-5.889147e-005
6.948745e-004,-6.780506e-005
5.162784e-004,-6.748093e-005
3.261757e-004,-5.824321e-005
1.543865e-004,-3.814712e-005
2.230324e-005,-1.124428e-005
-5.078821e-005,1.095867e-005
-6.456376e-005,1.776542e-005
-3.668853e-005,8.527692e-006
9.106226e-007,-6.706447e-006
1.873781e-005,-2.420950e-005
5.448451e-006,-4.219875e-005
-1.886135e-005,-5.451571e-005
-2.031993e-005,-6.132245e-005
3.040651e-005,-6.537409e-005
1.493625e-004,-7.023605e-005
3.221241e-004,-7.850138e-005
5.078511e-004,-9.535618e-005
6.423653e-004,-1.216107e-004
6.409067e-004,-1.489998e-004
4.491834e-004,-1.671511e-004
7.967437e-005,-1.707165e-004
-4.188385e-004,-1.603444e-004
-9.893083e-004,-1.417068e-004
-1.555727e-003,-1.250141e-004
-2.021178e-003,-1.186936e-004
-2.300579e-003,-1.240417e-004
-2.355357e-003,-1.306864e-004
-2.207068e-003,-1.290658e-004
-1.916484e-003,-1.198280e-004
-1.550054e-003,-1.029732e-004
-1.165311e-003,-8.482193e-005
-8.099020e-004,-7.056018e-005
-5.154294e-004,-6.035006e-005
-3.036101e-004,-5.127441e-005
-1.906506e-004,-4.252288e-005
-1.776853e-004,-3.620233e-005
-2.353806e-004,-4.884343e-005
-3.076617e-004,-9.843541e-005
-3.386162e-004,-1.896782e-004
-3.073376e-004,-3.039342e-004
-2.301945e-004,-4.073319e-004
-1.305243e-004,-4.708614e-004
-2.534396e-005,-4.828543e-004
8.405013e-005,-4.486585e-004
2.026820e-004,-3.851289e-004
3.271481e-004,-3.050687e-004
4.521005e-004,-2.143121e-004
5.862907e-004,-1.201522e-004
7.436562e-004,-2.793700e-005
9.138250e-004,5.649903e-005
1.062925e-003,1.307249e-004
1.153844e-003,1.961993e-004
1.161299e-003,2.470879e-004
1.094690e-003,2.767458e-004
9.930750e-004,2.827422e-004
8.958357e-004,2.749631e-004
8.207993e-004,2.720459e-004
7.705591e-004,2.936006e-004
7.321496e-004,3.469201e-004
6.854748e-004,4.271425e-004
6.086557e-004,5.185474e-004
4.851619e-004,6.065489e-004
3.122381e-004,6.806127e-004
1.052807e-004,7.316634e-004
-1.224211e-004,7.548388e-004
-3.656811e-004,7.506250e-004
-6.257959e-004,7.203188e-004
-8.943380e-004,6.708889e-004
-1.149915e-003,5.994180e-004
-1.348445e-003,5.029890e-004
-1.435636e-003,3.840331e-004
-1.380696e-003,2.537325e-004
-1.193673e-003,1.235941e-004
-9.238339e-004,6.744974e-006
-6.411921e-004,-8.644258e-005
-4.058733e-004,-1.535376e-004
-2.352185e-004,-1.925954e-004
-1.094559e-004,-1.927574e-004
9.986280e-006,-1.556445e-004
1.495245e-004,-9.649063e-005
3.096451e-004,-3.020592e-005
4.785172e-004,3.462021e-005
6.397723e-004,9.863601e-005
7.796347e-004,1.621656e-004
8.891911e-004,2.177540e-004
9.472104e-004,2.566497e-004
9.240351e-004,2.762596e-004
7.963275e-004,2.825802e-004
5.713807e-004,2.845250e-004
3.018659e-004,2.824181e-004
7.367795e-005,2.731804e-004
-4.949169e-005,2.517877e-004
-6.067420e-005,2.211574e-004
9.013888e-006,1.846927e-004
1.098185e-004,1.467694e-004
1.958752e-004,1.190562e-004
2.297469e-004,1.104668e-004
1.949028e-004,1.216493e-004
9.166720e-005,1.440143e-004
-6.796713e-005,1.633001e-004
-2.580697e-004,1.688103e-004
-4.447689e-004,1.560071e-004
-5.984068e-004,1.291043e-004
-7.126628e-004,9.263960e-005
-8.053642e-004,4.564065e-005
-9.042240e-004,-1.724069e-005
-1.003084e-003,-9.243900e-005
-1.067910e-003,-1.726613e-004
-1.069368e-003,-2.483458e-004
-1.015401e-003,-3.104168e-004
-9.414990e-004,-3.538503e-004
-8.876934e-004,-3.823738e-004
-8.698661e-004,-3.937184e-004
-8.539837e-004,-3.914495e-004
-7.731132e-004,-3.754050e-004
-5.731246e-004,-3.473677e-004
-2.553146e-004,-3.164132e-004
1.240803e-004,-2.950206e-004
4.896997e-004,-2.956689e-004
7.760693e-004,-3.342404e-004
9.527207e-004,-4.267797e-004
1.024516e-003,-5.778245e-004
1.015602e-003,-7.724649e-004
9.540172e-004,-9.718052e-004
8.674742e-004,-1.130305e-003
7.780141e-004,-1.215875e-003
7.016812e-004,-1.219927e-003
6.600305e-004,-1.149753e-003
6.631097e-004,-1.019452e-003
7.008709e-004,-8.415048e-004
7.425218e-004,-6.327647e-004
7.462493e-004,-4.181902e-004
6.916332e-004,-2.159328e-004
5.893700e-004,-2.777494e-005
4.553419e-004,1.563313e-004
2.900352e-004,3.399513e-004
9.199134e-005,5.093096e-004
-1.457585e-004,6.490100e-004
-4.108973e-004,7.439803e-004
-6.619364e-004,7.862794e-004
-8.463667e-004,7.731521e-004
-9.320992e-004,7.091363e-004
-9.196202e-004,6.063868e-004
-8.304843e-004,4.867825e-004
-6.885151e-004,3.775505e-004
-5.175362e-004,2.971661e-004
-3.262992e-004,2.532463e-004
-1.094559e-004,2.440086e-004
1.415833e-004,2.647530e-004
4.357320e-004,3.143450e-004
7.785003e-004,3.848434e-004
1.159030e-003,4.694415e-004
1.556577e-003,5.577672e-004
1.950235e-003,6.386379e-004
2.309373e-003,7.050846e-004
2.578565e-003,7.515974e-004
2.695091e-003,7.794727e-004
2.580347e-003,7.951930e-004
2.180530e-003,8.036204e-004
1.528702e-003,8.029722e-004
7.374978e-004,7.875760e-004
-3.636440e-005,7.470596e-004
-6.530228e-004,6.785059e-004
-1.046517e-003,5.875872e-004
-1.217658e-003,4.840274e-004
-1.240996e-003,3.773884e-004
-1.229813e-003,2.795009e-004
-1.253637e-003,2.051129e-004
-1.299987e-003,1.551968e-004
-1.305984e-003,1.177597e-004
-1.206476e-003,7.789165e-005
-9.849325e-004,3.154097e-005
-6.862462e-004,-1.610623e-005
-3.873978e-004,-6.261898e-005
-1.527273e-004,-1.029732e-004
-1.529591e-005,-1.352242e-004
3.267542e-005,-1.616409e-004
2.619281e-005,-1.859507e-004
1.468617e-005,-2.086398e-004
2.748933e-005,-2.332737e-004
7.691926e-005,-2.580697e-004
1.375317e-004,-2.818933e-004
1.498487e-004,-3.047445e-004
8.178122e-005,-3.261371e-004
-3.360929e-005,-3.452609e-004
-1.324691e-004,-3.626019e-004
-1.648822e-004,-3.755671e-004
-1.293899e-004,-3.831841e-004
-5.224680e-005,-3.822118e-004
2.424803e-005,-3.765395e-004
6.946425e-005,-3.718396e-004
8.323980e-005,-3.703810e-004
8.340186e-005,-3.700568e-004
8.113296e-005,-3.674638e-004
7.789165e-005,-3.621157e-004
7.351588e-005,-3.541744e-004
6.638501e-005,-3.491504e-004
5.244739e-005,-3.478539e-004
1.095867e-005,-3.459091e-004
-8.206682e-005,-3.412092e-004
-2.220912e-004,-3.314853e-004
-3.658432e-004,-3.110651e-004
-4.711856e-004,-2.781658e-004
-5.236947e-004,-2.417011e-004
-5.240189e-004,-2.133397e-004
-4.820439e-004,-1.977814e-004
-4.167317e-004,-1.896782e-004
-3.551468e-004,-1.841679e-004
-3.173856e-004,-1.784957e-004
-2.982619e-004,-1.665028e-004
-2.758969e-004,-1.475412e-004
-2.352185e-004,-1.240417e-004
-1.699062e-004,-9.454584e-005
-9.033214e-005,-5.840528e-005
-1.626830e-005,-2.437157e-005
3.348575e-005,-7.100305e-007
4.904402e-005,1.241726e-005
2.424803e-005,1.792748e-005
-4.057810e-005,1.987226e-005
-1.293899e-004,2.262737e-005
-2.173913e-004,2.651694e-005
-2.924276e-004,3.575467e-005
-3.700568e-004,5.001641e-005
-5.063537e-004,6.832980e-005
-7.525309e-004,8.875003e-005
-1.075851e-003,1.109530e-004
-1.337100e-003,1.315353e-004
-1.365300e-003,1.459591e-004
-1.075851e-003,1.503348e-004
-5.157535e-004,1.449867e-004
1.610312e-004,1.373696e-004
7.588904e-004,1.334801e-004
1.149792e-003,1.321835e-004
1.315423e-003,1.276457e-004
1.340868e-003,1.158149e-004
1.336330e-003,1.028497e-004
1.361612e-003,9.960840e-005
1.401966e-003,1.112771e-004
1.405694e-003,1.354248e-004
1.330495e-003,1.611932e-004
1.161299e-003,1.801549e-004
9.086389e-004,1.893926e-004
6.050903e-004,1.966855e-004
2.905214e-004,2.106232e-004
8.203561e-006,2.255332e-004
-1.914609e-004,2.323399e-004
-2.750866e-004,2.261814e-004
-2.489941e-004,2.119197e-004
-1.502963e-004,1.952270e-004
-2.307504e-005,1.801549e-004
1.188942e-004,1.652449e-004
2.842008e-004,1.488763e-004
4.519385e-004,1.376937e-004
5.678153e-004,1.325077e-004
5.987698e-004,1.257009e-004
5.569568e-004,1.116012e-004
4.608521e-004,9.636710e-005
2.846870e-004,8.405013e-005
-5.085794e-006,7.335382e-005
-3.796187e-004,6.379197e-005
-7.447518e-004,5.341978e-005
-1.007135e-003,3.948217e-005
-1.132088e-003,2.343770e-005
-1.159315e-003,8.203561e-006
-1.151374e-003,-4.923729e-006
-1.135329e-003,-2.015787e-005
-1.095461e-003,-3.814712e-005
-1.003894e-003,-5.759496e-005
-8.593319e-004,-7.574627e-005
-6.891634e-004,-8.822530e-005
-5.361738e-004,-9.033214e-005
-4.444448e-004,-7.785312e-005
-4.382863e-004,-5.613637e-005
-5.138087e-004,-3.215070e-005
-6.402197e-004,-8.489165e-006
-7.804061e-004,1.419998e-005
-9.042240e-004,3.591673e-005
-9.758568e-004,5.747142e-005
-9.599745e-004,8.113296e-005
-8.358325e-004,1.043083e-004
-6.039171e-004,1.263492e-004
-2.929138e-004,1.459591e-004
4.466826e-005,1.618415e-004
3.449753e-004,1.772377e-004
5.655463e-004,1.978200e-004
6.945504e-004,2.282883e-004
7.467354e-004,2.618358e-004
7.567835e-004,2.900352e-004
7.712073e-004,3.115899e-004
8.230683e-004,3.299032e-004
9.152836e-004,3.433547e-004
1.016412e-003,3.508097e-004
1.086425e-003,3.509718e-004
1.101983e-003,3.449753e-004
1.060656e-003,3.352514e-004
9.791374e-004,3.263378e-004
8.786567e-004,3.192069e-004
7.906552e-004,3.175863e-004
7.421976e-004,3.222862e-004
7.431700e-004,3.268240e-004
7.783382e-004,3.201793e-004
8.190167e-004,2.974902e-004
8.358714e-004,2.550291e-004
8.136685e-004,2.005751e-004
7.537042e-004,1.472556e-004
6.765611e-004,1.059289e-004
6.026593e-004,7.529860e-005
5.413986e-004,4.871989e-005
4.900239e-004,2.441009e-005
4.436731e-004,1.396819e-006
4.078567e-004,-2.080613e-005
3.918122e-004,-4.673658e-005
4.093153e-004,-7.526008e-005
4.571246e-004,-1.024870e-004
5.093096e-004,-1.248521e-004
5.250300e-004,-1.434896e-004
4.824068e-004,-1.630995e-004
3.934329e-004,-1.836818e-004
2.835526e-004,-2.019951e-004
1.684862e-004,-2.180396e-004
5.974033e-005,-2.321393e-004
-3.247483e-005,-2.428356e-004
-1.020008e-004,-2.470493e-004
-1.473791e-004,-2.431597e-004
-1.650442e-004,-2.311669e-004
-1.562927e-004,-2.118811e-004
-1.259865e-004,-1.891920e-004
-7.850138e-005,-1.677994e-004
-1.578211e-005,-1.533756e-004
6.022653e-005,-1.420310e-004
1.524417e-004,-1.285796e-004
2.645909e-004,-1.063766e-004
3.940811e-004,-7.282909e-005
5.211404e-004,-2.890940e-005
6.224313e-004,1.760335e-005
6.815851e-004,6.055066e-005
6.903367e-004,9.442231e-005
6.238898e-004,1.213252e-004
4.662002e-004,1.438522e-004
2.313675e-004,1.647587e-004
-3.036798e-005,1.832341e-004
-2.645523e-004,1.979821e-004
-4.439586e-004,2.038164e-004
-5.886829e-004,1.931201e-004
-7.403760e-004,1.621656e-004
-9.290200e-004,1.232699e-004
-1.170659e-003,8.664317e-005
-1.468535e-003,6.071273e-005
-1.792018e-003,4.272347e-005
-2.080494e-003,1.403791e-005
-2.271570e-003,-4.527799e-005
-2.325699e-003,-1.418689e-004
-2.232350e-003,-2.562870e-004
-2.019234e-003,-3.497987e-004
-1.731892e-003,-3.924218e-004
-1.414730e-003,-3.792946e-004
-1.104212e-003,-3.261371e-004
-8.293498e-004,-2.574215e-004
-5.904656e-004,-1.943781e-004
-3.634122e-004,-1.494860e-004
-1.379793e-004,-1.201522e-004
5.374392e-005,-9.632856e-005
1.581140e-004,-6.504996e-005
1.607070e-004,-1.999580e-005
1.117633e-004,3.494434e-005
8.826383e-005,8.745350e-005
1.329939e-004,1.237561e-004
2.307192e-004,1.378558e-004
3.418961e-004,1.347766e-004
4.357320e-004,1.261871e-004
5.008822e-004,1.201907e-004
5.342677e-004,1.206769e-004
5.404262e-004,1.227837e-004
5.302160e-004,1.169494e-004
5.167646e-004,8.631904e-005
5.196818e-004,2.343770e-005
5.451261e-004,-6.667061e-005
5.770529e-004,-1.635857e-004
5.995801e-004,-2.382978e-004
6.229175e-004,-2.697384e-004
6.715371e-004,-2.551526e-004
7.443045e-004,-2.060468e-004
8.105892e-004,-1.418689e-004
8.426782e-004,-8.028410e-005
8.358714e-004,-3.377135e-005
8.016757e-004,-7.678839e-006
7.490044e-004,-2.238345e-007
6.841783e-004,-7.030578e-006
5.965008e-004,-1.788895e-005
4.542074e-004,-2.485776e-005
2.464396e-004,-2.339917e-005
2.207145e-006,-1.562004e-005
-2.274394e-004,-5.409925e-006
-3.891806e-004,4.476060e-006
-4.561135e-004,8.041497e-006
-4.358554e-004,8.527692e-006
-3.608191e-004,6.420843e-006
-2.676316e-004,4.313994e-006
-1.890299e-004,2.693341e-006
-1.515928e-004,-3.789271e-006
-1.653684e-004,-1.788895e-005
-2.130156e-004,-3.976777e-005
-2.588801e-004,-6.650855e-005
-2.677937e-004,-1.032974e-004
-2.177155e-004,-1.558065e-004
-9.892161e-005,-2.238740e-004
7.740545e-005,-3.026377e-004
2.819319e-004,-3.802670e-004
4.807861e-004,-4.358554e-004
6.519272e-004,-4.475240e-004
7.947068e-004,-4.018217e-004
9.118802e-004,-3.040963e-004
1.001665e-003,-1.773612e-004
1.066815e-003,-4.625038e-005
1.109438e-003,7.302969e-005
1.132613e-003,1.773998e-004
1.138772e-003,2.701011e-004
1.122241e-003,3.600474e-004
1.071353e-003,4.517764e-004
9.741134e-004,5.397779e-004
8.240407e-004,6.182176e-004
6.243761e-004,6.845024e-004
3.770643e-004,7.342565e-004
7.691926e-005,7.629420e-004
-2.770314e-004,7.697488e-004
-6.695535e-004,7.571077e-004
-1.076175e-003,7.285841e-004
-1.469508e-003,6.892022e-004
-1.822324e-003,6.462549e-004
-2.104642e-003,6.033076e-004
-2.273352e-003,5.618188e-004
-2.303982e-003,5.191956e-004
-2.193778e-003,4.747897e-004
-1.953759e-003,4.239012e-004
-1.592353e-003,3.652335e-004
-1.125767e-003,3.026763e-004
-6.199615e-004,2.375260e-004
-1.789819e-004,1.636242e-004
1.122495e-004,8.016056e-005
2.137024e-004,-3.789271e-006
1.451487e-004,-7.444974e-005
5.448451e-006,-1.238797e-004
-1.075111e-004,-1.582375e-004
-1.793060e-004,-1.840059e-004
-2.605007e-004,-2.068571e-004
-4.314796e-004,-2.287359e-004
-7.429690e-004,-2.473734e-004
-1.152670e-003,-2.572594e-004
-1.530931e-003,-2.532078e-004
-1.732540e-003,-2.355427e-004
-1.678248e-003,-2.053985e-004
-1.382317e-003,-1.661787e-004
-9.244822e-004,-1.235555e-004
-4.029561e-004,-9.049421e-005
1.086841e-004,-7.380149e-005
5.849942e-004,-6.812920e-005
1.041857e-003,-6.359137e-005
1.514440e-003,-5.791909e-005
2.042774e-003,-4.592625e-005
2.653277e-003,-3.247483e-005
3.335091e-003,-1.999580e-005
4.035382e-003,-1.140634e-005
4.681545e-003,-7.354708e-006
4.959167e-003,-1.075808e-005
4.958843e-003,-1.740276e-005
4.958843e-003,-2.453363e-005
4.959005e-003,-3.215070e-005
4.722872e-003,-3.944364e-005
3.598936e-003,-4.560212e-005
1.746032e-003,-5.435365e-005
-8.936898e-004,-6.569822e-005
-3.762251e-003,-7.396355e-005
-4.968187e-003,-7.801519e-005
-4.968025e-003,-8.352540e-005
-4.968025e-003,-9.227693e-005
-4.968025e-003,-1.032974e-004
-4.968025e-003,-1.110765e-004
-3.954137e-003,-1.154523e-004
-2.364919e-003,-1.235555e-004
-1.249585e-003,-1.446240e-004
-6.591813e-004,-1.853024e-004
-4.347209e-004,-2.444563e-004
-3.316474e-004,-3.049066e-004
-1.399241e-004,-3.455850e-004
2.461155e-004,-3.548227e-004
8.230683e-004,-3.332680e-004
1.495478e-003,-2.919414e-004
2.122835e-003,-2.488320e-004
2.588451e-003,-2.199844e-004
2.828147e-003,-2.107467e-004
2.834792e-003,-2.136638e-004
2.643715e-003,-2.105846e-004
2.283766e-003,-1.862748e-004
1.780552e-003,-1.318209e-004
1.196305e-003,-5.159854e-005
6.091419e-004,4.272347e-005
7.254349e-005,1.354248e-004
-3.873978e-004,2.140265e-004
-7.742476e-004,2.705873e-004
-1.087196e-003,3.077003e-004
-1.308091e-003,3.289309e-004
-1.426885e-003,3.386548e-004
-1.464808e-003,3.409237e-004
-1.429478e-003,3.389789e-004
-1.287346e-003,3.299032e-004
-9.893083e-004,3.098072e-004
-5.206154e-004,2.752873e-004
6.995045e-005,2.334744e-004
6.900126e-004,1.952270e-004
1.255135e-003,1.680000e-004
1.690767e-003,1.511452e-004
1.920577e-003,1.456350e-004
1.893188e-003,1.522796e-004
1.632748e-003,1.688103e-004
1.246383e-003,1.931201e-004
8.417058e-004,2.203471e-004
4.389732e-004,2.477361e-004
-1.318906e-005,2.743148e-004
-5.387668e-004,3.031625e-004
-1.060941e-003,3.384927e-004
-1.438877e-003,3.772264e-004
-1.556213e-003,4.098015e-004
-1.394147e-003,4.235770e-004
-1.036307e-003,4.140152e-004
-6.298475e-004,3.898674e-004
-3.180339e-004,3.572923e-004
-1.780095e-004,3.219621e-004
-1.959987e-004,2.799871e-004
-3.125237e-004,2.255332e-004
-4.525481e-004,1.592484e-004
-5.352014e-004,8.631904e-005
-4.958195e-004,1.663096e-005
-3.121995e-004,-3.814712e-005
-5.085794e-006,-7.623246e-005
3.756057e-004,-1.024870e-004
7.559732e-004,-1.259865e-004
1.064708e-003,-1.527273e-004
1.255945e-003,-1.867610e-004
1.314937e-003,-2.224154e-004
1.265831e-003,-2.499665e-004
1.162920e-003,-2.600145e-004
1.042991e-003,-2.467252e-004
8.977805e-004,-2.156086e-004
7.063812e-004,-1.796301e-004
4.757621e-004,-1.468929e-004
2.529222e-004,-1.282554e-004
1.059289e-004,-1.397621e-004
8.518459e-005,-1.853024e-004
2.047888e-004,-2.485079e-004
4.290873e-004,-3.081479e-004
6.786680e-004,-3.465574e-004
8.827084e-004,-3.595226e-004
1.003771e-003,-3.491504e-004
1.039264e-003,-3.203028e-004
1.006364e-003,-2.773555e-004
9.297074e-004,-2.235498e-004
8.316578e-004,-1.622891e-004
7.097846e-004,-9.665269e-005
5.618188e-004,-3.360929e-005
4.063981e-004,2.165498e-005
2.726942e-004,6.881599e-005
1.769136e-004,1.122495e-004
1.117633e-004,1.553589e-004
5.212327e-005,1.923098e-004
-2.874733e-005,2.164575e-004
-1.459205e-004,2.274780e-004
-3.010170e-004,2.261814e-004
-4.789647e-004,2.185644e-004
-6.520504e-004,2.104611e-004
-7.894817e-004,2.036543e-004
-8.782936e-004,1.947408e-004
-9.223753e-004,1.850168e-004
-9.290200e-004,1.782101e-004
-8.987138e-004,1.722137e-004
-8.489597e-004,1.629759e-004
-7.974230e-004,1.459591e-004
-7.441035e-004,1.205148e-004
-6.648535e-004,8.712937e-005
-5.348772e-004,4.807163e-005
-3.608191e-004,7.555300e-006
-1.752544e-004,-3.020592e-005
-1.691656e-005,-5.970180e-005
8.259154e-005,-7.947377e-005
1.169494e-004,-9.373551e-005
1.036600e-004,-1.065387e-004
6.978838e-005,-1.203142e-004
3.413401e-005,-1.376552e-004
3.017472e-006,-1.611547e-004
-2.437157e-005,-1.843300e-004
-6.213279e-005,-1.974573e-004
-1.214487e-004,-1.981056e-004
-1.998883e-004,-1.917850e-004
-2.814071e-004,-1.831956e-004
-3.483401e-004,-1.781715e-004
-3.935563e-004,-1.773612e-004
-4.170558e-004,-1.757406e-004
-4.206212e-004,-1.673132e-004
-4.019837e-004,-1.512687e-004
-3.575778e-004,-1.353863e-004
-2.878897e-004,-1.250141e-004
-1.958366e-004,-1.175591e-004
-8.141856e-005,-1.122110e-004
6.055066e-005,-1.104282e-004
2.378501e-004,-1.086455e-004
4.339492e-004,-1.000561e-004
6.073592e-004,-7.542214e-005
7.174016e-004,-3.215070e-005
7.400908e-004,2.246531e-005
6.695923e-004,8.048469e-005
5.256782e-004,1.394765e-004
3.436788e-004,1.986303e-004
1.482280e-004,2.576221e-004
-4.236081e-005,3.127243e-004
-2.128535e-004,3.587509e-004
-3.535262e-004,3.921364e-004
-4.541687e-004,4.081808e-004
-5.050572e-004,4.054257e-004
-5.065158e-004,3.850055e-004
-4.690787e-004,3.548613e-004
-4.060353e-004,3.174242e-004
-3.305129e-004,2.632944e-004
-2.601766e-004,1.746447e-004
-2.141500e-004,4.920609e-005
-1.982676e-004,-8.887356e-005
-2.013469e-004,-2.018331e-004
-2.110708e-004,-2.626076e-004
-2.224154e-004,-2.626076e-004
-2.290600e-004,-2.117190e-004
-2.230636e-004,-1.316588e-004
-1.956746e-004,-3.992984e-005
-1.421931e-004,5.098881e-005
-6.618442e-005,1.325077e-004
2.035846e-005,2.013854e-004
1.059289e-004,2.634565e-004
1.770756e-004,3.200173e-004
2.190506e-004,3.720402e-004
2.227780e-004,4.141773e-004
1.903650e-004,4.409180e-004
1.370455e-004,4.503178e-004
7.886404e-005,4.435111e-004
2.619281e-005,4.234150e-004
-1.286493e-005,3.922984e-004
-4.041603e-005,3.561578e-004
-6.423963e-005,3.195311e-004
-9.179074e-005,2.863077e-004
-1.227452e-004,2.624841e-004
-1.611547e-004,2.464396e-004
-2.015089e-004,2.321778e-004
-2.284118e-004,2.093266e-004
-2.241981e-004,1.731861e-004
-1.867610e-004,1.287802e-004
-1.206384e-004,8.323980e-005
-2.939559e-005,4.239934e-005
1.103047e-004,1.128280e-005
3.218000e-004,-8.651231e-006
5.866148e-004,-2.404744e-005
8.259855e-004,-4.090223e-005
9.496414e-004,-6.391550e-005
9.376486e-004,-9.195280e-005
8.426782e-004,-1.222590e-004
7.334461e-004,-1.507825e-004
6.447963e-004,-1.744440e-004
5.543638e-004,-1.912988e-004
4.242253e-004,-1.995642e-004
2.506533e-004,-1.969711e-004
7.302969e-005,-1.878955e-004
-8.352540e-005,-1.760647e-004
-2.297083e-004,-1.643960e-004
-3.927460e-004,-1.535376e-004
-5.937069e-004,-1.452723e-004
-8.137916e-004,-1.396000e-004
-1.003084e-003,-1.327932e-004
-1.116205e-003,-1.209625e-004
-1.137112e-003,-1.008664e-004
-1.088816e-003,-7.639453e-005
-1.014915e-003,-5.370539e-005
-9.559228e-004,-4.041603e-005
-9.465230e-004,-3.474375e-005
-1.002111e-003,-3.668853e-005
-1.095623e-003,-4.203669e-005
-1.170659e-003,-4.916756e-005
-1.173090e-003,-5.824321e-005
-1.074555e-003,-6.456376e-005
-8.687317e-004,-5.921561e-005
-5.687489e-004,-4.462973e-005
-2.097743e-004,-3.085418e-005
1.597346e-004,-2.664048e-005
4.895377e-004,-4.171255e-005
7.324737e-004,-7.428768e-005
8.561296e-004,-1.136696e-004
8.546711e-004,-1.455964e-004
7.504629e-004,-1.596961e-004
5.846700e-004,-1.504584e-004
3.992672e-004,-1.219349e-004
2.341226e-004,-8.660465e-005
1.287802e-004,-5.597430e-005
1.064151e-004,-3.296103e-005
1.620035e-004,-1.691656e-005
2.710735e-004,-8.489165e-006
3.927846e-004,-6.868512e-006
4.905100e-004,-1.075808e-005
5.423710e-004,-1.464765e-005
5.506363e-004,-1.999580e-005
5.388056e-004,-2.728874e-005
5.326470e-004,-3.263690e-005
5.448019e-004,-3.506787e-005
5.765667e-004,-3.247483e-005
6.175693e-004,-2.275091e-005
6.488480e-004,-9.623623e-006
6.538720e-004,6.744974e-006
6.156245e-004,2.505835e-005
5.242196e-004,4.029249e-005
3.900295e-004,4.920609e-005
2.407673e-004,4.936815e-005
1.174356e-004,4.256141e-005
6.395403e-005,3.769945e-005
9.814982e-005,4.531652e-005
2.007372e-004,6.751947e-005
3.376824e-004,9.814982e-005
4.832171e-004,1.261871e-004
6.178935e-004,1.423936e-004
7.201567e-004,1.493625e-004
7.632662e-004,1.537382e-004
7.128638e-004,1.579519e-004
5.491777e-004,1.587622e-004
2.851732e-004,1.522796e-004
-2.826113e-005,1.378558e-004
-3.126857e-004,1.200286e-004
-4.846370e-004,1.025256e-004
-5.047331e-004,8.518459e-005
-4.006872e-004,6.881599e-005
-2.475355e-004,5.179913e-005
-1.099420e-004,3.575467e-005
-2.168618e-006,2.052053e-005
1.000946e-004,1.063454e-005
2.213195e-004,1.306552e-005
3.663680e-004,2.700314e-005
5.222749e-004,4.223728e-005
6.665131e-004,4.758544e-005
7.775279e-004,4.045456e-005
8.460816e-004,2.100672e-005
8.734707e-004,-8.002969e-006
8.658536e-004,-4.511592e-005
8.141547e-004,-9.195280e-005
7.016812e-004,-1.455964e-004
5.216266e-004,-1.994021e-004
2.730183e-004,-2.491561e-004
-2.793700e-005,-2.916172e-004
-3.285681e-004,-3.237062e-004
-5.632387e-004,-3.321336e-004
-6.860842e-004,-3.086341e-004
-6.898117e-004,-2.533698e-004
-6.055377e-004,-1.728234e-004
-4.783164e-004,-7.266703e-005
-3.566054e-004,3.964423e-005
-2.746004e-004,1.539003e-004
-2.395943e-004,2.645909e-004
-2.287359e-004,3.689610e-004
-2.071812e-004,4.636072e-004
-1.459205e-004,5.389676e-004
-1.886135e-005,5.922871e-004
1.814514e-004,6.198382e-004
4.336251e-004,6.159487e-004
6.981159e-004,5.798081e-004
9.300315e-004,5.164405e-004
1.087883e-003,4.371905e-004
1.144120e-003,3.550234e-004
1.115597e-003,2.728562e-004
1.053850e-003,1.929580e-004
1.008471e-003,1.163011e-004
9.992335e-004,4.483032e-005
1.034402e-003,-1.886135e-005
1.135206e-003,-6.974985e-005
1.293707e-003,-1.036215e-004
1.433083e-003,-1.188556e-004
1.438593e-003,-1.159385e-004
1.222722e-003,-1.005423e-004
7.864415e-004,-8.141856e-005
2.328261e-004,-6.748093e-005
-3.115513e-004,-5.986387e-005
-7.601480e-004,-5.273300e-005
-1.094327e-003,-3.522994e-005
-1.338559e-003,-4.761663e-006
-1.523314e-003,3.024445e-005
-1.666255e-003,6.233338e-005
-1.773867e-003,8.469840e-005
-1.840962e-003,9.344992e-005
-1.870782e-003,9.085687e-005
-1.880181e-003,8.323980e-005
-1.896226e-003,8.048469e-005
-1.935932e-003,9.004655e-005
-2.008375e-003,1.075496e-004
-2.109504e-003,1.226217e-004
-2.195885e-003,1.326697e-004
-2.211443e-003,1.359110e-004
-2.122793e-003,1.329939e-004
-1.910650e-003,1.302387e-004
-1.558806e-003,1.299146e-004
-1.087520e-003,1.276457e-004
-5.549733e-004,1.206769e-004
-3.636440e-005,1.059289e-004
3.939191e-004,8.194328e-005
6.836920e-004,5.212327e-005
8.230683e-004,2.019640e-005
8.428402e-004,-7.192643e-006
7.885484e-004,-2.534396e-005
7.000606e-004,-3.231276e-005
6.034696e-004,-3.101624e-005
5.247058e-004,-3.263690e-005
4.854860e-004,-4.252288e-005
4.888894e-004,-5.694669e-005
5.183853e-004,-7.315322e-005
5.559844e-004,-9.762508e-005
6.107626e-004,-1.408965e-004
7.049225e-004,-2.036158e-004
8.452713e-004,-2.721694e-004
1.017223e-003,-3.204648e-004
1.194847e-003,-3.352128e-004
1.355940e-003,-3.177098e-004
1.481865e-003,-2.882139e-004
1.546043e-003,-2.629317e-004
1.510064e-003,-2.546663e-004
1.366312e-003,-2.655248e-004
1.146389e-003,-2.854588e-004
8.883807e-004,-2.943724e-004
6.131936e-004,-2.794623e-004
3.218000e-004,-2.425115e-004
3.380988e-005,-1.924333e-004
-2.060468e-004,-1.337657e-004
-3.700568e-004,-7.169464e-005
-5.016539e-004,-1.108221e-005
-6.846256e-004,4.661304e-005
-1.023666e-003,9.766362e-005
-1.601267e-003,1.342904e-004
-2.403977e-003,1.537382e-004
-3.279618e-003,1.577899e-004
-3.970668e-003,1.534141e-004
-4.224788e-003,1.530900e-004
-3.913458e-003,1.658931e-004
-3.106532e-003,1.945787e-004
-2.037871e-003,2.386605e-004
-1.000329e-003,2.924662e-004
-2.263049e-004,3.529165e-004
2.055991e-004,4.117463e-004
3.770643e-004,4.618245e-004
4.344354e-004,4.965065e-004
5.015305e-004,5.135234e-004
6.366930e-004,5.153061e-004
8.306854e-004,5.026649e-004
1.035536e-003,4.754380e-004
1.198412e-003,4.350837e-004
1.282848e-003,3.832228e-004
1.283172e-003,3.255275e-004
1.225315e-003,2.644288e-004
1.146551e-003,2.021958e-004
1.081077e-003,1.401247e-004
1.046070e-003,7.805372e-005
1.036509e-003,1.452411e-005
1.042181e-003,-4.754691e-005
1.057577e-003,-1.055663e-004
1.083508e-003,-1.553203e-004
1.125969e-003,-1.981056e-004
1.185123e-003,-2.323013e-004
1.240063e-003,-2.583938e-004
1.262914e-003,-2.801106e-004
1.230339e-003,-2.989102e-004
1.134396e-003,-3.117133e-004
9.925888e-004,-3.156029e-004
8.277682e-004,-3.110651e-004
6.700785e-004,-2.977757e-004
5.482053e-004,-2.758969e-004
4.819206e-004,-2.475355e-004
4.686312e-004,-2.169051e-004
4.926169e-004,-1.916230e-004
5.381573e-004,-1.768750e-004
5.901803e-004,-1.755785e-004
6.287518e-004,-1.818990e-004
6.425274e-004,-1.885437e-004
6.353965e-004,-1.857886e-004
6.106005e-004,-1.666649e-004
5.666808e-004,-1.327932e-004
5.000719e-004,-9.568031e-005
4.250356e-004,-6.731887e-005
3.744712e-004,-5.435365e-005
3.738230e-004,-4.932962e-005
4.083429e-004,-4.171255e-005
4.185530e-004,-2.647842e-005
3.344411e-004,-7.192643e-006
1.224596e-004,1.290346e-005
-1.736337e-004,3.137890e-005
-4.551411e-004,4.871989e-005
-6.283889e-004,6.703327e-005
-6.554538e-004,8.599491e-005
-5.617801e-004,1.065772e-004
-4.155972e-004,1.260251e-004
-2.833519e-004,1.423936e-004
-2.008607e-004,1.610312e-004
-1.765509e-004,1.817755e-004
-2.049123e-004,1.963614e-004
-2.956689e-004,2.028440e-004
-4.603272e-004,2.044647e-004
-7.048837e-004,2.046267e-004
-1.034038e-003,2.049509e-004
-1.435960e-003,2.049509e-004
-1.852630e-003,1.986303e-004
-2.183244e-003,1.820997e-004
-2.324889e-003,1.597346e-004
-2.225867e-003,1.388282e-004
-1.907246e-003,1.213252e-004
-1.461567e-003,1.064151e-004
-9.995184e-004,9.053274e-005
-5.997033e-004,7.448828e-005
-2.985860e-004,5.893001e-005
-8.822530e-005,4.434413e-005
5.925414e-005,3.105477e-005
1.720516e-004,1.727922e-005
2.618358e-004,3.179537e-006
3.216379e-004,-1.173047e-005
3.490270e-004,-2.939559e-005
3.700955e-004,-4.819516e-005
4.209840e-004,-6.504996e-005
5.119027e-004,-8.741497e-005
6.203245e-004,-1.212866e-004
7.081639e-004,-1.616409e-004
7.470596e-004,-2.010227e-004
7.371736e-004,-2.245222e-004
6.934159e-004,-2.175534e-004
6.467411e-004,-1.817370e-004
6.232416e-004,-1.246900e-004
6.274553e-004,-5.532604e-005
6.507927e-004,1.938607e-005
6.827196e-004,9.393611e-005
7.097846e-004,1.620035e-004
7.139983e-004,2.175920e-004
6.857989e-004,2.594048e-004
6.308586e-004,2.872800e-004
5.566327e-004,3.021901e-004
4.709001e-004,3.049452e-004
3.837089e-004,2.934386e-004
3.036486e-004,2.691287e-004
2.367157e-004,2.391467e-004
1.820997e-004,2.130541e-004
1.336421e-004,1.918236e-004
8.793970e-005,1.725378e-004
4.985435e-005,1.526038e-004
3.299956e-005,1.265113e-004
4.920609e-005,8.275361e-005
9.766362e-005,8.689757e-006
1.602208e-004,-9.049421e-005
2.174299e-004,-1.890299e-004
2.509774e-004,-2.598524e-004
2.506533e-004,-2.852967e-004
2.151610e-004,-2.642282e-004
1.487142e-004,-2.102605e-004
6.670914e-005,-1.408965e-004
-1.643037e-005,-6.861539e-005
-8.822530e-005,-2.168618e-006
-1.334415e-004,5.828174e-005
-1.457585e-004,1.174356e-004
-1.256624e-004,1.717275e-004
-7.526008e-005,2.167816e-004
1.883015e-006,2.487085e-004
9.912220e-005,2.666978e-004
2.043026e-004,2.718839e-004
2.968419e-004,2.639427e-004
3.563199e-004,2.448189e-004
3.673404e-004,2.174299e-004
3.284447e-004,1.811273e-004
2.417397e-004,1.407730e-004
1.265113e-004,1.059289e-004
-8.720958e-007,8.891209e-005
-1.350622e-004,9.393611e-005
-2.749245e-004,1.099806e-004
-4.120317e-004,1.211631e-004
-5.275843e-004,1.192183e-004
-6.044033e-004,1.047945e-004
-6.219063e-004,8.113296e-005
-5.619422e-004,5.487837e-005
-4.269418e-004,3.137890e-005
-2.434839e-004,1.047248e-005
-5.808115e-005,-8.813297e-006
9.182927e-005,-2.177852e-005
1.830720e-004,-3.198863e-005
2.060853e-004,-4.511592e-005
1.637863e-004,-6.002593e-005
6.751947e-005,-7.234290e-005
-6.002593e-005,-7.995997e-005
-1.929195e-004,-8.547019e-005
-3.131719e-004,-9.114247e-005
-4.201350e-004,-9.535618e-005
-5.204534e-004,-1.018388e-004
-6.196374e-004,-1.099420e-004
-7.113663e-004,-1.185315e-004
-7.723029e-004,-1.258244e-004
-7.757063e-004,-1.280934e-004
-7.134731e-004,-1.240417e-004
-6.102376e-004,-1.169109e-004
-5.011677e-004,-1.092938e-004
-4.071698e-004,-1.023250e-004
-3.267854e-004,-9.584237e-005
-2.405667e-004,-8.514606e-005
-1.266348e-004,-6.488790e-005
2.765140e-005,-3.506787e-005
2.274780e-004,6.744974e-006
4.733311e-004,5.828174e-005
7.370115e-004,1.145184e-004
9.762202e-004,1.720516e-004
1.154492e-003,2.222919e-004
1.248652e-003,2.568118e-004
1.260645e-003,2.757734e-004
1.208460e-003,2.816078e-004
1.102793e-003,2.799871e-004
9.342452e-004,2.744769e-004
7.068673e-004,2.641047e-004
4.563142e-004,2.410914e-004
2.359053e-004,2.025199e-004
9.085687e-005,1.537382e-004
3.980630e-005,1.036600e-004
6.557468e-005,5.714729e-005
1.026876e-004,1.549650e-005
5.893001e-005,-1.756482e-005
-1.430034e-004,-4.284701e-005
-5.037607e-004,-6.213279e-005
-9.367991e-004,-7.995997e-005
-1.315059e-003,-9.859748e-005
-1.532227e-003,-1.146419e-004
-1.528824e-003,-1.269589e-004
-1.311494e-003,-1.314967e-004
-9.356646e-004,-1.237176e-004
-4.925782e-004,-1.042698e-004
-1.013526e-004,-8.028410e-005
1.253768e-004,-5.629843e-005
1.641104e-004,-4.025397e-005
1.109530e-004,-3.555407e-005
1.010670e-004,-3.830918e-005
1.996027e-004,-3.992984e-005
3.749574e-004,-3.895744e-005
5.446399e-004,-3.733679e-005
6.373413e-004,-3.360929e-005
6.391240e-004,-3.409548e-005
5.762426e-004,-4.527799e-005
4.794896e-004,-6.748093e-005
3.653956e-004,-9.713889e-005
2.347709e-004,-1.300381e-004
7.076077e-005,-1.639098e-004
-1.511066e-004,-1.914609e-004
-4.332623e-004,-2.078295e-004
-7.591756e-004,-2.138259e-004
-1.090599e-003,-2.152845e-004
-1.359790e-003,-2.152845e-004
-1.502893e-003,-2.167431e-004
-1.487659e-003,-2.190120e-004
-1.313601e-003,-2.190120e-004
-1.015887e-003,-2.147983e-004
-6.664742e-004,-2.041020e-004
-3.496366e-004,-1.849783e-004
-1.289037e-004,-1.543479e-004
-2.761287e-005,-1.173971e-004
-4.300908e-005,-7.526008e-005
-1.477033e-004,-2.372330e-005
-2.896725e-004,3.591673e-005
-4.172178e-004,9.150514e-005
-5.016539e-004,1.193804e-004
-5.415219e-004,1.044704e-004
-5.410357e-004,5.747142e-005
-4.998712e-004,9.824214e-006
-4.211074e-004,-7.516774e-006
-3.112271e-004,1.371378e-005
-1.752544e-004,6.136099e-005
-1.189254e-005,1.180839e-004
1.842065e-004,1.689724e-004
4.068843e-004,2.104611e-004
6.336138e-004,2.475740e-004
8.282544e-004,2.793389e-004
9.603378e-004,3.047831e-004
1.026622e-003,3.226103e-004
1.040560e-003,3.334687e-004
1.023705e-003,3.449753e-004
9.942094e-004,3.662059e-004
9.621205e-004,4.004017e-004
9.272764e-004,4.469145e-004
8.885428e-004,5.005581e-004
8.504573e-004,5.507984e-004
8.172339e-004,5.885596e-004
7.934103e-004,6.023351e-004
7.744486e-004,5.804563e-004
7.520836e-004,5.149819e-004
7.256669e-004,4.110980e-004
6.971434e-004,2.848491e-004
6.702406e-004,1.530900e-004
6.465790e-004,3.040651e-005
6.274553e-004,-7.801519e-005
6.144901e-004,-1.778474e-004
6.120591e-004,-2.744383e-004
6.144901e-004,-3.634122e-004
6.065489e-004,-4.303451e-004
5.775391e-004,-4.538446e-004
5.307022e-004,-4.139765e-004
4.898618e-004,-3.055549e-004
4.871067e-004,-1.455964e-004
5.422089e-004,3.202716e-005
6.460928e-004,1.952270e-004
7.639144e-004,3.273102e-004
8.562917e-004,4.203357e-004
8.932427e-004,4.718725e-004
8.676364e-004,4.825688e-004
7.932482e-004,4.642555e-004
6.939021e-004,4.282769e-004
5.950422e-004,3.812780e-004
5.125509e-004,3.237448e-004
4.467524e-004,2.582704e-004
3.905157e-004,1.889064e-004
3.435167e-004,1.201907e-004
3.143450e-004,5.601283e-005
3.101313e-004,4.244267e-007
3.190449e-004,-4.462973e-005
3.094830e-004,-8.028410e-005
2.412535e-004,-1.052422e-004
8.777764e-005,-1.203142e-004
-1.481895e-004,-1.242038e-004
-4.478482e-004,-1.185315e-004
-7.786234e-004,-1.075111e-004
-1.088978e-003,-9.341139e-005
-1.327863e-003,-8.044616e-005
-1.483445e-003,-7.104637e-005
-1.584736e-003,-7.056018e-005
-1.671765e-003,-8.060822e-005
-1.760091e-003,-9.697682e-005
-1.828645e-003,-1.169109e-004
-1.849389e-003,-1.383035e-004
-1.795097e-003,-1.634236e-004
-1.643080e-003,-1.896782e-004
-1.393175e-003,-2.139880e-004
-1.060455e-003,-2.319772e-004
-6.813843e-004,-2.431597e-004
-3.083100e-004,-2.499665e-004
1.549650e-005,-2.506147e-004
2.647530e-004,-2.429977e-004
4.320044e-004,-2.271153e-004
5.235714e-004,-2.104225e-004
5.543638e-004,-2.000504e-004
5.397779e-004,-1.956746e-004
4.955340e-004,-1.921091e-004
4.308700e-004,-1.890299e-004
3.483787e-004,-1.914609e-004
2.436845e-004,-1.976194e-004
1.143563e-004,-2.016710e-004
-4.317114e-005,-1.998883e-004
-2.374874e-004,-1.958366e-004
-4.634064e-004,-1.911368e-004
-7.146076e-004,-1.856265e-004
-9.837981e-004,-1.801163e-004
-1.241644e-003,-1.695821e-004
-1.445360e-003,-1.499722e-004
-1.558806e-003,-1.164247e-004
-1.544382e-003,-7.185670e-005
-1.368541e-003,-2.890940e-005
-1.029987e-003,3.989864e-006
-5.828486e-004,2.376183e-005
-1.271210e-004,3.332369e-005
2.397949e-004,3.607880e-005
4.644175e-004,3.316162e-005
5.540397e-004,2.505835e-005
5.535535e-004,1.193106e-005
5.242196e-004,-7.100305e-007
5.157922e-004,-4.761663e-006
5.478812e-004,1.396819e-006
6.130315e-004,1.371378e-005
6.869333e-004,3.024445e-005
7.524077e-004,5.455424e-005
8.125340e-004,8.453633e-005
8.653674e-004,1.145184e-004
9.036148e-004,1.357490e-004
9.149594e-004,1.449867e-004
8.857876e-004,1.488763e-004
8.131823e-004,1.485521e-004
7.170775e-004,1.492004e-004
6.285898e-004,1.524417e-004
5.721910e-004,1.545486e-004
5.525811e-004,1.556830e-004
5.576051e-004,1.602208e-004
5.694359e-004,1.658931e-004
5.759185e-004,1.710792e-004
5.877493e-004,1.757791e-004
6.287518e-004,1.812893e-004
7.083260e-004,1.877719e-004
8.196649e-004,1.950649e-004
9.504518e-004,2.062474e-004
1.077835e-003,2.182402e-004
1.172320e-003,2.260194e-004
1.206353e-003,2.234263e-004
1.163730e-003,2.091646e-004
1.037643e-003,1.895547e-004
8.227442e-004,1.720516e-004
5.255162e-004,1.629759e-004
1.639483e-004,1.598967e-004
-2.229016e-004,1.574657e-004
-5.719902e-004,1.529279e-004
-8.217327e-004,1.414213e-004
-9.364750e-004,1.229458e-004
-9.220512e-004,1.033359e-004
-8.209224e-004,8.777764e-005
-6.893254e-004,8.129502e-005
-5.799314e-004,8.145709e-005
-5.287188e-004,8.518459e-005
-5.564319e-004,9.750155e-005
-6.565882e-004,1.158149e-004
-8.021229e-004,1.287802e-004
-9.609468e-004,1.247285e-004
-1.107454e-003,1.036600e-004
-1.220413e-003,7.643306e-005
-1.262388e-003,5.277152e-005
-1.171470e-003,3.802358e-005
-9.014689e-004,3.283749e-005
-4.533584e-004,3.429608e-005
9.426025e-005,3.850977e-005
6.123832e-004,3.769945e-005
9.856200e-004,3.267542e-005
1.175561e-003,2.424803e-005
1.211863e-003,8.365628e-006
1.166809e-003,-1.497178e-005
1.105386e-003,-4.187462e-005
1.052553e-003,-6.375343e-005
9.890234e-004,-7.169464e-005
8.916220e-004,-6.553616e-005
7.410632e-004,-4.997788e-005
5.119027e-004,-3.328516e-005
1.919856e-004,-1.691656e-005
-2.044261e-004,2.531276e-006
-6.478368e-004,2.424803e-005
-1.076986e-003,4.790957e-005
-1.408571e-003,7.513654e-005
-1.574850e-003,1.057669e-004
-1.555565e-003,1.331559e-004
-1.366434e-003,1.493625e-004
-1.053162e-003,1.532520e-004
-6.680949e-004,1.506590e-004
-2.771934e-004,1.462832e-004
3.478227e-005,1.388282e-004
1.856651e-004,1.274836e-004
1.493625e-004,1.140322e-004
-2.907146e-005,9.847395e-005
-2.577456e-004,8.583285e-005
-4.272659e-004,7.983643e-005
-4.622720e-004,8.421220e-005
-3.559572e-004,9.134307e-005
-1.648822e-004,8.972242e-005
3.769945e-005,6.930219e-005
1.976579e-004,2.927205e-005
2.940868e-004,-2.015787e-005
3.346032e-004,-6.926366e-005
3.436788e-004,-1.251762e-004
3.423823e-004,-2.057227e-004
3.538889e-004,-3.177098e-004
3.966742e-004,-4.484964e-004
4.705760e-004,-5.721523e-004
5.580913e-004,-6.677707e-004
6.362069e-004,-7.351899e-004
6.914712e-004,-7.876991e-004
7.211291e-004,-8.437737e-004
7.334461e-004,-9.115170e-004
7.271255e-004,-9.802326e-004
6.908229e-004,-1.027880e-003
6.170831e-004,-1.033390e-003
5.166026e-004,-9.889841e-004
4.096394e-004,-8.901243e-004
3.153174e-004,-7.364865e-004
2.475740e-004,-5.330945e-004
2.125679e-004,-2.833519e-004
2.085163e-004,6.258778e-006
2.219677e-004,3.264999e-004
2.258573e-004,6.600305e-004
1.974959e-004,9.851338e-004
1.276457e-004,1.281066e-003
2.538249e-005,1.531781e-003
-9.341139e-005,1.728205e-003
-2.107467e-004,1.867419e-003
-3.177098e-004,1.945535e-003
-4.316416e-004,1.950883e-003
-5.672903e-004,1.877954e-003
-7.129869e-004,1.738091e-003
-8.393979e-004,1.555118e-003
-9.205926e-004,1.356264e-003
-9.687260e-004,1.159516e-003
-1.043762e-003,9.768684e-004
-1.199345e-003,8.141547e-004
-1.428505e-003,6.661889e-004
-1.652155e-003,5.264885e-004
-1.781160e-003,3.888950e-004
-1.770139e-003,2.540566e-004
-1.636111e-003,1.289422e-004
-1.423319e-003,1.355172e-005
-1.152670e-003,-9.341139e-005
-8.202742e-004,-1.895161e-004
-4.305072e-004,-2.700626e-004
-1.707863e-005,-3.368334e-004
3.613439e-004,-3.917736e-004
6.493341e-004,-4.390966e-004
8.261476e-004,-4.804233e-004
9.156077e-004,-5.112157e-004
9.530449e-004,-5.272602e-004
9.616343e-004,-5.254775e-004
9.470484e-004,-5.094330e-004
9.123664e-004,-4.838267e-004
8.655294e-004,-4.522239e-004
8.195028e-004,-4.164075e-004
7.840105e-004,-3.770256e-004
7.645627e-004,-3.381300e-004
7.626179e-004,-3.029618e-004
7.655350e-004,-2.726556e-004
7.532181e-004,-2.528836e-004
7.138362e-004,-2.499665e-004
6.525755e-004,-2.614731e-004
5.872631e-004,-2.767072e-004
5.401021e-004,-2.887001e-004
5.214645e-004,-2.961551e-004
5.292437e-004,-3.058790e-004
5.485294e-004,-3.238682e-004
5.610085e-004,-3.459091e-004
5.558224e-004,-3.643846e-004
5.318367e-004,-3.778360e-004
4.937514e-004,-3.890185e-004
4.529109e-004,-3.966356e-004
4.217943e-004,-4.013354e-004
4.038051e-004,-3.987424e-004
3.976466e-004,-3.873978e-004
4.086670e-004,-3.673017e-004
4.143393e-004,-3.447747e-004
3.650714e-004,-3.262992e-004
2.360674e-004,-3.126857e-004
6.362990e-005,-3.024756e-004
-9.746302e-005,-2.932379e-004
-2.400805e-004,-2.838381e-004
-4.185144e-004,-2.768693e-004
-6.885151e-004,-2.720073e-004
-1.018318e-003,-2.648765e-004
-1.297557e-003,-2.532078e-004
-1.413919e-003,-2.382978e-004
-1.320894e-003,-2.216050e-004
-1.051865e-003,-2.066950e-004
-6.718223e-004,-1.930815e-004
-2.371633e-004,-1.812508e-004
2.049509e-004,-1.673132e-004
5.981215e-004,-1.457585e-004
8.917841e-004,-1.151281e-004
1.066977e-003,-7.866345e-005
1.147686e-003,-4.219875e-005
1.177506e-003,-9.947754e-006
1.195171e-003,1.306552e-005
1.219967e-003,3.008238e-005
1.250111e-003,4.645098e-005
1.286576e-003,6.055066e-005
1.331306e-003,7.027457e-005
1.372957e-003,7.627100e-005
1.379763e-003,8.032263e-005
1.318016e-003,8.405013e-005
1.167457e-003,8.875003e-005
9.280867e-004,9.328785e-005
6.167590e-004,9.652916e-005
2.628082e-004,9.798775e-005
-1.031353e-004,1.009049e-004
-4.611375e-004,1.069013e-004
-8.280533e-004,1.190562e-004
-1.221062e-003,1.386661e-004
-1.629466e-003,1.618415e-004
-2.003027e-003,1.837203e-004
-2.264763e-003,2.008992e-004
-2.342230e-003,2.112714e-004
-2.218412e-003,2.141886e-004
-1.948087e-003,2.112714e-004
-1.621201e-003,2.055991e-004
-1.307767e-003,2.046267e-004
-1.039549e-003,2.154851e-004
-8.118468e-004,2.355812e-004
-6.044033e-004,2.556773e-004
-4.071698e-004,2.666978e-004
-2.274394e-004,2.689667e-004
-8.465986e-005,2.626462e-004
8.203561e-006,2.482223e-004
5.876794e-005,2.342847e-004
9.053274e-005,2.234263e-004
1.274836e-004,2.145127e-004
1.801549e-004,2.060853e-004
2.441707e-004,1.986303e-004
3.051073e-004,1.961993e-004
3.464339e-004,1.999268e-004
3.540510e-004,2.052750e-004
3.195311e-004,2.064095e-004
2.391467e-004,2.080301e-004
1.242423e-004,2.128921e-004
1.234753e-006,2.221298e-004
-9.551824e-005,2.368777e-004
-1.428413e-004,2.569738e-004
-1.491618e-004,2.741528e-004
-1.340898e-004,2.806354e-004
-1.123730e-004,2.694529e-004
-9.065627e-005,2.380122e-004
-7.266703e-005,1.953890e-004
-6.035006e-005,1.504969e-004
-4.997788e-005,1.151667e-004
-3.166451e-005,8.939829e-005
2.369210e-006,6.525056e-005
5.050261e-005,4.223728e-005
1.043083e-004,2.667901e-005
1.613553e-004,2.035846e-005
2.179161e-004,1.760335e-005
2.644288e-004,1.322759e-005
2.963557e-004,6.907039e-006
3.175863e-004,4.313994e-006
3.367100e-004,8.365628e-006
3.636129e-004,2.197911e-005
4.029947e-004,4.207521e-005
4.563142e-004,6.217131e-005
5.234093e-004,7.675719e-005
6.012007e-004,8.615698e-005
6.895264e-004,9.004655e-005
7.887104e-004,8.356393e-005
8.977805e-004,6.751947e-005
1.009606e-003,4.807163e-005
1.126617e-003,3.769945e-005
1.256107e-003,3.818564e-005
1.400022e-003,4.207521e-005
1.551715e-003,4.304760e-005
1.697088e-003,3.543053e-005
1.814424e-003,2.019640e-005
1.884922e-003,1.002961e-007
1.908908e-003,-1.594417e-005
1.866771e-003,-2.599222e-005
1.688174e-003,-3.231276e-005
1.312020e-003,-4.009190e-005
7.553250e-004,-4.479180e-005
1.051186e-004,-3.960571e-005
-5.321222e-004,-1.934754e-005
-1.089951e-003,1.484824e-005
-1.568043e-003,6.038860e-005
-1.980986e-003,1.140322e-004
-2.308520e-003,1.710792e-004
-2.489061e-003,2.265056e-004
-2.469290e-003,2.746390e-004
-2.254390e-003,3.112657e-004
-1.907733e-003,3.310377e-004
-1.523800e-003,3.324963e-004
-1.185894e-003,3.200173e-004
-9.358267e-004,3.000832e-004
-7.606342e-004,2.796630e-004
-6.189891e-004,2.585945e-004
-4.612996e-004,2.307192e-004
-2.650385e-004,1.900409e-004
-7.688072e-005,1.373696e-004
1.257933e-005,7.610893e-005
-3.685059e-005,8.851824e-006
-1.682856e-004,-6.051213e-005
-2.882139e-004,-1.302002e-004
-3.391023e-004,-1.989159e-004
-3.224097e-004,-2.660109e-004
-2.661730e-004,-3.313232e-004
-1.938919e-004,-3.885323e-004
-1.096179e-004,-4.266176e-004
-2.113026e-005,-4.327761e-004
6.687120e-005,-4.019837e-004
1.568175e-004,-3.355369e-004
2.376881e-004,-2.381357e-004
2.850111e-004,-1.182074e-004
2.767458e-004,1.193106e-005
2.162954e-004,1.376937e-004
1.347766e-004,2.525981e-004
7.546067e-005,3.555096e-004
6.379197e-005,4.436731e-004
1.002567e-004,5.101199e-004
1.691344e-004,5.519328e-004
2.454672e-004,5.661946e-004
3.025142e-004,5.538776e-004
3.208276e-004,5.206542e-004
2.918179e-004,4.668485e-004
2.187264e-004,3.945674e-004
1.169494e-004,3.042969e-004
1.128280e-005,1.986303e-004
-7.347736e-005,8.518459e-005
-1.342519e-004,-3.441962e-005
-1.715269e-004,-1.559686e-004
-1.804405e-004,-2.731418e-004
-1.498101e-004,-3.773498e-004
-7.234290e-005,-4.659995e-004
4.823369e-005,-5.407116e-004
1.923098e-004,-6.042412e-004
3.324963e-004,-6.549676e-004
4.472386e-004,-6.838152e-004
5.349160e-004,-6.807360e-004
6.143280e-004,-6.457299e-004
7.010330e-004,-5.893311e-004
7.956792e-004,-5.272602e-004
8.810877e-004,-4.681063e-004
9.324625e-004,-4.165696e-004
9.292212e-004,-3.729740e-004
8.622881e-004,-3.436402e-004
7.468975e-004,-3.314853e-004
6.097901e-004,-3.386162e-004
4.726828e-004,-3.731361e-004
3.527545e-004,-4.251590e-004
2.558394e-004,-4.737786e-004
1.791825e-004,-4.932265e-004
1.161391e-004,-4.731303e-004
5.893001e-005,-4.167317e-004
-1.358292e-006,-3.337542e-004
-8.287714e-005,-2.327876e-004
-2.175534e-004,-1.211245e-004
-4.282383e-004,-4.113402e-006
-7.026148e-004,1.180839e-004
-9.872015e-004,2.469258e-004
-1.207448e-003,3.751195e-004
-1.302743e-003,4.950479e-004
-1.248937e-003,6.041179e-004
-1.070341e-003,7.011950e-004
-8.171949e-004,7.776900e-004
-5.431426e-004,8.263096e-004
-3.126857e-004,8.462437e-004
-1.734716e-004,8.345749e-004
-1.238797e-004,7.951930e-004
-1.310105e-004,7.357150e-004
-1.645580e-004,6.655407e-004
-1.895161e-004,5.932595e-004
-1.825473e-004,5.287575e-004
-1.344139e-004,4.772207e-004
-4.884343e-005,4.370285e-004
6.768153e-005,3.955397e-004
2.117576e-004,3.433547e-004
3.723644e-004,2.796630e-004
5.225990e-004,2.115955e-004
6.357207e-004,1.508210e-004
6.990882e-004,1.093323e-004
7.139983e-004,8.923622e-005
6.862851e-004,8.194328e-005
6.373413e-004,7.983643e-005
5.942319e-004,7.627100e-005
5.987698e-004,6.719534e-005
6.806127e-004,4.823369e-005
8.371680e-004,2.003433e-005
1.018195e-003,-1.464765e-005
1.137151e-003,-5.257093e-005
1.113490e-003,-9.146661e-005
9.282487e-004,-1.284175e-004
6.366930e-004,-1.593720e-004
3.255275e-004,-1.823852e-004
5.487837e-005,-1.992400e-004
-1.616409e-004,-2.146362e-004
-3.342404e-004,-2.272773e-004
-4.731303e-004,-2.348944e-004
-5.630766e-004,-2.392702e-004
-5.896553e-004,-2.400805e-004
-5.617801e-004,-2.360288e-004
-5.121881e-004,-2.266291e-004
-4.959816e-004,-2.180396e-004
-5.590249e-004,-2.089639e-004
-6.971046e-004,-1.968091e-004
-8.523631e-004,-1.815749e-004
-9.598124e-004,-1.676373e-004
-1.005839e-003,-1.572651e-004
-1.027394e-003,-1.468929e-004
-1.053810e-003,-1.357104e-004
-1.084279e-003,-1.212866e-004
-1.089951e-003,-1.029732e-004
-1.030797e-003,-8.595638e-005
-8.800763e-004,-7.461181e-005
-6.458919e-004,-7.056018e-005
-3.723257e-004,-6.877746e-005
-1.211245e-004,-6.553616e-005
5.925414e-005,-5.921561e-005
1.555209e-004,-4.868136e-005
1.958752e-004,-3.263690e-005
