-9.137859e-004,2.959618e-005
-3.580640e-004,-1.844488e-006
4.628891e-005,-3.198863e-005
2.765838e-004,-5.192267e-005
3.634508e-004,-6.018800e-005
3.548613e-004,-5.613637e-005
3.000832e-004,-4.835723e-005
2.396328e-004,-4.300908e-005
1.937684e-004,-4.365734e-005
1.621656e-004,-5.419158e-005
1.383420e-004,-7.299116e-005
1.229458e-004,-9.794922e-005
1.263492e-004,-1.203142e-004
1.501728e-004,-1.313347e-004
1.812893e-004,-1.305243e-004
2.030061e-004,-1.229073e-004
2.036543e-004,-1.067007e-004
1.681620e-004,-8.044616e-005
8.599491e-005,-4.300908e-005
-5.402952e-005,1.002961e-007
-2.397564e-004,3.883391e-005
-4.123559e-004,6.784360e-005
-5.172121e-004,8.583285e-005
-5.343910e-004,9.101894e-005
-4.750752e-004,8.437427e-005
-3.700568e-004,6.784360e-005
-2.553146e-004,5.066468e-005
-1.527273e-004,4.061663e-005
-5.840528e-005,3.705119e-005
4.871989e-005,3.251336e-005
1.940925e-004,1.954813e-005
3.743092e-004,-8.720958e-007
5.548500e-004,-2.096819e-005
6.926056e-004,-3.279896e-005
7.744486e-004,-3.036798e-005
8.164236e-004,-1.124428e-005
8.592089e-004,1.906194e-005
9.395934e-004,5.196120e-005
1.070542e-003,7.837785e-005
1.218832e-003,8.939829e-005
1.311210e-003,8.972242e-005
1.283497e-003,8.534666e-005
1.102955e-003,7.805372e-005
7.391184e-004,6.768153e-005
1.908512e-004,5.487837e-005
-4.833405e-004,4.596478e-005
-1.165635e-003,4.385793e-005
-1.709040e-003,4.726130e-005
-1.983417e-003,5.358185e-005
-1.928639e-003,6.217131e-005
-1.578902e-003,6.768153e-005
-1.037604e-003,6.897806e-005
-4.415276e-004,6.573675e-005
8.388807e-005,5.828174e-005
4.629589e-004,5.228533e-005
6.783438e-004,5.131293e-005
7.486802e-004,5.374392e-005
7.055708e-004,6.071273e-005
5.835355e-004,7.092283e-005
4.132048e-004,7.935023e-005
2.355812e-004,8.567078e-005
9.134307e-005,8.891209e-005
1.322759e-005,8.550872e-005
1.727922e-005,7.529860e-005
9.879807e-005,6.217131e-005
2.294227e-004,4.823369e-005
3.602095e-004,3.429608e-005
4.357320e-004,2.035846e-005
4.294114e-004,7.069104e-006
3.391410e-004,2.623614e-007
1.796687e-004,-1.682422e-006
-1.173047e-005,-1.196226e-006
-1.922712e-004,-5.479652e-007
-3.217614e-004,-1.034161e-006
-3.801049e-004,-3.627206e-006
-3.773498e-004,-7.030578e-006
-3.363473e-004,-8.002969e-006
-2.804347e-004,-3.789271e-006
-2.243601e-004,6.420843e-006
-1.820611e-004,1.889987e-005
-1.699062e-004,2.505835e-005
-2.060468e-004,1.938607e-005
-2.809209e-004,3.827798e-006
-3.493125e-004,-1.448558e-005
-3.653569e-004,-2.534396e-005
-3.118754e-004,-1.756482e-005
-2.122052e-004,5.934647e-006
-1.007043e-004,3.364782e-005
-4.923729e-006,4.953022e-005
6.184718e-005,4.434413e-005
9.620503e-005,1.922400e-005
1.041462e-004,-1.578211e-005
1.025256e-004,-5.062615e-005
1.020394e-004,-7.428768e-005
9.928427e-005,-8.028410e-005
9.442231e-005,-6.974985e-005
1.013911e-004,-4.932962e-005
1.368834e-004,-3.053005e-005
2.015475e-004,-1.918548e-005
2.689667e-004,-1.724069e-005
3.107795e-004,-2.307504e-005
3.162897e-004,-2.939559e-005
2.913317e-004,-3.279896e-005
2.576221e-004,-3.571614e-005
2.344468e-004,-3.895744e-005
2.271538e-004,-4.219875e-005
2.334744e-004,-4.706071e-005
2.464396e-004,-5.338126e-005
2.597290e-004,-5.710876e-005
2.688046e-004,-5.694669e-005
2.662116e-004,-5.030201e-005
2.380122e-004,-3.701266e-005
1.680000e-004,-2.242678e-005
5.293359e-005,-8.813297e-006
-8.190475e-005,3.017472e-006
-1.998883e-004,1.533444e-005
-2.710350e-004,2.943412e-005
-2.838381e-004,4.515445e-005
-2.391081e-004,5.779555e-005
-1.533756e-004,6.687120e-005
-6.197072e-005,7.302969e-005
-4.113402e-006,7.481241e-005
1.720949e-006,7.351588e-005
-3.587821e-005,7.027457e-005
-8.984595e-005,6.832980e-005
-1.224211e-004,6.832980e-005
-1.026491e-004,6.978838e-005
-1.853721e-005,7.659513e-005
1.221355e-004,9.020861e-005
3.046211e-004,1.070634e-004
5.217887e-004,1.206769e-004
7.569456e-004,1.263492e-004
9.814063e-004,1.248906e-004
1.151575e-003,1.180839e-004
1.221587e-003,1.067393e-004
1.163082e-003,9.312579e-005
9.857820e-004,7.675719e-005
7.478699e-004,5.633696e-005
5.290816e-004,3.267542e-005
3.845193e-004,8.851824e-006
3.250413e-004,-2.816880e-006
3.239068e-004,2.855406e-006
3.311998e-004,1.808955e-005
2.932765e-004,3.380988e-005
1.673517e-004,4.126489e-005
-6.845333e-005,3.899597e-005
-4.063595e-004,3.105477e-005
-8.252982e-004,2.554455e-005
-1.289129e-003,2.959618e-005
-1.733836e-003,4.871989e-005
-2.081791e-003,8.372600e-005
-2.271732e-003,1.253768e-004
-2.268166e-003,1.594105e-004
-2.080332e-003,1.801549e-004
-1.747288e-003,1.829100e-004
-1.297394e-003,1.683241e-004
-7.423208e-004,1.394765e-004
-1.229073e-004,1.038221e-004
4.794896e-004,6.897806e-005
9.661721e-004,4.337174e-005
1.270045e-003,3.413401e-005
1.369229e-003,3.915804e-005
1.290952e-003,4.936815e-005
1.083994e-003,5.860587e-005
7.832002e-004,5.925414e-005
4.046154e-004,4.628891e-005
-2.258885e-005,2.230324e-005
-4.522239e-004,-1.196226e-006
-8.379393e-004,-1.869928e-005
-1.141001e-003,-2.599222e-005
-1.347310e-003,-2.048200e-005
-1.470318e-003,-9.137427e-006
-1.501110e-003,-2.492749e-006
-1.408247e-003,-4.113402e-006
-1.188000e-003,-1.108221e-005
-8.846141e-004,-2.388537e-005
-5.825244e-004,-4.349527e-005
-3.613053e-004,-6.731887e-005
-2.593662e-004,-8.271508e-005
-2.776796e-004,-7.995997e-005
-3.776739e-004,-5.840528e-005
-5.078123e-004,-2.809907e-005
-6.223925e-004,1.234753e-006
-6.773326e-004,2.084466e-005
-6.316302e-004,2.457216e-005
-4.822060e-004,1.419998e-005
-2.940482e-004,-3.303075e-006
-1.622891e-004,-1.999580e-005
-1.551583e-004,-3.555407e-005
-2.632558e-004,-4.851930e-005
-4.021458e-004,-5.273300e-005
-4.627582e-004,-4.430560e-005
-3.815635e-004,-2.696461e-005
-1.759026e-004,-9.623623e-006
9.101894e-005,2.531276e-006
3.538889e-004,9.338019e-006
5.702462e-004,1.338965e-005
7.311772e-004,1.792748e-005
8.413817e-004,2.181705e-005
9.118802e-004,2.084466e-005
9.559620e-004,1.533444e-005
9.974508e-004,1.160693e-005
1.060494e-003,1.484824e-005
1.154006e-003,2.116879e-005
1.274421e-003,2.813760e-005
1.404559e-003,3.559260e-005
1.512819e-003,4.450619e-005
1.579590e-003,5.504044e-005
1.612814e-003,6.379197e-005
1.638420e-003,6.670914e-005
1.664027e-003,6.638501e-005
1.666134e-003,6.541262e-005
1.600659e-003,6.525056e-005
1.435514e-003,5.957827e-005
1.180909e-003,4.677511e-005
8.942151e-004,3.121684e-005
6.434998e-004,1.792748e-005
4.756000e-004,1.209313e-005
4.060740e-004,1.484824e-005
4.196875e-004,2.554455e-005
4.827309e-004,4.175108e-005
5.542017e-004,5.455424e-005
5.981215e-004,5.309565e-005
5.955284e-004,3.737532e-005
5.507984e-004,1.663096e-005
4.846757e-004,6.744974e-006
4.159599e-004,1.225519e-005
3.514579e-004,2.927205e-005
2.898731e-004,4.790957e-005
2.310434e-004,5.957827e-005
1.731861e-004,6.525056e-005
1.109530e-004,6.476436e-005
4.693717e-005,5.990240e-005
-1.594417e-005,4.936815e-005
-7.752898e-005,3.753739e-005
-1.370070e-004,2.700314e-005
-1.987538e-004,1.825161e-005
-2.605007e-004,1.484824e-005
-3.160891e-004,1.841368e-005
-3.629260e-004,2.894792e-005
-4.057112e-004,4.628891e-005
-4.580583e-004,6.735740e-005
-5.329325e-004,8.567078e-005
-6.257959e-004,9.409818e-005
-7.175248e-004,8.826383e-005
-7.833233e-004,7.059870e-005
-8.061745e-004,4.645098e-005
-7.802441e-004,2.311357e-005
-7.128249e-004,1.014835e-005
-6.227166e-004,1.257933e-005
-5.364979e-004,2.489629e-005
-4.760475e-004,3.656499e-005
-4.549791e-004,3.964423e-005
-4.825302e-004,3.478227e-005
-5.522182e-004,2.424803e-005
-6.337370e-004,7.879431e-006
-6.967805e-004,-1.189254e-005
-7.235212e-004,-3.004385e-005
-7.079630e-004,-4.300908e-005
-6.499436e-004,-5.257093e-005
-5.507596e-004,-6.245691e-005
-4.141386e-004,-7.574627e-005
-2.558008e-004,-9.130454e-005
-1.018388e-004,-1.079973e-004
2.959618e-005,-1.227452e-004
1.406109e-004,-1.267968e-004
2.435224e-004,-1.117248e-004
3.422202e-004,-7.736692e-005
4.277907e-004,-3.198863e-005
4.874308e-004,7.555300e-006
5.052580e-004,2.246531e-005
4.678209e-004,7.717366e-006
3.687989e-004,-2.226472e-005
2.132162e-004,-4.803310e-005
1.144487e-005,-5.710876e-005
-2.146362e-004,-5.321919e-005
-4.360174e-004,-3.814712e-005
-6.311440e-004,-1.626830e-005
-7.885094e-004,4.800190e-006
-8.932035e-004,1.501031e-005
-9.265890e-004,1.873781e-005
-8.820211e-004,2.603075e-005
-7.700340e-004,4.288554e-005
-6.167202e-004,6.849186e-005
-4.499550e-004,9.717742e-005
-2.896725e-004,1.198666e-004
-1.415448e-004,1.305629e-004
-7.678839e-006,1.292664e-004
1.062531e-004,1.143563e-004
1.965235e-004,9.150514e-005
2.632944e-004,6.832980e-005
3.124002e-004,5.293359e-005
3.511338e-004,4.790957e-005
3.835469e-004,5.050261e-005
4.128807e-004,5.601283e-005
4.436731e-004,6.281957e-005
4.679830e-004,6.865393e-005
4.723587e-004,6.784360e-005
4.558280e-004,6.038860e-005
4.298976e-004,5.390598e-005
4.119083e-004,5.811968e-005
4.075326e-004,7.481241e-005
4.096394e-004,1.012291e-004
4.059119e-004,1.292664e-004
3.807918e-004,1.496866e-004
3.341170e-004,1.600588e-004
2.801492e-004,1.597346e-004
2.414156e-004,1.503348e-004
2.274780e-004,1.321835e-004
2.224539e-004,1.062531e-004
2.013854e-004,7.918817e-005
1.417454e-004,6.006446e-005
3.543053e-005,4.790957e-005
-1.088076e-004,3.607880e-005
-2.742762e-004,2.052053e-005
-4.360174e-004,3.017472e-006
-5.648593e-004,-1.205460e-005
-6.381128e-004,-2.307504e-005
-6.450816e-004,-3.085418e-005
-5.950034e-004,-3.069211e-005
-5.188328e-004,-2.064406e-005
-4.413656e-004,-4.599598e-006
-3.661673e-004,1.452411e-005
-2.810830e-004,3.721326e-005
-1.770371e-004,6.038860e-005
-5.646050e-005,7.594687e-005
5.649903e-005,7.691926e-005
1.334801e-004,6.200925e-005
1.642725e-004,3.883391e-005
1.628139e-004,1.711715e-005
1.581140e-004,5.286386e-006
1.663793e-004,4.313994e-006
1.874478e-004,7.069104e-006
2.161334e-004,1.063454e-005
2.498430e-004,1.371378e-005
2.861456e-004,1.922400e-005
3.188828e-004,2.781346e-005
3.362238e-004,3.462021e-005
3.297412e-004,3.575467e-005
3.078624e-004,2.797553e-005
2.807975e-004,1.565857e-005
2.496809e-004,-2.654814e-006
2.117576e-004,-2.680255e-005
1.764274e-004,-4.657451e-005
1.540623e-004,-5.467778e-005
1.420695e-004,-5.565017e-005
1.182459e-004,-5.921561e-005
7.092283e-005,-7.218083e-005
2.408596e-005,-9.276313e-005
2.586868e-005,-1.099420e-004
1.000946e-004,-1.144799e-004
2.266676e-004,-1.026491e-004
3.490270e-004,-7.704279e-005
4.080188e-004,-3.701266e-005
3.668542e-004,1.112074e-005
2.300710e-004,5.779555e-005
5.536457e-005,9.280166e-005
-7.785312e-005,1.086841e-004
-1.203142e-004,9.960840e-005
-7.526008e-005,7.448828e-005
1.873781e-005,4.790957e-005
1.148425e-004,3.445814e-005
1.795066e-004,3.510640e-005
1.970097e-004,4.142695e-005
1.764274e-004,4.888196e-005
1.412592e-004,5.196120e-005
1.106288e-004,5.260946e-005
8.372600e-005,5.633696e-005
6.103685e-005,6.654707e-005
5.568870e-005,7.853991e-005
8.275361e-005,8.826383e-005
1.446626e-004,9.199134e-005
2.169437e-004,8.745350e-005
2.691287e-004,7.610893e-005
2.666978e-004,6.265751e-005
1.793446e-004,5.374392e-005
9.824214e-006,4.839576e-005
-1.932436e-004,4.369587e-005
-3.728119e-004,4.094075e-005
-4.885265e-004,4.953022e-005
-5.290429e-004,7.546067e-005
-5.066778e-004,1.150046e-004
-4.399070e-004,1.574657e-004
-3.465574e-004,1.889064e-004
-2.519113e-004,1.986303e-004
-1.744440e-004,1.842065e-004
-1.225831e-004,1.560071e-004
-1.028112e-004,1.219734e-004
-1.272830e-004,8.891209e-005
-1.982676e-004,6.200925e-005
-2.980999e-004,4.677511e-005
-3.896667e-004,3.899597e-005
-4.459034e-004,3.024445e-005
-4.565997e-004,1.614476e-005
-4.248349e-004,-4.275467e-006
-3.566054e-004,-2.469570e-005
-2.493182e-004,-3.798505e-005
-9.875954e-005,-4.057810e-005
8.518459e-005,-3.798505e-005
2.764217e-004,-3.377135e-005
4.558280e-004,-2.907146e-005
6.099522e-004,-2.664048e-005
7.183740e-004,-2.890940e-005
7.567835e-004,-3.733679e-005
7.008709e-004,-4.835723e-005
5.482053e-004,-5.840528e-005
3.252033e-004,-6.812920e-005
8.567078e-005,-8.060822e-005
-1.126972e-004,-9.632856e-005
-2.337599e-004,-1.094559e-004
-2.656868e-004,-1.148040e-004
-2.164190e-004,-1.102662e-004
-1.037836e-004,-9.665269e-005
5.115087e-005,-7.833932e-005
2.201850e-004,-6.002593e-005
3.621542e-004,-4.074016e-005
4.396215e-004,-2.420950e-005
4.373526e-004,-1.448558e-005
3.700955e-004,-1.416145e-005
2.610255e-004,-2.258885e-005
1.190562e-004,-3.458168e-005
-6.731887e-005,-4.560212e-005
-3.081479e-004,-5.192267e-005
-5.880346e-004,-4.657451e-005
-8.567389e-004,-3.377135e-005
-1.054621e-003,-1.902341e-005
-1.133222e-003,-8.165034e-006
-1.073258e-003,-2.654814e-006
-8.904485e-004,3.179537e-006
-6.322784e-004,1.176900e-005
-3.591985e-004,2.424803e-005
-1.195039e-004,4.045456e-005
6.103685e-005,5.909207e-005
1.782101e-004,7.108490e-005
2.514636e-004,7.205730e-005
3.049452e-004,6.492643e-005
3.551854e-004,5.909207e-005
4.075326e-004,5.974033e-005
4.624727e-004,6.395403e-005
5.133613e-004,6.379197e-005
5.579292e-004,5.633696e-005
5.937457e-004,4.531652e-005
6.172452e-004,3.915804e-005
6.261588e-004,3.656499e-005
6.237278e-004,3.867184e-005
6.153004e-004,4.272347e-005
5.994180e-004,4.807163e-005
5.764047e-004,5.601283e-005
5.446399e-004,6.573675e-005
4.982892e-004,7.400208e-005
4.320044e-004,7.886404e-005
3.467580e-004,7.999850e-005
2.472499e-004,7.983643e-005
1.339663e-004,8.048469e-005
3.827798e-006,8.437427e-005
-1.418689e-004,9.101894e-005
-2.875656e-004,9.733949e-005
-4.112214e-004,1.004187e-004
-4.907955e-004,9.766362e-005
-5.121881e-004,9.312579e-005
-4.684305e-004,8.875003e-005
-3.778360e-004,8.615698e-005
-2.699005e-004,8.388807e-005
-1.712027e-004,8.826383e-005
-9.179074e-005,1.010670e-004
-3.749886e-005,1.200286e-004
-1.399939e-005,1.383420e-004
-2.064406e-005,1.498487e-004
-4.706071e-005,1.490383e-004
-7.104637e-005,1.349386e-004
-7.104637e-005,1.116012e-004
-3.279896e-005,8.664317e-005
4.110282e-005,6.395403e-005
1.344524e-004,4.288554e-005
2.253711e-004,2.424803e-005
2.905214e-004,1.241726e-005
3.130485e-004,1.079661e-005
2.994350e-004,1.241726e-005
2.718839e-004,1.079661e-005
2.564876e-004,7.555300e-006
2.658874e-004,3.827798e-006
2.867939e-004,1.234753e-006
2.940868e-004,-4.599598e-006
2.666978e-004,-1.383732e-005
2.036543e-004,-2.372330e-005
1.263492e-004,-3.263690e-005
5.795762e-005,-4.138842e-005
1.225519e-005,-5.078821e-005
-1.059601e-005,-5.581224e-005
-1.205460e-005,-5.208473e-005
1.225519e-005,-4.398147e-005
6.038860e-005,-3.976777e-005
1.226217e-004,-3.895744e-005
1.791825e-004,-3.539201e-005
2.182402e-004,-2.939559e-005
2.295848e-004,-2.048200e-005
2.098128e-004,-7.516774e-006
1.723757e-004,4.638125e-006
1.393144e-004,1.112074e-005
1.312111e-004,8.365628e-006
1.534141e-004,-6.220251e-006
1.974959e-004,-3.036798e-005
2.404432e-004,-5.791909e-005
2.589186e-004,-8.060822e-005
2.347709e-004,-9.260106e-005
1.628139e-004,-9.098041e-005
4.823369e-005,-7.833932e-005
-9.260106e-005,-5.905355e-005
-2.357047e-004,-3.749886e-005
-3.619536e-004,-2.339917e-005
-4.611375e-004,-2.745081e-005
-5.321222e-004,-4.592625e-005
-5.802555e-004,-6.229485e-005
-6.102376e-004,-6.294311e-005
-6.163961e-004,-3.944364e-005
-5.953276e-004,-3.858999e-007
-5.478425e-004,3.753739e-005
-4.765338e-004,5.811968e-005
-3.848048e-004,6.006446e-005
-2.752486e-004,5.568870e-005
-1.522411e-004,5.212327e-005
-2.858526e-005,5.115087e-005
7.659513e-005,5.228533e-005
1.492004e-004,5.406805e-005
1.874478e-004,5.487837e-005
1.986303e-004,5.423011e-005
1.914994e-004,5.406805e-005
1.796687e-004,5.358185e-005
1.671896e-004,5.439218e-005
1.529279e-004,5.763348e-005
1.339663e-004,6.168512e-005
1.116012e-004,6.525056e-005
8.696730e-005,6.476436e-005
6.541262e-005,5.828174e-005
5.552663e-005,4.628891e-005
5.536457e-005,3.737532e-005
6.006446e-005,3.348575e-005
6.719534e-005,3.607880e-005
8.145709e-005,4.320967e-005
1.069013e-004,5.341978e-005
1.428798e-004,6.460230e-005
1.840444e-004,7.918817e-005
2.209953e-004,9.636710e-005
2.420638e-004,1.067393e-004
2.393087e-004,1.067393e-004
2.156472e-004,9.750155e-005
1.814514e-004,9.085687e-005
1.527658e-004,9.507057e-005
1.367214e-004,1.103047e-004
1.255388e-004,1.279698e-004
1.056048e-004,1.363972e-004
7.076077e-005,1.357490e-004
1.825161e-005,1.310491e-004
-4.689864e-005,1.250527e-004
-1.130213e-004,1.185700e-004
-1.499722e-004,1.120874e-004
-1.318209e-004,1.020394e-004
-6.213279e-005,8.599491e-005
2.635488e-005,6.444023e-005
1.025256e-004,4.369587e-005
1.514693e-004,2.894792e-005
1.712413e-004,2.392390e-005
1.673517e-004,2.927205e-005
1.470936e-004,4.094075e-005
1.137081e-004,5.066468e-005
7.254349e-005,4.985435e-005
2.943412e-005,3.721326e-005
-1.772689e-005,2.165498e-005
-8.255302e-005,9.986280e-006
-1.770371e-004,3.341602e-006
-3.144684e-004,-2.330684e-006
-4.943609e-004,-1.027188e-005
-6.881910e-004,-1.853721e-005
-8.697041e-004,-2.420950e-005
-1.030149e-003,-2.615428e-005
-1.167418e-003,-2.550602e-005
-1.268223e-003,-2.307504e-005
-1.320894e-003,-1.934754e-005
-1.318301e-003,-1.027188e-005
-1.256878e-003,-1.520357e-006
-1.133870e-003,-2.492749e-006
-9.447403e-004,-1.205460e-005
-7.027768e-004,-2.339917e-005
-4.447689e-004,-2.842320e-005
-2.229016e-004,-2.453363e-005
-7.979790e-005,-1.156841e-005
-2.923352e-005,3.503668e-006
-4.965375e-005,1.274139e-005
-9.308726e-005,1.322759e-005
-1.078352e-004,5.448451e-006
-6.148453e-005,-8.002969e-006
4.645098e-005,-2.469570e-005
1.949028e-004,-3.685059e-005
3.514579e-004,-4.171255e-005
4.854860e-004,-3.636440e-005
5.811046e-004,-2.177852e-005
6.334517e-004,-2.168618e-006
6.439860e-004,1.630683e-005
6.209727e-004,2.975825e-005
5.804563e-004,3.640293e-005
5.454502e-004,3.786152e-005
5.329712e-004,3.932010e-005
5.488536e-004,4.126489e-005
5.809425e-004,4.110282e-005
5.995801e-004,3.640293e-005
5.822390e-004,2.716520e-005
5.224369e-004,1.663096e-005
4.316803e-004,8.203561e-006
3.316860e-004,6.907039e-006
2.446569e-004,1.241726e-005
1.902029e-004,2.149292e-005
1.754550e-004,3.089270e-005
1.979821e-004,3.737532e-005
2.522740e-004,3.948217e-005
3.305515e-004,3.705119e-005
4.245494e-004,3.089270e-005
5.174129e-004,2.441009e-005
5.916388e-004,2.133085e-005
6.430136e-004,2.181705e-005
6.856368e-004,3.073064e-005
7.396046e-004,4.871989e-005
8.120479e-004,6.897806e-005
9.032907e-004,8.113296e-005
1.002313e-003,8.032263e-005
1.086911e-003,6.735740e-005
1.134396e-003,4.790957e-005
1.132775e-003,3.121684e-005
1.081887e-003,2.068259e-005
9.797856e-004,1.646889e-005
8.245269e-004,1.889987e-005
6.425274e-004,2.765140e-005
4.407560e-004,4.256141e-005
2.033302e-004,6.217131e-005
-8.871149e-005,7.983643e-005
-4.271038e-004,8.259154e-005
-7.484793e-004,6.930219e-005
-9.656468e-004,4.142695e-005
-1.025125e-003,1.014835e-005
-9.269132e-004,-1.578211e-005
-7.126628e-004,-2.939559e-005
-4.494688e-004,-2.680255e-005
-2.058847e-004,-1.351319e-005
-3.604027e-005,6.907039e-006
3.996836e-005,2.878586e-005
3.899597e-005,4.466826e-005
-4.761663e-006,4.953022e-005
-5.629843e-005,4.742337e-005
-1.032974e-004,4.061663e-005
-1.571030e-004,2.943412e-005
-2.172293e-004,1.565857e-005
-2.493182e-004,3.989864e-006
-2.254946e-004,-2.238345e-007
-1.459205e-004,9.106226e-007
-3.847125e-005,1.072688e-006
5.001641e-005,-4.761663e-006
7.594687e-005,-1.497178e-005
8.365628e-006,-2.404744e-005
-1.421931e-004,-2.809907e-005
-3.178718e-004,-2.745081e-005
-4.449310e-004,-2.420950e-005
-4.710235e-004,-1.999580e-005
-4.003631e-004,-1.707863e-005
-3.053928e-004,-1.594417e-005
-2.639041e-004,-1.610623e-005
-3.039342e-004,-1.691656e-005
-4.083042e-004,-1.724069e-005
-5.376323e-004,-1.772689e-005
-6.444334e-004,-2.015787e-005
-6.805739e-004,-2.550602e-005
-6.220684e-004,-3.215070e-005
-4.794509e-004,-3.506787e-005
-2.909690e-004,-2.907146e-005
-1.060525e-004,-1.497178e-005
4.256141e-005,3.503668e-006
1.453108e-004,2.538249e-005
2.101370e-004,5.309565e-005
2.464396e-004,8.032263e-005
2.607013e-004,9.620503e-005
2.637806e-004,9.588090e-005
2.662116e-004,8.307774e-005
2.790147e-004,6.687120e-005
3.059176e-004,5.617490e-005
3.418961e-004,5.082674e-005
3.769022e-004,4.742337e-005
4.065602e-004,4.596478e-005
4.266563e-004,4.758544e-005
4.352457e-004,5.309565e-005
4.375147e-004,6.103685e-005
4.397836e-004,7.367795e-005
4.465903e-004,8.972242e-005
4.602038e-004,1.049566e-004
4.721966e-004,1.101426e-004
4.632831e-004,9.993253e-005
4.143393e-004,7.886404e-005
3.073762e-004,5.698522e-005
1.381799e-004,4.645098e-005
-7.023605e-005,5.390598e-005
-2.750866e-004,7.902610e-005
-4.332623e-004,1.119254e-004
-5.227224e-004,1.410971e-004
-5.403875e-004,1.547106e-004
-4.987367e-004,1.521176e-004
-4.235384e-004,1.406109e-004
-3.444505e-004,1.268354e-004
-2.822175e-004,1.133840e-004
-2.438080e-004,1.005808e-004
-2.182017e-004,8.939829e-005
-1.874093e-004,8.064676e-005
-1.412206e-004,7.140904e-005
-8.741497e-005,6.217131e-005
-4.106429e-005,5.585077e-005
-1.156841e-005,4.709924e-005
9.106226e-007,2.992031e-005
3.503668e-006,3.503668e-006
1.234753e-006,-2.793700e-005
-3.141010e-006,-5.743289e-005
-4.923729e-006,-7.590833e-005
4.476060e-006,-7.607040e-005
2.554455e-005,-5.791909e-005
4.985435e-005,-2.485776e-005
6.654707e-005,1.484824e-005
6.444023e-005,5.244739e-005
3.591673e-005,8.453633e-005
-1.707863e-005,1.127357e-004
-7.785312e-005,1.297525e-004
-1.274451e-004,1.235941e-004
-1.579134e-004,8.680524e-005
-1.733096e-004,3.235129e-005
-1.919471e-004,-2.015787e-005
-2.301945e-004,-5.743289e-005
-2.992343e-004,-7.979790e-005
-3.971218e-004,-1.031353e-004
-5.162397e-004,-1.515928e-004
-6.454058e-004,-2.357047e-004
-7.697098e-004,-3.436402e-004
-8.635456e-004,-4.473620e-004
-9.000103e-004,-5.134846e-004
-8.632215e-004,-5.160776e-004
-7.609583e-004,-4.536825e-004
-6.107238e-004,-3.460712e-004
-4.220798e-004,-2.287359e-004
-2.058847e-004,-1.363587e-004
1.776542e-005,-8.465986e-005
2.203471e-004,-6.650855e-005
3.845193e-004,-6.472583e-005
5.156302e-004,-5.743289e-005
6.235657e-004,-3.231276e-005
7.135121e-004,8.689757e-006
7.810934e-004,5.714729e-005
8.157754e-004,1.017153e-004
8.144788e-004,1.342904e-004
7.891966e-004,1.492004e-004
7.577559e-004,1.467694e-004
7.397666e-004,1.316973e-004
7.438183e-004,1.190562e-004
7.682901e-004,1.184080e-004
7.974620e-004,1.291043e-004
8.143167e-004,1.430419e-004
8.089686e-004,1.527658e-004
7.749348e-004,1.521176e-004
7.013571e-004,1.432040e-004
5.862907e-004,1.365593e-004
4.354078e-004,1.368834e-004
2.517877e-004,1.404489e-004
3.591673e-005,1.438522e-004
-1.964849e-004,1.440143e-004
-4.057112e-004,1.406109e-004
-5.520561e-004,1.342904e-004
-6.162340e-004,1.300767e-004
-6.115341e-004,1.310491e-004
-5.695592e-004,1.376937e-004
-5.065158e-004,1.466074e-004
-4.193247e-004,1.560071e-004
-3.109030e-004,1.595726e-004
-1.940539e-004,1.535762e-004
-7.299116e-005,1.435281e-004
5.471631e-005,1.341283e-004
1.853410e-004,1.248906e-004
3.030004e-004,1.185700e-004
3.793332e-004,1.154908e-004
3.995913e-004,1.167873e-004
3.778746e-004,1.150046e-004
3.365479e-004,1.083599e-004
2.874421e-004,1.036600e-004
2.316917e-004,1.002567e-004
1.702689e-004,9.490851e-005
1.083599e-004,8.891209e-005
5.828174e-005,8.226741e-005
3.073064e-005,8.064676e-005
1.825161e-005,8.631904e-005
1.403791e-005,9.328785e-005
2.035846e-005,9.701536e-005
3.899597e-005,9.539470e-005
6.670914e-005,9.053274e-005
9.312579e-005,8.048469e-005
1.034980e-004,6.735740e-005
8.939829e-005,5.001641e-005
5.406805e-005,2.910999e-005
3.341602e-006,9.500084e-006
-5.500191e-005,-6.176923e-008
-1.208004e-004,4.962256e-006
-2.042640e-004,2.343770e-005
-3.156029e-004,4.580272e-005
-4.496309e-004,6.217131e-005
-5.971103e-004,6.589881e-005
-7.496137e-004,6.314371e-005
-8.849382e-004,6.022653e-005
-9.624055e-004,5.617490e-005
-9.398783e-004,4.661304e-005
-8.013126e-004,3.008238e-005
-5.737729e-004,7.231170e-006
-3.125237e-004,-1.562004e-005
-6.893953e-005,-3.117831e-005
1.286181e-004,-3.409548e-005
2.735045e-004,-2.988179e-005
3.744712e-004,-2.048200e-005
4.427008e-004,-1.237873e-005
4.903480e-004,-1.092015e-005
5.295678e-004,-1.740276e-005
5.793219e-004,-3.085418e-005
6.456067e-004,-4.608832e-005
7.112431e-004,-5.646050e-005
7.481941e-004,-5.953974e-005
7.324737e-004,-5.386745e-005
6.621373e-004,-4.219875e-005
5.486915e-004,-2.842320e-005
3.885709e-004,-1.610623e-005
1.668655e-004,-4.923729e-006
-1.170729e-004,8.689757e-006
-4.331002e-004,2.359977e-005
-7.139593e-004,3.380988e-005
-8.859106e-004,3.915804e-005
-9.056826e-004,3.834771e-005
-7.807303e-004,3.251336e-005
-5.591870e-004,2.035846e-005
-3.157650e-004,4.476060e-006
-1.180453e-004,-9.623623e-006
-1.358292e-006,-2.339917e-005
4.142695e-005,-3.992984e-005
4.418206e-005,-5.646050e-005
4.661304e-005,-7.153257e-005
7.756751e-005,-8.271508e-005
1.446626e-004,-9.114247e-005
2.320158e-004,-9.940780e-005
3.132105e-004,-1.070249e-004
3.655576e-004,-1.092938e-004
3.778746e-004,-1.010285e-004
3.459477e-004,-8.725291e-005
2.718839e-004,-7.720485e-005
1.662173e-004,-8.158062e-005
4.871989e-005,-1.015147e-004
-5.078821e-005,-1.217728e-004
-1.045939e-004,-1.195039e-004
-1.018388e-004,-8.028410e-005
-5.840528e-005,-1.351319e-005
-6.382316e-006,5.520250e-005
3.899597e-005,1.036600e-004
7.772959e-005,1.239182e-004
1.174356e-004,1.244044e-004
1.556830e-004,1.219734e-004
1.879340e-004,1.265113e-004
2.119197e-004,1.370455e-004
2.255332e-004,1.475797e-004
2.258573e-004,1.487142e-004
2.206712e-004,1.318594e-004
2.171058e-004,9.993253e-005
2.156472e-004,6.541262e-005
2.138645e-004,4.499239e-005
2.099749e-004,4.612685e-005
2.077060e-004,6.346784e-005
2.106232e-004,8.356393e-005
2.156472e-004,9.766362e-005
2.166196e-004,1.017153e-004
2.192126e-004,9.863601e-005
2.347709e-004,9.263960e-005
2.739907e-004,8.615698e-005
3.396272e-004,8.194328e-005
4.222805e-004,8.453633e-005
4.994237e-004,9.247753e-005
5.366987e-004,9.636710e-005
5.119027e-004,9.118101e-005
4.302217e-004,7.870197e-005
3.133726e-004,6.217131e-005
1.808031e-004,4.693717e-005
4.175108e-005,3.640293e-005
-9.405964e-005,3.462021e-005
-2.091260e-004,4.077869e-005
-2.825416e-004,4.709924e-005
-3.112271e-004,4.061663e-005
-3.050687e-004,1.744128e-005
-2.749245e-004,-1.140634e-005
-2.282497e-004,-3.409548e-005
-1.733096e-004,-4.608832e-005
-1.209625e-004,-4.787104e-005
-8.303921e-005,-4.300908e-005
-7.153257e-005,-3.441962e-005
-9.535618e-005,-2.339917e-005
-1.556445e-004,-1.173047e-005
-2.410529e-004,-4.275467e-006
-3.279199e-004,-6.382316e-006
-3.977700e-004,-2.291298e-005
-4.454172e-004,-5.095028e-005
-4.755614e-004,-8.320127e-005
-4.980884e-004,-1.081593e-004
-5.290429e-004,-1.122110e-004
-6.087790e-004,-9.162867e-005
-7.724649e-004,-5.176060e-005
-1.019615e-003,-1.358292e-006
-1.297394e-003,4.936815e-005
-1.512293e-003,8.534666e-005
-1.572257e-003,9.539470e-005
-1.428019e-003,7.740545e-005
-1.105347e-003,4.385793e-005
-6.729568e-004,1.063454e-005
-2.096122e-004,-7.030578e-006
2.187264e-004,-6.382316e-006
5.660325e-004,5.286386e-006
8.131823e-004,2.003433e-005
9.642273e-004,3.494434e-005
1.029702e-003,4.304760e-005
1.025164e-003,4.207521e-005
9.750857e-004,3.543053e-005
9.008597e-004,2.829966e-005
8.172339e-004,1.906194e-005
7.303669e-004,2.369210e-006
6.365310e-004,-1.643037e-005
5.277850e-004,-2.566809e-005
3.918122e-004,-1.886135e-005
2.318537e-004,9.106226e-007
7.384001e-005,2.295151e-005
-4.673658e-005,3.834771e-005
-1.042698e-004,4.450619e-005
-9.130454e-005,4.596478e-005
-1.918548e-005,5.034054e-005
8.842590e-005,5.649903e-005
2.005751e-004,5.909207e-005
2.970040e-004,5.714729e-005
3.658818e-004,5.471631e-005
4.023465e-004,5.309565e-005
4.062360e-004,5.374392e-005
3.783608e-004,5.698522e-005
3.239068e-004,6.281957e-005
2.511395e-004,7.286762e-005
1.751308e-004,8.810177e-005
1.150046e-004,1.052807e-004
7.967437e-005,1.222975e-004
7.173317e-005,1.368834e-004
9.004655e-005,1.472556e-004
1.302387e-004,1.529279e-004
1.830720e-004,1.496866e-004
2.316917e-004,1.396385e-004
2.644288e-004,1.274836e-004
2.782044e-004,1.128978e-004
2.777182e-004,9.798775e-005
2.697770e-004,8.307774e-005
2.662116e-004,6.946425e-005
2.754493e-004,5.390598e-005
2.961937e-004,3.332369e-005
3.101313e-004,1.176900e-005
2.783665e-004,-6.706447e-006
1.668655e-004,-1.675450e-005
-2.129233e-005,-1.529591e-005
-2.352185e-004,-8.327101e-006
-4.133283e-004,-3.789271e-006
-5.220741e-004,-5.571990e-006
-5.598352e-004,-1.610623e-005
-5.337428e-004,-3.247483e-005
-4.580583e-004,-4.851930e-005
-3.566054e-004,-5.483985e-005
-2.574215e-004,-4.916756e-005
-1.763888e-004,-3.652646e-005
-1.161005e-004,-2.599222e-005
-8.028410e-005,-1.805102e-005
-7.007398e-005,-9.947754e-006
-8.384953e-005,7.485573e-007
-1.102662e-004,1.095867e-005
-1.383035e-004,1.971020e-005
-1.561307e-004,2.343770e-005
-1.556445e-004,2.068259e-005
-1.323070e-004,1.371378e-005
-9.292519e-005,2.369210e-006
-5.386745e-005,-1.837515e-005
-2.907146e-005,-4.706071e-005
-2.842320e-005,-7.396355e-005
-4.819516e-005,-8.984595e-005
-8.012203e-005,-8.919769e-005
-1.191798e-004,-7.428768e-005
-1.590478e-004,-5.224680e-005
-1.885437e-004,-3.409548e-005
-2.005366e-004,-2.372330e-005
-1.963229e-004,-1.837515e-005
-1.818990e-004,-1.237873e-005
-1.605064e-004,-7.354708e-006
-1.358725e-004,-2.330684e-006
-1.180453e-004,6.096713e-006
-1.065387e-004,2.052053e-005
-9.649063e-005,3.526847e-005
-8.271508e-005,4.304760e-005
-6.116039e-005,4.418206e-005
-2.615428e-005,3.996836e-005
2.522042e-005,3.089270e-005
9.150514e-005,1.549650e-005
1.662173e-004,-4.437533e-006
2.367157e-004,-2.031993e-005
2.924662e-004,-2.550602e-005
3.240689e-004,-1.562004e-005
3.295791e-004,8.527692e-006
3.219621e-004,4.272347e-005
3.164518e-004,7.951231e-005
3.263378e-004,1.072255e-004
3.602095e-004,1.206769e-004
4.153117e-004,1.201907e-004
4.725208e-004,1.094944e-004
5.075269e-004,9.166720e-005
5.042856e-004,7.173317e-005
4.621486e-004,5.358185e-005
3.906778e-004,4.256141e-005
2.983005e-004,4.158902e-005
1.931201e-004,4.953022e-005
9.814982e-005,5.779555e-005
3.380988e-005,6.103685e-005
1.176900e-005,5.811968e-005
2.586868e-005,5.439218e-005
6.346784e-005,5.617490e-005
1.080358e-004,6.119892e-005
1.440143e-004,6.395403e-005
1.626518e-004,6.606088e-005
1.624898e-004,6.865393e-005
1.511452e-004,6.897806e-005
1.323456e-004,6.687120e-005
1.086841e-004,6.249544e-005
8.518459e-005,5.666109e-005
6.606088e-005,4.709924e-005
5.552663e-005,3.445814e-005
4.645098e-005,2.035846e-005
2.862379e-005,1.306552e-005
8.527692e-006,2.052053e-005
1.063454e-005,4.077869e-005
5.228533e-005,6.362990e-005
1.187321e-004,8.291567e-005
1.561692e-004,9.101894e-005
1.114392e-004,8.583285e-005
-4.560212e-005,6.800567e-005
-2.945344e-004,4.304760e-005
-5.843071e-004,2.133085e-005
-8.823452e-004,9.500084e-006
-1.183300e-003,1.225519e-005
-1.482149e-003,2.927205e-005
-1.722978e-003,5.633696e-005
-1.824593e-003,8.567078e-005
-1.736591e-003,1.065772e-004
-1.465132e-003,1.124116e-004
-1.068234e-003,1.051186e-004
-6.332508e-004,9.150514e-005
-2.423494e-004,7.367795e-005
5.066468e-005,4.904402e-005
2.271538e-004,2.295151e-005
2.936006e-004,3.017472e-006
2.731804e-004,-5.247859e-006
1.984682e-004,-5.247859e-006
1.054428e-004,-4.113402e-006
1.922400e-005,-6.058186e-006
-4.900549e-005,-1.448558e-005
-9.049421e-005,-3.069211e-005
-9.649063e-005,-4.868136e-005
-6.440169e-005,-6.715681e-005
-1.844488e-006,-8.644258e-005
7.870197e-005,-1.060525e-004
1.594105e-004,-1.229073e-004
2.125679e-004,-1.316588e-004
2.305572e-004,-1.269589e-004
2.370398e-004,-1.050801e-004
2.610255e-004,-6.974985e-005
3.099692e-004,-3.312309e-005
3.728506e-004,-2.006553e-006
4.316803e-004,2.392390e-005
4.696036e-004,4.450619e-005
4.673347e-004,5.909207e-005
4.164462e-004,6.638501e-005
3.415720e-004,6.606088e-005
2.905214e-004,5.779555e-005
2.989488e-004,4.564065e-005
3.649094e-004,3.883391e-005
4.519385e-004,4.645098e-005
5.221128e-004,6.379197e-005
5.671670e-004,7.886404e-005
6.026593e-004,8.680524e-005
6.514410e-004,8.275361e-005
7.201567e-004,7.157111e-005
8.005412e-004,5.876794e-005
8.882186e-004,4.661304e-005
9.804339e-004,3.769945e-005
1.076377e-003,3.251336e-005
1.170050e-003,2.748933e-005
1.251569e-003,2.505835e-005
1.312992e-003,2.813760e-005
1.350429e-003,3.656499e-005
1.353023e-003,4.547859e-005
1.301648e-003,4.953022e-005
1.186743e-003,5.098881e-005
1.007985e-003,5.471631e-005
7.763934e-004,6.217131e-005
5.149819e-004,6.897806e-005
2.341226e-004,6.995045e-005
-7.833932e-005,6.298164e-005
-4.253211e-004,5.568870e-005
-7.787854e-004,5.293359e-005
-1.091571e-003,5.552663e-005
-1.307767e-003,6.217131e-005
-1.383127e-003,6.541262e-005
-1.314249e-003,5.957827e-005
-1.133222e-003,4.871989e-005
-8.990379e-004,3.834771e-005
-6.671225e-004,2.959618e-005
-4.820439e-004,2.149292e-005
-3.588744e-004,1.419998e-005
-2.955068e-004,1.144487e-005
-2.805968e-004,1.906194e-005
-3.000446e-004,3.624086e-005
-3.408851e-004,5.698522e-005
-3.802670e-004,7.367795e-005
-4.010113e-004,8.016056e-005
-4.091146e-004,7.465034e-005
-4.264555e-004,5.828174e-005
-4.687546e-004,3.299956e-005
-5.207775e-004,4.313994e-006
-5.471942e-004,-1.902341e-005
-5.227224e-004,-3.247483e-005
-4.486585e-004,-3.992984e-005
-3.509331e-004,-4.398147e-005
-2.540181e-004,-4.560212e-005
-1.702303e-004,-4.479180e-005
-1.029732e-004,-4.187462e-005
-4.868136e-005,-3.571614e-005
-5.734055e-006,-2.971972e-005
2.797553e-005,-2.501983e-005
5.585077e-005,-1.999580e-005
8.761556e-005,-1.367526e-005
1.331559e-004,-1.059601e-005
1.963614e-004,-1.367526e-005
2.760976e-004,-2.534396e-005
3.606957e-004,-3.944364e-005
4.316803e-004,-4.754691e-005
4.736553e-004,-4.689864e-005
4.822447e-004,-4.138842e-005
4.709001e-004,-3.004385e-005
4.571246e-004,-1.367526e-005
4.480489e-004,2.207145e-006
4.383250e-004,1.225519e-005
4.148255e-004,1.841368e-005
3.653956e-004,2.311357e-005
2.854973e-004,2.716520e-005
1.782101e-004,2.894792e-005
6.411610e-005,2.667901e-005
-3.360929e-005,2.343770e-005
-1.055663e-004,2.149292e-005
-1.554824e-004,2.035846e-005
-1.893540e-004,1.630683e-005
-2.034537e-004,9.662150e-006
-1.935677e-004,3.827798e-006
-1.653684e-004,2.855406e-006
-1.271210e-004,1.396819e-006
-8.838737e-005,-5.479652e-007
-5.338126e-005,2.369210e-006
-2.485776e-005,1.274139e-005
-1.286493e-005,3.040651e-005
-4.187462e-005,5.050261e-005
-1.203142e-004,7.076077e-005
-2.172293e-004,8.631904e-005
-2.899966e-004,9.280166e-005
-3.105789e-004,9.150514e-005
-2.788141e-004,8.567078e-005
-2.180396e-004,8.097089e-005
-1.561307e-004,8.259154e-005
-1.054042e-004,8.907416e-005
-5.483985e-005,9.555677e-005
8.365628e-006,9.847395e-005
8.615698e-005,9.474644e-005
1.605450e-004,8.518459e-005
2.112714e-004,7.546067e-005
2.227780e-004,7.238143e-005
1.924718e-004,7.173317e-005
1.406109e-004,7.076077e-005
9.409818e-005,7.011251e-005
7.999850e-005,7.286762e-005
8.907416e-005,7.416414e-005
7.659513e-005,6.930219e-005
5.286386e-006,5.779555e-005
-1.211245e-004,4.207521e-005
-2.523974e-004,2.441009e-005
-3.214373e-004,9.338019e-006
-2.951827e-004,2.045080e-006
-1.948643e-004,1.396819e-006
-9.746302e-005,4.151929e-006
-1.026491e-004,3.179537e-006
-2.746004e-004,-2.492749e-006
-5.979206e-004,-1.286493e-005
-9.820153e-004,-1.902341e-005
-1.308739e-003,-1.545797e-005
-1.477125e-003,-7.192643e-006
-1.448601e-003,-1.358292e-006
-1.246992e-003,-5.734055e-006
-9.453886e-004,-1.691656e-005
-6.270924e-004,-2.501983e-005
-3.447747e-004,-2.404744e-005
-1.063766e-004,-9.461557e-006
1.012291e-004,1.614476e-005
2.816078e-004,4.726130e-005
4.315182e-004,7.302969e-005
5.545259e-004,8.486046e-005
6.516030e-004,8.664317e-005
7.172396e-004,8.405013e-005
7.452769e-004,7.983643e-005
7.371736e-004,7.189524e-005
7.042743e-004,5.779555e-005
6.569512e-004,3.980630e-005
6.037937e-004,2.068259e-005
5.522569e-004,1.072688e-006
5.080131e-004,-1.902341e-005
4.783551e-004,-3.814712e-005
4.618245e-004,-6.083626e-005
4.546936e-004,-8.595638e-005
4.456179e-004,-1.029732e-004
4.295734e-004,-1.032974e-004
4.049395e-004,-8.595638e-005
3.822504e-004,-6.002593e-005
3.738230e-004,-3.360929e-005
3.791711e-004,-1.724069e-005
3.837089e-004,-1.772689e-005
3.730126e-004,-2.615428e-005
3.490270e-004,-2.210265e-005
3.226103e-004,8.851824e-006
3.026763e-004,5.763348e-005
2.940868e-004,1.033359e-004
3.013797e-004,1.252147e-004
3.222862e-004,1.187321e-004
3.470822e-004,9.166720e-005
3.637749e-004,5.844381e-005
3.670162e-004,3.186510e-005
3.571302e-004,1.808955e-005
3.368721e-004,1.517237e-005
3.140208e-004,1.906194e-005
3.012177e-004,2.878586e-005
3.119140e-004,4.094075e-005
3.449753e-004,5.439218e-005
3.871123e-004,7.124698e-005
4.195254e-004,8.875003e-005
4.289252e-004,9.669123e-005
4.081808e-004,9.263960e-005
3.587509e-004,8.421220e-005
2.876042e-004,7.578480e-005
2.101370e-004,7.043664e-005
1.470936e-004,6.897806e-005
1.117633e-004,7.432621e-005
1.007429e-004,8.291567e-005
1.002567e-004,9.507057e-005
9.377405e-005,1.091703e-004
6.330577e-005,1.244044e-004
4.244267e-007,1.367214e-004
-8.757703e-005,1.454729e-004
-1.765509e-004,1.508210e-004
-2.292221e-004,1.493625e-004
-2.198223e-004,1.410971e-004
-1.512687e-004,1.287802e-004
-5.483985e-005,1.128978e-004
2.716520e-005,9.620503e-005
6.103685e-005,7.886404e-005
3.235129e-005,6.217131e-005
-4.965375e-005,4.385793e-005
-1.520790e-004,2.165498e-005
-2.392702e-004,-3.789271e-006
-2.841623e-004,-2.761287e-005
-2.815692e-004,-4.155049e-005
-2.493182e-004,-3.944364e-005
-2.194982e-004,-2.680255e-005
-2.133397e-004,-1.594417e-005
-2.378116e-004,-1.788895e-005
-2.935620e-004,-2.955766e-005
-3.711913e-004,-4.365734e-005
-4.567618e-004,-5.386745e-005
-5.324463e-004,-5.937767e-005
-5.903036e-004,-5.840528e-005
-6.279027e-004,-5.257093e-005
-6.491333e-004,-4.592625e-005
-6.590192e-004,-4.025397e-005
-6.685811e-004,-3.782299e-005
-7.048837e-004,-3.652646e-005
-7.972610e-004,-4.041603e-005
-9.429576e-004,-5.159854e-005
-1.099513e-003,-6.488790e-005
-1.207934e-003,-7.153257e-005
-1.227220e-003,-6.650855e-005
-1.148780e-003,-5.176060e-005
-9.823395e-004,-3.555407e-005
-7.488034e-004,-2.696461e-005
-4.847991e-004,-2.971972e-005
-2.371633e-004,-4.236081e-005
-4.544005e-005,-5.565017e-005
6.865393e-005,-6.035006e-005
1.096565e-004,-5.013995e-005
1.067393e-004,-2.890940e-005
1.036600e-004,-6.382316e-006
1.357490e-004,8.203561e-006
2.086784e-004,1.128280e-005
3.132105e-004,-3.858999e-007
4.323286e-004,-2.420950e-005
5.538776e-004,-5.208473e-005
6.687820e-004,-7.444974e-005
7.744486e-004,-8.077029e-005
8.692570e-004,-7.007398e-005
9.564482e-004,-4.835723e-005
1.032457e-003,-2.437157e-005
1.076863e-003,-2.816880e-006
1.062601e-003,1.112074e-005
9.713582e-004,1.776542e-005
8.099410e-004,2.230324e-005
6.003904e-004,2.829966e-005
3.564820e-004,3.688912e-005
8.405013e-005,4.628891e-005
-2.071812e-004,5.341978e-005
-4.927402e-004,5.957827e-005
-7.296797e-004,6.281957e-005
-8.774832e-004,6.184718e-005
-9.089239e-004,5.925414e-005
-8.278912e-004,5.925414e-005
-6.677707e-004,6.751947e-005
-4.716718e-004,8.080882e-005
-2.733039e-004,9.409818e-005
-9.649063e-005,1.077117e-004
4.175108e-005,1.187321e-004
1.399627e-004,1.248906e-004
2.174299e-004,1.287802e-004
2.919800e-004,1.292664e-004
3.722023e-004,1.234320e-004
4.564763e-004,1.128978e-004
5.358884e-004,1.020394e-004
6.073592e-004,9.409818e-005
6.715371e-004,8.842590e-005
7.316634e-004,8.323980e-005
7.913035e-004,8.016056e-005
8.444610e-004,8.680524e-005
8.763878e-004,1.034980e-004
8.681225e-004,1.232699e-004
8.105892e-004,1.368834e-004
7.094605e-004,1.414213e-004
5.867769e-004,1.334801e-004
4.673347e-004,1.203528e-004
3.675024e-004,1.059289e-004
3.015418e-004,9.166720e-005
2.731804e-004,7.870197e-005
2.720459e-004,6.962632e-005
2.718839e-004,6.136099e-005
2.548670e-004,5.277152e-005
2.266676e-004,4.466826e-005
1.997648e-004,3.867184e-005
1.859892e-004,3.218923e-005
1.835582e-004,2.635488e-005
1.830720e-004,2.003433e-005
1.749688e-004,1.209313e-005
1.449867e-004,2.855406e-006
7.805372e-005,-8.327101e-006
-2.307504e-005,-2.161646e-005
-1.378173e-004,-3.377135e-005
-2.418632e-004,-4.122636e-005
-3.258130e-004,-3.960571e-005
-3.875599e-004,-2.745081e-005
-4.259694e-004,-8.489165e-006
-4.467137e-004,1.355172e-005
-4.663236e-004,3.818564e-005
-4.964678e-004,6.330577e-005
-5.364979e-004,7.902610e-005
-5.705316e-004,7.335382e-005
-5.857657e-004,4.839576e-005
-5.823624e-004,1.711715e-005
-5.645352e-004,-1.027188e-005
-5.394151e-004,-2.761287e-005
-5.084606e-004,-3.685059e-005
-4.694028e-004,-4.333321e-005
-4.181902e-004,-4.787104e-005
-3.572537e-004,-4.706071e-005
-2.927517e-004,-4.122636e-005
-2.303566e-004,-3.134038e-005
-1.726613e-004,-2.113026e-005
-1.258244e-004,-1.221667e-005
-9.486997e-005,-5.247859e-006
-7.607040e-005,-6.058186e-006
-5.662256e-005,-1.205460e-005
-1.578211e-005,-1.853721e-005
5.730935e-005,-2.210265e-005
1.524417e-004,-2.145439e-005
2.446569e-004,-1.562004e-005
3.141829e-004,-5.734055e-006
3.465960e-004,2.855406e-006
3.410858e-004,9.013888e-006
3.039728e-004,1.744128e-005
2.448189e-004,2.910999e-005
1.754550e-004,3.948217e-005
1.077117e-004,4.483032e-005
5.082674e-005,4.191315e-005
5.448451e-006,3.121684e-005
-3.555407e-005,1.889987e-005
-7.444974e-005,1.063454e-005
-1.016767e-004,4.962256e-006
-1.045939e-004,4.638125e-006
-7.509801e-005,1.452411e-005
-1.578211e-005,3.186510e-005
5.568870e-005,5.082674e-005
1.192183e-004,6.508849e-005
1.628139e-004,6.946425e-005
1.833962e-004,6.298164e-005
1.848548e-004,5.115087e-005
1.756170e-004,4.061663e-005
1.577899e-004,3.267542e-005
1.300767e-004,2.943412e-005
1.038221e-004,3.073064e-005
9.199134e-005,3.478227e-005
9.377405e-005,3.672705e-005
9.847395e-005,3.073064e-005
9.507057e-005,1.517237e-005
7.610893e-005,1.396819e-006
3.316162e-005,1.072688e-006
-2.647842e-005,1.727922e-005
-8.352540e-005,4.207521e-005
-1.122110e-004,6.265751e-005
-9.681476e-005,7.076077e-005
-4.155049e-005,6.735740e-005
3.510640e-005,6.184718e-005
1.130598e-004,6.038860e-005
1.814514e-004,6.427816e-005
2.362295e-004,7.027457e-005
2.791768e-004,7.578480e-005
3.140208e-004,8.048469e-005
3.446512e-004,8.615698e-005
3.747953e-004,9.069480e-005
4.026706e-004,8.810177e-005
4.276287e-004,7.594687e-005
4.478869e-004,5.844381e-005
4.608521e-004,4.677511e-005
4.676588e-004,4.191315e-005
4.702519e-004,4.223728e-005
4.597176e-004,4.677511e-005
4.157979e-004,4.936815e-005
3.316860e-004,4.758544e-005
2.046267e-004,3.867184e-005
2.165498e-005,2.116879e-005
-2.269532e-004,-7.100305e-007
-5.282326e-004,-2.242678e-005
-8.303222e-004,-4.446767e-005
-1.069855e-003,-6.618442e-005
-1.187190e-003,-8.368747e-005
-1.155749e-003,-9.081834e-005
-9.985460e-004,-8.709084e-005
-7.912645e-004,-7.898758e-005
-6.308199e-004,-7.088431e-005
-5.768521e-004,-6.440169e-005
-6.185029e-004,-6.067420e-005
-7.078008e-004,-6.116039e-005
-7.943438e-004,-6.359137e-005
-8.439357e-004,-6.213279e-005
-8.314567e-004,-4.981582e-005
-7.441035e-004,-2.923352e-005
-5.919242e-004,-9.461557e-006
-4.032802e-004,5.286386e-006
-2.096122e-004,1.744128e-005
-3.798505e-005,3.089270e-005
9.636710e-005,4.191315e-005
1.887443e-004,4.450619e-005
2.516257e-004,3.786152e-005
3.054314e-004,2.732727e-005
3.618301e-004,2.230324e-005
4.260080e-004,2.424803e-005
4.969927e-004,2.992031e-005
5.663566e-004,3.624086e-005
6.136798e-004,4.239934e-005
6.143280e-004,4.936815e-005
5.624671e-004,5.795762e-005
4.828930e-004,6.541262e-005
4.177427e-004,6.719534e-005
3.963500e-004,6.006446e-005
4.182289e-004,4.013043e-005
4.660382e-004,1.031041e-005
5.256782e-004,-1.626830e-005
5.869390e-004,-2.566809e-005
6.413930e-004,-1.659243e-005
6.823955e-004,5.124321e-006
7.089743e-004,3.251336e-005
7.214532e-004,5.682316e-005
7.274497e-004,7.238143e-005
7.302047e-004,7.886404e-005
7.258290e-004,8.242948e-005
7.071915e-004,9.053274e-005
6.705647e-004,1.028497e-004
6.204865e-004,1.167873e-004
5.627912e-004,1.278078e-004
5.002340e-004,1.360731e-004
4.349216e-004,1.386661e-004
3.694472e-004,1.342904e-004
2.939247e-004,1.226217e-004
1.874478e-004,1.054428e-004
3.056858e-005,8.858796e-005
-1.747682e-004,7.432621e-005
-4.036044e-004,6.476436e-005
-6.241752e-004,5.633696e-005
-7.961265e-004,4.515445e-005
-8.735937e-004,2.992031e-005
-8.257844e-004,1.290346e-005
-6.595054e-004,5.864920e-007
-4.235384e-004,-2.330684e-006
-1.830335e-004,5.286386e-006
5.864920e-007,2.100672e-005
9.847395e-005,4.126489e-005
1.085220e-004,6.071273e-005
4.985435e-005,7.238143e-005
-5.046408e-005,7.319175e-005
-1.656925e-004,6.427816e-005
-2.780037e-004,4.774750e-005
-3.875599e-004,2.732727e-005
-5.091088e-004,1.338965e-005
-6.496194e-004,1.241726e-005
-7.865646e-004,2.359977e-005
-8.880175e-004,3.624086e-005
-9.324233e-004,4.483032e-005
-9.162169e-004,5.115087e-005
-8.565768e-004,5.390598e-005
-7.757063e-004,5.228533e-005
-6.859221e-004,4.823369e-005
-5.956517e-004,4.483032e-005
-5.048952e-004,3.932010e-005
-4.152730e-004,2.878586e-005
-3.303509e-004,1.144487e-005
-2.553146e-004,-7.678839e-006
-1.925954e-004,-2.291298e-005
-1.389517e-004,-3.231276e-005
-9.049421e-005,-3.798505e-005
-4.787104e-005,-4.236081e-005
-1.682422e-006,-4.835723e-005
6.330577e-005,-5.483985e-005
1.551968e-004,-6.116039e-005
2.616738e-004,-6.521203e-005
3.571302e-004,-6.893953e-005
4.222805e-004,-7.169464e-005
4.490213e-004,-6.715681e-005
4.362181e-004,-5.370539e-005
3.952156e-004,-3.895744e-005
3.418961e-004,-3.004385e-005
2.984626e-004,-2.745081e-005
2.858215e-004,-2.907146e-005
3.127243e-004,-3.101624e-005
3.764160e-004,-3.020592e-005
4.636072e-004,-2.469570e-005
5.580913e-004,-1.189254e-005
6.494962e-004,5.286386e-006
7.292324e-004,2.068259e-005
7.872518e-004,2.943412e-005
8.172339e-004,2.684107e-005
8.211235e-004,1.598270e-005
8.139926e-004,4.638125e-006
8.083204e-004,-6.176923e-008
8.128582e-004,1.558884e-006
8.245269e-004,4.476060e-006
8.391127e-004,6.907039e-006
8.613158e-004,7.069104e-006
9.015080e-004,8.527692e-006
9.598515e-004,1.517237e-005
1.007823e-003,2.392390e-005
1.010740e-003,3.218923e-005
9.441312e-004,3.932010e-005
8.042687e-004,4.175108e-005
6.144901e-004,3.494434e-005
4.039671e-004,1.630683e-005
1.809652e-004,-5.734055e-006
-5.646050e-005,-1.869928e-005
-2.989102e-004,-1.351319e-005
-5.220741e-004,8.689757e-006
-7.000217e-004,3.640293e-005
-8.139536e-004,5.406805e-005
-8.700282e-004,5.844381e-005
-9.017930e-004,5.730935e-005
-9.450644e-004,5.585077e-005
-1.009566e-003,5.974033e-005
-1.077634e-003,7.092283e-005
-1.116854e-003,8.696730e-005
-1.106806e-003,1.009049e-004
-1.039873e-003,1.052807e-004
-9.231857e-004,1.012291e-004
-7.778131e-004,9.053274e-005
-6.327647e-004,8.097089e-005
-5.058675e-004,7.416414e-005
-3.959873e-004,7.416414e-005
-2.977757e-004,8.372600e-005
-2.045882e-004,1.044704e-004
-1.133454e-004,1.281319e-004
-2.534396e-005,1.423936e-004
5.374392e-005,1.396385e-004
1.133840e-004,1.213252e-004
1.457970e-004,9.523264e-005
1.504969e-004,6.849186e-005
1.399627e-004,4.645098e-005
1.308870e-004,2.910999e-005
1.334801e-004,1.857574e-005
1.537382e-004,1.565857e-005
1.898788e-004,1.776542e-005
2.316917e-004,2.100672e-005
2.665357e-004,2.052053e-005
2.853353e-004,1.711715e-005
2.825802e-004,8.689757e-006
2.657254e-004,-3.303075e-006
2.417397e-004,-1.659243e-005
2.062474e-004,-3.004385e-005
1.561692e-004,-4.090223e-005
8.793970e-005,-4.462973e-005
3.665733e-006,-3.555407e-005
-9.049421e-005,-1.205460e-005
-1.912988e-004,1.906194e-005
-2.951827e-004,4.742337e-005
-3.938804e-004,6.670914e-005
-4.700511e-004,7.465034e-005
-5.014918e-004,7.481241e-005
-4.695649e-004,7.238143e-005
-3.742705e-004,6.411610e-005
-2.288980e-004,5.034054e-005
-5.192267e-005,3.089270e-005
1.354248e-004,1.128280e-005
3.196932e-004,-1.844488e-006
4.950479e-004,-5.247859e-006
6.533858e-004,-8.720958e-007
7.788244e-004,6.744974e-006
8.595330e-004,1.468617e-005
8.885428e-004,1.987226e-005
8.736327e-004,2.133085e-005
8.365197e-004,2.100672e-005
8.005412e-004,2.522042e-005
7.692626e-004,3.364782e-005
7.327978e-004,4.094075e-005
6.951987e-004,4.272347e-005
6.632718e-004,4.061663e-005
6.148142e-004,3.688912e-005
5.076890e-004,3.137890e-005
3.256896e-004,2.489629e-005
6.719534e-005,1.808955e-005
-2.702246e-004,9.013888e-006
-6.702017e-004,-3.858999e-007
-1.091896e-003,-8.720958e-007
-1.472749e-003,1.241726e-005
-1.746639e-003,3.591673e-005
-1.871916e-003,5.585077e-005
-1.839503e-003,6.330577e-005
-1.668848e-003,5.990240e-005
-1.400468e-003,4.936815e-005
-1.083954e-003,3.769945e-005
-7.591756e-004,2.975825e-005
-4.481723e-004,2.862379e-005
-1.624512e-004,2.684107e-005
8.437427e-005,1.954813e-005
2.670219e-004,1.031041e-005
3.632887e-004,6.096713e-006
3.752816e-004,1.355172e-005
3.310377e-004,3.251336e-005
2.681563e-004,5.260946e-005
2.205091e-004,6.314371e-005
1.996027e-004,6.136099e-005
2.025199e-004,4.920609e-005
2.193747e-004,2.959618e-005
2.469258e-004,7.717366e-006
2.827422e-004,-8.002969e-006
3.253654e-004,-1.189254e-005
3.702575e-004,-9.947754e-006
4.089912e-004,-6.706447e-006
4.294114e-004,1.002961e-007
4.253598e-004,1.322759e-005
4.005638e-004,2.781346e-005
3.644232e-004,3.737532e-005
3.284447e-004,3.850977e-005
2.986246e-004,3.867184e-005
2.678322e-004,4.612685e-005
2.294227e-004,6.038860e-005
1.812893e-004,6.897806e-005
1.308870e-004,6.298164e-005
8.907416e-005,4.402000e-005
7.140904e-005,2.100672e-005
7.935023e-005,2.693341e-006
1.078737e-004,-9.461557e-006
1.446626e-004,-1.497178e-005
1.798307e-004,-1.367526e-005
2.068957e-004,-4.275467e-006
2.211574e-004,2.207145e-006
2.187264e-004,4.638125e-006
1.978200e-004,3.503668e-006
1.662173e-004,1.002961e-007
1.344524e-004,-3.951337e-006
1.043083e-004,-7.516774e-006
7.157111e-005,-8.651231e-006
4.320967e-005,-5.896120e-006
3.575467e-005,-2.168618e-006
6.281957e-005,-6.868512e-006
1.297525e-004,-2.728874e-005
2.321778e-004,-5.500191e-005
3.532407e-004,-7.671866e-005
4.618245e-004,-8.563225e-005
5.201680e-004,-8.401160e-005
5.083373e-004,-7.493595e-005
4.305458e-004,-6.294311e-005
3.122381e-004,-4.981582e-005
1.782101e-004,-3.263690e-005
4.272347e-005,-1.108221e-005
-9.000801e-005,1.209313e-005
-2.131776e-004,3.202716e-005
-3.178718e-004,4.742337e-005
-3.864254e-004,5.844381e-005
-3.974459e-004,6.038860e-005
-3.368334e-004,5.649903e-005
-2.183637e-004,5.001641e-005
-8.547019e-005,4.256141e-005
1.614476e-005,3.802358e-005
6.557468e-005,4.288554e-005
6.946425e-005,5.779555e-005
4.936815e-005,7.335382e-005
2.975825e-005,8.307774e-005
2.327564e-005,8.453633e-005
3.380988e-005,8.194328e-005
5.034054e-005,7.708132e-005
5.585077e-005,7.254349e-005
4.142695e-005,7.157111e-005
1.371378e-005,7.157111e-005
-8.489165e-006,7.416414e-005
-8.813297e-006,7.935023e-005
1.257933e-005,8.648111e-005
4.564065e-005,9.085687e-005
8.291567e-005,8.599491e-005
1.193804e-004,7.643306e-005
1.582760e-004,6.768153e-005
2.038164e-004,6.606088e-005
2.521119e-004,7.351588e-005
2.918179e-004,8.777764e-005
3.211517e-004,1.038221e-004
3.461098e-004,1.141943e-004
3.676645e-004,1.140322e-004
3.775505e-004,1.031738e-004
3.679886e-004,8.226741e-005
3.428685e-004,5.730935e-005
3.098072e-004,3.867184e-005
2.735045e-004,3.235129e-005
2.341226e-004,3.445814e-005
1.824238e-004,3.932010e-005
1.103047e-004,4.418206e-005
2.343770e-005,4.385793e-005
-6.035006e-005,4.077869e-005
-1.303623e-004,4.045456e-005
-1.814128e-004,4.839576e-005
-2.164190e-004,6.557468e-005
-2.384598e-004,8.550872e-005
-2.439700e-004,1.039842e-004
-2.277635e-004,1.140322e-004
-1.945401e-004,1.101426e-004
-1.528894e-004,8.842590e-005
-1.114006e-004,5.844381e-005
-7.509801e-005,3.056858e-005
-5.127441e-005,1.128280e-005
-5.775702e-005,1.883015e-006
-1.079973e-004,-5.571990e-006
-2.057227e-004,-1.594417e-005
-3.530400e-004,-3.198863e-005
-5.421702e-004,-5.354332e-005
-7.353520e-004,-7.914964e-005
-8.993620e-004,-1.052422e-004
-1.024639e-003,-1.297140e-004
-1.116854e-003,-1.457585e-004
-1.172118e-003,-1.494860e-004
-1.176008e-003,-1.477033e-004
-1.131277e-003,-1.431654e-004
-1.063372e-003,-1.327932e-004
-1.010701e-003,-1.101041e-004
-1.010539e-003,-7.882551e-005
-1.067910e-003,-4.819516e-005
-1.137922e-003,-2.647842e-005
-1.162880e-003,-1.464765e-005
-1.111992e-003,-8.813297e-006
-9.820153e-004,-4.113402e-006
-7.820268e-004,2.855406e-006
-5.238568e-004,4.638125e-006
-2.251705e-004,-7.100305e-007
8.226741e-005,-1.318906e-005
3.623164e-004,-2.842320e-005
5.856425e-004,-3.992984e-005
7.396046e-004,-4.495386e-005
8.327922e-004,-4.138842e-005
8.818980e-004,-3.344722e-005
9.002115e-004,-2.583015e-005
8.958357e-004,-1.950961e-005
8.765499e-004,-1.383732e-005
8.567779e-004,-8.489165e-006
8.433264e-004,-2.330684e-006
8.310095e-004,7.485573e-007
8.160995e-004,-2.238345e-007
7.984343e-004,-5.734055e-006
7.765555e-004,-1.140634e-005
7.454389e-004,-1.302699e-005
6.987641e-004,-8.975361e-006
6.387999e-004,-8.720958e-007
5.713807e-004,1.290346e-005
5.008822e-004,3.380988e-005
4.341113e-004,5.617490e-005
3.798194e-004,7.902610e-005
3.417340e-004,1.054428e-004
3.167760e-004,1.313732e-004
2.992729e-004,1.477418e-004
2.889007e-004,1.543865e-004
2.846870e-004,1.493625e-004
2.838767e-004,1.341283e-004
2.851732e-004,1.124116e-004
2.893869e-004,9.085687e-005
2.979764e-004,7.108490e-005
3.073762e-004,5.617490e-005
3.122381e-004,5.115087e-005
3.101313e-004,5.811968e-005
3.038107e-004,7.221937e-005
2.994350e-004,8.567078e-005
3.010556e-004,9.490851e-005
3.072141e-004,9.717742e-005
3.143450e-004,9.458438e-005
3.198552e-004,9.344992e-005
3.235827e-004,1.005808e-004
3.188828e-004,1.166253e-004
3.017039e-004,1.312111e-004
2.788527e-004,1.362352e-004
2.619979e-004,1.312111e-004
2.563256e-004,1.201907e-004
2.566497e-004,1.054428e-004
2.491947e-004,8.923622e-005
2.253711e-004,7.351588e-005
1.837203e-004,6.038860e-005
1.355869e-004,5.341978e-005
9.814982e-005,5.293359e-005
9.020861e-005,5.504044e-005
1.159770e-004,5.309565e-005
1.663793e-004,4.207521e-005
2.281262e-004,2.165498e-005
2.869559e-004,-2.492749e-006
3.373583e-004,-1.351319e-005
3.757677e-004,-3.789271e-006
4.016982e-004,2.133085e-005
4.086670e-004,4.742337e-005
3.893812e-004,6.411610e-005
3.404375e-004,6.589881e-005
2.611876e-004,5.649903e-005
1.616794e-004,4.191315e-005
4.985435e-005,3.024445e-005
-8.158062e-005,2.278944e-005
-2.428356e-004,1.419998e-005
-4.408794e-004,3.179537e-006
-6.561021e-004,-9.299492e-006
-8.371290e-004,-2.210265e-005
-9.244822e-004,-3.231276e-005
-8.909347e-004,-3.733679e-005
-7.625790e-004,-3.863331e-005
-6.005137e-004,-3.911951e-005
-4.763717e-004,-3.749886e-005
-4.345588e-004,-3.166451e-005
-4.766958e-004,-2.210265e-005
-5.703695e-004,-1.189254e-005
-6.676087e-004,-6.706447e-006
-7.272487e-004,-4.113402e-006
-7.288694e-004,-8.720958e-007
-6.789533e-004,4.962256e-006
-5.946793e-004,9.986280e-006
-4.917678e-004,1.225519e-005
-3.843186e-004,9.338019e-006
-2.851347e-004,5.772582e-006
-2.005366e-004,2.855406e-006
-1.378173e-004,4.313994e-006
-1.034594e-004,1.290346e-005
-1.036215e-004,2.959618e-005
-1.417068e-004,4.709924e-005
-2.110708e-004,5.811968e-005
-2.937241e-004,6.152305e-005
-3.684362e-004,6.281957e-005
-4.245108e-004,6.298164e-005
-4.614617e-004,6.103685e-005
-4.770199e-004,5.552663e-005
-4.627582e-004,4.855782e-005
-4.066836e-004,4.337174e-005
-3.074996e-004,4.077869e-005
-1.778474e-004,4.061663e-005
-3.830918e-005,4.239934e-005
9.507057e-005,4.045456e-005
1.947408e-004,2.813760e-005
2.329882e-004,6.744974e-006
1.966855e-004,-1.772689e-005
1.038221e-004,-4.057810e-005
3.017472e-006,-4.884343e-005
-5.419158e-005,-3.409548e-005
-4.641245e-005,-2.816880e-006
1.695509e-005,3.235129e-005
1.122495e-004,5.828174e-005
2.180782e-004,6.881599e-005
3.180725e-004,6.638501e-005
3.948915e-004,5.520250e-005
4.349216e-004,4.158902e-005
4.394594e-004,3.397195e-005
4.102877e-004,3.867184e-005
3.457856e-004,5.633696e-005
2.649151e-004,7.853991e-005
2.026820e-004,9.896014e-005
1.764274e-004,1.093323e-004
1.874478e-004,1.052807e-004
2.321778e-004,9.134307e-005
3.041349e-004,7.481241e-005
3.940811e-004,6.314371e-005
4.869446e-004,5.536457e-005
5.603603e-004,5.228533e-005
6.007145e-004,5.309565e-005
6.086557e-004,5.568870e-005
5.851563e-004,5.941620e-005
5.365366e-004,6.411610e-005
4.781931e-004,6.865393e-005
4.224426e-004,6.849186e-005
3.764160e-004,5.876794e-005
3.344411e-004,3.478227e-005
2.851732e-004,3.827798e-006
2.200230e-004,-2.323711e-005
1.357490e-004,-3.944364e-005
3.137890e-005,-4.381940e-005
-9.665269e-005,-4.576419e-005
-2.413770e-004,-5.095028e-005
-3.869116e-004,-5.856734e-005
-5.222362e-004,-6.683268e-005
-6.334129e-004,-7.201877e-005
-6.857600e-004,-6.926366e-005
-6.535090e-004,-6.229485e-005
-5.374703e-004,-5.743289e-005
-3.739464e-004,-5.629843e-005
-2.170672e-004,-5.581224e-005
-1.062145e-004,-5.338126e-005
-5.791909e-005,-4.949169e-005
-6.375343e-005,-4.284701e-005
-9.924574e-005,-3.506787e-005
-1.396000e-004,-2.809907e-005
-1.687718e-004,-1.821308e-005
-1.818990e-004,-6.868512e-006
-1.825473e-004,5.448451e-006
-1.692580e-004,1.630683e-005
-1.350622e-004,2.392390e-005
-7.769105e-005,2.408596e-005
-1.578211e-005,1.598270e-005
2.846173e-005,6.420843e-006
4.969228e-005,-6.176923e-008
6.152305e-005,-2.816880e-006
8.421220e-005,-3.627206e-006
1.284560e-004,-5.571990e-006
1.916615e-004,-6.058186e-006
2.594048e-004,-2.654814e-006
3.198552e-004,5.286386e-006
3.629646e-004,1.987226e-005
3.879227e-004,3.964423e-005
4.020223e-004,5.552663e-005
4.221185e-004,6.233338e-005
4.636072e-004,5.974033e-005
5.295678e-004,5.228533e-005
6.172452e-004,4.239934e-005
7.128638e-004,3.510640e-005
7.981102e-004,3.073064e-005
8.618019e-004,2.554455e-005
9.010218e-004,2.084466e-005
9.238730e-004,2.019640e-005
9.486690e-004,2.781346e-005
9.796235e-004,4.207521e-005
9.912923e-004,5.747142e-005
9.348935e-004,7.238143e-005
7.644006e-004,8.405013e-005
4.689553e-004,8.939829e-005
8.275361e-005,8.405013e-005
-3.481780e-004,7.448828e-005
-7.914265e-004,6.670914e-005
-1.212472e-003,6.508849e-005
-1.576147e-003,6.881599e-005
-1.838044e-003,7.594687e-005
-1.962997e-003,8.388807e-005
-1.925722e-003,9.182927e-005
-1.727840e-003,9.798775e-005
-1.409219e-003,1.022014e-004
-1.036145e-003,1.033359e-004
-6.714982e-004,9.814982e-005
-3.614674e-004,8.356393e-005
-1.229073e-004,6.200925e-005
4.871989e-005,3.818564e-005
1.633001e-004,1.744128e-005
2.328261e-004,4.244267e-007
2.715597e-004,-9.623623e-006
2.900352e-004,-1.173047e-005
2.931144e-004,-7.678839e-006
2.916558e-004,-4.923729e-006
2.986246e-004,-8.813297e-006
3.201793e-004,-1.740276e-005
3.597233e-004,-2.664048e-005
4.180668e-004,-3.539201e-005
4.924549e-004,-3.960571e-005
5.713807e-004,-3.296103e-005
6.381517e-004,-1.189254e-005
6.669993e-004,2.035846e-005
6.407447e-004,5.228533e-005
5.665187e-004,6.735740e-005
4.676588e-004,5.617490e-005
3.658818e-004,2.230324e-005
2.759355e-004,-1.659243e-005
2.031682e-004,-4.122636e-005
1.462832e-004,-4.171255e-005
1.009049e-004,-2.518189e-005
6.038860e-005,-8.975361e-006
2.052053e-005,-7.030578e-006
-2.372330e-005,-2.031993e-005
-7.995997e-005,-3.944364e-005
-1.498101e-004,-5.208473e-005
-2.344082e-004,-5.046408e-005
-3.209511e-004,-3.636440e-005
-3.927460e-004,-1.594417e-005
-4.369898e-004,2.693341e-006
-4.528722e-004,1.841368e-005
-4.460654e-004,2.748933e-005
-4.251590e-004,2.813760e-005
-3.916115e-004,2.278944e-005
-3.429920e-004,1.501031e-005
-2.778417e-004,8.851824e-006
-1.995642e-004,9.175954e-006
-1.217728e-004,2.149292e-005
-6.051213e-005,4.110282e-005
-2.372330e-005,5.876794e-005
-5.085794e-006,6.719534e-005
1.695509e-005,7.254349e-005
6.362990e-005,7.951231e-005
1.393144e-004,9.037068e-005
2.302331e-004,1.069013e-004
3.172621e-004,1.263492e-004
3.811159e-004,1.435281e-004
4.098015e-004,1.526038e-004
4.075326e-004,1.516314e-004
3.832228e-004,1.503348e-004
3.427064e-004,1.590864e-004
2.968419e-004,1.746447e-004
2.608634e-004,1.885823e-004
2.482223e-004,1.973338e-004
2.616738e-004,2.008992e-004
2.973281e-004,2.005751e-004
3.508097e-004,1.923098e-004
4.222805e-004,1.746447e-004
5.097958e-004,1.480659e-004
6.023351e-004,1.163011e-004
6.908229e-004,8.226741e-005
7.668316e-004,5.147500e-005
8.125340e-004,2.003433e-005
8.002171e-004,-2.777494e-005
7.169154e-004,-1.024870e-004
5.752702e-004,-2.018331e-004
3.931088e-004,-3.078238e-004
1.973338e-004,-3.914495e-004
3.397195e-005,-4.228901e-004
-4.057810e-005,-3.882081e-004
-1.724069e-005,-2.961551e-004
3.769945e-005,-1.786577e-004
3.218923e-005,-7.218083e-005
-9.422171e-005,2.369210e-006
-3.290543e-004,3.980630e-005
-6.045653e-004,4.126489e-005
-8.444219e-004,1.857574e-005
-9.912531e-004,-1.010982e-005
-1.019128e-003,-3.036798e-005
-9.364750e-004,-3.620233e-005
-7.864025e-004,-2.842320e-005
-6.301716e-004,-1.108221e-005
-5.121881e-004,1.225519e-005
-4.449310e-004,3.769945e-005
-4.151110e-004,5.909207e-005
-4.070077e-004,7.416414e-005
-4.097628e-004,8.016056e-005
-4.207833e-004,7.837785e-005
-4.447689e-004,7.302969e-005
-4.825302e-004,6.849186e-005
-5.285567e-004,6.914012e-005
-5.778245e-004,7.659513e-005
-6.288751e-004,8.972242e-005
-6.771705e-004,1.026876e-004
-7.047216e-004,1.086841e-004
-6.802498e-004,1.062531e-004
-5.839830e-004,9.863601e-005
-4.272659e-004,8.453633e-005
-2.421873e-004,6.703327e-005
-6.180866e-005,5.147500e-005
8.453633e-005,3.980630e-005
1.793446e-004,3.348575e-005
2.221298e-004,3.283749e-005
2.297469e-004,3.348575e-005
2.232642e-004,3.121684e-005
2.263435e-004,2.635488e-005
2.589186e-004,2.295151e-005
3.357376e-004,2.424803e-005
4.519385e-004,3.170303e-005
5.835355e-004,3.899597e-005
7.057329e-004,4.564065e-005
7.900069e-004,5.212327e-005
8.177201e-004,5.682316e-005
7.926000e-004,5.568870e-005
7.362012e-004,4.790957e-005
6.721854e-004,3.721326e-005
6.175693e-004,3.024445e-005
5.702462e-004,3.364782e-005
5.091476e-004,4.191315e-005
4.164462e-004,4.515445e-005
2.885766e-004,3.867184e-005
1.359110e-004,2.278944e-005
-2.550602e-005,6.258778e-006
-1.901644e-004,-2.238345e-007
-3.509331e-004,8.527692e-006
-4.865818e-004,3.105477e-005
-5.674524e-004,5.828174e-005
-5.778245e-004,8.064676e-005
-5.280705e-004,9.199134e-005
-4.452551e-004,9.150514e-005
-3.684362e-004,8.145709e-005
-3.386162e-004,6.881599e-005
-3.577399e-004,5.893001e-005
-3.818876e-004,5.260946e-005
-3.548227e-004,4.985435e-005
-2.522354e-004,5.066468e-005
-9.260106e-005,5.666109e-005
9.231547e-005,6.703327e-005
2.765838e-004,8.226741e-005
4.428628e-004,9.831188e-005
5.811046e-004,1.085220e-004
6.751025e-004,1.135460e-004
7.136741e-004,1.117633e-004
7.031398e-004,9.977046e-005
6.550064e-004,8.583285e-005
5.812666e-004,7.432621e-005
4.965065e-004,6.606088e-005
4.180668e-004,5.909207e-005
3.551854e-004,5.325772e-005
3.028383e-004,4.709924e-005
2.508154e-004,3.948217e-005
1.911753e-004,3.462021e-005
1.248906e-004,3.218923e-005
7.254349e-005,3.202716e-005
5.244739e-005,3.186510e-005
7.529860e-005,3.073064e-005
1.362352e-004,3.380988e-005
2.104611e-004,4.223728e-005
2.576221e-004,5.277152e-005
2.435224e-004,5.974033e-005
1.670276e-004,6.136099e-005
4.402000e-005,5.374392e-005
-1.130213e-004,3.445814e-005
-2.940482e-004,1.225519e-005
-4.911196e-004,-3.141010e-006
-6.915944e-004,-1.351319e-005
-8.643559e-004,-2.210265e-005
-9.680777e-004,-2.680255e-005
-9.727776e-004,-2.793700e-005
-8.761867e-004,-2.696461e-005
-7.071526e-004,-2.550602e-005
-5.121881e-004,-2.194059e-005
-3.297026e-004,-1.562004e-005
-1.804405e-004,-6.706447e-006
-6.618442e-005,2.531276e-006
2.133085e-005,5.934647e-006
9.231547e-005,-1.844488e-006
1.543865e-004,-1.837515e-005
2.128921e-004,-3.604027e-005
2.713976e-004,-5.257093e-005
3.253654e-004,-6.375343e-005
3.652335e-004,-6.472583e-005
3.845193e-004,-5.759496e-005
3.812780e-004,-4.900549e-005
3.563199e-004,-4.106429e-005
3.166139e-004,-3.263690e-005
2.748010e-004,-2.356124e-005
2.417397e-004,-1.724069e-005
2.148369e-004,-1.610623e-005
1.871237e-004,-1.886135e-005
1.573037e-004,-2.129233e-005
1.265113e-004,-1.805102e-005
1.002567e-004,-6.220251e-006
8.259154e-005,1.128280e-005
7.270556e-005,2.829966e-005
6.606088e-005,3.753739e-005
5.844381e-005,4.077869e-005
4.515445e-005,4.742337e-005
2.586868e-005,5.487837e-005
8.365628e-006,5.601283e-005
5.610517e-006,5.050261e-005
2.343770e-005,4.061663e-005
6.022653e-005,2.878586e-005
1.083599e-004,1.646889e-005
1.610312e-004,4.476060e-006
2.065715e-004,-2.978945e-006
2.321778e-004,-5.085794e-006
2.315296e-004,-2.330684e-006
2.020337e-004,1.072688e-006
1.561692e-004,1.558884e-006
1.164632e-004,2.623614e-007
1.073875e-004,4.244267e-007
1.363972e-004,6.096713e-006
1.970097e-004,1.598270e-005
2.760976e-004,2.538249e-005
3.615060e-004,3.024445e-005
4.367043e-004,2.538249e-005
4.812723e-004,1.419998e-005
4.814344e-004,5.124321e-006
4.409180e-004,7.485573e-007
3.770643e-004,-2.330684e-006
3.023521e-004,-4.599598e-006
2.190506e-004,-5.085794e-006
1.268354e-004,-2.978945e-006
2.392390e-005,5.864920e-007
-8.790116e-005,3.503668e-006
-2.010227e-004,8.689757e-006
-3.034480e-004,1.533444e-005
-3.789704e-004,2.035846e-005
-4.248349e-004,2.538249e-005
-4.512515e-004,3.478227e-005
-4.664857e-004,5.147500e-005
-4.729683e-004,7.756751e-005
-4.651892e-004,1.101426e-004
-4.382863e-004,1.341283e-004
-3.956631e-004,1.401247e-004
-3.459091e-004,1.260251e-004
-2.919414e-004,9.798775e-005
-2.225774e-004,6.703327e-005
-1.305243e-004,4.304760e-005
-2.129233e-005,2.894792e-005
7.999850e-005,2.408596e-005
1.441764e-004,2.522042e-005
1.592484e-004,3.040651e-005
1.412592e-004,3.850977e-005
1.153287e-004,5.147500e-005
9.263960e-005,6.816773e-005
7.610893e-005,8.502253e-005
7.205730e-005,9.669123e-005
8.437427e-005,9.831188e-005
1.119254e-004,8.988448e-005
1.467694e-004,7.059870e-005
1.751308e-004,4.175108e-005
1.846927e-004,7.879431e-006
1.667035e-004,-2.680255e-005
1.188942e-004,-5.710876e-005
4.969228e-005,-7.526008e-005
-2.955766e-005,-7.979790e-005
-1.081593e-004,-7.380149e-005
-1.801163e-004,-6.407756e-005
-2.415391e-004,-5.402952e-005
-2.883759e-004,-4.446767e-005
-3.173856e-004,-3.117831e-005
-3.331059e-004,-1.318906e-005
-3.478539e-004,5.124321e-006
-3.684362e-004,2.359977e-005
-3.984183e-004,4.434413e-005
-4.394208e-004,5.957827e-005
-4.911196e-004,5.990240e-005
-5.527044e-004,4.515445e-005
-6.180167e-004,2.052053e-005
-6.650157e-004,-8.489165e-006
-6.663122e-004,-3.377135e-005
-6.091031e-004,-4.803310e-005
-4.993849e-004,-4.965375e-005
-3.640604e-004,-4.462973e-005
-2.415391e-004,-3.911951e-005
-1.687718e-004,-3.539201e-005
-1.540238e-004,-2.971972e-005
-1.775233e-004,-1.821308e-005
-2.047502e-004,2.531276e-006
-2.034537e-004,3.170303e-005
-1.613168e-004,6.557468e-005
-7.947377e-005,9.442231e-005
3.575467e-005,1.049566e-004
1.738343e-004,9.053274e-005
3.198552e-004,5.439218e-005
4.572866e-004,1.079661e-005
5.780254e-004,-2.550602e-005
6.815851e-004,-4.527799e-005
7.702350e-004,-4.349527e-005
8.478643e-004,-2.307504e-005
9.211179e-004,5.124321e-006
9.818925e-004,3.526847e-005
1.018357e-003,6.314371e-005
1.027919e-003,8.648111e-005
1.013171e-003,1.000946e-004
9.783270e-004,1.020394e-004
9.272764e-004,9.652916e-005
8.421920e-004,9.215340e-005
6.887161e-004,9.620503e-005
4.363802e-004,1.038221e-004
9.685329e-005,1.081979e-004
-2.655248e-004,1.086841e-004
-5.632387e-004,1.073875e-004
-7.300038e-004,1.041462e-004
-7.424828e-004,9.863601e-005
-6.261200e-004,9.004655e-005
-4.313175e-004,7.870197e-005
-2.122052e-004,6.525056e-005
-9.947754e-006,5.277152e-005
1.470936e-004,4.223728e-005
2.466016e-004,3.672705e-005
2.923041e-004,4.045456e-005
2.953833e-004,5.439218e-005
2.744769e-004,7.416414e-005
2.449810e-004,9.409818e-005
2.214815e-004,1.083599e-004
2.077060e-004,1.130598e-004
2.007372e-004,1.132219e-004
1.940925e-004,1.107909e-004
1.786963e-004,1.026876e-004
1.467694e-004,8.648111e-005
9.409818e-005,6.670914e-005
1.954813e-005,4.742337e-005
-7.331529e-005,3.024445e-005
-1.692580e-004,1.484824e-005
-2.472113e-004,-1.358292e-006
-2.877277e-004,-1.594417e-005
-2.852967e-004,-2.647842e-005
-2.460769e-004,-3.053005e-005
-1.818990e-004,-2.534396e-005
-1.115627e-004,-1.270286e-005
-5.451571e-005,9.106226e-007
-1.756482e-005,1.095867e-005
3.989864e-006,1.501031e-005
2.100672e-005,1.436204e-005
4.223728e-005,8.365628e-006
6.751947e-005,-2.654814e-006
9.134307e-005,-1.740276e-005
1.031738e-004,-3.085418e-005
9.717742e-005,-3.928157e-005
7.416414e-005,-4.300908e-005
3.494434e-005,-4.187462e-005
-1.254080e-005,-3.830918e-005
-5.013995e-005,-3.571614e-005
-6.261898e-005,-3.377135e-005
-3.960571e-005,-2.712668e-005
1.144487e-005,-1.529591e-005
6.962632e-005,-3.789271e-006
1.091703e-004,1.558884e-006
1.111150e-004,2.855406e-006
7.238143e-005,2.531276e-006
5.772582e-006,2.207145e-006
-6.829127e-005,2.693341e-006
-1.386276e-004,2.693341e-006
-1.995642e-004,-5.479652e-007
-2.464010e-004,-5.896120e-006
-2.741142e-004,-9.137427e-006
-2.840002e-004,-8.975361e-006
-2.763831e-004,-2.492749e-006
-2.483458e-004,1.112074e-005
-2.013469e-004,3.089270e-005
-1.418689e-004,4.774750e-005
-8.255302e-005,5.325772e-005
-3.198863e-005,4.742337e-005
1.031041e-005,3.316162e-005
5.374392e-005,1.873781e-005
1.099806e-004,8.851824e-006
1.801549e-004,4.313994e-006
2.545429e-004,3.665733e-006
3.159656e-004,4.476060e-006
3.438409e-004,2.531276e-006
3.256896e-004,-3.951337e-006
2.615117e-004,-1.189254e-005
1.607070e-004,-1.788895e-005
4.466826e-005,-1.464765e-005
-6.099833e-005,-3.141010e-006
-1.425172e-004,9.013888e-006
-1.959987e-004,1.760335e-005
-2.225774e-004,2.505835e-005
-2.314910e-004,3.494434e-005
-2.344082e-004,5.017848e-005
-2.348944e-004,7.108490e-005
-2.276015e-004,9.555677e-005
-2.042640e-004,1.188942e-004
-1.627753e-004,1.357490e-004
-1.049180e-004,1.393144e-004
-3.992984e-005,1.286181e-004
2.165498e-005,1.051186e-004
7.367795e-005,7.497447e-005
1.203528e-004,4.807163e-005
1.668655e-004,3.235129e-005
2.109473e-004,3.137890e-005
2.431983e-004,3.932010e-005
2.506533e-004,4.612685e-005
2.248849e-004,5.260946e-005
1.743205e-004,6.508849e-005
1.174356e-004,7.902610e-005
6.719534e-005,8.923622e-005
2.554455e-005,9.361198e-005
-9.947754e-006,9.296372e-005
-4.106429e-005,8.875003e-005
-6.164659e-005,7.999850e-005
-5.986387e-005,6.541262e-005
-2.696461e-005,4.969228e-005
3.186510e-005,3.559260e-005
1.013911e-004,2.116879e-005
1.637863e-004,5.772582e-006
2.159713e-004,-8.489165e-006
2.579462e-004,-1.367526e-005
2.900352e-004,-6.706447e-006
3.145071e-004,9.175954e-006
3.307136e-004,2.570661e-005
3.389789e-004,3.640293e-005
3.449753e-004,4.223728e-005
3.512959e-004,4.645098e-005
3.459477e-004,4.904402e-005
3.102933e-004,4.888196e-005
2.302331e-004,4.531652e-005
9.571883e-005,3.753739e-005
-8.611845e-005,2.116879e-005
-2.903207e-004,-3.951337e-006
-4.891748e-004,-3.506787e-005
-6.655018e-004,-6.116039e-005
-8.178432e-004,-7.639453e-005
-9.508988e-004,-8.271508e-005
-1.065155e-003,-8.303921e-005
-1.149915e-003,-8.044616e-005
-1.185569e-003,-7.347736e-005
-1.147160e-003,-6.067420e-005
-1.025449e-003,-4.657451e-005
-8.385876e-004,-3.555407e-005
-6.162340e-004,-2.826113e-005
-3.904771e-004,-2.339917e-005
-1.823852e-004,-2.015787e-005
-2.168618e-006,-1.999580e-005
1.470936e-004,-1.772689e-005
2.558394e-004,-1.513384e-005
3.216379e-004,-1.513384e-005
3.508097e-004,-2.080613e-005
3.538889e-004,-3.101624e-005
3.452995e-004,-3.992984e-005
3.358997e-004,-4.187462e-005
3.375203e-004,-3.247483e-005
3.548613e-004,-1.318906e-005
3.861399e-004,1.306552e-005
4.232529e-004,3.915804e-005
4.572866e-004,5.520250e-005
4.817585e-004,5.747142e-005
4.976409e-004,5.293359e-005
5.052580e-004,4.807163e-005
5.013684e-004,4.369587e-005
4.896997e-004,3.964423e-005
4.841895e-004,3.299956e-005
4.947237e-004,2.570661e-005
5.170887e-004,2.035846e-005
5.368608e-004,2.230324e-005
5.368608e-004,3.089270e-005
5.106062e-004,4.385793e-005
4.660382e-004,5.649903e-005
4.156358e-004,6.460230e-005
3.686369e-004,6.751947e-005
3.276343e-004,7.108490e-005
2.926282e-004,7.529860e-005
2.611876e-004,7.853991e-005
2.331502e-004,8.583285e-005
2.059233e-004,9.847395e-005
1.761032e-004,1.078737e-004
1.440143e-004,1.090082e-004
1.083599e-004,1.005808e-004
6.492643e-005,8.502253e-005
1.031041e-005,6.962632e-005
-4.625038e-005,6.038860e-005
-8.968388e-005,5.844381e-005
-1.094559e-004,6.168512e-005
-1.047560e-004,6.525056e-005
-8.287714e-005,6.978838e-005
-5.824321e-005,6.978838e-005
-3.976777e-005,6.719534e-005
-2.518189e-005,6.055066e-005
-1.092015e-005,4.953022e-005
3.179537e-006,3.640293e-005
1.776542e-005,2.667901e-005
3.753739e-005,1.922400e-005
6.995045e-005,1.468617e-005
1.175977e-004,1.403791e-005
1.715654e-004,1.825161e-005
2.226160e-004,2.619281e-005
2.692908e-004,3.705119e-005
3.196932e-004,4.515445e-005
3.743092e-004,4.790957e-005
4.222805e-004,4.758544e-005
4.431869e-004,4.580272e-005
4.273045e-004,4.126489e-005
3.752816e-004,3.024445e-005
2.971661e-004,1.614476e-005
2.065715e-004,4.476060e-006
1.203528e-004,-5.571990e-006
4.807163e-005,-1.513384e-005
-8.165034e-006,-2.404744e-005
-4.754691e-005,-3.004385e-005
-6.537409e-005,-2.858526e-005
-5.986387e-005,-1.659243e-005
-4.900549e-005,-2.168618e-006
-5.629843e-005,1.079661e-005
-9.892161e-005,1.971020e-005
-2.000504e-004,1.938607e-005
-3.773498e-004,1.063454e-005
-6.248234e-004,1.002961e-007
-8.980655e-004,-7.192643e-006
-1.123660e-003,-1.059601e-005
-1.234027e-003,-1.108221e-005
-1.199993e-003,-7.030578e-006
-1.038252e-003,6.096713e-006
-8.071469e-004,2.684107e-005
-5.718281e-004,4.596478e-005
-3.833462e-004,5.277152e-005
-2.661730e-004,4.223728e-005
-2.170672e-004,1.906194e-005
-2.216050e-004,-4.923729e-006
-2.648765e-004,-1.821308e-005
-3.262992e-004,-1.837515e-005
-3.833462e-004,-1.335112e-005
-4.185144e-004,-1.043395e-005
-4.298589e-004,-7.030578e-006
-4.188385e-004,-5.247859e-006
-3.922598e-004,-5.247859e-006
-3.595226e-004,-5.571990e-006
-3.246786e-004,-4.761663e-006
-2.796244e-004,2.623614e-007
-2.212809e-004,5.448451e-006
-1.498101e-004,3.989864e-006
-6.942573e-005,-5.409925e-006
1.419998e-005,-1.675450e-005
9.863601e-005,-1.772689e-005
1.890685e-004,1.002961e-007
2.851732e-004,3.251336e-005
3.738230e-004,6.735740e-005
4.425387e-004,9.393611e-005
4.828930e-004,1.067393e-004
5.025028e-004,1.083599e-004
5.131992e-004,1.067393e-004
5.308643e-004,1.069013e-004
5.704083e-004,1.083599e-004
6.269691e-004,1.116012e-004
6.817472e-004,1.141943e-004
7.133500e-004,1.122495e-004
7.002227e-004,1.036600e-004
6.198382e-004,9.409818e-005
4.699277e-004,9.166720e-005
2.757734e-004,9.717742e-005
8.486046e-005,1.080358e-004
-5.224680e-005,1.112771e-004
-1.149661e-004,9.750155e-005
-1.084835e-004,7.221937e-005
-5.386745e-005,4.547859e-005
2.603075e-005,2.781346e-005
1.090082e-004,2.052053e-005
1.772377e-004,2.392390e-005
2.214815e-004,3.721326e-005
2.417397e-004,5.001641e-005
2.355812e-004,5.098881e-005
2.008992e-004,3.818564e-005
1.373696e-004,2.359977e-005
4.920609e-005,1.711715e-005
-5.046408e-005,1.873781e-005
-1.331174e-004,2.392390e-005
-1.653684e-004,2.635488e-005
-1.337657e-004,2.878586e-005
-5.127441e-005,3.364782e-005
4.353380e-005,4.126489e-005
1.064151e-004,4.580272e-005
1.201907e-004,4.645098e-005
9.507057e-005,4.142695e-005
6.735740e-005,3.105477e-005
6.589881e-005,1.371378e-005
1.012291e-004,-7.192643e-006
1.587622e-004,-2.988179e-005
2.065715e-004,-5.257093e-005
2.128921e-004,-6.942573e-005
1.681620e-004,-7.412562e-005
8.340186e-005,-6.634648e-005
-2.194059e-005,-5.321919e-005
-1.195039e-004,-4.300908e-005
-1.807646e-004,-4.025397e-005
-1.947022e-004,-4.300908e-005
-1.681235e-004,-4.608832e-005
-1.233935e-004,-4.430560e-005
-8.093235e-005,-3.944364e-005
-5.062615e-005,-3.571614e-005
-3.425755e-005,-3.312309e-005
-3.117831e-005,-2.809907e-005
-3.474375e-005,-2.031993e-005
-4.462973e-005,-1.270286e-005
-6.067420e-005,-4.275467e-006
-6.634648e-005,2.207145e-006
-3.766092e-005,4.313994e-006
3.656499e-005,7.485573e-007
1.445005e-004,-4.275467e-006
2.563256e-004,-6.058186e-006
3.383307e-004,-3.627206e-006
3.692851e-004,-3.858999e-007
3.501614e-004,3.179537e-006
3.015418e-004,4.962256e-006
2.488706e-004,6.096713e-006
2.008992e-004,1.063454e-005
1.509831e-004,2.278944e-005
9.037068e-005,4.077869e-005
2.295151e-005,6.006446e-005
-3.814712e-005,7.221937e-005
-7.979790e-005,7.367795e-005
-8.482193e-005,6.703327e-005
-3.814712e-005,6.136099e-005
5.795762e-005,6.265751e-005
1.936063e-004,6.751947e-005
3.555096e-004,7.043664e-005
5.263265e-004,6.816773e-005
6.751025e-004,6.200925e-005
7.770417e-004,5.828174e-005
8.233925e-004,6.298164e-005
8.199890e-004,7.465034e-005
7.780141e-004,8.340186e-005
7.097846e-004,8.129502e-005
6.217830e-004,6.606088e-005
5.110924e-004,4.499239e-005
3.762539e-004,2.586868e-005
2.148369e-004,1.274139e-005
1.760335e-005,5.772582e-006
-2.327876e-004,7.393235e-006
-5.363358e-004,1.938607e-005
-8.663007e-004,3.688912e-005
-1.176008e-003,5.893001e-005
-1.416350e-003,8.583285e-005
-1.544382e-003,1.140322e-004
-1.540654e-003,1.347766e-004
-1.418457e-003,1.454729e-004
-1.217010e-003,1.449867e-004
-9.922255e-004,1.355869e-004
-7.847819e-004,1.200286e-004
-6.112100e-004,1.049566e-004
-4.768579e-004,9.474644e-005
-3.789704e-004,8.777764e-005
-3.110651e-004,7.967437e-005
-2.622834e-004,7.254349e-005
-2.237119e-004,6.362990e-005
-1.890299e-004,5.098881e-005
-1.601823e-004,3.591673e-005
-1.331174e-004,2.165498e-005
-1.086455e-004,1.225519e-005
-9.276313e-005,6.582909e-006
-9.179074e-005,2.855406e-006
-1.036215e-004,2.623614e-007
-1.198280e-004,1.720949e-006
-1.282554e-004,4.638125e-006
-1.162626e-004,3.017472e-006
-8.190475e-005,-8.651231e-006
-3.085418e-005,-2.874733e-005
2.927205e-005,-5.386745e-005
9.247753e-005,-7.752898e-005
1.566554e-004,-9.389758e-005
2.206712e-004,-1.034594e-004
2.867939e-004,-1.114006e-004
3.480546e-004,-1.114006e-004
3.931088e-004,-9.989400e-005
4.162841e-004,-8.077029e-005
4.237391e-004,-6.245691e-005
4.263321e-004,-4.706071e-005
4.302217e-004,-3.441962e-005
4.284390e-004,-2.469570e-005
4.085050e-004,-1.983374e-005
3.700955e-004,-1.934754e-005
3.224483e-004,-2.226472e-005
2.804733e-004,-2.534396e-005
2.521119e-004,-3.020592e-005
2.427121e-004,-3.571614e-005
2.419018e-004,-3.668853e-005
2.414156e-004,-3.004385e-005
2.417397e-004,-1.934754e-005
2.422259e-004,-1.578211e-005
2.436845e-004,-2.048200e-005
2.461155e-004,-2.907146e-005
2.501671e-004,-3.490581e-005
2.615117e-004,-3.571614e-005
2.798251e-004,-3.020592e-005
2.983005e-004,-1.610623e-005
3.094830e-004,2.045080e-006
3.138588e-004,1.987226e-005
3.093210e-004,3.607880e-005
2.970040e-004,4.888196e-005
2.807975e-004,5.487837e-005
2.645909e-004,5.179913e-005
2.513016e-004,4.239934e-005
2.423880e-004,3.089270e-005
2.381743e-004,2.424803e-005
2.381743e-004,2.862379e-005
2.453051e-004,4.385793e-005
2.615117e-004,6.719534e-005
2.829043e-004,9.377405e-005
3.067279e-004,1.163011e-004
3.252033e-004,1.279698e-004
3.331445e-004,1.265113e-004
3.260137e-004,1.161391e-004
3.046211e-004,1.052807e-004
2.746390e-004,1.004187e-004
2.363915e-004,1.002567e-004
1.855030e-004,1.023635e-004
1.127357e-004,1.041462e-004
1.922400e-005,1.002567e-004
-8.530812e-005,9.571883e-005
-1.880575e-004,9.490851e-005
-2.802727e-004,9.896014e-005
-3.548227e-004,1.052807e-004
-4.128421e-004,1.059289e-004
-4.538446e-004,9.636710e-005
-4.794509e-004,8.210535e-005
-4.794509e-004,7.286762e-005
-4.415276e-004,7.076077e-005
-3.634122e-004,7.400208e-005
-2.562870e-004,7.870197e-005
-1.426792e-004,8.048469e-005
-4.398147e-005,7.837785e-005
2.797553e-005,7.157111e-005
6.881599e-005,5.844381e-005
8.923622e-005,4.175108e-005
1.069013e-004,2.522042e-005
1.432040e-004,1.808955e-005
2.115955e-004,2.133085e-005
2.991108e-004,2.748933e-005
3.773884e-004,3.040651e-005
4.258459e-004,2.781346e-005
4.401077e-004,2.165498e-005
4.208219e-004,1.873781e-005
3.705817e-004,2.311357e-005
2.684805e-004,3.073064e-005
9.053274e-005,3.559260e-005
-1.703924e-004,3.154097e-005
-4.865818e-004,1.938607e-005
-7.962885e-004,3.989864e-006
-1.036631e-003,-8.165034e-006
-1.160287e-003,-1.659243e-005
-1.149915e-003,-2.372330e-005
-1.018804e-003,-3.198863e-005
-8.074710e-004,-3.928157e-005
-5.693972e-004,-4.317114e-005
-3.478539e-004,-4.268495e-005
-1.695821e-004,-3.733679e-005
-3.587821e-005,-3.101624e-005
6.654707e-005,-2.453363e-005
1.508210e-004,-2.064406e-005
2.154851e-004,-1.950961e-005
2.453051e-004,-1.756482e-005
2.308813e-004,-1.254080e-005
1.757791e-004,-4.437533e-006
8.421220e-005,3.503668e-006
-3.425755e-005,7.717366e-006
-1.684476e-004,7.879431e-006
-3.052307e-004,5.610517e-006
-4.303451e-004,5.124321e-006
-5.246671e-004,6.744974e-006
-5.716661e-004,8.689757e-006
-5.617801e-004,1.209313e-005
-4.984125e-004,1.614476e-005
-3.942045e-004,1.792748e-005
-2.713591e-004,1.533444e-005
-1.527273e-004,1.176900e-005
-5.305713e-005,1.338965e-005
2.408596e-005,2.035846e-005
8.453633e-005,3.056858e-005
1.346145e-004,4.142695e-005
1.840444e-004,4.742337e-005
2.389846e-004,4.207521e-005
2.963557e-004,2.684107e-005
3.474063e-004,1.095867e-005
3.861399e-004,3.341602e-006
4.140152e-004,7.879431e-006
4.326527e-004,2.181705e-005
4.427008e-004,4.029249e-005
4.444834e-004,5.601283e-005
4.391353e-004,6.411610e-005
4.294114e-004,6.346784e-005
4.151496e-004,5.747142e-005
3.922984e-004,5.260946e-005
3.645853e-004,5.244739e-005
3.465960e-004,5.374392e-005
3.488649e-004,5.423011e-005
3.704196e-004,5.487837e-005
4.013741e-004,5.325772e-005
4.286011e-004,4.515445e-005
4.370285e-004,3.721326e-005
4.182289e-004,3.526847e-005
3.804677e-004,3.883391e-005
3.368721e-004,4.499239e-005
2.973281e-004,5.001641e-005
2.692908e-004,5.730935e-005
2.524360e-004,6.914012e-005
2.425500e-004,8.518459e-005
2.315296e-004,9.896014e-005
2.120818e-004,1.075496e-004
1.869616e-004,1.056048e-004
1.649207e-004,9.037068e-005
1.540623e-004,6.525056e-005
1.574657e-004,3.348575e-005
1.722137e-004,2.693341e-006
1.898788e-004,-2.031993e-005
2.072198e-004,-3.328516e-005
2.200230e-004,-3.182657e-005
2.187264e-004,-1.853721e-005
1.884202e-004,-6.544382e-006
1.281319e-004,-3.789271e-006
5.001641e-005,-8.327101e-006
-2.809907e-005,-1.659243e-005
-9.649063e-005,-2.177852e-005
-1.614788e-004,-1.934754e-005
-2.442942e-004,-9.623623e-006
-3.580640e-004,9.106226e-007
-4.924161e-004,6.420843e-006
-6.160719e-004,3.503668e-006
-7.008321e-004,-3.465141e-006
-7.259522e-004,-9.947754e-006
-6.898117e-004,-1.367526e-005
-6.056998e-004,-1.270286e-005
-4.859335e-004,-8.002969e-006
-3.449367e-004,-8.720958e-007
-2.015089e-004,7.231170e-006
-7.428768e-005,1.614476e-005
2.359977e-005,2.910999e-005
8.129502e-005,4.693717e-005
9.636710e-005,6.508849e-005
7.935023e-005,8.048469e-005
4.191315e-005,8.793970e-005
-3.303075e-006,8.599491e-005
-4.544005e-005,7.140904e-005
-7.639453e-005,4.726130e-005
-9.632856e-005,1.987226e-005
-1.086455e-004,-3.789271e-006
-1.170729e-004,-1.983374e-005
-1.209625e-004,-2.923352e-005
-1.201522e-004,-3.652646e-005
-1.123730e-004,-4.446767e-005
-1.011905e-004,-5.305713e-005
-8.822530e-005,-6.018800e-005
-7.363942e-005,-6.504996e-005
-5.824321e-005,-5.872941e-005
-4.398147e-005,-3.863331e-005
-3.036798e-005,-8.651231e-006
-1.383732e-005,2.359977e-005
1.257933e-005,4.547859e-005
5.034054e-005,4.726130e-005
8.664317e-005,2.846173e-005
1.111150e-004,2.693341e-006
1.180839e-004,-1.643037e-005
1.038221e-004,-2.275091e-005
7.805372e-005,-1.772689e-005
6.249544e-005,-7.030578e-006
6.557468e-005,6.582909e-006
8.016056e-005,1.971020e-005
9.863601e-005,2.894792e-005
1.148425e-004,3.316162e-005
1.276457e-004,3.850977e-005
1.376937e-004,5.082674e-005
1.487142e-004,6.589881e-005
1.571416e-004,7.627100e-005
1.508210e-004,7.610893e-005
1.253768e-004,6.816773e-005
8.761556e-005,6.055066e-005
4.871989e-005,5.893001e-005
1.825161e-005,6.897806e-005
9.175954e-006,8.842590e-005
3.089270e-005,1.064151e-004
8.097089e-005,1.145184e-004
1.459591e-004,1.117633e-004
2.031682e-004,1.026876e-004
2.323399e-004,9.150514e-005
2.261814e-004,8.323980e-005
1.889064e-004,8.486046e-005
1.346145e-004,9.669123e-005
7.351588e-005,1.133840e-004
2.068259e-005,1.307249e-004
-1.124428e-005,1.425557e-004
-1.529591e-005,1.462832e-004
9.662150e-006,1.396385e-004
5.974033e-005,1.218114e-004
1.218114e-004,9.814982e-005
1.855030e-004,7.319175e-005
2.470879e-004,5.017848e-005
3.086727e-004,2.813760e-005
3.699334e-004,9.175954e-006
4.308700e-004,-4.599598e-006
4.952099e-004,-1.075808e-005
5.660325e-004,-5.734055e-006
6.400964e-004,3.827798e-006
6.998985e-004,1.014835e-005
7.136741e-004,1.031041e-005
6.650545e-004,6.420843e-006
5.550120e-004,1.002961e-007
4.033188e-004,-6.382316e-006
2.273159e-004,-6.544382e-006
2.878586e-005,-2.978945e-006
-1.906506e-004,-3.858999e-007
-4.196488e-004,1.396819e-006
-6.423265e-004,7.069104e-006
-8.361566e-004,1.582063e-005
-9.693743e-004,1.744128e-005
-1.015401e-003,8.365628e-006
-9.641881e-004,-4.437533e-006
-8.353463e-004,-1.318906e-005
-6.684190e-004,-1.335112e-005
-5.021400e-004,-5.409925e-006
-3.664914e-004,4.151929e-006
-2.728177e-004,1.290346e-005
-2.211188e-004,2.003433e-005
-1.982676e-004,2.522042e-005
-1.877334e-004,2.359977e-005
-1.734716e-004,1.355172e-005
-1.481895e-004,-5.479652e-007
-9.940780e-005,-1.562004e-005
-2.096819e-005,-2.793700e-005
8.340186e-005,-3.782299e-005
1.999268e-004,-4.268495e-005
3.175863e-004,-4.252288e-005
4.273045e-004,-3.198863e-005
5.211404e-004,-1.156841e-005
5.945560e-004,1.290346e-005
6.420412e-004,3.429608e-005
6.545202e-004,4.742337e-005
6.313449e-004,5.163707e-005
5.798081e-004,4.953022e-005
5.073649e-004,4.191315e-005
4.175806e-004,3.316162e-005
3.128864e-004,2.846173e-005
1.983062e-004,2.813760e-005
7.578480e-005,2.684107e-005
-4.900549e-005,2.441009e-005
-1.689338e-004,2.149292e-005
-2.643903e-004,2.068259e-005
-3.126857e-004,2.684107e-005
-2.969654e-004,3.380988e-005
-2.173913e-004,4.061663e-005
-9.373551e-005,4.580272e-005
4.077869e-005,4.920609e-005
1.547106e-004,5.212327e-005
2.149989e-004,5.941620e-005
1.903650e-004,7.400208e-005
8.129502e-005,8.615698e-005
-7.250496e-005,8.599491e-005
-2.170672e-004,7.384001e-005
-3.078238e-004,5.876794e-005
-3.300267e-004,4.709924e-005
-2.872415e-004,4.077869e-005
-2.193361e-004,3.559260e-005
-1.971332e-004,3.040651e-005
-2.763831e-004,2.441009e-005
-4.501171e-004,1.889987e-005
-6.606399e-004,1.533444e-005
-8.324290e-004,1.322759e-005
-9.006585e-004,1.128280e-005
-8.385876e-004,9.986280e-006
-6.643674e-004,9.500084e-006
-4.251590e-004,9.175954e-006
-1.840059e-004,1.047248e-005
5.286386e-006,9.824214e-006
1.146805e-004,5.610517e-006
1.522796e-004,1.883015e-006
1.474177e-004,1.234753e-006
1.294284e-004,5.448451e-006
1.107909e-004,1.371378e-005
9.215340e-005,2.214118e-005
6.768153e-005,2.910999e-005
4.547859e-005,3.040651e-005
4.191315e-005,2.586868e-005
6.606088e-005,2.068259e-005
1.156529e-004,1.501031e-005
1.736723e-004,6.258778e-006
2.154851e-004,-2.006553e-006
2.307192e-004,-9.461557e-006
2.229401e-004,-1.788895e-005
2.060853e-004,-2.615428e-005
1.949028e-004,-3.393342e-005
1.934442e-004,-3.830918e-005
1.942546e-004,-3.749886e-005
1.876099e-004,-3.636440e-005
1.723757e-004,-4.317114e-005
1.574657e-004,-5.889147e-005
1.517934e-004,-7.380149e-005
1.605450e-004,-7.769105e-005
1.804790e-004,-6.748093e-005
2.017096e-004,-4.592625e-005
2.177540e-004,-2.080613e-005
2.287745e-004,3.503668e-006
2.394708e-004,1.938607e-005
2.483844e-004,2.359977e-005
2.535705e-004,2.019640e-005
2.564876e-004,1.711715e-005
2.587565e-004,1.663096e-005
2.543808e-004,1.679302e-005
2.357433e-004,1.436204e-005
2.086784e-004,1.128280e-005
1.866375e-004,1.290346e-005
1.827479e-004,2.019640e-005
2.077060e-004,3.040651e-005
2.668598e-004,4.013043e-005
3.483787e-004,4.353380e-005
4.324906e-004,4.288554e-005
5.015305e-004,4.142695e-005
5.436675e-004,4.353380e-005
5.545259e-004,4.385793e-005
5.381573e-004,4.304760e-005
5.016925e-004,4.353380e-005
4.521005e-004,4.547859e-005
3.965121e-004,4.531652e-005
3.347652e-004,4.207521e-005
2.637806e-004,3.429608e-005
1.801549e-004,2.197911e-005
8.696730e-005,1.225519e-005
-1.173047e-005,9.013888e-006
-1.222590e-004,1.403791e-005
-2.574215e-004,2.603075e-005
-4.193247e-004,4.158902e-005
-5.919242e-004,5.941620e-005
-7.518826e-004,7.481241e-005
-8.705144e-004,8.016056e-005
-9.293441e-004,7.367795e-005
-9.280476e-004,6.379197e-005
-8.825072e-004,5.698522e-005
-8.116847e-004,5.714729e-005
-7.277349e-004,6.136099e-005
-6.360059e-004,6.589881e-005
-5.382806e-004,7.076077e-005
-4.374760e-004,7.837785e-005
-3.389403e-004,8.956035e-005
-2.451045e-004,1.017153e-004
-1.567789e-004,1.138701e-004
-7.266703e-005,1.239182e-004
1.549650e-005,1.326697e-004
1.169494e-004,1.380179e-004
2.360674e-004,1.409351e-004
3.582647e-004,1.396385e-004
4.619866e-004,1.344524e-004
5.315125e-004,1.257009e-004
5.530672e-004,1.070634e-004
5.261644e-004,7.821578e-005
4.666864e-004,5.001641e-005
3.924605e-004,3.121684e-005
3.185587e-004,2.165498e-005
2.550291e-004,2.149292e-005
2.043026e-004,2.684107e-005
1.616794e-004,3.494434e-005
1.239182e-004,4.304760e-005
9.231547e-005,4.871989e-005
7.286762e-005,5.017848e-005
6.362990e-005,4.807163e-005
5.844381e-005,4.337174e-005
5.487837e-005,3.769945e-005
5.779555e-005,3.267542e-005
6.849186e-005,3.040651e-005
8.405013e-005,2.797553e-005
1.013911e-004,2.246531e-005
1.146805e-004,1.533444e-005
1.172735e-004,8.365628e-006
1.070634e-004,3.017472e-006
8.729143e-005,5.864920e-007
6.314371e-005,4.151929e-006
3.867184e-005,9.824214e-006
1.646889e-005,9.986280e-006
-1.358292e-006,1.072688e-006
-1.983374e-005,-1.318906e-005
-4.252288e-005,-2.226472e-005
-7.023605e-005,-2.210265e-005
-9.794922e-005,-2.064406e-005
-1.214487e-004,-2.485776e-005
-1.396000e-004,-3.328516e-005
-1.553203e-004,-4.090223e-005
-1.682856e-004,-4.398147e-005
-1.763888e-004,-4.592625e-005
-1.723372e-004,-4.754691e-005
-1.569410e-004,-4.803310e-005
-1.295519e-004,-4.527799e-005
-9.065627e-005,-4.365734e-005
-4.868136e-005,-4.916756e-005
-4.923729e-006,-5.970180e-005
3.526847e-005,-6.942573e-005
6.168512e-005,-7.363942e-005
6.897806e-005,-7.153257e-005
6.703327e-005,-6.440169e-005
7.610893e-005,-5.613637e-005
1.138701e-004,-4.981582e-005
1.762653e-004,-4.155049e-005
2.467637e-004,-2.566809e-005
3.136967e-004,-3.858999e-007
3.746333e-004,2.927205e-005
4.324906e-004,5.649903e-005
4.765724e-004,7.578480e-005
4.879170e-004,8.518459e-005
4.545315e-004,8.486046e-005
3.791711e-004,7.627100e-005
2.707494e-004,6.346784e-005
1.423936e-004,5.131293e-005
8.203561e-006,4.337174e-005
-1.263107e-004,4.045456e-005
-2.514251e-004,4.450619e-005
-3.436402e-004,5.828174e-005
-3.878840e-004,7.789165e-005
-3.872357e-004,9.701536e-005
-3.619536e-004,1.093323e-004
-3.384541e-004,1.143563e-004
-3.264613e-004,1.101426e-004
-3.159270e-004,9.733949e-005
-2.912931e-004,7.627100e-005
-2.444563e-004,5.001641e-005
-1.739578e-004,2.651694e-005
-8.660465e-005,1.533444e-005
2.693341e-006,2.230324e-005
8.016056e-005,4.207521e-005
1.385041e-004,6.573675e-005
1.777239e-004,8.534666e-005
2.049509e-004,9.442231e-005
2.286124e-004,9.247753e-005
2.542187e-004,8.129502e-005
2.806354e-004,6.589881e-005
3.015418e-004,5.406805e-005
3.135346e-004,4.985435e-005
3.177483e-004,5.082674e-005
3.174242e-004,5.455424e-005
3.132105e-004,5.601283e-005
3.059176e-004,5.179913e-005
3.041349e-004,4.045456e-005
3.146691e-004,2.424803e-005
3.324963e-004,7.393235e-006
3.336308e-004,-4.599598e-006
2.931144e-004,-1.010982e-005
2.008992e-004,-8.975361e-006
7.011251e-005,-6.544382e-006
-9.162867e-005,-6.544382e-006
-2.844864e-004,-1.059601e-005
-5.052193e-004,-2.096819e-005
-7.369726e-004,-3.393342e-005
-9.517092e-004,-4.398147e-005
-1.116367e-003,-4.657451e-005
-1.199507e-003,-4.171255e-005
-1.184435e-003,-3.053005e-005
-1.081848e-003,-2.015787e-005
-9.205926e-004,-1.675450e-005
-7.343796e-004,-2.210265e-005
-5.491390e-004,-3.069211e-005
-3.852910e-004,-3.668853e-005
-2.522354e-004,-3.782299e-005
-1.405724e-004,-3.166451e-005
-3.458168e-005,-1.821308e-005
7.270556e-005,-2.168618e-006
1.751308e-004,9.986280e-006
2.561635e-004,1.517237e-005
2.974902e-004,1.744128e-005
2.851732e-004,2.100672e-005
2.224539e-004,2.278944e-005
1.239182e-004,1.938607e-005
1.484824e-005,1.193106e-005
-7.882551e-005,7.485573e-007
-1.293899e-004,-8.975361e-006
-1.206384e-004,-1.043395e-005
-5.451571e-005,4.244267e-007
4.239934e-005,1.808955e-005
1.404489e-004,2.943412e-005
2.214815e-004,2.716520e-005
2.786906e-004,1.808955e-005
3.133726e-004,1.225519e-005
3.388168e-004,1.095867e-005
3.683128e-004,1.355172e-005
4.104497e-004,2.570661e-005
4.712243e-004,4.726130e-005
5.478812e-004,6.930219e-005
6.371792e-004,8.323980e-005
7.308530e-004,8.631904e-005
8.214476e-004,8.161915e-005
9.013459e-004,7.027457e-005
9.656859e-004,5.649903e-005
1.002475e-003,4.790957e-005
1.006527e-003,5.001641e-005
9.788133e-004,5.925414e-005
9.287350e-004,6.476436e-005
8.674742e-004,5.974033e-005
7.801210e-004,4.353380e-005
6.253485e-004,2.295151e-005
3.799814e-004,1.063454e-005
6.314371e-005,1.338965e-005
-2.614731e-004,3.089270e-005
-5.108916e-004,5.455424e-005
-6.274165e-004,7.059870e-005
-5.933827e-004,7.205730e-005
-4.463896e-004,6.330577e-005
-2.519113e-004,5.163707e-005
-7.736692e-005,4.191315e-005
3.332369e-005,3.915804e-005
5.925414e-005,4.580272e-005
8.203561e-006,5.941620e-005
-8.838737e-005,7.578480e-005
-2.036158e-004,8.761556e-005
-3.235441e-004,9.377405e-005
-4.426621e-004,9.523264e-005
-5.583767e-004,9.215340e-005
-6.659880e-004,8.340186e-005
-7.486413e-004,7.351588e-005
-7.747338e-004,7.011251e-005
-7.210902e-004,7.059870e-005
-5.967862e-004,6.816773e-005
-4.373140e-004,6.022653e-005
-2.812450e-004,4.839576e-005
-1.579134e-004,3.591673e-005
-7.947377e-005,2.100672e-005
-4.155049e-005,5.772582e-006
-3.020592e-005,-4.923729e-006
-2.583015e-005,-1.043395e-005
-1.092015e-005,-1.027188e-005
1.403791e-005,-5.085794e-006
3.445814e-005,4.313994e-006
3.737532e-005,1.419998e-005
2.327564e-005,1.938607e-005
-6.176923e-008,1.468617e-005
-2.242678e-005,4.313994e-006
-3.717472e-005,-6.220251e-006
-4.057810e-005,-1.221667e-005
-2.939559e-005,-1.254080e-005
-5.409925e-006,-7.354708e-006
2.716520e-005,-1.844488e-006
6.832980e-005,-2.238345e-007
1.156529e-004,-3.303075e-006
1.697827e-004,-8.813297e-006
2.274780e-004,-1.578211e-005
2.833905e-004,-2.113026e-005
3.261757e-004,-2.404744e-005
3.396272e-004,-2.842320e-005
3.141829e-004,-3.733679e-005
2.589186e-004,-4.252288e-005
1.942546e-004,-3.685059e-005
1.407730e-004,-2.048200e-005
1.114392e-004,2.623614e-007
1.025256e-004,1.825161e-005
1.081979e-004,3.073064e-005
1.269974e-004,3.283749e-005
1.539003e-004,2.522042e-005
1.843686e-004,1.565857e-005
2.229401e-004,6.420843e-006
2.728562e-004,-1.520357e-006
3.287688e-004,-6.382316e-006
3.803056e-004,-7.840905e-006
4.219564e-004,-3.789271e-006
4.490213e-004,7.069104e-006
4.551798e-004,2.165498e-005
4.394594e-004,3.543053e-005
4.054257e-004,4.466826e-005
3.524303e-004,4.774750e-005
2.746390e-004,4.742337e-005
1.738343e-004,4.790957e-005
5.066468e-005,5.001641e-005
-1.002181e-004,5.325772e-005
-2.789761e-004,5.698522e-005
-4.612996e-004,5.828174e-005
-6.131548e-004,5.649903e-005
-7.078008e-004,5.163707e-005
-7.282211e-004,4.466826e-005
-6.736051e-004,3.769945e-005
-5.676145e-004,3.429608e-005
-4.452551e-004,3.915804e-005
-3.350507e-004,4.709924e-005
-2.515871e-004,4.904402e-005
-1.959987e-004,4.191315e-005
-1.587237e-004,3.154097e-005
-1.280934e-004,3.121684e-005
-9.649063e-005,4.256141e-005
-6.261898e-005,5.990240e-005
-3.231276e-005,7.416414e-005
-1.205460e-005,8.097089e-005
1.883015e-006,8.097089e-005
1.582063e-005,7.870197e-005
3.299956e-005,7.578480e-005
5.423011e-005,7.529860e-005
7.675719e-005,7.610893e-005
9.328785e-005,7.870197e-005
9.928427e-005,8.372600e-005
9.199134e-005,9.020861e-005
7.789165e-005,9.409818e-005
6.249544e-005,9.636710e-005
4.871989e-005,9.960840e-005
4.126489e-005,1.023635e-004
4.418206e-005,1.051186e-004
6.038860e-005,1.023635e-004
8.648111e-005,9.118101e-005
1.163011e-004,6.865393e-005
1.394765e-004,3.753739e-005
1.509831e-004,4.151929e-006
1.508210e-004,-2.291298e-005
1.504969e-004,-3.992984e-005
1.645966e-004,-4.576419e-005
1.966855e-004,-4.203669e-005
2.396328e-004,-2.939559e-005
2.775562e-004,-1.448558e-005
2.999211e-004,-3.951337e-006
2.994350e-004,9.106226e-007
2.817698e-004,1.883015e-006
2.566497e-004,2.369210e-006
2.290986e-004,3.665733e-006
1.965235e-004,6.258778e-006
1.517934e-004,6.744974e-006
9.118101e-005,1.720949e-006
1.711715e-005,-1.270286e-005
-5.872941e-005,-3.652646e-005
-1.259865e-004,-6.164659e-005
-1.814128e-004,-7.866345e-005
-2.225774e-004,-8.125648e-005
-2.452666e-004,-6.926366e-005
-2.533698e-004,-4.608832e-005
-2.564491e-004,-1.724069e-005
-2.669833e-004,9.175954e-006
-2.901587e-004,2.359977e-005
-3.143064e-004,2.295151e-005
-3.241924e-004,1.047248e-005
-3.117133e-004,-7.840905e-006
-2.770314e-004,-2.534396e-005
-2.246843e-004,-3.377135e-005
-1.582375e-004,-3.117831e-005
-8.725291e-005,-1.999580e-005
-2.161646e-005,-8.975361e-006
3.024445e-005,-3.303075e-006
6.978838e-005,-1.043395e-005
1.033359e-004,-2.615428e-005
1.396385e-004,-3.879538e-005
1.780480e-004,-3.701266e-005
2.180782e-004,-2.242678e-005
2.572980e-004,-1.196226e-006
2.887386e-004,1.938607e-005
3.055935e-004,3.283749e-005
3.060797e-004,3.688912e-005
2.927903e-004,3.283749e-005
2.726942e-004,2.700314e-005
2.525981e-004,2.505835e-005
2.409294e-004,2.781346e-005
2.414156e-004,3.559260e-005
2.454672e-004,4.612685e-005
2.419018e-004,5.763348e-005
2.278021e-004,6.379197e-005
2.017096e-004,6.654707e-005
1.715654e-004,7.140904e-005
1.504969e-004,8.064676e-005
1.464453e-004,9.150514e-005
1.634621e-004,1.013911e-004
1.968476e-004,1.034980e-004
2.303951e-004,9.701536e-005
2.477361e-004,8.583285e-005
2.504912e-004,7.384001e-005
2.595669e-004,6.103685e-005
2.973281e-004,4.564065e-005
3.694472e-004,3.202716e-005
4.621486e-004,2.667901e-005
5.566327e-004,2.894792e-005
6.400964e-004,3.478227e-005
6.990882e-004,4.110282e-005
7.204809e-004,4.353380e-005
6.977917e-004,4.385793e-005
6.272933e-004,4.158902e-005
4.900239e-004,4.013043e-005
2.542187e-004,4.515445e-005
-9.065627e-005,5.277152e-005
-5.013297e-004,5.714729e-005
-9.154065e-004,5.179913e-005
-1.286050e-003,3.769945e-005
-1.584736e-003,2.084466e-005
-1.795583e-003,5.934647e-006
-1.912270e-003,-7.678839e-006
-1.944197e-003,-1.788895e-005
-1.905626e-003,-1.967167e-005
-1.795421e-003,-9.947754e-006
-1.616501e-003,7.717366e-006
-1.377941e-003,2.651694e-005
-1.097406e-003,3.964423e-005
-8.069848e-004,4.823369e-005
-5.421702e-004,5.277152e-005
-3.275957e-004,5.325772e-005
-1.674752e-004,4.904402e-005
-4.544005e-005,3.769945e-005
6.103685e-005,2.133085e-005
1.726999e-004,8.689757e-006
2.984626e-004,3.179537e-006
4.367043e-004,1.558884e-006
5.788357e-004,-6.176923e-008
7.120535e-004,-5.247859e-006
8.250131e-004,-1.286493e-005
9.169042e-004,-1.853721e-005
9.987473e-004,-1.740276e-005
1.079132e-003,-8.651231e-006
1.153196e-003,4.800190e-006
1.202302e-003,1.987226e-005
1.213322e-003,3.380988e-005
1.176209e-003,4.256141e-005
1.094852e-003,4.580272e-005
9.867544e-004,4.499239e-005
8.436506e-004,4.077869e-005
6.316690e-004,3.867184e-005
3.213138e-004,4.353380e-005
-7.655659e-005,5.277152e-005
-4.995470e-004,6.152305e-005
-8.588457e-004,6.735740e-005
-1.084279e-003,6.768153e-005
-1.141001e-003,5.747142e-005
-1.037280e-003,3.867184e-005
-8.225431e-004,1.517237e-005
-5.726385e-004,-6.176923e-008
-3.566054e-004,5.934647e-006
-2.139880e-004,2.781346e-005
-1.455964e-004,4.888196e-005
-1.261486e-004,5.520250e-005
-1.224211e-004,4.709924e-005
-1.047560e-004,3.056858e-005
-4.916756e-005,1.241726e-005
5.374392e-005,-2.006553e-006
1.908512e-004,-9.461557e-006
3.290929e-004,-8.002969e-006
4.362181e-004,2.207145e-006
4.987753e-004,1.614476e-005
5.269747e-004,2.554455e-005
5.389676e-004,2.992031e-005
5.472329e-004,3.154097e-005
5.499880e-004,3.478227e-005
5.402641e-004,3.818564e-005
5.133613e-004,4.175108e-005
4.709001e-004,4.790957e-005
4.206599e-004,5.876794e-005
3.681507e-004,7.173317e-005
3.143450e-004,8.323980e-005
2.555152e-004,8.891209e-005
1.876099e-004,8.275361e-005
1.060910e-004,6.670914e-005
1.128280e-005,4.839576e-005
-8.093235e-005,3.672705e-005
-1.433275e-004,3.769945e-005
-1.613168e-004,4.531652e-005
-1.326312e-004,5.244739e-005
-6.974985e-005,5.893001e-005
1.128280e-005,6.460230e-005
9.912220e-005,6.832980e-005
1.919856e-004,6.962632e-005
2.887386e-004,6.703327e-005
3.871123e-004,6.217131e-005
4.820826e-004,5.893001e-005
5.542017e-004,5.941620e-005
5.856425e-004,6.589881e-005
5.746220e-004,7.562274e-005
5.375090e-004,8.210535e-005
4.916445e-004,8.259154e-005
4.457800e-004,7.643306e-005
3.944053e-004,6.719534e-005
3.224483e-004,5.811968e-005
2.221298e-004,5.147500e-005
9.912220e-005,4.645098e-005
-3.344722e-005,3.656499e-005
-1.616409e-004,2.084466e-005
-2.778417e-004,3.503668e-006
-3.742705e-004,-1.237873e-005
-4.455793e-004,-2.566809e-005
-4.822060e-004,-4.009190e-005
-4.739407e-004,-5.483985e-005
-4.206212e-004,-7.250496e-005
-3.407230e-004,-9.000801e-005
-2.564491e-004,-1.034594e-004
-1.830335e-004,-1.052422e-004
-1.246900e-004,-9.179074e-005
-7.363942e-005,-7.218083e-005
-2.501983e-005,-5.565017e-005
1.387585e-005,-4.511592e-005
2.408596e-005,-4.041603e-005
-1.043395e-005,-4.187462e-005
-9.486997e-005,-4.576419e-005
-2.178775e-004,-4.835723e-005
-3.590364e-004,-5.062615e-005
-4.925782e-004,-5.062615e-005
-5.967862e-004,-4.673658e-005
-6.591813e-004,-3.847125e-005
-6.687432e-004,-2.680255e-005
-6.209339e-004,-1.254080e-005
-5.270981e-004,2.693341e-006
-4.108973e-004,1.128280e-005
-2.959930e-004,1.225519e-005
-1.953505e-004,5.286386e-006
-1.107524e-004,-3.789271e-006
-3.360929e-005,-9.623623e-006
4.920609e-005,-1.010982e-005
1.420695e-004,-5.409925e-006
2.347709e-004,3.179537e-006
3.138588e-004,1.290346e-005
3.665300e-004,2.019640e-005
3.948915e-004,2.052053e-005
4.151496e-004,1.338965e-005
4.417284e-004,1.396819e-006
4.710622e-004,-9.137427e-006
4.927790e-004,-1.367526e-005
4.974788e-004,-5.734055e-006
4.817585e-004,2.278944e-005
4.474007e-004,7.108490e-005
3.961880e-004,1.255388e-004
3.336308e-004,1.663793e-004
2.676701e-004,1.833962e-004
2.107852e-004,1.764274e-004
1.780480e-004,1.542244e-004
1.683241e-004,1.287802e-004
1.602208e-004,1.075496e-004
1.279698e-004,8.956035e-005
6.460230e-005,6.670914e-005
-3.150244e-005,4.304760e-005
-1.559686e-004,2.522042e-005
-2.908069e-004,1.792748e-005
-4.102490e-004,2.359977e-005
-4.896610e-004,4.256141e-005
-5.240189e-004,6.719534e-005
-5.251534e-004,8.891209e-005
-5.026262e-004,1.018773e-004
-4.619479e-004,1.080358e-004
-4.136524e-004,1.094944e-004
-3.638984e-004,1.064151e-004
-3.207890e-004,1.020394e-004
-2.887001e-004,9.912220e-005
-2.639041e-004,9.620503e-005
-2.274394e-004,8.956035e-005
-1.608306e-004,8.048469e-005
-6.197072e-005,6.832980e-005
4.936815e-005,5.423011e-005
1.396385e-004,4.029249e-005
1.895547e-004,2.829966e-005
2.041405e-004,1.954813e-005
1.992786e-004,1.371378e-005
1.890685e-004,9.662150e-006
1.801549e-004,8.851824e-006
1.798307e-004,9.338019e-006
1.906891e-004,1.063454e-005
2.107852e-004,1.452411e-005
2.287745e-004,1.808955e-005
2.271538e-004,1.792748e-005
1.947408e-004,9.824214e-006
1.341283e-004,-3.789271e-006
6.557468e-005,-1.545797e-005
3.503668e-006,-2.453363e-005
-4.689864e-005,-2.842320e-005
-8.352540e-005,-2.647842e-005
-1.120489e-004,-2.096819e-005
-1.373311e-004,-1.691656e-005
-1.614788e-004,-1.578211e-005
-1.828714e-004,-1.432352e-005
-1.851403e-004,-8.975361e-006
-1.468929e-004,-2.006553e-006
-6.342930e-005,-8.720958e-007
5.212327e-005,-8.165034e-006
1.788584e-004,-2.485776e-005
2.983005e-004,-4.754691e-005
3.974845e-004,-6.764300e-005
4.733311e-004,-7.396355e-005
5.307022e-004,-6.116039e-005
5.830494e-004,-3.360929e-005
6.412309e-004,-5.734055e-006
7.115673e-004,1.144487e-005
7.890345e-004,1.419998e-005
8.535366e-004,6.907039e-006
8.857876e-004,-3.789271e-006
8.793050e-004,-1.513384e-005
8.253373e-004,-2.420950e-005
7.222636e-004,-2.907146e-005
5.738116e-004,-2.793700e-005
3.785229e-004,-2.485776e-005
1.308870e-004,-2.015787e-005
-1.737958e-004,-1.173047e-005
-5.136466e-004,5.864920e-007
-8.534976e-004,1.355172e-005
-1.170983e-003,2.457216e-005
-1.453463e-003,2.894792e-005
-1.689268e-003,2.878586e-005
-1.854251e-003,2.570661e-005
-1.912108e-003,2.327564e-005
-1.827348e-003,2.278944e-005
-1.600781e-003,2.570661e-005
-1.278595e-003,3.024445e-005
-9.278855e-004,3.591673e-005
-6.001896e-004,4.531652e-005
-3.186821e-004,5.974033e-005
-8.644258e-005,7.367795e-005
1.046324e-004,8.356393e-005
2.579462e-004,9.150514e-005
3.720402e-004,1.004187e-004
4.462662e-004,1.101426e-004
4.858101e-004,1.171115e-004
4.982892e-004,1.211631e-004
4.880791e-004,1.195424e-004
4.611762e-004,1.088461e-004
4.239012e-004,9.312579e-005
3.872744e-004,7.837785e-005
3.644232e-004,6.849186e-005
3.572923e-004,6.508849e-005
3.587509e-004,6.703327e-005
3.563199e-004,6.962632e-005
3.440029e-004,6.849186e-005
3.245551e-004,6.606088e-005
2.984626e-004,6.168512e-005
2.717218e-004,5.341978e-005
2.524360e-004,4.353380e-005
2.441707e-004,3.705119e-005
2.415776e-004,3.478227e-005
2.438465e-004,3.526847e-005
2.466016e-004,3.640293e-005
2.454672e-004,3.316162e-005
2.490327e-004,2.992031e-005
2.654012e-004,3.462021e-005
2.984626e-004,4.337174e-005
3.423823e-004,5.082674e-005
3.809539e-004,5.471631e-005
3.995913e-004,5.293359e-005
3.947294e-004,4.661304e-005
3.738230e-004,3.883391e-005
3.482167e-004,3.283749e-005
3.295791e-004,3.056858e-005
3.232586e-004,3.267542e-005
3.203414e-004,3.559260e-005
3.054314e-004,3.380988e-005
2.689667e-004,2.829966e-005
2.059233e-004,2.262737e-005
1.164632e-004,2.100672e-005
8.365628e-006,2.197911e-005
-9.811128e-005,2.181705e-005
-1.780095e-004,1.695509e-005
-2.169051e-004,8.203561e-006
-2.177155e-004,2.623614e-007
-1.906506e-004,-2.654814e-006
-1.391138e-004,1.883015e-006
-5.565017e-005,8.689757e-006
6.492643e-005,7.393235e-006
2.188885e-004,-1.034161e-006
3.850055e-004,-1.237873e-005
5.225990e-004,-2.226472e-005
6.031455e-004,-2.761287e-005
6.294001e-004,-2.664048e-005
6.217830e-004,-1.934754e-005
5.960146e-004,-1.140634e-005
5.503122e-004,-6.868512e-006
4.629589e-004,-7.516774e-006
3.085106e-004,-1.318906e-005
8.032263e-005,-1.448558e-005
-2.052364e-004,-8.002969e-006
-5.073261e-004,6.907039e-006
-7.710063e-004,2.684107e-005
-9.523574e-004,4.077869e-005
-1.040521e-003,3.932010e-005
-1.055431e-003,2.716520e-005
-1.029338e-003,1.825161e-005
-9.991942e-004,1.873781e-005
-9.909290e-004,2.748933e-005
-1.003894e-003,4.110282e-005
-1.008756e-003,5.131293e-005
-9.709949e-004,5.212327e-005
-8.726213e-004,3.915804e-005
-7.159041e-004,1.841368e-005
-5.199672e-004,-1.682422e-006
-3.125237e-004,-1.545797e-005
-1.109144e-004,-2.015787e-005
7.935023e-005,-1.788895e-005
2.576221e-004,-1.140634e-005
4.089912e-004,-1.682422e-006
5.225990e-004,1.533444e-005
5.992559e-004,4.110282e-005
6.452825e-004,6.719534e-005
6.650545e-004,8.421220e-005
6.634339e-004,8.891209e-005
6.433377e-004,8.194328e-005
6.073592e-004,6.411610e-005
5.608465e-004,3.850977e-005
5.119027e-004,1.193106e-005
4.721966e-004,-9.461557e-006
4.435111e-004,-1.886135e-005
4.247115e-004,-1.318906e-005
4.098015e-004,2.855406e-006
3.934329e-004,2.424803e-005
3.707437e-004,4.223728e-005
3.438409e-004,5.374392e-005
3.159656e-004,6.071273e-005
2.900352e-004,6.768153e-005
2.594048e-004,7.432621e-005
2.158092e-004,8.048469e-005
1.524417e-004,8.615698e-005
6.816773e-005,8.793970e-005
-3.701266e-005,8.210535e-005
-1.592099e-004,6.768153e-005
-2.844864e-004,4.531652e-005
-3.891806e-004,2.311357e-005
-4.544929e-004,8.851824e-006
-4.645409e-004,6.096713e-006
-4.272659e-004,1.176900e-005
-3.669776e-004,1.744128e-005
-3.062031e-004,1.841368e-005
-2.617972e-004,1.630683e-005
-2.387839e-004,1.436204e-005
-2.321393e-004,1.436204e-005
-2.310048e-004,1.290346e-005
-2.305186e-004,4.313994e-006
-2.347323e-004,-9.299492e-006
-2.523974e-004,-2.420950e-005
-2.810830e-004,-3.749886e-005
-3.094444e-004,-4.560212e-005
-3.334301e-004,-4.787104e-005
-3.480160e-004,-4.495386e-005
-3.494745e-004,-4.138842e-005
-3.332680e-004,-3.749886e-005
-2.971275e-004,-3.458168e-005
-2.433218e-004,-3.231276e-005
-1.797922e-004,-2.680255e-005
-1.117248e-004,-1.302699e-005
-3.733679e-005,6.744974e-006
4.904402e-005,2.619281e-005
1.490383e-004,3.899597e-005
2.543808e-004,4.191315e-005
3.530786e-004,3.283749e-005
4.347596e-004,1.565857e-005
4.956961e-004,-8.720958e-007
5.376711e-004,-7.678839e-006
5.689497e-004,-2.978945e-006
5.979594e-004,9.175954e-006
6.237278e-004,2.376183e-005
6.434998e-004,3.786152e-005
6.564650e-004,5.341978e-005
6.550064e-004,6.670914e-005
6.256726e-004,7.108490e-005
5.618188e-004,6.541262e-005
4.707380e-004,4.936815e-005
3.598853e-004,3.121684e-005
2.438465e-004,2.246531e-005
1.433660e-004,2.424803e-005
7.513654e-005,2.975825e-005
4.661304e-005,3.445814e-005
5.504044e-005,3.688912e-005
8.453633e-005,3.899597e-005
1.234320e-004,4.223728e-005
1.649207e-004,4.823369e-005
2.020337e-004,5.504044e-005
2.248849e-004,6.168512e-005
2.305572e-004,6.784360e-005
2.245608e-004,7.529860e-005
2.206712e-004,8.664317e-005
2.290986e-004,1.025256e-004
2.521119e-004,1.185700e-004
2.791768e-004,1.326697e-004
2.979764e-004,1.474177e-004
2.958695e-004,1.574657e-004
2.649151e-004,1.547106e-004
2.018716e-004,1.357490e-004
1.130598e-004,1.072255e-004
2.116879e-005,7.691926e-005
-5.257093e-005,5.390598e-005
-9.973194e-005,3.850977e-005
-1.214487e-004,2.505835e-005
-1.259865e-004,5.610517e-006
-1.263107e-004,-2.437157e-005
-1.297140e-004,-5.905355e-005
-1.389517e-004,-8.887356e-005
-1.541859e-004,-1.041077e-004
-1.817370e-004,-1.005423e-004
-2.253325e-004,-8.401160e-005
-2.867553e-004,-6.164659e-005
-3.661673e-004,-3.911951e-005
-4.621099e-004,-1.643037e-005
-5.656697e-004,4.476060e-006
-6.624226e-004,2.408596e-005
-7.416725e-004,3.932010e-005
-7.914265e-004,4.888196e-005
-8.001781e-004,5.325772e-005
-7.663065e-004,5.196120e-005
-6.967805e-004,4.839576e-005
-6.029447e-004,4.693717e-005
-4.971160e-004,4.645098e-005
-3.929080e-004,4.693717e-005
-3.060411e-004,4.628891e-005
-2.420253e-004,4.466826e-005
-1.979435e-004,4.110282e-005
-1.671511e-004,3.640293e-005
-1.444620e-004,3.235129e-005
-1.248521e-004,2.927205e-005
-1.039456e-004,2.554455e-005
-7.898758e-005,1.971020e-005
-5.257093e-005,1.679302e-005
-2.745081e-005,1.744128e-005
-8.813297e-006,1.695509e-005
1.072688e-006,1.193106e-005
5.772582e-006,4.800190e-006
1.565857e-005,4.244267e-007
4.418206e-005,2.855406e-006
9.458438e-005,1.225519e-005
1.574657e-004,2.441009e-005
2.091646e-004,3.526847e-005
2.287745e-004,3.867184e-005
2.114335e-004,3.202716e-005
1.626518e-004,1.549650e-005
9.798775e-005,-6.220251e-006
3.575467e-005,-2.777494e-005
-1.140634e-005,-4.349527e-005
-3.879538e-005,-5.273300e-005
-4.770897e-005,-5.419158e-005
-3.717472e-005,-4.803310e-005
-3.789271e-006,-3.749886e-005
4.823369e-005,-2.420950e-005
1.098185e-004,-8.813297e-006
1.780480e-004,6.420843e-006
2.585945e-004,1.517237e-005
3.600474e-004,1.112074e-005
4.840274e-004,2.369210e-006
6.232416e-004,-5.479652e-007
7.729901e-004,5.772582e-006
9.295453e-004,1.695509e-005
1.086263e-003,2.781346e-005
1.230177e-003,3.413401e-005
1.344595e-003,3.705119e-005
1.417849e-003,3.688912e-005
1.433083e-003,3.218923e-005
1.372146e-003,2.554455e-005
1.219481e-003,2.197911e-005
9.619584e-004,2.262737e-005
5.900182e-004,2.667901e-005
1.106288e-004,3.040651e-005
-4.429862e-004,2.992031e-005
-9.993564e-004,2.586868e-005
-1.472587e-003,2.165498e-005
-1.789425e-003,2.133085e-005
-1.914215e-003,2.667901e-005
-1.851010e-003,3.624086e-005
-1.637894e-003,4.855782e-005
-1.339693e-003,6.119892e-005
-1.023504e-003,7.205730e-005
-7.405381e-004,8.145709e-005
-5.173741e-004,8.988448e-005
-3.572537e-004,9.490851e-005
-2.467252e-004,9.507057e-005
-1.618029e-004,9.085687e-005
-8.871149e-005,8.421220e-005
-2.469570e-005,8.469840e-005
2.619281e-005,9.474644e-005
6.200925e-005,1.093323e-004
8.631904e-005,1.190562e-004
1.025256e-004,1.200286e-004
1.153287e-004,1.098185e-004
1.244044e-004,9.101894e-005
1.276457e-004,7.092283e-005
1.291043e-004,5.649903e-005
1.347766e-004,4.726130e-005
1.433660e-004,4.013043e-005
1.524417e-004,3.413401e-005
1.597346e-004,2.781346e-005
1.704310e-004,1.776542e-005
1.913374e-004,4.962256e-006
2.174299e-004,-6.706447e-006
2.401191e-004,-1.173047e-005
2.522740e-004,-8.165034e-006
2.589186e-004,1.396819e-006
2.762596e-004,1.679302e-005
3.088348e-004,3.040651e-005
3.441650e-004,3.218923e-005
3.603715e-004,2.343770e-005
3.496752e-004,1.501031e-005
3.252033e-004,1.419998e-005
3.049452e-004,2.262737e-005
2.926282e-004,3.332369e-005
2.842008e-004,3.721326e-005
2.722080e-004,3.186510e-005
2.462775e-004,1.954813e-005
1.916615e-004,5.934647e-006
9.750155e-005,-8.327101e-006
-3.895744e-005,-2.664048e-005
-2.047502e-004,-4.608832e-005
-3.724878e-004,-6.440169e-005
-4.977643e-004,-7.493595e-005
-5.368220e-004,-7.574627e-005
-4.736166e-004,-6.829127e-005
-3.378058e-004,-5.743289e-005
-1.836818e-004,-4.641245e-005
-4.949169e-005,-3.992984e-005
6.557468e-005,-3.895744e-005
1.778859e-004,-4.057810e-005
2.884145e-004,-3.847125e-005
3.759298e-004,-2.874733e-005
4.204978e-004,-1.367526e-005
4.227667e-004,3.503668e-006
3.978086e-004,2.100672e-005
3.605336e-004,3.575467e-005
3.261757e-004,4.466826e-005
3.034866e-004,4.402000e-005
2.947351e-004,3.235129e-005
2.853353e-004,1.501031e-005
2.402811e-004,-1.034161e-006
1.323456e-004,-1.302699e-005
-2.826113e-005,-1.302699e-005
-1.950263e-004,2.369210e-006
-3.068514e-004,2.862379e-005
-3.191683e-004,5.358185e-005
-2.224154e-004,6.849186e-005
-3.555407e-005,7.189524e-005
1.987924e-004,6.800567e-005
4.313562e-004,6.281957e-005
6.315069e-004,6.087479e-005
7.932482e-004,6.427816e-005
9.169042e-004,7.205730e-005
1.000044e-003,8.210535e-005
1.033105e-003,9.231547e-005
9.935612e-004,9.669123e-005
8.650432e-004,9.263960e-005
6.545202e-004,8.097089e-005
3.929467e-004,6.525056e-005
1.161391e-004,5.196120e-005
-1.485136e-004,4.839576e-005
-3.898288e-004,5.098881e-005
-5.962999e-004,5.568870e-005
-7.473448e-004,6.087479e-005
-8.212466e-004,6.784360e-005
-8.163846e-004,7.594687e-005
-7.577170e-004,8.161915e-005
-6.758740e-004,8.161915e-005
-5.953276e-004,7.481241e-005
-5.258016e-004,6.411610e-005
-4.705373e-004,5.325772e-005
-4.240246e-004,4.758544e-005
-3.728119e-004,4.774750e-005
-3.102547e-004,5.439218e-005
-2.434839e-004,6.265751e-005
-1.833576e-004,6.687120e-005
-1.373311e-004,6.249544e-005
-1.034594e-004,5.374392e-005
-7.655659e-005,4.353380e-005
-5.370539e-005,3.348575e-005
-3.377135e-005,2.505835e-005
-1.545797e-005,2.230324e-005
-6.176923e-008,2.554455e-005
9.500084e-006,3.089270e-005
2.623614e-007,3.494434e-005
-3.944364e-005,3.737532e-005
-1.084835e-004,3.932010e-005
-1.995642e-004,4.175108e-005
-2.914552e-004,3.672705e-005
-3.517435e-004,1.857574e-005
-3.491504e-004,-9.623623e-006
-2.789761e-004,-3.976777e-005
-1.699062e-004,-6.099833e-005
-6.958779e-005,-6.829127e-005
-2.978945e-006,-5.905355e-005
2.278944e-005,-4.138842e-005
5.286386e-006,-2.680255e-005
-4.625038e-005,-1.837515e-005
-1.118868e-004,-1.383732e-005
-1.632615e-004,-1.124428e-005
-1.770371e-004,-1.059601e-005
-1.483515e-004,-1.092015e-005
-8.595638e-005,-1.335112e-005
-7.354708e-006,-1.902341e-005
6.541262e-005,-2.534396e-005
1.151667e-004,-2.615428e-005
1.381799e-004,-1.886135e-005
1.394765e-004,-9.623623e-006
1.365593e-004,-7.030578e-006
1.391524e-004,-1.156841e-005
1.527658e-004,-1.934754e-005
1.835582e-004,-2.518189e-005
2.352571e-004,-2.793700e-005
3.055935e-004,-2.631635e-005
3.806297e-004,-1.643037e-005
4.392974e-004,4.244267e-007
4.696036e-004,1.922400e-005
4.670106e-004,3.316162e-005
4.323286e-004,3.656499e-005
3.751195e-004,3.121684e-005
3.098072e-004,2.376183e-005
2.487085e-004,1.987226e-005
2.025199e-004,2.359977e-005
1.731861e-004,3.073064e-005
1.545486e-004,3.721326e-005
1.399627e-004,3.818564e-005
1.316973e-004,3.364782e-005
1.316973e-004,2.732727e-005
1.393144e-004,2.359977e-005
1.469315e-004,2.392390e-005
1.457970e-004,2.813760e-005
1.342904e-004,3.948217e-005
1.169494e-004,5.617490e-005
1.012291e-004,7.173317e-005
9.393611e-005,7.951231e-005
9.782569e-005,8.113296e-005
1.114392e-004,7.951231e-005
1.316973e-004,7.529860e-005
1.513072e-004,6.930219e-005
1.628139e-004,6.379197e-005
1.592484e-004,6.233338e-005
1.412592e-004,6.670914e-005
1.145184e-004,7.400208e-005
9.182927e-005,7.951231e-005
7.983643e-005,8.016056e-005
7.918817e-005,7.448828e-005
8.534666e-005,6.281957e-005
9.118101e-005,4.920609e-005
8.891209e-005,4.191315e-005
7.319175e-005,4.855782e-005
4.369587e-005,6.103685e-005
5.124321e-006,7.286762e-005
-3.490581e-005,8.323980e-005
-7.023605e-005,8.923622e-005
-1.037836e-004,8.810177e-005
-1.460826e-004,8.145709e-005
-2.029675e-004,7.076077e-005
-2.648765e-004,5.666109e-005
-3.151167e-004,4.207521e-005
-3.473677e-004,3.316162e-005
-3.655190e-004,3.235129e-005
-3.778360e-004,3.170303e-005
-3.878840e-004,2.554455e-005
-3.914495e-004,1.403791e-005
-3.818876e-004,4.638125e-006
-3.509331e-004,1.002961e-007
-3.019894e-004,-1.520357e-006
-2.527216e-004,-8.720958e-007
-2.165810e-004,1.396819e-006
-1.912988e-004,2.045080e-006
-1.647201e-004,3.341602e-006
-1.253383e-004,2.855406e-006
-6.634648e-005,2.045080e-006
1.160693e-005,1.002961e-007
9.831188e-005,-3.465141e-006
1.820997e-004,-8.327101e-006
2.568118e-004,-1.432352e-005
3.140208e-004,-1.934754e-005
3.498373e-004,-2.113026e-005
3.751195e-004,-1.659243e-005
4.008879e-004,-5.571990e-006
4.355699e-004,1.128280e-005
4.824068e-004,2.424803e-005
5.404262e-004,2.424803e-005
6.073592e-004,1.403791e-005
6.744543e-004,7.485573e-007
7.352288e-004,-1.205460e-005
7.814175e-004,-2.015787e-005
7.990826e-004,-2.437157e-005
7.661833e-004,-2.485776e-005
6.669993e-004,-2.501983e-005
4.952099e-004,-2.615428e-005
2.548670e-004,-2.939559e-005
-3.814712e-005,-3.085418e-005
-3.685983e-004,-2.712668e-005
-7.089353e-004,-1.902341e-005
-1.018480e-003,-5.085794e-006
-1.259633e-003,1.565857e-005
-1.413271e-003,3.818564e-005
-1.493493e-003,5.471631e-005
-1.544220e-003,6.071273e-005
-1.598836e-003,5.309565e-005
-1.661231e-003,3.607880e-005
-1.705313e-003,1.484824e-005
