1.453108e-004,-1.290658e-004
1.417454e-004,-1.750923e-004
1.279698e-004,-2.207947e-004
1.039842e-004,-2.553146e-004
6.606088e-005,-2.744383e-004
2.133085e-005,-2.838381e-004
-2.048200e-005,-2.885380e-004
-5.338126e-005,-2.924276e-004
-7.655659e-005,-2.974516e-004
-8.433573e-005,-3.037722e-004
-6.553616e-005,-3.115513e-004
-1.270286e-005,-3.178718e-004
6.654707e-005,-3.177098e-004
1.527658e-004,-3.083100e-004
2.261814e-004,-2.872415e-004
2.773941e-004,-2.575835e-004
3.145071e-004,-2.235498e-004
3.538889e-004,-1.919471e-004
4.096394e-004,-1.655304e-004
4.811102e-004,-1.472171e-004
5.572810e-004,-1.391138e-004
6.285898e-004,-1.366828e-004
6.982779e-004,-1.336036e-004
7.807692e-004,-1.246900e-004
8.778464e-004,-1.107524e-004
9.621205e-004,-9.422171e-005
9.891854e-004,-7.526008e-005
9.374865e-004,-5.159854e-005
8.094548e-004,-2.356124e-005
6.172452e-004,5.610517e-006
3.882468e-004,2.635488e-005
1.398006e-004,3.510640e-005
-1.258244e-004,3.429608e-005
-3.912874e-004,2.813760e-005
-6.223925e-004,2.052053e-005
-7.787854e-004,9.662150e-006
-8.262706e-004,-1.520357e-006
-7.547998e-004,-8.975361e-006
-5.719902e-004,-1.351319e-005
-2.872415e-004,-1.578211e-005
8.145709e-005,-1.659243e-005
5.138475e-004,-1.869928e-005
1.013981e-003,-2.064406e-005
1.600821e-003,-1.545797e-005
2.276473e-003,-7.100305e-007
2.988107e-003,2.035846e-005
3.619032e-003,4.158902e-005
4.017231e-003,6.168512e-005
4.077844e-003,8.210535e-005
3.815457e-003,1.007429e-004
3.325367e-003,1.163011e-004
2.689904e-003,1.320215e-004
1.955097e-003,1.464453e-004
1.197116e-003,1.569795e-004
5.418848e-004,1.660552e-004
7.627100e-005,1.778859e-004
-2.073433e-004,1.939304e-004
-3.280819e-004,2.138645e-004
-2.626076e-004,2.341226e-004
-1.235555e-004,2.485465e-004
-2.491561e-004,2.480603e-004
-9.734259e-004,2.295848e-004
-2.391822e-003,2.002510e-004
-4.324945e-003,1.676758e-004
-4.968511e-003,1.375317e-004
-4.968511e-003,1.109530e-004
-4.968511e-003,8.777764e-005
-4.968511e-003,6.379197e-005
-4.968349e-003,3.818564e-005
-4.800448e-003,1.338965e-005
-2.703474e-003,-3.858999e-007
-9.941702e-004,-1.358292e-006
1.647587e-004,3.017472e-006
7.797969e-004,1.095867e-005
9.817304e-004,2.327564e-005
1.004095e-003,3.996836e-005
1.077673e-003,5.552663e-005
1.187391e-003,6.184718e-005
1.108790e-003,5.763348e-005
6.864471e-004,5.017848e-005
3.121684e-005,4.499239e-005
-5.595111e-004,4.564065e-005
-8.377773e-004,5.082674e-005
-7.389174e-004,5.876794e-005
-3.744326e-004,6.541262e-005
7.173317e-005,7.043664e-005
4.566384e-004,7.837785e-005
7.225877e-004,8.907416e-005
8.647191e-004,9.733949e-005
9.008597e-004,9.377405e-005
8.770361e-004,7.886404e-005
8.799533e-004,6.103685e-005
9.971267e-004,5.115087e-005
1.264373e-003,5.552663e-005
1.651547e-003,7.367795e-005
2.108573e-003,9.636710e-005
2.584399e-003,1.093323e-004
3.015820e-003,1.028497e-004
3.336225e-003,7.140904e-005
3.494564e-003,2.489629e-005
3.473820e-003,-1.999580e-005
3.322287e-003,-4.819516e-005
3.093450e-003,-5.727082e-005
2.776286e-003,-5.240886e-005
2.312938e-003,-4.252288e-005
1.677640e-003,-4.122636e-005
9.194972e-004,-5.694669e-005
1.496866e-004,-8.465986e-005
-5.410357e-004,-1.120489e-004
-1.168553e-003,-1.290658e-004
-1.819893e-003,-1.347380e-004
-2.574146e-003,-1.285796e-004
-3.424019e-003,-1.156143e-004
-4.198533e-003,-1.018388e-004
-4.638057e-003,-8.482193e-005
-4.515211e-003,-6.213279e-005
-3.755930e-003,-3.377135e-005
-2.493924e-003,-7.516774e-006
-1.031607e-003,5.286386e-006
2.692908e-004,5.934647e-006
1.135369e-003,-3.858999e-007
1.520599e-003,-6.058186e-006
1.527243e-003,-6.058186e-006
1.317854e-003,1.002961e-007
1.042829e-003,9.824214e-006
8.144788e-004,2.619281e-005
6.767232e-004,5.066468e-005
5.867769e-004,7.691926e-005
4.704139e-004,8.826383e-005
2.713976e-004,7.124698e-005
1.014835e-005,2.522042e-005
-2.227395e-004,-3.652646e-005
-3.193304e-004,-8.935975e-005
-1.877334e-004,-1.146419e-004
1.979821e-004,-1.070249e-004
7.648868e-004,-7.331529e-005
1.375712e-003,-2.664048e-005
1.894970e-003,1.938607e-005
2.222019e-003,6.298164e-005
2.309697e-003,1.046324e-004
2.175344e-003,1.419075e-004
1.887515e-003,1.726999e-004
1.533402e-003,1.968476e-004
1.192254e-003,2.141886e-004
9.224144e-004,2.227780e-004
7.564594e-004,2.248849e-004
7.092984e-004,2.205091e-004
7.660213e-004,2.132162e-004
8.679605e-004,2.038164e-004
9.376486e-004,1.932822e-004
9.316522e-004,1.796687e-004
8.619640e-004,1.649207e-004
8.075100e-004,1.430419e-004
8.997252e-004,1.078737e-004
1.252218e-003,6.249544e-005
1.788493e-003,1.792748e-005
2.121214e-003,-1.821308e-005
1.775528e-003,-4.041603e-005
5.906665e-004,-4.819516e-005
-1.120419e-003,-4.689864e-005
-2.754687e-003,-4.398147e-005
-3.925289e-003,-4.090223e-005
-4.515859e-003,-3.685059e-005
-4.562696e-003,-3.409548e-005
-4.144079e-003,-3.409548e-005
-3.376534e-003,-3.863331e-005
-2.416294e-003,-4.916756e-005
-1.451194e-003,-6.650855e-005
-6.761981e-004,-8.790116e-005
-2.216050e-004,-1.086455e-004
-8.757703e-005,-1.186936e-004
-1.731475e-004,-1.165867e-004
-3.410472e-004,-1.075111e-004
-4.799371e-004,-1.039456e-004
-5.368220e-004,-1.081593e-004
-5.042469e-004,-1.123730e-004
-3.974459e-004,-1.123730e-004
-2.468872e-004,-1.055663e-004
-7.866345e-005,-9.276313e-005
9.020861e-005,-7.623246e-005
2.477361e-004,-6.132245e-005
3.812780e-004,-4.657451e-005
4.770586e-004,-3.312309e-005
5.269747e-004,-1.983374e-005
5.324850e-004,-7.840905e-006
5.078511e-004,1.883015e-006
4.734932e-004,9.338019e-006
4.514523e-004,1.419998e-005
4.616624e-004,1.841368e-005
5.091476e-004,2.651694e-005
5.757564e-004,3.948217e-005
6.282656e-004,5.325772e-005
6.627856e-004,6.427816e-005
6.968193e-004,7.270556e-005
7.269635e-004,8.275361e-005
7.118914e-004,9.474644e-005
6.007145e-004,1.062531e-004
3.935950e-004,1.169494e-004
1.441764e-004,1.252147e-004
-7.736692e-005,1.325077e-004
-2.183637e-004,1.391524e-004
-2.611490e-004,1.469315e-004
-2.285738e-004,1.568175e-004
-1.629374e-004,1.667035e-004
-1.018388e-004,1.736723e-004
-6.440169e-005,1.772377e-004
-5.111234e-005,1.744826e-004
-5.321919e-005,1.600588e-004
-6.991192e-005,1.365593e-004
-9.681476e-005,1.135460e-004
-1.316588e-004,9.782569e-005
-1.661787e-004,9.118101e-005
-1.888679e-004,9.215340e-005
-1.942160e-004,9.361198e-005
-1.869231e-004,9.118101e-005
-1.771991e-004,8.502253e-005
-1.707165e-004,7.853991e-005
-1.666649e-004,7.157111e-005
-1.593720e-004,6.298164e-005
-1.425172e-004,5.196120e-005
-1.190177e-004,3.753739e-005
-9.875954e-005,2.214118e-005
-8.320127e-005,6.258778e-006
-6.586029e-005,-2.145439e-005
-4.171255e-005,-7.655659e-005
-1.513384e-005,-1.558065e-004
-7.100305e-007,-2.400805e-004
-1.383732e-005,-3.105789e-004
-5.402952e-005,-3.528779e-004
-1.011905e-004,-3.596847e-004
-1.313347e-004,-3.266234e-004
-1.329553e-004,-2.535319e-004
-1.112386e-004,-1.457585e-004
-8.579432e-005,-1.869928e-005
-8.320127e-005,1.107909e-004
-1.172350e-004,2.256952e-004
-1.794681e-004,3.135346e-004
-2.480217e-004,3.663680e-004
-2.998826e-004,3.850055e-004
-3.256510e-004,3.751195e-004
-3.274337e-004,3.449753e-004
-3.170615e-004,3.042969e-004
-3.010170e-004,2.624841e-004
-2.784900e-004,2.289365e-004
-2.493182e-004,2.051129e-004
-2.186879e-004,1.898788e-004
-1.937298e-004,1.796687e-004
-1.793060e-004,1.649207e-004
-1.747682e-004,1.333180e-004
-1.746061e-004,8.080882e-005
-1.767129e-004,1.160693e-005
-1.757406e-004,-6.423963e-005
-1.645580e-004,-1.366828e-004
-1.413827e-004,-1.989159e-004
-1.084835e-004,-2.473734e-004
-7.056018e-005,-2.789761e-004
-2.988179e-005,-2.964792e-004
1.355172e-005,-2.989102e-004
5.358185e-005,-2.856208e-004
8.486046e-005,-2.598524e-004
1.049566e-004,-2.277635e-004
1.046324e-004,-1.966470e-004
7.967437e-005,-1.713648e-004
3.348575e-005,-1.533756e-004
-1.983374e-005,-1.418689e-004
-6.958779e-005,-1.290658e-004
-1.041077e-004,-1.013526e-004
-1.224211e-004,-5.062615e-005
-1.250141e-004,1.938607e-005
-1.122110e-004,9.280166e-005
-7.509801e-005,1.521176e-004
-7.192643e-006,1.913374e-004
9.361198e-005,2.088404e-004
2.208333e-004,2.025199e-004
3.548613e-004,1.730240e-004
4.652278e-004,1.292664e-004
5.318367e-004,8.761556e-005
5.563085e-004,5.925414e-005
5.451261e-004,4.142695e-005
5.062303e-004,2.570661e-005
4.430249e-004,9.175954e-006
3.611819e-004,-2.816880e-006
2.791768e-004,-8.002969e-006
2.219677e-004,-7.192643e-006
2.046267e-004,-3.141010e-006
2.203471e-004,3.179537e-006
2.467637e-004,1.079661e-005
2.621599e-004,1.582063e-005
2.485465e-004,1.646889e-005
2.018716e-004,1.144487e-005
1.248906e-004,3.827798e-006
4.094075e-005,-3.141010e-006
-1.497178e-005,-9.137427e-006
-3.627206e-006,-1.302699e-005
9.588090e-005,-1.497178e-005
2.863077e-004,-1.610623e-005
5.606844e-004,-1.724069e-005
9.003735e-004,-1.918548e-005
1.275879e-003,-1.902341e-005
1.645065e-003,-1.254080e-005
1.943752e-003,4.244267e-007
2.096094e-003,1.646889e-005
2.054930e-003,2.927205e-005
1.821879e-003,3.915804e-005
1.426762e-003,4.402000e-005
8.930806e-004,4.596478e-005
2.509774e-004,4.466826e-005
-4.181902e-004,4.434413e-005
-9.862290e-004,4.855782e-005
-1.349904e-003,5.925414e-005
-1.481501e-003,6.897806e-005
-1.446494e-003,6.946425e-005
-1.356548e-003,5.828174e-005
-1.316194e-003,3.526847e-005
-1.389123e-003,6.258778e-006
-1.592677e-003,-2.145439e-005
-1.891202e-003,-4.333321e-005
-2.210147e-003,-5.257093e-005
-2.439956e-003,-4.900549e-005
-2.466697e-003,-4.106429e-005
-2.225543e-003,-3.782299e-005
-1.723302e-003,-4.835723e-005
-1.049435e-003,-7.558420e-005
-3.494745e-004,-1.115627e-004
2.208333e-004,-1.407345e-004
5.554982e-004,-1.502963e-004
6.506307e-004,-1.386276e-004
5.668428e-004,-1.122110e-004
3.911640e-004,-7.914964e-005
2.119197e-004,-4.414354e-005
9.344992e-005,-8.165034e-006
7.205730e-005,2.505835e-005
1.590864e-004,4.936815e-005
3.004074e-004,5.844381e-005
3.799814e-004,5.034054e-005
2.989488e-004,3.040651e-005
4.353380e-005,8.203561e-006
-2.971275e-004,-7.192643e-006
-5.890070e-004,-1.286493e-005
-7.374588e-004,-9.461557e-006
-7.244936e-004,1.883015e-006
-5.924104e-004,2.181705e-005
-4.143007e-004,5.520250e-005
-2.481837e-004,9.896014e-005
-1.058904e-004,1.420695e-004
3.202716e-005,1.717275e-004
1.902029e-004,1.764274e-004
3.945674e-004,1.594105e-004
6.875816e-004,1.308870e-004
1.124834e-003,1.033359e-004
1.723181e-003,8.453633e-005
2.464146e-003,7.173317e-005
3.309160e-003,5.909207e-005
4.138133e-003,4.337174e-005
4.665500e-003,2.554455e-005
4.564857e-003,8.527692e-006
3.730048e-003,-2.492749e-006
2.411313e-003,-5.479652e-007
1.038615e-003,1.517237e-005
-2.761287e-005,4.369587e-005
-6.734430e-004,8.048469e-005
-1.044573e-003,1.211631e-004
-1.333211e-003,1.710792e-004
-1.637894e-003,2.349330e-004
-1.925236e-003,3.128864e-004
-2.080818e-003,3.934329e-004
-1.989414e-003,4.639313e-004
-1.571933e-003,5.141716e-004
-7.838095e-004,5.407503e-004
3.206655e-004,5.530672e-004
1.505526e-003,5.556603e-004
2.465280e-003,5.413986e-004
2.848081e-003,4.974788e-004
2.347621e-003,4.217943e-004
9.504518e-004,3.239068e-004
-8.854244e-004,2.224539e-004
-2.376588e-003,1.373696e-004
-3.014802e-003,7.513654e-005
-2.658744e-003,2.992031e-005
-1.495600e-003,-8.165034e-006
1.412592e-004,-4.673658e-005
1.868392e-003,-8.579432e-005
3.341736e-003,-1.203142e-004
4.289504e-003,-1.472171e-004
4.450599e-003,-1.707165e-004
3.507206e-003,-1.976194e-004
1.271666e-003,-2.348944e-004
-2.011616e-003,-2.763831e-004
-4.968349e-003,-3.057169e-004
-4.968349e-003,-3.063652e-004
-4.968349e-003,-2.747625e-004
-4.968187e-003,-2.269532e-004
-4.968674e-003,-1.840059e-004
-4.968511e-003,-1.588858e-004
-4.220574e-003,-1.524032e-004
-2.107073e-003,-1.551583e-004
-5.787969e-004,-1.582375e-004
2.919800e-004,-1.616409e-004
6.558168e-004,-1.669890e-004
7.392805e-004,-1.733096e-004
7.250187e-004,-1.746061e-004
7.324737e-004,-1.655304e-004
8.131823e-004,-1.446240e-004
9.554758e-004,-1.203142e-004
1.114300e-003,-1.015147e-004
1.242818e-003,-9.389758e-005
1.307806e-003,-9.827335e-005
1.303106e-003,-1.104282e-004
1.263076e-003,-1.246900e-004
1.243142e-003,-1.399241e-004
1.288845e-003,-1.577513e-004
1.416066e-003,-1.763888e-004
1.601631e-003,-1.901644e-004
1.796272e-003,-1.870851e-004
1.948614e-003,-1.630995e-004
2.025434e-003,-1.243659e-004
2.012144e-003,-8.563225e-005
1.917660e-003,-6.310517e-005
1.767749e-003,-6.618442e-005
1.596445e-003,-9.243900e-005
1.432921e-003,-1.313347e-004
1.292086e-003,-1.674752e-004
1.168916e-003,-1.836818e-004
1.041533e-003,-1.697441e-004
8.971322e-004,-1.295519e-004
7.559732e-004,-7.817725e-005
6.561409e-004,-3.134038e-005
6.159487e-004,8.527692e-006
6.316690e-004,4.612685e-005
6.854748e-004,8.405013e-005
7.639144e-004,1.216493e-004
8.614778e-004,1.564933e-004
9.676307e-004,1.819376e-004
1.068922e-003,1.882581e-004
1.161461e-003,1.663793e-004
1.262428e-003,1.216493e-004
1.399698e-003,6.832980e-005
1.584777e-003,1.582063e-005
1.797893e-003,-2.177852e-005
1.987996e-003,-3.328516e-005
2.093825e-003,-1.335112e-005
2.080536e-003,3.105477e-005
1.944725e-003,9.020861e-005
1.708919e-003,1.582760e-004
1.423845e-003,2.281262e-004
1.144444e-003,2.914938e-004
9.115561e-004,3.410858e-004
7.242084e-004,3.744712e-004
5.345918e-004,3.895433e-004
2.754493e-004,3.835469e-004
-1.112386e-004,3.571302e-004
-6.484850e-004,3.166139e-004
-1.307118e-003,2.725321e-004
-1.979041e-003,2.391467e-004
-2.489872e-003,2.221298e-004
-2.695695e-003,2.153230e-004
-2.555995e-003,2.104611e-004
-2.154883e-003,2.039785e-004
-1.689106e-003,1.936063e-004
-1.399496e-003,1.808031e-004
-1.433853e-003,1.667035e-004
-1.712768e-003,1.470936e-004
-2.016803e-003,1.216493e-004
-2.146779e-003,9.555677e-005
-2.008861e-003,6.946425e-005
-1.630439e-003,4.580272e-005
-1.107940e-003,2.359977e-005
-5.608077e-004,6.258778e-006
-9.373551e-005,-7.516774e-006
2.368777e-004,-2.291298e-005
4.174185e-004,-4.657451e-005
4.563142e-004,-8.628051e-005
3.825745e-004,-1.452723e-004
2.548670e-004,-2.130156e-004
1.060910e-004,-2.695764e-004
-7.331529e-005,-2.995584e-004
-2.841623e-004,-2.995584e-004
-4.687546e-004,-2.679557e-004
-5.455735e-004,-2.083157e-004
-4.553032e-004,-1.267968e-004
-1.963229e-004,-3.328516e-005
1.728619e-004,6.022653e-005
5.420469e-004,1.417454e-004
7.966516e-004,2.028440e-004
8.797912e-004,2.381743e-004
8.115617e-004,2.459534e-004
6.527375e-004,2.354192e-004
4.657140e-004,2.200230e-004
2.843629e-004,2.080301e-004
1.065772e-004,2.020337e-004
-7.850138e-005,1.996027e-004
-2.797865e-004,1.944166e-004
-5.079744e-004,1.825858e-004
-7.815406e-004,1.633001e-004
-1.105185e-003,1.386661e-004
-1.460270e-003,1.075496e-004
-1.787966e-003,6.784360e-005
-2.007727e-003,1.646889e-005
-2.059426e-003,-4.495386e-005
-1.911946e-003,-1.079973e-004
-1.589112e-003,-1.608306e-004
-1.176656e-003,-1.966470e-004
-7.797579e-004,-2.144742e-004
-4.690787e-004,-2.196603e-004
-2.692523e-004,-2.182017e-004
-1.611547e-004,-2.136638e-004
-9.649063e-005,-2.060468e-004
-2.664048e-005,-1.979435e-004
7.886404e-005,-1.872472e-004
2.239125e-004,-1.746061e-004
3.913260e-004,-1.652063e-004
5.639257e-004,-1.611547e-004
7.302047e-004,-1.590478e-004
8.851393e-004,-1.543479e-004
1.022409e-003,-1.433275e-004
1.129210e-003,-1.261486e-004
1.187230e-003,-1.042698e-004
1.193226e-003,-8.271508e-005
1.162109e-003,-6.375343e-005
1.113652e-003,-4.722277e-005
1.063249e-003,-2.907146e-005
1.016088e-003,-5.247859e-006
9.695755e-004,2.019640e-005
9.126905e-004,4.223728e-005
8.298751e-004,5.698522e-005
7.253428e-004,6.087479e-005
6.212968e-004,5.131293e-005
5.452881e-004,3.024445e-005
5.133613e-004,7.393235e-006
5.153061e-004,-5.085794e-006
5.289195e-004,2.855406e-006
5.402641e-004,3.024445e-005
5.459364e-004,6.687120e-005
5.483674e-004,9.912220e-005
5.431813e-004,1.190562e-004
5.243817e-004,1.263492e-004
4.896997e-004,1.245665e-004
4.354078e-004,1.235941e-004
3.634508e-004,1.300767e-004
2.879283e-004,1.391524e-004
2.315296e-004,1.435281e-004
2.004130e-004,1.388282e-004
1.851789e-004,1.265113e-004
1.710792e-004,1.128978e-004
1.432040e-004,1.073875e-004
8.648111e-005,1.130598e-004
-1.788895e-005,1.274836e-004
-1.853024e-004,1.412592e-004
-4.074939e-004,1.445005e-004
-6.489712e-004,1.334801e-004
-8.622491e-004,1.130598e-004
-1.007460e-003,8.923622e-005
-1.067424e-003,6.784360e-005
-1.051379e-003,5.050261e-005
-9.863911e-004,3.543053e-005
-9.048723e-004,1.614476e-005
-8.287015e-004,-5.409925e-006
-7.609583e-004,-2.113026e-005
-6.940254e-004,-2.761287e-005
-6.241752e-004,-2.566809e-005
-5.570801e-004,-1.675450e-005
-4.977643e-004,-8.002969e-006
-4.465517e-004,-6.058186e-006
-3.993907e-004,-7.840905e-006
-3.491504e-004,-8.489165e-006
-2.977757e-004,-2.168618e-006
-2.533698e-004,1.257933e-005
-2.164190e-004,3.462021e-005
-1.807646e-004,5.925414e-005
-1.410586e-004,7.886404e-005
-1.018388e-004,9.199134e-005
-7.315322e-005,9.847395e-005
-7.137050e-005,9.636710e-005
-9.827335e-005,8.291567e-005
-1.355484e-004,6.103685e-005
-1.562927e-004,3.802358e-005
-1.332795e-004,2.052053e-005
-5.597430e-005,1.209313e-005
6.492643e-005,1.825161e-005
2.096508e-004,3.251336e-005
3.477304e-004,4.888196e-005
4.486972e-004,6.508849e-005
4.948858e-004,7.578480e-005
4.931031e-004,7.594687e-005
4.639313e-004,6.768153e-005
4.342734e-004,5.471631e-005
4.222805e-004,3.850977e-005
4.289252e-004,1.971020e-005
4.459420e-004,-3.858999e-007
4.629589e-004,-1.578211e-005
4.807861e-004,-2.275091e-005
5.083373e-004,-2.129233e-005
5.509604e-004,-1.578211e-005
5.974732e-004,-9.461557e-006
6.255105e-004,-1.034161e-006
6.243761e-004,8.851824e-006
5.943940e-004,1.338965e-005
5.441537e-004,1.257933e-005
4.767345e-004,1.128280e-005
3.935950e-004,9.013888e-006
2.999211e-004,2.693341e-006
1.979821e-004,-1.059601e-005
9.101894e-005,-2.712668e-005
-1.610623e-005,-4.560212e-005
-1.214487e-004,-6.229485e-005
-2.138259e-004,-6.829127e-005
-2.776796e-004,-5.629843e-005
-3.209511e-004,-2.907146e-005
-3.630880e-004,7.393235e-006
-4.241866e-004,4.272347e-005
-5.154294e-004,6.751947e-005
-6.267682e-004,7.821578e-005
-7.452379e-004,7.870197e-005
-8.679213e-004,6.978838e-005
-9.978977e-004,5.471631e-005
-1.128360e-003,3.786152e-005
-1.232568e-003,2.586868e-005
-1.260930e-003,2.489629e-005
-1.164339e-003,3.656499e-005
-9.058446e-004,5.828174e-005
-4.927402e-004,8.016056e-005
3.989864e-006,9.539470e-005
4.508040e-004,9.960840e-005
7.243704e-004,9.328785e-005
7.930862e-004,8.113296e-005
7.188602e-004,6.946425e-005
5.942319e-004,6.217131e-005
4.841895e-004,5.666109e-005
4.230909e-004,4.742337e-005
4.221185e-004,3.721326e-005
4.806241e-004,3.397195e-005
5.851563e-004,3.834771e-005
7.130259e-004,4.353380e-005
8.485126e-004,4.369587e-005
1.013009e-003,3.575467e-005
1.232446e-003,2.894792e-005
1.475058e-003,2.489629e-005
1.645389e-003,1.922400e-005
1.618648e-003,9.013888e-006
1.289169e-003,-8.651231e-006
6.634339e-004,-3.101624e-005
-8.077029e-005,-5.483985e-005
-6.836532e-004,-7.623246e-005
-9.813671e-004,-9.065627e-005
-9.844463e-004,-9.762508e-005
-8.342118e-004,-1.013526e-004
-6.914323e-004,-1.094559e-004
-6.400576e-004,-1.324691e-004
-6.731189e-004,-1.692580e-004
-7.165524e-004,-2.036158e-004
-6.470264e-004,-2.271153e-004
-3.687603e-004,-2.384598e-004
1.368834e-004,-2.384598e-004
8.642329e-004,-2.285738e-004
1.754135e-003,-2.089639e-004
2.567868e-003,-1.796301e-004
2.904804e-003,-1.394379e-004
2.446643e-003,-9.438377e-005
1.224505e-003,-5.500191e-005
-3.640604e-004,-2.728874e-005
-1.742750e-003,-6.706447e-006
-2.555184e-003,1.419998e-005
-2.725191e-003,3.526847e-005
-2.387284e-003,5.504044e-005
-1.791856e-003,7.675719e-005
-1.198535e-003,9.960840e-005
-7.998540e-004,1.148425e-004
-6.820326e-004,1.107909e-004
-8.137916e-004,8.502253e-005
-1.062076e-003,4.823369e-005
-1.243427e-003,1.468617e-005
-1.189621e-003,-4.113402e-006
-8.163846e-004,-4.275467e-006
-1.742820e-004,1.679302e-005
5.673291e-004,5.390598e-005
1.185771e-003,8.875003e-005
1.523678e-003,1.078737e-004
1.533402e-003,1.017153e-004
1.254973e-003,6.995045e-005
7.812554e-004,2.262737e-005
2.051129e-004,-2.258885e-005
-4.183523e-004,-4.900549e-005
-1.067262e-003,-4.981582e-005
-1.711147e-003,-2.437157e-005
-2.271894e-003,2.052053e-005
-2.621955e-003,7.578480e-005
-2.645131e-003,1.351007e-004
-2.299769e-003,1.937684e-004
-1.650859e-003,2.420638e-004
-8.395599e-004,2.736665e-004
-4.074016e-005,2.869559e-004
5.950422e-004,2.840387e-004
9.964784e-004,2.689667e-004
1.158058e-003,2.522740e-004
1.125158e-003,2.388225e-004
9.661721e-004,2.268297e-004
7.462493e-004,2.159713e-004
5.287575e-004,2.098128e-004
3.694472e-004,2.070577e-004
3.015418e-004,2.026820e-004
3.216379e-004,1.923098e-004
4.038051e-004,1.759412e-004
5.133613e-004,1.571416e-004
6.225933e-004,1.344524e-004
7.177258e-004,1.064151e-004
7.960033e-004,7.594687e-005
8.524021e-004,5.017848e-005
8.822222e-004,3.332369e-005
8.833566e-004,2.246531e-005
8.548331e-004,1.338965e-005
8.070238e-004,5.448451e-006
7.511112e-004,-2.330684e-006
6.922815e-004,-1.059601e-005
6.334517e-004,-2.129233e-005
5.804563e-004,-2.988179e-005
5.368608e-004,-3.263690e-005
5.078511e-004,-2.728874e-005
4.978030e-004,-1.869928e-005
5.075269e-004,-9.461557e-006
5.310263e-004,-7.100305e-007
5.572810e-004,5.772582e-006
5.798081e-004,7.069104e-006
5.939078e-004,2.623614e-007
5.968249e-004,-1.173047e-005
5.879113e-004,-2.485776e-005
5.721910e-004,-3.555407e-005
5.553362e-004,-4.268495e-005
5.428572e-004,-4.592625e-005
5.397779e-004,-4.949169e-005
5.469088e-004,-5.386745e-005
5.582533e-004,-5.694669e-005
5.533914e-004,-5.370539e-005
5.135234e-004,-4.333321e-005
4.394594e-004,-2.842320e-005
3.472442e-004,-1.237873e-005
2.495188e-004,9.106226e-007
1.475797e-004,5.286386e-006
3.932010e-005,-7.100305e-007
-6.910160e-005,-1.318906e-005
-1.575892e-004,-2.583015e-005
-2.026434e-004,-3.101624e-005
-1.909747e-004,-2.647842e-005
-1.365208e-004,-1.853721e-005
-6.164659e-005,-1.545797e-005
1.695509e-005,-2.291298e-005
9.523264e-005,-3.863331e-005
1.751308e-004,-4.787104e-005
2.649151e-004,-4.252288e-005
3.634508e-004,-2.631635e-005
4.563142e-004,-2.816880e-006
5.201680e-004,2.359977e-005
5.341056e-004,5.244739e-005
4.914824e-004,7.756751e-005
4.089912e-004,9.085687e-005
3.070520e-004,8.972242e-005
1.832341e-004,7.853991e-005
3.186510e-005,6.573675e-005
-1.494860e-004,5.779555e-005
-3.507711e-004,5.617490e-005
-5.632387e-004,5.893001e-005
-7.842957e-004,5.893001e-005
-1.007946e-003,5.228533e-005
-1.230948e-003,3.932010e-005
-1.450708e-003,2.408596e-005
-1.655559e-003,1.338965e-005
-1.792828e-003,7.555300e-006
-1.786832e-003,5.610517e-006
-1.569502e-003,6.258778e-006
-1.114261e-003,1.225519e-005
-4.518998e-004,2.327564e-005
3.122381e-004,3.413401e-005
1.013495e-003,4.369587e-005
1.551877e-003,5.082674e-005
1.974059e-003,5.293359e-005
2.422657e-003,5.050261e-005
2.968010e-003,5.066468e-005
3.529085e-003,5.601283e-005
3.875260e-003,6.233338e-005
3.597477e-003,6.281957e-005
2.303215e-003,5.423011e-005
-6.375343e-005,3.834771e-005
-2.863757e-003,2.003433e-005
-4.968349e-003,5.772582e-006
-4.968674e-003,-2.978945e-006
-4.968511e-003,-9.785687e-006
-4.968511e-003,-2.145439e-005
-3.982012e-003,-4.236081e-005
-2.245477e-003,-6.845333e-005
-8.471771e-004,-9.243900e-005
-3.150244e-005,-1.112386e-004
1.607070e-004,-1.232314e-004
-1.527273e-004,-1.276072e-004
-7.684133e-004,-1.251762e-004
-1.481825e-003,-1.167488e-004
-2.121659e-003,-1.076731e-004
-2.528281e-003,-9.811128e-005
-2.597483e-003,-8.628051e-005
-2.314355e-003,-6.602235e-005
-1.741453e-003,-3.215070e-005
-9.251304e-004,1.128280e-005
5.001641e-005,5.374392e-005
1.008957e-003,7.432621e-005
1.746032e-003,5.082674e-005
2.090260e-003,-2.469570e-005
1.971790e-003,-1.326312e-004
1.430814e-003,-2.397564e-004
6.292380e-004,-3.159270e-004
-1.715269e-004,-3.472056e-004
-7.338934e-004,-3.360231e-004
-9.675915e-004,-2.896725e-004
-8.915829e-004,-2.193361e-004
-6.069963e-004,-1.332795e-004
-2.582318e-004,-3.798505e-005
3.235129e-005,5.893001e-005
2.036543e-004,1.490383e-004
2.688046e-004,2.218057e-004
2.846870e-004,2.660495e-004
3.174242e-004,2.767458e-004
4.052637e-004,2.611876e-004
5.465847e-004,2.339606e-004
7.174016e-004,2.090025e-004
8.843290e-004,1.950649e-004
1.018195e-003,1.937684e-004
1.103280e-003,2.015475e-004
1.141527e-003,2.094887e-004
1.144768e-003,2.075439e-004
1.130507e-003,1.898788e-004
1.117055e-003,1.603829e-004
1.119810e-003,1.279698e-004
1.145741e-003,9.733949e-005
1.185285e-003,7.286762e-005
1.222884e-003,5.147500e-005
1.238280e-003,3.348575e-005
1.216401e-003,2.522042e-005
1.151899e-003,3.186510e-005
1.059198e-003,5.196120e-005
9.752478e-004,7.627100e-005
9.263040e-004,9.831188e-005
9.160939e-004,1.145184e-004
9.237109e-004,1.268354e-004
9.167421e-004,1.381799e-004
8.708776e-004,1.506590e-004
7.908173e-004,1.584381e-004
7.023295e-004,1.569795e-004
6.365310e-004,1.446626e-004
6.062247e-004,1.245665e-004
6.122212e-004,1.044704e-004
6.434998e-004,9.053274e-005
6.785059e-004,8.307774e-005
6.904988e-004,7.724339e-005
6.614891e-004,6.881599e-005
5.859666e-004,5.471631e-005
4.760862e-004,3.575467e-005
3.542131e-004,1.403791e-005
2.391467e-004,-5.409925e-006
1.472556e-004,-1.805102e-005
8.858796e-005,-2.242678e-005
6.573675e-005,-2.599222e-005
7.772959e-005,-4.203669e-005
1.159770e-004,-7.104637e-005
1.631380e-004,-1.073490e-004
2.004130e-004,-1.428413e-004
2.192126e-004,-1.671511e-004
2.294227e-004,-1.746061e-004
2.503292e-004,-1.648822e-004
2.965178e-004,-1.447861e-004
3.644232e-004,-1.172350e-004
4.362181e-004,-8.465986e-005
4.869446e-004,-5.078821e-005
4.913204e-004,-2.064406e-005
4.363802e-004,2.045080e-006
3.354135e-004,2.100672e-005
2.383363e-004,4.077869e-005
1.944166e-004,5.828174e-005
2.177540e-004,6.897806e-005
2.997591e-004,7.302969e-005
4.110980e-004,7.594687e-005
5.175750e-004,8.340186e-005
5.981215e-004,9.490851e-005
6.423653e-004,1.078737e-004
6.251864e-004,1.153287e-004
5.119027e-004,1.138701e-004
2.887386e-004,1.038221e-004
-1.691656e-005,9.069480e-005
-3.507711e-004,7.870197e-005
-6.690673e-004,6.654707e-005
-9.513850e-004,5.244739e-005
-1.208745e-003,3.462021e-005
-1.454598e-003,1.695509e-005
-1.691213e-003,5.448451e-006
-1.912108e-003,2.623614e-007
-2.103994e-003,3.989864e-006
-2.248556e-003,1.744128e-005
-2.320189e-003,3.786152e-005
-2.262818e-003,5.698522e-005
-2.002865e-003,7.043664e-005
-1.522665e-003,7.756751e-005
-8.484736e-004,7.853991e-005
-1.844488e-006,7.108490e-005
8.791430e-004,5.585077e-005
1.417363e-003,3.413401e-005
1.204408e-003,1.776542e-005
1.560071e-004,1.241726e-005
-1.292370e-003,1.452411e-005
-2.496841e-003,1.468617e-005
-3.035061e-003,6.907039e-006
-2.805252e-003,-1.237873e-005
-1.996869e-003,-4.317114e-005
-9.510609e-004,-7.752898e-005
-4.113402e-006,-1.024870e-004
6.250243e-004,-1.099420e-004
8.909737e-004,-1.021629e-004
8.713638e-004,-8.401160e-005
6.981159e-004,-6.391550e-005
4.906721e-004,-4.754691e-005
3.302274e-004,-3.652646e-005
2.487085e-004,-2.777494e-005
2.389846e-004,-2.145439e-005
2.804733e-004,-2.015787e-005
3.546993e-004,-2.858526e-005
4.407560e-004,-4.965375e-005
5.196818e-004,-7.785312e-005
5.867769e-004,-9.973194e-005
6.447963e-004,-1.055663e-004
6.948745e-004,-9.551824e-005
7.156189e-004,-7.720485e-005
6.676475e-004,-5.824321e-005
5.272989e-004,-4.398147e-005
3.190449e-004,-3.425755e-005
8.793970e-005,-2.583015e-005
-1.186936e-004,-1.691656e-005
-2.733039e-004,-1.844488e-006
-3.660052e-004,1.760335e-005
-4.003631e-004,3.186510e-005
-3.726499e-004,3.429608e-005
-2.695764e-004,2.133085e-005
-9.276313e-005,-6.544382e-006
1.284560e-004,-4.414354e-005
3.491890e-004,-8.547019e-005
5.284333e-004,-1.198280e-004
6.462549e-004,-1.465688e-004
7.188602e-004,-1.686097e-004
7.507871e-004,-1.861127e-004
6.995744e-004,-1.972952e-004
5.075269e-004,-2.037778e-004
1.535762e-004,-2.036158e-004
-2.788141e-004,-1.901644e-004
-6.186650e-004,-1.566169e-004
-7.243315e-004,-1.028112e-004
-5.619422e-004,-3.620233e-005
-2.068571e-004,3.478227e-005
2.164575e-004,1.065772e-004
5.994180e-004,1.793446e-004
8.771982e-004,2.545429e-004
1.030998e-003,3.329825e-004
1.076053e-003,4.109359e-004
1.032133e-003,4.828930e-004
9.183628e-004,5.423710e-004
7.609972e-004,5.877493e-004
5.950422e-004,6.211348e-004
4.530729e-004,6.417171e-004
3.592371e-004,6.405826e-004
3.156415e-004,6.102764e-004
2.892249e-004,5.527431e-004
2.448189e-004,4.807861e-004
1.624898e-004,4.098015e-004
1.274139e-005,3.487029e-004
-2.368392e-004,2.965178e-004
-6.052136e-004,2.482223e-004
-1.047976e-003,1.999268e-004
-1.447629e-003,1.479039e-004
-1.677438e-003,9.199134e-005
-1.660097e-003,3.251336e-005
-1.397551e-003,-2.890940e-005
-9.500885e-004,-8.320127e-005
-3.627639e-004,-1.209625e-004
3.355755e-004,-1.368449e-004
1.113652e-003,-1.399241e-004
1.924304e-003,-1.454343e-004
2.638529e-003,-1.627753e-004
3.014037e-003,-1.914609e-004
2.837709e-003,-2.263049e-004
2.072595e-003,-2.567732e-004
8.186925e-004,-2.754107e-004
-7.053699e-004,-2.758969e-004
-2.156989e-003,-2.572594e-004
-3.220140e-003,-2.254946e-004
-3.657394e-003,-1.921091e-004
-3.432446e-003,-1.673132e-004
-2.742694e-003,-1.538618e-004
-1.910164e-003,-1.460826e-004
-1.219765e-003,-1.378173e-004
-8.113606e-004,-1.248521e-004
-6.682570e-004,-1.062145e-004
-6.841394e-004,-8.482193e-005
-7.530171e-004,-6.391550e-005
-8.257844e-004,-4.641245e-005
-8.891519e-004,-3.247483e-005
-9.374474e-004,-2.275091e-005
-9.680777e-004,-2.015787e-005
-9.776396e-004,-2.388537e-005
-9.486299e-004,-2.728874e-005
-8.569009e-004,-2.501983e-005
-6.938633e-004,-1.562004e-005
-4.741028e-004,-5.479652e-007
-2.266291e-004,2.133085e-005
1.533444e-005,4.515445e-005
2.321778e-004,6.395403e-005
4.190392e-004,7.546067e-005
5.733254e-004,8.291567e-005
6.867713e-004,8.696730e-005
7.551629e-004,8.437427e-005
7.908173e-004,7.157111e-005
8.191787e-004,5.066468e-005
8.757396e-004,3.024445e-005
9.767064e-004,1.873781e-005
1.101011e-003,1.711715e-005
1.203436e-003,1.873781e-005
1.247518e-003,1.614476e-005
1.225477e-003,3.179537e-006
1.160813e-003,-1.659243e-005
1.082535e-003,-3.863331e-005
1.006851e-003,-5.872941e-005
9.361900e-004,-7.833932e-005
8.635846e-004,-9.000801e-005
7.853070e-004,-8.384953e-005
7.096225e-004,-6.018800e-005
6.462549e-004,-3.263690e-005
6.046041e-004,-1.237873e-005
5.932595e-004,-4.923729e-006
6.060626e-004,-7.030578e-006
6.292380e-004,-1.205460e-005
6.516030e-004,-1.513384e-005
6.653786e-004,-1.335112e-005
6.645683e-004,-7.840905e-006
6.447963e-004,-1.358292e-006
6.010386e-004,2.531276e-006
5.366987e-004,6.420843e-006
4.686312e-004,1.322759e-005
4.141773e-004,1.987226e-005
3.764160e-004,2.457216e-005
3.532407e-004,2.748933e-005
3.393030e-004,2.781346e-005
3.271481e-004,2.894792e-005
3.115899e-004,3.154097e-005
2.861456e-004,3.753739e-005
2.488706e-004,4.547859e-005
2.055991e-004,5.212327e-005
1.573037e-004,5.552663e-005
1.073875e-004,5.893001e-005
5.925414e-005,6.719534e-005
1.241726e-005,7.967437e-005
-2.971972e-005,9.166720e-005
-6.553616e-005,9.912220e-005
-9.519411e-005,1.015532e-004
-1.186936e-004,9.912220e-005
-1.383035e-004,9.101894e-005
-1.468929e-004,7.935023e-005
-1.345760e-004,6.654707e-005
-9.908367e-005,5.487837e-005
-4.381940e-005,4.515445e-005
2.214118e-005,3.737532e-005
8.777764e-005,3.251336e-005
1.391524e-004,2.603075e-005
1.665414e-004,1.646889e-005
1.634621e-004,5.124321e-006
1.339663e-004,-1.358292e-006
9.182927e-005,-1.358292e-006
5.260946e-005,2.045080e-006
3.559260e-005,5.286386e-006
5.811968e-005,9.824214e-006
1.310491e-004,1.679302e-005
2.394708e-004,2.392390e-005
3.504856e-004,3.040651e-005
4.279528e-004,3.753739e-005
4.508040e-004,3.899597e-005
4.177427e-004,2.992031e-005
3.438409e-004,1.063454e-005
2.543808e-004,-1.383732e-005
1.692965e-004,-3.425755e-005
8.712937e-005,-4.398147e-005
-8.327101e-006,-3.960571e-005
-1.190177e-004,-2.501983e-005
-2.366771e-004,-4.113402e-006
-3.611433e-004,2.003433e-005
-5.001953e-004,4.385793e-005
-6.565882e-004,6.492643e-005
-8.322670e-004,7.789165e-005
-1.033876e-003,8.129502e-005
-1.263361e-003,8.226741e-005
-1.510348e-003,8.502253e-005
-1.755229e-003,8.631904e-005
-1.963483e-003,8.242948e-005
-2.077415e-003,7.497447e-005
-2.050674e-003,6.557468e-005
-1.864785e-003,5.844381e-005
-1.542275e-003,5.423011e-005
-1.137598e-003,5.552663e-005
-7.285452e-004,6.573675e-005
-3.922598e-004,8.405013e-005
-1.791439e-004,1.036600e-004
-8.628051e-005,1.184080e-004
-7.607040e-005,1.239182e-004
-1.050801e-004,1.197045e-004
-1.425172e-004,1.078737e-004
-1.682856e-004,9.296372e-005
-1.632615e-004,7.935023e-005
-9.600443e-005,6.687120e-005
6.411610e-005,5.277152e-005
3.180725e-004,3.721326e-005
6.188658e-004,2.262737e-005
8.893531e-004,1.452411e-005
1.056443e-003,1.792748e-005
1.098580e-003,3.073064e-005
1.047853e-003,4.418206e-005
9.551517e-004,5.714729e-005
8.538608e-004,7.335382e-005
7.629420e-004,9.604297e-005
7.003847e-004,1.211631e-004
6.830437e-004,1.313732e-004
6.997365e-004,1.022014e-004
7.175637e-004,2.489629e-005
7.118914e-004,-8.709084e-005
6.828816e-004,-1.994021e-004
6.337758e-004,-2.788141e-004
5.853183e-004,-3.094444e-004
5.739737e-004,-2.904828e-004
6.211348e-004,-2.327876e-004
7.293944e-004,-1.554824e-004
8.637467e-004,-7.428768e-005
9.449415e-004,4.244267e-007
8.814118e-004,6.573675e-005
6.028214e-004,1.200286e-004
1.022014e-004,1.574657e-004
-6.055377e-004,1.751308e-004
-1.500786e-003,1.778859e-004
-2.493924e-003,1.701068e-004
-3.391606e-003,1.569795e-004
-3.941658e-003,1.438522e-004
-3.956730e-003,1.329939e-004
-3.398899e-003,1.182459e-004
-2.380802e-003,9.782569e-005
-1.136626e-003,7.578480e-005
4.288554e-005,5.698522e-005
9.141491e-004,4.774750e-005
1.410718e-003,4.645098e-005
1.620755e-003,4.531652e-005
1.690930e-003,3.283749e-005
1.739225e-003,1.002961e-007
1.808427e-003,-4.673658e-005
1.868229e-003,-8.919769e-005
1.869688e-003,-1.112386e-004
1.779255e-003,-1.123730e-004
1.588504e-003,-9.697682e-005
1.319799e-003,-7.056018e-005
1.016899e-003,-4.187462e-005
7.316634e-004,-1.578211e-005
5.391297e-004,3.017472e-006
5.436675e-004,1.160693e-005
8.237166e-004,1.257933e-005
1.340706e-003,1.079661e-005
1.923818e-003,7.879431e-006
2.296408e-003,7.069104e-006
2.119594e-003,1.193106e-005
1.117055e-003,2.311357e-005
-6.843014e-004,4.418206e-005
-2.739615e-003,7.059870e-005
-4.411002e-003,9.344992e-005
-4.968674e-003,1.039842e-004
-4.968511e-003,9.701536e-005
-4.182813e-003,7.059870e-005
-2.869267e-003,2.667901e-005
-1.542761e-003,-2.437157e-005
-4.741028e-004,-6.618442e-005
2.213195e-004,-8.530812e-005
5.754323e-004,-8.077029e-005
7.052467e-004,-6.278104e-005
7.276117e-004,-4.268495e-005
7.232359e-004,-2.712668e-005
7.266394e-004,-2.129233e-005
7.362012e-004,-1.934754e-005
7.405770e-004,-1.594417e-005
7.305289e-004,-1.140634e-005
6.987641e-004,-2.168618e-006
6.494962e-004,1.338965e-005
5.900182e-004,3.526847e-005
5.332953e-004,5.893001e-005
4.926169e-004,7.789165e-005
4.760862e-004,8.891209e-005
4.807861e-004,9.539470e-005
4.958582e-004,9.798775e-005
5.161164e-004,9.555677e-005
5.491777e-004,8.226741e-005
6.086557e-004,6.103685e-005
7.073535e-004,3.737532e-005
8.467298e-004,1.565857e-005
9.951819e-004,-2.816880e-006
1.101011e-003,-1.529591e-005
1.131965e-003,-2.129233e-005
1.090963e-003,-2.177852e-005
1.011875e-003,-2.388537e-005
9.297074e-004,-2.955766e-005
8.600192e-004,-3.895744e-005
7.968137e-004,-5.127441e-005
7.245325e-004,-6.586029e-005
6.232416e-004,-7.688072e-005
4.885652e-004,-7.914964e-005
3.355755e-004,-7.201877e-005
1.908512e-004,-5.370539e-005
6.995045e-005,-2.728874e-005
-3.247483e-005,2.855406e-006
-1.408965e-004,2.878586e-005
-2.668213e-004,4.693717e-005
-3.906391e-004,5.504044e-005
-4.757234e-004,5.406805e-005
-4.815578e-004,4.758544e-005
-3.953390e-004,3.899597e-005
-2.397564e-004,3.121684e-005
-6.780506e-005,2.667901e-005
4.936815e-005,2.603075e-005
4.693717e-005,3.137890e-005
-9.503204e-005,4.029249e-005
-3.386162e-004,4.758544e-005
-6.348715e-004,4.969228e-005
-9.543022e-004,4.612685e-005
-1.265630e-003,3.802358e-005
-1.495438e-003,2.992031e-005
-1.549730e-003,2.359977e-005
-1.367893e-003,1.906194e-005
-9.696984e-004,1.419998e-005
-4.408794e-004,5.934647e-006
1.025256e-004,-1.043395e-005
5.462606e-004,-3.360929e-005
8.180442e-004,-6.067420e-005
9.031286e-004,-8.628051e-005
8.324681e-004,-1.026491e-004
6.430136e-004,-1.029732e-004
3.676645e-004,-8.417366e-005
4.288554e-005,-4.787104e-005
-2.961551e-004,1.883015e-006
-6.256338e-004,5.844381e-005
-9.308027e-004,1.154908e-004
-1.205179e-003,1.675138e-004
-1.441470e-003,2.065715e-004
-1.618608e-003,2.278021e-004
-1.701261e-003,2.312054e-004
-1.648104e-003,2.216436e-004
-1.450546e-003,2.055991e-004
-1.132574e-003,1.939304e-004
-7.445897e-004,1.905270e-004
-3.444505e-004,1.926339e-004
5.124321e-006,1.924718e-004
2.662116e-004,1.838824e-004
4.404318e-004,1.641104e-004
5.542017e-004,1.381799e-004
6.302104e-004,1.141943e-004
6.830437e-004,9.798775e-005
7.285841e-004,8.858796e-005
7.755831e-004,8.242948e-005
8.243648e-004,7.853991e-005
8.658536e-004,7.351588e-005
8.848152e-004,6.298164e-005
8.744430e-004,4.677511e-005
8.392748e-004,2.586868e-005
7.906552e-004,6.907039e-006
7.326358e-004,-2.006553e-006
6.700785e-004,4.244267e-007
6.107626e-004,3.989864e-006
5.595500e-004,1.883015e-006
5.170887e-004,-7.678839e-006
4.801379e-004,-2.064406e-005
4.477248e-004,-3.117831e-005
4.200116e-004,-3.895744e-005
4.041292e-004,-4.819516e-005
4.080188e-004,-6.375343e-005
4.258459e-004,-8.563225e-005
4.399456e-004,-1.075111e-004
4.370285e-004,-1.188556e-004
4.145014e-004,-1.156143e-004
3.794953e-004,-1.015147e-004
3.410858e-004,-8.433573e-005
3.064038e-004,-7.234290e-005
2.760976e-004,-6.634648e-005
2.496809e-004,-6.083626e-005
2.318537e-004,-5.419158e-005
2.222919e-004,-4.851930e-005
2.169437e-004,-4.414354e-005
2.114335e-004,-3.701266e-005
2.012234e-004,-2.615428e-005
1.837203e-004,-1.270286e-005
1.553589e-004,5.864920e-007
1.085220e-004,1.371378e-005
3.413401e-005,2.554455e-005
-6.942573e-005,3.445814e-005
-2.023193e-004,3.883391e-005
-3.557951e-004,3.964423e-005
-5.057055e-004,4.045456e-005
-6.236890e-004,3.705119e-005
-6.898117e-004,2.716520e-005
-6.975908e-004,1.598270e-005
-6.432989e-004,1.517237e-005
-5.321222e-004,2.894792e-005
-3.818876e-004,5.050261e-005
-2.217671e-004,6.897806e-005
-8.628051e-005,7.837785e-005
-6.706447e-006,7.740545e-005
-2.238345e-007,6.978838e-005
-4.446767e-005,5.617490e-005
-1.021629e-004,4.013043e-005
-1.519170e-004,2.489629e-005
-1.998883e-004,1.338965e-005
-2.511009e-004,7.393235e-006
-2.796244e-004,6.582909e-006
-2.494803e-004,8.203561e-006
-1.439758e-004,1.063454e-005
1.727922e-005,1.468617e-005
1.877719e-004,2.035846e-005
3.185587e-004,2.214118e-005
3.718782e-004,1.614476e-005
3.357376e-004,2.207145e-006
2.326641e-004,-1.626830e-005
1.116012e-004,-3.312309e-005
2.651694e-005,-4.479180e-005
2.693341e-006,-4.754691e-005
2.392390e-005,-4.219875e-005
5.341978e-005,-2.988179e-005
6.962632e-005,-1.562004e-005
6.492643e-005,-1.844488e-006
3.867184e-005,1.711715e-005
-4.437533e-006,4.061663e-005
-5.078821e-005,6.492643e-005
-7.882551e-005,8.518459e-005
-7.850138e-005,9.977046e-005
-6.407756e-005,1.057669e-004
-6.067420e-005,1.038221e-004
-8.239095e-005,9.652916e-005
-1.413827e-004,8.729143e-005
-2.371633e-004,8.372600e-005
-3.342404e-004,8.583285e-005
-3.899909e-004,8.777764e-005
-3.911253e-004,8.534666e-005
-3.595226e-004,7.951231e-005
-3.314853e-004,6.930219e-005
-3.347266e-004,5.439218e-005
-3.778360e-004,3.672705e-005
-4.421759e-004,2.311357e-005
-4.883645e-004,1.630683e-005
-4.925782e-004,1.776542e-005
-4.470378e-004,2.975825e-005
-3.601709e-004,4.693717e-005
-2.533698e-004,6.346784e-005
-1.486757e-004,7.416414e-005
-6.278104e-005,8.048469e-005
-3.789271e-006,8.486046e-005
2.214118e-005,8.567078e-005
7.555300e-006,8.356393e-005
-4.333321e-005,7.821578e-005
-1.131834e-004,6.995045e-005
-1.857886e-004,5.941620e-005
-2.464010e-004,4.466826e-005
-2.895104e-004,2.732727e-005
-3.177098e-004,1.160693e-005
-3.363473e-004,-3.627206e-006
-3.465574e-004,-2.372330e-005
-3.447747e-004,-4.884343e-005
-3.298646e-004,-7.266703e-005
-3.027998e-004,-9.049421e-005
-2.569353e-004,-9.875954e-005
-1.801163e-004,-9.892161e-005
-7.898758e-005,-9.373551e-005
4.094075e-005,-8.579432e-005
1.788584e-004,-7.493595e-005
3.274723e-004,-6.553616e-005
4.783551e-004,-6.180866e-005
6.326414e-004,-6.391550e-005
7.963275e-004,-7.007398e-005
9.621205e-004,-7.509801e-005
1.095338e-003,-7.363942e-005
1.153844e-003,-6.456376e-005
1.112355e-003,-5.402952e-005
9.869165e-004,-4.641245e-005
8.363576e-004,-4.057810e-005
7.295565e-004,-3.539201e-005
7.099466e-004,-2.858526e-005
7.849829e-004,-1.756482e-005
9.350555e-004,-2.978945e-006
1.117865e-003,1.306552e-005
1.283983e-003,2.505835e-005
1.390136e-003,3.186510e-005
1.408125e-003,3.850977e-005
1.325471e-003,5.066468e-005
1.117217e-003,6.832980e-005
7.588904e-004,8.745350e-005
2.624841e-004,9.733949e-005
-2.835140e-004,9.361198e-005
-7.475069e-004,7.918817e-005
-1.030311e-003,6.281957e-005
-1.098378e-003,5.131293e-005
-9.915772e-004,5.001641e-005
-7.904542e-004,5.471631e-005
-5.789590e-004,6.217131e-005
-4.324520e-004,6.962632e-005
-4.005251e-004,7.367795e-005
-4.818819e-004,7.124698e-005
-6.389231e-004,6.735740e-005
-8.162226e-004,6.800567e-005
-9.590021e-004,7.708132e-005
-1.029987e-003,9.377405e-005
-1.021559e-003,1.151667e-004
-9.436058e-004,1.368834e-004
-8.017988e-004,1.522796e-004
-6.078066e-004,1.568175e-004
-3.948528e-004,1.509831e-004
-1.948643e-004,1.355869e-004
-1.967167e-005,1.138701e-004
1.479039e-004,9.377405e-005
3.271481e-004,8.291567e-005
5.067165e-004,7.951231e-005
6.439860e-004,7.708132e-005
6.838541e-004,6.914012e-005
5.950422e-004,5.487837e-005
3.908399e-004,3.850977e-005
1.253768e-004,2.765140e-005
-1.361966e-004,2.554455e-005
-3.528779e-004,3.218923e-005
-5.138087e-004,4.726130e-005
-6.287130e-004,6.330577e-005
-7.142835e-004,7.319175e-005
-7.805682e-004,7.691926e-005
-8.251361e-004,7.367795e-005
-8.442599e-004,6.444023e-005
-8.254602e-004,5.277152e-005
-7.488034e-004,4.175108e-005
-6.097514e-004,3.235129e-005
-4.199730e-004,2.554455e-005
-1.963229e-004,2.165498e-005
4.645098e-005,2.133085e-005
2.829043e-004,2.392390e-005
4.890515e-004,2.878586e-005
6.504686e-004,3.543053e-005
7.679660e-004,3.640293e-005
8.538608e-004,2.635488e-005
9.194972e-004,5.934647e-006
9.705479e-004,-2.015787e-005
1.001340e-003,-4.868136e-005
9.943715e-004,-7.218083e-005
9.300315e-004,-8.303921e-005
8.015136e-004,-8.060822e-005
6.094660e-004,-7.315322e-005
3.649094e-004,-6.748093e-005
9.004655e-005,-6.764300e-005
-1.744440e-004,-7.234290e-005
-3.916115e-004,-7.671866e-005
-5.512458e-004,-7.590833e-005
-6.672845e-004,-7.153257e-005
-7.695478e-004,-6.569822e-005
-8.826694e-004,-6.229485e-005
-1.010053e-003,-6.164659e-005
-1.106968e-003,-6.715681e-005
-1.105995e-003,-7.396355e-005
-9.653226e-004,-7.574627e-005
-6.799257e-004,-7.428768e-005
-2.831898e-004,-7.072224e-005
1.611932e-004,-7.347736e-005
5.965008e-004,-1.013526e-004
9.893475e-004,-1.566169e-004
1.322554e-003,-2.178775e-004
1.577808e-003,-2.593662e-004
1.736146e-003,-2.676316e-004
1.799352e-003,-2.415391e-004
1.790114e-003,-1.854645e-004
1.735984e-003,-1.091317e-004
1.644579e-003,-2.664048e-005
1.493533e-003,4.758544e-005
1.260321e-003,1.085220e-004
9.173904e-004,1.597346e-004
4.264942e-004,2.055991e-004
-2.478596e-004,2.483844e-004
-1.108102e-003,2.833905e-004
-2.070770e-003,3.072141e-004
-2.966993e-003,3.148312e-004
-3.612988e-003,3.067279e-004
-3.857221e-003,2.885766e-004
-3.600023e-003,2.675081e-004
-2.845606e-003,2.506533e-004
-1.703206e-003,2.414156e-004
-3.442885e-004,2.349330e-004
9.977749e-004,2.240746e-004
2.093825e-003,2.046267e-004
2.851971e-003,1.757791e-004
3.277395e-003,1.449867e-004
3.437517e-003,1.188942e-004
3.432007e-003,9.766362e-005
3.384845e-003,8.080882e-005
3.418879e-003,6.865393e-005
3.552260e-003,5.876794e-005
3.653066e-003,4.466826e-005
3.492620e-003,2.424803e-005
2.828309e-003,1.883015e-006
1.550257e-003,-1.740276e-005
-2.451045e-004,-3.425755e-005
-2.055536e-003,-5.143647e-005
-3.273298e-003,-6.748093e-005
-3.544110e-003,-7.995997e-005
-3.018206e-003,-8.903562e-005
-2.287128e-003,-9.422171e-005
-1.900926e-003,-9.486997e-005
-1.996544e-003,-9.227693e-005
-2.329751e-003,-9.389758e-005
-2.591649e-003,-1.070249e-004
-2.615959e-003,-1.272830e-004
-2.389553e-003,-1.442999e-004
-1.991520e-003,-1.541859e-004
-1.527365e-003,-1.575892e-004
-1.093192e-003,-1.546721e-004
-7.726270e-004,-1.434896e-004
-6.129927e-004,-1.246900e-004
-5.987309e-004,-9.973194e-005
-6.642053e-004,-7.671866e-005
-7.275729e-004,-6.148453e-005
-7.274108e-004,-5.354332e-005
-6.441093e-004,-4.851930e-005
-4.916058e-004,-4.203669e-005
-3.044204e-004,-3.020592e-005
-1.152902e-004,-1.869928e-005
4.564065e-005,-9.623623e-006
1.603829e-004,-3.627206e-006
2.214815e-004,2.045080e-006
2.451431e-004,1.274139e-005
2.594048e-004,3.137890e-005
2.799871e-004,5.925414e-005
3.096451e-004,8.972242e-005
3.462718e-004,1.112771e-004
3.875985e-004,1.182459e-004
4.294114e-004,1.114392e-004
4.673347e-004,9.458438e-005
4.984512e-004,6.832980e-005
5.188715e-004,3.753739e-005
5.245437e-004,1.063454e-005
5.117406e-004,-1.682422e-006
4.948858e-004,2.855406e-006
5.016925e-004,1.857574e-005
5.563085e-004,3.380988e-005
6.681337e-004,4.612685e-005
8.204752e-004,5.504044e-005
9.744375e-004,6.346784e-005
1.088694e-003,6.962632e-005
1.137313e-003,7.124698e-005
1.115921e-003,6.719534e-005
1.039264e-003,6.541262e-005
9.305177e-004,7.367795e-005
8.175580e-004,9.442231e-005
7.250187e-004,1.187321e-004
6.679717e-004,1.386661e-004
6.443101e-004,1.517934e-004
6.378275e-004,1.573037e-004
6.274553e-004,1.496866e-004
5.953663e-004,1.278078e-004
5.342677e-004,9.831188e-005
4.577728e-004,7.059870e-005
3.885709e-004,5.115087e-005
3.399513e-004,4.483032e-005
3.127243e-004,4.855782e-005
2.970040e-004,5.633696e-005
2.796630e-004,6.362990e-005
2.503292e-004,6.784360e-005
2.119197e-004,6.995045e-005
1.736723e-004,7.011251e-005
1.409351e-004,7.027457e-005
1.101426e-004,7.367795e-005
7.221937e-005,7.918817e-005
1.954813e-005,8.437427e-005
-4.171255e-005,8.388807e-005
-9.762508e-005,7.513654e-005
-1.400862e-004,5.941620e-005
-1.705545e-004,3.753739e-005
-1.934057e-004,1.403791e-005
-2.068571e-004,-5.247859e-006
-2.041020e-004,-1.610623e-005
-1.862748e-004,-1.934754e-005
-1.647201e-004,-1.675450e-005
-1.527273e-004,-1.237873e-005
-1.566169e-004,-8.002969e-006
-1.669890e-004,-4.761663e-006
-1.669890e-004,4.244267e-007
-1.430034e-004,9.175954e-006
-9.503204e-005,1.808955e-005
-3.004385e-005,2.538249e-005
4.126489e-005,3.283749e-005
1.088461e-004,4.434413e-005
1.607070e-004,5.990240e-005
1.931201e-004,7.286762e-005
2.073818e-004,7.772959e-005
2.090025e-004,7.319175e-005
2.005751e-004,6.411610e-005
1.785342e-004,5.763348e-005
1.394765e-004,5.163707e-005
8.259154e-005,4.677511e-005
9.824214e-006,4.564065e-005
-7.704279e-005,5.082674e-005
-1.746061e-004,5.828174e-005
-2.773555e-004,6.314371e-005
-3.807532e-004,6.444023e-005
-4.791268e-004,6.200925e-005
-5.734488e-004,5.860587e-005
-6.617744e-004,5.244739e-005
-7.436173e-004,3.721326e-005
-8.202742e-004,1.241726e-005
-8.902864e-004,-1.497178e-005
-9.387439e-004,-3.441962e-005
-9.447403e-004,-3.960571e-005
-8.993620e-004,-2.890940e-005
-8.176811e-004,-5.896120e-006
-7.173627e-004,2.230324e-005
-6.141271e-004,4.904402e-005
-5.139708e-004,6.914012e-005
-4.100870e-004,7.983643e-005
-2.992343e-004,7.513654e-005
-1.827094e-004,4.758544e-005
-6.261898e-005,-8.720958e-007
6.168512e-005,-5.678463e-005
1.937684e-004,-1.112386e-004
3.334687e-004,-1.571030e-004
4.640934e-004,-1.932436e-004
5.624671e-004,-2.233878e-004
6.033076e-004,-2.546663e-004
5.811046e-004,-2.937241e-004
5.122268e-004,-3.361852e-004
4.243874e-004,-3.677879e-004
3.495132e-004,-3.703810e-004
3.088348e-004,-3.339163e-004
3.080244e-004,-2.579077e-004
3.339549e-004,-1.532135e-004
3.720402e-004,-3.458168e-005
4.247115e-004,8.178122e-005
5.178991e-004,1.842065e-004
6.738060e-004,2.660495e-004
8.932427e-004,3.260137e-004
1.132775e-003,3.728506e-004
1.324013e-003,4.166082e-004
1.405208e-003,4.593935e-004
1.326120e-003,4.955340e-004
1.059036e-003,5.144957e-004
6.170831e-004,5.059062e-004
8.631904e-005,4.721966e-004
-3.745946e-004,4.213081e-004
-6.183409e-004,3.623164e-004
-5.941931e-004,3.023521e-004
-3.519055e-004,2.466016e-004
-1.626830e-005,2.015475e-004
2.508154e-004,1.731861e-004
3.171001e-004,1.600588e-004
1.125736e-004,1.529279e-004
-3.593605e-004,1.417454e-004
-1.021559e-003,1.198666e-004
-1.750367e-003,8.907416e-005
-2.408353e-003,5.633696e-005
-2.882395e-003,2.619281e-005
-3.111880e-003,3.017472e-006
-3.105883e-003,-1.497178e-005
-2.905084e-003,-3.425755e-005
-2.545298e-003,-6.180866e-005
-2.099618e-003,-9.811128e-005
-1.694292e-003,-1.360346e-004
-1.435960e-003,-1.682856e-004
-1.342935e-003,-1.942160e-004
-1.341314e-003,-2.172293e-004
-1.309225e-003,-2.421873e-004
-1.152346e-003,-2.703867e-004
-8.465288e-004,-2.989102e-004
-4.425000e-004,-3.180339e-004
-4.333321e-005,-3.177098e-004
2.500050e-004,-2.938861e-004
3.751195e-004,-2.485079e-004
3.339549e-004,-1.937298e-004
1.981441e-004,-1.370070e-004
6.622294e-005,-8.222889e-005
2.473422e-005,-3.474375e-005
1.116012e-004,2.369210e-006
3.044590e-004,2.505835e-005
5.452881e-004,2.910999e-005
7.776900e-004,1.598270e-005
9.674686e-004,-1.156841e-005
1.100200e-003,-4.722277e-005
1.184798e-003,-8.352540e-005
1.240225e-003,-1.144799e-004
1.292896e-003,-1.365208e-004
1.357723e-003,-1.493239e-004
1.435028e-003,-1.554824e-004
1.506175e-003,-1.567789e-004
1.544098e-003,-1.480274e-004
1.530322e-003,-1.269589e-004
1.459500e-003,-1.021629e-004
1.340706e-003,-8.952182e-005
1.199709e-003,-9.665269e-005
1.065842e-003,-1.107524e-004
9.585550e-004,-1.159385e-004
8.812498e-004,-1.050801e-004
8.280923e-004,-8.336334e-005
7.875760e-004,-7.088431e-005
7.506250e-004,-8.790116e-005
7.204809e-004,-1.407345e-004
7.092984e-004,-2.182017e-004
7.243704e-004,-2.948585e-004
7.609972e-004,-3.428299e-004
7.972998e-004,-3.450988e-004
8.092927e-004,-2.987481e-004
7.924379e-004,-2.167431e-004
7.575939e-004,-1.242038e-004
7.208050e-004,-4.074016e-005
6.943883e-004,2.149292e-005
6.877437e-004,6.233338e-005
6.987641e-004,8.907416e-005
7.159431e-004,1.081979e-004
7.229118e-004,1.216493e-004
7.112431e-004,1.289422e-004
6.788300e-004,1.282940e-004
6.334517e-004,1.213252e-004
5.853183e-004,1.109530e-004
5.431813e-004,1.010670e-004
5.112544e-004,9.588090e-005
4.840274e-004,9.944633e-005
4.621486e-004,1.141943e-004
4.449697e-004,1.394765e-004
4.300596e-004,1.654069e-004
4.159599e-004,1.791825e-004
3.856537e-004,1.803169e-004
3.169380e-004,1.769136e-004
2.034923e-004,1.767515e-004
6.557468e-005,1.835582e-004
-6.845333e-005,1.973338e-004
-1.768750e-004,2.141886e-004
-2.556388e-004,2.300710e-004
-3.058790e-004,2.454672e-004
-3.391023e-004,2.597290e-004
-3.685983e-004,2.751252e-004
-4.092766e-004,2.916558e-004
-4.650271e-004,3.047831e-004
-5.266119e-004,3.067279e-004
-5.831727e-004,2.960316e-004
-6.225546e-004,2.751252e-004
-6.413541e-004,2.487085e-004
-6.454058e-004,2.205091e-004
-6.429748e-004,1.945787e-004
-6.355197e-004,1.811273e-004
-6.236890e-004,1.835582e-004
-6.094273e-004,1.958752e-004
-5.972724e-004,2.052750e-004
-5.924104e-004,2.039785e-004
-5.974344e-004,1.937684e-004
-6.102376e-004,1.816135e-004
-6.253097e-004,1.699447e-004
-6.314681e-004,1.582760e-004
-6.138030e-004,1.438522e-004
-5.580526e-004,1.248906e-004
-4.512515e-004,9.831188e-005
-2.976136e-004,6.346784e-005
-1.227452e-004,2.651694e-005
2.619281e-005,-3.141010e-006
9.847395e-005,-2.194059e-005
7.610893e-005,-3.053005e-005
-2.031993e-005,-2.890940e-005
-1.502963e-004,-1.837515e-005
-2.660109e-004,-2.006553e-006
-3.402368e-004,2.311357e-005
-3.760532e-004,5.504044e-005
-3.930701e-004,8.729143e-005
-4.053871e-004,1.112771e-004
-4.172178e-004,1.214872e-004
-4.329382e-004,1.161391e-004
-4.528722e-004,9.636710e-005
-4.724821e-004,7.092283e-005
-4.822060e-004,4.774750e-005
-4.757234e-004,3.121684e-005
-4.585445e-004,2.765140e-005
-4.436345e-004,3.299956e-005
-4.403932e-004,3.883391e-005
-4.444448e-004,3.445814e-005
-4.471999e-004,1.436204e-005
-4.412035e-004,-1.529591e-005
-4.293727e-004,-4.592625e-005
-4.214316e-004,-7.234290e-005
-4.172178e-004,-9.486997e-005
-4.021458e-004,-1.167488e-004
-3.532020e-004,-1.310105e-004
-2.622834e-004,-1.363587e-004
-1.464067e-004,-1.321450e-004
-3.344722e-005,-1.230693e-004
4.969228e-005,-1.151281e-004
8.793970e-005,-1.078352e-004
9.150514e-005,-9.568031e-005
9.361198e-005,-7.866345e-005
1.218114e-004,-5.921561e-005
1.804790e-004,-3.847125e-005
2.563256e-004,-1.999580e-005
3.355755e-004,-6.544382e-006
4.110980e-004,1.234753e-006
4.851619e-004,2.207145e-006
5.679773e-004,-4.923729e-006
6.699165e-004,-1.853721e-005
7.854691e-004,-2.842320e-005
9.006977e-004,-2.420950e-005
9.980990e-004,-4.437533e-006
1.061791e-003,1.792748e-005
1.087397e-003,3.364782e-005
1.088045e-003,3.769945e-005
1.091611e-003,3.316162e-005
1.165027e-003,2.246531e-005
1.392080e-003,1.047248e-005
1.821554e-003,2.369210e-006
2.392027e-003,-8.720958e-007
2.869798e-003,-8.720958e-007
2.914042e-003,2.623614e-007
2.297056e-003,1.396819e-006
1.047691e-003,-1.196226e-006
-5.776625e-004,-3.303075e-006
-2.143862e-003,-2.168618e-006
-3.340879e-003,-3.858999e-007
-3.989791e-003,9.106226e-007
-4.047001e-003,1.002961e-007
-3.624981e-003,-3.789271e-006
-2.957593e-003,-7.354708e-006
-2.281779e-003,-9.947754e-006
-1.751988e-003,-1.156841e-005
-1.423805e-003,-1.059601e-005
-1.293343e-003,-7.678839e-006
-1.330294e-003,-4.923729e-006
-1.477287e-003,-2.978945e-006
-1.666741e-003,2.045080e-006
-1.830914e-003,1.047248e-005
-1.904329e-003,2.181705e-005
-1.830265e-003,3.137890e-005
-1.590246e-003,3.543053e-005
-1.210365e-003,3.202716e-005
-7.507481e-004,2.052053e-005
-2.810830e-004,3.017472e-006
1.344524e-004,-1.205460e-005
4.525867e-004,-1.788895e-005
6.647304e-004,-1.221667e-005
7.765555e-004,-3.858999e-007
7.990826e-004,9.986280e-006
7.499768e-004,7.717366e-006
6.491721e-004,-2.194059e-005
5.086614e-004,-8.109442e-005
3.310377e-004,-1.472171e-004
1.169494e-004,-1.956746e-004
-1.225831e-004,-2.180396e-004
-3.502849e-004,-2.143121e-004
-5.152673e-004,-1.859507e-004
-5.634007e-004,-1.383035e-004
-4.561135e-004,-7.704279e-005
-1.968091e-004,-8.651231e-006
1.500107e-004,5.763348e-005
4.926169e-004,1.114392e-004
7.624558e-004,1.461212e-004
9.295453e-004,1.616794e-004
1.000368e-003,1.647587e-004
1.002637e-003,1.615174e-004
9.684410e-004,1.534141e-004
9.301936e-004,1.414213e-004
9.165801e-004,1.304008e-004
9.496414e-004,1.260251e-004
1.036833e-003,1.295905e-004
1.181395e-003,1.346145e-004
1.390136e-003,1.352628e-004
1.667754e-003,1.315353e-004
1.993831e-003,1.255388e-004
2.335952e-003,1.198666e-004
2.653601e-003,1.141943e-004
2.905290e-003,1.073875e-004
3.049206e-003,9.588090e-005
3.049367e-003,7.967437e-005
2.886167e-003,6.184718e-005
2.556524e-003,4.013043e-005
2.065950e-003,2.214118e-005
1.424980e-003,1.160693e-005
6.721854e-004,9.824214e-006
-8.984595e-005,1.452411e-005
-7.097456e-004,2.149292e-005
-1.079093e-003,2.813760e-005
-1.182490e-003,3.186510e-005
-1.083144e-003,3.332369e-005
-8.765109e-004,3.656499e-005
-6.450816e-004,4.110282e-005
-4.488206e-004,4.256141e-005
-3.209511e-004,3.753739e-005
-2.742762e-004,2.603075e-005
-3.037722e-004,1.079661e-005
-3.922598e-004,-5.085794e-006
-5.079744e-004,-1.950961e-005
-6.099135e-004,-3.085418e-005
-6.586951e-004,-3.198863e-005
-6.322784e-004,-2.048200e-005
-5.309877e-004,-3.858999e-007
-3.801049e-004,2.035846e-005
-2.178775e-004,3.235129e-005
-8.320127e-005,3.364782e-005
-6.382316e-006,2.846173e-005
9.986280e-006,2.149292e-005
-1.545797e-005,1.160693e-005
-5.937767e-005,-6.176923e-008
-1.118868e-004,-1.010982e-005
-1.726613e-004,-2.031993e-005
-2.331117e-004,-3.247483e-005
-2.687660e-004,-4.349527e-005
-2.627696e-004,-4.738484e-005
-2.222533e-004,-4.333321e-005
-1.778474e-004,-3.198863e-005
-1.592099e-004,-1.837515e-005
-1.736337e-004,-4.599598e-006
-1.864369e-004,1.306552e-005
-1.477033e-004,3.283749e-005
-2.890940e-005,5.115087e-005
1.509831e-004,6.557468e-005
3.371962e-004,7.286762e-005
4.683071e-004,7.351588e-005
4.978030e-004,7.578480e-005
4.193634e-004,8.664317e-005
2.545429e-004,1.080358e-004
3.932010e-005,1.313732e-004
-1.867610e-004,1.436902e-004
-3.828600e-004,1.427178e-004
-5.164018e-004,1.312111e-004
-5.528664e-004,1.098185e-004
-4.439586e-004,8.567078e-005
-1.635857e-004,6.346784e-005
2.637806e-004,4.223728e-005
7.671557e-004,2.489629e-005
1.250921e-003,1.274139e-005
1.621241e-003,5.934647e-006
1.809724e-003,1.720949e-006
1.785738e-003,-2.006553e-006
1.550257e-003,-9.785687e-006
1.128886e-003,-1.967167e-005
5.764047e-004,-2.712668e-005
-4.171255e-005,-2.939559e-005
-6.643674e-004,-2.485776e-005
-1.227544e-003,-1.724069e-005
-1.682137e-003,-1.189254e-005
-1.999462e-003,-1.043395e-005
-2.158934e-003,-1.302699e-005
-2.142889e-003,-1.902341e-005
-1.922967e-003,-3.117831e-005
-1.475018e-003,-4.576419e-005
-8.274050e-004,-5.613637e-005
-9.243900e-005,-5.872941e-005
5.527431e-004,-5.321919e-005
9.468863e-004,-4.462973e-005
1.028243e-003,-3.798505e-005
8.486747e-004,-3.360929e-005
5.336195e-004,-3.036798e-005
2.028440e-004,-2.923352e-005
-8.644258e-005,-3.085418e-005
-3.287302e-004,-3.360929e-005
-5.368220e-004,-3.231276e-005
-7.235212e-004,-2.307504e-005
-8.935277e-004,-7.840905e-006
-1.038576e-003,6.096713e-006
-1.125767e-003,1.322759e-005
-1.112640e-003,9.986280e-006
-9.766672e-004,-4.275467e-006
-7.298418e-004,-2.275091e-005
-4.183523e-004,-3.279896e-005
-9.892161e-005,-2.842320e-005
1.960373e-004,-1.578211e-005
4.404318e-004,-4.599598e-006
6.031455e-004,-7.100305e-007
6.608408e-004,-2.006553e-006
6.028214e-004,-3.141010e-006
4.368664e-004,-2.006553e-006
1.717275e-004,6.096713e-006
-1.878955e-004,1.549650e-005
-6.316302e-004,1.938607e-005
-1.116530e-003,1.565857e-005
-1.557995e-003,7.069104e-006
-1.832534e-003,-2.492749e-006
-1.806928e-003,-8.165034e-006
-1.412299e-003,-5.734055e-006
-6.622605e-004,3.179537e-006
3.700955e-004,1.744128e-005
1.470034e-003,3.656499e-005
2.289277e-003,5.974033e-005
2.505473e-003,8.453633e-005
2.015709e-003,1.067393e-004
1.018195e-003,1.255388e-004
-1.107524e-004,1.420695e-004
-9.953047e-004,1.539003e-004
-1.463511e-003,1.611932e-004
-1.533686e-003,1.626518e-004
-1.323649e-003,1.607070e-004
-9.778016e-004,1.603829e-004
-6.112100e-004,1.631380e-004
-2.872415e-004,1.667035e-004
-2.777494e-005,1.660552e-004
1.649207e-004,1.576278e-004
2.981384e-004,1.404489e-004
3.822504e-004,1.158149e-004
4.247115e-004,8.712937e-005
4.290873e-004,5.974033e-005
4.005638e-004,3.591673e-005
3.516200e-004,1.484824e-005
2.968419e-004,-4.113402e-006
2.470879e-004,-1.999580e-005
2.096508e-004,-3.263690e-005
1.866375e-004,-3.992984e-005
1.820997e-004,-3.863331e-005
1.983062e-004,-2.874733e-005
2.255332e-004,-1.156841e-005
2.475740e-004,8.041497e-006
2.490327e-004,2.522042e-005
2.266676e-004,3.640293e-005
1.908512e-004,4.094075e-005
1.660552e-004,4.029249e-005
1.689724e-004,3.688912e-005
1.979821e-004,2.197911e-005
2.349330e-004,-8.975361e-006
2.571359e-004,-5.127441e-005
2.529222e-004,-8.903562e-005
2.247228e-004,-1.078352e-004
1.853410e-004,-1.029732e-004
1.475797e-004,-8.498399e-005
1.205148e-004,-6.537409e-005
1.046324e-004,-5.208473e-005
1.030118e-004,-4.414354e-005
1.163011e-004,-3.960571e-005
1.430419e-004,-3.555407e-005
1.770756e-004,-2.615428e-005
2.102990e-004,-1.075808e-005
2.438465e-004,9.013888e-006
2.788527e-004,3.024445e-005
3.120761e-004,4.758544e-005
3.347652e-004,5.747142e-005
3.410858e-004,5.925414e-005
3.352514e-004,5.163707e-005
3.370341e-004,3.656499e-005
3.681507e-004,1.760335e-005
4.378388e-004,4.244267e-007
5.308643e-004,-8.002969e-006
6.177314e-004,-8.489165e-006
6.682958e-004,-1.358292e-006
6.772094e-004,1.338965e-005
6.516030e-004,3.380988e-005
6.021731e-004,5.358185e-005
5.303781e-004,6.881599e-005
4.391353e-004,8.194328e-005
3.323342e-004,9.831188e-005
2.119197e-004,1.188942e-004
7.270556e-005,1.373696e-004
-8.239095e-005,1.543865e-004
-2.408908e-004,1.676758e-004
-3.791325e-004,1.769136e-004
-4.775061e-004,1.786963e-004
-5.295291e-004,1.701068e-004
-5.447632e-004,1.532520e-004
-5.395771e-004,1.302387e-004
-5.309877e-004,1.026876e-004
-5.282326e-004,7.043664e-005
-5.355255e-004,4.175108e-005
-5.499493e-004,2.359977e-005
-5.655076e-004,2.116879e-005
-5.778245e-004,2.684107e-005
-5.812279e-004,2.732727e-005
-5.706937e-004,1.695509e-005
-5.450873e-004,-2.168618e-006
-4.990608e-004,-2.420950e-005
-4.181902e-004,-3.879538e-005
-2.831898e-004,-3.944364e-005
-1.020008e-004,-2.890940e-005
9.361198e-005,-1.464765e-005
2.704253e-004,-4.113402e-006
4.008879e-004,7.485573e-007
4.684691e-004,2.531276e-006
4.710622e-004,2.207145e-006
4.204978e-004,-7.100305e-007
3.433547e-004,-5.734055e-006
2.701011e-004,-9.623623e-006
2.227780e-004,-1.027188e-005
2.034923e-004,-7.840905e-006
1.960373e-004,-4.275467e-006
1.806411e-004,-2.330684e-006
1.508210e-004,-4.275467e-006
1.083599e-004,-1.367526e-005
6.541262e-005,-2.550602e-005
4.256141e-005,-3.166451e-005
5.893001e-005,-3.441962e-005
1.179218e-004,-3.879538e-005
2.075439e-004,-4.625038e-005
3.141829e-004,-5.370539e-005
4.141773e-004,-5.808115e-005
4.872688e-004,-5.678463e-005
5.281092e-004,-4.884343e-005
5.661946e-004,-3.911951e-005
6.477135e-004,-2.712668e-005
7.955172e-004,-1.351319e-005
9.872406e-004,1.396819e-006
1.166161e-003,1.808955e-005
1.268262e-003,3.591673e-005
1.253352e-003,5.082674e-005
1.128724e-003,5.974033e-005
9.504518e-004,6.768153e-005
7.815795e-004,7.708132e-005
6.556546e-004,8.550872e-005
5.514466e-004,8.761556e-005
4.091532e-004,7.967437e-005
1.739964e-004,6.136099e-005
-1.605064e-004,3.769945e-005
-5.551354e-004,1.695509e-005
-9.588400e-004,9.662150e-006
-1.327052e-003,1.987226e-005
-1.626549e-003,4.110282e-005
-1.838531e-003,6.184718e-005
-1.971910e-003,7.708132e-005
-2.048405e-003,8.826383e-005
-2.088111e-003,1.004187e-004
-2.066557e-003,1.151667e-004
-1.945656e-003,1.248906e-004
-1.743722e-003,1.201907e-004
-1.526393e-003,9.733949e-005
-1.359303e-003,6.314371e-005
-1.293667e-003,2.667901e-005
-1.328997e-003,-1.520357e-006
-1.401602e-003,-1.529591e-005
-1.434502e-003,-1.724069e-005
-1.387179e-003,-1.691656e-005
-1.261416e-003,-1.869928e-005
-1.094327e-003,-2.177852e-005
-9.418231e-004,-2.113026e-005
-8.311325e-004,-1.092015e-005
-7.288694e-004,1.128280e-005
-5.768521e-004,4.158902e-005
-3.297026e-004,6.719534e-005
1.857574e-005,7.967437e-005
4.263321e-004,7.999850e-005
8.353853e-004,7.108490e-005
1.203760e-003,5.390598e-005
1.514602e-003,3.397195e-005
1.758025e-003,1.436204e-005
1.929166e-003,-3.303075e-006
2.032240e-003,-1.578211e-005
2.076970e-003,-1.918548e-005
2.074377e-003,-1.772689e-005
2.018464e-003,-1.772689e-005
1.890271e-003,-2.550602e-005
1.682664e-003,-3.522994e-005
1.410556e-003,-3.944364e-005
1.110897e-003,-3.377135e-005
8.290648e-004,-2.015787e-005
6.016869e-004,-3.627206e-006
4.370285e-004,7.555300e-006
3.226103e-004,8.527692e-006
2.370398e-004,1.883015e-006
1.665414e-004,-5.734055e-006
1.031738e-004,-8.651231e-006
4.531652e-005,-8.489165e-006
-6.220251e-006,-9.299492e-006
-5.743289e-005,-1.432352e-005
-1.290658e-004,-2.745081e-005
-2.175534e-004,-5.856734e-005
-2.820554e-004,-1.110765e-004
-2.639041e-004,-1.742820e-004
-1.190177e-004,-2.284118e-004
1.504969e-004,-2.559629e-004
4.848377e-004,-2.470493e-004
7.929241e-004,-2.053985e-004
9.919406e-004,-1.441378e-004
1.041533e-003,-7.704279e-005
9.376486e-004,-1.351319e-005
6.904988e-004,4.110282e-005
3.175863e-004,8.858796e-005
-1.353863e-004,1.281319e-004
-5.860899e-004,1.548727e-004
-9.431196e-004,1.683241e-004
-1.135005e-003,1.715654e-004
-1.136626e-003,1.722137e-004
-9.818532e-004,1.761032e-004
-7.423208e-004,1.851789e-004
-5.086227e-004,2.002510e-004
-3.613053e-004,2.182402e-004
-3.382920e-004,2.344468e-004
-4.112214e-004,2.396328e-004
-5.031124e-004,2.266676e-004
-5.348772e-004,1.976579e-004
-4.736166e-004,1.611932e-004
-3.429920e-004,1.235941e-004
-1.948643e-004,8.858796e-005
-6.472583e-005,5.439218e-005
3.721326e-005,2.214118e-005
1.150046e-004,-4.599598e-006
1.861513e-004,-1.967167e-005
2.642668e-004,-2.161646e-005
3.452995e-004,-1.675450e-005
4.170944e-004,-1.254080e-005
4.658761e-004,-1.432352e-005
4.846757e-004,-1.934754e-005
4.767345e-004,-2.599222e-005
4.572866e-004,-3.231276e-005
4.444834e-004,-3.992984e-005
4.475627e-004,-5.062615e-005
4.647416e-004,-6.488790e-005
4.927790e-004,-8.320127e-005
5.292437e-004,-1.024870e-004
5.632774e-004,-1.182074e-004
5.853183e-004,-1.235555e-004
5.994180e-004,-1.122110e-004
6.156245e-004,-8.239095e-005
6.379896e-004,-3.992984e-005
6.537099e-004,7.231170e-006
6.428515e-004,4.693717e-005
5.911527e-004,7.221937e-005
4.926169e-004,8.518459e-005
3.474063e-004,9.085687e-005
1.657311e-004,9.344992e-005
-3.020592e-005,9.960840e-005
-2.149604e-004,1.106288e-004
-3.715154e-004,1.219734e-004
-4.843129e-004,1.292664e-004
-5.484907e-004,1.323456e-004
-5.778245e-004,1.362352e-004
-6.003516e-004,1.419075e-004
-6.449196e-004,1.453108e-004
-7.287073e-004,1.420695e-004
-8.445840e-004,1.321835e-004
-9.687260e-004,1.171115e-004
-1.065803e-003,1.002567e-004
-1.093840e-003,8.502253e-005
-1.015563e-003,7.513654e-005
-8.210845e-004,6.751947e-005
-5.465459e-004,5.439218e-005
-2.345703e-004,3.283749e-005
7.027457e-005,8.527692e-006
3.088348e-004,-9.623623e-006
4.146634e-004,-2.048200e-005
3.546993e-004,-2.988179e-005
1.634621e-004,-3.992984e-005
-7.250496e-005,-4.560212e-005
-2.684419e-004,-4.576419e-005
-3.732981e-004,-3.879538e-005
-3.825359e-004,-2.566809e-005
-3.235441e-004,-8.813297e-006
-2.387839e-004,8.689757e-006
-1.627753e-004,2.084466e-005
-1.161005e-004,2.343770e-005
-1.002181e-004,1.857574e-005
-1.049180e-004,6.744974e-006
-1.125351e-004,-8.651231e-006
-1.128592e-004,-2.420950e-005
-1.018388e-004,-3.847125e-005
-7.477388e-005,-5.030201e-005
-3.749886e-005,-5.872941e-005
-2.492749e-006,-6.229485e-005
2.343770e-005,-6.229485e-005
3.672705e-005,-6.164659e-005
3.980630e-005,-5.727082e-005
3.834771e-005,-4.738484e-005
3.802358e-005,-3.474375e-005
4.742337e-005,-2.437157e-005
7.546067e-005,-1.837515e-005
1.294284e-004,-1.837515e-005
2.102990e-004,-2.501983e-005
3.133726e-004,-3.539201e-005
4.349216e-004,-4.576419e-005
5.930975e-004,-5.257093e-005
8.016757e-004,-5.435365e-005
1.031160e-003,-4.997788e-005
1.213322e-003,-3.847125e-005
1.275555e-003,-2.501983e-005
1.173130e-003,-9.947754e-006
8.893531e-004,6.744974e-006
4.284390e-004,2.278944e-005
-1.661787e-004,3.186510e-005
-7.930472e-004,3.299956e-005
-1.311170e-003,2.846173e-005
-1.598674e-003,2.716520e-005
-1.601267e-003,3.737532e-005
-1.354928e-003,5.568870e-005
-9.614330e-004,7.448828e-005
-5.444391e-004,9.053274e-005
-2.053985e-004,1.065772e-004
7.231170e-006,1.240803e-004
9.733949e-005,1.406109e-004
9.426025e-005,1.466074e-004
3.089270e-005,1.357490e-004
-5.613637e-005,1.051186e-004
-1.240417e-004,6.022653e-005
-1.371690e-004,8.203561e-006
-8.044616e-005,-4.138842e-005
3.850977e-005,-7.898758e-005
1.957131e-004,-9.940780e-005
3.624784e-004,-1.016767e-004
5.213025e-004,-8.433573e-005
6.848265e-004,-4.787104e-005
8.810877e-004,1.720949e-006
1.130344e-003,5.423011e-005
1.406342e-003,9.896014e-005
1.650251e-003,1.308870e-004
1.804052e-003,1.527658e-004
1.810858e-003,1.689724e-004
1.631938e-003,1.820997e-004
1.272476e-003,1.893926e-004
7.951930e-004,1.916615e-004
3.013797e-004,1.926339e-004
-1.086455e-004,1.952270e-004
-3.694086e-004,1.989545e-004
-4.695649e-004,2.018716e-004
-4.431483e-004,1.994406e-004
-3.520676e-004,1.861513e-004
-2.577456e-004,1.644345e-004
-2.026434e-004,1.357490e-004
-1.969711e-004,1.049566e-004
-2.125294e-004,7.546067e-005
-2.045882e-004,4.904402e-005
-1.514308e-004,2.667901e-005
-7.137050e-005,7.717366e-006
3.665733e-006,-1.059601e-005
4.953022e-005,-3.004385e-005
5.909207e-005,-5.257093e-005
3.170303e-005,-7.444974e-005
-2.485776e-005,-9.405964e-005
-8.822530e-005,-1.079973e-004
-1.282554e-004,-1.161005e-004
-1.306864e-004,-1.164247e-004
-1.164247e-004,-1.055663e-004
-1.447861e-004,-8.709084e-005
-2.848105e-004,-6.796713e-005
-5.948414e-004,-5.759496e-005
-1.103888e-003,-5.402952e-005
-1.775163e-003,-5.483985e-005
-2.504620e-003,-5.451571e-005
-3.161796e-003,-5.192267e-005
-3.628384e-003,-4.592625e-005
-3.818974e-003,-3.117831e-005
-3.682352e-003,-7.516774e-006
-3.215764e-003,1.646889e-005
-2.484523e-003,2.829966e-005
-1.587978e-003,2.133085e-005
-6.274165e-004,-2.816880e-006
2.940868e-004,-3.587821e-005
1.078484e-003,-7.023605e-005
1.682664e-003,-1.010285e-004
2.107439e-003,-1.229073e-004
2.366744e-003,-1.295519e-004
2.464308e-003,-1.212866e-004
2.382303e-003,-9.843541e-005
2.106466e-003,-6.423963e-005
1.669537e-003,-2.485776e-005
1.131479e-003,1.290346e-005
5.386435e-004,4.531652e-005
-8.887356e-005,6.589881e-005
-7.419966e-004,7.529860e-005
-1.417323e-003,7.319175e-005
-2.076118e-003,5.909207e-005
-2.614824e-003,3.332369e-005
-2.895360e-003,9.106226e-007
-2.815138e-003,-2.793700e-005
-2.365081e-003,-4.803310e-005
-1.600781e-003,-5.176060e-005
-5.967862e-004,-3.895744e-005
5.235714e-004,-1.626830e-005
1.536643e-003,1.031041e-005
2.237416e-003,3.932010e-005
2.523462e-003,6.930219e-005
2.440322e-003,9.263960e-005
2.146659e-003,1.060910e-004
1.813938e-003,1.086841e-004
1.544260e-003,1.039842e-004
1.351402e-003,9.571883e-005
1.199709e-003,8.388807e-005
1.066005e-003,6.816773e-005
9.540172e-004,5.034054e-005
8.778464e-004,3.105477e-005
8.410575e-004,1.711715e-005
8.391127e-004,1.549650e-005
8.660157e-004,2.489629e-005
9.214421e-004,3.883391e-005
1.003447e-003,5.293359e-005
1.099876e-003,6.508849e-005
1.182368e-003,7.432621e-005
1.221263e-003,7.772959e-005
1.201491e-003,7.756751e-005
1.139744e-003,8.129502e-005
1.062763e-003,9.247753e-005
9.932371e-004,1.072255e-004
9.371624e-004,1.222975e-004
8.857876e-004,1.346145e-004
8.233925e-004,1.435281e-004
7.386322e-004,1.534141e-004
6.268070e-004,1.688103e-004
4.871067e-004,1.927960e-004
3.224483e-004,2.198609e-004
1.305629e-004,2.454672e-004
-9.017008e-005,2.645909e-004
-3.405610e-004,2.728562e-004
-6.142893e-004,2.639427e-004
-9.042240e-004,2.381743e-004
-1.194483e-003,2.004130e-004
-1.448925e-003,1.577899e-004
-1.611801e-003,1.226217e-004
-1.621687e-003,9.685329e-005
-1.443415e-003,7.610893e-005
-1.096433e-003,5.860587e-005
-6.463781e-004,4.029249e-005
-1.729855e-004,2.230324e-005
2.472499e-004,4.962256e-006
5.610085e-004,-1.059601e-005
7.551629e-004,-2.420950e-005
8.464057e-004,-3.911951e-005
8.632605e-004,-5.176060e-005
8.355473e-004,-5.921561e-005
7.867657e-004,-6.326724e-005
7.300427e-004,-6.472583e-005
6.728336e-004,-6.245691e-005
6.211348e-004,-5.565017e-005
5.757564e-004,-5.176060e-005
5.315125e-004,-6.294311e-005
4.812723e-004,-9.243900e-005
4.190392e-004,-1.302002e-004
3.384927e-004,-1.577513e-004
2.248849e-004,-1.666649e-004
5.876794e-005,-1.562927e-004
-1.799543e-004,-1.353863e-004
-5.016539e-004,-1.157764e-004
-8.842900e-004,-1.016767e-004
-1.261740e-003,-9.308726e-005
-1.550540e-003,-8.628051e-005
-1.683596e-003,-7.574627e-005
-1.629304e-003,-5.840528e-005
-1.407437e-003,-3.377135e-005
-1.080875e-003,-8.813297e-006
-7.188214e-004,9.338019e-006
-3.632501e-004,1.776542e-005
-3.101624e-005,1.403791e-005
2.696149e-004,-2.816880e-006
5.216266e-004,-2.826113e-005
7.104328e-004,-5.710876e-005
8.297130e-004,-8.077029e-005
8.976184e-004,-9.227693e-005
9.464001e-004,-9.357345e-005
1.001016e-003,-9.049421e-005
1.068111e-003,-8.709084e-005
1.147037e-003,-8.028410e-005
1.237470e-003,-6.893953e-005
1.340706e-003,-5.386745e-005
1.458365e-003,-3.652646e-005
1.601307e-003,-2.064406e-005
1.766776e-003,-1.108221e-005
1.920739e-003,-5.734055e-006
2.002420e-003,5.864920e-007
1.934514e-003,1.063454e-005
1.682016e-003,2.181705e-005
1.275717e-003,2.781346e-005
7.297186e-004,2.619281e-005
-4.770897e-005,1.841368e-005
-1.186866e-003,9.662150e-006
-2.650803e-003,2.623614e-007
-4.213119e-003,-1.205460e-005
-4.968511e-003,-2.761287e-005
-4.968511e-003,-4.333321e-005
-4.968511e-003,-5.629843e-005
-4.968674e-003,-6.748093e-005
-4.888289e-003,-7.347736e-005
-3.599698e-003,-6.893953e-005
-2.343851e-003,-4.673658e-005
-1.315546e-003,-3.627206e-006
-6.021343e-004,5.893001e-005
-1.864369e-004,1.380179e-004
1.889987e-005,2.180782e-004
1.159770e-004,2.840387e-004
1.897167e-004,3.289309e-004
2.827422e-004,3.521062e-004
3.958639e-004,3.592371e-004
5.140096e-004,3.613439e-004
6.188658e-004,3.713920e-004
6.940642e-004,3.905157e-004
7.313393e-004,4.117463e-004
7.285841e-004,4.261701e-004
6.900126e-004,4.195254e-004
6.263208e-004,3.781987e-004
5.480432e-004,2.991108e-004
4.697657e-004,1.934442e-004
3.997534e-004,7.756751e-005
3.581026e-004,-2.890940e-005
3.757677e-004,-1.079973e-004
4.644175e-004,-1.519170e-004
6.089798e-004,-1.655304e-004
7.801210e-004,-1.660166e-004
9.360280e-004,-1.673132e-004
1.043153e-003,-1.723372e-004
1.082535e-003,-1.771991e-004
1.067463e-003,-1.786577e-004
1.027433e-003,-1.771991e-004
9.823786e-004,-1.705545e-004
9.376486e-004,-1.574272e-004
8.885428e-004,-1.417068e-004
8.400852e-004,-1.253383e-004
8.037825e-004,-1.143178e-004
7.789865e-004,-1.151281e-004
7.456010e-004,-1.263107e-004
6.825575e-004,-1.379793e-004
5.762426e-004,-1.378173e-004
4.208219e-004,-1.123730e-004
2.148369e-004,-5.856734e-005
-4.803310e-005,5.448451e-006
-3.653569e-004,5.082674e-005
-7.154179e-004,5.633696e-005
-1.064506e-003,2.603075e-005
-1.369027e-003,-1.869928e-005
-1.558482e-003,-5.710876e-005
-1.565775e-003,-8.028410e-005
-1.395120e-003,-1.008664e-004
-1.114099e-003,-1.347380e-004
-8.084434e-004,-1.853024e-004
-5.400633e-004,-2.412149e-004
-3.280819e-004,-2.778417e-004
-1.564548e-004,-2.682798e-004
2.855406e-006,-1.974573e-004
1.657311e-004,-7.995997e-005
3.336308e-004,5.277152e-005
5.021787e-004,1.671896e-004
6.742922e-004,2.410914e-004
8.532125e-004,2.650771e-004
1.027919e-003,2.407673e-004
1.172968e-003,1.898788e-004
1.265669e-003,1.388282e-004
1.288358e-003,1.012291e-004
1.244439e-003,7.967437e-005
1.150279e-003,6.962632e-005
1.034077e-003,6.444023e-005
9.206317e-004,6.022653e-005
8.229063e-004,5.860587e-005
7.452769e-004,6.200925e-005
6.870954e-004,7.384001e-005
6.465790e-004,9.166720e-005
6.198382e-004,1.124116e-004
5.974732e-004,1.300767e-004
5.749461e-004,1.415833e-004
5.493397e-004,1.456350e-004
5.166026e-004,1.425557e-004
4.744656e-004,1.336421e-004
4.248735e-004,1.216493e-004
3.713920e-004,1.069013e-004
3.169380e-004,8.907416e-005
2.694529e-004,7.302969e-005
2.339606e-004,5.990240e-005
2.111093e-004,4.807163e-005
1.947408e-004,4.013043e-005
1.739964e-004,3.980630e-005
1.509831e-004,4.969228e-005
1.357490e-004,6.314371e-005
1.398006e-004,7.092283e-005
1.605450e-004,6.995045e-005
1.822617e-004,6.346784e-005
1.895547e-004,5.309565e-005
1.756170e-004,4.402000e-005
1.423936e-004,3.786152e-005
1.023635e-004,3.364782e-005
6.946425e-005,3.008238e-005
4.985435e-005,2.894792e-005
3.316162e-005,2.651694e-005
1.720949e-006,2.343770e-005
-5.824321e-005,2.165498e-005
-1.444620e-004,2.133085e-005
-2.407287e-004,2.165498e-005
-3.287302e-004,2.295151e-005
-3.883702e-004,2.441009e-005
-3.985803e-004,2.441009e-005
-3.561192e-004,2.570661e-005
-2.857829e-004,3.121684e-005
-2.229016e-004,4.256141e-005
-1.974573e-004,5.277152e-005
-2.199844e-004,5.228533e-005
-2.817312e-004,3.802358e-005
-3.600088e-004,1.501031e-005
-4.321278e-004,-1.092015e-005
-4.768579e-004,-3.506787e-005
-4.747510e-004,-5.402952e-005
-4.147868e-004,-5.856734e-005
-2.992343e-004,-4.949169e-005
-1.509446e-004,-3.539201e-005
-7.030578e-006,-2.583015e-005
1.051186e-004,-2.064406e-005
1.715654e-004,-1.740276e-005
1.814514e-004,-1.659243e-005
1.245665e-004,-2.307504e-005
-4.761663e-006,-3.814712e-005
-2.062088e-004,-5.532604e-005
-4.713476e-004,-6.748093e-005
-7.700340e-004,-6.845333e-005
-1.053162e-003,-5.694669e-005
-1.275678e-003,-3.830918e-005
-1.414406e-003,-2.031993e-005
-1.468049e-003,-8.002969e-006
-1.443091e-003,-2.238345e-007
-1.343907e-003,1.031041e-005
-1.171146e-003,2.862379e-005
-9.244822e-004,5.196120e-005
-6.201236e-004,7.027457e-005
-2.904828e-004,7.610893e-005
1.549650e-005,6.832980e-005
2.543808e-004,5.293359e-005
4.193634e-004,3.818564e-005
5.289195e-004,3.040651e-005
6.063868e-004,3.251336e-005
6.739681e-004,4.304760e-005
7.298806e-004,5.520250e-005
7.600248e-004,5.941620e-005
7.608352e-004,5.552663e-005
7.456010e-004,5.487837e-005
7.298806e-004,6.379197e-005
7.178878e-004,7.983643e-005
7.152948e-004,9.652916e-005
7.195084e-004,1.067393e-004
6.982779e-004,1.130598e-004
6.005524e-004,1.198666e-004
3.934329e-004,1.291043e-004
1.135460e-004,1.391524e-004
-1.446240e-004,1.443384e-004
-3.002067e-004,1.423936e-004
-3.235441e-004,1.310491e-004
-2.378116e-004,1.127357e-004
-9.568031e-005,8.923622e-005
4.418206e-005,6.379197e-005
1.308870e-004,4.369587e-005
1.386661e-004,3.299956e-005
6.703327e-005,2.473422e-005
-5.662256e-005,1.079661e-005
-1.925954e-004,-7.192643e-006
-3.024756e-004,-2.890940e-005
-3.557951e-004,-5.257093e-005
-3.386162e-004,-6.991192e-005
-2.561249e-004,-7.574627e-005
-1.449481e-004,-6.683268e-005
-5.953974e-005,-4.171255e-005
-3.312309e-005,-7.840905e-006
-5.581224e-005,2.586868e-005
-9.357345e-005,5.228533e-005
-1.152902e-004,6.800567e-005
-1.042698e-004,7.497447e-005
-6.586029e-005,7.319175e-005
-2.307504e-005,6.395403e-005
5.124321e-006,4.547859e-005
1.144487e-005,2.246531e-005
1.072688e-006,4.638125e-006
-1.950961e-005,-8.720958e-007
-5.127441e-005,6.096713e-006
-9.892161e-005,2.246531e-005
-1.656925e-004,4.304760e-005
-2.434839e-004,5.747142e-005
-3.146305e-004,5.601283e-005
-3.627639e-004,3.948217e-005
-3.805911e-004,1.355172e-005
-3.554710e-004,-1.302699e-005
-2.784900e-004,-3.247483e-005
-1.564548e-004,-4.057810e-005
3.503668e-006,-3.928157e-005
2.057612e-004,-3.198863e-005
4.538833e-004,-2.453363e-005
7.363633e-004,-2.420950e-005
1.022571e-003,-3.344722e-005
1.277662e-003,-4.949169e-005
1.488996e-003,-6.974985e-005
1.649765e-003,-8.757703e-005
1.730312e-003,-9.811128e-005
1.695954e-003,-1.024870e-004
1.524974e-003,-1.076731e-004
1.221425e-003,-1.143178e-004
8.237166e-004,-1.141557e-004
3.846813e-004,-1.023250e-004
-4.544005e-005,-8.028410e-005
-4.476861e-004,-5.856734e-005
-8.204362e-004,-4.576419e-005
-1.153967e-003,-4.430560e-005
-1.422347e-003,-4.884343e-005
-1.587005e-003,-5.321919e-005
-1.619742e-003,-5.370539e-005
-1.525907e-003,-4.803310e-005
-1.349417e-003,-3.587821e-005
-1.154291e-003,-2.113026e-005
-9.948185e-004,-8.165034e-006
-9.048723e-004,4.638125e-006
-9.048723e-004,1.274139e-005
-9.949806e-004,1.241726e-005
-1.135977e-003,8.203561e-006
-1.256068e-003,1.371378e-005
-1.285402e-003,3.154097e-005
-1.192538e-003,5.844381e-005
-1.006325e-003,8.631904e-005
-7.847819e-004,1.060910e-004
-5.851174e-004,1.148425e-004
-4.339106e-004,1.153287e-004
-3.235441e-004,1.132219e-004
-2.335979e-004,1.119254e-004
-1.412206e-004,1.112771e-004
-2.291298e-005,1.107909e-004
1.378558e-004,1.070634e-004
3.417340e-004,9.766362e-005
5.786736e-004,8.307774e-005
8.227442e-004,6.622294e-005
1.038129e-003,5.309565e-005
1.188850e-003,4.904402e-005
1.255783e-003,5.633696e-005
1.245573e-003,7.270556e-005
1.183340e-003,9.199134e-005
1.099390e-003,1.060910e-004
1.020464e-003,1.081979e-004
9.608240e-004,1.018773e-004
9.199834e-004,9.523264e-005
8.896772e-004,9.296372e-005
8.580744e-004,9.636710e-005
8.154512e-004,1.025256e-004
7.569456e-004,1.036600e-004
6.846644e-004,9.458438e-005
6.065489e-004,7.610893e-005
5.402641e-004,5.374392e-005
4.994237e-004,3.607880e-005
4.924549e-004,2.359977e-005
5.203301e-004,1.744128e-005
5.838597e-004,1.792748e-005
6.801265e-004,2.197911e-005
7.960033e-004,2.846173e-005
9.057217e-004,3.575467e-005
9.848096e-004,4.207521e-005
1.016574e-003,4.029249e-005
1.001016e-003,3.235129e-005
9.488311e-004,2.522042e-005
8.846531e-004,2.538249e-005
8.344129e-004,3.186510e-005
8.002171e-004,4.013043e-005
7.645627e-004,4.596478e-005
6.981159e-004,4.547859e-005
5.775391e-004,4.045456e-005
3.897054e-004,3.575467e-005
1.427178e-004,3.316162e-005
-1.402483e-004,2.992031e-005
-4.369898e-004,2.846173e-005
-7.372968e-004,3.218923e-005
-1.018966e-003,3.640293e-005
-1.234027e-003,3.397195e-005
-1.330618e-003,2.700314e-005
-1.293343e-003,1.744128e-005
-1.152994e-003,5.448451e-006
-9.721293e-004,-9.137427e-006
-8.181673e-004,-2.161646e-005
-7.504240e-004,-2.971972e-005
-8.071469e-004,-3.069211e-005
-9.969254e-004,-2.664048e-005
-1.291560e-003,-2.161646e-005
-1.630277e-003,-1.983374e-005
-1.919401e-003,-2.372330e-005
-2.074822e-003,-2.955766e-005
-2.058777e-003,-3.101624e-005
-1.887312e-003,-2.647842e-005
-1.598674e-003,-1.950961e-005
-1.229813e-003,-1.399939e-005
-8.275671e-004,-1.237873e-005
-4.426621e-004,-1.237873e-005
-1.141557e-004,-1.562004e-005
1.490383e-004,-2.275091e-005
3.679886e-004,-2.988179e-005
5.764047e-004,-3.020592e-005
7.937344e-004,-1.999580e-005
1.014630e-003,-1.520357e-006
1.212512e-003,1.452411e-005
1.353833e-003,1.322759e-005
1.410880e-003,-8.813297e-006
1.379601e-003,-4.300908e-005
1.289493e-003,-7.266703e-005
1.188040e-003,-8.547019e-005
1.115434e-003,-7.752898e-005
1.081887e-003,-5.095028e-005
1.064060e-003,-1.286493e-005
1.023219e-003,3.056858e-005
9.254937e-004,7.173317e-005
7.718556e-004,1.038221e-004
5.956905e-004,1.253768e-004
4.318423e-004,1.359110e-004
3.151553e-004,1.373696e-004
2.663736e-004,1.312111e-004
2.397949e-004,1.203528e-004
1.253768e-004,1.107909e-004
-1.712027e-004,1.077117e-004
-6.230407e-004,1.159770e-004
-1.072772e-003,1.328318e-004
-1.332563e-003,1.506590e-004
-1.295125e-003,1.594105e-004
-9.849325e-004,1.540623e-004
-5.230465e-004,1.375317e-004
-4.900549e-005,1.137081e-004
3.240689e-004,8.599491e-005
5.493397e-004,5.406805e-005
6.289139e-004,1.565857e-005
5.820770e-004,-2.793700e-005
4.352457e-004,-7.153257e-005
2.044647e-004,-1.128592e-004
-9.438377e-005,-1.540238e-004
-4.073319e-004,-1.955125e-004
-6.664742e-004,-2.339220e-004
-8.228672e-004,-2.652006e-004
-8.572250e-004,-2.818933e-004
-7.758683e-004,-2.797865e-004
-6.071583e-004,-2.577456e-004
-3.974459e-004,-2.196603e-004
-1.927574e-004,-1.694200e-004
-1.594417e-005,-1.120489e-004
1.284560e-004,-4.997788e-005
2.399570e-004,1.338965e-005
3.195311e-004,7.610893e-005
3.684748e-004,1.427178e-004
3.916502e-004,2.117576e-004
3.898674e-004,2.769079e-004
3.626405e-004,3.311998e-004
3.051073e-004,3.713920e-004
2.065715e-004,4.012120e-004
6.314371e-005,4.187151e-004
-1.109144e-004,4.169323e-004
-2.895104e-004,3.914881e-004
-4.444448e-004,3.475684e-004
-5.619422e-004,2.940868e-004
-6.462161e-004,2.409294e-004
-7.126628e-004,1.927960e-004
-7.677650e-004,1.459591e-004
-8.032573e-004,1.009049e-004
-8.052021e-004,5.828174e-005
-7.609583e-004,2.149292e-005
-6.731189e-004,-7.030578e-006
-5.588629e-004,-3.134038e-005
-4.384484e-004,-5.613637e-005
-3.266234e-004,-8.498399e-005
-2.237119e-004,-1.173971e-004
-1.217728e-004,-1.467309e-004
-9.623623e-006,-1.658546e-004
1.137081e-004,-1.733096e-004
2.389846e-004,-1.718510e-004
3.521062e-004,-1.642339e-004
4.347596e-004,-1.551583e-004
4.843515e-004,-1.571030e-004
5.120648e-004,-1.765509e-004
5.405883e-004,-2.091260e-004
5.953663e-004,-2.418632e-004
7.080018e-004,-2.611490e-004
8.919461e-004,-2.627696e-004
1.125969e-003,-2.480217e-004
1.355616e-003,-2.191741e-004
1.518654e-003,-1.801163e-004
1.570028e-003,-1.334415e-004
1.505851e-003,-8.368747e-005
1.362260e-003,-3.166451e-005
1.192416e-003,1.663096e-005
1.036346e-003,5.698522e-005
9.258178e-004,8.323980e-005
8.733086e-004,1.012291e-004
8.593709e-004,1.158149e-004
8.558055e-004,1.300767e-004
8.460816e-004,1.407730e-004
8.345749e-004,1.445005e-004
8.305233e-004,1.420695e-004
8.339267e-004,1.381799e-004
8.253373e-004,1.352628e-004
7.710453e-004,1.344524e-004
6.342620e-004,1.333180e-004
3.921364e-004,1.315353e-004
2.684107e-005,1.286181e-004
-4.789647e-004,1.244044e-004
-1.106968e-003,1.187321e-004
-1.787156e-003,1.114392e-004
-2.394739e-003,1.020394e-004
-2.793259e-003,9.393611e-005
-2.887257e-003,8.583285e-005
-2.660365e-003,7.157111e-005
-2.190861e-003,5.163707e-005
-1.616663e-003,3.494434e-005
-1.096596e-003,2.943412e-005
-7.547998e-004,2.992031e-005
-6.347094e-004,1.614476e-005
-7.063423e-004,-2.728874e-005
-8.876934e-004,-9.632856e-005
-1.074230e-003,-1.689338e-004
-1.164825e-003,-2.230636e-004
-1.092220e-003,-2.465631e-004
-8.457184e-004,-2.370012e-004
-4.575721e-004,-1.992400e-004
1.241726e-005,-1.405724e-004
4.804620e-004,-6.926366e-005
8.580744e-004,8.041497e-006
1.091125e-003,8.129502e-005
1.168268e-003,1.448246e-004
1.119972e-003,1.957131e-004
9.963163e-004,2.349330e-004
8.392748e-004,2.624841e-004
6.785059e-004,2.801492e-004
5.295678e-004,2.890628e-004
3.997534e-004,2.913317e-004
2.895490e-004,2.906834e-004
2.049509e-004,2.927903e-004
1.547106e-004,2.963557e-004
1.291043e-004,2.957075e-004
9.037068e-005,2.856594e-004
-2.372330e-005,2.662116e-004
-2.588801e-004,2.357433e-004
-5.933827e-004,1.927960e-004
-9.295062e-004,1.376937e-004
-1.124309e-003,7.286762e-005
-1.064669e-003,2.855406e-006
-7.278970e-004,-6.456376e-005
-1.784957e-004,-1.206384e-004
4.558280e-004,-1.677994e-004
1.033591e-003,-2.139880e-004
1.452369e-003,-2.661730e-004
1.660461e-003,-3.209511e-004
1.655275e-003,-3.690844e-004
1.461445e-003,-3.992286e-004
1.127589e-003,-3.987424e-004
7.451148e-004,-3.637363e-004
4.467524e-004,-2.980999e-004
3.472442e-004,-2.165810e-004
4.764104e-004,-1.331174e-004
8.332784e-004,-5.143647e-005
1.395646e-003,2.927205e-005
2.028188e-003,1.114392e-004
2.440809e-003,1.939304e-004
2.343893e-003,2.684805e-004
1.604062e-003,3.310377e-004
2.973281e-004,3.819262e-004
-1.300960e-003,4.230909e-004
-2.807358e-003,4.503178e-004
-3.945547e-003,4.511281e-004
-4.531255e-003,4.175806e-004
-4.490091e-003,3.525924e-004
-3.875049e-003,2.696149e-004
-2.872185e-003,1.855030e-004
-1.739347e-003,1.114392e-004
-7.201179e-004,5.115087e-005
2.992031e-005,6.258778e-006
4.749518e-004,-2.728874e-005
6.770473e-004,-5.305713e-005
7.454389e-004,-7.412562e-005
7.859553e-004,-9.098041e-005
8.477023e-004,-1.094559e-004
9.259799e-004,-1.292278e-004
9.995577e-004,-1.439758e-004
1.061791e-003,-1.496480e-004
1.112517e-003,-1.506204e-004
1.141527e-003,-1.511066e-004
1.123538e-003,-1.556445e-004
1.039912e-003,-1.621271e-004
9.071802e-004,-1.613168e-004
7.582422e-004,-1.473791e-004
6.143280e-004,-1.173971e-004
4.743035e-004,-7.655659e-005
3.263378e-004,-3.279896e-005
1.587622e-004,3.341602e-006
-2.777494e-005,2.570661e-005
-2.191741e-004,3.380988e-005
-4.099249e-004,3.040651e-005
-6.056998e-004,1.954813e-005
-8.105503e-004,9.175954e-006
-1.026583e-003,1.883015e-006
-1.241806e-003,-6.176923e-008
-1.407923e-003,-7.100305e-007
-1.463187e-003,-7.100305e-007
-1.376320e-003,7.485573e-007
-1.155425e-003,-2.492749e-006
-8.371290e-004,-1.448558e-005
-4.695649e-004,-3.344722e-005
-9.243900e-005,-5.483985e-005
2.621599e-004,-7.250496e-005
5.616568e-004,-8.239095e-005
7.867657e-004,-8.579432e-005
9.321384e-004,-8.628051e-005
9.968025e-004,-8.449779e-005
9.945336e-004,-8.093235e-005
9.580688e-004,-7.169464e-005
9.186869e-004,-5.646050e-005
8.911358e-004,-4.090223e-005
8.754155e-004,-3.166451e-005
8.585606e-004,-3.166451e-005
8.126961e-004,-3.960571e-005
7.193464e-004,-4.495386e-005
5.926113e-004,-4.381940e-005
4.626348e-004,-3.555407e-005
3.585888e-004,-2.420950e-005
2.957075e-004,-1.189254e-005
2.726942e-004,1.002961e-007
2.825802e-004,7.717366e-006
3.167760e-004,1.209313e-005
3.621542e-004,1.744128e-005
4.068843e-004,2.619281e-005
4.456179e-004,3.737532e-005
4.746277e-004,4.774750e-005
4.903480e-004,5.423011e-005
4.979650e-004,5.633696e-005
5.073649e-004,5.293359e-005
5.221128e-004,4.807163e-005
5.368608e-004,4.628891e-005
5.358884e-004,4.969228e-005
5.049338e-004,5.779555e-005
4.504799e-004,7.173317e-005
3.890571e-004,8.907416e-005
3.367100e-004,1.073875e-004
3.041349e-004,1.224596e-004
2.903593e-004,1.349386e-004
2.866318e-004,1.428798e-004
2.788527e-004,1.459591e-004
2.566497e-004,1.461212e-004
2.162954e-004,1.469315e-004
1.670276e-004,1.500107e-004
1.164632e-004,1.553589e-004
6.638501e-005,1.597346e-004
4.313994e-006,1.613553e-004
-8.271508e-005,1.605450e-004
-1.961608e-004,1.587622e-004
-3.237062e-004,1.551968e-004
-4.540066e-004,1.492004e-004
-5.740970e-004,1.378558e-004
-6.747395e-004,1.211631e-004
-7.452379e-004,1.033359e-004
-7.693857e-004,8.810177e-005
-7.382691e-004,7.853991e-005
-6.588572e-004,7.221937e-005
-5.491390e-004,6.719534e-005
-4.285624e-004,5.795762e-005
-3.186821e-004,4.013043e-005
-2.387839e-004,1.338965e-005
-1.953505e-004,-1.788895e-005
-1.802784e-004,-4.203669e-005
-1.841679e-004,-4.851930e-005
-2.013469e-004,-3.474375e-005
-2.229016e-004,-8.002969e-006
-2.407287e-004,2.100672e-005
-2.514251e-004,4.774750e-005
-2.617972e-004,6.816773e-005
-2.812450e-004,8.016056e-005
-3.104168e-004,8.388807e-005
-3.402368e-004,8.032263e-005
-3.476918e-004,7.205730e-005
-3.130099e-004,6.265751e-005
-2.344082e-004,5.260946e-005
-1.361966e-004,4.596478e-005
-4.576419e-005,4.191315e-005
2.619281e-005,3.964423e-005
8.437427e-005,3.397195e-005
1.320215e-004,2.278944e-005
1.657311e-004,6.582909e-006
1.811273e-004,-9.461557e-006
1.720516e-004,-2.064406e-005
1.302387e-004,-2.566809e-005
5.698522e-005,-2.599222e-005
-3.960571e-005,-2.534396e-005
-1.477033e-004,-2.712668e-005
-2.595283e-004,-3.685059e-005
-3.708672e-004,-5.516398e-005
-4.697270e-004,-8.141856e-005
-5.407116e-004,-1.130213e-004
-5.682627e-004,-1.420310e-004
-5.415219e-004,-1.609926e-004
-4.587065e-004,-1.656925e-004
-3.295405e-004,-1.543479e-004
-1.744440e-004,-1.293899e-004
-2.258885e-005,-9.989400e-005
8.534666e-005,-7.655659e-005
1.227837e-004,-6.359137e-005
9.636710e-005,-6.018800e-005
4.045456e-005,-6.099833e-005
-1.010982e-005,-6.035006e-005
-4.333321e-005,-6.002593e-005
-7.493595e-005,-6.456376e-005
-1.334415e-004,-7.688072e-005
-2.355427e-004,-8.968388e-005
-3.833462e-004,-9.697682e-005
-5.651835e-004,-9.130454e-005
-7.437794e-004,-7.120844e-005
-8.509045e-004,-3.798505e-005
-8.108744e-004,2.207145e-006
-5.867381e-004,4.029249e-005
-2.172293e-004,7.108490e-005
1.914994e-004,9.426025e-005
5.227610e-004,1.081979e-004
7.011950e-004,1.130598e-004
7.115673e-004,1.166253e-004
5.921251e-004,1.237561e-004
4.222805e-004,1.333180e-004
2.692908e-004,1.402868e-004
1.769136e-004,1.391524e-004
1.511452e-004,1.331559e-004
1.829100e-004,1.265113e-004
2.448189e-004,1.266733e-004
2.809595e-004,1.362352e-004
2.341226e-004,1.493625e-004
7.610893e-005,1.618415e-004
-1.840059e-004,1.718895e-004
-5.052193e-004,1.788584e-004
-8.275671e-004,1.816135e-004
-1.078768e-003,1.791825e-004
-1.201290e-003,1.710792e-004
-1.169849e-003,1.577899e-004
-9.933600e-004,1.423936e-004
-7.189834e-004,1.300767e-004
-4.222419e-004,1.219734e-004
-1.634236e-004,1.158149e-004
4.304760e-005,1.091703e-004
2.137024e-004,9.944633e-005
3.665300e-004,8.469840e-005
5.101199e-004,6.687120e-005
6.413930e-004,4.839576e-005
7.490044e-004,3.089270e-005
8.138305e-004,1.355172e-005
8.222580e-004,-7.192643e-006
7.814175e-004,-2.939559e-005
7.204809e-004,-4.057810e-005
6.627856e-004,-4.041603e-005
6.114109e-004,-3.441962e-005
5.564707e-004,-2.728874e-005
4.914824e-004,-1.643037e-005
4.255218e-004,4.638125e-006
3.838710e-004,3.299956e-005
3.887330e-004,6.103685e-005
4.459420e-004,7.772959e-005
5.446399e-004,7.870197e-005
6.621373e-004,7.286762e-005
7.749348e-004,6.865393e-005
8.658536e-004,6.525056e-005
9.235489e-004,6.038860e-005
9.392693e-004,4.726130e-005
9.011839e-004,2.068259e-005
8.024860e-004,-1.853721e-005
6.480376e-004,-6.180866e-005
4.582590e-004,-9.568031e-005
2.697770e-004,-1.148040e-004
1.163011e-004,-1.195039e-004
8.041497e-006,-1.126972e-004
-6.748093e-005,-9.956987e-005
-1.149661e-004,-8.952182e-005
-1.083214e-004,-8.384953e-005
-6.176923e-008,-7.817725e-005
2.266676e-004,-6.910160e-005
5.358884e-004,-5.613637e-005
8.548331e-004,-3.976777e-005
1.127427e-003,-2.291298e-005
1.321258e-003,-1.092015e-005
1.385760e-003,-4.437533e-006
1.256269e-003,-4.761663e-006
9.126905e-004,-8.813297e-006
4.164462e-004,-1.318906e-005
-1.034594e-004,-1.610623e-005
-5.113778e-004,-1.740276e-005
-7.288694e-004,-1.772689e-005
-7.360002e-004,-2.031993e-005
-5.753936e-004,-2.647842e-005
-3.219235e-004,-3.377135e-005
-4.381940e-005,-4.284701e-005
2.049509e-004,-5.095028e-005
3.846813e-004,-5.176060e-005
4.606900e-004,-3.928157e-005
3.935950e-004,-2.096819e-005
1.592484e-004,-4.599598e-006
-2.697384e-004,5.286386e-006
-9.069791e-004,7.555300e-006
-1.710499e-003,2.045080e-006
-2.569932e-003,-6.868512e-006
-3.304900e-003,-1.594417e-005
-3.735834e-003,-2.291298e-005
-3.766464e-003,-2.631635e-005
-3.403598e-003,-2.161646e-005
-2.751608e-003,-4.923729e-006
-1.963645e-003,2.327564e-005
-1.188324e-003,5.909207e-005
-5.280705e-004,9.571883e-005
-2.583015e-005,1.265113e-004
3.297412e-004,1.441764e-004
5.742979e-004,1.449867e-004
7.319875e-004,1.325077e-004
8.123720e-004,1.140322e-004
8.348991e-004,9.879807e-005
8.238786e-004,9.231547e-005
7.956792e-004,9.215340e-005
7.598628e-004,9.636710e-005
7.253428e-004,1.039842e-004
7.000606e-004,1.150046e-004
6.838541e-004,1.232699e-004
6.679717e-004,1.232699e-004
6.434998e-004,1.140322e-004
6.122212e-004,9.814982e-005
5.848320e-004,7.935023e-005
5.644119e-004,6.735740e-005
5.418848e-004,6.411610e-005
5.093096e-004,6.751947e-005
4.697657e-004,7.221937e-005
4.300596e-004,6.800567e-005
4.046154e-004,5.001641e-005
4.047775e-004,2.716520e-005
4.219564e-004,1.144487e-005
4.409180e-004,8.041497e-006
4.496696e-004,2.100672e-005
4.496696e-004,4.499239e-005
4.474007e-004,7.108490e-005
4.631210e-004,8.988448e-005
5.166026e-004,9.507057e-005
6.047661e-004,8.307774e-005
7.024916e-004,6.379197e-005
7.846588e-004,4.628891e-005
8.439747e-004,3.462021e-005
8.809257e-004,2.910999e-005
8.955116e-004,2.570661e-005
8.927564e-004,2.116879e-005
8.759017e-004,1.582063e-005
8.524021e-004,8.689757e-006
8.224201e-004,1.072688e-006
7.739624e-004,-5.571990e-006
6.924436e-004,-7.840905e-006
5.650601e-004,-6.544382e-006
3.796573e-004,-8.165034e-006
1.318594e-004,-2.420950e-005
-1.750923e-004,-5.548810e-005
-5.212637e-004,-9.438377e-005
-8.635456e-004,-1.302002e-004
-1.150401e-003,-1.587237e-004
-1.347473e-003,-1.799543e-004
-1.469346e-003,-2.011848e-004
-1.577768e-003,-2.332737e-004
-1.747288e-003,-2.749245e-004
-2.029282e-003,-3.055549e-004
-2.405922e-003,-3.087962e-004
-2.775269e-003,-2.778417e-004
-2.997299e-003,-2.251705e-004
-2.964238e-003,-1.679614e-004
-2.645779e-003,-1.067007e-004
-2.099618e-003,-3.749886e-005
-1.441633e-003,4.110282e-005
-7.945058e-004,1.248906e-004
-2.480217e-004,2.049509e-004
1.592484e-004,2.694529e-004
4.329768e-004,3.125622e-004
6.041179e-004,3.367100e-004
7.102708e-004,3.457856e-004
7.867657e-004,3.438409e-004
8.627743e-004,3.376824e-004
9.449415e-004,3.358997e-004
1.027919e-003,3.407616e-004
1.107817e-003,3.449753e-004
1.183988e-003,3.371962e-004
1.250921e-003,3.130485e-004
1.295651e-003,2.764217e-004
1.310399e-003,2.386605e-004
1.299379e-003,2.041405e-004
1.273286e-003,1.675138e-004
1.237956e-003,1.253768e-004
1.192902e-003,8.161915e-005
1.135855e-003,4.466826e-005
1.055146e-003,1.825161e-005
9.342452e-004,-4.599598e-006
7.674798e-004,-2.712668e-005
5.687876e-004,-4.965375e-005
3.598853e-004,-6.845333e-005
1.543865e-004,-7.963584e-005
-4.446767e-005,-8.628051e-005
-2.436459e-004,-1.039456e-004
-4.415276e-004,-1.511066e-004
-6.321164e-004,-2.284118e-004
-8.066607e-004,-3.227338e-004
-9.455506e-004,-4.138144e-004
-1.019777e-003,-4.741028e-004
-9.953047e-004,-4.783164e-004
-8.497701e-004,-4.228901e-004
-5.843071e-004,-3.277578e-004
-2.363530e-004,-2.250084e-004
1.355869e-004,-1.387897e-004
4.611762e-004,-7.914964e-005
6.908229e-004,-4.284701e-005
8.060514e-004,-1.805102e-005
8.212855e-004,2.531276e-006
7.728280e-004,2.522042e-005
7.071915e-004,5.212327e-005
6.598684e-004,8.275361e-005
6.439860e-004,1.112771e-004
6.574374e-004,1.351007e-004
7.016812e-004,1.516314e-004
7.699108e-004,1.584381e-004
8.417058e-004,1.590864e-004
8.817360e-004,1.556830e-004
8.639088e-004,1.492004e-004
7.778521e-004,1.453108e-004
6.305345e-004,1.459591e-004
4.427008e-004,1.441764e-004
2.453051e-004,1.342904e-004
6.719534e-005,1.163011e-004
-8.222889e-005,9.361198e-005
-2.073433e-004,7.059870e-005
-3.215993e-004,5.147500e-005
-4.371519e-004,3.494434e-005
-5.540009e-004,1.582063e-005
-6.703638e-004,-1.367526e-005
-7.782993e-004,-5.467778e-005
-8.544700e-004,-1.023250e-004
-8.599802e-004,-1.433275e-004
-7.630652e-004,-1.634236e-004
-5.458976e-004,-1.535376e-004
-2.141500e-004,-1.204763e-004
1.809652e-004,-8.352540e-005
5.509604e-004,-5.613637e-005
8.203132e-004,-3.830918e-005
9.454277e-004,-2.048200e-005
9.261419e-004,1.720949e-006
7.969757e-004,2.554455e-005
6.204865e-004,4.564065e-005
4.642555e-004,5.585077e-005
3.663680e-004,5.568870e-005
3.308756e-004,5.050261e-005
3.329825e-004,4.175108e-005
3.370341e-004,3.380988e-005
3.158036e-004,2.748933e-005
2.652392e-004,2.197911e-005
1.887443e-004,1.225519e-005
8.875003e-005,-1.034161e-006
-3.247483e-005,-1.626830e-005
-1.736337e-004,-2.858526e-005
-3.219235e-004,-3.685059e-005
-4.379622e-004,-3.668853e-005
-4.752372e-004,-2.874733e-005
-4.162455e-004,-1.772689e-005
-2.737901e-004,5.864920e-007
-7.266703e-005,3.024445e-005
1.534141e-004,6.930219e-005
3.653956e-004,1.107909e-004
5.321608e-004,1.479039e-004
6.449584e-004,1.730240e-004
7.031398e-004,1.885823e-004
6.992503e-004,1.974959e-004
6.269691e-004,2.021958e-004
4.772207e-004,2.047888e-004
2.482223e-004,2.060853e-004
-5.678463e-005,2.091646e-004
-4.246728e-004,2.112714e-004
-8.235155e-004,2.120818e-004
-1.217496e-003,2.120818e-004
-1.582954e-003,2.127300e-004
-1.916646e-003,2.122438e-004
-2.212577e-003,2.052750e-004
-2.451138e-003,1.885823e-004
-2.611097e-003,1.683241e-004
-2.657447e-003,1.526038e-004
-2.569122e-003,1.449867e-004
-2.348713e-003,1.425557e-004
-2.027499e-003,1.420695e-004
-1.634490e-003,1.394765e-004
-1.172766e-003,1.247285e-004
-6.522125e-004,9.150514e-005
-1.258244e-004,3.850977e-005
3.106175e-004,-2.745081e-005
5.875872e-004,-9.389758e-005
6.708889e-004,-1.502963e-004
5.652222e-004,-1.961608e-004
3.214759e-004,-2.363530e-004
1.857574e-005,-2.750866e-004
-2.760590e-004,-3.044204e-004
-5.175362e-004,-3.117133e-004
-6.789533e-004,-2.924276e-004
-7.489654e-004,-2.501285e-004
-7.253040e-004,-1.906506e-004
-6.181788e-004,-1.172350e-004
-4.528722e-004,-3.474375e-005
-2.601766e-004,5.034054e-005
-6.618442e-005,1.282940e-004
1.101426e-004,1.978200e-004
2.658874e-004,2.642668e-004
4.125566e-004,3.307136e-004
5.569568e-004,3.906778e-004
6.924436e-004,4.378388e-004
8.007033e-004,4.665244e-004
8.648811e-004,4.760862e-004
8.877324e-004,4.655520e-004
8.652053e-004,4.328148e-004
7.919517e-004,3.793332e-004
6.712130e-004,3.112657e-004
5.284333e-004,2.391467e-004
3.981328e-004,1.718895e-004
3.222862e-004,1.109530e-004
3.300653e-004,4.742337e-005
4.175806e-004,-2.048200e-005
5.624671e-004,-8.854943e-005
7.386322e-004,-1.467309e-004
9.203076e-004,-1.885437e-004
1.077025e-003,-2.110708e-004
1.168106e-003,-2.201465e-004
1.158382e-003,-2.206326e-004
1.033916e-003,-2.154466e-004
8.232304e-004,-2.102605e-004
5.806184e-004,-2.070192e-004
3.723644e-004,-2.008607e-004
2.461155e-004,-1.869231e-004
2.135403e-004,-1.656925e-004
2.547049e-004,-1.384655e-004
3.303894e-004,-1.112386e-004
4.018603e-004,-8.822530e-005
4.409180e-004,-6.812920e-005
4.349216e-004,-5.176060e-005
3.906778e-004,-3.895744e-005
3.177483e-004,-2.890940e-005
2.321778e-004,-2.534396e-005
1.532520e-004,-3.312309e-005
9.442231e-005,-4.981582e-005
7.189524e-005,-6.618442e-005
1.031738e-004,-7.331529e-005
1.923098e-004,-6.748093e-005
3.180725e-004,-4.851930e-005
4.443214e-004,-2.518189e-005
5.422089e-004,-4.275467e-006
6.018489e-004,1.014835e-005
6.376654e-004,1.533444e-005
6.746163e-004,1.355172e-005
7.376598e-004,7.555300e-006
8.323060e-004,-3.303075e-006
9.394313e-004,-1.886135e-005
1.011713e-003,-3.604027e-005
9.925888e-004,-4.916756e-005
8.674742e-004,-5.500191e-005
6.755887e-004,-5.856734e-005
4.723587e-004,-6.504996e-005
2.934386e-004,-7.396355e-005
1.339663e-004,-8.255302e-005
-2.275091e-005,-8.757703e-005
-1.726613e-004,-8.838737e-005
-2.901587e-004,-8.676671e-005
-3.551468e-004,-8.320127e-005
-3.664914e-004,-7.444974e-005
-3.557951e-004,-5.581224e-005
-3.767015e-004,-3.004385e-005
-4.750752e-004,-2.330684e-006
-6.690673e-004,2.554455e-005
-9.317751e-004,4.839576e-005
-1.195131e-003,6.508849e-005
-1.387179e-003,7.627100e-005
-1.471615e-003,8.615698e-005
-1.456380e-003,9.750155e-005
-1.380048e-003,1.099806e-004
-1.279567e-003,1.187321e-004
-1.172766e-003,1.211631e-004
-1.056565e-003,1.180839e-004
-9.254545e-004,1.111150e-004
-7.883473e-004,1.051186e-004
-6.564262e-004,1.000946e-004
-5.295291e-004,9.328785e-005
-4.032802e-004,8.275361e-005
-2.812450e-004,6.573675e-005
-1.718510e-004,4.742337e-005
-7.704279e-005,3.316162e-005
7.231170e-006,2.538249e-005
8.226741e-005,2.214118e-005
1.522796e-004,2.181705e-005
2.161334e-004,2.311357e-005
2.670219e-004,2.667901e-005
3.023521e-004,2.959618e-005
3.229344e-004,2.992031e-005
3.305515e-004,2.878586e-005
3.355755e-004,2.748933e-005
3.482167e-004,2.554455e-005
3.726885e-004,1.679302e-005
4.198496e-004,2.045080e-006
4.913204e-004,-1.351319e-005
5.660325e-004,-2.323711e-005
6.097901e-004,-2.647842e-005
5.969870e-004,-2.955766e-005
5.272989e-004,-3.636440e-005
4.266563e-004,-4.430560e-005
3.221241e-004,-4.949169e-005
2.232642e-004,-4.851930e-005
1.240803e-004,-3.992984e-005
1.857574e-005,-2.275091e-005
-9.033214e-005,-1.682422e-006
-1.909747e-004,1.873781e-005
-2.614731e-004,3.624086e-005
-2.835140e-004,4.645098e-005
-2.496423e-004,4.953022e-005
-1.718510e-004,5.034054e-005
-5.062615e-005,4.807163e-005
1.240803e-004,3.980630e-005
3.660438e-004,2.392390e-005
6.875816e-004,4.800190e-006
1.076215e-003,-8.327101e-006
1.484782e-003,-1.237873e-005
1.833223e-003,-1.221667e-005
2.039857e-003,-1.383732e-005
2.059629e-003,-2.064406e-005
1.902587e-003,-2.631635e-005
1.574729e-003,-1.967167e-005
1.064870e-003,1.002961e-007
4.036430e-004,2.538249e-005
-2.825416e-004,4.709924e-005
-8.210845e-004,6.379197e-005
-1.079741e-003,8.080882e-005
-1.023342e-003,1.026876e-004
-7.450759e-004,1.257009e-004
-4.191626e-004,1.451487e-004
-1.919471e-004,1.608691e-004
-1.007043e-004,1.754550e-004
-8.579432e-005,1.897167e-004
-7.623246e-005,2.025199e-004
-6.180866e-005,2.140265e-004
-7.218083e-005,2.278021e-004
-1.407345e-004,2.457913e-004
-2.877277e-004,2.615117e-004
-5.079744e-004,2.686426e-004
-7.382691e-004,2.584324e-004
-9.076273e-004,2.308813e-004
-1.047166e-003,1.931201e-004
-1.302580e-003,1.514693e-004
-1.769005e-003,1.104668e-004
-2.378857e-003,7.351588e-005
-2.962131e-003,4.045456e-005
-3.342824e-003,9.986280e-006
-3.394199e-003,-2.372330e-005
-3.028578e-003,-6.099833e-005
-2.249853e-003,-9.681476e-005
-1.184921e-003,-1.219349e-004
-4.365734e-005,-1.313347e-004
9.604998e-004,-1.277692e-004
1.709891e-003,-1.164247e-004
2.190903e-003,-1.039456e-004
2.441781e-003,-9.470791e-005
2.524759e-003,-8.773910e-005
2.480353e-003,-7.850138e-005
2.316828e-003,-6.359137e-005
2.022678e-003,-4.219875e-005
1.586397e-003,-1.934754e-005
1.006364e-003,-4.599598e-006
3.149932e-004,-3.858999e-007
-4.284004e-004,-1.844488e-006
-1.158505e-003,-5.734055e-006
-1.824431e-003,-8.489165e-006
-2.390202e-003,-1.335112e-005
-2.806710e-003,-2.307504e-005
-2.985307e-003,-3.636440e-005
-2.853385e-003,-4.738484e-005
-2.393767e-003,-5.273300e-005
-1.670793e-003,-5.143647e-005
-8.160605e-004,-4.641245e-005
-1.844488e-006,-4.414354e-005
5.994180e-004,-4.722277e-005
8.809257e-004,-5.532604e-005
8.376542e-004,-6.132245e-005
5.574430e-004,-5.889147e-005
1.994406e-004,-4.868136e-005
-8.709084e-005,-3.928157e-005
-2.146362e-004,-3.522994e-005
-1.616409e-004,-3.377135e-005
5.050261e-005,-3.020592e-005
3.713920e-004,-2.291298e-005
7.363633e-004,-8.975361e-006
1.081887e-003,6.744974e-006
1.362260e-003,2.035846e-005
1.556253e-003,2.862379e-005
1.660785e-003,3.105477e-005
1.685906e-003,3.040651e-005
1.640203e-003,3.186510e-005
1.528378e-003,3.802358e-005
1.363071e-003,4.677511e-005
1.158706e-003,5.439218e-005
9.402416e-004,5.698522e-005
7.321496e-004,5.212327e-005
5.551741e-004,4.466826e-005
4.230909e-004,3.915804e-005
3.371962e-004,4.094075e-005
2.929523e-004,4.969228e-005
2.796630e-004,6.184718e-005
2.934386e-004,7.367795e-005
3.328204e-004,8.016056e-005
3.749574e-004,7.902610e-005
3.747953e-004,7.254349e-005
2.796630e-004,6.638501e-005
6.849186e-005,6.249544e-005
-2.355427e-004,6.200925e-005
-5.659938e-004,6.314371e-005
-8.312946e-004,5.990240e-005
-9.411749e-004,4.272347e-005
-8.481494e-004,1.176900e-005
-5.750695e-004,-2.437157e-005
-2.039399e-004,-5.646050e-005
1.618415e-004,-7.623246e-005
4.389732e-004,-8.077029e-005
5.934216e-004,-7.201877e-005
6.362069e-004,-4.576419e-005
6.024972e-004,-3.789271e-006
5.341056e-004,4.790957e-005
4.702519e-004,1.036600e-004
4.303838e-004,1.564933e-004
4.136910e-004,2.010613e-004
4.070464e-004,2.388225e-004
4.036430e-004,2.741528e-004
4.109359e-004,3.052693e-004
4.354078e-004,3.252033e-004
4.754380e-004,3.269861e-004
5.187094e-004,3.059176e-004
5.593878e-004,2.699391e-004
6.083316e-004,2.307192e-004
6.789921e-004,1.991165e-004
7.772038e-004,1.785342e-004
8.953495e-004,1.608691e-004
1.020788e-003,1.349386e-004
1.126131e-003,9.588090e-005
1.170537e-003,5.309565e-005
1.132937e-003,1.808955e-005
1.009606e-003,-4.761663e-006
7.989205e-004,-1.675450e-005
4.981271e-004,-2.372330e-005
1.206769e-004,-3.117831e-005
-2.893483e-004,-3.701266e-005
-6.740913e-004,-2.826113e-005
-9.872015e-004,-2.654814e-006
-1.209393e-003,3.202716e-005
-1.351362e-003,6.087479e-005
-1.434988e-003,7.578480e-005
-1.476152e-003,7.578480e-005
-1.475990e-003,5.844381e-005
-1.427209e-003,2.829966e-005
-1.327052e-003,-2.168618e-006
-1.183300e-003,-2.388537e-005
-1.017184e-003,-3.928157e-005
-8.534976e-004,-5.937767e-005
-7.108801e-004,-9.211487e-005
-5.941931e-004,-1.297140e-004
-5.040848e-004,-1.588858e-004
-4.369898e-004,-1.754164e-004
-3.822118e-004,-1.823852e-004
-3.297026e-004,-1.853024e-004
-2.752486e-004,-1.885437e-004
-2.212809e-004,-1.969711e-004
-1.741199e-004,-2.065330e-004
-1.387897e-004,-2.146362e-004
-1.133454e-004,-2.178775e-004
-8.903562e-005,-2.135018e-004
-5.646050e-005,-1.984297e-004
-1.416145e-005,-1.736337e-004
2.748933e-005,-1.415448e-004
5.795762e-005,-1.047560e-004
6.865393e-005,-7.023605e-005
5.795762e-005,-4.770897e-005
2.975825e-005,-4.090223e-005
-7.840905e-006,-4.284701e-005
-4.252288e-005,-4.333321e-005
-6.423963e-005,-3.749886e-005
-6.375343e-005,-2.728874e-005
-3.620233e-005,-1.270286e-005
1.598270e-005,4.800190e-006
8.291567e-005,1.889987e-005
1.511452e-004,2.684107e-005
2.034923e-004,2.975825e-005
2.302331e-004,3.445814e-005
2.299089e-004,4.807163e-005
2.166196e-004,7.270556e-005
2.164575e-004,1.022014e-004
2.456293e-004,1.295905e-004
3.012177e-004,1.474177e-004
3.665300e-004,1.495245e-004
4.217943e-004,1.386661e-004
4.498316e-004,1.245665e-004
4.412422e-004,1.138701e-004
4.088291e-004,1.080358e-004
3.673404e-004,1.085220e-004
3.260137e-004,1.141943e-004
2.840387e-004,1.208390e-004
2.354192e-004,1.260251e-004
1.795066e-004,1.300767e-004
1.271595e-004,1.300767e-004
8.486046e-005,1.237561e-004
5.439218e-005,1.094944e-004
3.494434e-005,9.166720e-005
2.133085e-005,7.335382e-005
5.286386e-006,5.795762e-005
-2.761287e-005,5.277152e-005
-9.956987e-005,5.957827e-005
-2.177155e-004,6.881599e-005
-3.716775e-004,6.719534e-005
-5.382806e-004,5.147500e-005
-6.808981e-004,2.246531e-005
-7.535032e-004,-1.351319e-005
-7.142835e-004,-4.803310e-005
-5.475183e-004,-7.072224e-005
-2.817312e-004,-7.688072e-005
1.403791e-005,-6.748093e-005
2.506533e-004,-4.770897e-005
3.649094e-004,-2.469570e-005
3.358997e-004,-1.520357e-006
1.858272e-004,1.630683e-005
-2.275091e-005,2.441009e-005
-2.104225e-004,2.489629e-005
-3.194925e-004,2.116879e-005
-3.413713e-004,1.744128e-005
-3.070135e-004,1.744128e-005
-2.511009e-004,1.727922e-005
-2.026434e-004,1.144487e-005
-1.814128e-004,-3.303075e-006
-1.992400e-004,-2.096819e-005
-2.541802e-004,-3.117831e-005
-3.225717e-004,-3.085418e-005
-3.765395e-004,-2.323711e-005
-4.073319e-004,-1.513384e-005
-4.206212e-004,-1.189254e-005
-4.181902e-004,-1.740276e-005
-3.917736e-004,-2.955766e-005
-3.220855e-004,-4.689864e-005
-1.776853e-004,-6.521203e-005
5.471631e-005,-7.623246e-005
3.195311e-004,-7.396355e-005
5.148199e-004,-5.565017e-005
5.415606e-004,-2.177852e-005
3.786849e-004,1.565857e-005
1.140322e-004,4.369587e-005
-1.258244e-004,5.666109e-005
-2.502906e-004,5.585077e-005
-2.418632e-004,5.050261e-005
-1.447861e-004,5.115087e-005
-2.372330e-005,5.714729e-005
6.995045e-005,6.589881e-005
1.163011e-004,7.351588e-005
1.253768e-004,7.886404e-005
1.216493e-004,7.740545e-005
1.261871e-004,6.962632e-005
1.485521e-004,6.022653e-005
1.728619e-004,5.277152e-005
1.696206e-004,5.001641e-005
1.153287e-004,5.244739e-005
1.031041e-005,5.860587e-005
-1.222590e-004,6.330577e-005
-2.460769e-004,6.589881e-005
-3.217614e-004,6.427816e-005
-3.222476e-004,5.747142e-005
-2.431597e-004,4.466826e-005
-1.000561e-004,2.894792e-005
6.687120e-005,1.031041e-005
2.203471e-004,-1.173047e-005
3.294171e-004,-3.393342e-005
3.832228e-004,-5.111234e-005
3.875985e-004,-6.164659e-005
3.581026e-004,-6.683268e-005
3.073762e-004,-6.699474e-005
2.534084e-004,-6.375343e-005
2.172678e-004,-5.791909e-005
2.115955e-004,-4.965375e-005
2.365536e-004,-3.069211e-005
2.851732e-004,4.638125e-006
3.517821e-004,4.936815e-005
4.282769e-004,9.118101e-005
5.195197e-004,1.190562e-004
6.362069e-004,1.307249e-004
7.885484e-004,1.297525e-004
9.859441e-004,1.229458e-004
1.217212e-003,1.151667e-004
1.440052e-003,1.062531e-004
1.606493e-003,9.604297e-005
1.684123e-003,9.182927e-005
1.660785e-003,9.798775e-005
1.546205e-003,1.111150e-004
1.366474e-003,1.276457e-004
1.147199e-003,1.404489e-004
9.149594e-004,1.425557e-004
6.919574e-004,1.315353e-004
4.888894e-004,1.119254e-004
2.934386e-004,9.458438e-005
7.789165e-005,8.405013e-005
-1.891920e-004,8.421220e-005
-5.180224e-004,9.766362e-005
-8.966069e-004,1.141943e-004
-1.312142e-003,1.248906e-004
-1.757174e-003,1.300767e-004
-2.212902e-003,1.346145e-004
-2.634272e-003,1.427178e-004
-2.953866e-003,1.532520e-004
-3.087894e-003,1.631380e-004
-2.965048e-003,1.665414e-004
-2.571877e-003,1.582760e-004
-1.960566e-003,1.347766e-004
-1.225924e-003,9.944633e-005
-4.718338e-004,6.508849e-005
2.185644e-004,3.737532e-005
8.096169e-004,1.630683e-005
1.296948e-003,-7.192643e-006
1.663703e-003,-4.106429e-005
1.873578e-003,-8.644258e-005
1.894160e-003,-1.441378e-004
1.731284e-003,-2.135018e-004
1.427897e-003,-2.891863e-004
1.038615e-003,-3.585502e-004
6.083316e-004,-4.121938e-004
1.688103e-004,-4.361795e-004
-2.540181e-004,-4.225660e-004
-6.343853e-004,-3.720016e-004
-9.481437e-004,-2.935620e-004
-1.197400e-003,-2.019951e-004
-1.401116e-003,-1.086455e-004
-1.561723e-003,-2.242678e-005
-1.660421e-003,5.763348e-005
-1.669172e-003,1.359110e-004
-1.573392e-003,2.120818e-004
-1.375024e-003,2.845250e-004
-1.094813e-003,3.534027e-004
-7.598238e-004,4.170944e-004
-3.985803e-004,4.710622e-004
-4.916756e-005,5.086614e-004
2.519498e-004,5.195197e-004
4.900239e-004,4.956961e-004
6.810990e-004,4.405939e-004
8.486747e-004,3.650714e-004
1.010092e-003,2.803112e-004
1.168430e-003,1.945787e-004
1.312506e-003,1.184080e-004
1.414445e-003,6.508849e-005
1.452531e-003,3.964423e-005
1.427897e-003,3.202716e-005
1.359019e-003,2.457216e-005
1.270693e-003,4.313994e-006
1.180423e-003,-2.275091e-005
1.103766e-003,-4.462973e-005
1.065032e-003,-5.743289e-005
1.079780e-003,-5.921561e-005
1.132451e-003,-5.597430e-005
1.177181e-003,-5.824321e-005
1.154330e-003,-6.618442e-005
1.033105e-003,-7.185670e-005
8.332784e-004,-6.780506e-005
6.010386e-004,-5.370539e-005
3.730126e-004,-3.571614e-005
1.628139e-004,-1.934754e-005
-3.150244e-005,-7.516774e-006
-2.183637e-004,-2.168618e-006
-3.961493e-004,-2.492749e-006
-5.332566e-004,-1.318906e-005
-5.847933e-004,-3.182657e-005
-5.322842e-004,-5.289506e-005
-4.074939e-004,-6.958779e-005
-2.566112e-004,-7.898758e-005
-1.190177e-004,-8.838737e-005
-1.837515e-005,-1.102662e-004
3.721326e-005,-1.596961e-004
5.034054e-005,-2.386219e-004
3.543053e-005,-3.352128e-004
1.290346e-005,-4.311554e-004
-1.034161e-006,-4.995470e-004
3.827798e-006,-5.141328e-004
3.137890e-005,-4.645409e-004
7.465034e-005,-3.671397e-004
1.235941e-004,-2.533698e-004
1.757791e-004,-1.517549e-004
2.355812e-004,-7.817725e-005
3.057555e-004,-3.847125e-005
3.905157e-004,-2.809907e-005
4.890515e-004,-3.685059e-005
5.768909e-004,-4.868136e-005
6.122212e-004,-4.949169e-005
5.407503e-004,-3.668853e-005
3.232586e-004,-1.513384e-005
-5.321919e-005,1.112074e-005
-5.640490e-004,3.591673e-005
-1.151860e-003,5.374392e-005
-1.730271e-003,6.281957e-005
-2.190861e-003,6.622294e-005
-2.431366e-003,6.800567e-005
-2.398629e-003,7.286762e-005
-2.112583e-003,8.048469e-005
-1.653614e-003,8.956035e-005
-1.123336e-003,9.782569e-005
-6.181788e-004,1.020394e-004
-2.083157e-004,9.944633e-005
8.032263e-005,9.150514e-005
2.598910e-004,7.902610e-005
3.571302e-004,6.184718e-005
3.987810e-004,3.996836e-005
4.114221e-004,1.744128e-005
4.175806e-004,7.485573e-007
4.109359e-004,-5.734055e-006
3.699334e-004,-2.006553e-006
2.713976e-004,6.582909e-006
1.128978e-004,1.403791e-005
-8.320127e-005,1.679302e-005
-2.796244e-004,1.744128e-005
-4.400690e-004,1.841368e-005
-5.478425e-004,2.197911e-005
-5.977585e-004,3.672705e-005
-6.005137e-004,6.330577e-005
-5.749073e-004,9.571883e-005
-5.371462e-004,1.226217e-004
-5.008435e-004,1.399627e-004
-4.742648e-004,1.498487e-004
-4.612996e-004,1.576278e-004
-4.564376e-004,1.608691e-004
-4.475240e-004,1.564933e-004
-4.196488e-004,1.427178e-004
-3.538503e-004,1.200286e-004
-2.319772e-004,9.231547e-005
-5.078821e-005,6.800567e-005
1.833962e-004,5.730935e-005
4.538833e-004,6.589881e-005
7.292324e-004,9.231547e-005
9.616343e-004,1.312111e-004
1.116083e-003,1.725378e-004
1.198250e-003,2.054371e-004
1.224018e-003,2.231022e-004
1.172806e-003,2.252090e-004
1.012847e-003,2.187264e-004
7.397666e-004,2.090025e-004
4.012120e-004,2.081922e-004
7.481241e-005,2.203471e-004
-1.677994e-004,2.393087e-004
-2.909690e-004,2.521119e-004
-2.943724e-004,2.470879e-004
-2.086398e-004,2.206712e-004
-7.590833e-005,1.778859e-004
6.622294e-005,1.355869e-004
1.950649e-004,1.044704e-004
3.101313e-004,8.842590e-005
4.417284e-004,8.599491e-005
6.264829e-004,9.555677e-005
8.767120e-004,1.111150e-004
1.163244e-003,1.229458e-004
1.423845e-003,1.177597e-004
1.594014e-003,9.069480e-005
1.621890e-003,4.774750e-005
1.493533e-003,3.665733e-006
1.247842e-003,-3.101624e-005
9.486690e-004,-5.030201e-005
6.384758e-004,-4.754691e-005
3.316860e-004,-2.388537e-005
1.711715e-005,8.851824e-006
-3.002067e-004,3.818564e-005
-5.823624e-004,5.811968e-005
-7.873749e-004,6.638501e-005
-8.842900e-004,6.217131e-005
-8.784556e-004,4.645098e-005
-8.053642e-004,2.538249e-005
-7.134731e-004,7.879431e-006
-6.426506e-004,1.234753e-006
-6.063480e-004,4.962256e-006
-5.959758e-004,8.365628e-006
-5.982447e-004,-8.165034e-006
-6.024585e-004,-5.743289e-005
-6.134789e-004,-1.370070e-004
-6.416783e-004,-2.280877e-004
-6.953219e-004,-3.040963e-004
-7.812164e-004,-3.459091e-004
-8.893140e-004,-3.502849e-004
-9.893083e-004,-3.256510e-004
-1.040359e-003,-2.828657e-004
-1.027232e-003,-2.329496e-004
-9.633778e-004,-1.765509e-004
-8.826694e-004,-1.105903e-004
-8.035815e-004,-3.830918e-005
-7.194696e-004,3.397195e-005
-5.990550e-004,9.944633e-005
-4.160834e-004,1.558451e-004
-1.771991e-004,2.025199e-004
6.525056e-005,2.342847e-004
2.581083e-004,2.456293e-004
3.825745e-004,2.341226e-004
4.443214e-004,2.018716e-004
4.572866e-004,1.600588e-004
4.354078e-004,1.282940e-004
3.940811e-004,1.109530e-004
3.568061e-004,1.028497e-004
3.628025e-004,9.118101e-005
4.454558e-004,7.043664e-005
6.003904e-004,4.126489e-005
7.943827e-004,8.203561e-006
9.710341e-004,-1.740276e-005
1.074918e-003,-3.069211e-005
1.087397e-003,-3.166451e-005
1.023705e-003,-2.339917e-005
9.203076e-004,-1.399939e-005
8.180442e-004,-1.027188e-005
7.410632e-004,-1.173047e-005
6.904988e-004,-1.205460e-005
6.490100e-004,-8.327101e-006
6.013628e-004,9.106226e-007
5.493397e-004,1.160693e-005
5.076890e-004,1.711715e-005
4.924549e-004,1.209313e-005
5.120648e-004,-2.654814e-006
5.666808e-004,-2.194059e-005
6.418792e-004,-3.668853e-005
7.188602e-004,-4.122636e-005
7.746107e-004,-3.490581e-005
7.856312e-004,-2.242678e-005
7.433321e-004,-1.205460e-005
6.524133e-004,-4.113402e-006
5.266506e-004,1.002961e-007
3.882468e-004,-8.720958e-007
2.456293e-004,-5.734055e-006
1.106288e-004,-9.785687e-006
2.207145e-006,-1.221667e-005
-6.521203e-005,-1.335112e-005
-9.389758e-005,-1.740276e-005
-9.956987e-005,-2.955766e-005
-1.065387e-004,-4.819516e-005
-1.522411e-004,-7.347736e-005
-3.131719e-004,-9.551824e-005
-6.512401e-004,-1.058904e-004
-1.134519e-003,-1.021629e-004
-1.647618e-003,-8.871149e-005
-2.085680e-003,-7.007398e-005
-2.391984e-003,-5.192267e-005
-2.535898e-003,-4.365734e-005
-2.497975e-003,-4.868136e-005
-2.267842e-003,-5.889147e-005
-1.876130e-003,-6.407756e-005
-1.392851e-003,-5.678463e-005
-9.045481e-004,-3.636440e-005
-4.961436e-004,-1.416145e-005
-2.348944e-004,-5.571990e-006
-1.590478e-004,-1.416145e-005
-2.519113e-004,-3.134038e-005
-4.483344e-004,-4.657451e-005
-6.567503e-004,-5.500191e-005
-7.990436e-004,-5.192267e-005
-8.452322e-004,-4.479180e-005
-8.105503e-004,-3.895744e-005
-7.301659e-004,-3.425755e-005
-6.251476e-004,-2.761287e-005
-4.869059e-004,-1.513384e-005
-3.133340e-004,5.124321e-006
-1.065387e-004,2.781346e-005
1.333180e-004,4.337174e-005
4.046154e-004,4.466826e-005
6.947124e-004,3.688912e-005
