1.786548e-003,6.684579e-004
1.882491e-003,6.601926e-004
1.842623e-003,6.096281e-004
1.704867e-003,5.247058e-004
1.539884e-003,4.263321e-004
1.416066e-003,3.360618e-004
1.370039e-003,2.637806e-004
1.385274e-003,2.083542e-004
1.379115e-003,1.634621e-004
1.243790e-003,1.211631e-004
9.044252e-004,7.627100e-005
3.769022e-004,2.343770e-005
-2.314910e-004,-3.685059e-005
-7.821888e-004,-9.940780e-005
-1.206314e-003,-1.559686e-004
-1.523314e-003,-2.066950e-004
-1.797366e-003,-2.528836e-004
-2.072553e-003,-2.909690e-004
-2.318893e-003,-3.157650e-004
-2.409325e-003,-3.248406e-004
-2.181947e-003,-3.188442e-004
-1.522179e-003,-3.027998e-004
-4.925782e-004,-2.831898e-004
5.666808e-004,-2.572594e-004
1.194847e-003,-2.182017e-004
1.159678e-003,-1.669890e-004
5.968249e-004,-1.188556e-004
-1.010285e-004,-9.260106e-005
-5.732867e-004,-9.762508e-005
-7.230350e-004,-1.308485e-004
-6.557779e-004,-1.762267e-004
-5.181845e-004,-2.146362e-004
-3.989045e-004,-2.298704e-004
-3.130099e-004,-2.154466e-004
-2.438080e-004,-1.762267e-004
-1.760647e-004,-1.282554e-004
-1.062145e-004,-9.146661e-005
-3.798505e-005,-7.558420e-005
2.165498e-005,-7.412562e-005
6.071273e-005,-7.817725e-005
7.384001e-005,-8.158062e-005
6.168512e-005,-8.125648e-005
3.867184e-005,-8.255302e-005
2.278944e-005,-9.162867e-005
1.322759e-005,-1.054042e-004
8.041497e-006,-1.162626e-004
9.175954e-006,-1.225831e-004
4.244267e-007,-1.277692e-004
-4.430560e-005,-1.336036e-004
-1.344139e-004,-1.352242e-004
-2.489941e-004,-1.263107e-004
-3.399127e-004,-1.045939e-004
-3.604950e-004,-7.137050e-005
-2.814071e-004,-3.231276e-005
-9.535618e-005,4.151929e-006
1.866375e-004,3.121684e-005
5.464226e-004,4.596478e-005
9.684410e-004,4.531652e-005
1.464848e-003,3.478227e-005
2.104035e-003,2.554455e-005
2.972710e-003,2.116879e-005
4.090971e-003,1.808955e-005
4.958843e-003,7.717366e-006
4.959005e-003,-1.010982e-005
4.958843e-003,-3.085418e-005
4.959167e-003,-4.932962e-005
4.958843e-003,-6.537409e-005
4.958843e-003,-7.882551e-005
2.659274e-003,-8.773910e-005
-3.553089e-004,-8.158062e-005
-3.257739e-003,-5.338126e-005
-4.968349e-003,-1.520357e-006
-4.968349e-003,6.281957e-005
-4.968511e-003,1.206769e-004
-4.968349e-003,1.504969e-004
-4.968349e-003,1.457970e-004
-4.968349e-003,1.163011e-004
-4.694295e-003,7.691926e-005
-4.043760e-003,4.013043e-005
-3.353034e-003,1.160693e-005
-2.644482e-003,-9.947754e-006
-2.049702e-003,-2.761287e-005
-1.702558e-003,-4.252288e-005
-1.622984e-003,-6.148453e-005
-1.713416e-003,-9.568031e-005
-1.871754e-003,-1.431654e-004
-2.037061e-003,-1.945401e-004
-2.221005e-003,-2.350565e-004
-2.473990e-003,-2.549905e-004
-2.796986e-003,-2.486699e-004
-3.121928e-003,-2.160948e-004
-3.352224e-003,-1.630995e-004
-3.418995e-003,-1.024870e-004
-3.310086e-003,-4.462973e-005
-3.057750e-003,6.582909e-006
-2.689537e-003,4.904402e-005
-2.208202e-003,8.680524e-005
-1.593164e-003,1.231079e-004
-8.199500e-004,1.615174e-004
1.154908e-004,2.020337e-004
1.143634e-003,2.410914e-004
2.143580e-003,2.715597e-004
2.994265e-003,2.879283e-004
3.620491e-003,2.877662e-004
4.009127e-003,2.717218e-004
4.179298e-003,2.436845e-004
4.158553e-003,2.109473e-004
3.966665e-003,1.790204e-004
3.614332e-003,1.550348e-004
3.126998e-003,1.456350e-004
2.562358e-003,1.539003e-004
2.029161e-003,1.775618e-004
1.651061e-003,2.080301e-004
1.497099e-003,2.362295e-004
1.538588e-003,2.511395e-004
1.666620e-003,2.501671e-004
1.758835e-003,2.414156e-004
1.759321e-003,2.346088e-004
1.688985e-003,2.347709e-004
1.584614e-003,2.414156e-004
1.457069e-003,2.530843e-004
1.298082e-003,2.684805e-004
1.083508e-003,2.803112e-004
7.950310e-004,2.846870e-004
4.718725e-004,2.816078e-004
2.021958e-004,2.756114e-004
7.935023e-005,2.696149e-004
1.454729e-004,2.624841e-004
3.613439e-004,2.480603e-004
6.378275e-004,2.167816e-004
8.830325e-004,1.626518e-004
1.045098e-003,8.599491e-005
1.114462e-003,-3.303075e-006
1.108952e-003,-8.725291e-005
1.059036e-003,-1.480274e-004
9.891854e-004,-1.780095e-004
9.131767e-004,-1.760647e-004
8.444610e-004,-1.536997e-004
7.960033e-004,-1.240417e-004
7.762313e-004,-9.827335e-005
7.783382e-004,-8.255302e-005
7.955172e-004,-7.363942e-005
8.235545e-004,-6.877746e-005
8.564538e-004,-6.310517e-005
8.908117e-004,-5.338126e-005
9.305177e-004,-3.895744e-005
9.797856e-004,-2.226472e-005
1.023868e-003,-3.627206e-006
1.021436e-003,1.436204e-005
9.263040e-004,2.797553e-005
7.127018e-004,3.137890e-005
3.752816e-004,2.311357e-005
-6.537409e-005,4.638125e-006
-5.668041e-004,-1.464765e-005
-1.047652e-003,-2.404744e-005
-1.387179e-003,-2.258885e-005
-1.501759e-003,-1.788895e-005
-1.436284e-003,-2.064406e-005
-1.334507e-003,-3.117831e-005
-1.334507e-003,-4.446767e-005
-1.498031e-003,-6.051213e-005
-1.805956e-003,-8.384953e-005
-2.161203e-003,-1.144799e-004
-2.374481e-003,-1.426792e-004
-2.231377e-003,-1.624512e-004
-1.617960e-003,-1.720131e-004
-6.154237e-004,-1.763888e-004
5.342677e-004,-1.846541e-004
1.553660e-003,-1.998883e-004
2.271936e-003,-2.217671e-004
2.507742e-003,-2.528836e-004
2.096418e-003,-2.909690e-004
1.073784e-003,-3.287302e-004
-2.564491e-004,-3.570916e-004
-1.414081e-003,-3.637363e-004
-2.028471e-003,-3.455850e-004
-1.951004e-003,-3.089582e-004
-1.304039e-003,-2.592042e-004
-4.123559e-004,-1.977814e-004
3.512959e-004,-1.290658e-004
7.347426e-004,-5.905355e-005
7.078398e-004,1.558884e-006
3.796573e-004,3.818564e-005
-7.655659e-005,4.466826e-005
-4.938747e-004,3.024445e-005
-7.713305e-004,1.095867e-005
-8.891519e-004,6.096713e-006
-9.047101e-004,2.684107e-005
-9.118411e-004,7.448828e-005
-9.765051e-004,1.376937e-004
-1.095785e-003,2.013854e-004
-1.211986e-003,2.488706e-004
-1.267088e-003,2.739907e-004
-1.247478e-003,2.757734e-004
-1.164015e-003,2.639427e-004
-9.943324e-004,2.496809e-004
-6.776568e-004,2.449810e-004
-1.405724e-004,2.527601e-004
6.720233e-004,2.650771e-004
1.676506e-003,2.696149e-004
2.625726e-003,2.581083e-004
3.231692e-003,2.287745e-004
3.244982e-003,1.819376e-004
2.484891e-003,1.239182e-004
9.810821e-004,6.703327e-005
-9.327475e-004,2.457216e-005
-2.616283e-003,6.096713e-006
-3.638432e-003,1.209313e-005
-3.848794e-003,3.996836e-005
-3.357410e-003,7.999850e-005
-2.445142e-003,1.182459e-004
-1.430774e-003,1.493625e-004
-5.621042e-004,1.735102e-004
2.910999e-005,1.861513e-004
3.308756e-004,1.817755e-004
4.093153e-004,1.551968e-004
3.618301e-004,1.098185e-004
2.650771e-004,5.909207e-005
1.566554e-004,1.209313e-005
4.272347e-005,-2.469570e-005
-6.310517e-005,-5.013995e-005
-1.287416e-004,-6.440169e-005
-1.172350e-004,-6.472583e-005
-3.231276e-005,-5.419158e-005
8.291567e-005,-3.490581e-005
1.712413e-004,-7.516774e-006
1.840444e-004,2.538249e-005
9.539470e-005,5.212327e-005
-8.206682e-005,6.784360e-005
-3.102547e-004,7.140904e-005
-5.510838e-004,6.379197e-005
-7.826751e-004,4.661304e-005
-9.855808e-004,2.019640e-005
-1.120257e-003,-1.367526e-005
-1.142946e-003,-5.030201e-005
-1.024639e-003,-8.417366e-005
-7.523688e-004,-1.097800e-004
-3.361852e-004,-1.220969e-004
1.837203e-004,-1.196660e-004
7.256669e-004,-1.050801e-004
1.185447e-003,-8.433573e-005
1.477165e-003,-6.472583e-005
1.569866e-003,-5.159854e-005
1.506013e-003,-4.057810e-005
1.377657e-003,-2.453363e-005
1.278797e-003,1.396819e-006
1.271017e-003,3.980630e-005
1.369553e-003,8.567078e-005
1.553660e-003,1.333180e-004
1.786386e-003,1.749688e-004
2.048609e-003,1.986303e-004
2.335952e-003,2.039785e-004
2.583427e-003,2.007372e-004
2.633667e-003,1.953890e-004
2.295922e-003,1.887443e-004
1.468413e-003,1.692965e-004
1.592484e-004,1.235941e-004
-1.488145e-003,5.536457e-005
-3.179786e-003,-7.354708e-006
-4.569179e-003,-3.393342e-005
-4.968187e-003,-1.562004e-005
-4.968349e-003,3.478227e-005
-4.178112e-003,9.960840e-005
-2.762142e-003,1.605450e-004
-1.307280e-003,2.043026e-004
-1.533756e-004,2.326641e-004
5.219507e-004,2.529222e-004
7.577559e-004,2.689667e-004
7.261531e-004,2.777182e-004
6.133557e-004,2.730183e-004
5.503122e-004,2.521119e-004
5.958526e-004,2.161334e-004
7.451148e-004,1.735102e-004
9.489931e-004,1.315353e-004
1.152872e-003,9.733949e-005
1.317530e-003,7.740545e-005
1.416390e-003,7.400208e-005
1.436000e-003,8.129502e-005
1.379439e-003,8.664317e-005
1.262266e-003,8.275361e-005
1.102793e-003,6.606088e-005
9.214421e-004,4.256141e-005
7.402528e-004,2.165498e-005
5.927733e-004,8.851824e-006
5.174129e-004,3.179537e-006
5.433434e-004,5.610517e-006
6.519272e-004,2.003433e-005
7.914655e-004,4.953022e-005
9.156077e-004,8.502253e-005
1.000692e-003,1.124116e-004
1.043315e-003,1.221355e-004
1.043153e-003,1.106288e-004
9.974508e-004,7.967437e-005
9.050734e-004,3.818564e-005
7.744486e-004,-6.868512e-006
6.264829e-004,-5.419158e-005
4.895377e-004,-1.091317e-004
3.947294e-004,-1.707165e-004
3.624784e-004,-2.300324e-004
3.981328e-004,-2.797865e-004
4.833791e-004,-3.104168e-004
5.728393e-004,-3.170615e-004
6.381517e-004,-2.953447e-004
6.916332e-004,-2.485079e-004
7.733142e-004,-1.898402e-004
9.144733e-004,-1.352242e-004
1.115110e-003,-9.551824e-005
1.351564e-003,-8.012203e-005
1.527405e-003,-8.790116e-005
1.434704e-003,-1.112386e-004
8.776843e-004,-1.417068e-004
-1.640719e-004,-1.677994e-004
-1.464484e-003,-1.818990e-004
-2.711253e-003,-1.901644e-004
-3.686566e-003,-2.026434e-004
-4.290911e-003,-2.229016e-004
-4.515697e-003,-2.481837e-004
-4.424130e-003,-2.716832e-004
-4.141324e-003,-2.891863e-004
-3.787047e-003,-2.950206e-004
-3.404247e-003,-2.823795e-004
-2.947545e-003,-2.501285e-004
-2.342068e-003,-2.029675e-004
-1.569664e-003,-1.520790e-004
-7.170386e-004,-1.083214e-004
5.212327e-005,-7.688072e-005
5.982835e-004,-5.856734e-005
9.066940e-004,-5.095028e-005
1.081725e-003,-4.527799e-005
1.246546e-003,-3.166451e-005
1.446210e-003,-7.192643e-006
1.656572e-003,2.684107e-005
1.848944e-003,6.573675e-005
2.003554e-003,1.065772e-004
2.092042e-003,1.443384e-004
2.080860e-003,1.749688e-004
1.979893e-003,2.012234e-004
1.819934e-003,2.260194e-004
1.609248e-003,2.466016e-004
1.330658e-003,2.579462e-004
9.587171e-004,2.600531e-004
5.059062e-004,2.504912e-004
4.304760e-005,2.258573e-004
-3.442885e-004,1.830720e-004
-6.159099e-004,1.281319e-004
-7.868887e-004,6.978838e-005
-9.071411e-004,1.549650e-005
-1.017021e-003,-2.826113e-005
-1.114261e-003,-6.472583e-005
-1.167742e-003,-8.935975e-005
-1.139705e-003,-9.778715e-005
-1.018804e-003,-8.854943e-005
-8.285395e-004,-6.488790e-005
-6.241752e-004,-3.652646e-005
-4.728062e-004,-1.092015e-005
-4.118697e-004,1.079661e-005
-4.262935e-004,3.705119e-005
-4.716718e-004,8.567078e-005
-5.082985e-004,1.537382e-004
-5.340669e-004,2.271538e-004
-5.703695e-004,2.887386e-004
-6.178546e-004,3.240689e-004
-6.376266e-004,3.277964e-004
-5.859278e-004,2.984626e-004
-4.489826e-004,2.440086e-004
-2.109087e-004,1.816135e-004
1.824238e-004,1.300767e-004
7.862794e-004,9.814982e-005
1.633072e-003,8.615698e-005
2.717942e-003,8.939829e-005
3.899408e-003,9.993253e-005
4.893368e-003,1.132219e-004
4.959005e-003,1.245665e-004
4.958681e-003,1.263492e-004
4.024524e-003,1.138701e-004
2.566896e-003,8.891209e-005
9.695755e-004,5.747142e-005
-4.460654e-004,2.781346e-005
-1.385396e-003,3.341602e-006
-1.745019e-003,-1.448558e-005
-1.605156e-003,-2.534396e-005
-1.173415e-003,-2.826113e-005
-6.817084e-004,-2.372330e-005
-2.984240e-004,-1.124428e-005
-9.892161e-005,1.112074e-005
-7.817725e-005,4.337174e-005
-1.867610e-004,7.675719e-005
-3.600088e-004,9.701536e-005
-5.446011e-004,9.896014e-005
-7.118525e-004,9.085687e-005
-8.570630e-004,8.939829e-005
-9.846083e-004,1.138701e-004
-1.099189e-003,1.783722e-004
-1.183787e-003,2.785285e-004
-1.184273e-003,3.835469e-004
-1.032418e-003,4.496696e-004
-6.915944e-004,4.341113e-004
-2.109087e-004,3.162897e-004
2.425500e-004,1.094944e-004
4.226046e-004,-1.410586e-004
1.529279e-004,-3.732981e-004
-5.296912e-004,-5.444391e-004
-1.413433e-003,-6.269303e-004
-2.287776e-003,-6.144513e-004
-3.040571e-003,-5.188328e-004
-3.625305e-003,-3.754050e-004
-3.958513e-003,-2.340841e-004
-3.915079e-003,-1.209625e-004
-3.406029e-003,-3.263690e-005
-2.488900e-003,4.385793e-005
-1.359952e-003,1.086841e-004
-2.301945e-004,1.563313e-004
7.580800e-004,1.757791e-004
1.586397e-003,1.547106e-004
2.349890e-003,8.307774e-005
3.108360e-003,-3.830918e-005
3.769268e-003,-1.841679e-004
4.141536e-003,-3.194925e-004
4.028089e-003,-4.146248e-004
3.239310e-003,-4.554653e-004
1.729987e-003,-4.449310e-004
-2.856208e-004,-3.976079e-004
-2.257632e-003,-3.369955e-004
-3.722220e-003,-2.771934e-004
-4.459946e-003,-2.177155e-004
-4.446332e-003,-1.512687e-004
-3.821891e-003,-8.401160e-005
-2.821782e-003,-2.680255e-005
-1.680517e-003,1.614476e-005
-5.703695e-004,5.017848e-005
4.065602e-004,7.918817e-005
1.198412e-003,1.020394e-004
1.801296e-003,1.127357e-004
2.211485e-003,1.163011e-004
2.425088e-003,1.274836e-004
2.455557e-003,1.602208e-004
2.347945e-003,2.143507e-004
2.176479e-003,2.785285e-004
2.014089e-003,3.388168e-004
1.881357e-003,3.824124e-004
1.748463e-003,4.085050e-004
1.562411e-003,4.156358e-004
1.279769e-003,4.049395e-004
8.901634e-004,3.835469e-004
4.172565e-004,3.611819e-004
-8.287714e-005,3.428685e-004
-5.373082e-004,3.292550e-004
-8.531734e-004,3.208276e-004
-9.152445e-004,3.154794e-004
-6.327647e-004,3.091589e-004
-2.307504e-005,2.994350e-004
7.428459e-004,2.905214e-004
1.455772e-003,2.819319e-004
1.967252e-003,2.699391e-004
2.154438e-003,2.519498e-004
1.925277e-003,2.323399e-004
1.298731e-003,2.158092e-004
4.624727e-004,2.057612e-004
-3.285681e-004,2.034923e-004
-9.157307e-004,2.088404e-004
-1.273247e-003,2.214815e-004
-1.422833e-003,2.339606e-004
-1.347635e-003,2.425500e-004
-9.875256e-004,2.423880e-004
-3.535262e-004,2.299089e-004
4.119083e-004,2.059233e-004
1.094690e-003,1.743205e-004
1.543450e-003,1.438522e-004
1.750084e-003,1.289422e-004
1.865150e-003,1.360731e-004
2.058171e-003,1.547106e-004
2.347945e-003,1.658931e-004
2.574999e-003,1.534141e-004
2.510983e-003,1.145184e-004
1.945535e-003,5.568870e-005
7.622938e-004,-9.623623e-006
-9.280476e-004,-6.748093e-005
-2.644320e-003,-1.109144e-004
-3.859652e-003,-1.378173e-004
-4.253149e-003,-1.502963e-004
-3.880559e-003,-1.527273e-004
-3.109287e-003,-1.532135e-004
-2.375616e-003,-1.574272e-004
-1.979365e-003,-1.707165e-004
-1.957163e-003,-1.900023e-004
-2.115176e-003,-2.107467e-004
-2.178382e-003,-2.253325e-004
-1.955866e-003,-2.279256e-004
-1.428019e-003,-2.240360e-004
-7.118525e-004,-2.214430e-004
2.765140e-005,-2.253325e-004
6.600305e-004,-2.386219e-004
1.115434e-003,-2.624455e-004
1.376684e-003,-2.896725e-004
1.455124e-003,-3.110651e-004
1.379926e-003,-3.128478e-004
1.213808e-003,-2.961551e-004
1.033429e-003,-2.788141e-004
8.797912e-004,-2.865932e-004
7.524077e-004,-3.303509e-004
6.258346e-004,-3.955011e-004
4.713863e-004,-4.533584e-004
2.701011e-004,-4.726441e-004
2.651694e-005,-4.326140e-004
-2.292221e-004,-3.363473e-004
-4.480102e-004,-2.029675e-004
-5.833348e-004,-5.289506e-005
-5.988930e-004,9.085687e-005
-4.971160e-004,2.059233e-004
-3.165753e-004,2.757734e-004
-1.054042e-004,2.973281e-004
1.030118e-004,2.812837e-004
3.073762e-004,2.394708e-004
5.297298e-004,1.804790e-004
7.815795e-004,1.090082e-004
1.038129e-003,3.235129e-005
1.244277e-003,-4.641245e-005
1.334061e-003,-1.165867e-004
1.269721e-003,-1.640719e-004
1.063411e-003,-1.859507e-004
7.801210e-004,-1.870851e-004
5.084993e-004,-1.658546e-004
3.119140e-004,-1.222590e-004
2.041405e-004,-5.095028e-005
1.718895e-004,4.466826e-005
1.976579e-004,1.490383e-004
2.652392e-004,2.378501e-004
3.499994e-004,2.900352e-004
4.253598e-004,2.937627e-004
4.785172e-004,2.529222e-004
5.164405e-004,1.838824e-004
5.781874e-004,1.086841e-004
7.726659e-004,4.871989e-005
1.222884e-003,1.987226e-005
1.978272e-003,2.230324e-005
2.998154e-003,4.110282e-005
4.067309e-003,6.087479e-005
4.727086e-003,6.914012e-005
4.462916e-003,5.957827e-005
3.064440e-003,3.429608e-005
8.263096e-004,6.744974e-006
-1.590084e-003,-9.785687e-006
-3.469235e-003,-1.545797e-005
-4.555080e-003,-1.967167e-005
-4.816493e-003,-3.053005e-005
-4.417161e-003,-4.446767e-005
-3.641187e-003,-5.743289e-005
-2.784345e-003,-6.488790e-005
-2.057319e-003,-6.683268e-005
-1.564640e-003,-6.586029e-005
-1.314897e-003,-6.440169e-005
-1.249099e-003,-6.245691e-005
-1.286860e-003,-5.905355e-005
-1.354603e-003,-5.192267e-005
-1.405330e-003,-3.717472e-005
-1.407113e-003,-1.351319e-005
-1.339856e-003,1.128280e-005
-1.188487e-003,3.332369e-005
-9.581918e-004,5.504044e-005
-6.737671e-004,7.724339e-005
-3.721637e-004,9.588090e-005
-8.725291e-005,1.106288e-004
1.564933e-004,1.269974e-004
3.503235e-004,1.461212e-004
4.971547e-004,1.657311e-004
6.050903e-004,1.827479e-004
6.733198e-004,1.944166e-004
6.945504e-004,1.986303e-004
6.600305e-004,1.984682e-004
5.700841e-004,1.947408e-004
4.331389e-004,1.897167e-004
2.585945e-004,1.837203e-004
5.504044e-005,1.762653e-004
-1.718510e-004,1.683241e-004
-4.172178e-004,1.637863e-004
-6.710120e-004,1.644345e-004
-9.162169e-004,1.647587e-004
-1.113612e-003,1.598967e-004
-1.205827e-003,1.496866e-004
-1.151860e-003,1.373696e-004
-9.410128e-004,1.253768e-004
-6.032688e-004,1.133840e-004
-1.985918e-004,1.009049e-004
2.091646e-004,8.745350e-005
5.704083e-004,7.448828e-005
8.605054e-004,6.573675e-005
1.066977e-003,6.427816e-005
1.188850e-003,7.205730e-005
1.232284e-003,8.583285e-005
1.223856e-003,1.028497e-004
1.193064e-003,1.174356e-004
1.163730e-003,1.257009e-004
1.145579e-003,1.289422e-004
1.138286e-003,1.279698e-004
1.134396e-003,1.221355e-004
1.122079e-003,1.120874e-004
1.093069e-003,1.017153e-004
1.037805e-003,9.750155e-005
9.502897e-004,1.007429e-004
8.391127e-004,1.067393e-004
7.300427e-004,1.077117e-004
6.368551e-004,1.013911e-004
5.404262e-004,8.486046e-005
4.112601e-004,6.200925e-005
2.352571e-004,3.753739e-005
3.218923e-005,1.841368e-005
-1.509446e-004,4.962256e-006
-2.643903e-004,-2.978945e-006
-2.854588e-004,-8.002969e-006
-2.245222e-004,-1.075808e-005
-1.212866e-004,-1.270286e-005
-2.080613e-005,-1.124428e-005
3.429608e-005,-9.461557e-006
2.359977e-005,-1.221667e-005
-5.240886e-005,-2.194059e-005
-1.729855e-004,-3.733679e-005
-3.081479e-004,-5.532604e-005
-4.384484e-004,-7.493595e-005
-5.590249e-004,-9.227693e-005
-6.651777e-004,-1.039456e-004
-7.418346e-004,-1.068628e-004
-7.693857e-004,-1.016767e-004
-7.319486e-004,-8.790116e-005
-6.308199e-004,-6.910160e-005
-4.825302e-004,-4.625038e-005
-3.167374e-004,-2.404744e-005
-1.684476e-004,-1.075808e-005
-7.412562e-005,-1.043395e-005
-4.608832e-005,-2.226472e-005
-5.451571e-005,-4.317114e-005
-4.868136e-005,-6.991192e-005
1.889987e-005,-9.746302e-005
1.688103e-004,-1.214487e-004
3.676645e-004,-1.370070e-004
5.462606e-004,-1.417068e-004
6.446342e-004,-1.347380e-004
6.460928e-004,-1.209625e-004
5.694359e-004,-1.076731e-004
4.543695e-004,-1.002181e-004
3.469201e-004,-1.013526e-004
2.820940e-004,-1.076731e-004
2.725321e-004,-1.138316e-004
2.918179e-004,-1.144799e-004
3.012177e-004,-1.055663e-004
2.807975e-004,-9.243900e-005
2.235884e-004,-8.125648e-005
1.229458e-004,-7.380149e-005
-2.793700e-005,-6.683268e-005
-2.126914e-004,-6.326724e-005
-3.608191e-004,-6.877746e-005
-3.676258e-004,-8.303921e-005
-1.791439e-004,-9.973194e-005
1.464453e-004,-1.079973e-004
4.608521e-004,-1.007043e-004
6.295621e-004,-8.141856e-005
6.110867e-004,-5.937767e-005
4.425387e-004,-3.798505e-005
2.052750e-004,-1.578211e-005
-2.518189e-005,8.041497e-006
-2.010227e-004,3.980630e-005
-3.105789e-004,7.983643e-005
-3.645466e-004,1.244044e-004
-3.784843e-004,1.655690e-004
-3.567675e-004,2.025199e-004
-2.969654e-004,2.370398e-004
-2.062088e-004,2.686426e-004
-1.049180e-004,2.905214e-004
-1.367526e-005,2.968419e-004
5.325772e-005,2.905214e-004
9.312579e-005,2.820940e-004
1.101426e-004,2.785285e-004
1.069013e-004,2.822560e-004
9.053274e-005,2.885766e-004
6.379197e-005,2.893869e-004
2.149292e-005,2.782044e-004
-4.868136e-005,2.550291e-004
-1.509446e-004,2.224539e-004
-2.627696e-004,1.809652e-004
-3.480160e-004,1.333180e-004
-3.760532e-004,8.810177e-005
-3.361852e-004,5.536457e-005
-2.483458e-004,3.688912e-005
-1.483515e-004,2.538249e-005
-6.650855e-005,1.695509e-005
-1.594417e-005,1.938607e-005
3.017472e-006,3.170303e-005
-7.030578e-006,4.256141e-005
-4.511592e-005,4.580272e-005
-9.000801e-005,4.353380e-005
-1.161005e-004,3.526847e-005
-9.405964e-005,1.906194e-005
1.549650e-005,-3.951337e-006
2.480603e-004,-3.247483e-005
6.016869e-004,-6.650855e-005
1.030188e-003,-1.065387e-004
1.451234e-003,-1.488377e-004
1.754945e-003,-1.869231e-004
1.852185e-003,-2.131776e-004
1.747653e-003,-2.271153e-004
1.528216e-003,-2.342461e-004
1.271828e-003,-2.353806e-004
9.883750e-004,-2.241981e-004
6.285898e-004,-1.921091e-004
1.610312e-004,-1.376552e-004
-3.747567e-004,-7.039811e-005
-8.787797e-004,-9.299492e-006
-1.272922e-003,2.894792e-005
-1.544058e-003,3.850977e-005
-1.735295e-003,2.862379e-005
-1.903357e-003,1.565857e-005
-2.059426e-003,5.772582e-006
-2.164606e-003,2.045080e-006
-2.159096e-003,9.013888e-006
-1.985524e-003,2.959618e-005
-1.623794e-003,5.633696e-005
-1.121554e-003,7.513654e-005
-5.880346e-004,7.983643e-005
-1.517549e-004,7.400208e-005
9.571883e-005,7.124698e-005
1.326697e-004,7.983643e-005
8.689757e-006,1.002567e-004
-1.650442e-004,1.302387e-004
-2.818933e-004,1.671896e-004
-3.070135e-004,2.049509e-004
-2.374874e-004,2.323399e-004
-9.551824e-005,2.355812e-004
7.546067e-005,2.102990e-004
2.187264e-004,1.590864e-004
2.590807e-004,9.377405e-005
1.107909e-004,2.959618e-005
-2.538560e-004,-1.740276e-005
-7.488034e-004,-3.539201e-005
-1.230462e-003,-3.360929e-005
-1.570799e-003,-3.587821e-005
-1.686189e-003,-6.521203e-005
-1.548272e-003,-1.212866e-004
-1.189783e-003,-1.840059e-004
-6.849497e-004,-2.241981e-004
-1.222590e-004,-2.194982e-004
4.034809e-004,-1.661787e-004
8.110754e-004,-8.190475e-005
1.066329e-003,8.689757e-006
1.178316e-003,8.032263e-005
1.167133e-003,1.226217e-004
1.045260e-003,1.414213e-004
8.160995e-004,1.500107e-004
4.738173e-004,1.620035e-004
3.656499e-005,1.884202e-004
-4.141386e-004,2.329882e-004
-7.442656e-004,2.932765e-004
-8.355083e-004,3.521062e-004
-6.484850e-004,3.875985e-004
-2.306807e-004,3.866261e-004
3.026763e-004,3.545372e-004
8.131823e-004,3.047831e-004
1.214943e-003,2.470879e-004
1.491265e-003,1.869616e-004
1.661758e-003,1.331559e-004
1.749111e-003,9.134307e-005
1.769856e-003,6.346784e-005
1.741332e-003,4.661304e-005
1.681044e-003,3.705119e-005
1.607466e-003,2.878586e-005
1.529026e-003,1.355172e-005
1.447345e-003,-1.059601e-005
1.360316e-003,-4.057810e-005
1.263238e-003,-7.817725e-005
1.151089e-003,-1.285796e-004
1.020950e-003,-1.917850e-004
8.616399e-004,-2.653627e-004
6.545202e-004,-3.425058e-004
3.777125e-004,-4.105731e-004
2.894792e-005,-4.540066e-004
-3.655190e-004,-4.588686e-004
-7.622548e-004,-4.266176e-004
-1.119609e-003,-3.731361e-004
-1.410192e-003,-3.128478e-004
-1.615367e-003,-2.585559e-004
-1.707420e-003,-2.167431e-004
-1.651345e-003,-1.862748e-004
-1.437419e-003,-1.621271e-004
-1.108426e-003,-1.412206e-004
-7.539894e-004,-1.300381e-004
-4.757234e-004,-1.396000e-004
-3.423437e-004,-1.681235e-004
-3.653569e-004,-2.034537e-004
-5.147811e-004,-2.271153e-004
-7.301659e-004,-2.295462e-004
-9.320992e-004,-2.068571e-004
-1.039873e-003,-1.639098e-004
-1.000977e-003,-1.079973e-004
-8.113606e-004,-5.565017e-005
-5.040848e-004,-1.659243e-005
-1.161005e-004,9.013888e-006
3.346032e-004,3.040651e-005
8.972943e-004,5.601283e-005
1.668402e-003,8.875003e-005
2.692173e-003,1.253768e-004
3.920152e-003,1.564933e-004
4.959167e-003,1.790204e-004
4.959005e-003,1.955511e-004
4.958843e-003,2.085163e-004
4.958843e-003,2.171058e-004
4.901633e-003,2.203471e-004
1.685906e-003,2.172678e-004
-1.929287e-003,2.028440e-004
-4.716497e-003,1.786963e-004
-4.968349e-003,1.483901e-004
-4.968187e-003,1.112771e-004
-4.968349e-003,6.541262e-005
-3.601481e-003,8.365628e-006
-1.830752e-003,-5.354332e-005
-3.873978e-004,-1.070249e-004
4.837033e-004,-1.350622e-004
8.018378e-004,-1.243659e-004
7.653730e-004,-7.185670e-005
5.903423e-004,1.241726e-005
4.229288e-004,1.013911e-004
3.148312e-004,1.738343e-004
2.522740e-004,2.216436e-004
2.078680e-004,2.462775e-004
1.624898e-004,2.542187e-004
1.104668e-004,2.485465e-004
5.455424e-005,2.406053e-004
4.962256e-006,2.380122e-004
-3.134038e-005,2.449810e-004
-5.370539e-005,2.585945e-004
-7.039811e-005,2.746390e-004
-8.935975e-005,2.931144e-004
-1.099420e-004,3.107795e-004
-1.243659e-004,3.264999e-004
-1.305243e-004,3.381686e-004
-1.408965e-004,3.457856e-004
-1.632615e-004,3.470822e-004
-1.940539e-004,3.417340e-004
-2.272773e-004,3.321721e-004
-2.575835e-004,3.192069e-004
-2.822175e-004,3.005694e-004
-3.055549e-004,2.764217e-004
-3.353749e-004,2.467637e-004
-3.758912e-004,2.148369e-004
-4.322899e-004,1.861513e-004
-5.021400e-004,1.684862e-004
-5.721523e-004,1.692965e-004
-6.222304e-004,1.864754e-004
-6.385990e-004,2.088404e-004
-6.181788e-004,2.243987e-004
-5.598352e-004,2.219677e-004
-4.694028e-004,2.008992e-004
-3.600088e-004,1.686482e-004
-2.464010e-004,1.313732e-004
-1.368449e-004,9.166720e-005
-3.296103e-005,5.358185e-005
6.816773e-005,2.424803e-005
1.633001e-004,1.128280e-005
2.469258e-004,1.322759e-005
3.149932e-004,2.392390e-005
3.572923e-004,3.105477e-005
3.555096e-004,2.829966e-005
3.010556e-004,1.371378e-005
2.381743e-004,-1.043395e-005
2.615117e-004,-3.701266e-005
4.313562e-004,-6.051213e-005
7.214532e-004,-7.947377e-005
1.022733e-003,-9.956987e-005
1.227098e-003,-1.250141e-004
1.282038e-003,-1.535376e-004
1.173778e-003,-1.827094e-004
9.131767e-004,-2.104225e-004
5.217887e-004,-2.284118e-004
4.855782e-005,-2.339220e-004
-4.212695e-004,-2.298704e-004
-7.961265e-004,-2.201465e-004
-1.018480e-003,-2.089639e-004
-1.086385e-003,-1.942160e-004
-1.056079e-003,-1.750923e-004
-1.005029e-003,-1.541859e-004
-9.868774e-004,-1.353863e-004
-1.008108e-003,-1.232314e-004
-1.026259e-003,-1.209625e-004
-1.000329e-003,-1.259865e-004
-9.264270e-004,-1.389517e-004
-8.334015e-004,-1.569410e-004
-7.598238e-004,-1.755785e-004
-7.360002e-004,-1.890299e-004
-7.744097e-004,-1.938919e-004
-8.507424e-004,-1.922712e-004
-9.076273e-004,-1.890299e-004
-8.805625e-004,-1.903264e-004
-7.348658e-004,-2.037778e-004
-4.836646e-004,-2.238740e-004
-1.684476e-004,-2.421873e-004
1.550348e-004,-2.514251e-004
4.033188e-004,-2.498044e-004
4.974788e-004,-2.387839e-004
3.841952e-004,-2.194982e-004
8.518459e-005,-1.947022e-004
-2.862691e-004,-1.627753e-004
-5.802555e-004,-1.259865e-004
-6.969425e-004,-9.033214e-005
-6.257959e-004,-5.889147e-005
-4.084663e-004,-3.539201e-005
-1.028112e-004,-2.194059e-005
2.310434e-004,-1.416145e-005
5.245437e-004,-5.409925e-006
7.256669e-004,1.128280e-005
8.204752e-004,3.575467e-005
8.269579e-004,6.525056e-005
7.776900e-004,9.539470e-005
7.083260e-004,1.234320e-004
6.517651e-004,1.500107e-004
6.211348e-004,1.786963e-004
6.102764e-004,2.083542e-004
6.081695e-004,2.333123e-004
6.125453e-004,2.496809e-004
6.339379e-004,2.563256e-004
6.934159e-004,2.534084e-004
7.879001e-004,2.435224e-004
8.780085e-004,2.302331e-004
8.887048e-004,2.133783e-004
7.537042e-004,1.923098e-004
4.457800e-004,1.689724e-004
6.744974e-006,1.516314e-004
-4.256452e-004,1.483901e-004
-6.617744e-004,1.598967e-004
-5.672903e-004,1.778859e-004
-1.592099e-004,1.895547e-004
4.115842e-004,1.856651e-004
9.557999e-004,1.670276e-004
1.340868e-003,1.417454e-004
1.521247e-003,1.145184e-004
1.517195e-003,8.891209e-005
1.383005e-003,6.654707e-005
1.169564e-003,5.147500e-005
9.154456e-004,4.158902e-005
6.738060e-004,3.218923e-005
5.167646e-004,2.441009e-005
4.961823e-004,1.727922e-005
5.673291e-004,9.500084e-006
5.378331e-004,1.720949e-006
1.961993e-004,-8.813297e-006
-4.786406e-004,-1.869928e-005
-1.281674e-003,-2.518189e-005
-1.970776e-003,-2.647842e-005
-2.421156e-003,-2.226472e-005
-2.629896e-003,-1.578211e-005
-2.628276e-003,-1.237873e-005
-2.431690e-003,-1.432352e-005
-2.063153e-003,-1.675450e-005
-1.566423e-003,-1.805102e-005
-1.004056e-003,-2.258885e-005
-4.455793e-004,-3.441962e-005
4.758544e-005,-5.159854e-005
4.302217e-004,-7.526008e-005
6.862851e-004,-1.021629e-004
8.284165e-004,-1.263107e-004
8.914599e-004,-1.413827e-004
9.091251e-004,-1.587237e-004
9.021562e-004,-1.935677e-004
8.710397e-004,-2.434839e-004
8.060514e-004,-2.883759e-004
7.065432e-004,-3.074996e-004
5.824011e-004,-2.852967e-004
4.392974e-004,-2.229016e-004
2.840387e-004,-1.357104e-004
1.419075e-004,-4.284701e-005
5.131293e-005,4.596478e-005
4.499239e-005,1.269974e-004
1.214872e-004,1.970097e-004
2.454672e-004,2.449810e-004
3.619922e-004,2.641047e-004
4.295734e-004,2.571359e-004
4.401077e-004,2.313675e-004
4.120704e-004,1.958752e-004
3.825745e-004,1.637863e-004
3.791711e-004,1.425557e-004
4.112601e-004,1.342904e-004
4.683071e-004,1.347766e-004
5.144957e-004,1.404489e-004
5.180612e-004,1.485521e-004
4.926169e-004,1.587622e-004
4.856481e-004,1.680000e-004
5.477191e-004,1.770756e-004
6.982779e-004,1.858272e-004
9.105837e-004,2.015475e-004
1.154492e-003,2.289365e-004
1.411690e-003,2.686426e-004
1.653168e-003,3.145071e-004
1.832089e-003,3.508097e-004
1.911825e-003,3.615060e-004
1.880871e-003,3.420582e-004
1.742304e-003,2.997591e-004
1.498233e-003,2.427121e-004
1.149306e-003,1.824238e-004
7.131879e-004,1.232699e-004
2.318537e-004,6.492643e-005
-2.459148e-004,7.393235e-006
-6.992114e-004,-4.608832e-005
-1.154615e-003,-9.341139e-005
-1.634652e-003,-1.264727e-004
-2.118742e-003,-1.353863e-004
-2.569446e-003,-1.159385e-004
-2.973314e-003,-7.347736e-005
-3.339096e-003,-2.696461e-005
-3.668414e-003,5.448451e-006
-3.893849e-003,1.501031e-005
-3.876669e-003,5.610517e-006
-3.501811e-003,-1.335112e-005
-2.780131e-003,-2.842320e-005
-1.869971e-003,-2.615428e-005
-9.909290e-004,4.151929e-006
-3.232200e-004,6.200925e-005
6.995045e-005,1.323456e-004
2.722080e-004,1.953890e-004
4.308700e-004,2.337985e-004
6.365310e-004,2.409294e-004
8.809257e-004,2.234263e-004
1.105224e-003,1.892305e-004
1.267614e-003,1.440143e-004
1.390136e-003,9.085687e-005
1.518330e-003,3.235129e-005
1.643768e-003,-2.955766e-005
1.689309e-003,-9.438377e-005
1.559170e-003,-1.595340e-004
1.229205e-003,-2.188499e-004
7.772038e-004,-2.634179e-004
3.311998e-004,-2.912931e-004
-2.330684e-006,-3.031239e-004
-1.794681e-004,-3.023136e-004
-2.126914e-004,-2.942103e-004
-1.483515e-004,-2.870794e-004
-4.608832e-005,-2.896725e-004
4.871989e-005,-3.008549e-004
9.539470e-005,-3.078238e-004
5.633696e-005,-2.951827e-004
-7.039811e-005,-2.585559e-004
-2.473734e-004,-2.133397e-004
-4.089525e-004,-1.841679e-004
-4.886886e-004,-1.893540e-004
-4.718338e-004,-2.264670e-004
-3.924218e-004,-2.804347e-004
-2.938861e-004,-3.285681e-004
-2.058847e-004,-3.551468e-004
-1.345760e-004,-3.536882e-004
-7.153257e-005,-3.243544e-004
2.522042e-005,-2.775176e-004
2.281262e-004,-2.267911e-004
5.922871e-004,-1.836818e-004
1.135369e-003,-1.489998e-004
1.853482e-003,-1.185315e-004
2.664784e-003,-8.741497e-005
3.336063e-003,-5.338126e-005
3.541402e-003,-2.242678e-005
3.040292e-003,1.234753e-006
1.887840e-003,1.711715e-005
4.253598e-004,2.732727e-005
-8.810487e-004,3.834771e-005
-1.708716e-003,5.406805e-005
-2.005296e-003,7.481241e-005
-1.862192e-003,9.685329e-005
-1.457353e-003,1.169494e-004
-9.792602e-004,1.354248e-004
-5.731246e-004,1.516314e-004
-3.076617e-004,1.668655e-004
-1.859507e-004,1.835582e-004
-1.665028e-004,2.051129e-004
-1.898402e-004,2.328261e-004
-2.131776e-004,2.587565e-004
-2.298704e-004,2.741528e-004
-2.692523e-004,2.786906e-004
-3.692465e-004,2.775562e-004
-5.303394e-004,2.741528e-004
-6.896496e-004,2.713976e-004
-7.619307e-004,2.704253e-004
-6.959701e-004,2.762596e-004
-5.039228e-004,2.889007e-004
-2.528836e-004,3.072141e-004
-2.518189e-005,3.308756e-004
1.135460e-004,3.555096e-004
1.394765e-004,3.754436e-004
7.837785e-005,3.843572e-004
-1.805102e-005,3.780367e-004
-1.094559e-004,3.555096e-004
-1.729855e-004,3.172621e-004
-1.955125e-004,2.603772e-004
-1.786577e-004,1.882581e-004
-1.536997e-004,1.127357e-004
-1.566169e-004,4.515445e-005
-1.841679e-004,-2.654814e-006
-2.225774e-004,-2.226472e-005
-2.749245e-004,-1.659243e-005
-3.478539e-004,7.393235e-006
-4.251590e-004,3.932010e-005
-4.402311e-004,7.659513e-005
-2.844864e-004,1.128978e-004
1.495245e-004,1.430419e-004
8.632605e-004,1.621656e-004
1.697898e-003,1.715654e-004
2.397051e-003,1.773998e-004
2.729773e-003,1.843686e-004
2.573703e-003,1.882581e-004
1.874226e-003,1.846927e-004
6.457687e-004,1.717275e-004
-9.270752e-004,1.551968e-004
-2.409649e-003,1.414213e-004
-3.410243e-003,1.339663e-004
-3.709417e-003,1.315353e-004
-3.343310e-003,1.281319e-004
-2.550484e-003,1.198666e-004
-1.639514e-003,1.062531e-004
-8.622491e-004,9.053274e-005
-3.515814e-004,7.578480e-005
-1.071869e-004,6.152305e-005
-4.219875e-005,4.418206e-005
-4.706071e-005,2.035846e-005
-4.446767e-005,-9.947754e-006
-3.627206e-006,-4.219875e-005
7.092283e-005,-6.974985e-005
1.584381e-004,-8.628051e-005
2.373639e-004,-8.968388e-005
2.773941e-004,-8.530812e-005
2.550291e-004,-7.979790e-005
1.858272e-004,-7.153257e-005
1.075496e-004,-6.067420e-005
5.358185e-005,-5.095028e-005
1.290346e-005,-4.462973e-005
-4.689864e-005,-3.652646e-005
-1.154523e-004,-2.501983e-005
-1.483515e-004,-1.480971e-005
-1.222590e-004,-1.707863e-005
-7.299116e-005,-3.134038e-005
-7.590833e-005,-4.965375e-005
-1.665028e-004,-6.910160e-005
-3.052307e-004,-8.579432e-005
-3.734602e-004,-9.713889e-005
-2.102605e-004,-9.746302e-005
3.388168e-004,-8.401160e-005
1.286252e-003,-5.905355e-005
2.427357e-003,-3.441962e-005
3.482572e-003,-2.518189e-005
4.195991e-003,-3.555407e-005
4.318675e-003,-5.775702e-005
3.702821e-003,-8.222889e-005
2.426385e-003,-1.060525e-004
8.180442e-004,-1.280934e-004
-6.348715e-004,-1.470550e-004
-1.499490e-003,-1.621271e-004
-1.668362e-003,-1.682856e-004
-1.276488e-003,-1.608306e-004
-6.207718e-004,-1.381414e-004
-6.382316e-006,-1.086455e-004
4.007258e-004,-7.639453e-005
5.999042e-004,-4.171255e-005
6.551685e-004,-3.141010e-006
6.130315e-004,3.543053e-005
4.728449e-004,6.249544e-005
2.185644e-004,7.367795e-005
-1.352242e-004,7.011251e-005
-5.327704e-004,6.022653e-005
-9.040619e-004,4.936815e-005
-1.188973e-003,4.385793e-005
-1.361896e-003,4.547859e-005
-1.430126e-003,5.423011e-005
-1.398847e-003,6.930219e-005
-1.266602e-003,9.150514e-005
-1.023990e-003,1.164632e-004
-6.768464e-004,1.394765e-004
-2.997205e-004,1.550348e-004
-2.583015e-005,1.582760e-004
9.118101e-005,1.503348e-004
9.069480e-005,1.318594e-004
-1.383732e-005,1.101426e-004
-2.570973e-004,8.680524e-005
-6.397335e-004,5.876794e-005
-1.064831e-003,2.181705e-005
-1.403223e-003,-2.664048e-005
-1.565937e-003,-7.688072e-005
-1.500138e-003,-1.238797e-004
-1.161422e-003,-1.666649e-004
-5.659938e-004,-2.047502e-004
1.636242e-004,-2.334358e-004
8.105892e-004,-2.464010e-004
1.181881e-003,-2.365150e-004
1.208784e-003,-2.096122e-004
9.522345e-004,-1.768750e-004
5.537155e-004,-1.457585e-004
1.611932e-004,-1.209625e-004
-1.256624e-004,-1.058904e-004
-2.650385e-004,-9.859748e-005
-2.721694e-004,-9.535618e-005
-1.908126e-004,-9.098041e-005
-6.618442e-005,-8.417366e-005
7.562274e-005,-7.736692e-005
2.226160e-004,-7.444974e-005
3.590750e-004,-6.748093e-005
4.490213e-004,-4.608832e-005
4.639313e-004,-7.516774e-006
4.096394e-004,4.645098e-005
3.245551e-004,1.101426e-004
2.564876e-004,1.749688e-004
2.397949e-004,2.206712e-004
2.796630e-004,2.312054e-004
3.545372e-004,1.989545e-004
4.349216e-004,1.339663e-004
4.916445e-004,5.779555e-005
5.101199e-004,-3.303075e-006
4.989374e-004,-3.101624e-005
4.811102e-004,-2.388537e-005
4.790034e-004,1.128280e-005
5.050959e-004,6.006446e-005
5.558224e-004,1.025256e-004
6.208106e-004,1.271595e-004
6.825575e-004,1.302387e-004
7.240463e-004,1.169494e-004
7.350668e-004,8.988448e-005
7.154568e-004,5.228533e-005
6.760749e-004,8.365628e-006
6.383137e-004,-3.458168e-005
6.258346e-004,-7.218083e-005
6.399344e-004,-9.730095e-005
6.653786e-004,-1.013526e-004
6.898505e-004,-8.384953e-005
7.099466e-004,-5.516398e-005
7.233981e-004,-2.631635e-005
7.209671e-004,-7.100305e-007
6.924436e-004,2.084466e-005
6.190279e-004,3.834771e-005
4.911583e-004,5.066468e-005
3.106175e-004,5.471631e-005
8.842590e-005,5.341978e-005
-1.441378e-004,5.244739e-005
-3.439643e-004,5.617490e-005
-4.731303e-004,6.136099e-005
-5.105674e-004,6.233338e-005
-4.562756e-004,5.325772e-005
-3.426678e-004,3.591673e-005
-2.133397e-004,1.614476e-005
-1.063766e-004,3.017472e-006
-4.495386e-005,1.720949e-006
-3.782299e-005,1.306552e-005
-8.206682e-005,3.834771e-005
-1.588858e-004,7.724339e-005
-2.342461e-004,1.245665e-004
-2.765452e-004,1.709171e-004
-2.799485e-004,2.073818e-004
-2.656868e-004,2.269918e-004
-2.721694e-004,2.258573e-004
-3.347266e-004,2.091646e-004
-4.614617e-004,1.866375e-004
-6.270924e-004,1.712413e-004
-7.862404e-004,1.741585e-004
-8.967690e-004,1.996027e-004
-9.389059e-004,2.406053e-004
-9.154065e-004,2.859835e-004
-8.494459e-004,3.227724e-004
-7.676030e-004,3.404375e-004
-6.813843e-004,3.365479e-004
-5.859278e-004,3.141829e-004
-4.710235e-004,2.780423e-004
-3.248406e-004,2.376881e-004
-1.489998e-004,1.983062e-004
4.158902e-005,1.636242e-004
2.141886e-004,1.336421e-004
3.329825e-004,1.083599e-004
3.814400e-004,8.729143e-005
3.715541e-004,6.314371e-005
3.281205e-004,3.170303e-005
2.735045e-004,-1.043395e-005
2.328261e-004,-6.002593e-005
2.239125e-004,-1.086455e-004
2.462775e-004,-1.504584e-004
2.791768e-004,-1.823852e-004
2.948972e-004,-2.021572e-004
2.788527e-004,-2.141500e-004
2.269918e-004,-2.214430e-004
1.542244e-004,-2.229016e-004
9.442231e-005,-2.147983e-004
8.194328e-005,-1.932436e-004
1.284560e-004,-1.549962e-004
2.065715e-004,-1.005423e-004
2.654012e-004,-4.187462e-005
2.701011e-004,7.069104e-006
2.158092e-004,3.559260e-005
1.235941e-004,4.385793e-005
2.424803e-005,2.992031e-005
-3.247483e-005,-7.192643e-006
-6.176923e-008,-5.824321e-005
1.305629e-004,-1.031353e-004
3.156415e-004,-1.277692e-004
4.590693e-004,-1.319829e-004
4.595555e-004,-1.229073e-004
2.806354e-004,-1.117248e-004
-3.296103e-005,-1.079973e-004
-4.108973e-004,-1.152902e-004
-8.000160e-004,-1.318209e-004
-1.185407e-003,-1.546721e-004
-1.539358e-003,-1.752544e-004
-1.801580e-003,-1.781715e-004
-1.903033e-003,-1.553203e-004
-1.829293e-003,-1.115627e-004
-1.632221e-003,-5.856734e-005
-1.369189e-003,-6.220251e-006
-1.082334e-003,3.721326e-005
-8.128192e-004,6.865393e-005
-5.990550e-004,8.956035e-005
-4.612996e-004,9.474644e-005
-3.916115e-004,8.356393e-005
-3.528779e-004,5.795762e-005
-3.104168e-004,2.927205e-005
-2.582318e-004,1.387585e-005
-2.188499e-004,1.727922e-005
-2.250084e-004,3.478227e-005
-3.058790e-004,5.617490e-005
-4.783164e-004,7.870197e-005
-6.964563e-004,1.030118e-004
-8.265947e-004,1.289422e-004
-7.006700e-004,1.534141e-004
-1.862748e-004,1.720516e-004
7.603490e-004,1.853410e-004
1.964659e-003,1.958752e-004
3.065736e-003,2.017096e-004
3.665059e-003,1.979821e-004
3.542050e-003,1.793446e-004
2.787630e-003,1.496866e-004
1.737118e-003,1.174356e-004
7.642385e-004,9.020861e-005
1.150046e-004,7.221937e-005
-1.459205e-004,6.460230e-005
-9.405964e-005,6.071273e-005
1.398006e-004,5.325772e-005
4.284390e-004,3.478227e-005
6.781818e-004,5.124321e-006
8.366818e-004,-3.134038e-005
8.896772e-004,-6.618442e-005
8.376542e-004,-9.454584e-005
6.969814e-004,-1.161005e-004
4.892135e-004,-1.318209e-004
2.278021e-004,-1.483515e-004
-7.979790e-005,-1.619650e-004
-4.121938e-004,-1.660166e-004
-7.287073e-004,-1.554824e-004
-9.943324e-004,-1.350622e-004
-1.192862e-003,-1.075111e-004
-1.311656e-003,-6.780506e-005
-1.309387e-003,-8.002969e-006
-1.137112e-003,6.687120e-005
-8.019608e-004,1.398006e-004
-3.856151e-004,1.986303e-004
2.369210e-006,2.435224e-004
2.720459e-004,2.770700e-004
3.978086e-004,2.991108e-004
4.102877e-004,3.064038e-004
3.618301e-004,2.965178e-004
2.971661e-004,2.785285e-004
2.417397e-004,2.611876e-004
2.039785e-004,2.472499e-004
1.863134e-004,2.336364e-004
1.942546e-004,2.192126e-004
2.237504e-004,2.031682e-004
2.645909e-004,1.877719e-004
3.065658e-004,1.738343e-004
3.307136e-004,1.613553e-004
3.156415e-004,1.482280e-004
2.511395e-004,1.370455e-004
1.451487e-004,1.325077e-004
5.286386e-006,1.347766e-004
-1.708786e-004,1.372075e-004
-3.838324e-004,1.297525e-004
-6.157478e-004,1.031738e-004
-8.100641e-004,5.001641e-005
-8.800763e-004,-2.420950e-005
-7.627410e-004,-1.052422e-004
-4.909575e-004,-1.825473e-004
-1.775233e-004,-2.446183e-004
4.904402e-005,-2.922655e-004
1.307249e-004,-3.415334e-004
1.140322e-004,-4.011734e-004
9.782569e-005,-4.637306e-004
1.602208e-004,-5.037607e-004
3.133726e-004,-5.021400e-004
4.973168e-004,-4.522239e-004
6.175693e-004,-3.629260e-004
5.908285e-004,-2.592042e-004
3.994293e-004,-1.671511e-004
1.099806e-004,-1.050801e-004
-1.535376e-004,-7.396355e-005
-2.848105e-004,-6.278104e-005
-2.635799e-004,-5.516398e-005
-1.630995e-004,-4.187462e-005
-7.201877e-005,-1.805102e-005
-2.339917e-005,1.889987e-005
7.485573e-007,6.119892e-005
3.348575e-005,9.847395e-005
1.005808e-004,1.252147e-004
2.005751e-004,1.391524e-004
3.059176e-004,1.456350e-004
3.822504e-004,1.482280e-004
4.177427e-004,1.492004e-004
4.229288e-004,1.474177e-004
4.162841e-004,1.399627e-004
4.049395e-004,1.287802e-004
3.888950e-004,1.214872e-004
3.736609e-004,1.266733e-004
3.634508e-004,1.540623e-004
3.545372e-004,1.999268e-004
3.368721e-004,2.482223e-004
2.694529e-004,2.801492e-004
1.091703e-004,2.837146e-004
-1.316588e-004,2.590807e-004
-3.611433e-004,2.174299e-004
-4.457413e-004,1.819376e-004
-2.577456e-004,1.801549e-004
2.451431e-004,2.208333e-004
9.442933e-004,2.874421e-004
1.588018e-003,3.451374e-004
1.919118e-003,3.619922e-004
1.810372e-003,3.266619e-004
1.236497e-003,2.474120e-004
2.054371e-004,1.396385e-004
-1.167904e-003,1.792748e-005
-2.574956e-003,-1.178833e-004
-3.631301e-003,-2.619593e-004
-4.013292e-003,-3.959873e-004
-3.649453e-003,-4.998712e-004
-2.763763e-003,-5.565939e-004
-1.731405e-003,-5.625904e-004
-8.907726e-004,-5.227224e-004
-4.225660e-004,-4.494688e-004
-3.125237e-004,-3.520676e-004
-4.152730e-004,-2.379736e-004
-5.489769e-004,-1.136696e-004
-5.677765e-004,1.501031e-005
-4.057112e-004,1.362352e-004
-8.790116e-005,2.360674e-004
3.148312e-004,3.078624e-004
7.219394e-004,3.517821e-004
1.077835e-003,3.722023e-004
1.359343e-003,3.752816e-004
1.549446e-003,3.626405e-004
1.619296e-003,3.396272e-004
1.524326e-003,3.099692e-004
1.242494e-003,2.760976e-004
7.992446e-004,2.384984e-004
2.739907e-004,1.981441e-004
-1.943781e-004,1.615174e-004
-4.399070e-004,1.338042e-004
-3.598467e-004,1.093323e-004
3.017472e-006,7.886404e-005
4.734932e-004,3.672705e-005
8.501332e-004,-1.140634e-005
1.003285e-003,-5.338126e-005
9.081527e-004,-7.623246e-005
6.193520e-004,-7.250496e-005
2.431983e-004,-5.046408e-005
-1.011905e-004,-2.404744e-005
-3.303509e-004,-2.816880e-006
-4.201350e-004,7.231170e-006
-3.971218e-004,1.720949e-006
-3.149546e-004,-1.189254e-005
-2.188499e-004,-2.631635e-005
-1.378173e-004,-3.620233e-005
-9.114247e-005,-4.706071e-005
-7.590833e-005,-5.937767e-005
-6.342930e-005,-7.299116e-005
-3.101624e-005,-8.498399e-005
1.987226e-005,-9.519411e-005
7.157111e-005,-9.730095e-005
1.044704e-004,-8.611845e-005
1.244044e-004,-6.083626e-005
1.602208e-004,-2.469570e-005
2.376881e-004,1.387585e-005
3.566440e-004,4.871989e-005
4.858101e-004,7.367795e-005
5.845079e-004,8.761556e-005
6.274553e-004,8.988448e-005
6.067109e-004,8.453633e-005
5.381573e-004,7.546067e-005
4.498316e-004,6.849186e-005
3.731747e-004,6.476436e-005
3.305515e-004,6.071273e-005
3.311998e-004,5.358185e-005
3.668542e-004,4.353380e-005
4.170944e-004,3.397195e-005
4.605280e-004,3.056858e-005
4.775448e-004,3.559260e-005
4.603659e-004,4.596478e-005
4.093153e-004,5.536457e-005
3.415720e-004,6.168512e-005
2.807975e-004,6.832980e-005
2.488706e-004,7.821578e-005
2.568118e-004,8.939829e-005
3.010556e-004,9.539470e-005
3.760919e-004,9.053274e-005
4.700898e-004,6.946425e-005
5.655463e-004,3.802358e-005
6.392861e-004,7.717366e-006
6.741302e-004,-1.027188e-005
6.733198e-004,-1.010982e-005
6.655407e-004,3.341602e-006
6.752646e-004,2.230324e-005
7.008709e-004,3.478227e-005
7.185361e-004,3.591673e-005
6.981159e-004,2.619281e-005
5.882355e-004,1.063454e-005
3.449753e-004,-3.141010e-006
-6.602235e-005,-1.173047e-005
-6.261200e-004,-1.999580e-005
-1.224627e-003,-3.960571e-005
-1.706447e-003,-7.218083e-005
-1.961376e-003,-1.101041e-004
-1.979852e-003,-1.413827e-004
-1.854251e-003,-1.575892e-004
-1.699965e-003,-1.558065e-004
-1.577281e-003,-1.413827e-004
-1.460756e-003,-1.230693e-004
-1.290102e-003,-1.008664e-004
-1.045383e-003,-7.590833e-005
-7.739235e-004,-5.095028e-005
-5.481666e-004,-2.858526e-005
-3.904771e-004,-1.529591e-005
-2.724935e-004,-1.967167e-005
-1.583996e-004,-4.592625e-005
-3.328516e-005,-8.611845e-005
1.114392e-004,-1.285796e-004
2.807975e-004,-1.593720e-004
4.632831e-004,-1.686097e-004
6.269691e-004,-1.530514e-004
7.313393e-004,-1.154523e-004
7.619696e-004,-6.586029e-005
7.423597e-004,-1.545797e-005
7.101087e-004,2.586868e-005
6.713750e-004,5.131293e-005
5.853183e-004,6.087479e-005
4.002396e-004,5.536457e-005
1.135460e-004,3.834771e-005
-1.830335e-004,1.565857e-005
-3.198166e-004,-2.816880e-006
-1.637477e-004,-9.299492e-006
2.508154e-004,-5.247859e-006
6.606787e-004,-3.858999e-007
7.285841e-004,-7.840905e-006
2.936006e-004,-3.101624e-005
-5.462218e-004,-5.905355e-005
-1.571609e-003,-7.720485e-005
-2.611745e-003,-8.141856e-005
-3.515748e-003,-7.477388e-005
-4.073418e-003,-5.970180e-005
-4.106965e-003,-4.074016e-005
-3.584950e-003,-2.177852e-005
-2.642700e-003,-7.192643e-006
-1.515048e-003,2.855406e-006
-4.528722e-004,1.257933e-005
3.553475e-004,3.170303e-005
8.511056e-004,5.714729e-005
1.113490e-003,8.437427e-005
1.268910e-003,1.107909e-004
1.428059e-003,1.347766e-004
1.642148e-003,1.608691e-004
1.900481e-003,1.880961e-004
2.154924e-003,2.090025e-004
2.348107e-003,2.174299e-004
2.441133e-003,2.148369e-004
2.419902e-003,2.072198e-004
2.291708e-003,1.979821e-004
2.079239e-003,1.916615e-004
1.809075e-003,1.919856e-004
1.508768e-003,1.991165e-004
1.202302e-003,2.130541e-004
9.128526e-004,2.299089e-004
6.593821e-004,2.444948e-004
4.508040e-004,2.556773e-004
2.793389e-004,2.590807e-004
1.253768e-004,2.542187e-004
-1.999580e-005,2.449810e-004
-1.379793e-004,2.372019e-004
-2.042640e-004,2.331502e-004
-2.147983e-004,2.312054e-004
-1.861127e-004,2.261814e-004
-1.439758e-004,2.158092e-004
-1.049180e-004,2.013854e-004
-7.380149e-005,1.837203e-004
-4.268495e-005,1.665414e-004
-3.951337e-006,1.477418e-004
4.175108e-005,1.234320e-004
8.923622e-005,9.620503e-005
1.334801e-004,7.335382e-005
1.624898e-004,5.747142e-005
1.691344e-004,4.871989e-005
1.519555e-004,4.434413e-005
1.185700e-004,4.320967e-005
8.048469e-005,4.450619e-005
4.239934e-005,5.050261e-005
2.531276e-006,5.552663e-005
-4.689864e-005,4.515445e-005
-1.193418e-004,7.393235e-006
-2.217671e-004,-5.727082e-005
-3.485022e-004,-1.350622e-004
-4.758855e-004,-2.062088e-004
-5.692351e-004,-2.579077e-004
-5.956517e-004,-2.805968e-004
-5.421702e-004,-2.733039e-004
-4.194868e-004,-2.501285e-004
-2.699005e-004,-2.301945e-004
-1.496480e-004,-2.288980e-004
-1.007043e-004,-2.439700e-004
-1.413827e-004,-2.622834e-004
-2.593662e-004,-2.702246e-004
-4.164075e-004,-2.643903e-004
-5.740970e-004,-2.541802e-004
-7.100698e-004,-2.553146e-004
-8.094158e-004,-2.736280e-004
-8.411806e-004,-2.969654e-004
-7.661444e-004,-3.034480e-004
-5.692351e-004,-2.793003e-004
-2.820554e-004,-2.271153e-004
3.202716e-005,-1.608306e-004
3.073762e-004,-9.308726e-005
5.057441e-004,-3.312309e-005
6.269691e-004,1.582063e-005
6.942262e-004,5.325772e-005
7.263152e-004,7.254349e-005
7.344185e-004,7.319175e-005
7.261531e-004,6.573675e-005
7.054087e-004,6.281957e-005
6.806127e-004,6.897806e-005
6.553305e-004,8.161915e-005
6.261588e-004,9.620503e-005
5.838597e-004,1.167873e-004
5.242196e-004,1.428798e-004
4.582590e-004,1.689724e-004
3.927846e-004,1.929580e-004
3.273102e-004,2.091646e-004
2.585945e-004,2.188885e-004
1.876099e-004,2.232642e-004
1.145184e-004,2.224539e-004
3.380988e-005,2.161334e-004
-5.435365e-005,2.052750e-004
-1.306864e-004,1.872858e-004
-1.721751e-004,1.611932e-004
-1.676373e-004,1.349386e-004
-1.311726e-004,1.198666e-004
-8.563225e-005,1.245665e-004
-4.511592e-005,1.506590e-004
-9.785687e-006,1.889064e-004
3.170303e-005,2.278021e-004
9.020861e-005,2.587565e-004
1.671896e-004,2.783665e-004
2.532463e-004,2.845250e-004
3.474063e-004,2.790147e-004
4.569625e-004,2.639427e-004
5.564707e-004,2.433604e-004
5.984456e-004,2.243987e-004
5.592257e-004,2.169437e-004
4.587452e-004,2.216436e-004
3.423823e-004,2.299089e-004
2.521119e-004,2.297469e-004
1.952270e-004,2.151610e-004
1.440143e-004,1.874478e-004
6.265751e-005,1.461212e-004
-8.514606e-005,8.810177e-005
-3.177098e-004,1.355172e-005
-6.180167e-004,-6.958779e-005
-9.392301e-004,-1.433275e-004
-1.222844e-003,-1.934057e-004
-1.431422e-003,-2.147983e-004
-1.566261e-003,-2.130156e-004
-1.643404e-003,-1.969711e-004
-1.661069e-003,-1.728234e-004
-1.606291e-003,-1.400862e-004
-1.483445e-003,-1.036215e-004
-1.349904e-003,-6.634648e-005
-1.285564e-003,-2.420950e-005
-1.318949e-003,2.522042e-005
-1.395120e-003,7.497447e-005
-1.408085e-003,1.130598e-004
-1.258985e-003,1.282940e-004
-9.050343e-004,1.122495e-004
-3.908012e-004,5.860587e-005
1.641104e-004,-2.550602e-005
6.120591e-004,-1.170729e-004
8.535366e-004,-1.929195e-004
8.605054e-004,-2.374874e-004
6.739681e-004,-2.433218e-004
3.841952e-004,-2.194982e-004
7.870197e-005,-1.838438e-004
-1.668270e-004,-1.496480e-004
-2.883759e-004,-1.193418e-004
-2.420253e-004,-9.081834e-005
6.420843e-006,-6.132245e-005
5.122268e-004,-3.004385e-005
1.241035e-003,-5.571990e-006
1.970655e-003,8.203561e-006
2.373065e-003,1.419998e-005
2.207596e-003,1.663096e-005
1.502609e-003,1.582063e-005
5.405883e-004,1.047248e-005
-3.115513e-004,3.179537e-006
-8.068228e-004,9.106226e-007
-9.209167e-004,5.286386e-006
-7.311383e-004,1.792748e-005
-3.361852e-004,3.445814e-005
1.412592e-004,4.677511e-005
5.477191e-004,4.839576e-005
7.438183e-004,2.765140e-005
6.734819e-004,-1.659243e-005
3.974845e-004,-6.780506e-005
5.714729e-005,-1.063766e-004
-1.992400e-004,-1.203142e-004
-2.893483e-004,-1.143178e-004
-2.147983e-004,-1.005423e-004
-3.328516e-005,-9.324932e-005
1.790204e-004,-9.649063e-005
3.619922e-004,-1.029732e-004
4.887274e-004,-1.013526e-004
5.634395e-004,-8.012203e-005
6.008766e-004,-4.074016e-005
6.170831e-004,1.079661e-005
6.321552e-004,6.573675e-005
6.697544e-004,1.158149e-004
7.376598e-004,1.522796e-004
8.227442e-004,1.691344e-004
9.075044e-004,1.644345e-004
9.580688e-004,1.464453e-004
9.152836e-004,1.257009e-004
7.159431e-004,1.073875e-004
3.295791e-004,9.555677e-005
-1.838438e-004,9.101894e-005
-6.961322e-004,9.636710e-005
-1.085737e-003,1.075496e-004
-1.299177e-003,1.271595e-004
-1.334345e-003,1.534141e-004
-1.211338e-003,1.816135e-004
-9.534919e-004,2.070577e-004
-5.877105e-004,2.290986e-004
-1.499722e-004,2.435224e-004
3.083486e-004,2.441707e-004
7.224256e-004,2.279641e-004
1.027109e-003,1.983062e-004
1.174588e-003,1.621656e-004
1.133910e-003,1.304008e-004
9.010218e-004,1.057669e-004
5.156302e-004,8.680524e-005
6.508849e-005,7.221937e-005
-3.366714e-004,5.957827e-005
-5.924104e-004,4.547859e-005
-6.655018e-004,2.619281e-005
-5.826865e-004,1.558884e-006
-4.147868e-004,-2.258885e-005
-2.303566e-004,-3.879538e-005
-6.132245e-005,-4.025397e-005
9.879807e-005,-2.971972e-005
2.775562e-004,-1.643037e-005
4.966685e-004,-1.108221e-005
7.415494e-004,-1.999580e-005
9.592033e-004,-4.268495e-005
1.073946e-003,-7.542214e-005
1.026136e-003,-1.110765e-004
8.169098e-004,-1.413827e-004
5.221128e-004,-1.613168e-004
2.462775e-004,-1.739578e-004
4.094075e-005,-1.843300e-004
-1.251762e-004,-1.869231e-004
-3.141443e-004,-1.737958e-004
-5.682627e-004,-1.465688e-004
-8.870451e-004,-1.125351e-004
-1.240671e-003,-7.720485e-005
-1.590084e-003,-4.592625e-005
-1.894605e-003,-2.129233e-005
-2.127331e-003,-5.896120e-006
-2.275297e-003,-7.100305e-007
-2.315651e-003,-5.085794e-006
-2.220195e-003,-1.659243e-005
-1.977097e-003,-3.328516e-005
-1.600781e-003,-4.608832e-005
-1.130791e-003,-4.884343e-005
-6.316302e-004,-4.349527e-005
-1.702303e-004,-3.458168e-005
2.119197e-004,-2.469570e-005
5.093096e-004,-1.399939e-005
7.391184e-004,-3.627206e-006
9.194972e-004,4.800190e-006
1.075080e-003,1.079661e-005
1.243142e-003,1.646889e-005
1.459500e-003,2.035846e-005
1.738091e-003,2.343770e-005
2.074701e-003,2.651694e-005
2.454746e-003,3.040651e-005
2.829119e-003,2.975825e-005
3.091829e-003,2.019640e-005
3.093125e-003,2.855406e-006
2.724749e-003,-1.497178e-005
1.941159e-003,-2.696461e-005
7.274497e-004,-3.182657e-005
-8.251361e-004,-3.085418e-005
-2.380964e-003,-2.599222e-005
-3.559344e-003,-1.545797e-005
-4.055914e-003,1.072688e-006
-3.796122e-003,2.489629e-005
-2.965210e-003,5.325772e-005
-1.890716e-003,7.789165e-005
-8.852624e-004,9.636710e-005
-1.535376e-004,1.033359e-004
2.440086e-004,9.523264e-005
3.730126e-004,7.578480e-005
3.472442e-004,5.066468e-005
2.613496e-004,2.505835e-005
1.770756e-004,2.045080e-006
1.229458e-004,-1.740276e-005
1.002567e-004,-2.809907e-005
1.135460e-004,-2.161646e-005
1.764274e-004,4.476060e-006
2.882525e-004,4.158902e-005
4.164462e-004,7.756751e-005
5.112544e-004,1.067393e-004
5.334574e-004,1.297525e-004
4.880791e-004,1.483901e-004
4.068843e-004,1.605450e-004
3.274723e-004,1.631380e-004
2.798251e-004,1.558451e-004
2.723700e-004,1.454729e-004
3.025142e-004,1.347766e-004
3.611819e-004,1.245665e-004
4.287631e-004,1.203528e-004
4.892135e-004,1.329939e-004
5.527431e-004,1.712413e-004
6.191900e-004,2.287745e-004
6.517651e-004,2.880904e-004
6.097901e-004,3.302274e-004
4.790034e-004,3.465960e-004
2.923041e-004,3.362238e-004
1.072255e-004,3.055935e-004
-2.566809e-005,2.641047e-004
-8.952182e-005,2.179161e-004
-9.681476e-005,1.722137e-004
-7.850138e-005,1.297525e-004
-5.889147e-005,9.182927e-005
-4.884343e-005,6.055066e-005
-4.592625e-005,3.397195e-005
-4.446767e-005,7.717366e-006
-4.576419e-005,-1.950961e-005
-5.095028e-005,-4.446767e-005
-6.423963e-005,-6.375343e-005
-8.887356e-005,-7.542214e-005
-1.212866e-004,-8.255302e-005
-1.579134e-004,-9.357345e-005
-1.885437e-004,-1.118868e-004
-1.974573e-004,-1.334415e-004
-1.673132e-004,-1.480274e-004
-9.049421e-005,-1.485136e-004
1.695509e-005,-1.384655e-004
1.351007e-004,-1.232314e-004
2.553532e-004,-1.037836e-004
3.707437e-004,-8.109442e-005
4.678209e-004,-5.678463e-005
5.350781e-004,-3.247483e-005
5.717048e-004,-8.975361e-006
5.900182e-004,1.128280e-005
5.976353e-004,2.424803e-005
5.814287e-004,2.894792e-005
5.268127e-004,2.392390e-005
4.334631e-004,1.160693e-005
3.149932e-004,-4.923729e-006
1.882581e-004,-2.453363e-005
8.307774e-005,-4.932962e-005
4.029249e-005,-7.477388e-005
9.685329e-005,-8.806324e-005
2.506533e-004,-8.125648e-005
4.582590e-004,-5.127441e-005
6.462549e-004,-5.247859e-006
7.666695e-004,4.320967e-005
8.196649e-004,8.194328e-005
8.350611e-004,1.070634e-004
8.397610e-004,1.187321e-004
8.376542e-004,1.205148e-004
8.028101e-004,1.127357e-004
6.843403e-004,9.944633e-005
4.230909e-004,8.939829e-005
-1.237873e-005,9.215340e-005
-5.886829e-004,1.098185e-004
-1.219927e-003,1.331559e-004
-1.811952e-003,1.479039e-004
-2.270111e-003,1.440143e-004
-2.525364e-003,1.210010e-004
-2.557291e-003,8.421220e-005
-2.401708e-003,4.304760e-005
-2.119228e-003,8.041497e-006
-1.757822e-003,-1.302699e-005
-1.339693e-003,-2.842320e-005
-8.789418e-004,-4.511592e-005
-4.277521e-004,-6.504996e-005
-5.937767e-005,-8.222889e-005
1.882581e-004,-9.308726e-005
3.780367e-004,-9.568031e-005
6.242140e-004,-8.952182e-005
9.802718e-004,-7.509801e-005
1.375064e-003,-5.030201e-005
1.650089e-003,-7.354708e-006
1.680233e-003,5.179913e-005
1.463876e-003,1.146805e-004
1.106683e-003,1.752929e-004
7.561353e-004,2.226160e-004
5.253541e-004,2.464396e-004
4.532350e-004,2.430362e-004
5.119027e-004,2.195368e-004
6.336138e-004,1.872858e-004
7.428459e-004,1.526038e-004
7.825519e-004,1.190562e-004
7.315013e-004,8.777764e-005
6.078454e-004,5.974033e-005
4.446455e-004,3.688912e-005
2.696149e-004,2.408596e-005
1.000946e-004,2.197911e-005
-5.257093e-005,2.197911e-005
-1.872472e-004,1.792748e-005
-3.115513e-004,6.096713e-006
-4.387725e-004,-1.545797e-005
-5.588629e-004,-4.673658e-005
-6.488091e-004,-8.482193e-005
-7.108801e-004,-1.235555e-004
-7.899679e-004,-1.574272e-004
-9.455506e-004,-1.775233e-004
-1.203234e-003,-1.760647e-004
-1.546165e-003,-1.483515e-004
-1.906274e-003,-9.956987e-005
-2.194589e-003,-4.527799e-005
-2.331696e-003,-1.140634e-005
-2.269301e-003,-1.788895e-005
-2.006430e-003,-7.234290e-005
-1.590895e-003,-1.614788e-004
-1.103888e-003,-2.655248e-004
-6.304957e-004,-3.660052e-004
-2.339220e-004,-4.455793e-004
5.698522e-005,-4.893369e-004
2.495188e-004,-4.873921e-004
3.788470e-004,-4.384484e-004
4.739794e-004,-3.567675e-004
5.448019e-004,-2.637420e-004
5.752702e-004,-1.784957e-004
5.480432e-004,-1.120489e-004
4.765724e-004,-6.537409e-005
3.999155e-004,-3.117831e-005
3.558337e-004,9.106226e-007
3.675024e-004,3.899597e-005
4.324906e-004,7.805372e-005
5.200059e-004,1.083599e-004
5.905044e-004,1.201907e-004
6.279415e-004,1.169494e-004
6.336138e-004,1.086841e-004
6.114109e-004,1.056048e-004
5.553362e-004,1.148425e-004
4.697657e-004,1.323456e-004
3.764160e-004,1.545486e-004
3.062417e-004,1.722137e-004
2.887386e-004,1.819376e-004
3.444891e-004,1.788584e-004
4.822447e-004,1.631380e-004
7.023295e-004,1.412592e-004
9.823786e-004,1.232699e-004
1.272800e-003,1.150046e-004
1.513144e-003,1.141943e-004
1.663703e-003,1.151667e-004
1.726422e-003,1.143563e-004
1.735822e-003,1.124116e-004
1.731284e-003,1.143563e-004
1.728691e-003,1.193804e-004
1.722694e-003,1.284560e-004
1.717184e-003,1.435281e-004
1.707460e-003,1.603829e-004
1.649603e-003,1.726999e-004
1.488023e-003,1.819376e-004
1.175885e-003,1.934442e-004
6.916332e-004,2.130541e-004
4.110282e-005,2.378501e-004
-7.549619e-004,2.600531e-004
-1.641459e-003,2.707494e-004
-2.556481e-003,2.657254e-004
-3.434877e-003,2.436845e-004
-4.163202e-003,2.072198e-004
-4.588789e-003,1.647587e-004
-4.571610e-003,1.231079e-004
-4.066449e-003,8.712937e-005
-3.166172e-003,6.006446e-005
-2.044678e-003,4.612685e-005
-9.040619e-004,5.439218e-005
6.152305e-005,9.328785e-005
7.280979e-004,1.568175e-004
1.095500e-003,2.232642e-004
1.241035e-003,2.691287e-004
1.253352e-003,2.804733e-004
1.201653e-003,2.511395e-004
1.123700e-003,1.751308e-004
1.039912e-003,5.779555e-005
9.626067e-004,-7.412562e-005
8.977805e-004,-1.857886e-004
8.381404e-004,-2.452666e-004
7.686143e-004,-2.436459e-004
7.005468e-004,-1.942160e-004
6.653786e-004,-1.203142e-004
6.707268e-004,-4.219875e-005
6.874196e-004,2.765140e-005
6.760749e-004,8.356393e-005
6.180555e-004,1.180839e-004
5.182232e-004,1.274836e-004
3.974845e-004,1.086841e-004
2.692908e-004,6.670914e-005
1.422316e-004,1.452411e-005
2.376183e-005,-3.814712e-005
-7.801519e-005,-8.790116e-005
-1.601823e-004,-1.272830e-004
-2.344082e-004,-1.506204e-004
-3.185201e-004,-1.562927e-004
-4.118697e-004,-1.485136e-004
-4.937127e-004,-1.302002e-004
-5.376323e-004,-1.016767e-004
-5.241809e-004,-6.537409e-005
-4.548170e-004,-2.291298e-005
-3.460712e-004,2.684107e-005
-2.193361e-004,8.356393e-005
-8.692878e-005,1.423936e-004
4.207521e-005,1.893926e-004
1.644345e-004,2.124059e-004
2.765838e-004,2.059233e-004
3.770643e-004,1.741585e-004
4.589073e-004,1.239182e-004
5.120648e-004,6.184718e-005
5.193577e-004,-8.720958e-007
4.801379e-004,-5.451571e-005
4.138531e-004,-8.935975e-005
3.519442e-004,-1.008664e-004
3.192069e-004,-8.854943e-005
3.339549e-004,-6.164659e-005
4.067222e-004,-3.766092e-005
5.396159e-004,-2.890940e-005
7.062191e-004,-3.425755e-005
8.559676e-004,-4.236081e-005
9.285729e-004,-4.446767e-005
8.794671e-004,-3.555407e-005
6.994124e-004,-2.048200e-005
4.201737e-004,-4.923729e-006
9.879807e-005,7.069104e-006
-2.044261e-004,1.079661e-005
-4.412035e-004,6.258778e-006
-5.805796e-004,-2.816880e-006
-6.240131e-004,-1.367526e-005
-6.100755e-004,-2.809907e-005
-5.951655e-004,-4.560212e-005
-6.270924e-004,-6.261898e-005
-7.240074e-004,-7.412562e-005
-8.569009e-004,-7.720485e-005
-9.614330e-004,-7.153257e-005
-9.687260e-004,-6.051213e-005
-8.225431e-004,-4.997788e-005
-4.925782e-004,-4.479180e-005
5.864920e-007,-4.203669e-005
5.563085e-004,-3.992984e-005
1.019978e-003,-3.393342e-005
1.244763e-003,-2.291298e-005
1.170537e-003,-9.947754e-006
8.533745e-004,5.772582e-006
4.354078e-004,2.473422e-005
7.853991e-005,4.628891e-005
-1.146419e-004,7.092283e-005
-1.394379e-004,1.031738e-004
-7.428768e-005,1.466074e-004
-2.113026e-005,1.942546e-004
-4.041603e-005,2.375260e-004
-1.282554e-004,2.692908e-004
-2.421873e-004,2.864697e-004
-3.337542e-004,2.911697e-004
-3.781601e-004,2.864697e-004
-3.838324e-004,2.748010e-004
-3.812393e-004,2.571359e-004
-3.893426e-004,2.308813e-004
-4.057112e-004,1.940925e-004
-4.237005e-004,1.398006e-004
-4.399070e-004,5.844381e-005
-4.595169e-004,-5.062615e-005
-4.990608e-004,-1.733096e-004
-5.877105e-004,-2.815692e-004
-7.350278e-004,-3.410472e-004
-9.173513e-004,-3.293785e-004
-1.089951e-003,-2.559629e-004
-1.212796e-003,-1.535376e-004
-1.260768e-003,-5.759496e-005
-1.196266e-003,1.014835e-005
-9.557608e-004,4.628891e-005
-4.909575e-004,6.119892e-005
2.034923e-004,6.330577e-005
1.113814e-003,5.471631e-005
2.138231e-003,3.445814e-005
3.018899e-003,4.962256e-006
3.416448e-003,-2.696461e-005
3.090694e-003,-5.759496e-005
2.096418e-003,-8.239095e-005
7.770417e-004,-9.438377e-005
-4.186764e-004,-8.725291e-005
-1.161098e-003,-6.667061e-005
-1.407923e-003,-4.706071e-005
-1.282808e-003,-4.268495e-005
-9.753706e-004,-5.321919e-005
-6.476747e-004,-6.586029e-005
-3.788084e-004,-6.731887e-005
-1.695821e-004,-5.370539e-005
9.824214e-006,-3.198863e-005
1.739964e-004,-1.464765e-005
3.143450e-004,-5.571990e-006
4.221185e-004,1.072688e-006
4.921307e-004,1.063454e-005
5.041235e-004,1.954813e-005
4.263321e-004,2.554455e-005
2.201850e-004,2.846173e-005
-1.141557e-004,3.186510e-005
-5.026262e-004,4.126489e-005
-8.295119e-004,5.585077e-005
-1.003570e-003,7.092283e-005
-9.946565e-004,7.918817e-005
-8.282154e-004,7.918817e-005
-5.715040e-004,7.886404e-005
-2.942103e-004,8.453633e-005
-5.013995e-005,1.004187e-004
1.278078e-004,1.234320e-004
2.297469e-004,1.436902e-004
2.641047e-004,1.495245e-004
2.394708e-004,1.388282e-004
1.717275e-004,1.133840e-004
8.097089e-005,8.259154e-005
-4.381940e-005,5.941620e-005
-2.700626e-004,4.904402e-005
-6.491333e-004,4.693717e-005
-1.128036e-003,5.115087e-005
-1.556213e-003,6.006446e-005
-1.769815e-003,7.546067e-005
-1.695913e-003,9.555677e-005
-1.368703e-003,1.163011e-004
-8.823452e-004,1.292664e-004
-3.321336e-004,1.287802e-004
2.064095e-004,1.119254e-004
6.851506e-004,8.453633e-005
1.084156e-003,5.990240e-005
1.396618e-003,5.131293e-005
1.610221e-003,6.200925e-005
1.713619e-003,8.242948e-005
1.706164e-003,9.993253e-005
1.599038e-003,1.114392e-004
1.405208e-003,1.234320e-004
1.144930e-003,1.417454e-004
8.535366e-004,1.629759e-004
5.730013e-004,1.730240e-004
3.355755e-004,1.594105e-004
1.616794e-004,1.219734e-004
5.066468e-005,6.460230e-005
-6.868512e-006,-5.896120e-006
-1.480971e-005,-8.028410e-005
2.862379e-005,-1.467309e-004
1.235941e-004,-2.010227e-004
2.654012e-004,-2.394322e-004
4.410801e-004,-2.616351e-004
6.413930e-004,-2.699005e-004
8.561296e-004,-2.658489e-004
1.062115e-003,-2.517492e-004
1.207974e-003,-2.290600e-004
1.227746e-003,-1.935677e-004
1.075728e-003,-1.493239e-004
7.562974e-004,-1.011905e-004
3.470822e-004,-5.694669e-005
-2.907146e-005,-2.647842e-005
-2.502906e-004,-1.999580e-005
-2.875656e-004,-4.398147e-005
-2.789761e-004,-9.179074e-005
-4.512515e-004,-1.396000e-004
-9.058446e-004,-1.669890e-004
-1.517641e-003,-1.655304e-004
-2.075794e-003,-1.366828e-004
-2.448059e-003,-8.692878e-005
-2.620335e-003,-2.842320e-005
-2.620010e-003,2.748933e-005
-2.453569e-003,7.335382e-005
-2.109828e-003,1.047945e-004
-1.604184e-003,1.224596e-004
-1.000167e-003,1.287802e-004
-3.927460e-004,1.336421e-004
1.229458e-004,1.475797e-004
4.874308e-004,1.701068e-004
6.908229e-004,1.936063e-004
7.582422e-004,2.111093e-004
7.399287e-004,2.200230e-004
6.801265e-004,2.177540e-004
5.986076e-004,2.072198e-004
5.114165e-004,1.921477e-004
4.391353e-004,1.769136e-004
4.028327e-004,1.676758e-004
4.162841e-004,1.680000e-004
4.775448e-004,1.699447e-004
5.644119e-004,1.663793e-004
6.428515e-004,1.542244e-004
6.854748e-004,1.365593e-004
6.869333e-004,1.235941e-004
6.605167e-004,1.201907e-004
6.294001e-004,1.307249e-004
6.106005e-004,1.563313e-004
6.073592e-004,1.882581e-004
6.161107e-004,2.158092e-004
6.345861e-004,2.378501e-004
6.540340e-004,2.568118e-004
6.713750e-004,2.699391e-004
6.926056e-004,2.795009e-004
7.242084e-004,2.859835e-004
7.640765e-004,2.861456e-004
7.963275e-004,2.756114e-004
8.084824e-004,2.521119e-004
8.008654e-004,2.196988e-004
8.019998e-004,1.838824e-004
8.371680e-004,1.404489e-004
8.823843e-004,8.875003e-005
8.810877e-004,2.716520e-005
7.854691e-004,-3.944364e-005
6.049282e-004,-1.005423e-004
4.177427e-004,-1.470550e-004
3.192069e-004,-1.757406e-004
3.734988e-004,-1.872472e-004
5.965008e-004,-1.877334e-004
9.358659e-004,-1.869231e-004
1.286414e-003,-1.908126e-004
1.556091e-003,-1.998883e-004
1.708433e-003,-2.149604e-004
1.761104e-003,-2.407287e-004
1.728853e-003,-2.763831e-004
1.625455e-003,-3.151167e-004
1.449290e-003,-3.502849e-004
1.124834e-003,-3.752429e-004
5.379952e-004,-3.852910e-004
-3.664914e-004,-3.775118e-004
-1.485876e-003,-3.525538e-004
-2.696506e-003,-3.060411e-004
-3.949599e-003,-2.314910e-004
-4.968349e-003,-1.331174e-004
-4.968025e-003,-2.615428e-005
-4.968511e-003,6.573675e-005
-4.968349e-003,1.237561e-004
-4.968187e-003,1.404489e-004
-4.007457e-003,1.158149e-004
-2.410298e-003,6.006446e-005
-1.048948e-003,-1.010982e-005
-1.352242e-004,-7.218083e-005
3.046211e-004,-1.089697e-004
3.890571e-004,-1.186936e-004
2.926282e-004,-1.143178e-004
1.707551e-004,-1.067007e-004
1.169494e-004,-1.042698e-004
1.517934e-004,-1.007043e-004
2.383363e-004,-8.401160e-005
3.292550e-004,-5.419158e-005
3.937570e-004,-1.448558e-005
4.371905e-004,2.684107e-005
4.990995e-004,6.427816e-005
6.550064e-004,9.296372e-005
9.609860e-004,1.124116e-004
1.400670e-003,1.250527e-004
1.894160e-003,1.316973e-004
2.345352e-003,1.355869e-004
2.660084e-003,1.378558e-004
2.758944e-003,1.380179e-004
2.615678e-003,1.362352e-004
2.265939e-003,1.359110e-004
1.806807e-003,1.342904e-004
1.375712e-003,1.257009e-004
1.069246e-003,1.075496e-004
8.801153e-004,8.437427e-005
7.047605e-004,5.779555e-005
4.190392e-004,2.943412e-005
-1.156841e-005,3.989864e-006
-4.839887e-004,-1.140634e-005
-8.293498e-004,-1.545797e-005
-9.382577e-004,-9.299492e-006
-8.045539e-004,2.531276e-006
-5.181845e-004,1.387585e-005
-2.201465e-004,2.505835e-005
-1.707863e-005,3.769945e-005
6.346784e-005,5.520250e-005
6.200925e-005,7.983643e-005
3.640293e-005,1.124116e-004
2.068259e-005,1.448246e-004
8.365628e-006,1.692965e-004
-3.798505e-005,1.809652e-004
-1.522411e-004,1.764274e-004
-3.297026e-004,1.550348e-004
-5.326083e-004,1.184080e-004
-7.065043e-004,7.432621e-005
-8.039056e-004,3.251336e-005
-8.009885e-004,4.313994e-006
-7.019665e-004,-3.789271e-006
-5.347152e-004,1.193106e-005
-3.389403e-004,4.466826e-005
-1.535376e-004,8.178122e-005
5.864920e-007,1.166253e-004
1.263492e-004,1.467694e-004
2.478982e-004,1.658931e-004
3.759298e-004,1.717275e-004
4.950479e-004,1.697827e-004
5.777012e-004,1.668655e-004
6.198382e-004,1.649207e-004
6.329655e-004,1.637863e-004
6.282656e-004,1.616794e-004
6.144901e-004,1.589243e-004
6.029834e-004,1.537382e-004
5.919630e-004,1.448246e-004
5.691118e-004,1.320215e-004
5.144957e-004,1.163011e-004
4.096394e-004,1.033359e-004
2.608634e-004,1.052807e-004
9.604297e-005,1.253768e-004
-5.321919e-005,1.556830e-004
-1.528894e-004,1.804790e-004
-1.726613e-004,1.882581e-004
-1.063766e-004,1.746447e-004
2.003433e-005,1.381799e-004
1.611932e-004,8.307774e-005
2.717218e-004,2.068259e-005
3.282826e-004,-3.231276e-005
3.310377e-004,-6.472583e-005
2.948972e-004,-7.477388e-005
2.273159e-004,-6.877746e-005
1.378558e-004,-5.451571e-005
4.547859e-005,-3.814712e-005
-2.955766e-005,-2.356124e-005
-7.785312e-005,-1.497178e-005
-9.260106e-005,-1.237873e-005
-7.201877e-005,-1.562004e-005
-2.696461e-005,-2.712668e-005
1.922400e-005,-3.911951e-005
3.850977e-005,-4.365734e-005
9.662150e-006,-4.592625e-005
-7.801519e-005,-5.370539e-005
-2.237119e-004,-6.650855e-005
-4.170558e-004,-7.866345e-005
-6.287130e-004,-8.401160e-005
-8.147639e-004,-8.239095e-005
-9.134617e-004,-7.201877e-005
-8.619250e-004,-5.370539e-005
-6.316302e-004,-3.328516e-005
-2.639041e-004,-2.048200e-005
1.454729e-004,-2.096819e-005
4.866205e-004,-3.085418e-005
6.930918e-004,-3.895744e-005
7.629420e-004,-3.717472e-005
7.378219e-004,-2.712668e-005
6.679717e-004,-1.156841e-005
6.000663e-004,7.069104e-006
5.572810e-004,2.765140e-005
5.297298e-004,4.353380e-005
4.765724e-004,4.839576e-005
3.650714e-004,4.191315e-005
2.077060e-004,3.137890e-005
8.388807e-005,1.922400e-005
8.421220e-005,8.365628e-006
2.112714e-004,3.827798e-006
3.663680e-004,8.689757e-006
4.130428e-004,2.392390e-005
2.832284e-004,4.385793e-005
1.906194e-005,5.633696e-005
-2.689281e-004,6.071273e-005
-4.804233e-004,6.476436e-005
-5.804176e-004,7.448828e-005
-5.825244e-004,8.858796e-005
-5.185086e-004,1.028497e-004
-4.193247e-004,1.109530e-004
-3.024756e-004,1.103047e-004
-1.784957e-004,1.022014e-004
-4.576419e-005,8.939829e-005
9.636710e-005,7.432621e-005
2.355812e-004,5.682316e-005
3.470822e-004,3.121684e-005
4.130428e-004,-2.330684e-006
4.247115e-004,-3.749886e-005
3.739850e-004,-6.569822e-005
2.542187e-004,-8.320127e-005
6.281957e-005,-9.017008e-005
-1.903264e-004,-8.660465e-005
-4.826922e-004,-6.893953e-005
-7.839716e-004,-4.009190e-005
-1.069207e-003,-1.043395e-005
-1.328349e-003,1.436204e-005
-1.555727e-003,3.170303e-005
-1.735781e-003,4.126489e-005
-1.827510e-003,4.450619e-005
-1.793314e-003,4.450619e-005
-1.631897e-003,4.094075e-005
-1.391717e-003,3.121684e-005
-1.154453e-003,1.176900e-005
-1.001301e-003,-1.302699e-005
-9.635399e-004,-3.441962e-005
-9.962771e-004,-4.333321e-005
-9.831497e-004,-3.522994e-005
-7.966127e-004,-1.205460e-005
-3.603329e-004,1.582063e-005
3.559958e-004,3.883391e-005
1.289331e-003,5.179913e-005
2.208244e-003,5.439218e-005
2.776448e-003,5.147500e-005
2.703194e-003,4.596478e-005
1.962390e-003,3.948217e-005
8.407334e-004,3.008238e-005
-2.203085e-004,1.549650e-005
-8.591698e-004,-5.571990e-006
-9.944944e-004,-2.939559e-005
-7.424828e-004,-5.095028e-005
-3.039342e-004,-6.796713e-005
1.365593e-004,-8.287714e-005
4.730070e-004,-9.924574e-005
6.648924e-004,-1.183694e-004
7.146465e-004,-1.426792e-004
6.637580e-004,-1.724992e-004
5.752702e-004,-1.987538e-004
4.969927e-004,-2.063709e-004
4.553419e-004,-1.906506e-004
4.621486e-004,-1.596961e-004
5.131992e-004,-1.212866e-004
5.939078e-004,-7.866345e-005
6.898505e-004,-2.890940e-005
7.937344e-004,2.230324e-005
8.969702e-004,6.379197e-005
9.809200e-004,8.567078e-005
1.020464e-003,8.502253e-005
9.914543e-004,6.638501e-005
8.874083e-004,3.899597e-005
7.195084e-004,1.063454e-005
5.107682e-004,-1.691656e-005
2.908455e-004,-4.171255e-005
9.928427e-005,-6.375343e-005
-3.134038e-005,-8.077029e-005
-8.692878e-005,-8.498399e-005
-6.278104e-005,-7.639453e-005
3.397195e-005,-5.532604e-005
1.746447e-004,-2.161646e-005
3.227724e-004,2.408596e-005
4.493454e-004,7.708132e-005
5.222749e-004,1.299146e-004
4.918065e-004,1.751308e-004
2.803112e-004,2.028440e-004
-1.788198e-004,2.073818e-004
-8.624112e-004,1.884202e-004
-1.655397e-003,1.539003e-004
-2.367836e-003,1.154908e-004
-2.806710e-003,8.761556e-005
-2.846092e-003,7.529860e-005
-2.469451e-003,8.064676e-005
-1.791532e-003,1.047945e-004
-1.017508e-003,1.422316e-004
-3.391023e-004,1.777239e-004
1.276457e-004,2.012234e-004
3.521062e-004,2.112714e-004
3.657197e-004,2.085163e-004
2.457913e-004,1.960373e-004
8.761556e-005,1.811273e-004
-2.988179e-005,1.678379e-004
-6.618442e-005,1.595726e-004
-4.236081e-005,1.527658e-004
-8.002969e-006,1.381799e-004
-5.247859e-006,1.116012e-004
-2.826113e-005,7.238143e-005
-3.539201e-005,2.570661e-005
1.711715e-005,-1.740276e-005
1.464453e-004,-4.657451e-005
3.342790e-004,-5.937767e-005
5.376711e-004,-6.051213e-005
7.057329e-004,-4.981582e-005
8.026481e-004,-3.247483e-005
8.305233e-004,-1.659243e-005
8.151271e-004,-8.327101e-006
7.618075e-004,-7.840905e-006
6.451205e-004,-6.382316e-006
4.214702e-004,2.369210e-006
7.108490e-005,1.792748e-005
-3.413713e-004,3.769945e-005
-6.938633e-004,5.649903e-005
-8.789418e-004,7.027457e-005
-8.635456e-004,7.578480e-005
-6.922426e-004,7.319175e-005
-4.420138e-004,6.881599e-005
-1.799543e-004,6.800567e-005
4.839576e-005,7.059870e-005
2.196988e-004,6.946425e-005
3.237448e-004,5.698522e-005
3.598853e-004,3.251336e-005
3.412478e-004,3.179537e-006
2.992729e-004,-2.177852e-005
2.752873e-004,-3.685059e-005
3.023521e-004,-4.414354e-005
3.841952e-004,-4.900549e-005
4.963444e-004,-5.629843e-005
6.049282e-004,-6.634648e-005
6.869333e-004,-7.769105e-005
7.340944e-004,-8.790116e-005
7.540284e-004,-1.010285e-004
7.644006e-004,-1.161005e-004
7.832002e-004,-1.255003e-004
8.157754e-004,-1.227452e-004
8.538608e-004,-1.070249e-004
8.733086e-004,-8.320127e-005
8.451092e-004,-5.354332e-005
7.465734e-004,-2.210265e-005
5.830494e-004,6.420843e-006
3.874364e-004,2.311357e-005
1.986303e-004,3.105477e-005
4.855782e-005,4.288554e-005
-4.641245e-005,6.136099e-005
-8.919769e-005,7.935023e-005
-9.438377e-005,9.166720e-005
-8.336334e-005,9.701536e-005
-6.910160e-005,9.733949e-005
-5.386745e-005,9.620503e-005
-4.317114e-005,9.669123e-005
-4.430560e-005,1.017153e-004
-5.289506e-005,1.128978e-004
-4.997788e-005,1.287802e-004
-2.242678e-005,1.466074e-004
2.133085e-005,1.673517e-004
6.395403e-005,1.895547e-004
9.150514e-005,2.085163e-004
1.009049e-004,2.185644e-004
1.046324e-004,2.200230e-004
1.153287e-004,2.208333e-004
1.289422e-004,2.297469e-004
1.325077e-004,2.488706e-004
1.213252e-004,2.688046e-004
9.377405e-005,2.814457e-004
4.677511e-005,2.804733e-004
-2.015787e-005,2.642668e-004
-9.179074e-005,2.333123e-004
-1.558065e-004,1.924718e-004
-2.128535e-004,1.492004e-004
-2.716832e-004,1.088461e-004
-3.313232e-004,7.627100e-005
-3.745946e-004,4.985435e-005
-3.823738e-004,2.603075e-005
-3.538503e-004,2.207145e-006
-2.985860e-004,-2.599222e-005
-2.298704e-004,-6.407756e-005
-1.561307e-004,-1.115627e-004
-7.526008e-005,-1.587237e-004
2.278944e-005,-1.953505e-004
1.380179e-004,-2.130156e-004
2.566497e-004,-2.113949e-004
3.569682e-004,-1.951884e-004
4.401077e-004,-1.724992e-004
5.396159e-004,-1.486757e-004
7.080018e-004,-1.248521e-004
9.645515e-004,-1.071869e-004
1.236011e-003,-9.956987e-005
1.373281e-003,-1.071869e-004
1.228718e-003,-1.324691e-004
7.644006e-004,-1.729855e-004
1.106288e-004,-2.238740e-004
-5.167259e-004,-2.794623e-004
-9.601365e-004,-3.301888e-004
-1.204693e-003,-3.632501e-004
-1.332401e-003,-3.716775e-004
-1.422185e-003,-3.532020e-004
-1.489118e-003,-3.068514e-004
-1.503379e-003,-2.444563e-004
-1.428991e-003,-1.872472e-004
-1.251854e-003,-1.535376e-004
-9.953047e-004,-1.472171e-004
-7.133111e-004,-1.558065e-004
-4.624341e-004,-1.614788e-004
-2.797865e-004,-1.493239e-004
-1.715269e-004,-1.172350e-004
-1.272830e-004,-7.882551e-005
-1.298761e-004,-5.159854e-005
-1.535376e-004,-3.879538e-005
-1.744440e-004,-3.117831e-005
-1.788198e-004,-1.886135e-005
-1.632615e-004,1.002961e-007
-1.404103e-004,2.570661e-005
-1.300381e-004,5.747142e-005
-1.446240e-004,9.604297e-005
-1.763888e-004,1.370455e-004
-2.089639e-004,1.761032e-004
-2.329496e-004,2.065715e-004
-2.481837e-004,2.278021e-004
-2.543422e-004,2.448189e-004
-2.525595e-004,2.587565e-004
-2.598524e-004,2.694529e-004
-3.013411e-004,2.762596e-004
-3.760532e-004,2.816078e-004
-4.504412e-004,2.900352e-004
-4.797750e-004,3.023521e-004
-4.345588e-004,3.188828e-004
-3.175477e-004,3.358997e-004
-1.635857e-004,3.454615e-004
-1.886135e-005,3.401134e-004
7.740545e-005,3.224483e-004
1.125736e-004,2.981384e-004
9.960840e-005,2.726942e-004
6.849186e-005,2.480603e-004
5.163707e-005,2.222919e-004
6.460230e-005,1.983062e-004
1.078737e-004,1.816135e-004
1.767515e-004,1.748067e-004
2.705873e-004,1.762653e-004
3.854917e-004,1.791825e-004
5.159543e-004,1.757791e-004
6.593821e-004,1.587622e-004
8.165857e-004,1.266733e-004
9.726548e-004,8.291567e-005
1.095014e-003,3.478227e-005
1.153844e-003,-8.165034e-006
1.135531e-003,-3.441962e-005
1.047367e-003,-3.717472e-005
9.125284e-004,-1.643037e-005
7.631041e-004,1.517237e-005
6.272933e-004,4.385793e-005
5.250300e-004,6.006446e-005
4.600418e-004,6.281957e-005
4.224426e-004,6.038860e-005
3.986190e-004,6.055066e-005
3.728506e-004,6.444023e-005
3.380065e-004,6.768153e-005
2.924662e-004,7.221937e-005
2.396328e-004,8.016056e-005
1.851789e-004,9.442231e-005
1.436902e-004,1.195424e-004
1.294284e-004,1.527658e-004
1.363972e-004,1.869616e-004
1.467694e-004,2.125679e-004
1.359110e-004,2.224539e-004
8.696730e-005,2.137024e-004
1.079661e-005,1.855030e-004
-7.769105e-005,1.414213e-004
-1.823852e-004,9.053274e-005
-3.185201e-004,4.256141e-005
-5.052193e-004,-2.492749e-006
-7.332451e-004,-4.884343e-005
-9.572193e-004,-1.109144e-004
-1.114099e-003,-1.994021e-004
-1.162070e-003,-3.097686e-004
-1.094489e-003,-4.225660e-004
-9.419852e-004,-5.061917e-004
-7.484793e-004,-5.332566e-004
-5.510838e-004,-4.977643e-004
-3.671397e-004,-4.155972e-004
-1.989159e-004,-3.177098e-004
-4.706071e-005,-2.259808e-004
8.712937e-005,-1.535376e-004
2.051129e-004,-1.081593e-004
3.057555e-004,-8.903562e-005
3.801435e-004,-8.903562e-005
4.170944e-004,-9.632856e-005
4.140152e-004,-1.024870e-004
3.874364e-004,-1.067007e-004
3.655576e-004,-1.105903e-004
3.752816e-004,-1.169109e-004
4.344354e-004,-1.284175e-004
5.274609e-004,-1.433275e-004
6.191900e-004,-1.574272e-004
6.720233e-004,-1.702303e-004
6.708889e-004,-1.822232e-004
6.235657e-004,-1.914609e-004
5.459364e-004,-1.878955e-004
4.519385e-004,-1.652063e-004
3.457856e-004,-1.191798e-004
2.349330e-004,-5.240886e-005
1.287802e-004,2.214118e-005
3.251336e-005,9.393611e-005
-5.775702e-005,1.616794e-004
-1.483515e-004,2.218057e-004
-2.404046e-004,2.692908e-004
-3.157650e-004,2.934386e-004
-3.520676e-004,2.908455e-004
-3.413713e-004,2.694529e-004
-3.019894e-004,2.414156e-004
-2.781658e-004,2.167816e-004
-3.151167e-004,1.973338e-004
-4.434724e-004,1.804790e-004
-6.663122e-004,1.655690e-004
-9.453886e-004,1.560071e-004
-1.217334e-003,1.511452e-004
-1.399333e-003,1.433660e-004
-1.414243e-003,1.287802e-004
-1.233541e-003,1.120874e-004
-8.888278e-004,9.863601e-005
-4.561135e-004,8.826383e-005
-2.226472e-005,7.724339e-005
3.490270e-004,6.541262e-005
6.240519e-004,4.969228e-005
7.914655e-004,2.441009e-005
8.569400e-004,-1.059601e-005
8.358714e-004,-4.900549e-005
7.616455e-004,-7.526008e-005
6.754267e-004,-7.590833e-005
6.029834e-004,-5.159854e-005
5.524190e-004,-1.513384e-005
5.156302e-004,2.278944e-005
4.653899e-004,5.698522e-005
3.734988e-004,8.453633e-005
2.286124e-004,1.059289e-004
3.899597e-005,1.193804e-004
-1.723372e-004,1.261871e-004
-3.684362e-004,1.347766e-004
-5.014918e-004,1.457970e-004
-5.343910e-004,1.527658e-004
-4.642168e-004,1.503348e-004
-3.361852e-004,1.362352e-004
-2.112329e-004,1.133840e-004
-1.337657e-004,8.518459e-005
-1.143178e-004,6.119892e-005
-1.392759e-004,4.790957e-005
-1.833576e-004,5.017848e-005
-2.191741e-004,6.865393e-005
-2.266291e-004,9.879807e-005
-1.982676e-004,1.284560e-004
-1.438137e-004,1.464453e-004
-7.509801e-005,1.451487e-004
4.244267e-007,1.175977e-004
8.113296e-005,5.925414e-005
1.754550e-004,-2.761287e-005
2.973281e-004,-1.302002e-004
4.546936e-004,-2.267911e-004
6.316690e-004,-2.961551e-004
7.877380e-004,-3.274337e-004
8.812498e-004,-3.217614e-004
8.921082e-004,-2.867553e-004
8.444610e-004,-2.357047e-004
8.148029e-004,-1.844921e-004
8.814118e-004,-1.467309e-004
1.053687e-003,-1.219349e-004
1.256918e-003,-1.003802e-004
1.379439e-003,-6.991192e-005
1.345730e-003,-3.069211e-005
1.164054e-003,1.176900e-005
9.178766e-004,4.839576e-005
6.964952e-004,6.962632e-005
5.297298e-004,7.011251e-005
3.820883e-004,5.471631e-005
1.929580e-004,3.364782e-005
-7.331529e-005,1.727922e-005
-4.019837e-004,1.436204e-005
-7.300038e-004,2.829966e-005
-9.837981e-004,5.763348e-005
-1.118150e-003,9.247753e-005
-1.131926e-003,1.203528e-004
-1.054459e-003,1.304008e-004
-9.282097e-004,1.265113e-004
-7.891576e-004,1.210010e-004
-6.606399e-004,1.224596e-004
-5.544871e-004,1.307249e-004
-4.679442e-004,1.407730e-004
-3.932322e-004,1.477418e-004
-3.259751e-004,1.485521e-004
-2.663351e-004,1.365593e-004
-2.237119e-004,1.130598e-004
-2.089639e-004,8.259154e-005
-2.079916e-004,5.179913e-005
-1.780095e-004,2.927205e-005
-6.018800e-005,2.246531e-005
1.855030e-004,3.737532e-005
5.365366e-004,7.335382e-005
9.076665e-004,1.214872e-004
1.201977e-003,1.649207e-004
1.360154e-003,1.906891e-004
1.373605e-003,1.944166e-004
1.284793e-003,1.824238e-004
1.162109e-003,1.568175e-004
1.065032e-003,1.229458e-004
1.010254e-003,8.988448e-005
9.739513e-004,6.508849e-005
9.115561e-004,5.098881e-005
7.961654e-004,4.855782e-005
6.165970e-004,4.985435e-005
3.530786e-004,5.341978e-005
-1.562004e-005,5.876794e-005
-4.878783e-004,5.909207e-005
-1.004056e-003,5.179913e-005
-1.458163e-003,3.818564e-005
-1.748422e-003,1.954813e-005
-1.834479e-003,4.244267e-007
-1.748422e-003,-9.299492e-006
-1.554592e-003,-5.571990e-006
-1.322028e-003,9.013888e-006
-1.110047e-003,2.473422e-005
-9.531677e-004,3.251336e-005
-8.633835e-004,3.073064e-005
-8.231914e-004,2.311357e-005
-8.047159e-004,1.209313e-005
-7.868887e-004,-6.868512e-006
-7.599859e-004,-3.830918e-005
-7.274108e-004,-8.222889e-005
-6.964563e-004,-1.303623e-004
-6.577227e-004,-1.721751e-004
-5.928966e-004,-2.023193e-004
-4.896610e-004,-2.194982e-004
-3.574157e-004,-2.186879e-004
-2.175534e-004,-1.958366e-004
-9.956987e-005,-1.541859e-004
-2.064406e-005,-1.003802e-004
2.035846e-005,-4.398147e-005
3.186510e-005,5.772582e-006
1.679302e-005,4.110282e-005
-2.031993e-005,5.698522e-005
-6.812920e-005,4.904402e-005
-1.162626e-004,1.630683e-005
-1.575892e-004,-3.036798e-005
-1.867610e-004,-7.266703e-005
-1.979435e-004,-9.811128e-005
-1.870851e-004,-1.075111e-004
-1.509446e-004,-1.049180e-004
-9.649063e-005,-9.730095e-005
-3.555407e-005,-8.709084e-005
1.403791e-005,-7.639453e-005
3.867184e-005,-6.521203e-005
4.547859e-005,-5.727082e-005
5.747142e-005,-5.013995e-005
9.166720e-005,-3.636440e-005
1.642725e-004,-9.947754e-006
2.846870e-004,2.667901e-005
4.626348e-004,6.622294e-005
6.934159e-004,1.017153e-004
9.478587e-004,1.300767e-004
1.193064e-003,1.466074e-004
1.400022e-003,1.545486e-004
1.548798e-003,1.602208e-004
1.628210e-003,1.647587e-004
1.635503e-003,1.654069e-004
1.582184e-003,1.649207e-004
1.496289e-003,1.657311e-004
1.401480e-003,1.696206e-004
1.277176e-003,1.762653e-004
1.067787e-003,1.786963e-004
7.425218e-004,1.686482e-004
3.295791e-004,1.448246e-004
-7.866345e-005,1.107909e-004
-3.724878e-004,7.335382e-005
-4.935506e-004,4.077869e-005
-4.567618e-004,1.938607e-005
-3.309991e-004,1.290346e-005
-1.979435e-004,1.695509e-005
-1.081593e-004,2.181705e-005
-6.035006e-005,1.663096e-005
-8.651231e-006,-2.330684e-006
9.604297e-005,-2.907146e-005
2.713976e-004,-5.240886e-005
4.903480e-004,-6.618442e-005
6.994124e-004,-7.153257e-005
8.353853e-004,-6.748093e-005
8.397610e-004,-5.240886e-005
6.767232e-004,-3.166451e-005
3.546993e-004,-1.156841e-005
-7.866345e-005,5.448451e-006
-5.595111e-004,1.776542e-005
-1.007298e-003,3.056858e-005
-1.353955e-003,5.066468e-005
-1.568530e-003,8.210535e-005
-1.658962e-003,1.201907e-004
-1.669821e-003,1.517934e-004
-1.645511e-003,1.624898e-004
-1.585060e-003,1.524417e-004
-1.463187e-003,1.269974e-004
-1.260768e-003,9.636710e-005
-9.820153e-004,7.205730e-005
-6.392473e-004,6.427816e-005
-2.489941e-004,7.659513e-005
1.730240e-004,1.034980e-004
5.883976e-004,1.331559e-004
9.425106e-004,1.542244e-004
1.178478e-003,1.615174e-004
1.267614e-003,1.587622e-004
1.208460e-003,1.501728e-004
1.021599e-003,1.398006e-004
7.481941e-004,1.299146e-004
4.373526e-004,1.172735e-004
1.200286e-004,9.620503e-005
-1.888679e-004,6.849186e-005
-4.828543e-004,3.834771e-005
-7.646858e-004,1.047248e-005
-1.043924e-003,-9.137427e-006
-1.316518e-003,-1.610623e-005
-1.543247e-003,-9.137427e-006
-1.665283e-003,2.045080e-006
-1.647131e-003,3.827798e-006
-1.489928e-003,-8.813297e-006
-1.229327e-003,-3.166451e-005
-9.254545e-004,-5.775702e-005
-6.366542e-004,-8.012203e-005
-3.985803e-004,-9.762508e-005
-2.143121e-004,-1.131834e-004
-6.812920e-005,-1.251762e-004
6.670914e-005,-1.271210e-004
2.115955e-004,-1.175591e-004
3.785229e-004,-9.811128e-005
5.679773e-004,-7.688072e-005
7.681281e-004,-5.808115e-005
9.549896e-004,-4.608832e-005
1.101173e-003,-4.203669e-005
1.175399e-003,-4.187462e-005
1.164054e-003,-4.414354e-005
1.094528e-003,-4.430560e-005
1.040722e-003,-3.766092e-005
1.057901e-003,-2.096819e-005
1.122079e-003,6.907039e-006
1.149306e-003,4.304760e-005
1.069408e-003,8.340186e-005
8.935668e-004,1.148425e-004
7.109190e-004,1.281319e-004
6.268070e-004,1.195424e-004
6.823955e-004,9.377405e-005
8.209614e-004,6.087479e-005
9.311660e-004,3.510640e-005
9.196593e-004,2.246531e-005
7.582422e-004,1.792748e-005
4.934272e-004,1.257933e-005
2.169437e-004,7.717366e-006
1.646889e-005,5.610517e-006
-6.002593e-005,5.286386e-006
-2.566809e-005,2.531276e-006
6.233338e-005,-1.358292e-006
1.453108e-004,-4.599598e-006
1.955511e-004,-4.599598e-006
2.184023e-004,1.883015e-006
2.368777e-004,1.371378e-005
2.678322e-004,2.878586e-005
3.088348e-004,4.175108e-005
3.433547e-004,4.596478e-005
3.558337e-004,4.288554e-005
3.425443e-004,3.332369e-005
3.072141e-004,1.825161e-005
2.521119e-004,2.855406e-006
1.720516e-004,-8.651231e-006
5.795762e-005,-1.464765e-005
-9.308726e-005,-1.594417e-005
-2.658489e-004,-1.383732e-005
-4.305072e-004,-1.010982e-005
-5.603214e-004,-2.238345e-007
-6.445954e-004,1.533444e-005
-6.846256e-004,2.732727e-005
-6.885151e-004,3.202716e-005
-6.799257e-004,2.878586e-005
-6.854359e-004,1.501031e-005
-7.136352e-004,-1.156841e-005
-7.419966e-004,-4.317114e-005
-7.207661e-004,-6.748093e-005
-6.091031e-004,-6.780506e-005
-4.133283e-004,-3.911951e-005
-1.733096e-004,9.175954e-006
7.076077e-005,6.103685e-005
2.948972e-004,9.798775e-005
4.825688e-004,1.080358e-004
6.112488e-004,9.118101e-005
6.598684e-004,5.682316e-005
6.242140e-004,2.019640e-005
5.315125e-004,-8.327101e-006
4.222805e-004,-2.420950e-005
3.297412e-004,-3.004385e-005
2.679943e-004,-2.615428e-005
2.316917e-004,-1.691656e-005
2.010613e-004,-6.220251e-006
1.611932e-004,1.883015e-006
1.107909e-004,6.744974e-006
5.909207e-005,1.047248e-005
1.760335e-005,1.484824e-005
-1.124428e-005,1.727922e-005
-3.441962e-005,1.565857e-005
-6.083626e-005,1.338965e-005
-9.341139e-005,1.436204e-005
-1.332795e-004,2.084466e-005
-1.874093e-004,3.218923e-005
-2.608248e-004,4.758544e-005
-3.460712e-004,6.508849e-005
-4.280762e-004,8.453633e-005
-4.867438e-004,1.081979e-004
-5.193189e-004,1.320215e-004
-5.348772e-004,1.474177e-004
-5.434667e-004,1.472556e-004
-5.423322e-004,1.362352e-004
-5.117019e-004,1.221355e-004
-4.303451e-004,1.083599e-004
-2.987481e-004,9.750155e-005
-1.323070e-004,9.312579e-005
5.682316e-005,9.636710e-005
2.581083e-004,1.034980e-004
4.504799e-004,1.125736e-004
5.934216e-004,1.187321e-004
6.533858e-004,1.153287e-004
6.165970e-004,9.814982e-005
4.632831e-004,7.157111e-005
1.853410e-004,4.612685e-005
-2.039399e-004,2.522042e-005
-6.590192e-004,9.824214e-006
-1.084441e-003,-1.844488e-006
-1.361086e-003,-1.399939e-005
-1.403871e-003,-2.939559e-005
-1.194483e-003,-4.949169e-005
-7.823509e-004,-6.877746e-005
-2.948585e-004,-7.914964e-005
1.141943e-004,-7.639453e-005
3.511338e-004,-5.986387e-005
4.026706e-004,-3.425755e-005
3.284447e-004,-3.951337e-006
2.146748e-004,2.100672e-005
1.380179e-004,3.073064e-005
1.422316e-004,2.376183e-005
2.354192e-004,5.772582e-006
4.010499e-004,-1.480971e-005
6.029834e-004,-2.631635e-005
7.998929e-004,-2.291298e-005
9.455898e-004,-8.327101e-006
9.927509e-004,7.393235e-006
9.125284e-004,2.181705e-005
7.070294e-004,3.478227e-005
4.305458e-004,4.628891e-005
1.689724e-004,5.941620e-005
-2.534396e-005,7.335382e-005
-1.673132e-004,8.518459e-005
-3.157650e-004,9.361198e-005
-5.232086e-004,1.056048e-004
-7.958023e-004,1.263492e-004
-1.084116e-003,1.551968e-004
-1.316356e-003,1.846927e-004
-1.430936e-003,2.046267e-004
-1.407761e-003,2.119197e-004
-1.269033e-003,2.083542e-004
-1.069044e-003,1.968476e-004
-8.705144e-004,1.806411e-004
-7.147696e-004,1.628139e-004
-6.150996e-004,1.420695e-004
-5.624284e-004,1.130598e-004
-5.292050e-004,7.853991e-005
-4.841508e-004,3.850977e-005
-4.029561e-004,-4.275467e-006
-2.784900e-004,-4.414354e-005
-1.185315e-004,-7.412562e-005
5.082674e-005,-9.146661e-005
1.952270e-004,-1.026491e-004
2.940868e-004,-1.144799e-004
3.469201e-004,-1.276072e-004
3.697713e-004,-1.434896e-004
3.804677e-004,-1.596961e-004
3.871123e-004,-1.739578e-004
3.848434e-004,-1.877334e-004
3.593991e-004,-2.010227e-004
3.028383e-004,-2.105846e-004
2.192126e-004,-2.084778e-004
1.104668e-004,-1.867610e-004
-2.145439e-005,-1.434896e-004
-1.608306e-004,-9.000801e-005
-2.831898e-004,-4.754691e-005
-3.663293e-004,-3.377135e-005
-3.924218e-004,-5.483985e-005
-3.564433e-004,-9.924574e-005
-2.671454e-004,-1.506204e-004
-1.319829e-004,-1.937298e-004
3.964423e-005,-2.175534e-004
2.315296e-004,-2.159328e-004
4.248735e-004,-1.914609e-004
6.002283e-004,-1.545100e-004
7.420356e-004,-1.136696e-004
8.420299e-004,-7.574627e-005
8.984287e-004,-4.625038e-005
9.149594e-004,-2.518189e-005
9.019942e-004,-1.010982e-005
8.747672e-004,4.244267e-007
8.433264e-004,1.031041e-005
8.109134e-004,2.586868e-005
7.762313e-004,5.779555e-005
7.324737e-004,1.073875e-004
6.866092e-004,1.658931e-004
6.588960e-004,2.224539e-004
6.671614e-004,2.675081e-004
6.992503e-004,2.911697e-004
7.206429e-004,2.919800e-004
7.058950e-004,2.736665e-004
6.512789e-004,2.427121e-004
5.674911e-004,2.077060e-004
4.705760e-004,1.777239e-004
3.866261e-004,1.532520e-004
3.435167e-004,1.313732e-004
3.508097e-004,1.077117e-004
3.927846e-004,8.356393e-005
4.394594e-004,6.427816e-005
4.645796e-004,5.682316e-005
4.550177e-004,6.217131e-005
4.161220e-004,7.691926e-005
3.649094e-004,9.328785e-005
3.141829e-004,1.096565e-004
2.679943e-004,1.261871e-004
2.211574e-004,1.441764e-004
1.569795e-004,1.620035e-004
7.043664e-005,1.762653e-004
9.106226e-007,1.814514e-004
1.971020e-005,1.725378e-004
1.451487e-004,1.509831e-004
3.030004e-004,1.287802e-004
3.700955e-004,1.195424e-004
2.697770e-004,1.245665e-004
3.040651e-005,1.360731e-004
-2.389460e-004,1.417454e-004
-4.275900e-004,1.308870e-004
-4.828543e-004,1.020394e-004
-4.284004e-004,6.249544e-005
-3.193304e-004,2.214118e-005
-2.058847e-004,-7.516774e-006
-1.143178e-004,-2.356124e-005
-3.279896e-005,-2.680255e-005
8.340186e-005,-2.469570e-005
2.670219e-004,-2.372330e-005
5.034753e-004,-2.728874e-005
7.230739e-004,-3.701266e-005
8.399231e-004,-5.565017e-005
7.906552e-004,-7.477388e-005
5.629533e-004,-7.509801e-005
2.064095e-004,-4.560212e-005
-1.898402e-004,3.179537e-006
-5.436288e-004,4.645098e-005
-8.110364e-004,6.071273e-005
-9.875256e-004,3.802358e-005
-1.096757e-003,-1.270286e-005
-1.159801e-003,-6.991192e-005
-1.166121e-003,-1.149661e-004
-1.094651e-003,-1.452723e-004
-9.468471e-004,-1.731475e-004
-7.510723e-004,-2.146362e-004
-5.424943e-004,-2.724935e-004
-3.587123e-004,-3.339163e-004
-2.287359e-004,-3.854531e-004
-1.611547e-004,-4.092766e-004
-1.457585e-004,-3.963114e-004
-1.554824e-004,-3.520676e-004
-1.481895e-004,-2.857829e-004
-9.665269e-005,-2.018331e-004
-8.720958e-007,-1.024870e-004
1.229458e-004,6.258778e-006
2.579462e-004,1.091703e-004
3.877606e-004,1.874478e-004
4.872688e-004,2.318537e-004
5.260024e-004,2.488706e-004
4.919686e-004,2.474120e-004
4.070464e-004,2.354192e-004
2.995970e-004,2.198609e-004
1.884202e-004,2.075439e-004
8.469840e-005,2.059233e-004
-1.626830e-005,2.193747e-004
-1.454343e-004,2.412535e-004
-3.423437e-004,2.584324e-004
-6.155858e-004,2.623220e-004
-9.335578e-004,2.449810e-004
-1.248775e-003,2.086784e-004
-1.510834e-003,1.602208e-004
-1.674845e-003,1.083599e-004
-1.723302e-003,6.249544e-005
-1.666903e-003,3.445814e-005
-1.525582e-003,2.781346e-005
-1.307605e-003,3.721326e-005
-1.019290e-003,5.001641e-005
-6.698776e-004,5.050261e-005
-2.637420e-004,3.332369e-005
1.853410e-004,3.503668e-006
6.373413e-004,-2.664048e-005
1.024354e-003,-4.446767e-005
1.270531e-003,-3.944364e-005
1.321420e-003,-6.220251e-006
1.169564e-003,4.790957e-005
8.601813e-004,1.111150e-004
4.572866e-004,1.710792e-004
4.272347e-005,2.196988e-004
-3.021515e-004,2.600531e-004
-5.280705e-004,2.910076e-004
-6.309819e-004,3.044590e-004
-6.450816e-004,2.887386e-004
-6.257959e-004,2.422259e-004
-6.185029e-004,1.770756e-004
-6.368163e-004,1.112771e-004
-6.609640e-004,5.957827e-005
-6.575607e-004,2.975825e-005
-5.982447e-004,2.441009e-005
-4.762096e-004,3.737532e-005
-3.113892e-004,5.682316e-005
-1.371690e-004,6.978838e-005
2.133085e-005,7.448828e-005
1.561692e-004,7.076077e-005
2.736665e-004,5.974033e-005
3.824124e-004,4.645098e-005
4.804620e-004,3.364782e-005
5.491777e-004,2.359977e-005
5.764047e-004,2.149292e-005
5.754323e-004,2.651694e-005
5.712186e-004,3.251336e-005
5.817529e-004,2.943412e-005
6.016869e-004,1.760335e-005
6.107626e-004,-7.100305e-007
5.879113e-004,-2.080613e-005
5.263265e-004,-3.911951e-005
4.378388e-004,-5.402952e-005
3.606957e-004,-6.456376e-005
3.438409e-004,-7.169464e-005
4.013741e-004,-8.028410e-005
4.838654e-004,-9.211487e-005
5.159543e-004,-1.029732e-004
4.734932e-004,-1.096179e-004
4.078567e-004,-1.110765e-004
3.639370e-004,-1.037836e-004
3.483787e-004,-8.595638e-005
3.179104e-004,-6.310517e-005
2.099749e-004,-4.560212e-005
1.452411e-005,-4.349527e-005
-1.963229e-004,-5.824321e-005
-3.322956e-004,-7.931171e-005
-3.566054e-004,-9.486997e-005
-2.898345e-004,-9.730095e-005
-1.789819e-004,-8.595638e-005
-6.278104e-005,-6.602235e-005
3.932010e-005,-4.657451e-005
1.323456e-004,-3.053005e-005
2.337985e-004,-2.080613e-005
3.569682e-004,-2.015787e-005
4.940755e-004,-2.745081e-005
6.240519e-004,-3.685059e-005
7.232359e-004,-4.025397e-005
7.695867e-004,-3.782299e-005
7.567835e-004,-3.247483e-005
6.971434e-004,-2.890940e-005
6.178935e-004,-3.279896e-005
5.477191e-004,-4.770897e-005
5.046097e-004,-7.299116e-005
4.911583e-004,-1.091317e-004
5.033132e-004,-1.603444e-004
5.344298e-004,-2.303566e-004
5.713807e-004,-3.126857e-004
5.984456e-004,-3.930701e-004
6.052523e-004,-4.509274e-004
5.947181e-004,-4.642168e-004
5.791598e-004,-4.235384e-004
5.752702e-004,-3.345645e-004
5.990939e-004,-2.144742e-004
6.483617e-004,-8.838737e-005
7.020054e-004,2.359977e-005
7.336082e-004,1.051186e-004
7.188602e-004,1.534141e-004
6.498203e-004,1.770756e-004
5.394538e-004,1.874478e-004
4.174185e-004,1.908512e-004
3.112657e-004,1.871237e-004
2.346088e-004,1.741585e-004
1.947408e-004,1.509831e-004
1.893926e-004,1.237561e-004
2.072198e-004,9.847395e-005
2.051129e-004,8.016056e-005
1.365593e-004,6.606088e-005
-2.168618e-006,5.277152e-005
-1.472171e-004,4.628891e-005
-2.337599e-004,5.341978e-005
-2.613110e-004,7.432621e-005
-2.943724e-004,1.015532e-004
-4.162455e-004,1.258630e-004
-6.526987e-004,1.420695e-004
-9.470092e-004,1.459591e-004
-1.206152e-003,1.410971e-004
-1.356062e-003,1.386661e-004
-1.368865e-003,1.430419e-004
-1.266116e-003,1.534141e-004
-1.109074e-003,1.655690e-004
-9.693743e-004,1.728619e-004
-8.834797e-004,1.735102e-004
-8.432874e-004,1.718895e-004
-8.181673e-004,1.707551e-004
-7.742476e-004,1.645966e-004
-6.914323e-004,1.509831e-004
-5.624284e-004,1.276457e-004
-3.862634e-004,1.004187e-004
-1.739578e-004,7.983643e-005
4.693717e-005,7.221937e-005
2.415776e-004,7.837785e-005
3.687989e-004,8.777764e-005
3.989431e-004,9.523264e-005
3.384927e-004,1.038221e-004
2.102990e-004,1.140322e-004
4.256141e-005,1.244044e-004
-1.502963e-004,1.312111e-004
-3.590364e-004,1.320215e-004
-5.676145e-004,1.263492e-004
-7.483172e-004,1.185700e-004
-8.679213e-004,1.150046e-004
-9.001723e-004,1.174356e-004
-8.345360e-004,1.284560e-004
-6.894875e-004,1.479039e-004
-5.073261e-004,1.741585e-004
-3.264613e-004,2.007372e-004
-1.616409e-004,2.127300e-004
-4.761663e-006,2.017096e-004
1.574657e-004,1.689724e-004
3.271481e-004,1.210010e-004
4.877549e-004,7.189524e-005
6.138418e-004,2.975825e-005
6.848265e-004,-3.465141e-006
6.939021e-004,-2.566809e-005
6.486858e-004,-3.296103e-005
5.707324e-004,-2.145439e-005
4.809482e-004,9.662150e-006
3.872744e-004,4.953022e-005
2.961937e-004,8.388807e-005
2.164575e-004,1.036600e-004
1.462832e-004,1.137081e-004
7.335382e-005,1.216493e-004
-2.129233e-005,1.253768e-004
-1.434896e-004,1.197045e-004
-2.781658e-004,1.038221e-004
-4.000389e-004,7.400208e-005
-4.843129e-004,3.202716e-005
-5.254775e-004,-1.027188e-005
-5.212637e-004,-3.976777e-005
-4.723200e-004,-5.192267e-005
-3.912874e-004,-4.738484e-005
-2.841623e-004,-3.409548e-005
-1.298761e-004,-3.004385e-005
9.588090e-005,-4.851930e-005
3.901916e-004,-9.017008e-005
7.107570e-004,-1.430034e-004
9.721686e-004,-1.955125e-004
1.086263e-003,-2.337599e-004
1.029702e-003,-2.480217e-004
8.525642e-004,-2.384598e-004
6.444722e-004,-2.133397e-004
4.747897e-004,-1.820611e-004
3.454615e-004,-1.488377e-004
2.307192e-004,-1.131834e-004
1.096565e-004,-8.206682e-005
-2.275091e-005,-5.856734e-005
-1.459205e-004,-3.814712e-005
-2.421873e-004,-1.983374e-005
-3.094444e-004,-7.354708e-006
-3.695707e-004,1.720949e-006
-4.527101e-004,1.209313e-005
-5.859278e-004,2.327564e-005
-7.617687e-004,2.992031e-005
-9.322613e-004,2.829966e-005
-1.032742e-003,1.987226e-005
-1.036956e-003,8.851824e-006
-9.750465e-004,-2.330684e-006
-9.058446e-004,-1.156841e-005
-8.852624e-004,-2.031993e-005
-9.382577e-004,-2.647842e-005
-1.058186e-003,-2.664048e-005
-1.211986e-003,-2.583015e-005
-1.337263e-003,-2.809907e-005
-1.362059e-003,-2.955766e-005
-1.225600e-003,-2.858526e-005
-9.003344e-004,-2.275091e-005
-4.288865e-004,-5.734055e-006
8.486046e-005,1.987226e-005
5.331332e-004,4.499239e-005
8.522401e-004,5.779555e-005
1.032781e-003,5.455424e-005
1.097445e-003,4.061663e-005
1.077835e-003,3.137890e-005
9.836751e-004,3.332369e-005
8.293889e-004,4.402000e-005
6.874196e-004,5.730935e-005
6.744543e-004,6.525056e-005
8.647191e-004,6.751947e-005
1.271017e-003,7.400208e-005
1.861585e-003,9.685329e-005
2.491697e-003,1.346145e-004
2.887787e-003,1.778859e-004
2.780013e-003,2.162954e-004
2.075512e-003,2.397949e-004
9.541793e-004,2.431983e-004
-2.125294e-004,2.297469e-004
-1.037117e-003,2.015475e-004
-1.353307e-003,1.621656e-004
-1.230137e-003,1.190562e-004
-8.998482e-004,7.837785e-005
-6.207718e-004,4.013043e-005
-5.643732e-004,8.203561e-006
-7.372968e-004,-9.299492e-006
-9.786120e-004,-6.058186e-006
-1.086061e-003,1.533444e-005
-9.496023e-004,4.256141e-005
-5.886829e-004,6.152305e-005
-1.057284e-004,6.930219e-005
3.794953e-004,7.059870e-005
7.804451e-004,7.108490e-005
1.061143e-003,6.735740e-005
1.227746e-003,5.536457e-005
1.300675e-003,3.494434e-005
1.304889e-003,1.193106e-005
1.271666e-003,-8.813297e-006
1.221587e-003,-2.907146e-005
1.167457e-003,-4.641245e-005
1.136503e-003,-5.775702e-005
1.192578e-003,-6.164659e-005
1.397915e-003,-6.180866e-005
1.698222e-003,-5.791909e-005
1.886381e-003,-4.997788e-005
1.693361e-003,-4.009190e-005
9.679548e-004,-3.279896e-005
-2.167431e-004,-3.036798e-005
-1.643890e-003,-3.053005e-005
-3.083680e-003,-2.907146e-005
-4.333210e-003,-2.518189e-005
-4.968187e-003,-2.534396e-005
-4.968187e-003,-3.522994e-005
-4.968349e-003,-4.965375e-005
-3.935013e-003,-6.148453e-005
-2.617579e-003,-6.812920e-005
-1.292532e-003,-7.574627e-005
-1.759026e-004,-9.146661e-005
6.242140e-004,-1.159385e-004
1.129048e-003,-1.421931e-004
1.427897e-003,-1.601823e-004
1.612976e-003,-1.630995e-004
1.744573e-003,-1.512687e-004
1.835168e-003,-1.269589e-004
1.869850e-003,-9.827335e-005
1.837113e-003,-7.201877e-005
1.747815e-003,-5.176060e-005
1.632100e-003,-3.377135e-005
1.511685e-003,-1.562004e-005
1.385760e-003,-5.479652e-007
1.235687e-003,7.069104e-006
1.049798e-003,9.662150e-006
8.319819e-004,9.986280e-006
6.046041e-004,1.047248e-005
4.015361e-004,1.695509e-005
2.555152e-004,3.413401e-005
1.986303e-004,6.103685e-005
2.605393e-004,8.858796e-005
4.221185e-004,1.103047e-004
6.123832e-004,1.213252e-004
7.566215e-004,1.232699e-004
8.131823e-004,1.226217e-004
7.721797e-004,1.234320e-004
6.548443e-004,1.287802e-004
4.911583e-004,1.320215e-004
3.047831e-004,1.248906e-004
1.135460e-004,1.039842e-004
-6.391550e-005,7.254349e-005
-2.078295e-004,3.559260e-005
-2.921034e-004,-5.571990e-006
-2.976136e-004,-4.219875e-005
-2.410529e-004,-5.775702e-005
-1.663408e-004,-3.992984e-005
-1.190177e-004,7.879431e-006
-1.102662e-004,6.995045e-005
-1.039456e-004,1.299146e-004
-4.932962e-005,1.741585e-004
6.136099e-005,1.968476e-004
1.764274e-004,2.007372e-004
2.025199e-004,1.924718e-004
5.747142e-005,1.752929e-004
-2.990722e-004,1.490383e-004
-8.457184e-004,1.197045e-004
-1.471615e-003,9.539470e-005
-2.003351e-003,7.999850e-005
-2.268652e-003,7.205730e-005
-2.179354e-003,6.897806e-005
-1.797366e-003,6.719534e-005
-1.298529e-003,6.525056e-005
-8.559285e-004,6.217131e-005
-5.434667e-004,5.828174e-005
-3.358611e-004,5.293359e-005
-1.567789e-004,4.758544e-005
6.217131e-005,4.742337e-005
3.495132e-004,5.163707e-005
6.853127e-004,5.957827e-005
1.003933e-003,6.508849e-005
1.237146e-003,6.573675e-005
1.362422e-003,6.346784e-005
1.407801e-003,6.168512e-005
1.408773e-003,6.233338e-005
1.361936e-003,6.022653e-005
1.231473e-003,4.985435e-005
9.938853e-004,3.170303e-005
6.864471e-004,1.679302e-005
3.751195e-004,1.031041e-005
1.075496e-004,1.241726e-005
-1.251762e-004,2.003433e-005
-3.648708e-004,2.716520e-005
-6.345474e-004,2.813760e-005
-9.056826e-004,2.716520e-005
-1.110857e-003,2.651694e-005
-1.185894e-003,2.619281e-005
-1.113612e-003,2.489629e-005
-9.248063e-004,2.781346e-005
-6.938633e-004,3.607880e-005
-4.963057e-004,4.726130e-005
-3.677879e-004,5.714729e-005
-2.927517e-004,5.957827e-005
-2.246843e-004,4.823369e-005
-1.452723e-004,2.927205e-005
-6.974985e-005,1.290346e-005
-1.010982e-005,6.258778e-006
4.337174e-005,1.176900e-005
1.101426e-004,2.489629e-005
1.999268e-004,3.688912e-005
2.978143e-004,4.742337e-005
3.788470e-004,5.844381e-005
4.243874e-004,7.221937e-005
4.281149e-004,8.939829e-005
4.052637e-004,1.047945e-004
3.743092e-004,1.135460e-004
3.469201e-004,1.130598e-004
3.219621e-004,1.023635e-004
2.908455e-004,8.469840e-005
2.313675e-004,6.362990e-005
1.111150e-004,4.596478e-005
-8.952182e-005,3.591673e-005
-3.579019e-004,3.640293e-005
-6.505919e-004,4.434413e-005
-9.145962e-004,5.325772e-005
-1.118312e-003,5.844381e-005
-1.276002e-003,5.179913e-005
-1.422509e-003,3.105477e-005
-1.572257e-003,-1.196226e-006
-1.691375e-003,-3.992984e-005
-1.724761e-003,-7.509801e-005
-1.633032e-003,-1.000561e-004
-1.413433e-003,-1.151281e-004
-1.089951e-003,-1.271210e-004
-7.052078e-004,-1.407345e-004
-3.040963e-004,-1.574272e-004
6.946425e-005,-1.744440e-004
3.820883e-004,-1.828714e-004
6.154625e-004,-1.802784e-004
7.656971e-004,-1.689338e-004
8.478643e-004,-1.524032e-004
8.904876e-004,-1.342519e-004
9.203076e-004,-1.208004e-004
9.608240e-004,-1.175591e-004
1.019330e-003,-1.279313e-004
1.081887e-003,-1.434896e-004
1.126455e-003,-1.514308e-004
1.145093e-003,-1.413827e-004
1.142500e-003,-1.057284e-004
1.123376e-003,-4.203669e-005
1.074108e-003,3.462021e-005
9.781650e-004,1.078737e-004
8.549952e-004,1.670276e-004
7.746107e-004,2.049509e-004
8.049170e-004,2.154851e-004
9.426726e-004,2.008992e-004
1.096797e-003,1.633001e-004
1.146551e-003,1.120874e-004
1.034564e-003,6.103685e-005
7.995688e-004,2.424803e-005
5.379952e-004,4.962256e-006
3.346032e-004,-1.196226e-006
2.269918e-004,-2.978945e-006
2.044647e-004,-9.461557e-006
2.266676e-004,-2.404744e-005
2.495188e-004,-4.138842e-005
2.464396e-004,-5.289506e-005
2.106232e-004,-5.111234e-005
1.475797e-004,-3.701266e-005
7.108490e-005,-1.805102e-005
-1.010982e-005,4.244267e-007
-1.036215e-004,1.760335e-005
-2.209568e-004,3.510640e-005
-3.590364e-004,5.439218e-005
-4.987367e-004,7.448828e-005
-6.186650e-004,9.685329e-005
-7.063423e-004,1.239182e-004
-7.528550e-004,1.508210e-004
-7.457241e-004,1.731861e-004
-6.791154e-004,1.898788e-004
-5.653455e-004,1.992786e-004
-4.318037e-004,1.955511e-004
-3.011791e-004,1.748067e-004
-1.752544e-004,1.428798e-004
-3.847125e-005,1.159770e-004
1.169494e-004,1.049566e-004
2.966798e-004,1.117633e-004
4.906721e-004,1.299146e-004
6.639201e-004,1.479039e-004
7.767176e-004,1.584381e-004
8.094548e-004,1.598967e-004
7.537042e-004,1.530900e-004
6.106005e-004,1.445005e-004
3.879227e-004,1.451487e-004
1.098185e-004,1.573037e-004
-1.731475e-004,1.731861e-004
-4.113835e-004,1.791825e-004
-5.687489e-004,1.624898e-004
-6.241752e-004,1.211631e-004
-5.760418e-004,6.055066e-005
-4.483344e-004,-7.030578e-006
-2.796244e-004,-7.509801e-005
-1.068628e-004,-1.396000e-004
5.131293e-005,-1.942160e-004
1.983062e-004,-2.361909e-004
3.401134e-004,-2.653627e-004
4.647416e-004,-2.793003e-004
5.410744e-004,-2.778417e-004
5.506363e-004,-2.587180e-004
4.896997e-004,-2.186879e-004
3.354135e-004,-1.571030e-004
5.196120e-005,-8.368747e-005
-3.818876e-004,-1.075808e-005
-9.244822e-004,4.385793e-005
-1.448439e-003,6.492643e-005
-1.795745e-003,5.001641e-005
-1.872240e-003,6.420843e-006
-1.700451e-003,-5.808115e-005
-1.380858e-003,-1.337657e-004
-1.019290e-003,-2.084778e-004
-6.841394e-004,-2.699005e-004
-3.909633e-004,-3.073376e-004
-1.219349e-004,-3.165753e-004
1.150046e-004,-2.958309e-004
2.788527e-004,-2.553146e-004
3.373583e-004,-2.066950e-004
2.978143e-004,-1.609926e-004
2.109473e-004,-1.258244e-004
1.347766e-004,-9.973194e-005
9.490851e-005,-7.347736e-005
7.708132e-005,-4.511592e-005
5.423011e-005,-1.675450e-005
7.879431e-006,9.500084e-006
-5.483985e-005,3.364782e-005
-1.170729e-004,5.730935e-005
-1.690959e-004,8.161915e-005
-2.091260e-004,1.033359e-004
-2.334358e-004,1.200286e-004
-2.311669e-004,1.287802e-004
-1.955125e-004,1.276457e-004
-1.567789e-004,1.185700e-004
-1.551583e-004,1.090082e-004
-1.825473e-004,1.070634e-004
-1.741199e-004,1.164632e-004
-5.402952e-005,1.341283e-004
1.961993e-004,1.553589e-004
5.120648e-004,1.772377e-004
8.010274e-004,1.968476e-004
9.914543e-004,2.104611e-004
1.058063e-003,2.190506e-004
1.022733e-003,2.229401e-004
9.224144e-004,2.221298e-004
8.036204e-004,2.169437e-004
7.156189e-004,2.107852e-004
6.945504e-004,2.088404e-004
7.898449e-004,2.161334e-004
1.067787e-003,2.297469e-004
1.466469e-003,2.420638e-004
1.733715e-003,2.487085e-004
1.561439e-003,2.509774e-004
8.049170e-004,2.498430e-004
-3.767015e-004,2.477361e-004
-1.586195e-003,2.461155e-004
-2.465238e-003,2.440086e-004
-2.834261e-003,2.420638e-004
-2.710443e-003,2.419018e-004
-2.251311e-003,2.415776e-004
-1.656369e-003,2.337985e-004
-1.083306e-003,2.127300e-004
-6.196374e-004,1.819376e-004
-2.861070e-004,1.469315e-004
-6.974985e-005,1.130598e-004
5.520250e-005,8.437427e-005
1.224596e-004,6.314371e-005
1.675138e-004,4.499239e-005
2.133783e-004,2.505835e-005
2.701011e-004,1.002961e-007
3.350894e-004,-3.085418e-005
3.953777e-004,-6.667061e-005
4.313562e-004,-9.956987e-005
4.329768e-004,-1.214487e-004
4.088291e-004,-1.290658e-004
3.738230e-004,-1.264727e-004
3.417340e-004,-1.198280e-004
3.180725e-004,-1.133454e-004
3.055935e-004,-1.079973e-004
3.026763e-004,-1.062145e-004
3.101313e-004,-1.118868e-004
3.248792e-004,-1.267968e-004
3.415720e-004,-1.470550e-004
3.490270e-004,-1.640719e-004
3.380065e-004,-1.687718e-004
3.083486e-004,-1.603444e-004
2.679943e-004,-1.381414e-004
2.307192e-004,-1.075111e-004
2.041405e-004,-7.282909e-005
1.923098e-004,-3.247483e-005
1.937684e-004,1.533444e-005
2.033302e-004,7.416414e-005
2.151610e-004,1.417454e-004
2.274780e-004,2.015475e-004
2.402811e-004,2.325020e-004
2.508154e-004,2.266676e-004
2.548670e-004,1.908512e-004
2.504912e-004,1.425557e-004
2.409294e-004,9.912220e-005
2.289365e-004,6.816773e-005
2.133783e-004,4.953022e-005
1.944166e-004,4.207521e-005
1.709171e-004,4.499239e-005
1.414213e-004,5.050261e-005
1.088461e-004,5.147500e-005
8.518459e-005,4.693717e-005
9.101894e-005,4.158902e-005
1.367214e-004,3.915804e-005
2.028440e-004,4.077869e-005
2.639427e-004,4.871989e-005
3.057555e-004,6.006446e-005
3.196932e-004,7.092283e-005
2.994350e-004,7.772959e-005
2.453051e-004,7.902610e-005
1.673517e-004,7.578480e-005
7.935023e-005,7.140904e-005
-1.189254e-005,6.800567e-005
-1.081593e-004,6.897806e-005
-1.947022e-004,7.043664e-005
-2.313289e-004,6.800567e-005
-1.590478e-004,5.828174e-005
6.800567e-005,4.110282e-005
4.334631e-004,5.448451e-006
8.321439e-004,-6.197072e-005
1.133748e-003,-1.630995e-004
1.260159e-003,-2.815692e-004
1.217536e-003,-3.888564e-004
1.067949e-003,-4.544929e-004
8.768740e-004,-4.595169e-004
6.785059e-004,-4.061974e-004
4.731690e-004,-3.172235e-004
2.642668e-004,-2.211188e-004
9.166720e-005,-1.400862e-004
1.695509e-005,-8.709084e-005
5.552663e-005,-6.148453e-005
1.368834e-004,-5.273300e-005
1.454729e-004,-4.787104e-005
3.665733e-006,-3.409548e-005
-2.619593e-004,-5.409925e-006
-5.551354e-004,3.397195e-005
-7.820268e-004,7.756751e-005
-9.069791e-004,1.156529e-004
-9.479817e-004,1.396385e-004
-9.325854e-004,1.433660e-004
-8.810487e-004,1.265113e-004
-8.207604e-004,9.879807e-005
-7.923989e-004,7.302969e-005
-8.278912e-004,5.147500e-005
-9.319371e-004,2.992031e-005
-1.089789e-003,9.824214e-006
-1.270005e-003,-5.409925e-006
-1.422347e-003,-1.189254e-005
-1.494142e-003,-8.975361e-006
-1.451032e-003,5.864920e-007
-1.297232e-003,9.013888e-006
-1.064182e-003,1.257933e-005
-7.891576e-004,1.031041e-005
-4.972781e-004,1.396819e-006
-2.015089e-004,-1.010982e-005
8.939829e-005,-2.194059e-005
3.603715e-004,-3.749886e-005
5.942319e-004,-5.808115e-005
7.736383e-004,-7.850138e-005
8.810877e-004,-8.692878e-005
9.058837e-004,-7.752898e-005
8.477023e-004,-5.354332e-005
7.336082e-004,-2.615428e-005
6.120591e-004,-1.844488e-006
5.115786e-004,1.873781e-005
4.273045e-004,3.640293e-005
3.232586e-004,4.969228e-005
1.665414e-004,5.179913e-005
-3.668853e-005,4.304760e-005
-2.324634e-004,3.105477e-005
-3.562813e-004,2.262737e-005
-3.710292e-004,2.554455e-005
-2.817312e-004,3.867184e-005
-1.285796e-004,5.244739e-005
3.980630e-005,5.585077e-005
1.858272e-004,4.855782e-005
2.903593e-004,3.364782e-005
3.537268e-004,2.133085e-005
3.880847e-004,2.052053e-005
4.059119e-004,3.526847e-005
4.172565e-004,6.362990e-005
4.303838e-004,9.831188e-005
4.511281e-004,1.339663e-004
4.822447e-004,1.667035e-004
5.156302e-004,1.981441e-004
5.344298e-004,2.269918e-004
5.133613e-004,2.540566e-004
4.324906e-004,2.783665e-004
2.887386e-004,2.940868e-004
9.814982e-005,2.984626e-004
-1.122110e-004,2.910076e-004
-3.133340e-004,2.710735e-004
-4.911196e-004,2.423880e-004
-6.400576e-004,2.086784e-004
-7.640375e-004,1.692965e-004
-8.680834e-004,1.265113e-004
-9.427955e-004,8.891209e-005
-9.606227e-004,6.557468e-005
-9.008206e-004,5.747142e-005
-7.523688e-004,6.346784e-005
-5.157535e-004,7.643306e-005
-2.175534e-004,8.826383e-005
9.085687e-005,9.280166e-005
3.530786e-004,8.777764e-005
5.195197e-004,7.448828e-005
5.610085e-004,5.941620e-005
4.817585e-004,4.839576e-005
3.182345e-004,4.466826e-005
1.214872e-004,4.758544e-005
-5.986387e-005,5.844381e-005
-1.870851e-004,7.578480e-005
-2.379736e-004,9.507057e-005
-2.021572e-004,1.156529e-004
-8.190475e-005,1.334801e-004
9.652916e-005,1.448246e-004
2.955454e-004,1.436902e-004
4.673347e-004,1.279698e-004
5.597120e-004,1.018773e-004
5.438296e-004,7.319175e-005
4.286011e-004,5.277152e-005
2.589186e-004,4.547859e-005
9.879807e-005,4.726130e-005
1.720949e-006,5.001641e-005
-1.140634e-005,4.855782e-005
3.899597e-005,3.980630e-005
1.214872e-004,2.197911e-005
2.046267e-004,-4.923729e-006
2.624841e-004,-3.782299e-005
2.816078e-004,-6.958779e-005
2.595669e-004,-9.794922e-005
1.992786e-004,-1.209625e-004
1.103047e-004,-1.418689e-004
1.501031e-005,-1.616409e-004
-6.764300e-005,-1.799543e-004
-1.222590e-004,-1.968091e-004
-1.352242e-004,-2.138259e-004
-9.568031e-005,-2.253325e-004
5.610517e-006,-2.261429e-004
1.715654e-004,-2.170672e-004
3.663680e-004,-2.016710e-004
5.076890e-004,-1.817370e-004
5.269747e-004,-1.520790e-004
4.059119e-004,-1.143178e-004
1.885823e-004,-7.720485e-005
-5.678463e-005,-5.629843e-005
-2.720073e-004,-5.840528e-005
-4.251590e-004,-8.109442e-005
-5.082985e-004,-1.162626e-004
-5.264499e-004,-1.564548e-004
-4.869059e-004,-1.862748e-004
-3.985803e-004,-1.955125e-004
-2.716832e-004,-1.875713e-004
-1.186936e-004,-1.773612e-004
4.077869e-005,-1.710407e-004
1.851789e-004,-1.629374e-004
2.976522e-004,-1.486757e-004
3.773884e-004,-1.297140e-004
4.326527e-004,-1.067007e-004
4.773827e-004,-7.979790e-005
5.119027e-004,-5.030201e-005
5.264885e-004,-2.291298e-005
5.135234e-004,2.207145e-006
4.743035e-004,3.008238e-005
4.209840e-004,5.990240e-005
3.670162e-004,9.118101e-005
3.243930e-004,1.214872e-004
2.944109e-004,1.513072e-004
2.676701e-004,1.848548e-004
2.412535e-004,2.154851e-004
2.140265e-004,2.231022e-004
1.855030e-004,1.871237e-004
1.558451e-004,1.140322e-004
1.292664e-004,4.094075e-005
1.083599e-004,-7.100305e-007
9.134307e-005,2.045080e-006
6.914012e-005,4.110282e-005
3.267542e-005,9.636710e-005
-1.821308e-005,1.517934e-004
-7.752898e-005,2.028440e-004
-1.436516e-004,2.521119e-004
-2.147983e-004,3.015418e-004
-2.864312e-004,3.438409e-004
-3.497987e-004,3.712299e-004
-4.063595e-004,3.828986e-004
-4.600031e-004,3.788470e-004
-5.048952e-004,3.582647e-004
-5.275843e-004,3.195311e-004
-5.152673e-004,2.689667e-004
-4.608134e-004,2.159713e-004
-3.650328e-004,1.684862e-004
-2.272773e-004,1.307249e-004
-2.955766e-005,1.023635e-004
2.503292e-004,8.113296e-005
5.965008e-004,6.784360e-005
9.319763e-004,5.909207e-005
1.154492e-003,5.163707e-005
1.199222e-003,4.466826e-005
1.069732e-003,4.207521e-005
8.306854e-004,4.466826e-005
5.623050e-004,4.612685e-005
3.177483e-004,3.543053e-005
1.143563e-004,7.555300e-006
-4.414354e-005,-2.745081e-005
-1.588858e-004,-6.164659e-005
-2.340841e-004,-9.000801e-005
-2.677937e-004,-1.005423e-004
-2.619593e-004,-9.098041e-005
-2.314910e-004,-6.796713e-005
-1.911368e-004,-4.479180e-005
-1.506204e-004,-3.296103e-005
-1.083214e-004,-3.863331e-005
-6.440169e-005,-6.407756e-005
-2.323711e-005,-1.073490e-004
3.179537e-006,-1.569410e-004
-2.492749e-006,-2.013469e-004
-4.787104e-005,-2.350565e-004
-1.269589e-004,-2.528836e-004
-2.133397e-004,-2.494803e-004
-2.760590e-004,-2.259808e-004
-3.057169e-004,-1.925954e-004
-3.246786e-004,-1.609926e-004
-3.698948e-004,-1.355484e-004
-4.732924e-004,-1.117248e-004
-6.364922e-004,-9.098041e-005
-8.236775e-004,-6.942573e-005
-9.805567e-004,-4.884343e-005
-1.060617e-003,-3.263690e-005
-1.041980e-003,-2.194059e-005
-9.465230e-004,-1.610623e-005
-8.162226e-004,-1.270286e-005
-6.854359e-004,-9.137427e-006
-5.672903e-004,-2.816880e-006
-4.595169e-004,7.393235e-006
-3.549847e-004,2.376183e-005
-2.511009e-004,4.839576e-005
-1.498101e-004,8.032263e-005
-6.035006e-005,1.141943e-004
9.338019e-006,1.496866e-004
5.196120e-005,1.819376e-004
6.200925e-005,2.075439e-004
4.077869e-005,2.201850e-004
-4.761663e-006,2.211574e-004
-6.148453e-005,2.148369e-004
-1.136696e-004,2.094887e-004
-1.491618e-004,2.093266e-004
-1.587237e-004,2.064095e-004
-1.344139e-004,1.931201e-004
-7.088431e-005,1.752929e-004
2.992031e-005,1.678379e-004
1.477418e-004,1.808031e-004
2.569738e-004,2.078680e-004
3.423823e-004,2.315296e-004
3.982948e-004,2.375260e-004
4.175806e-004,2.203471e-004
3.979707e-004,1.825858e-004
3.504856e-004,1.323456e-004
2.973281e-004,7.999850e-005
2.585945e-004,3.429608e-005
2.443327e-004,-7.100305e-007
2.608634e-004,-2.210265e-005
3.200173e-004,-3.004385e-005
4.261701e-004,-3.296103e-005
5.752702e-004,-3.717472e-005
7.674798e-004,-4.300908e-005
1.002637e-003,-4.219875e-005
1.252866e-003,-3.166451e-005
1.459338e-003,-1.675450e-005
1.578294e-003,-5.896120e-006
1.600821e-003,-5.571990e-006
1.516223e-003,-1.626830e-005
1.295489e-003,-3.782299e-005
8.994011e-004,-6.504996e-005
3.396272e-004,-9.049421e-005
-2.413770e-004,-1.091317e-004
-6.533469e-004,-1.193418e-004
-8.167087e-004,-1.175591e-004
-8.005023e-004,-1.031353e-004
-7.475069e-004,-8.206682e-005
-7.475069e-004,-6.018800e-005
-7.721408e-004,-3.911951e-005
-7.215764e-004,-1.967167e-005
-5.313118e-004,-4.275467e-006
-2.395943e-004,8.203561e-006
2.327564e-005,1.808955e-005
1.231079e-004,2.781346e-005
7.879431e-006,3.672705e-005
-2.746004e-004,4.304760e-005
-6.069963e-004,3.834771e-005
-8.761867e-004,2.052053e-005
-1.021235e-003,-8.165034e-006
-1.046031e-003,-4.203669e-005
-9.995184e-004,-7.509801e-005
-9.320992e-004,-1.020008e-004
-8.622491e-004,-1.178833e-004
-7.789475e-004,-1.261486e-004
-6.596675e-004,-1.305243e-004
-4.959816e-004,-1.306864e-004
-2.979378e-004,-1.232314e-004
-8.952182e-005,-1.049180e-004
1.044704e-004,-7.736692e-005
2.707494e-004,-5.030201e-005
3.981328e-004,-2.761287e-005
4.770586e-004,-1.221667e-005
5.018546e-004,7.485573e-007
4.788413e-004,1.646889e-005
4.247115e-004,3.591673e-005
3.605336e-004,5.487837e-005
3.051073e-004,6.751947e-005
2.662116e-004,7.400208e-005
2.396328e-004,7.529860e-005
2.153230e-004,7.011251e-005
1.803169e-004,5.714729e-005
1.266733e-004,4.612685e-005
5.617490e-005,4.337174e-005
-1.805102e-005,5.066468e-005
-7.817725e-005,6.492643e-005
-1.057284e-004,7.999850e-005
-9.454584e-005,9.069480e-005
-4.414354e-005,9.652916e-005
3.915804e-005,1.028497e-004
1.407730e-004,1.169494e-004
2.423880e-004,1.347766e-004
3.311998e-004,1.493625e-004
4.135290e-004,1.560071e-004
5.230852e-004,1.530900e-004
