4.681450e-004,2.545429e-004
1.753649e-003,2.454672e-004
2.727342e-003,1.927960e-004
3.187448e-003,1.077117e-004
3.095394e-003,7.393235e-006
2.482946e-003,-8.757703e-005
1.405046e-003,-1.600202e-004
-8.813297e-006,-2.016710e-004
-1.414081e-003,-2.164190e-004
-2.396036e-003,-2.164190e-004
-2.706229e-003,-2.125294e-004
-2.355519e-003,-2.104225e-004
-1.569664e-003,-2.115570e-004
-6.520504e-004,-2.091260e-004
1.401247e-004,-1.901644e-004
6.648924e-004,-1.522411e-004
9.212799e-004,-1.005423e-004
9.906440e-004,-4.495386e-005
9.739513e-004,6.258778e-006
9.454277e-004,4.466826e-005
9.429968e-004,6.557468e-005
9.697375e-004,7.254349e-005
1.008957e-003,7.108490e-005
1.038939e-003,6.719534e-005
1.053687e-003,6.589881e-005
1.064546e-003,6.703327e-005
1.084642e-003,7.173317e-005
1.094042e-003,8.226741e-005
1.035860e-003,9.896014e-005
8.394369e-004,1.141943e-004
4.590693e-004,1.240803e-004
-7.590833e-005,1.253768e-004
-6.418403e-004,1.130598e-004
-1.096109e-003,8.599491e-005
-1.362869e-003,4.531652e-005
-1.426885e-003,-8.720958e-007
-1.319921e-003,-4.187462e-005
-1.107292e-003,-7.088431e-005
-8.560906e-004,-8.303921e-005
-6.133168e-004,-7.639453e-005
-4.087905e-004,-4.981582e-005
-2.538560e-004,-9.623623e-006
-1.399241e-004,3.186510e-005
-4.965375e-005,6.508849e-005
2.457216e-005,8.631904e-005
8.648111e-005,9.814982e-005
1.333180e-004,1.056048e-004
1.660552e-004,1.075496e-004
1.900409e-004,9.458438e-005
2.052750e-004,6.427816e-005
2.093266e-004,1.727922e-005
2.101370e-004,-3.944364e-005
2.124059e-004,-9.260106e-005
2.198609e-004,-1.292278e-004
2.391467e-004,-1.439758e-004
2.775562e-004,-1.423551e-004
3.346032e-004,-1.340898e-004
4.033188e-004,-1.183694e-004
4.733311e-004,-8.547019e-005
5.318367e-004,-2.842320e-005
5.720289e-004,4.499239e-005
5.956905e-004,1.210010e-004
6.193520e-004,1.863134e-004
6.644062e-004,2.363915e-004
7.284220e-004,2.697770e-004
7.832002e-004,2.833905e-004
7.992446e-004,2.670219e-004
7.483561e-004,2.171058e-004
6.044420e-004,1.399627e-004
3.647473e-004,4.531652e-005
6.168512e-005,-6.148453e-005
-2.382978e-004,-1.817370e-004
-4.664857e-004,-3.105789e-004
-5.880346e-004,-4.271038e-004
-6.162340e-004,-5.133225e-004
-5.852795e-004,-5.497872e-004
-5.217499e-004,-5.191569e-004
-4.470378e-004,-4.243487e-004
-3.744326e-004,-2.841623e-004
-3.196545e-004,-1.259865e-004
-3.015032e-004,1.873781e-005
-3.275957e-004,1.219734e-004
-3.690844e-004,1.738343e-004
-3.288923e-004,1.846927e-004
-1.853721e-005,1.783722e-004
7.350668e-004,1.756170e-004
1.867095e-003,1.832341e-004
3.092801e-003,1.950649e-004
4.051103e-003,2.025199e-004
4.399871e-003,1.984682e-004
3.960183e-003,1.835582e-004
2.812102e-003,1.665414e-004
1.270855e-003,1.543865e-004
-2.507768e-004,1.490383e-004
-1.361572e-003,1.459591e-004
-1.900926e-003,1.393144e-004
-1.888123e-003,1.265113e-004
-1.475504e-003,1.091703e-004
-8.962828e-004,9.037068e-005
-3.930701e-004,7.918817e-005
-1.326312e-004,8.437427e-005
-1.431654e-004,1.078737e-004
-3.337542e-004,1.427178e-004
-5.624284e-004,1.738343e-004
-7.069905e-004,1.869616e-004
-7.202799e-004,1.804790e-004
-6.298475e-004,1.597346e-004
-5.081365e-004,1.308870e-004
-4.262935e-004,9.669123e-005
-4.293727e-004,6.249544e-005
-5.073261e-004,3.348575e-005
-6.165581e-004,1.079661e-005
-7.300038e-004,-7.840905e-006
-8.520390e-004,-2.534396e-005
-9.862290e-004,-3.587821e-005
-1.119933e-003,-2.696461e-005
-1.219927e-003,2.855406e-006
-1.235972e-003,4.580272e-005
-1.138895e-003,9.182927e-005
-9.531677e-004,1.334801e-004
-7.449138e-004,1.642725e-004
-5.708557e-004,1.786963e-004
-4.215936e-004,1.746447e-004
-2.000504e-004,1.529279e-004
1.645966e-004,1.153287e-004
5.755944e-004,7.043664e-005
7.718556e-004,2.554455e-005
5.274609e-004,-1.270286e-005
-1.396000e-004,-4.738484e-005
-9.768292e-004,-8.384953e-005
-1.703368e-003,-1.229073e-004
-2.171413e-003,-1.587237e-004
-2.351144e-003,-1.922712e-004
-2.252284e-003,-2.259808e-004
-1.901898e-003,-2.583938e-004
-1.366920e-003,-2.903207e-004
-7.444276e-004,-3.160891e-004
-1.386276e-004,-3.272716e-004
3.606957e-004,-3.134960e-004
7.002227e-004,-2.687660e-004
8.754155e-004,-1.943781e-004
9.125284e-004,-1.010285e-004
8.572641e-004,-5.896120e-006
7.673178e-004,7.124698e-005
6.913091e-004,1.268354e-004
6.494962e-004,1.652449e-004
6.464170e-004,1.921477e-004
6.825575e-004,2.096508e-004
7.475458e-004,2.206712e-004
8.413817e-004,2.253711e-004
9.890234e-004,2.224539e-004
1.207164e-003,2.109473e-004
1.468900e-003,1.965235e-004
1.709405e-003,1.923098e-004
1.883788e-003,2.051129e-004
1.995775e-003,2.373639e-004
2.074864e-003,2.835526e-004
2.154762e-003,3.373583e-004
2.258970e-003,3.973224e-004
2.382303e-003,4.593935e-004
2.494290e-003,5.224369e-004
2.546962e-003,5.824011e-004
2.492832e-003,6.251864e-004
2.269343e-003,6.219451e-004
1.802593e-003,5.407503e-004
1.048501e-003,3.629646e-004
3.737532e-005,1.026876e-004
-1.140839e-003,-2.000504e-004
-2.373347e-003,-4.859335e-004
-3.515910e-003,-7.011562e-004
-4.465781e-003,-8.196259e-004
-4.968349e-003,-8.397221e-004
-4.968349e-003,-7.876991e-004
-4.968187e-003,-7.042355e-004
-4.968349e-003,-6.261200e-004
-4.763659e-003,-5.677765e-004
-3.542975e-003,-5.314739e-004
-2.112583e-003,-5.071640e-004
-7.193075e-004,-4.791268e-004
4.028327e-004,-4.309934e-004
1.096635e-003,-3.640604e-004
1.377332e-003,-2.914552e-004
1.367771e-003,-2.250084e-004
1.212998e-003,-1.656925e-004
1.009768e-003,-1.065387e-004
8.007033e-004,-4.511592e-005
6.097901e-004,1.679302e-005
4.709001e-004,7.513654e-005
4.305458e-004,1.268354e-004
5.093096e-004,1.645966e-004
6.875816e-004,1.838824e-004
9.306798e-004,1.874478e-004
1.193712e-003,1.855030e-004
1.401318e-003,1.934442e-004
1.483810e-003,2.180782e-004
1.418821e-003,2.592428e-004
1.239415e-003,3.101313e-004
1.005392e-003,3.556717e-004
7.742866e-004,3.790091e-004
5.901803e-004,3.764160e-004
4.820826e-004,3.542131e-004
4.584211e-004,3.239068e-004
5.010443e-004,2.963557e-004
5.567948e-004,2.762596e-004
5.619809e-004,2.603772e-004
4.812723e-004,2.415776e-004
3.177483e-004,2.140265e-004
1.218114e-004,1.811273e-004
9.175954e-006,1.516314e-004
1.200286e-004,1.300767e-004
5.611706e-004,1.171115e-004
1.380088e-003,1.049566e-004
2.454584e-003,8.664317e-005
3.484516e-003,5.698522e-005
4.117712e-003,1.841368e-005
4.095509e-003,-2.096819e-005
3.408507e-003,-4.835723e-005
2.317314e-003,-5.629843e-005
1.201329e-003,-4.381940e-005
3.276343e-004,-1.399939e-005
-2.637420e-004,2.619281e-005
-6.815463e-004,7.059870e-005
-1.048786e-003,1.098185e-004
-1.427533e-003,1.347766e-004
-1.805307e-003,1.430419e-004
-2.127331e-003,1.325077e-004
-2.358599e-003,1.020394e-004
-2.531361e-003,5.212327e-005
-2.695533e-003,-1.237873e-005
-2.872347e-003,-8.401160e-005
-3.013506e-003,-1.524032e-004
-2.999082e-003,-2.024813e-004
-2.672196e-003,-2.190120e-004
-1.937553e-003,-2.002124e-004
-8.424771e-004,-1.548341e-004
4.397836e-004,-9.649063e-005
1.656085e-003,-3.474375e-005
2.606278e-003,2.068259e-005
3.157628e-003,6.006446e-005
3.236878e-003,8.388807e-005
2.870122e-003,9.928427e-005
2.148766e-003,1.124116e-004
1.133100e-003,1.235941e-004
-1.386276e-004,1.287802e-004
-1.486849e-003,1.245665e-004
-2.602183e-003,1.132219e-004
-3.186592e-003,9.717742e-005
-3.120145e-003,7.416414e-005
-2.520016e-003,4.499239e-005
-1.657179e-003,1.484824e-005
-8.134674e-004,-7.840905e-006
-1.765509e-004,-1.562004e-005
1.981441e-004,-4.113402e-006
3.639370e-004,2.359977e-005
4.036430e-004,5.325772e-005
3.773884e-004,7.140904e-005
3.357376e-004,7.789165e-005
3.469201e-004,7.886404e-005
4.806241e-004,7.902610e-005
7.329599e-004,7.610893e-005
1.001016e-003,6.670914e-005
1.139258e-003,5.293359e-005
1.066977e-003,3.672705e-005
8.144788e-004,2.278944e-005
4.790034e-004,2.197911e-005
1.574657e-004,4.256141e-005
-9.973194e-005,8.421220e-005
-2.754107e-004,1.329939e-004
-3.624398e-004,1.697827e-004
-3.658432e-004,1.840444e-004
-3.029618e-004,1.712413e-004
-2.052364e-004,1.318594e-004
-1.026491e-004,7.983643e-005
-9.785687e-006,3.202716e-005
6.525056e-005,2.045080e-006
1.130598e-004,-8.002969e-006
1.190562e-004,-8.002969e-006
7.465034e-005,-1.335112e-005
-2.275091e-005,-3.134038e-005
-1.562927e-004,-5.467778e-005
-2.870794e-004,-7.299116e-005
-3.768636e-004,-7.850138e-005
-4.023078e-004,-7.023605e-005
-3.617915e-004,-5.143647e-005
-2.838381e-004,-2.145439e-005
-2.036158e-004,2.392390e-005
-1.417068e-004,8.437427e-005
-1.057284e-004,1.469315e-004
-8.790116e-005,1.942546e-004
-7.137050e-005,2.187264e-004
-4.252288e-005,2.200230e-004
5.286386e-006,2.018716e-004
7.270556e-005,1.657311e-004
1.422316e-004,1.146805e-004
1.911753e-004,6.233338e-005
2.088404e-004,2.441009e-005
2.018716e-004,6.744974e-006
1.861513e-004,4.800190e-006
1.778859e-004,9.175954e-006
1.859892e-004,1.274139e-005
2.107852e-004,6.582909e-006
2.383363e-004,-1.318906e-005
2.514636e-004,-4.770897e-005
2.394708e-004,-9.308726e-005
2.072198e-004,-1.426792e-004
1.644345e-004,-1.867610e-004
1.239182e-004,-2.185258e-004
8.972242e-005,-2.421873e-004
6.281957e-005,-2.639041e-004
4.045456e-005,-2.851347e-004
1.841368e-005,-3.016653e-004
-5.085794e-006,-3.078238e-004
-1.902341e-005,-2.971275e-004
-8.975361e-006,-2.682798e-004
2.424803e-005,-2.237119e-004
6.346784e-005,-1.668270e-004
9.766362e-005,-1.024870e-004
1.292664e-004,-4.171255e-005
1.765894e-004,2.693341e-006
2.665357e-004,2.376183e-005
4.119083e-004,2.052053e-005
5.961767e-004,-1.682422e-006
7.794727e-004,-3.360929e-005
9.120423e-004,-6.618442e-005
9.572585e-004,-9.130454e-005
9.078285e-004,-1.028112e-004
7.739624e-004,-9.584237e-005
5.780254e-004,-6.780506e-005
3.529165e-004,-2.728874e-005
1.286181e-004,1.403791e-005
-7.007398e-005,4.985435e-005
-2.193361e-004,7.497447e-005
-3.102547e-004,8.729143e-005
-3.681121e-004,9.004655e-005
-4.462275e-004,8.988448e-005
-5.899794e-004,9.004655e-005
-8.077951e-004,8.729143e-005
-1.064020e-003,8.486046e-005
-1.294639e-003,9.182927e-005
-1.436609e-003,1.171115e-004
-1.470966e-003,1.590864e-004
-1.413433e-003,2.065715e-004
-1.292532e-003,2.441707e-004
-1.136788e-003,2.642668e-004
-9.508988e-004,2.681563e-004
-7.214144e-004,2.652392e-004
-4.452551e-004,2.628082e-004
-1.452723e-004,2.639427e-004
1.299146e-004,2.673460e-004
3.290929e-004,2.694529e-004
4.313562e-004,2.642668e-004
4.579349e-004,2.477361e-004
4.553419e-004,2.227780e-004
4.707380e-004,1.942546e-004
5.352401e-004,1.607070e-004
6.563029e-004,1.203528e-004
8.196649e-004,7.011251e-005
1.004258e-003,1.646889e-005
1.183340e-003,-3.425755e-005
1.330334e-003,-7.850138e-005
1.432597e-003,-1.152902e-004
1.508444e-003,-1.447861e-004
1.596121e-003,-1.648822e-004
1.720425e-003,-1.749302e-004
1.869526e-003,-1.784957e-004
2.019275e-003,-1.767129e-004
2.145848e-003,-1.669890e-004
2.216023e-003,-1.478653e-004
2.183934e-003,-1.165867e-004
2.011010e-003,-7.218083e-005
1.658354e-003,-2.177852e-005
1.060008e-003,2.716520e-005
1.286181e-004,6.427816e-005
-1.186218e-003,7.837785e-005
-2.770731e-003,7.270556e-005
-4.373727e-003,5.893001e-005
-4.968187e-003,4.272347e-005
-4.968349e-003,2.278944e-005
-4.968187e-003,2.855406e-006
-4.968349e-003,-1.934754e-005
-4.872406e-003,-4.187462e-005
-3.600671e-003,-6.148453e-005
-2.306414e-003,-7.363942e-005
-1.133060e-003,-7.380149e-005
-1.502963e-004,-6.375343e-005
5.909906e-004,-4.965375e-005
1.056929e-003,-3.782299e-005
1.249139e-003,-3.279896e-005
1.212674e-003,-3.231276e-005
1.046557e-003,-3.247483e-005
8.674742e-004,-2.890940e-005
7.606731e-004,-1.691656e-005
7.556491e-004,3.017472e-006
8.289026e-004,2.603075e-005
9.357038e-004,4.499239e-005
1.030674e-003,5.925414e-005
1.071191e-003,7.416414e-005
1.038129e-003,9.166720e-005
9.331108e-004,1.091703e-004
7.669936e-004,1.216493e-004
5.580913e-004,1.224596e-004
3.371962e-004,1.101426e-004
1.401247e-004,8.534666e-005
-1.043395e-005,5.617490e-005
-1.015147e-004,2.992031e-005
-1.394379e-004,8.041497e-006
-1.379793e-004,-8.651231e-006
-1.050801e-004,-1.480971e-005
-5.192267e-005,-7.030578e-006
2.651694e-005,1.565857e-005
1.521176e-004,5.163707e-005
3.867882e-004,9.652916e-005
8.102651e-004,1.423936e-004
1.442159e-003,1.767515e-004
2.231743e-003,1.944166e-004
3.075946e-003,2.031682e-004
3.769430e-003,2.140265e-004
4.046889e-003,2.373639e-004
3.679159e-003,2.689667e-004
2.657167e-003,2.995970e-004
1.252056e-003,3.192069e-004
-1.041077e-004,3.213138e-004
-1.029662e-003,3.023521e-004
-1.429640e-003,2.662116e-004
-1.409868e-003,2.200230e-004
-1.159801e-003,1.660552e-004
-8.664628e-004,1.012291e-004
-6.565882e-004,2.603075e-005
-5.659938e-004,-5.224680e-005
-5.570801e-004,-1.225831e-004
-5.457356e-004,-1.773612e-004
-4.700511e-004,-2.141500e-004
-3.269475e-004,-2.284118e-004
-1.637477e-004,-2.209568e-004
-2.988179e-005,-1.956746e-004
7.708132e-005,-1.635857e-004
2.184023e-004,-1.358725e-004
4.867825e-004,-1.148040e-004
9.771925e-004,-9.551824e-005
1.740846e-003,-7.444974e-005
2.710649e-003,-5.905355e-005
3.695527e-003,-5.386745e-005
4.491115e-003,-5.921561e-005
4.916057e-003,-6.958779e-005
4.795479e-003,-7.185670e-005
4.009127e-003,-5.872941e-005
2.572082e-003,-3.182657e-005
7.125397e-004,2.693341e-006
-1.134195e-003,3.202716e-005
-2.506403e-003,3.429608e-005
-3.254174e-003,-1.844488e-006
-3.418671e-003,-5.856734e-005
-3.151262e-003,-9.568031e-005
-2.656961e-003,-8.352540e-005
-2.147913e-003,-2.453363e-005
-1.760901e-003,5.666109e-005
-1.525582e-003,1.221355e-004
-1.395120e-003,1.432040e-004
-1.367731e-003,1.106288e-004
-1.549568e-003,3.591673e-005
-2.027337e-003,-6.132245e-005
-2.723408e-003,-1.588858e-004
-3.419805e-003,-2.404046e-004
-3.908434e-003,-2.942103e-004
-4.104697e-003,-3.190063e-004
-4.010536e-003,-3.152788e-004
-3.654314e-003,-2.867553e-004
-3.079143e-003,-2.399184e-004
-2.358599e-003,-1.896782e-004
-1.586033e-003,-1.499722e-004
-8.614387e-004,-1.209625e-004
-2.673074e-004,-9.875954e-005
1.530900e-004,-8.352540e-005
4.081808e-004,-8.044616e-005
5.491777e-004,-9.227693e-005
6.336138e-004,-1.101041e-004
6.961710e-004,-1.167488e-004
7.503009e-004,-9.551824e-005
7.963275e-004,-4.138842e-005
8.336026e-004,4.661304e-005
8.569400e-004,1.649207e-004
8.639088e-004,3.008935e-004
8.579124e-004,4.373526e-004
8.428402e-004,5.543638e-004
8.303613e-004,6.271311e-004
8.378162e-004,6.396102e-004
8.744430e-004,5.947181e-004
9.314901e-004,5.114165e-004
9.841614e-004,4.120704e-004
1.010416e-003,3.133726e-004
1.006688e-003,2.300710e-004
9.814063e-004,1.749688e-004
9.493173e-004,1.563313e-004
9.183628e-004,1.662173e-004
8.838428e-004,1.914994e-004
8.293889e-004,2.184023e-004
7.433321e-004,2.389846e-004
6.381517e-004,2.537325e-004
5.365366e-004,2.679943e-004
4.608521e-004,2.833905e-004
4.250356e-004,2.916558e-004
4.344354e-004,2.854973e-004
4.734932e-004,2.675081e-004
5.093096e-004,2.431983e-004
5.177370e-004,2.167816e-004
4.914824e-004,1.918236e-004
4.329768e-004,1.658931e-004
3.517821e-004,1.386661e-004
2.671840e-004,1.128978e-004
2.094887e-004,9.182927e-005
2.106232e-004,7.173317e-005
2.738286e-004,4.515445e-005
3.704196e-004,3.827798e-006
4.652278e-004,-5.143647e-005
5.298919e-004,-1.122110e-004
5.537155e-004,-1.668270e-004
5.357263e-004,-2.096122e-004
4.942375e-004,-2.352185e-004
4.582590e-004,-2.434839e-004
4.522626e-004,-2.433218e-004
4.757621e-004,-2.392702e-004
5.005581e-004,-2.345703e-004
4.861343e-004,-2.267911e-004
4.102877e-004,-2.130156e-004
2.793389e-004,-1.912988e-004
1.278078e-004,-1.697441e-004
-4.275467e-006,-1.596961e-004
-8.790116e-005,-1.637477e-004
-1.125351e-004,-1.760647e-004
-9.146661e-005,-1.885437e-004
-5.095028e-005,-1.942160e-004
-1.043395e-005,-1.930815e-004
2.230324e-005,-1.900023e-004
3.721326e-005,-1.943781e-004
2.684107e-005,-2.097743e-004
-1.270286e-005,-2.337599e-004
-7.639453e-005,-2.582318e-004
-1.553203e-004,-2.749245e-004
-2.459148e-004,-2.778417e-004
-3.523917e-004,-2.658489e-004
-4.791268e-004,-2.421873e-004
-6.232028e-004,-2.086398e-004
-7.620928e-004,-1.677994e-004
-8.612767e-004,-1.238797e-004
-8.883416e-004,-8.190475e-005
-8.071469e-004,-4.706071e-005
-6.102376e-004,-2.356124e-005
-3.530400e-004,-1.140634e-005
-1.255003e-004,-7.678839e-006
-1.844488e-006,-9.461557e-006
-4.599598e-006,-1.221667e-005
-9.389758e-005,-1.108221e-005
-1.977814e-004,-1.520357e-006
-2.470493e-004,1.549650e-005
-2.112329e-004,3.218923e-005
-9.762508e-005,4.531652e-005
5.439218e-005,5.666109e-005
1.999268e-004,6.849186e-005
3.042969e-004,8.356393e-005
3.478925e-004,1.004187e-004
3.339549e-004,1.158149e-004
2.837146e-004,1.312111e-004
2.248849e-004,1.461212e-004
1.718895e-004,1.548727e-004
1.279698e-004,1.548727e-004
9.555677e-005,1.480659e-004
7.902610e-005,1.370455e-004
8.145709e-005,1.265113e-004
1.065772e-004,1.180839e-004
1.539003e-004,1.150046e-004
2.132162e-004,1.175977e-004
2.658874e-004,1.273216e-004
2.970040e-004,1.433660e-004
3.107795e-004,1.626518e-004
3.297412e-004,1.812893e-004
3.775505e-004,1.949028e-004
4.603659e-004,2.004130e-004
5.634395e-004,1.950649e-004
6.579236e-004,1.759412e-004
7.131879e-004,1.475797e-004
7.161051e-004,1.184080e-004
6.785059e-004,9.604297e-005
6.264829e-004,8.664317e-005
5.783495e-004,9.166720e-005
5.435054e-004,1.073875e-004
5.290816e-004,1.244044e-004
5.483674e-004,1.312111e-004
5.977973e-004,1.224596e-004
6.532237e-004,1.039842e-004
6.919574e-004,8.178122e-005
6.940642e-004,5.277152e-005
6.229175e-004,1.614476e-005
4.307079e-004,-2.485776e-005
9.604297e-005,-6.586029e-005
-3.715154e-004,-9.811128e-005
-9.496023e-004,-1.162626e-004
-1.622660e-003,-1.225831e-004
-2.369457e-003,-1.201522e-004
-3.122738e-003,-1.055663e-004
-3.753499e-003,-7.428768e-005
-4.120417e-003,-2.907146e-005
-4.132410e-003,2.165498e-005
-3.793854e-003,6.492643e-005
-3.198747e-003,8.939829e-005
-2.479500e-003,9.571883e-005
-1.752474e-003,9.328785e-005
-1.095137e-003,8.631904e-005
-5.463838e-004,7.205730e-005
-1.264727e-004,5.163707e-005
1.566554e-004,2.992031e-005
3.098072e-004,1.549650e-005
3.592371e-004,1.501031e-005
3.483787e-004,2.684107e-005
3.214759e-004,4.337174e-005
3.101313e-004,5.828174e-005
3.344411e-004,7.108490e-005
4.041292e-004,8.145709e-005
5.166026e-004,9.004655e-005
6.746163e-004,9.847395e-005
8.728224e-004,1.065772e-004
1.092583e-003,1.187321e-004
1.307968e-003,1.359110e-004
1.485430e-003,1.547106e-004
1.592880e-003,1.697827e-004
1.603900e-003,1.795066e-004
1.507957e-003,1.808031e-004
1.314451e-003,1.744826e-004
1.042667e-003,1.637863e-004
7.175637e-004,1.461212e-004
3.900295e-004,1.198666e-004
1.307249e-004,9.458438e-005
1.176900e-005,8.178122e-005
8.469840e-005,9.263960e-005
3.568061e-004,1.239182e-004
8.075100e-004,1.527658e-004
1.414932e-003,1.576278e-004
2.164000e-003,1.333180e-004
3.014037e-003,8.939829e-005
3.851274e-003,4.045456e-005
4.450112e-003,-1.358292e-006
4.552701e-003,-3.458168e-005
3.961479e-003,-5.905355e-005
2.599309e-003,-7.688072e-005
5.947181e-004,-9.162867e-005
-1.616663e-003,-1.076731e-004
-3.398250e-003,-1.271210e-004
-4.393499e-003,-1.477033e-004
-4.526718e-003,-1.658546e-004
-4.014912e-003,-1.820611e-004
-3.206850e-003,-1.992400e-004
-2.410135e-003,-2.185258e-004
-1.789425e-003,-2.391081e-004
-1.358331e-003,-2.587180e-004
-1.055431e-003,-2.728177e-004
-8.121709e-004,-2.767072e-004
-5.817141e-004,-2.728177e-004
-3.611433e-004,-2.660109e-004
-1.707165e-004,-2.553146e-004
-1.869928e-005,-2.386219e-004
1.135460e-004,-2.091260e-004
2.522740e-004,-1.627753e-004
3.945674e-004,-1.032974e-004
5.110924e-004,-3.328516e-005
5.822390e-004,4.223728e-005
6.141660e-004,1.156529e-004
6.258346e-004,1.772377e-004
6.384758e-004,2.195368e-004
6.635959e-004,2.415776e-004
6.854748e-004,2.459534e-004
6.650545e-004,2.375260e-004
5.781874e-004,2.193747e-004
4.237391e-004,1.944166e-004
2.195368e-004,1.691344e-004
6.258778e-006,1.547106e-004
-1.677994e-004,1.540623e-004
-2.645523e-004,1.644345e-004
-2.742762e-004,1.783722e-004
-2.316531e-004,1.916615e-004
-2.152845e-004,2.044647e-004
-3.083100e-004,2.109473e-004
-5.261257e-004,1.999268e-004
-7.771648e-004,1.680000e-004
-9.168651e-004,1.250527e-004
-8.334015e-004,8.599491e-005
-5.214258e-004,6.103685e-005
-7.558420e-005,5.082674e-005
3.634508e-004,5.325772e-005
6.888781e-004,6.233338e-005
8.682846e-004,7.448828e-005
9.169042e-004,8.891209e-005
8.765499e-004,1.047945e-004
7.971378e-004,1.180839e-004
7.199947e-004,1.224596e-004
6.689440e-004,1.120874e-004
6.443101e-004,8.178122e-005
6.253485e-004,3.753739e-005
5.786736e-004,-9.299492e-006
4.772207e-004,-4.317114e-005
3.269861e-004,-5.694669e-005
1.658931e-004,-5.289506e-005
3.348575e-005,-3.604027e-005
-6.018800e-005,-1.740276e-005
-1.334415e-004,-1.059601e-005
-1.984297e-004,-2.113026e-005
-2.405667e-004,-4.592625e-005
-2.284118e-004,-7.850138e-005
-1.418689e-004,-1.133454e-004
4.800190e-006,-1.464067e-004
1.671896e-004,-1.763888e-004
2.927903e-004,-2.003745e-004
3.506476e-004,-2.147983e-004
3.425443e-004,-2.164190e-004
2.945730e-004,-2.066950e-004
2.419018e-004,-1.875713e-004
2.114335e-004,-1.540238e-004
2.057612e-004,-1.039456e-004
2.036543e-004,-5.176060e-005
1.817755e-004,-1.562004e-005
1.291043e-004,-1.237873e-005
5.471631e-005,-4.851930e-005
-2.696461e-005,-1.165867e-004
-1.180453e-004,-1.924333e-004
-2.295462e-004,-2.475355e-004
-3.638984e-004,-2.632558e-004
-4.924161e-004,-2.323013e-004
-5.531906e-004,-1.648822e-004
-5.063537e-004,-7.785312e-005
-3.570916e-004,9.662150e-006
-1.511066e-004,8.145709e-005
6.816773e-005,1.318594e-004
2.869559e-004,1.649207e-004
4.984512e-004,1.872858e-004
6.780197e-004,2.033302e-004
7.977861e-004,2.094887e-004
8.511056e-004,2.013854e-004
8.410575e-004,1.799928e-004
7.738004e-004,1.542244e-004
6.658648e-004,1.318594e-004
5.298919e-004,1.127357e-004
4.177427e-004,9.182927e-005
4.336251e-004,6.914012e-005
5.869390e-004,4.612685e-005
6.754267e-004,2.894792e-005
3.790091e-004,2.732727e-005
-4.494688e-004,4.628891e-005
-1.606615e-003,8.275361e-005
-2.678840e-003,1.281319e-004
-3.285452e-003,1.714033e-004
-3.234888e-003,2.004130e-004
-2.585004e-003,2.057612e-004
-1.570799e-003,1.892305e-004
-4.420138e-004,1.624898e-004
6.222692e-004,1.344524e-004
1.528378e-003,1.104668e-004
2.233202e-003,9.085687e-005
2.656357e-003,7.578480e-005
2.727018e-003,6.606088e-005
2.443564e-003,5.990240e-005
1.860450e-003,5.795762e-005
1.071029e-003,6.119892e-005
1.689724e-004,6.946425e-005
-7.338934e-004,8.275361e-005
-1.511645e-003,1.004187e-004
-2.066881e-003,1.188942e-004
-2.343851e-003,1.318594e-004
-2.334613e-003,1.307249e-004
-2.086491e-003,1.062531e-004
-1.675493e-003,5.828174e-005
-1.188649e-003,-5.479652e-007
-7.058561e-004,-4.868136e-005
-2.864312e-004,-6.893953e-005
2.457216e-005,-6.407756e-005
2.088404e-004,-5.159854e-005
2.764217e-004,-4.689864e-005
2.527601e-004,-5.224680e-005
1.795066e-004,-6.099833e-005
1.009049e-004,-6.359137e-005
4.304760e-005,-5.629843e-005
1.095867e-005,-4.381940e-005
7.231170e-006,-3.150244e-005
3.202716e-005,-2.177852e-005
8.583285e-005,-1.675450e-005
1.548727e-004,-1.318906e-005
2.214815e-004,-7.030578e-006
2.767458e-004,4.962256e-006
3.534027e-004,2.554455e-005
5.073649e-004,5.098881e-005
7.488423e-004,7.270556e-005
1.003609e-003,8.291567e-005
1.145417e-003,7.870197e-005
1.089180e-003,6.379197e-005
8.384645e-004,4.612685e-005
4.725208e-004,3.040651e-005
8.680524e-005,1.971020e-005
-2.549905e-004,1.582063e-005
-5.330945e-004,1.614476e-005
-7.525309e-004,2.084466e-005
-9.320992e-004,3.089270e-005
-1.092706e-003,3.915804e-005
-1.223007e-003,3.850977e-005
-1.285077e-003,2.489629e-005
-1.241320e-003,-2.238345e-007
-1.066451e-003,-2.907146e-005
-7.619307e-004,-4.835723e-005
-3.632501e-004,-5.467778e-005
6.784360e-005,-4.868136e-005
4.551798e-004,-3.198863e-005
7.396046e-004,-1.189254e-005
8.901634e-004,1.160693e-005
9.041010e-004,3.624086e-005
8.094548e-004,5.844381e-005
6.473893e-004,7.659513e-005
4.435111e-004,9.085687e-005
2.060853e-004,9.993253e-005
-5.013995e-005,1.070634e-004
-2.885380e-004,1.184080e-004
-4.394208e-004,1.446626e-004
-4.460654e-004,1.833962e-004
-2.985860e-004,2.195368e-004
-3.377135e-005,2.401191e-004
2.804733e-004,2.431983e-004
5.601982e-004,2.273159e-004
7.327978e-004,1.880961e-004
7.713694e-004,1.315353e-004
7.060570e-004,6.865393e-005
5.987698e-004,1.533444e-005
5.046097e-004,-1.853721e-005
4.427008e-004,-3.150244e-005
3.968363e-004,-2.745081e-005
3.465960e-004,-1.464765e-005
3.064038e-004,-2.168618e-006
3.109416e-004,5.864920e-007
3.696093e-004,-1.351319e-005
4.551798e-004,-4.317114e-005
5.193577e-004,-7.882551e-005
5.248679e-004,-1.081593e-004
4.658761e-004,-1.170729e-004
3.657197e-004,-9.681476e-005
2.555152e-004,-5.208473e-005
1.522796e-004,1.072688e-006
5.244739e-005,4.499239e-005
-6.067420e-005,6.995045e-005
-2.013469e-004,8.048469e-005
-3.617915e-004,8.388807e-005
-5.003573e-004,8.161915e-005
-5.528664e-004,7.837785e-005
-4.891748e-004,8.016056e-005
-3.433161e-004,8.810177e-005
-1.932436e-004,1.015532e-004
-1.156143e-004,1.180839e-004
-1.295519e-004,1.342904e-004
-1.998883e-004,1.409351e-004
-2.729797e-004,1.287802e-004
-3.016653e-004,9.717742e-005
-2.694143e-004,5.179913e-005
-1.925954e-004,-1.520357e-006
-8.854943e-005,-5.743289e-005
4.239934e-005,-1.109144e-004
2.276400e-004,-1.569410e-004
5.018546e-004,-1.937298e-004
8.569400e-004,-2.240360e-004
1.222398e-003,-2.566112e-004
1.486078e-003,-3.023136e-004
1.538750e-003,-3.614674e-004
1.353995e-003,-4.215936e-004
9.888613e-004,-4.600031e-004
5.217887e-004,-4.593548e-004
6.258778e-006,-4.139765e-004
-5.199672e-004,-3.309991e-004
-9.983840e-004,-2.263049e-004
-1.351200e-003,-1.193418e-004
-1.511321e-003,-2.356124e-005
-1.459136e-003,5.585077e-005
-1.233216e-003,1.151667e-004
-9.100584e-004,1.477418e-004
-5.796073e-004,1.527658e-004
-3.130099e-004,1.352628e-004
-1.368449e-004,1.112771e-004
-3.312309e-005,9.588090e-005
3.413401e-005,9.037068e-005
1.009049e-004,9.020861e-005
1.942546e-004,9.896014e-005
3.107795e-004,1.211631e-004
4.211461e-004,1.576278e-004
4.939134e-004,2.025199e-004
5.161164e-004,2.485465e-004
4.942375e-004,2.913317e-004
4.482110e-004,3.281205e-004
3.856537e-004,3.589129e-004
3.067279e-004,3.846813e-004
2.138645e-004,4.052637e-004
1.069013e-004,4.110980e-004
-6.868512e-006,4.021844e-004
-1.156143e-004,3.814400e-004
-2.053985e-004,3.550234e-004
-2.648765e-004,3.261757e-004
-2.914552e-004,2.840387e-004
-2.856208e-004,2.107852e-004
-2.525595e-004,9.960840e-005
-1.943781e-004,-3.814712e-005
-1.037836e-004,-1.739578e-004
3.850977e-005,-2.663351e-004
2.615117e-004,-2.828657e-004
5.976353e-004,-2.169051e-004
1.088045e-003,-9.551824e-005
1.749597e-003,3.105477e-005
2.503528e-003,1.231079e-004
3.151632e-003,1.615174e-004
3.444486e-003,1.548727e-004
3.253247e-003,1.201907e-004
2.601578e-003,7.124698e-005
1.560467e-003,2.748933e-005
2.312054e-004,-3.303075e-006
-1.126415e-003,-2.226472e-005
-2.120363e-003,-2.858526e-005
-2.476744e-003,-2.518189e-005
-2.221329e-003,-2.015787e-005
-1.681327e-003,-2.048200e-005
-1.223331e-003,-2.988179e-005
-1.033714e-003,-5.078821e-005
-1.104861e-003,-8.158062e-005
-1.347310e-003,-1.178833e-004
-1.678410e-003,-1.519170e-004
-2.030416e-003,-1.799543e-004
-2.327482e-003,-2.047502e-004
-2.479176e-003,-2.306807e-004
-2.414349e-003,-2.515871e-004
-2.162824e-003,-2.558008e-004
-1.870782e-003,-2.301945e-004
-1.719899e-003,-1.710407e-004
-1.768518e-003,-8.676671e-005
-1.890392e-003,1.720949e-006
-1.873051e-003,7.416414e-005
-1.572257e-003,1.124116e-004
-9.828256e-004,1.013911e-004
-2.303566e-004,3.753739e-005
4.916445e-004,-6.683268e-005
1.026136e-003,-1.869231e-004
1.307644e-003,-2.966413e-004
1.341192e-003,-3.737843e-004
1.191443e-003,-4.108973e-004
9.499656e-004,-4.053871e-004
7.091363e-004,-3.695707e-004
5.391297e-004,-3.160891e-004
4.597176e-004,-2.525595e-004
4.276287e-004,-1.888679e-004
3.812780e-004,-1.337657e-004
2.757734e-004,-9.292519e-005
1.025256e-004,-6.586029e-005
-1.130213e-004,-4.122636e-005
-3.280819e-004,-8.975361e-006
-5.010056e-004,2.846173e-005
-6.016482e-004,6.606088e-005
-6.240131e-004,9.717742e-005
-5.637249e-004,1.163011e-004
-3.891806e-004,1.265113e-004
-5.743289e-005,1.325077e-004
4.694415e-004,1.373696e-004
1.221912e-003,1.398006e-004
2.153303e-003,1.406109e-004
3.063629e-003,1.407730e-004
3.648366e-003,1.432040e-004
3.628594e-003,1.493625e-004
2.928628e-003,1.603829e-004
1.744249e-003,1.722137e-004
4.474007e-004,1.804790e-004
-5.650214e-004,1.777239e-004
-1.060131e-003,1.675138e-004
-1.048624e-003,1.569795e-004
-6.864083e-004,1.495245e-004
-1.903264e-004,1.492004e-004
2.431983e-004,1.509831e-004
5.015305e-004,1.553589e-004
5.653843e-004,1.636242e-004
4.801379e-004,1.761032e-004
3.234207e-004,1.848548e-004
1.722137e-004,1.853410e-004
7.238143e-005,1.759412e-004
2.424803e-005,1.581140e-004
4.800190e-006,1.370455e-004
2.045080e-006,1.205148e-004
1.193106e-005,1.122495e-004
2.878586e-005,1.107909e-004
4.839576e-005,1.137081e-004
6.930219e-005,1.193804e-004
8.583285e-005,1.261871e-004
9.134307e-005,1.381799e-004
7.967437e-005,1.610312e-004
4.385793e-005,1.927960e-004
-9.137427e-006,2.279641e-004
-6.715681e-005,2.602152e-004
-1.220969e-004,2.874421e-004
-1.639098e-004,3.151553e-004
-1.783336e-004,3.475684e-004
-1.541859e-004,3.806297e-004
-8.757703e-005,4.060740e-004
1.257933e-005,4.159599e-004
1.213252e-004,4.063981e-004
2.073818e-004,3.837089e-004
2.521119e-004,3.564820e-004
2.636185e-004,3.352514e-004
2.726942e-004,3.195311e-004
3.089968e-004,3.054314e-004
3.785229e-004,2.856594e-004
4.718725e-004,2.524360e-004
5.674911e-004,2.008992e-004
6.436618e-004,1.351007e-004
6.869333e-004,6.849186e-005
6.945504e-004,1.679302e-005
6.640821e-004,-9.947754e-006
6.023351e-004,-1.594417e-005
5.190336e-004,-1.221667e-005
4.298976e-004,-8.489165e-006
3.516200e-004,-8.165034e-006
2.874421e-004,-1.270286e-005
2.282883e-004,-2.712668e-005
1.618415e-004,-4.949169e-005
7.481241e-005,-7.882551e-005
-3.604027e-005,-1.081593e-004
-1.703924e-004,-1.336036e-004
-3.348887e-004,-1.561307e-004
-5.347152e-004,-1.771991e-004
-7.690616e-004,-2.023193e-004
-1.041655e-003,-2.329496e-004
-1.352010e-003,-2.710350e-004
-1.665931e-003,-3.094444e-004
-1.904815e-003,-3.379679e-004
-1.958135e-003,-3.517435e-004
-1.758794e-003,-3.510952e-004
-1.348121e-003,-3.394265e-004
-8.473391e-004,-3.190063e-004
-4.055491e-004,-2.943724e-004
-1.465688e-004,-2.695764e-004
-1.126972e-004,-2.462390e-004
-2.621213e-004,-2.264670e-004
-5.076503e-004,-2.068571e-004
-7.377830e-004,-1.838438e-004
-8.565768e-004,-1.564548e-004
-8.058504e-004,-1.277692e-004
-5.630766e-004,-9.940780e-005
-1.626133e-004,-7.396355e-005
2.867939e-004,-5.143647e-005
6.517651e-004,-3.231276e-005
8.538608e-004,-1.853721e-005
8.828705e-004,-2.978945e-006
7.861174e-004,1.290346e-005
6.405826e-004,2.214118e-005
4.922927e-004,1.193106e-005
3.467580e-004,-1.983374e-005
1.968476e-004,-6.294311e-005
4.969228e-005,-9.762508e-005
-5.451571e-005,-1.099420e-004
-6.018800e-005,-9.584237e-005
6.427816e-005,-6.148453e-005
2.997591e-004,-1.724069e-005
5.798081e-004,2.246531e-005
8.402472e-004,5.050261e-005
1.050122e-003,7.092283e-005
1.212188e-003,8.680524e-005
1.327902e-003,1.039842e-004
1.376360e-003,1.227837e-004
1.339571e-003,1.370455e-004
1.230015e-003,1.419075e-004
1.074270e-003,1.394765e-004
8.935668e-004,1.342904e-004
6.992503e-004,1.279698e-004
4.859722e-004,1.159770e-004
2.436845e-004,9.993253e-005
-2.874733e-005,8.664317e-005
-3.301888e-004,7.708132e-005
-6.536711e-004,6.865393e-005
-9.664571e-004,5.682316e-005
-1.215227e-003,4.207521e-005
-1.351038e-003,2.457216e-005
-1.378913e-003,3.179537e-006
-1.365624e-003,-1.918548e-005
-1.398523e-003,-4.138842e-005
-1.523314e-003,-5.986387e-005
-1.717630e-003,-7.461181e-005
-1.922318e-003,-8.109442e-005
-2.082763e-003,-8.141856e-005
-2.137379e-003,-8.303921e-005
-1.993141e-003,-9.373551e-005
-1.589922e-003,-1.128592e-004
-9.786120e-004,-1.334415e-004
-2.916172e-004,-1.520790e-004
3.287688e-004,-1.648822e-004
7.849829e-004,-1.710407e-004
1.053363e-003,-1.705545e-004
1.157734e-003,-1.648822e-004
1.152385e-003,-1.525652e-004
1.110897e-003,-1.326312e-004
1.098256e-003,-1.055663e-004
1.143310e-003,-7.039811e-005
1.234066e-003,-3.441962e-005
1.325471e-003,-8.975361e-006
1.362747e-003,2.855406e-006
1.305375e-003,8.365628e-006
1.141527e-003,1.306552e-005
8.985908e-004,2.214118e-005
6.344241e-004,4.110282e-005
4.026706e-004,7.140904e-005
2.255332e-004,1.078737e-004
9.426025e-005,1.504969e-004
-1.950961e-005,1.997648e-004
-1.425172e-004,2.543808e-004
-2.705488e-004,3.106175e-004
-3.695707e-004,3.577785e-004
-4.065215e-004,3.767402e-004
-3.723257e-004,3.598853e-004
-2.922655e-004,3.112657e-004
-2.036158e-004,2.488706e-004
-1.368449e-004,1.877719e-004
-1.245279e-004,1.360731e-004
-2.028055e-004,9.652916e-005
-3.869116e-004,6.152305e-005
-6.209339e-004,2.522042e-005
-7.885094e-004,-1.124428e-005
-7.893197e-004,-4.074016e-005
-6.282268e-004,-5.581224e-005
-4.045767e-004,-5.581224e-005
-2.274394e-004,-4.446767e-005
-1.402483e-004,-3.036798e-005
-1.083214e-004,-2.015787e-005
-5.889147e-005,-5.409925e-006
5.487837e-005,1.906194e-005
2.256952e-004,4.985435e-005
4.170944e-004,8.242948e-005
5.918010e-004,1.135460e-004
7.259911e-004,1.466074e-004
8.105892e-004,1.892305e-004
8.493229e-004,2.406053e-004
8.530504e-004,2.908455e-004
8.394369e-004,3.266619e-004
8.300371e-004,3.334687e-004
8.480264e-004,3.062417e-004
9.235489e-004,2.467637e-004
1.088207e-003,1.665414e-004
1.333088e-003,8.567078e-005
1.598714e-003,2.149292e-005
1.797893e-003,-2.015787e-005
1.854454e-003,-3.928157e-005
1.726746e-003,-3.960571e-005
1.439890e-003,-2.583015e-005
1.067949e-003,-6.706447e-006
6.835299e-004,1.257933e-005
3.227724e-004,2.716520e-005
-1.886135e-005,3.624086e-005
-3.413713e-004,4.256141e-005
-6.243372e-004,4.790957e-005
-8.413427e-004,5.244739e-005
-9.624055e-004,6.055066e-005
-9.740741e-004,7.416414e-005
-9.160548e-004,9.231547e-005
-8.718109e-004,1.103047e-004
-9.329095e-004,1.266733e-004
-1.133060e-003,1.404489e-004
-1.411164e-003,1.517934e-004
-1.645025e-003,1.602208e-004
-1.730919e-003,1.626518e-004
-1.631897e-003,1.560071e-004
-1.380372e-003,1.399627e-004
-1.046355e-003,1.164632e-004
-7.065043e-004,8.777764e-005
-4.207833e-004,5.568870e-005
-2.214430e-004,2.197911e-005
-1.107524e-004,-9.299492e-006
-7.137050e-005,-3.458168e-005
-7.817725e-005,-5.338126e-005
-1.057284e-004,-6.845333e-005
-1.430034e-004,-8.806324e-005
-1.911368e-004,-1.243659e-004
-2.532078e-004,-1.796301e-004
-3.267854e-004,-2.442942e-004
-3.942045e-004,-3.006929e-004
-4.306693e-004,-3.381300e-004
-4.212695e-004,-3.559572e-004
-3.734602e-004,-3.538503e-004
-3.063652e-004,-3.288923e-004
-2.415391e-004,-2.765452e-004
-1.924333e-004,-1.938919e-004
-1.637477e-004,-8.903562e-005
-1.488377e-004,1.841368e-005
-1.386276e-004,1.069013e-004
-1.240417e-004,1.670276e-004
-9.681476e-005,2.033302e-004
-5.402952e-005,2.222919e-004
-2.330684e-006,2.243987e-004
4.774750e-005,2.086784e-004
9.199134e-005,1.738343e-004
1.284560e-004,1.179218e-004
1.618415e-004,4.385793e-005
1.939304e-004,-4.106429e-005
2.167816e-004,-1.306864e-004
2.208333e-004,-2.130156e-004
1.999268e-004,-2.771934e-004
1.611932e-004,-3.144684e-004
1.205148e-004,-3.277578e-004
1.047945e-004,-3.266234e-004
1.398006e-004,-3.178718e-004
2.433604e-004,-3.052307e-004
4.051016e-004,-2.812450e-004
5.815907e-004,-2.298704e-004
7.191843e-004,-1.431654e-004
7.738004e-004,-3.036798e-005
7.280979e-004,8.388807e-005
5.948801e-004,1.759412e-004
4.018603e-004,2.300710e-004
1.882581e-004,2.438465e-004
-8.720958e-007,2.226160e-004
-1.316588e-004,1.785342e-004
-1.862748e-004,1.263492e-004
-1.716889e-004,8.129502e-005
-1.089697e-004,5.260946e-005
-1.934754e-005,3.624086e-005
8.259154e-005,2.408596e-005
1.949028e-004,1.160693e-005
3.195311e-004,1.720949e-006
4.710622e-004,-2.978945e-006
6.488480e-004,1.883015e-006
8.301992e-004,1.468617e-005
9.812443e-004,3.267542e-005
1.073460e-003,4.904402e-005
1.104414e-003,5.909207e-005
1.095338e-003,6.103685e-005
1.080266e-003,5.957827e-005
1.091287e-003,6.200925e-005
1.140879e-003,7.254349e-005
1.218022e-003,9.377405e-005
1.312344e-003,1.234320e-004
1.429031e-003,1.613553e-004
1.545719e-003,2.020337e-004
1.605359e-003,2.350950e-004
1.554146e-003,2.506533e-004
1.377981e-003,2.457913e-004
1.114624e-003,2.307192e-004
8.250131e-004,2.195368e-004
5.631153e-004,2.179161e-004
3.417340e-004,2.211574e-004
1.242423e-004,2.258573e-004
-1.514308e-004,2.286124e-004
-5.437908e-004,2.250470e-004
-1.087682e-003,2.122438e-004
-1.788128e-003,1.944166e-004
-2.592135e-003,1.809652e-004
-3.377992e-003,1.738343e-004
-3.975368e-003,1.678379e-004
-4.212795e-003,1.568175e-004
-3.959485e-003,1.331559e-004
-3.202799e-003,9.085687e-005
-2.138028e-003,3.688912e-005
-1.130629e-003,-2.015787e-005
-5.622663e-004,-7.331529e-005
-5.710178e-004,-1.123730e-004
-9.491161e-004,-1.310105e-004
-1.326080e-003,-1.276072e-004
-1.429640e-003,-1.125351e-004
-1.208096e-003,-9.794922e-005
-7.807303e-004,-9.503204e-005
-3.235441e-004,-1.055663e-004
2.927205e-005,-1.255003e-004
2.397949e-004,-1.460826e-004
3.496752e-004,-1.571030e-004
4.311941e-004,-1.564548e-004
5.430192e-004,-1.480274e-004
7.084880e-004,-1.430034e-004
9.222524e-004,-1.489998e-004
1.150441e-003,-1.606685e-004
1.337950e-003,-1.666649e-004
1.441835e-003,-1.489998e-004
1.433083e-003,-9.875954e-005
1.309265e-003,-2.145439e-005
1.095662e-003,6.687120e-005
8.457575e-004,1.485521e-004
6.229175e-004,2.078680e-004
4.751138e-004,2.367157e-004
4.204978e-004,2.363915e-004
4.627969e-004,2.198609e-004
5.922871e-004,1.973338e-004
7.961654e-004,1.754550e-004
1.078646e-003,1.584381e-004
1.470844e-003,1.464453e-004
1.971141e-003,1.388282e-004
2.462364e-003,1.347766e-004
2.724262e-003,1.331559e-004
2.520383e-003,1.313732e-004
1.719939e-003,1.240803e-004
3.623164e-004,1.020394e-004
-1.279891e-003,5.925414e-005
-2.758577e-003,-1.682422e-006
-3.710551e-003,-6.942573e-005
-3.914593e-003,-1.337657e-004
-3.352710e-003,-1.909747e-004
-2.222626e-003,-2.348944e-004
-8.737558e-004,-2.556388e-004
2.760976e-004,-2.457528e-004
8.891911e-004,-2.068571e-004
8.903255e-004,-1.468929e-004
4.380009e-004,-7.817725e-005
-1.851403e-004,-1.221667e-005
-7.240074e-004,4.580272e-005
-1.064182e-003,9.231547e-005
-1.216038e-003,1.273216e-004
-1.237430e-003,1.440143e-004
-1.173901e-003,1.428798e-004
-1.044411e-003,1.271595e-004
-8.551182e-004,1.056048e-004
-6.152616e-004,8.372600e-005
-3.468815e-004,6.670914e-005
-8.514606e-005,5.601283e-005
1.409351e-004,5.179913e-005
3.185587e-004,4.969228e-005
4.525867e-004,4.580272e-005
5.540397e-004,4.645098e-005
6.375034e-004,5.990240e-005
7.120535e-004,8.761556e-005
7.833623e-004,1.216493e-004
8.514298e-004,1.485521e-004
9.105837e-004,1.569795e-004
9.532069e-004,1.511452e-004
9.792994e-004,1.391524e-004
9.953439e-004,1.271595e-004
1.013333e-003,1.146805e-004
1.042505e-003,1.010670e-004
1.075890e-003,8.923622e-005
1.093880e-003,8.080882e-005
1.086587e-003,7.659513e-005
1.064060e-003,7.481241e-005
1.037157e-003,7.335382e-005
1.001178e-003,6.411610e-005
9.327867e-004,4.126489e-005
8.115617e-004,2.855406e-006
6.425274e-004,-4.333321e-005
4.621486e-004,-8.903562e-005
3.208276e-004,-1.297140e-004
2.506533e-004,-1.619650e-004
2.572980e-004,-1.838438e-004
3.242310e-004,-1.955125e-004
4.162841e-004,-1.942160e-004
4.780310e-004,-1.794681e-004
4.683071e-004,-1.543479e-004
3.922984e-004,-1.196660e-004
2.662116e-004,-8.125648e-005
6.832980e-005,-4.754691e-005
-2.345703e-004,-2.809907e-005
-6.431369e-004,-2.728874e-005
-1.087844e-003,-4.236081e-005
-1.448601e-003,-6.634648e-005
-1.624604e-003,-8.968388e-005
-1.587005e-003,-1.011905e-004
-1.363841e-003,-9.697682e-005
-1.017184e-003,-7.866345e-005
-6.347094e-004,-4.932962e-005
-3.089582e-004,-1.659243e-005
-1.016767e-004,1.095867e-005
-2.258885e-005,2.554455e-005
-3.587821e-005,2.829966e-005
-9.049421e-005,2.813760e-005
-1.509446e-004,3.040651e-005
-2.018331e-004,3.494434e-005
-2.368392e-004,3.640293e-005
-2.379736e-004,2.829966e-005
-1.729855e-004,1.209313e-005
-2.664048e-005,1.396819e-006
1.765894e-004,1.014835e-005
3.775505e-004,3.478227e-005
5.245437e-004,5.925414e-005
5.929354e-004,7.189524e-005
5.888838e-004,6.411610e-005
5.350781e-004,3.753739e-005
4.571246e-004,2.207145e-006
3.824124e-004,-2.258885e-005
3.253654e-004,-2.793700e-005
2.905214e-004,-1.886135e-005
2.641047e-004,-9.461557e-006
2.253711e-004,-8.489165e-006
1.636242e-004,-1.335112e-005
8.648111e-005,-1.853721e-005
1.938607e-005,-2.080613e-005
-1.448558e-005,-1.562004e-005
-4.923729e-006,-3.951337e-006
3.559260e-005,1.274139e-005
8.631904e-005,2.975825e-005
1.325077e-004,4.418206e-005
1.616794e-004,5.763348e-005
1.511452e-004,6.930219e-005
7.756751e-005,8.016056e-005
-7.185670e-005,9.231547e-005
-2.929138e-004,1.054428e-004
-5.648593e-004,1.161391e-004
-8.426392e-004,1.239182e-004
-1.064345e-003,1.274836e-004
-1.175035e-003,1.258630e-004
-1.154615e-003,1.182459e-004
-1.019128e-003,1.033359e-004
-8.133054e-004,8.340186e-005
-5.951655e-004,6.330577e-005
-4.058733e-004,5.131293e-005
-2.622834e-004,5.228533e-005
-1.585616e-004,6.589881e-005
-8.465986e-005,8.421220e-005
-3.166451e-005,9.960840e-005
9.986280e-006,1.112771e-004
5.179913e-005,1.177597e-004
1.028497e-004,1.154908e-004
1.678379e-004,1.046324e-004
2.415776e-004,8.972242e-005
3.161277e-004,7.513654e-005
3.804677e-004,6.492643e-005
4.221185e-004,6.411610e-005
4.320044e-004,7.124698e-005
4.083429e-004,8.291567e-005
3.576164e-004,9.069480e-005
3.033245e-004,9.069480e-005
2.735045e-004,8.502253e-005
2.918179e-004,7.546067e-005
3.550234e-004,6.703327e-005
4.292493e-004,6.119892e-005
4.602038e-004,5.730935e-005
4.088291e-004,5.504044e-005
2.692908e-004,5.293359e-005
6.930219e-005,5.050261e-005
-1.423551e-004,4.726130e-005
-3.303509e-004,4.191315e-005
-4.710235e-004,3.445814e-005
-5.458976e-004,2.441009e-005
-5.400633e-004,1.598270e-005
-4.562756e-004,1.565857e-005
-3.243544e-004,2.667901e-005
-1.815749e-004,4.564065e-005
-4.479180e-005,6.508849e-005
8.453633e-005,7.675719e-005
2.119197e-004,7.756751e-005
3.496752e-004,6.719534e-005
5.089855e-004,4.871989e-005
6.830437e-004,2.829966e-005
8.391127e-004,1.079661e-005
9.446174e-004,1.883015e-006
9.805959e-004,2.855406e-006
9.464001e-004,5.124321e-006
8.494850e-004,-2.168618e-006
7.060570e-004,-1.934754e-005
5.248679e-004,-4.009190e-005
3.153174e-004,-5.646050e-005
9.944633e-005,-6.602235e-005
-9.503204e-005,-6.780506e-005
-2.549905e-004,-5.710876e-005
-3.893426e-004,-3.652646e-005
-5.181845e-004,-2.015787e-005
-6.471885e-004,-2.858526e-005
-7.617687e-004,-7.396355e-005
-8.387496e-004,-1.452723e-004
-8.530114e-004,-2.209568e-004
-7.669547e-004,-2.786520e-004
-5.486528e-004,-3.052307e-004
-2.028055e-004,-2.982619e-004
1.945787e-004,-2.580697e-004
5.141716e-004,-1.953505e-004
6.446342e-004,-1.212866e-004
5.770529e-004,-4.689864e-005
4.094774e-004,1.857574e-005
2.598910e-004,6.800567e-005
1.816135e-004,9.863601e-005
1.385041e-004,1.103047e-004
4.207521e-005,1.101426e-004
-1.640719e-004,1.090082e-004
-4.703752e-004,1.163011e-004
-8.097399e-004,1.375317e-004
-1.098540e-003,1.738343e-004
-1.275354e-003,2.164575e-004
-1.305984e-003,2.529222e-004
-1.184921e-003,2.705873e-004
-9.350164e-004,2.657254e-004
-6.139651e-004,2.467637e-004
-2.951827e-004,2.258573e-004
-3.830918e-005,2.112714e-004
1.321835e-004,2.013854e-004
2.190506e-004,1.885823e-004
2.389846e-004,1.697827e-004
2.149989e-004,1.464453e-004
1.642725e-004,1.187321e-004
9.393611e-005,9.150514e-005
8.527692e-006,6.427816e-005
-7.639453e-005,3.834771e-005
-1.298761e-004,1.290346e-005
-1.269589e-004,-1.464765e-005
-6.164659e-005,-4.576419e-005
5.487837e-005,-7.639453e-005
2.023578e-004,-9.940780e-005
3.438409e-004,-1.109144e-004
4.443214e-004,-1.099420e-004
4.861343e-004,-9.908367e-005
4.678209e-004,-8.919769e-005
4.000776e-004,-8.871149e-005
3.135346e-004,-9.730095e-005
2.444948e-004,-1.128592e-004
2.133783e-004,-1.300381e-004
2.240746e-004,-1.386276e-004
2.639427e-004,-1.340898e-004
3.216379e-004,-1.172350e-004
3.935950e-004,-9.519411e-005
4.657140e-004,-7.461181e-005
5.157922e-004,-6.537409e-005
5.198439e-004,-6.926366e-005
4.734932e-004,-8.158062e-005
3.968363e-004,-9.179074e-005
3.227724e-004,-8.854943e-005
2.756114e-004,-6.553616e-005
2.572980e-004,-2.842320e-005
2.467637e-004,9.824214e-006
2.193747e-004,3.721326e-005
1.757791e-004,4.564065e-005
1.222975e-004,3.364782e-005
4.920609e-005,1.031041e-005
-7.234290e-005,-1.335112e-005
-2.609869e-004,-3.425755e-005
-4.886886e-004,-4.706071e-005
-6.689052e-004,-4.495386e-005
-7.123387e-004,-2.696461e-005
-5.752315e-004,-2.654814e-006
-2.237119e-004,1.841368e-005
3.101313e-004,3.235129e-005
8.618019e-004,4.596478e-005
1.200357e-003,7.140904e-005
1.172157e-003,1.156529e-004
8.439747e-004,1.718895e-004
4.469145e-004,2.273159e-004
1.934442e-004,2.769079e-004
1.553589e-004,3.247172e-004
2.670219e-004,3.679886e-004
3.890571e-004,3.948915e-004
3.879227e-004,3.945674e-004
2.017096e-004,3.662059e-004
-1.391138e-004,3.125622e-004
-5.710178e-004,2.383363e-004
-9.988701e-004,1.504969e-004
-1.289939e-003,5.730935e-005
-1.318787e-003,-2.096819e-005
-1.041007e-003,-6.877746e-005
-5.392530e-004,-8.611845e-005
2.603075e-005,-8.676671e-005
4.986133e-004,-7.898758e-005
8.015136e-004,-6.051213e-005
9.587171e-004,-2.890940e-005
1.075242e-003,1.322759e-005
1.267614e-003,6.055066e-005
1.531781e-003,1.023635e-004
1.689147e-003,1.318594e-004
1.520436e-003,1.490383e-004
9.603378e-004,1.551968e-004
1.492004e-004,1.542244e-004
-6.646915e-004,1.448246e-004
-1.293991e-003,1.300767e-004
-1.682462e-003,1.164632e-004
-1.826862e-003,1.057669e-004
-1.719575e-003,9.798775e-005
-1.368703e-003,8.583285e-005
-8.434496e-004,5.957827e-005
-2.640661e-004,1.193106e-005
2.444948e-004,-5.759496e-005
5.922871e-004,-1.417068e-004
7.439803e-004,-2.160948e-004
7.298806e-004,-2.580697e-004
6.279415e-004,-2.551526e-004
5.120648e-004,-2.084778e-004
4.117463e-004,-1.327932e-004
3.057555e-004,-5.338126e-005
1.618415e-004,1.387585e-005
-2.048200e-005,6.346784e-005
-2.113949e-004,9.717742e-005
-3.762153e-004,1.180839e-004
-5.021400e-004,1.291043e-004
-6.102376e-004,1.367214e-004
-7.491275e-004,1.464453e-004
-9.599745e-004,1.564933e-004
-1.213769e-003,1.644345e-004
-1.410840e-003,1.634621e-004
-1.452005e-003,1.474177e-004
-1.311494e-003,1.120874e-004
-1.048138e-003,6.411610e-005
-7.497758e-004,1.306552e-005
-4.911196e-004,-3.944364e-005
-3.073376e-004,-1.008664e-004
-1.953505e-004,-1.838438e-004
-1.279313e-004,-2.870794e-004
-7.056018e-005,-3.924218e-004
-7.678839e-006,-4.710235e-004
6.622294e-005,-4.937127e-004
1.448246e-004,-4.515757e-004
2.085163e-004,-3.567675e-004
2.493568e-004,-2.311669e-004
2.832284e-004,-9.697682e-005
3.477304e-004,2.554455e-005
4.778689e-004,1.226217e-004
6.723474e-004,1.866375e-004
8.853014e-004,2.188885e-004
1.057415e-003,2.224539e-004
1.151899e-003,2.025199e-004
1.158382e-003,1.650828e-004
1.100524e-003,1.195424e-004
1.005716e-003,7.870197e-005
8.911358e-004,5.649903e-005
7.702350e-004,6.038860e-005
6.517651e-004,8.453633e-005
5.315125e-004,1.172735e-004
3.927846e-004,1.487142e-004
2.047888e-004,1.709171e-004
-4.916756e-005,1.799928e-004
-3.530400e-004,1.777239e-004
-6.530228e-004,1.684862e-004
-8.677593e-004,1.587622e-004
-9.167030e-004,1.539003e-004
-7.685754e-004,1.535762e-004
-4.593548e-004,1.529279e-004
-6.683268e-005,1.504969e-004
3.391410e-004,1.441764e-004
7.235601e-004,1.315353e-004
1.085452e-003,1.213252e-004
1.413473e-003,1.187321e-004
1.689309e-003,1.219734e-004
1.908746e-003,1.271595e-004
2.079725e-003,1.289422e-004
2.211161e-003,1.180839e-004
2.310670e-003,8.534666e-005
2.411799e-003,3.607880e-005
2.569489e-003,-1.610623e-005
2.772234e-003,-5.710876e-005
2.874336e-003,-8.158062e-005
2.653277e-003,-9.308726e-005
1.931921e-003,-9.762508e-005
6.438239e-004,-1.029732e-004
-1.122202e-003,-1.122110e-004
-3.015451e-003,-1.199901e-004
-4.647619e-003,-1.209625e-004
-4.968511e-003,-1.162626e-004
-4.968349e-003,-1.096179e-004
-4.968349e-003,-1.029732e-004
-4.968511e-003,-9.470791e-005
-4.074228e-003,-8.676671e-005
-3.193399e-003,-8.271508e-005
-2.426990e-003,-7.752898e-005
-1.819569e-003,-6.342930e-005
-1.390420e-003,-4.219875e-005
-1.141488e-003,-1.545797e-005
-1.037766e-003,1.484824e-005
-1.000491e-003,5.001641e-005
-9.366371e-004,8.356393e-005
-7.849439e-004,1.150046e-004
-5.390910e-004,1.446626e-004
-2.271153e-004,1.699447e-004
1.104668e-004,1.850168e-004
4.286011e-004,1.796687e-004
6.888781e-004,1.514693e-004
8.752534e-004,1.069013e-004
9.969645e-004,5.244739e-005
1.059846e-003,-5.247859e-006
1.070380e-003,-5.646050e-005
1.026298e-003,-9.973194e-005
9.293832e-004,-1.371690e-004
7.971378e-004,-1.715269e-004
6.635959e-004,-2.047502e-004
5.661946e-004,-2.361909e-004
5.313505e-004,-2.619593e-004
5.614947e-004,-2.784900e-004
6.355586e-004,-2.833519e-004
7.237222e-004,-2.765452e-004
8.055652e-004,-2.574215e-004
8.747672e-004,-2.311669e-004
9.449415e-004,-2.023193e-004
1.026947e-003,-1.656925e-004
1.111059e-003,-1.139937e-004
1.174588e-003,-5.224680e-005
1.190633e-003,6.096713e-006
1.153682e-003,5.228533e-005
1.082373e-003,7.805372e-005
9.945336e-004,7.999850e-005
8.977805e-004,6.362990e-005
7.938965e-004,3.607880e-005
6.739681e-004,7.393235e-006
5.407503e-004,-1.983374e-005
4.076946e-004,-4.916756e-005
2.986246e-004,-8.303921e-005
2.389846e-004,-1.135075e-004
2.542187e-004,-1.303623e-004
3.530786e-004,-1.295519e-004
5.255162e-004,-1.159385e-004
7.399287e-004,-9.454584e-005
9.447794e-004,-7.088431e-005
1.087559e-003,-4.527799e-005
1.129858e-003,-1.594417e-005
1.082373e-003,2.392390e-005
9.992335e-004,8.291567e-005
9.232247e-004,1.613553e-004
8.467298e-004,2.485465e-004
7.107570e-004,3.271481e-004
4.687933e-004,3.801435e-004
1.336421e-004,3.997534e-004
-2.246843e-004,3.921364e-004
-5.131605e-004,3.699334e-004
-6.663122e-004,3.443271e-004
-6.755498e-004,3.253654e-004
-5.690730e-004,3.174242e-004
-3.882081e-004,3.136967e-004
-1.806025e-004,3.017039e-004
3.665733e-006,2.777182e-004
1.312111e-004,2.474120e-004
1.921477e-004,2.166196e-004
1.931201e-004,1.910132e-004
1.563313e-004,1.733481e-004
1.098185e-004,1.662173e-004
7.481241e-005,1.649207e-004
5.423011e-005,1.655690e-004
4.110282e-005,1.676758e-004
3.445814e-005,1.702689e-004
3.769945e-005,1.725378e-004
5.487837e-005,1.765894e-004
7.789165e-005,1.882581e-004
9.328785e-005,2.062474e-004
7.918817e-005,2.242366e-004
1.095867e-005,2.370398e-004
-1.276072e-004,2.448189e-004
-3.254889e-004,2.444948e-004
-5.703695e-004,2.287745e-004
-8.586837e-004,1.940925e-004
-1.177628e-003,1.441764e-004
-1.505810e-003,8.923622e-005
-1.783428e-003,3.786152e-005
-1.918429e-003,-6.058186e-006
-1.848579e-003,-4.138842e-005
-1.580847e-003,-7.380149e-005
-1.181194e-003,-1.101041e-004
-7.505861e-004,-1.488377e-004
-3.805911e-004,-1.833576e-004
-1.199901e-004,-2.032917e-004
3.105477e-005,-2.050744e-004
9.782569e-005,-1.917850e-004
1.154908e-004,-1.684476e-004
1.112771e-004,-1.412206e-004
1.018773e-004,-1.131834e-004
9.604297e-005,-8.660465e-005
9.247753e-005,-6.116039e-005
8.421220e-005,-4.025397e-005
6.962632e-005,-2.583015e-005
5.050261e-005,-1.918548e-005
2.765140e-005,-1.464765e-005
-4.437533e-006,-8.002969e-006
-4.625038e-005,-3.858999e-007
-8.352540e-005,5.286386e-006
-8.725291e-005,4.962256e-006
-2.583015e-005,1.234753e-006
8.696730e-005,-4.113402e-006
1.931201e-004,-1.092015e-005
2.406053e-004,-2.031993e-005
2.195368e-004,-3.085418e-005
1.616794e-004,-4.479180e-005
1.213252e-004,-6.407756e-005
1.344524e-004,-8.676671e-005
2.017096e-004,-1.076731e-004
2.913317e-004,-1.248521e-004
3.652335e-004,-1.360346e-004
3.957018e-004,-1.400862e-004
3.885709e-004,-1.387897e-004
3.694472e-004,-1.292278e-004
3.548613e-004,-1.097800e-004
3.399513e-004,-8.190475e-005
2.986246e-004,-5.467778e-005
2.208333e-004,-4.284701e-005
1.378558e-004,-4.965375e-005
1.248906e-004,-6.683268e-005
2.303951e-004,-8.239095e-005
3.981328e-004,-8.676671e-005
4.934272e-004,-7.736692e-005
4.038051e-004,-5.532604e-005
1.167873e-004,-2.728874e-005
-2.770314e-004,-6.220251e-006
-6.309819e-004,2.207145e-006
-8.207604e-004,3.017472e-006
-7.920748e-004,4.638125e-006
-5.862519e-004,1.517237e-005
-3.120375e-004,3.640293e-005
-8.530812e-005,6.038860e-005
3.753739e-005,7.724339e-005
6.719534e-005,8.097089e-005
5.795762e-005,6.832980e-005
6.719534e-005,4.094075e-005
1.120874e-004,2.531276e-006
1.665414e-004,-3.620233e-005
1.867996e-004,-6.456376e-005
1.428798e-004,-7.218083e-005
3.607880e-005,-5.759496e-005
-1.000561e-004,-2.583015e-005
-2.219292e-004,1.565857e-005
-2.966413e-004,6.022653e-005
-3.175477e-004,9.863601e-005
-3.015032e-004,1.273216e-004
-2.728177e-004,1.466074e-004
-2.530457e-004,1.561692e-004
-2.300324e-004,1.521176e-004
-1.655304e-004,1.338042e-004
-3.166451e-005,1.098185e-004
1.594105e-004,9.215340e-005
3.603715e-004,8.631904e-005
5.247058e-004,8.777764e-005
6.355586e-004,8.972242e-005
7.054087e-004,8.810177e-005
7.538663e-004,8.226741e-005
7.964895e-004,7.497447e-005
8.310095e-004,6.735740e-005
8.412196e-004,5.860587e-005
8.057273e-004,4.774750e-005
7.109190e-004,3.672705e-005
5.504742e-004,2.700314e-005
3.128864e-004,1.889987e-005
-4.113402e-006,1.063454e-005
-3.956631e-004,5.448451e-006
-8.359945e-004,6.582909e-006
-1.269519e-003,1.306552e-005
-1.631087e-003,2.181705e-005
-1.859437e-003,3.380988e-005
-1.898981e-003,4.191315e-005
-1.721195e-003,4.094075e-005
-1.345042e-003,2.278944e-005
-8.411806e-004,-8.002969e-006
-3.217614e-004,-4.187462e-005
7.011251e-005,-6.748093e-005
2.153230e-004,-8.222889e-005
8.680524e-005,-8.125648e-005
-2.446183e-004,-5.775702e-005
-6.475126e-004,-9.299492e-006
-9.773155e-004,6.184718e-005
-1.122040e-003,1.370455e-004
-1.036631e-003,1.924718e-004
-7.525309e-004,2.151610e-004
-3.384541e-004,2.057612e-004
1.104668e-004,1.751308e-004
5.036373e-004,1.389903e-004
7.940585e-004,1.015532e-004
9.862683e-004,6.427816e-005
1.120134e-003,3.170303e-005
1.259187e-003,5.124321e-006
1.441510e-003,-1.545797e-005
1.622700e-003,-3.263690e-005
1.706974e-003,-4.608832e-005
1.612652e-003,-5.159854e-005
1.322878e-003,-4.770897e-005
8.823843e-004,-3.506787e-005
3.561578e-004,-1.318906e-005
-1.702303e-004,2.133085e-005
-6.061860e-004,6.995045e-005
-8.922312e-004,1.216493e-004
-1.011511e-003,1.598967e-004
-9.865531e-004,1.731861e-004
-8.590078e-004,1.611932e-004
-6.672845e-004,1.341283e-004
-4.478482e-004,1.030118e-004
-2.366771e-004,7.562274e-005
-5.629843e-005,5.617490e-005
8.567078e-005,4.596478e-005
2.329882e-004,4.353380e-005
4.762483e-004,4.693717e-005
9.000494e-004,5.050261e-005
1.542964e-003,4.888196e-005
2.377117e-003,4.142695e-005
3.226182e-003,3.073064e-005
3.784988e-003,1.663096e-005
3.738799e-003,3.665733e-006
2.984703e-003,-5.896120e-006
1.767587e-003,-1.092015e-005
5.328091e-004,-8.651231e-006
-3.057169e-004,-2.978945e-006
-5.961379e-004,-1.196226e-006
-4.694028e-004,-7.678839e-006
-1.974573e-004,-1.869928e-005
-5.727082e-005,-3.134038e-005
-1.810887e-004,-3.960571e-005
-5.024642e-004,-4.236081e-005
-8.278912e-004,-4.057810e-005
-9.774775e-004,-3.393342e-005
-8.873692e-004,-1.999580e-005
-6.154237e-004,1.234753e-006
-2.810830e-004,2.214118e-005
8.365628e-006,3.834771e-005
2.070577e-004,5.115087e-005
3.198552e-004,6.136099e-005
3.681507e-004,6.687120e-005
3.568061e-004,6.233338e-005
2.529222e-004,4.871989e-005
6.907039e-006,3.089270e-005
-3.854531e-004,1.144487e-005
-8.445840e-004,-1.010982e-005
-1.242940e-003,-3.490581e-005
-1.486525e-003,-6.051213e-005
-1.572095e-003,-8.060822e-005
-1.565450e-003,-8.806324e-005
-1.541465e-003,-8.125648e-005
-1.529796e-003,-7.088431e-005
-1.517317e-003,-6.699474e-005
-1.482311e-003,-7.299116e-005
-1.413109e-003,-8.822530e-005
-1.304363e-003,-1.031353e-004
-1.136463e-003,-1.058904e-004
-8.993620e-004,-9.519411e-005
-6.194753e-004,-8.012203e-005
-3.415334e-004,-6.748093e-005
-9.665269e-005,-6.035006e-005
9.847395e-005,-5.078821e-005
2.367157e-004,-3.004385e-005
3.235827e-004,2.369210e-006
3.687989e-004,3.786152e-005
3.850055e-004,6.930219e-005
3.814400e-004,9.101894e-005
3.660438e-004,9.490851e-005
3.475684e-004,8.113296e-005
3.308756e-004,5.504044e-005
3.138588e-004,2.684107e-005
3.044590e-004,9.013888e-006
3.226103e-004,9.662150e-006
3.809539e-004,2.570661e-005
4.627969e-004,4.807163e-005
5.397779e-004,6.411610e-005
6.020110e-004,6.784360e-005
6.349103e-004,5.649903e-005
6.041179e-004,3.996836e-005
4.602038e-004,2.376183e-005
1.756170e-004,1.306552e-005
-2.075054e-004,2.035846e-005
-5.723143e-004,5.666109e-005
-8.113606e-004,1.146805e-004
-8.786177e-004,1.749688e-004
-7.915886e-004,2.184023e-004
-6.024585e-004,2.383363e-004
-3.651949e-004,2.325020e-004
-1.117248e-004,2.093266e-004
1.474177e-004,1.786963e-004
3.995913e-004,1.475797e-004
6.222692e-004,1.208390e-004
7.888725e-004,1.002567e-004
8.767120e-004,8.599491e-005
8.804395e-004,7.465034e-005
8.212855e-004,6.314371e-005
7.285841e-004,5.082674e-005
6.253485e-004,4.094075e-005
5.198439e-004,2.959618e-005
4.080188e-004,1.760335e-005
2.840387e-004,8.203561e-006
1.532520e-004,-4.113402e-006
2.992031e-005,-2.664048e-005
-6.877746e-005,-5.759496e-005
-1.340898e-004,-8.628051e-005
-1.676373e-004,-1.079973e-004
-1.789819e-004,-1.245279e-004
-1.804405e-004,-1.332795e-004
-1.786577e-004,-1.289037e-004
-1.755785e-004,-1.076731e-004
-1.789819e-004,-6.083626e-005
-1.934057e-004,1.241726e-005
-2.092881e-004,1.010670e-004
-2.173913e-004,1.918236e-004
-2.191741e-004,2.639427e-004
-2.240360e-004,3.020280e-004
-2.245222e-004,3.012177e-004
-1.836818e-004,2.688046e-004
-6.812920e-005,2.124059e-004
1.119254e-004,1.373696e-004
2.905214e-004,4.580272e-005
3.712299e-004,-5.030201e-005
2.960316e-004,-1.370070e-004
8.875003e-005,-2.024813e-004
-1.579134e-004,-2.373254e-004
-3.408851e-004,-2.379736e-004
-3.974459e-004,-2.094501e-004
-3.334301e-004,-1.663408e-004
-2.044261e-004,-1.232314e-004
-7.639453e-005,-9.454584e-005
5.610517e-006,-8.482193e-005
3.186510e-005,-9.162867e-005
2.359977e-005,-1.075111e-004
1.565857e-005,-1.284175e-004
2.684107e-005,-1.532135e-004
6.217131e-005,-1.784957e-004
1.090082e-004,-1.911368e-004
1.516314e-004,-1.823852e-004
1.796687e-004,-1.499722e-004
1.890685e-004,-9.892161e-005
1.851789e-004,-4.057810e-005
1.780480e-004,1.112074e-005
1.717275e-004,5.050261e-005
1.628139e-004,7.918817e-005
1.412592e-004,9.912220e-005
1.127357e-004,1.145184e-004
9.733949e-005,1.310491e-004
1.268354e-004,1.519555e-004
2.213195e-004,1.767515e-004
3.581026e-004,1.979821e-004
4.811102e-004,2.098128e-004
5.415606e-004,2.109473e-004
5.253541e-004,2.091646e-004
4.512902e-004,2.085163e-004
3.529165e-004,2.010613e-004
2.592428e-004,1.832341e-004
1.838824e-004,1.623277e-004
1.294284e-004,1.441764e-004
9.426025e-005,1.318594e-004
5.649903e-005,1.266733e-004
-7.516774e-006,1.281319e-004
-1.036215e-004,1.321835e-004
-2.094501e-004,1.354248e-004
-2.948585e-004,1.391524e-004
-3.324577e-004,1.477418e-004
-3.031239e-004,1.671896e-004
-1.977814e-004,1.974959e-004
-1.902341e-005,2.279641e-004
2.093266e-004,2.459534e-004
4.470765e-004,2.444948e-004
6.694302e-004,2.260194e-004
8.674742e-004,1.934442e-004
1.010740e-003,1.573037e-004
1.048177e-003,1.297525e-004
9.556379e-004,1.143563e-004
7.699108e-004,1.106288e-004
5.791598e-004,1.117633e-004
4.504799e-004,1.086841e-004
3.694472e-004,9.912220e-005
2.613496e-004,7.902610e-005
6.427816e-005,3.915804e-005
-2.245222e-004,-3.036798e-005
-5.570801e-004,-1.327932e-004
-8.739178e-004,-2.504527e-004
-1.128684e-003,-3.527158e-004
-1.300636e-003,-4.110594e-004
-1.387989e-003,-4.089525e-004
-1.407437e-003,-3.454229e-004
-1.394472e-003,-2.373254e-004
-1.398361e-003,-1.081593e-004
-1.455570e-003,1.549650e-005
-1.548434e-003,1.140322e-004
-1.615367e-003,1.759412e-004
-1.596243e-003,1.947408e-004
-1.460594e-003,1.730240e-004
-1.215227e-003,1.253768e-004
-8.823452e-004,6.719534e-005
-4.903093e-004,1.063454e-005
-8.984595e-005,-4.057810e-005
2.647530e-004,-8.174268e-005
5.362125e-004,-1.141557e-004
7.201567e-004,-1.400862e-004
8.305233e-004,-1.619650e-004
8.916220e-004,-1.686097e-004
9.217662e-004,-1.488377e-004
9.293832e-004,-1.029732e-004
9.135008e-004,-4.138842e-005
8.744430e-004,2.003433e-005
8.229063e-004,6.914012e-005
7.736383e-004,9.928427e-005
7.350668e-004,1.057669e-004
7.073535e-004,9.020861e-005
6.887161e-004,5.730935e-005
6.721854e-004,1.419998e-005
6.452825e-004,-3.231276e-005
5.903423e-004,-7.234290e-005
5.046097e-004,-9.665269e-005
3.903536e-004,-1.037836e-004
2.474120e-004,-1.041077e-004
7.659513e-005,-1.058904e-004
-1.079973e-004,-1.126972e-004
-2.765452e-004,-1.224211e-004
-3.924218e-004,-1.274451e-004
-4.087905e-004,-1.217728e-004
-2.935620e-004,-1.013526e-004
-5.435365e-005,-6.861539e-005
2.496809e-004,-3.377135e-005
5.281092e-004,-1.844488e-006
7.068673e-004,3.364782e-005
7.537042e-004,7.789165e-005
6.807748e-004,1.232699e-004
5.272989e-004,1.558451e-004
3.349273e-004,1.705930e-004
1.368834e-004,1.675138e-004
-4.479180e-005,1.509831e-004
-1.919471e-004,1.265113e-004
-2.901587e-004,9.896014e-005
-3.392644e-004,7.432621e-005
-3.506090e-004,5.423011e-005
-3.402368e-004,3.510640e-005
-3.217614e-004,1.403791e-005
-2.940482e-004,-8.165034e-006
-2.447804e-004,-2.809907e-005
-1.710407e-004,-4.430560e-005
-8.628051e-005,-5.824321e-005
-7.840905e-006,-7.072224e-005
4.547859e-005,-8.060822e-005
6.281957e-005,-9.114247e-005
4.677511e-005,-1.032974e-004
1.558884e-006,-1.139937e-004
-7.882551e-005,-1.224211e-004
-1.961608e-004,-1.279313e-004
-3.303509e-004,-1.277692e-004
-4.366657e-004,-1.185315e-004
-4.658374e-004,-9.616650e-005
-3.875599e-004,-6.504996e-005
-2.005366e-004,-3.279896e-005
7.772959e-005,-6.220251e-006
4.271425e-004,1.241726e-005
8.039446e-004,1.938607e-005
1.137313e-003,1.565857e-005
1.359181e-003,8.041497e-006
1.436162e-003,2.045080e-006
1.385436e-003,-8.720958e-007
1.256594e-003,6.258778e-006
1.086101e-003,2.554455e-005
8.903255e-004,5.196120e-005
6.507927e-004,7.756751e-005
3.339549e-004,9.782569e-005
-5.905355e-005,1.072255e-004
-4.518998e-004,1.047945e-004
-7.147696e-004,9.523264e-005
-7.695478e-004,8.340186e-005
-6.405438e-004,7.578480e-005
-4.356933e-004,7.951231e-005
-2.768693e-004,9.847395e-005
-2.198223e-004,1.255388e-004
-2.313289e-004,1.529279e-004
-2.323013e-004,1.733481e-004
-1.583996e-004,1.782101e-004
-4.923729e-006,1.678379e-004
1.991165e-004,1.563313e-004
4.627969e-004,1.581140e-004
8.195028e-004,1.748067e-004
1.243628e-003,1.942546e-004
1.614921e-003,2.073818e-004
1.776987e-003,2.114335e-004
1.630965e-003,2.031682e-004
1.092583e-003,1.822617e-004
1.114392e-004,1.524417e-004
-1.211338e-003,1.231079e-004
-2.565881e-003,1.026876e-004
-3.594836e-003,9.166720e-005
-4.045542e-003,8.745350e-005
-3.896603e-003,8.340186e-005
-3.331966e-003,7.400208e-005
-2.614014e-003,6.427816e-005
-1.949545e-003,5.828174e-005
-1.439202e-003,5.925414e-005
-1.092868e-003,6.670914e-005
-8.789418e-004,7.691926e-005
-7.609583e-004,8.161915e-005
-7.137973e-004,7.448828e-005
-7.298418e-004,5.633696e-005
-8.131433e-004,3.073064e-005
-9.372853e-004,6.258778e-006
-1.027232e-003,-1.075808e-005
-9.735879e-004,-2.048200e-005
-6.667983e-004,-2.307504e-005
-2.858526e-005,-1.886135e-005
8.963219e-004,-1.124428e-005
1.845378e-003,-2.816880e-006
2.448102e-003,1.883015e-006
2.389596e-003,3.017472e-006
1.618162e-003,3.989864e-006
4.200116e-004,7.717366e-006
-7.102318e-004,9.662150e-006
-1.360438e-003,9.500084e-006
-1.426723e-003,7.555300e-006
-1.042790e-003,7.069104e-006
-4.627582e-004,1.371378e-005
7.918817e-005,2.619281e-005
4.477248e-004,3.996836e-005
6.227554e-004,5.163707e-005
6.862851e-004,5.990240e-005
7.713694e-004,6.281957e-005
9.752478e-004,6.411610e-005
1.293545e-003,6.946425e-005
1.627238e-003,7.772959e-005
1.845864e-003,8.421220e-005
1.872281e-003,8.518459e-005
1.723829e-003,8.032263e-005
1.482513e-003,6.995045e-005
1.246546e-003,5.649903e-005
1.077835e-003,4.337174e-005
9.809200e-004,3.543053e-005
9.279246e-004,2.910999e-005
8.807636e-004,2.019640e-005
8.128582e-004,6.096713e-006
7.242084e-004,-4.437533e-006
6.368551e-004,1.558884e-006
5.762426e-004,2.424803e-005
5.590637e-004,4.888196e-005
5.788357e-004,5.828174e-005
6.221071e-004,4.142695e-005
6.760749e-004,5.286386e-006
7.285841e-004,-4.090223e-005
7.674798e-004,-8.741497e-005
7.864415e-004,-1.232314e-004
7.856312e-004,-1.353863e-004
7.676419e-004,-1.159385e-004
7.355530e-004,-6.245691e-005
6.885540e-004,1.290346e-005
6.209727e-004,9.166720e-005
5.300540e-004,1.571416e-004
4.164462e-004,1.924718e-004
2.827422e-004,1.908512e-004
1.276457e-004,1.539003e-004
-4.981582e-005,9.490851e-005
-2.379736e-004,3.283749e-005
-4.065215e-004,-1.464765e-005
-5.193189e-004,-3.441962e-005
-5.470321e-004,-2.955766e-005
-4.800992e-004,-1.108221e-005
-3.373197e-004,1.176900e-005
-1.750923e-004,3.575467e-005
-5.646050e-005,6.217131e-005
-1.934754e-005,9.134307e-005
-5.824321e-005,1.208390e-004
-1.284175e-004,1.436902e-004
-1.713648e-004,1.555209e-004
-1.421931e-004,1.522796e-004
-3.522994e-005,1.359110e-004
1.210010e-004,1.117633e-004
2.629703e-004,8.421220e-005
3.196932e-004,5.406805e-005
2.352571e-004,1.533444e-005
-2.907146e-005,-3.733679e-005
-4.904713e-004,-1.050801e-004
-1.125443e-003,-1.827094e-004
-1.869323e-003,-2.590421e-004
-2.611097e-003,-3.168994e-004
-3.242343e-003,-3.475298e-004
-3.682352e-003,-3.562813e-004
-3.867432e-003,-3.660052e-004
-3.751230e-003,-3.997148e-004
-3.321593e-003,-4.637306e-004
-2.636379e-003,-5.431426e-004
-1.818434e-003,-6.082928e-004
-9.996805e-004,-6.291992e-004
-3.138202e-004,-5.885208e-004
1.360731e-004,-4.894990e-004
3.440029e-004,-3.504469e-004
4.081808e-004,-2.042640e-004
4.942375e-004,-7.995997e-005
7.268014e-004,4.800190e-006
1.092421e-003,4.985435e-005
1.470034e-003,6.914012e-005
1.708433e-003,8.194328e-005
1.720750e-003,1.039842e-004
1.523516e-003,1.375317e-004
1.196143e-003,1.769136e-004
7.945448e-004,2.107852e-004
3.516200e-004,2.299089e-004
-6.829127e-005,2.316917e-004
-3.596847e-004,2.209953e-004
-4.089525e-004,2.085163e-004
-1.752544e-004,2.033302e-004
2.529222e-004,2.030061e-004
7.018433e-004,2.007372e-004
1.019168e-003,1.882581e-004
1.153682e-003,1.671896e-004
1.161623e-003,1.467694e-004
1.137638e-003,1.323456e-004
1.143634e-003,1.268354e-004
1.192254e-003,1.289422e-004
1.258376e-003,1.357490e-004
1.305699e-003,1.445005e-004
1.318665e-003,1.503348e-004
1.300513e-003,1.501728e-004
1.256918e-003,1.459591e-004
1.186095e-003,1.466074e-004
1.077673e-003,1.566554e-004
9.340832e-004,1.736723e-004
7.681281e-004,1.921477e-004
5.872631e-004,2.038164e-004
3.995913e-004,2.049509e-004
2.075439e-004,1.979821e-004
1.419998e-005,1.872858e-004
-1.687718e-004,1.764274e-004
-3.368334e-004,1.696206e-004
-4.916058e-004,1.665414e-004
-6.316302e-004,1.615174e-004
-7.517206e-004,1.500107e-004
-8.484736e-004,1.250527e-004
-9.241580e-004,8.323980e-005
-9.831497e-004,2.684107e-005
-1.014753e-003,-3.247483e-005
-1.001787e-003,-7.444974e-005
-9.353405e-004,-8.579432e-005
-8.171949e-004,-6.229485e-005
-6.562641e-004,-3.789271e-006
-4.588686e-004,7.902610e-005
-2.350565e-004,1.733481e-004
-2.291298e-005,2.605393e-004
1.266733e-004,3.230965e-004
1.702689e-004,3.511338e-004
9.636710e-005,3.483787e-004
-6.132245e-005,3.221241e-004
-2.326255e-004,2.906834e-004
-3.574157e-004,2.746390e-004
-4.175420e-004,2.842008e-004
-4.326140e-004,3.086727e-004
-4.123559e-004,3.300653e-004
-3.446126e-004,3.302274e-004
-2.075054e-004,2.979764e-004
8.203561e-006,2.328261e-004
2.919800e-004,1.490383e-004
6.073592e-004,6.022653e-005
8.932427e-004,-2.388537e-005
1.069570e-003,-9.405964e-005
1.078321e-003,-1.468929e-004
9.203076e-004,-1.865989e-004
6.434998e-004,-2.185258e-004
3.172621e-004,-2.457528e-004
-1.335112e-005,-2.658489e-004
-3.459091e-004,-2.755728e-004
-6.684190e-004,-2.747625e-004
-9.286958e-004,-2.681178e-004
-1.060779e-003,-2.579077e-004
-1.018318e-003,-2.441321e-004
-8.100641e-004,-2.274394e-004
-4.971160e-004,-2.102605e-004
-1.679614e-004,-1.937298e-004
7.675719e-005,-1.741199e-004
1.631380e-004,-1.444620e-004
7.108490e-005,-1.045939e-004
-1.639098e-004,-6.278104e-005
-4.541687e-004,-3.231276e-005
-6.888392e-004,-2.194059e-005
-7.813785e-004,-3.166451e-005
-7.074767e-004,-5.500191e-005
-5.034365e-004,-8.401160e-005
-2.227395e-004,-1.114006e-004
8.194328e-005,-1.302002e-004
3.652335e-004,-1.323070e-004
5.989318e-004,-1.117248e-004
7.728280e-004,-6.877746e-005
8.799533e-004,-1.124428e-005
9.183628e-004,4.888196e-005
8.919461e-004,9.896014e-005
8.138305e-004,1.333180e-004
7.052467e-004,1.480659e-004
5.900182e-004,1.451487e-004
4.846757e-004,1.328318e-004
4.049395e-004,1.239182e-004
3.687989e-004,1.235941e-004
3.762539e-004,1.396385e-004
4.115842e-004,1.662173e-004
4.619866e-004,1.921477e-004
5.183853e-004,2.054371e-004
5.704083e-004,2.018716e-004
6.250243e-004,1.850168e-004
6.958469e-004,1.582760e-004
7.750969e-004,1.247285e-004
7.791486e-004,8.194328e-005
5.603603e-004,3.413401e-005
4.823369e-005,-5.247859e-006
-6.444334e-004,-1.999580e-005
-1.286536e-003,-2.978945e-006
-1.706771e-003,3.769945e-005
-1.884233e-003,8.405013e-005
-1.899467e-003,1.182459e-004
-1.840637e-003,1.287802e-004
-1.750043e-003,1.125736e-004
-1.632383e-003,7.594687e-005
-1.472425e-003,3.170303e-005
-1.267574e-003,-7.192643e-006
-1.043600e-003,-3.036798e-005
-8.487977e-004,-3.620233e-005
-7.231971e-004,-2.599222e-005
-6.650157e-004,-4.113402e-006
-6.350335e-004,1.987226e-005
-5.898174e-004,3.364782e-005
-5.001953e-004,2.392390e-005
-3.653569e-004,-1.513384e-005
-1.985918e-004,-7.639453e-005
-1.821308e-005,-1.468929e-004
1.466074e-004,-2.110708e-004
2.704253e-004,-2.608248e-004
3.530786e-004,-2.924276e-004
4.062360e-004,-3.042583e-004
4.378388e-004,-2.987481e-004
4.512902e-004,-2.820554e-004
4.535591e-004,-2.606628e-004
4.597176e-004,-2.421873e-004
4.835412e-004,-2.342461e-004
5.305402e-004,-2.365150e-004
6.294001e-004,-2.425115e-004
8.026481e-004,-2.442942e-004
1.031484e-003,-2.370012e-004
1.266317e-003,-2.144742e-004
1.453341e-003,-1.729855e-004
1.556577e-003,-1.148040e-004
1.560305e-003,-4.900549e-005
1.472627e-003,1.128280e-005
1.327254e-003,5.747142e-005
1.170050e-003,8.712937e-005
1.041209e-003,1.033359e-004
9.580688e-004,1.109530e-004
9.053975e-004,1.128978e-004
8.613158e-004,1.135460e-004
8.182063e-004,1.193804e-004
7.793106e-004,1.329939e-004
7.439803e-004,1.503348e-004
7.105949e-004,1.597346e-004
6.721854e-004,1.517934e-004
6.222692e-004,1.138701e-004
5.644119e-004,3.948217e-005
5.010443e-004,-6.180866e-005
4.310320e-004,-1.618029e-004
3.657197e-004,-2.237119e-004
3.159656e-004,-2.253325e-004
2.864697e-004,-1.665028e-004
2.679943e-004,-6.148453e-005
2.459534e-004,6.832980e-005
2.023578e-004,2.012234e-004
1.059289e-004,3.216379e-004
-7.088431e-005,4.190392e-004
-3.300267e-004,4.888894e-004
-6.492953e-004,5.260024e-004
-9.996805e-004,5.297298e-004
-1.333211e-003,5.050959e-004
-1.573716e-003,4.610142e-004
-1.612287e-003,4.070464e-004
-1.354603e-003,3.595612e-004
-8.068228e-004,3.311998e-004
-1.101041e-004,3.224483e-004
5.117406e-004,3.158036e-004
8.857876e-004,2.916558e-004
9.827028e-004,2.466016e-004
8.912979e-004,1.931201e-004
7.410632e-004,1.466074e-004
6.130315e-004,1.171115e-004
5.352401e-004,1.093323e-004
5.172509e-004,1.216493e-004
5.535535e-004,1.449867e-004
5.932595e-004,1.697827e-004
5.303781e-004,1.910132e-004
2.749631e-004,2.055991e-004
-1.822232e-004,2.133783e-004
-8.460426e-004,2.094887e-004
-1.724437e-003,1.929580e-004
-2.740749e-003,1.568175e-004
-3.681218e-003,9.199134e-005
-4.264818e-003,1.883015e-006
-4.291397e-003,-9.454584e-005
-3.765978e-003,-1.786577e-004
-2.898763e-003,-2.371633e-004
-1.974179e-003,-2.694143e-004
-1.204045e-003,-2.827036e-004
-6.650157e-004,-2.857829e-004
-3.261371e-004,-2.891863e-004
-1.118868e-004,-2.919414e-004
4.483032e-005,-2.846484e-004
1.631380e-004,-2.676316e-004
2.307192e-004,-2.528836e-004
2.260194e-004,-2.491561e-004
1.550348e-004,-2.509389e-004
5.990240e-005,-2.519113e-004
-8.489165e-006,-2.486699e-004
-1.967167e-005,-2.402425e-004
2.781346e-005,-2.261429e-004
1.109530e-004,-2.023193e-004
2.034923e-004,-1.656925e-004
2.793389e-004,-1.144799e-004
3.258516e-004,-5.321919e-005
3.448132e-004,3.665733e-006
3.511338e-004,4.239934e-005
3.559958e-004,5.909207e-005
3.647473e-004,5.439218e-005
3.934329e-004,2.603075e-005
5.013684e-004,-1.983374e-005
7.686143e-004,-6.812920e-005
1.237146e-003,-1.037836e-004
1.901129e-003,-1.230693e-004
2.655871e-003,-1.289037e-004
3.255354e-003,-1.253383e-004
3.394893e-003,-1.138316e-004
2.863315e-003,-9.665269e-005
1.736956e-003,-7.785312e-005
3.846813e-004,-6.391550e-005
-6.980770e-004,-5.986387e-005
-1.223331e-003,-6.229485e-005
-1.211176e-003,-6.245691e-005
-8.533355e-004,-5.483985e-005
-3.839945e-004,-3.685059e-005
2.927205e-005,-8.651231e-006
3.133726e-004,3.137890e-005
4.760862e-004,8.016056e-005
5.542017e-004,1.360731e-004
5.843459e-004,1.889064e-004
5.927733e-004,2.342847e-004
5.945560e-004,2.676701e-004
6.003904e-004,2.929523e-004
6.177314e-004,3.115899e-004
6.509548e-004,3.224483e-004
7.005468e-004,3.227724e-004
7.592145e-004,3.117519e-004
8.078341e-004,2.911697e-004
8.235545e-004,2.655633e-004
7.908173e-004,2.341226e-004
7.123776e-004,1.997648e-004
6.044420e-004,1.605450e-004
4.900239e-004,1.128978e-004
3.827366e-004,5.212327e-005
2.876042e-004,-1.286493e-005
2.064095e-004,-6.586029e-005
1.360731e-004,-9.341139e-005
6.816773e-005,-9.114247e-005
1.720949e-006,-6.812920e-005
-4.900549e-005,-4.106429e-005
-6.667061e-005,-1.756482e-005
-4.381940e-005,-2.006553e-006
1.306552e-005,9.500084e-006
9.020861e-005,2.149292e-005
1.731861e-004,3.251336e-005
2.644288e-004,4.207521e-005
3.910019e-004,5.147500e-005
5.533914e-004,5.698522e-005
6.984400e-004,5.358185e-005
7.258290e-004,4.450619e-005
5.402641e-004,3.867184e-005
1.399627e-004,3.964423e-005
-3.689224e-004,4.823369e-005
-8.458805e-004,6.622294e-005
-1.188162e-003,9.490851e-005
-1.362383e-003,1.318594e-004
-1.403547e-003,1.715654e-004
-1.382641e-003,2.067336e-004
-1.364652e-003,2.305572e-004
-1.377131e-003,2.401191e-004
-1.414568e-003,2.381743e-004
-1.479556e-003,2.297469e-004
-1.590084e-003,2.164575e-004
-1.758470e-003,1.989545e-004
-1.974341e-003,1.796687e-004
-2.191347e-003,1.598967e-004
-2.346930e-003,1.404489e-004
-2.370267e-003,1.167873e-004
-2.200585e-003,9.166720e-005
-1.816004e-003,6.800567e-005
-1.256392e-003,4.612685e-005
-6.079687e-004,2.619281e-005
3.543053e-005,3.017472e-006
5.830494e-004,-2.129233e-005
9.643894e-004,-4.527799e-005
1.152385e-003,-6.731887e-005
1.167944e-003,-8.903562e-005
1.055632e-003,-1.081593e-004
8.655294e-004,-1.173971e-004
6.564650e-004,-1.172350e-004
4.828930e-004,-1.172350e-004
3.790091e-004,-1.266348e-004
3.461098e-004,-1.417068e-004
3.624784e-004,-1.493239e-004
4.002396e-004,-1.391138e-004
4.441593e-004,-1.136696e-004
4.880791e-004,-8.303921e-005
5.217887e-004,-5.095028e-005
5.363746e-004,-2.048200e-005
5.441537e-004,5.286386e-006
5.666808e-004,1.857574e-005
6.078454e-004,2.003433e-005
6.621373e-004,1.792748e-005
7.227497e-004,2.100672e-005
7.828761e-004,3.316162e-005
8.350611e-004,4.661304e-005
8.733086e-004,5.147500e-005
8.935668e-004,4.418206e-005
8.909737e-004,2.781346e-005
8.708776e-004,8.527692e-006
8.423541e-004,-6.058186e-006
8.110754e-004,-1.270286e-005
7.775279e-004,-1.254080e-005
7.506250e-004,-6.706447e-006
7.449528e-004,3.017472e-006
7.647247e-004,1.176900e-005
8.115617e-004,1.760335e-005
8.762258e-004,1.889987e-005
9.305177e-004,1.355172e-005
9.384589e-004,3.503668e-006
8.679605e-004,-1.205460e-005
7.050846e-004,-3.296103e-005
4.482110e-004,-6.035006e-005
9.280166e-005,-8.871149e-005
-3.566054e-004,-1.131834e-004
-8.304843e-004,-1.263107e-004
-1.188649e-003,-1.250141e-004
-1.311818e-003,-1.143178e-004
-1.197724e-003,-1.078352e-004
-9.719673e-004,-1.104282e-004
-7.898059e-004,-1.199901e-004
-7.248177e-004,-1.284175e-004
-7.447518e-004,-1.311726e-004
-7.656582e-004,-1.255003e-004
-7.209282e-004,-1.092938e-004
-5.940310e-004,-8.611845e-005
-4.010113e-004,-6.018800e-005
-1.627753e-004,-3.441962e-005
8.907416e-005,-5.571990e-006
3.183966e-004,2.635488e-005
5.008822e-004,5.649903e-005
6.297242e-004,8.469840e-005
7.033019e-004,1.062531e-004
7.203188e-004,1.187321e-004
6.765611e-004,1.266733e-004
5.861287e-004,1.381799e-004
4.815964e-004,1.579519e-004
3.778746e-004,1.855030e-004
2.655633e-004,2.143507e-004
1.247285e-004,2.365536e-004
-5.694669e-005,2.475740e-004
-2.681178e-004,2.506533e-004
-4.810716e-004,2.493568e-004
-6.713362e-004,2.449810e-004
-8.249740e-004,2.393087e-004
-9.432817e-004,2.302331e-004
-1.043276e-003,2.127300e-004
-1.144405e-003,1.829100e-004
-1.258337e-003,1.445005e-004
-1.385234e-003,1.025256e-004
-1.517155e-003,6.006446e-005
-1.637083e-003,2.230324e-005
-1.712930e-003,-1.682422e-006
-1.705475e-003,-6.220251e-006
-1.592353e-003,9.986280e-006
-1.363841e-003,3.656499e-005
-1.028852e-003,6.087479e-005
-6.303337e-004,7.043664e-005
-2.316531e-004,6.249544e-005
1.111150e-004,3.769945e-005
3.653956e-004,6.096713e-006
5.204921e-004,-2.113026e-005
5.892079e-004,-3.847125e-005
6.034696e-004,-4.430560e-005
5.911527e-004,-4.187462e-005
5.715428e-004,-3.604027e-005
5.577672e-004,-3.231276e-005
5.597120e-004,-3.474375e-005
5.746220e-004,-4.592625e-005
5.890458e-004,-6.375343e-005
5.939078e-004,-8.271508e-005
5.807804e-004,-9.276313e-005
5.506363e-004,-9.422171e-005
5.120648e-004,-9.081834e-005
4.764104e-004,-8.790116e-005
4.546936e-004,-8.741497e-005
4.553419e-004,-8.984595e-005
4.754380e-004,-9.438377e-005
5.025028e-004,-9.730095e-005
5.250300e-004,-9.908367e-005
5.378331e-004,-1.037836e-004
5.397779e-004,-1.118868e-004
5.363746e-004,-1.193418e-004
5.441537e-004,-1.204763e-004
5.713807e-004,-1.130213e-004
6.201623e-004,-9.730095e-005
6.827196e-004,-7.914964e-005
7.428459e-004,-5.872941e-005
7.956792e-004,-3.279896e-005
8.527263e-004,-2.492749e-006
9.324625e-004,2.765140e-005
1.040722e-003,5.552663e-005
1.161785e-003,8.323980e-005
1.250273e-003,1.124116e-004
1.261131e-003,1.381799e-004
1.169078e-003,1.548727e-004
9.854579e-004,1.611932e-004
7.456010e-004,1.616794e-004
4.717104e-004,1.586002e-004
1.564933e-004,1.579519e-004
-2.227395e-004,1.582760e-004
-6.671225e-004,1.582760e-004
-1.122850e-003,1.629759e-004
-1.487659e-003,1.735102e-004
-1.645187e-003,1.872858e-004
-1.527527e-003,2.090025e-004
-1.177628e-003,2.451431e-004
-7.351899e-004,2.892249e-004
-3.596847e-004,3.219621e-004
-1.575892e-004,3.286067e-004
-1.332795e-004,2.974902e-004
-2.117190e-004,2.287745e-004
-3.023136e-004,1.376937e-004
-3.506090e-004,4.758544e-005
-3.399127e-004,-2.777494e-005
-2.710350e-004,-8.255302e-005
-1.522411e-004,-1.139937e-004
-8.002969e-006,-1.245279e-004
1.316973e-004,-1.175591e-004
2.401191e-004,-1.005423e-004
2.979764e-004,-8.935975e-005
2.929523e-004,-9.908367e-005
2.316917e-004,-1.339277e-004
1.355869e-004,-1.878955e-004
3.170303e-005,-2.433218e-004
-6.715681e-005,-2.825416e-004
-1.498101e-004,-2.951827e-004
-2.044261e-004,-2.836761e-004
-2.109087e-004,-2.572594e-004
-1.465688e-004,-2.235498e-004
-4.437533e-006,-1.903264e-004
1.893926e-004,-1.637477e-004
3.796573e-004,-1.455964e-004
5.084993e-004,-1.313347e-004
5.399400e-004,-1.169109e-004
4.700898e-004,-9.600443e-005
3.141829e-004,-6.991192e-005
1.012291e-004,-4.317114e-005
-1.373311e-004,-2.210265e-005
-3.702189e-004,-1.286493e-005
-5.719902e-004,-2.145439e-005
-7.197937e-004,-4.560212e-005
-8.017988e-004,-7.801519e-005
-8.071469e-004,-1.062145e-004
-7.334072e-004,-1.157764e-004
-5.997033e-004,-9.568031e-005
-4.397449e-004,-4.754691e-005
-2.885380e-004,1.792748e-005
-1.665028e-004,8.599491e-005
-8.141856e-005,1.383420e-004
-3.360929e-005,1.642725e-004
-1.643037e-005,1.624898e-004
-1.237873e-005,1.370455e-004
-2.654814e-006,9.507057e-005
3.008238e-005,4.823369e-005
9.166720e-005,4.800190e-006
1.803169e-004,-3.117831e-005
2.918179e-004,-5.143647e-005
4.204978e-004,-4.641245e-005
5.504742e-004,-1.416145e-005
6.503065e-004,3.494434e-005
6.895264e-004,8.664317e-005
6.592201e-004,1.302387e-004
5.801322e-004,1.633001e-004
4.945617e-004,1.877719e-004
4.355699e-004,2.047888e-004
4.172565e-004,2.148369e-004
4.431869e-004,2.213195e-004
5.086614e-004,2.271538e-004
5.994180e-004,2.329882e-004
6.990882e-004,2.380122e-004
7.909793e-004,2.423880e-004
8.658536e-004,2.493568e-004
9.246834e-004,2.551911e-004
9.653618e-004,2.572980e-004
9.681169e-004,2.582704e-004
8.924323e-004,2.590807e-004
7.164293e-004,2.577842e-004
4.709001e-004,2.516257e-004
1.884202e-004,2.441707e-004
-1.267968e-004,2.383363e-004
-5.142949e-004,2.303951e-004
-1.007298e-003,2.151610e-004
-1.561237e-003,1.970097e-004
-2.041923e-003,1.764274e-004
-2.317434e-003,1.542244e-004
-2.350171e-003,1.360731e-004
-2.197344e-003,1.304008e-004
-1.947277e-003,1.420695e-004
-1.679058e-003,1.667035e-004
-1.435150e-003,1.936063e-004
-1.228517e-003,2.127300e-004
-1.058186e-003,2.120818e-004
-9.060067e-004,1.856651e-004
-7.455621e-004,1.346145e-004
-5.567560e-004,6.930219e-005
-3.371576e-004,1.144487e-005
-1.088076e-004,-1.934754e-005
9.426025e-005,-1.675450e-005
2.478982e-004,1.193106e-005
3.519442e-004,4.953022e-005
4.183909e-004,7.789165e-005
4.636072e-004,8.761556e-005
4.999098e-004,7.918817e-005
5.302160e-004,5.585077e-005
5.376711e-004,1.906194e-005
5.076890e-004,-2.420950e-005
4.516144e-004,-6.618442e-005
4.266563e-004,-9.989400e-005
5.114165e-004,-1.233935e-004
7.159431e-004,-1.389517e-004
9.532069e-004,-1.470550e-004
1.083832e-003,-1.496480e-004
1.009930e-003,-1.454343e-004
7.447907e-004,-1.349001e-004
3.867882e-004,-1.227452e-004
5.714729e-005,-1.156143e-004
-1.512687e-004,-1.167488e-004
-2.185258e-004,-1.302002e-004
-1.930815e-004,-1.588858e-004
-1.569410e-004,-2.026434e-004
-1.859507e-004,-2.684419e-004
-3.057169e-004,-3.574157e-004
-4.886886e-004,-4.642168e-004
-6.705258e-004,-5.693972e-004
-7.842957e-004,-6.398956e-004
-8.001781e-004,-6.426506e-004
-7.325968e-004,-5.682627e-004
-6.189891e-004,-4.331002e-004
-4.864197e-004,-2.771934e-004
-3.436402e-004,-1.413827e-004
-1.883817e-004,-4.349527e-005
-1.513384e-005,1.760335e-005
1.662173e-004,5.082674e-005
3.396272e-004,6.897806e-005
4.942375e-004,7.837785e-005
6.290759e-004,8.032263e-005
7.376598e-004,7.886404e-005
8.063756e-004,7.837785e-005
8.365197e-004,7.935023e-005
8.536986e-004,7.821578e-005
8.981046e-004,7.627100e-005
9.807580e-004,7.578480e-005
1.087559e-003,8.291567e-005
1.202302e-003,9.863601e-005
1.313479e-003,1.182459e-004
1.402939e-003,1.331559e-004
1.459500e-003,1.409351e-004
1.492561e-003,1.417454e-004
1.526433e-003,1.391524e-004
1.554146e-003,1.357490e-004
1.535022e-003,1.313732e-004
1.411042e-003,1.300767e-004
1.135206e-003,1.380179e-004
7.193464e-004,1.550348e-004
2.295848e-004,1.730240e-004
-2.449424e-004,1.858272e-004
-6.326025e-004,1.914994e-004
-8.886657e-004,1.934442e-004
-9.949806e-004,1.931201e-004
-9.722914e-004,1.887443e-004
-8.768350e-004,1.799928e-004
-7.643617e-004,1.704310e-004
-6.598295e-004,1.642725e-004
-5.530285e-004,1.710792e-004
-4.277521e-004,1.926339e-004
-2.891863e-004,2.185644e-004
-1.592099e-004,2.368777e-004
-6.083626e-005,2.378501e-004
-7.354708e-006,2.248849e-004
4.476060e-006,2.057612e-004
-6.058186e-006,1.846927e-004
-1.562004e-005,1.676758e-004
-1.626830e-005,1.576278e-004
-1.270286e-005,1.524417e-004
-1.108221e-005,1.479039e-004
-1.529591e-005,1.339663e-004
-2.210265e-005,1.091703e-004
-8.651231e-006,7.529860e-005
4.888196e-005,3.850977e-005
1.576278e-004,5.772582e-006
2.880904e-004,-1.950961e-005
3.807918e-004,-3.247483e-005
3.875985e-004,-3.263690e-005
2.884145e-004,-2.793700e-005
8.486046e-005,-3.004385e-005
-2.068571e-004,-4.754691e-005
-5.538389e-004,-8.012203e-005
-9.191340e-004,-1.167488e-004
-1.256878e-003,-1.460826e-004
-1.503866e-003,-1.624512e-004
-1.593326e-003,-1.679614e-004
-1.484904e-003,-1.653684e-004
-1.187676e-003,-1.553203e-004
-7.617687e-004,-1.404103e-004
-2.924276e-004,-1.256624e-004
1.334801e-004,-1.152902e-004
4.482110e-004,-1.112386e-004
6.159487e-004,-1.052422e-004
6.337758e-004,-8.968388e-005
5.323229e-004,-6.359137e-005
3.618301e-004,-2.761287e-005
1.757791e-004,2.003433e-005
9.500084e-006,7.821578e-005
-1.224211e-004,1.357490e-004
-2.175534e-004,1.791825e-004
-2.768693e-004,2.033302e-004
-3.044204e-004,2.102990e-004
-3.164132e-004,2.015475e-004
-3.298646e-004,1.752929e-004
-3.634122e-004,1.321835e-004
-4.334243e-004,7.497447e-005
-5.342290e-004,1.857574e-005
-6.497815e-004,-2.696461e-005
-7.607962e-004,-6.051213e-005
-8.434496e-004,-8.255302e-005
-8.852624e-004,-8.871149e-005
-8.919070e-004,-8.125648e-005
-8.826694e-004,-7.039811e-005
-8.672731e-004,-6.521203e-005
-8.324290e-004,-6.569822e-005
-7.559343e-004,-7.120844e-005
-6.103996e-004,-8.303921e-005
-3.825359e-004,-9.989400e-005
-8.255302e-005,-1.199901e-004
2.569738e-004,-1.363587e-004
5.762426e-004,-1.442999e-004
8.248510e-004,-1.404103e-004
9.745996e-004,-1.240417e-004
1.029864e-003,-9.892161e-005
1.020950e-003,-6.650855e-005
9.841614e-004,-3.101624e-005
9.447794e-004,4.638125e-006
9.182007e-004,3.364782e-005
9.115561e-004,5.098881e-005
9.254937e-004,5.860587e-005
9.476966e-004,6.314371e-005
9.564482e-004,7.173317e-005
9.313280e-004,8.826383e-005
8.601813e-004,1.119254e-004
7.470596e-004,1.341283e-004
6.136798e-004,1.475797e-004
4.961823e-004,1.521176e-004
4.292493e-004,1.566554e-004
4.302217e-004,1.699447e-004
4.830550e-004,1.953890e-004
5.439916e-004,2.261814e-004
5.632774e-004,2.477361e-004
5.059062e-004,2.524360e-004
3.778746e-004,2.423880e-004
2.171058e-004,2.190506e-004
5.358185e-005,1.816135e-004
-1.186936e-004,1.320215e-004
-3.160891e-004,7.643306e-005
-5.095950e-004,2.262737e-005
-6.298475e-004,-1.983374e-005
-6.304957e-004,-4.560212e-005
-5.381185e-004,-5.548810e-005
-4.433104e-004,-5.597430e-005
-4.340726e-004,-5.143647e-005
-5.416840e-004,-4.495386e-005
-7.473448e-004,-3.587821e-005
-9.800706e-004,-2.064406e-005
-1.120905e-003,-3.858999e-007
-1.060779e-003,1.841368e-005
-7.713305e-004,2.732727e-005
-3.156029e-004,2.262737e-005
2.290986e-004,5.772582e-006
7.524077e-004,-1.853721e-005
1.092583e-003,-4.074016e-005
1.071029e-003,-5.224680e-005
5.976353e-004,-5.159854e-005
-1.820611e-004,-3.976777e-005
-9.398783e-004,-2.258885e-005
-1.376320e-003,-7.678839e-006
-1.377293e-003,-1.520357e-006
-1.000653e-003,-3.141010e-006
-4.014975e-004,-8.651231e-006
2.517877e-004,-1.707863e-005
8.301992e-004,-3.409548e-005
1.260321e-003,-6.002593e-005
1.500016e-003,-9.000801e-005
1.529674e-003,-1.135075e-004
1.367933e-003,-1.229073e-004
1.080752e-003,-1.115627e-004
7.574318e-004,-8.352540e-005
4.579349e-004,-4.916756e-005
1.961993e-004,-1.772689e-005
-5.321919e-005,5.772582e-006
-2.914552e-004,1.889987e-005
-4.624341e-004,2.522042e-005
-5.050572e-004,2.829966e-005
-4.131662e-004,3.089270e-005
-2.603386e-004,3.850977e-005
-1.536997e-004,5.536457e-005
-1.501342e-004,7.902610e-005
-2.222533e-004,1.012291e-004
-3.138202e-004,1.175977e-004
-3.861013e-004,1.253768e-004
-4.220798e-004,1.211631e-004
-4.070077e-004,1.083599e-004
-3.288923e-004,9.490851e-005
-1.865989e-004,8.534666e-005
2.693341e-006,8.259154e-005
2.008992e-004,8.631904e-005
3.725264e-004,9.085687e-005
5.005581e-004,9.766362e-005
5.848320e-004,1.067393e-004
6.357207e-004,1.177597e-004
6.631097e-004,1.271595e-004
6.763990e-004,1.321835e-004
6.835299e-004,1.308870e-004
6.827196e-004,1.263492e-004
6.663510e-004,1.231079e-004
6.410688e-004,1.200286e-004
6.216210e-004,1.124116e-004
6.214589e-004,9.944633e-005
6.399344e-004,8.291567e-005
6.540340e-004,6.200925e-005
6.279415e-004,3.932010e-005
5.389676e-004,1.954813e-005
3.814400e-004,2.693341e-006
1.689724e-004,-1.156841e-005
-8.628051e-005,-2.080613e-005
-3.763774e-004,-2.015787e-005
-6.865704e-004,-6.382316e-006
-9.902806e-004,1.338965e-005
-1.253799e-003,2.846173e-005
-1.446657e-003,3.413401e-005
-1.558320e-003,3.445814e-005
-1.595919e-003,3.964423e-005
-1.563019e-003,6.055066e-005
-1.461729e-003,9.847395e-005
-1.294801e-003,1.427178e-004
-1.077796e-003,1.806411e-004
-8.411806e-004,2.055991e-004
-6.191512e-004,2.148369e-004
-4.405552e-004,2.083542e-004
-3.180339e-004,1.898788e-004
-2.462390e-004,1.647587e-004
-2.002124e-004,1.388282e-004
-1.595340e-004,1.150046e-004
-1.131834e-004,9.118101e-005
-5.078821e-005,6.411610e-005
4.207521e-005,3.786152e-005
1.859892e-004,1.517237e-005
3.645853e-004,-1.075808e-005
5.167646e-004,-4.803310e-005
5.788357e-004,-9.632856e-005
5.277850e-004,-1.464067e-004
3.944053e-004,-1.929195e-004
2.444948e-004,-2.345703e-004
1.385041e-004,-2.791382e-004
1.036600e-004,-3.344025e-004
1.334801e-004,-4.003631e-004
1.923098e-004,-4.621099e-004
2.440086e-004,-5.026262e-004
2.634565e-004,-5.058675e-004
2.462775e-004,-4.734545e-004
2.101370e-004,-4.246728e-004
1.858272e-004,-3.849668e-004
1.942546e-004,-3.668155e-004
2.313675e-004,-3.729740e-004
2.770700e-004,-3.951770e-004
3.111037e-004,-4.125179e-004
3.247172e-004,-4.060353e-004
3.219621e-004,-3.661673e-004
3.114278e-004,-2.987481e-004
2.999211e-004,-2.180396e-004
2.871180e-004,-1.384655e-004
2.701011e-004,-6.974985e-005
2.592428e-004,-1.643037e-005
2.705873e-004,2.894792e-005
3.109416e-004,7.756751e-005
3.702575e-004,1.341283e-004
4.211461e-004,1.927960e-004
4.334631e-004,2.410914e-004
4.033188e-004,2.697770e-004
3.425443e-004,2.773941e-004
2.689667e-004,2.722080e-004
2.026820e-004,2.616738e-004
1.529279e-004,2.496809e-004
1.221355e-004,2.386605e-004
1.120874e-004,2.307192e-004
1.211631e-004,2.286124e-004
1.504969e-004,2.294227e-004
1.955511e-004,2.268297e-004
2.415776e-004,2.201850e-004
2.709115e-004,2.117576e-004
2.710735e-004,2.017096e-004
2.409294e-004,1.942546e-004
1.855030e-004,1.926339e-004
1.179218e-004,1.919856e-004
5.325772e-005,1.914994e-004
-6.176923e-008,1.937684e-004
-3.344722e-005,2.005751e-004
-4.252288e-005,2.107852e-004
-3.425755e-005,2.224539e-004
-1.448558e-005,2.326641e-004
6.420843e-006,2.399570e-004
2.392390e-005,2.440086e-004
4.596478e-005,2.490327e-004
8.097089e-005,2.610255e-004
1.282940e-004,2.806354e-004
1.735102e-004,3.049452e-004
2.015475e-004,3.260137e-004
2.106232e-004,3.373583e-004
2.093266e-004,3.384927e-004
2.122438e-004,3.393030e-004
2.260194e-004,3.433547e-004
2.415776e-004,3.461098e-004
2.485465e-004,3.354135e-004
2.500050e-004,3.065658e-004
2.592428e-004,2.658874e-004
2.866318e-004,2.235884e-004
3.287688e-004,1.843686e-004
3.692851e-004,1.498487e-004
3.861399e-004,1.257009e-004
3.743092e-004,1.279698e-004
3.433547e-004,1.542244e-004
2.999211e-004,1.812893e-004
2.346088e-004,1.931201e-004
1.239182e-004,1.833962e-004
-5.176060e-005,1.558451e-004
-2.898345e-004,1.138701e-004
-5.716661e-004,5.795762e-005
-8.747281e-004,-6.058186e-006
-1.183138e-003,-6.602235e-005
-1.475990e-003,-1.156143e-004
-1.734647e-003,-1.549962e-004
-1.951004e-003,-1.823852e-004
-2.126035e-003,-1.974573e-004
-2.248880e-003,-2.031296e-004
-2.275297e-003,-2.049123e-004
-2.150669e-003,-2.065330e-004
-1.833020e-003,-2.065330e-004
-1.324621e-003,-2.005366e-004
-7.128249e-004,-1.867610e-004
-1.379793e-004,-1.737958e-004
3.124002e-004,-1.749302e-004
6.185417e-004,-2.068571e-004
7.763934e-004,-2.773555e-004
7.736383e-004,-3.653569e-004
6.016869e-004,-4.382863e-004
3.089968e-004,-4.635685e-004
-6.220251e-006,-4.230522e-004
-2.559629e-004,-3.180339e-004
-3.967976e-004,-1.736337e-004
-4.254832e-004,-2.437157e-005
-3.720016e-004,9.879807e-005
-2.831898e-004,1.798307e-004
-1.948643e-004,2.169437e-004
-1.242038e-004,2.177540e-004
-7.671866e-005,1.984682e-004
-4.803310e-005,1.751308e-004
-2.712668e-005,1.576278e-004
5.448451e-006,1.490383e-004
6.654707e-005,1.472556e-004
1.595726e-004,1.487142e-004
2.735045e-004,1.485521e-004
3.937570e-004,1.456350e-004
5.025028e-004,1.370455e-004
5.845079e-004,1.237561e-004
6.339379e-004,1.099806e-004
6.564650e-004,9.442231e-005
6.624614e-004,8.097089e-005
6.619752e-004,7.562274e-005
6.585718e-004,7.886404e-005
6.517651e-004,8.810177e-005
6.420412e-004,9.701536e-005
6.340999e-004,1.064151e-004
6.329655e-004,1.133840e-004
6.397723e-004,1.128978e-004
6.572753e-004,1.017153e-004
6.807748e-004,8.226741e-005
7.097846e-004,6.200925e-005
7.425218e-004,3.964423e-005
7.788244e-004,1.031041e-005
8.164236e-004,-2.485776e-005
8.488367e-004,-6.618442e-005
8.716880e-004,-1.133454e-004
8.822222e-004,-1.635857e-004
8.793050e-004,-2.139880e-004
8.608295e-004,-2.601766e-004
8.258234e-004,-2.972895e-004
7.760693e-004,-3.204648e-004
7.148086e-004,-3.279199e-004
6.480376e-004,-3.232200e-004
5.721910e-004,-3.092824e-004
4.812723e-004,-2.922655e-004
3.791711e-004,-2.762210e-004
2.806354e-004,-2.642282e-004
1.963614e-004,-2.535319e-004
1.376937e-004,-2.358668e-004
1.000946e-004,-2.029675e-004
6.427816e-005,-1.451102e-004
1.436204e-005,-6.278104e-005
-6.132245e-005,3.364782e-005
-1.718510e-004,1.286181e-004
-3.107410e-004,1.945787e-004
-4.612996e-004,2.109473e-004
-5.958137e-004,1.751308e-004
-6.867324e-004,1.052807e-004
-7.324348e-004,2.748933e-005
-7.667927e-004,-3.717472e-005
-8.280533e-004,-8.190475e-005
-9.246442e-004,-1.091317e-004
-1.008918e-003,-1.209625e-004
-9.993564e-004,-1.206384e-004
-8.411806e-004,-1.149661e-004
-5.475183e-004,-1.102662e-004
-1.841679e-004,-1.099420e-004
1.663793e-004,-1.109144e-004
4.636072e-004,-1.138316e-004
7.199947e-004,-1.156143e-004
9.428347e-004,-1.101041e-004
1.086101e-003,-9.000801e-005
1.070704e-003,-5.532604e-005
8.499712e-004,-1.545797e-005
4.647416e-004,1.776542e-005
3.348575e-005,3.867184e-005
-3.144684e-004,4.904402e-005
-4.964678e-004,5.779555e-005
-5.003573e-004,7.157111e-005
-3.666535e-004,9.361198e-005
-1.601823e-004,1.247285e-004
6.379197e-005,1.610312e-004
2.717218e-004,1.937684e-004
4.493454e-004,2.180782e-004
5.741358e-004,2.284503e-004
6.167590e-004,2.248849e-004
5.661946e-004,2.102990e-004
4.286011e-004,1.893926e-004
2.115955e-004,1.683241e-004
-8.239095e-005,1.514693e-004
-4.525481e-004,1.415833e-004
-8.538217e-004,1.393144e-004
-1.160287e-003,1.412592e-004
-1.252340e-003,1.414213e-004
-1.098864e-003,1.331559e-004
-7.794337e-004,1.169494e-004
-4.290486e-004,1.002567e-004
-1.553203e-004,8.956035e-005
-1.010982e-005,8.712937e-005
-7.030578e-006,9.053274e-005
-1.329553e-004,9.798775e-005
-3.446126e-004,1.056048e-004
-5.653455e-004,1.096565e-004
-7.199558e-004,1.128978e-004
-7.651720e-004,1.210010e-004
-7.086112e-004,1.362352e-004
-6.086170e-004,1.524417e-004
-5.207775e-004,1.618415e-004
-4.650271e-004,1.629759e-004
-4.214316e-004,1.563313e-004
-3.549847e-004,1.385041e-004
-2.378116e-004,1.109530e-004
-7.234290e-005,7.935023e-005
1.083599e-004,5.212327e-005
2.699391e-004,3.462021e-005
3.939191e-004,2.554455e-005
4.754380e-004,2.084466e-005
5.151440e-004,1.922400e-005
5.187094e-004,2.197911e-005
4.877549e-004,2.878586e-005
4.273045e-004,3.867184e-005
3.498373e-004,5.131293e-005
2.673460e-004,6.006446e-005
1.858272e-004,6.298164e-005
9.993253e-005,6.395403e-005
2.693341e-006,6.638501e-005
-1.052422e-004,7.400208e-005
-2.172293e-004,8.291567e-005
-3.167374e-004,9.247753e-005
-3.885323e-004,1.036600e-004
-4.220798e-004,1.109530e-004
-4.076560e-004,1.106288e-004
-3.416954e-004,1.022014e-004
-2.363530e-004,9.442231e-005
-1.143178e-004,9.685329e-005
3.503668e-006,1.075496e-004
1.026876e-004,1.226217e-004
1.765894e-004,1.349386e-004
2.188885e-004,1.406109e-004
2.138645e-004,1.385041e-004
1.493625e-004,1.304008e-004
3.607880e-005,1.193804e-004
-9.081834e-005,1.107909e-004
-1.856265e-004,1.039842e-004
-2.139880e-004,9.896014e-005
-1.624512e-004,9.409818e-005
-3.652646e-005,8.875003e-005
1.467694e-004,7.935023e-005
3.503235e-004,5.990240e-005
5.190336e-004,3.137890e-005
6.081695e-004,3.341602e-006
6.159487e-004,-1.983374e-005
5.658705e-004,-3.830918e-005
4.705760e-004,-5.159854e-005
3.227724e-004,-6.002593e-005
1.206769e-004,-6.294311e-005
-1.161005e-004,-5.856734e-005
-3.476918e-004,-4.932962e-005
-5.311497e-004,-4.268495e-005
-6.319543e-004,-4.236081e-005
-6.309819e-004,-4.868136e-005
-5.249913e-004,-5.840528e-005
-3.300267e-004,-7.023605e-005
-8.968388e-005,-8.206682e-005
1.312111e-004,-9.389758e-005
2.804733e-004,-1.062145e-004
3.487029e-004,-1.161005e-004
3.736609e-004,-1.220969e-004
4.138531e-004,-1.284175e-004
5.049338e-004,-1.374931e-004
6.340999e-004,-1.430034e-004
7.553250e-004,-1.410586e-004
8.146409e-004,-1.371690e-004
7.853070e-004,-1.378173e-004
6.822334e-004,-1.407345e-004
5.582533e-004,-1.449481e-004
4.817585e-004,-1.519170e-004
4.978030e-004,-1.583996e-004
6.054144e-004,-1.524032e-004
7.656971e-004,-1.217728e-004
9.287350e-004,-6.553616e-005
1.050770e-003,4.638125e-006
1.118838e-003,7.092283e-005
1.142661e-003,1.227837e-004
1.138934e-003,1.560071e-004
1.125320e-003,1.731861e-004
1.116245e-003,1.858272e-004
1.114624e-003,2.015475e-004
1.118514e-003,2.117576e-004
1.120621e-003,2.099749e-004
1.094366e-003,1.968476e-004
1.010254e-003,1.759412e-004
8.413817e-004,1.530900e-004
5.593878e-004,1.227837e-004
1.611932e-004,8.534666e-005
-3.324577e-004,4.515445e-005
-8.943380e-004,9.338019e-006
-1.506459e-003,-1.918548e-005
-2.148400e-003,-3.830918e-005
-2.794717e-003,-5.289506e-005
-3.409757e-003,-7.153257e-005
-3.932420e-003,-1.011905e-004
-4.280052e-003,-1.420310e-004
-4.373727e-003,-1.849783e-004
-4.187675e-003,-2.162569e-004
-3.763709e-003,-2.263049e-004
-3.198423e-003,-2.154466e-004
-2.588894e-003,-1.896782e-004
-1.982121e-003,-1.558065e-004
-1.360600e-003,-1.204763e-004
-6.914323e-004,-9.098041e-005
9.500084e-006,-6.829127e-005
6.648924e-004,-4.997788e-005
1.187391e-003,-2.728874e-005
1.512009e-003,-1.520357e-006
1.610545e-003,2.035846e-005
1.525947e-003,3.445814e-005
1.372632e-003,4.045456e-005
1.277176e-003,4.418206e-005
1.297434e-003,5.471631e-005
1.386570e-003,7.772959e-005
1.445400e-003,1.090082e-004
1.383653e-003,1.376937e-004
1.181557e-003,1.629759e-004
9.016700e-004,1.853410e-004
6.475514e-004,1.997648e-004
4.968306e-004,2.028440e-004
4.626348e-004,1.944166e-004
5.068786e-004,1.769136e-004
5.765667e-004,1.540623e-004
6.255105e-004,1.338042e-004
6.375034e-004,1.210010e-004
6.224313e-004,1.219734e-004
6.096281e-004,1.375317e-004
6.201623e-004,1.621656e-004
6.434998e-004,1.871237e-004
6.556546e-004,1.987924e-004
6.350724e-004,1.867996e-004
5.809425e-004,1.485521e-004
5.088234e-004,9.134307e-005
4.427008e-004,2.975825e-005
4.042912e-004,-2.599222e-005
4.128807e-004,-7.428768e-005
4.760862e-004,-1.186936e-004
5.707324e-004,-1.567789e-004
6.569512e-004,-1.830335e-004
7.057329e-004,-1.959987e-004
7.136741e-004,-1.968091e-004
7.154568e-004,-1.947022e-004
7.509491e-004,-1.958366e-004
8.263096e-004,-1.989159e-004
9.079906e-004,-1.963229e-004
9.562862e-004,-1.828714e-004
9.407278e-004,-1.574272e-004
8.392748e-004,-1.196660e-004
6.595443e-004,-7.169464e-005
4.415663e-004,-1.967167e-005
2.149989e-004,3.559260e-005
-2.113026e-005,9.523264e-005
-2.998826e-004,1.496866e-004
-6.248234e-004,1.863134e-004
-9.419852e-004,1.924718e-004
-1.160611e-003,1.645966e-004
-1.195779e-003,1.128978e-004
-1.018804e-003,5.325772e-005
-6.880289e-004,1.883015e-006
-3.172235e-004,-3.020592e-005
-5.734055e-006,-3.587821e-005
2.052750e-004,-1.578211e-005
3.305515e-004,1.938607e-005
4.110980e-004,5.844381e-005
4.830550e-004,9.409818e-005
5.668428e-004,1.255388e-004
6.679717e-004,1.522796e-004
7.762313e-004,1.751308e-004
8.553193e-004,1.936063e-004
8.640708e-004,2.054371e-004
8.010274e-004,2.067336e-004
6.749405e-004,1.963614e-004
4.853239e-004,1.762653e-004
2.166196e-004,1.548727e-004
-1.622891e-004,1.425557e-004
-6.572365e-004,1.410971e-004
-1.226896e-003,1.451487e-004
-1.800769e-003,1.422316e-004
-2.295555e-003,1.297525e-004
-2.639296e-003,1.099806e-004
-2.794069e-003,8.826383e-005
-2.753390e-003,6.735740e-005
-2.540760e-003,4.904402e-005
-2.202692e-003,3.170303e-005
-1.790721e-003,1.419998e-005
-1.346176e-003,-8.720958e-007
-9.038998e-004,-8.327101e-006
-5.000332e-004,-5.734055e-006
-1.587237e-004,9.175954e-006
1.137081e-004,3.267542e-005
3.183966e-004,5.617490e-005
4.514523e-004,7.367795e-005
5.086614e-004,8.388807e-005
4.961823e-004,8.793970e-005
4.375147e-004,8.712937e-005
3.621542e-004,8.145709e-005
2.966798e-004,6.816773e-005
2.600531e-004,4.774750e-005
2.545429e-004,2.278944e-005
2.641047e-004,-3.141010e-006
2.710735e-004,-2.129233e-005
2.767458e-004,-2.826113e-005
2.942489e-004,-2.388537e-005
3.211517e-004,-1.108221e-005
3.409237e-004,1.176900e-005
3.290929e-004,4.661304e-005
2.705873e-004,8.680524e-005
1.769136e-004,1.163011e-004
1.064151e-004,1.239182e-004
1.573037e-004,1.047945e-004
4.208219e-004,6.168512e-005
9.172283e-004,7.555300e-006
1.611193e-003,-4.090223e-005
2.374524e-003,-7.493595e-005
2.933490e-003,-9.179074e-005
2.968010e-003,-9.422171e-005
2.268370e-003,-9.146661e-005
8.997252e-004,-9.373551e-005
-7.820268e-004,-1.052422e-004
-2.238508e-003,-1.203142e-004
-3.152558e-003,-1.308485e-004
-3.434391e-003,-1.287416e-004
-3.176220e-003,-1.131834e-004
-2.551781e-003,-8.871149e-005
-1.739509e-003,-6.407756e-005
-8.763488e-004,-4.673658e-005
-6.035006e-005,-4.122636e-005
6.516030e-004,-4.803310e-005
1.244277e-003,-5.970180e-005
1.686230e-003,-6.942573e-005
1.910853e-003,-7.153257e-005
1.867419e-003,-6.213279e-005
1.568084e-003,-4.057810e-005
1.104414e-003,-1.156841e-005
6.021731e-004,1.663096e-005
1.644345e-004,3.996836e-005
-1.660166e-004,5.617490e-005
-3.977700e-004,6.670914e-005
-5.507596e-004,6.832980e-005
-6.267682e-004,6.055066e-005
-6.134789e-004,4.612685e-005
-5.068399e-004,3.040651e-005
-3.279199e-004,2.246531e-005
-1.135075e-004,2.651694e-005
9.182927e-005,3.656499e-005
2.576221e-004,5.098881e-005
3.712299e-004,7.286762e-005
4.337872e-004,1.046324e-004
4.537212e-004,1.404489e-004
4.389732e-004,1.692965e-004
3.973224e-004,1.825858e-004
3.401134e-004,1.796687e-004
2.658874e-004,1.692965e-004
1.610312e-004,1.597346e-004
1.906194e-005,1.522796e-004
-1.485136e-004,1.409351e-004
-3.193304e-004,1.219734e-004
-4.551411e-004,1.030118e-004
-5.232086e-004,9.377405e-005
-5.212637e-004,9.588090e-005
-4.741028e-004,1.060910e-004
-4.146248e-004,1.164632e-004
-3.591985e-004,1.222975e-004
-3.023136e-004,1.166253e-004
-2.282497e-004,1.086841e-004
-1.279313e-004,1.125736e-004
9.106226e-007,1.342904e-004
1.566554e-004,1.652449e-004
3.321721e-004,1.830720e-004
5.146578e-004,1.671896e-004
6.887161e-004,1.104668e-004
8.383024e-004,1.031041e-005
9.517483e-004,-1.204763e-004
1.012361e-003,-2.543422e-004
9.943715e-004,-3.570916e-004
8.854635e-004,-4.050630e-004
7.138362e-004,-3.908012e-004
5.268127e-004,-3.339163e-004
3.350894e-004,-2.656868e-004
9.101894e-005,-2.097743e-004
-2.796244e-004,-1.747682e-004
-7.914265e-004,-1.545100e-004
-1.366272e-003,-1.290658e-004
-1.871106e-003,-8.984595e-005
-2.168496e-003,-4.657451e-005
-2.177896e-003,-1.286493e-005
-1.903843e-003,3.989864e-006
-1.420888e-003,4.800190e-006
-8.366428e-004,-8.975361e-006
-2.642282e-004,-3.360929e-005
2.055991e-004,-6.342930e-005
5.269747e-004,-9.227693e-005
7.029778e-004,-1.152902e-004
7.721797e-004,-1.258244e-004
7.783382e-004,-1.251762e-004
7.470596e-004,-1.180453e-004
6.964952e-004,-1.045939e-004
6.485238e-004,-8.563225e-005
6.110867e-004,-6.229485e-005
5.752702e-004,-3.506787e-005
5.354022e-004,-5.896120e-006
5.120648e-004,2.359977e-005
5.277850e-004,5.115087e-005
5.733254e-004,7.578480e-005
6.259967e-004,9.912220e-005
6.736440e-004,1.184080e-004
7.306910e-004,1.247285e-004
8.160995e-004,1.148425e-004
9.245212e-004,9.328785e-005
1.046719e-003,7.124698e-005
1.176695e-003,6.038860e-005
1.292896e-003,7.481241e-005
1.366960e-003,1.167873e-004
1.369553e-003,1.767515e-004
1.257566e-003,2.386605e-004
9.919406e-004,2.856594e-004
5.849942e-004,3.068900e-004
1.133840e-004,3.075383e-004
-3.170615e-004,2.968419e-004
-6.373025e-004,2.819319e-004
-8.282154e-004,2.608634e-004
-8.957966e-004,2.307192e-004
-8.604664e-004,1.900409e-004
-7.507481e-004,1.410971e-004
-5.930586e-004,8.777764e-005
-4.110594e-004,3.867184e-005
-2.237119e-004,-1.358292e-006
-4.625038e-005,-3.587821e-005
1.051186e-004,-6.521203e-005
2.208333e-004,-8.530812e-005
3.025142e-004,-9.519411e-005
3.548613e-004,-9.989400e-005
3.772264e-004,-1.024870e-004
3.606957e-004,-1.062145e-004
3.046211e-004,-1.128592e-004
2.211574e-004,-1.128592e-004
1.381799e-004,-9.632856e-005
7.416414e-005,-5.905355e-005
2.748933e-005,-3.141010e-006
-2.388537e-005,6.314371e-005
-9.794922e-005,1.313732e-004
-2.011848e-004,1.947408e-004
-3.275957e-004,2.469258e-004
-4.794509e-004,2.819319e-004
-6.666363e-004,2.957075e-004
-8.983896e-004,2.827422e-004
-1.169849e-003,2.370398e-004
-1.452815e-003,1.581140e-004
-1.710175e-003,5.358185e-005
-1.916322e-003,-5.483985e-005
-2.058777e-003,-1.465688e-004
-2.125062e-003,-2.078295e-004
-2.105290e-003,-2.271153e-004
-1.995410e-003,-2.057227e-004
-1.801093e-003,-1.551583e-004
-1.535955e-003,-9.892161e-005
-1.220738e-003,-5.662256e-005
-8.834797e-004,-3.409548e-005
-5.549733e-004,-2.631635e-005
-2.617972e-004,-2.323711e-005
-1.189254e-005,-1.902341e-005
1.970097e-004,-1.610623e-005
3.649094e-004,-1.805102e-005
4.929410e-004,-3.004385e-005
5.775391e-004,-4.803310e-005
6.182176e-004,-6.035006e-005
6.247002e-004,-5.775702e-005
6.209727e-004,-4.479180e-005
6.438239e-004,-2.939559e-005
7.183740e-004,-1.626830e-005
8.345749e-004,-4.437533e-006
9.535310e-004,8.041497e-006
1.032295e-003,2.441009e-005
1.054822e-003,4.385793e-005
1.029540e-003,6.217131e-005
9.823786e-004,7.448828e-005
9.373245e-004,7.708132e-005
9.024804e-004,7.092283e-005
8.780085e-004,6.800567e-005
8.489988e-004,7.270556e-005
7.968137e-004,8.615698e-005
7.131879e-004,1.004187e-004
6.047661e-004,1.081979e-004
4.898618e-004,1.059289e-004
3.851675e-004,9.863601e-005
3.070520e-004,9.539470e-005
2.658874e-004,1.004187e-004
2.589186e-004,1.112771e-004
2.702632e-004,1.175977e-004
2.769079e-004,1.137081e-004
2.629703e-004,1.023635e-004
2.318537e-004,9.199134e-005
1.974959e-004,8.712937e-005
1.782101e-004,8.939829e-005
1.835582e-004,1.028497e-004
2.141886e-004,1.282940e-004
2.525981e-004,1.605450e-004
2.804733e-004,1.880961e-004
3.036486e-004,2.002510e-004
3.357376e-004,1.966855e-004
3.718782e-004,1.822617e-004
3.859779e-004,1.642725e-004
3.668542e-004,1.467694e-004
3.311998e-004,1.321835e-004
2.851732e-004,1.203528e-004
2.124059e-004,1.125736e-004
7.497447e-005,1.077117e-004
-1.486757e-004,1.018773e-004
-4.123559e-004,9.247753e-005
-6.138030e-004,7.999850e-005
-6.573986e-004,6.622294e-005
-5.139708e-004,5.082674e-005
-2.238740e-004,3.575467e-005
1.158149e-004,2.149292e-005
3.911640e-004,1.225519e-005
5.219507e-004,9.662150e-006
4.922927e-004,1.355172e-005
3.452995e-004,1.906194e-005
1.362352e-004,2.246531e-005
-9.081834e-005,1.889987e-005
-3.243544e-004,1.014835e-005
-5.726385e-004,3.827798e-006
-8.369669e-004,4.638125e-006
-1.108102e-003,1.176900e-005
-1.364165e-003,2.003433e-005
-1.575336e-003,2.165498e-005
-1.710013e-003,7.485573e-007
-1.737726e-003,-5.354332e-005
-1.642756e-003,-1.340898e-004
-1.439850e-003,-2.160948e-004
-1.165473e-003,-2.713591e-004
-8.675972e-004,-2.817312e-004
-5.948414e-004,-2.493182e-004
-3.718396e-004,-1.916230e-004
-2.149604e-004,-1.209625e-004
-1.220969e-004,-4.576419e-005
-7.072224e-005,2.457216e-005
-2.712668e-005,8.016056e-005
3.251336e-005,1.141943e-004
1.185700e-004,1.185700e-004
2.329882e-004,9.231547e-005
3.632887e-004,4.175108e-005
4.730070e-004,-1.707863e-005
5.151440e-004,-6.569822e-005
4.773827e-004,-9.438377e-005
4.067222e-004,-1.067007e-004
3.864641e-004,-1.060525e-004
4.687933e-004,-8.871149e-005
6.200003e-004,-5.289506e-005
7.336082e-004,-9.299492e-006
7.152948e-004,2.813760e-005
5.606844e-004,4.677511e-005
3.452995e-004,4.288554e-005
1.671896e-004,2.230324e-005
8.712937e-005,-7.354708e-006
1.002567e-004,-3.604027e-005
1.598967e-004,-5.970180e-005
2.158092e-004,-7.444974e-005
2.428742e-004,-7.801519e-005
2.464396e-004,-7.201877e-005
2.495188e-004,-5.727082e-005
2.717218e-004,-3.604027e-005
3.198552e-004,-1.659243e-005
3.843572e-004,-1.367526e-005
4.525867e-004,-3.441962e-005
5.143337e-004,-7.428768e-005
5.601982e-004,-1.178833e-004
5.922871e-004,-1.535376e-004
6.214589e-004,-1.739578e-004
6.558168e-004,-1.814128e-004
6.955228e-004,-1.812508e-004
7.350668e-004,-1.783336e-004
7.707211e-004,-1.755785e-004
7.966516e-004,-1.712027e-004
8.049170e-004,-1.580754e-004
7.911414e-004,-1.321450e-004
7.645627e-004,-9.470791e-005
7.503009e-004,-5.548810e-005
7.627800e-004,-2.664048e-005
7.794727e-004,-1.075808e-005
7.595387e-004,-5.085794e-006
6.770473e-004,-2.654814e-006
5.102821e-004,3.017472e-006
2.569738e-004,2.246531e-005
-3.830918e-005,5.925414e-005
-2.956689e-004,1.062531e-004
-4.381243e-004,1.490383e-004
-4.245108e-004,1.756170e-004
-2.519113e-004,1.832341e-004
4.126489e-005,1.793446e-004
3.749574e-004,1.726999e-004
6.679717e-004,1.684862e-004
8.558055e-004,1.683241e-004
8.950254e-004,1.694586e-004
7.707211e-004,1.694586e-004
4.874308e-004,1.631380e-004
6.265751e-005,1.501728e-004
-4.629203e-004,1.360731e-004
-1.018480e-003,1.265113e-004
-1.530282e-003,1.297525e-004
-1.950518e-003,1.425557e-004
-2.260711e-003,1.579519e-004
-2.465238e-003,1.710792e-004
-2.565881e-003,1.837203e-004
-2.540274e-003,1.945787e-004
-2.368971e-003,2.041405e-004
-2.051322e-003,2.154851e-004
-1.629304e-003,2.253711e-004
-1.176656e-003,2.326641e-004
-7.920748e-004,2.381743e-004
-5.546492e-004,2.420638e-004
-4.948471e-004,2.435224e-004
-5.807417e-004,2.423880e-004
-7.295177e-004,2.375260e-004
-8.458805e-004,2.227780e-004
-8.671110e-004,1.979821e-004
-7.734373e-004,1.637863e-004
-5.820383e-004,1.297525e-004
-3.355369e-004,1.046324e-004
-8.887356e-005,8.793970e-005
9.831188e-005,6.914012e-005
1.829100e-004,3.575467e-005
1.610312e-004,-1.270286e-005
5.536457e-005,-6.812920e-005
-7.688072e-005,-1.212866e-004
-1.125351e-004,-1.687718e-004
1.056048e-004,-2.024813e-004
6.754267e-004,-2.178775e-004
1.571973e-003,-2.141500e-004
2.654736e-003,-1.903264e-004
3.648528e-003,-1.525652e-004
4.207173e-003,-1.107524e-004
4.061799e-003,-8.044616e-005
3.176752e-003,-7.461181e-005
1.823175e-003,-9.470791e-005
4.386491e-004,-1.334415e-004
-5.609698e-004,-1.818990e-004
-9.888221e-004,-2.308428e-004
-9.105446e-004,-2.723315e-004
-5.332566e-004,-3.039342e-004
-1.126972e-004,-3.160891e-004
1.521176e-004,-3.032860e-004
1.804790e-004,-2.687660e-004
2.619281e-005,-2.232257e-004
-1.820611e-004,-1.721751e-004
-3.240303e-004,-1.248521e-004
-3.415334e-004,-9.130454e-005
-2.433218e-004,-6.342930e-005
-9.227693e-005,-2.761287e-005
3.964423e-005,2.165498e-005
1.112771e-004,8.242948e-005
1.331559e-004,1.479039e-004
1.410971e-004,2.067336e-004
1.556830e-004,2.496809e-004
1.741585e-004,2.752873e-004
1.788584e-004,2.856594e-004
1.470936e-004,2.897111e-004
6.427816e-005,2.976522e-004
-5.565017e-005,3.153174e-004
-1.784957e-004,3.354135e-004
-2.765452e-004,3.467580e-004
-3.345645e-004,3.440029e-004
-3.473677e-004,3.302274e-004
-3.156029e-004,3.182345e-004
-2.442942e-004,3.167760e-004
-1.514308e-004,3.149932e-004
-6.245691e-005,2.979764e-004
1.063454e-005,2.605393e-004
7.384001e-005,2.049509e-004
1.341283e-004,1.325077e-004
1.853410e-004,5.260946e-005
2.175920e-004,-2.599222e-005
2.363915e-004,-9.373551e-005
2.542187e-004,-1.379793e-004
2.798251e-004,-1.535376e-004
3.125622e-004,-1.477033e-004
3.470822e-004,-1.319829e-004
3.722023e-004,-1.152902e-004
3.788470e-004,-1.050801e-004
3.566440e-004,-1.013526e-004
3.015418e-004,-1.018388e-004
2.151610e-004,-9.956987e-005
1.028497e-004,-8.790116e-005
-2.518189e-005,-6.456376e-005
-1.661787e-004,-3.652646e-005
-3.084720e-004,-1.383732e-005
-4.353692e-004,4.244267e-007
-5.313118e-004,1.193106e-005
-5.810658e-004,2.813760e-005
-5.794452e-004,5.098881e-005
-5.305015e-004,8.080882e-005
-4.476861e-004,1.141943e-004
-3.483401e-004,1.456350e-004
-2.485079e-004,1.691344e-004
-1.600202e-004,1.833962e-004
-8.676671e-005,1.827479e-004
-2.129233e-005,1.655690e-004
4.758544e-005,1.396385e-004
1.229458e-004,1.172735e-004
2.038164e-004,1.088461e-004
3.015418e-004,1.154908e-004
4.234150e-004,1.278078e-004
5.542017e-004,1.351007e-004
6.627856e-004,1.334801e-004
7.214532e-004,1.239182e-004
7.250187e-004,1.041462e-004
6.644062e-004,7.497447e-005
5.112544e-004,4.158902e-005
2.227780e-004,9.500084e-006
-2.104225e-004,-2.015787e-005
-7.118525e-004,-4.446767e-005
-1.152346e-003,-6.683268e-005
-1.417647e-003,-9.098041e-005
-1.469994e-003,-1.208004e-004
-1.340990e-003,-1.509446e-004
-1.071151e-003,-1.742820e-004
-6.821946e-004,-1.874093e-004
-1.972952e-004,-1.929195e-004
3.276343e-004,-1.917850e-004
7.836864e-004,-1.844921e-004
1.049150e-003,-1.695821e-004
1.052067e-003,-1.499722e-004
8.026481e-004,-1.332795e-004
4.175806e-004,-1.246900e-004
8.615698e-005,-1.195039e-004
-5.629843e-005,-1.078352e-004
-2.031993e-005,-8.190475e-005
6.654707e-005,-4.219875e-005
5.601283e-005,-2.168618e-006
-1.246900e-004,2.392390e-005
-4.420138e-004,3.154097e-005
-7.906162e-004,2.651694e-005
-1.060617e-003,1.873781e-005
-1.191890e-003,1.598270e-005
-1.169363e-003,2.424803e-005
-1.012808e-003,3.672705e-005
-7.771648e-004,4.969228e-005
-5.470321e-004,5.795762e-005
-4.076560e-004,6.200925e-005
-3.846427e-004,6.557468e-005
-4.319658e-004,7.286762e-005
-4.694028e-004,8.745350e-005
-4.301830e-004,1.098185e-004
-2.942103e-004,1.347766e-004
-8.141856e-005,1.556830e-004
1.658931e-004,1.658931e-004
3.994293e-004,1.668655e-004
5.827252e-004,1.603829e-004
7.007089e-004,1.485521e-004
7.571077e-004,1.331559e-004
7.707211e-004,1.205148e-004
7.634282e-004,1.127357e-004
7.415494e-004,1.069013e-004
6.986020e-004,9.669123e-005
6.306966e-004,8.194328e-005
5.579292e-004,6.168512e-005
5.115786e-004,3.672705e-005
5.067165e-004,8.203561e-006
5.292437e-004,-1.756482e-005
5.483674e-004,-3.668853e-005
5.397779e-004,-4.641245e-005
4.999098e-004,-4.673658e-005
4.407560e-004,-4.349527e-005
3.786849e-004,-4.446767e-005
3.269861e-004,-5.565017e-005
2.890628e-004,-7.315322e-005
2.629703e-004,-8.660465e-005
2.384984e-004,-8.822530e-005
1.892305e-004,-7.607040e-005
8.631904e-005,-5.597430e-005
-8.141856e-005,-3.425755e-005
-3.049066e-004,-1.675450e-005
-5.588629e-004,-3.465141e-006
-8.035815e-004,6.420843e-006
-1.009729e-003,1.501031e-005
-1.161422e-003,2.586868e-005
-1.251530e-003,3.364782e-005
-1.264819e-003,3.283749e-005
-1.189459e-003,1.646889e-005
-1.030959e-003,-1.043395e-005
-7.927230e-004,-4.106429e-005
-4.770199e-004,-7.153257e-005
-1.018388e-004,-9.454584e-005
2.948972e-004,-1.060525e-004
6.601926e-004,-1.114006e-004
9.379727e-004,-1.172350e-004
1.092745e-003,-1.219349e-004
1.122565e-003,-1.220969e-004
1.054336e-003,-1.139937e-004
9.365141e-004,-9.746302e-005
8.157754e-004,-7.056018e-005
7.240463e-004,-3.425755e-005
6.671614e-004,6.744974e-006
6.292380e-004,4.418206e-005
5.953663e-004,7.627100e-005
5.551741e-004,1.026876e-004
5.094717e-004,1.219734e-004
4.668485e-004,1.307249e-004
4.399456e-004,1.299146e-004
4.365423e-004,1.218114e-004
4.485351e-004,1.104668e-004
4.553419e-004,9.814982e-005
4.357320e-004,8.388807e-005
3.678265e-004,6.735740e-005
2.302331e-004,4.839576e-005
2.473422e-005,2.862379e-005
-2.050744e-004,1.241726e-005
-3.951770e-004,1.128280e-005
-4.856094e-004,3.413401e-005
-4.392587e-004,7.627100e-005
-2.731418e-004,1.206769e-004
-5.921561e-005,1.537382e-004
1.182459e-004,1.668655e-004
2.143507e-004,1.623277e-004
2.388225e-004,1.495245e-004
2.315296e-004,1.402868e-004
2.174299e-004,1.365593e-004
1.986303e-004,1.338042e-004
1.667035e-004,1.299146e-004
1.190562e-004,1.279698e-004
5.860587e-005,1.266733e-004
-4.923729e-006,1.234320e-004
-5.791909e-005,1.206769e-004
-9.373551e-005,1.188942e-004
-1.151281e-004,1.158149e-004
-1.274451e-004,1.111150e-004
-1.349001e-004,1.038221e-004
-1.319829e-004,9.588090e-005
-1.055663e-004,8.939829e-005
-4.657451e-005,8.307774e-005
4.045456e-005,7.448828e-005
1.344524e-004,6.136099e-005
2.099749e-004,3.575467e-005
2.529222e-004,-1.383732e-005
2.639427e-004,-7.995997e-005
2.414156e-004,-1.389517e-004
1.845306e-004,-1.694200e-004
1.000946e-004,-1.630995e-004
-3.465141e-006,-1.319829e-004
-1.078352e-004,-9.389758e-005
-1.925954e-004,-6.359137e-005
-2.431597e-004,-4.398147e-005
-2.668213e-004,-3.117831e-005
-2.823795e-004,-2.096819e-005
-3.040963e-004,-1.432352e-005
-3.344025e-004,-1.140634e-005
-3.671397e-004,-1.432352e-005
-3.967976e-004,-1.918548e-005
-4.271038e-004,-2.275091e-005
-4.703752e-004,-2.356124e-005
-5.455735e-004,-2.064406e-005
-6.544814e-004,-8.813297e-006
-7.705201e-004,1.225519e-005
-8.742419e-004,3.624086e-005
-9.607848e-004,5.552663e-005
-1.028528e-003,6.654707e-005
-1.050407e-003,7.270556e-005
-9.927116e-004,7.448828e-005
-8.400462e-004,7.205730e-005
-6.120203e-004,6.897806e-005
-3.468815e-004,6.670914e-005
-8.822530e-005,6.460230e-005
1.339663e-004,5.909207e-005
3.010556e-004,4.904402e-005
4.025085e-004,3.721326e-005
4.448076e-004,2.181705e-005
4.462662e-004,5.286386e-006
4.245494e-004,-7.516774e-006
3.910019e-004,-1.302699e-005
3.499994e-004,-1.416145e-005
3.078624e-004,-1.756482e-005
2.712356e-004,-2.842320e-005
2.376881e-004,-4.544005e-005
2.004130e-004,-6.261898e-005
1.589243e-004,-6.910160e-005
1.172735e-004,-5.678463e-005
8.161915e-005,-2.550602e-005
5.747142e-005,1.338965e-005
4.466826e-005,4.839576e-005
4.045456e-005,7.173317e-005
3.478227e-005,7.918817e-005
1.144487e-005,7.059870e-005
-4.608832e-005,5.309565e-005
-1.408965e-004,3.543053e-005
-2.545043e-004,2.829966e-005
-3.525538e-004,3.445814e-005
-3.950149e-004,5.082674e-005
-3.598467e-004,6.978838e-005
-2.564491e-004,8.810177e-005
-1.112386e-004,1.039842e-004
5.082674e-005,1.127357e-004
2.158092e-004,1.094944e-004
3.705817e-004,9.166720e-005
5.005581e-004,6.119892e-005
5.927733e-004,2.262737e-005
6.446342e-004,-2.031993e-005
6.543581e-004,-6.423963e-005
6.281036e-004,-1.007043e-004
5.742979e-004,-1.188556e-004
5.005581e-004,-1.122110e-004
4.162841e-004,-8.482193e-005
3.337928e-004,-4.625038e-005
2.658874e-004,-3.465141e-006
2.360674e-004,4.126489e-005
2.665357e-004,8.712937e-005
3.686369e-004,1.247285e-004
