-3.810773e-004,-5.493010e-004
-1.172604e-003,-5.619422e-004
-2.180327e-003,-5.410357e-004
-3.154503e-003,-4.833405e-004
-3.881207e-003,-3.974459e-004
-4.227219e-003,-2.943724e-004
-4.148292e-003,-1.890299e-004
-3.695641e-003,-9.486997e-005
-3.036844e-003,-1.999580e-005
-2.355195e-003,3.834771e-005
-1.762036e-003,8.583285e-005
-1.286860e-003,1.336421e-004
-9.129756e-004,1.833962e-004
-6.108859e-004,2.302331e-004
-3.583881e-004,2.654012e-004
-1.361966e-004,2.803112e-004
6.265751e-005,2.712356e-004
2.274780e-004,2.425500e-004
3.331445e-004,2.000889e-004
3.598853e-004,1.571416e-004
3.073762e-004,1.279698e-004
1.942546e-004,1.193804e-004
5.974033e-005,1.263492e-004
-4.430560e-005,1.438522e-004
-7.931171e-005,1.699447e-004
-2.939559e-005,2.107852e-004
9.150514e-005,2.710735e-004
2.509774e-004,3.499994e-004
4.120704e-004,4.392974e-004
5.454502e-004,5.234093e-004
6.386379e-004,5.757564e-004
6.934159e-004,5.733254e-004
7.229118e-004,5.091476e-004
7.400908e-004,3.995913e-004
7.580800e-004,2.723700e-004
7.861174e-004,1.503348e-004
8.248510e-004,4.677511e-005
8.712017e-004,-2.453363e-005
9.144733e-004,-5.516398e-005
9.441312e-004,-4.576419e-005
9.551517e-004,-8.651231e-006
9.468863e-004,3.656499e-005
9.246834e-004,7.578480e-005
8.971322e-004,9.912220e-005
8.645570e-004,1.051186e-004
8.148029e-004,9.312579e-005
7.415494e-004,6.281957e-005
6.577615e-004,1.322759e-005
5.843459e-004,-4.932962e-005
5.341056e-004,-1.112386e-004
5.010443e-004,-1.553203e-004
4.644175e-004,-1.707165e-004
4.133669e-004,-1.564548e-004
3.499994e-004,-1.182074e-004
2.851732e-004,-6.569822e-005
2.273159e-004,-1.140634e-005
1.816135e-004,3.413401e-005
1.517934e-004,5.876794e-005
1.394765e-004,4.969228e-005
1.435281e-004,1.558884e-006
1.537382e-004,-7.769105e-005
1.561692e-004,-1.665028e-004
1.464453e-004,-2.412149e-004
1.271595e-004,-2.882139e-004
1.073875e-004,-3.002067e-004
1.005808e-004,-2.814071e-004
1.198666e-004,-2.397564e-004
1.686482e-004,-1.856265e-004
2.373639e-004,-1.298761e-004
3.078624e-004,-7.461181e-005
3.678265e-004,-2.080613e-005
4.183909e-004,2.781346e-005
4.658761e-004,6.978838e-005
5.091476e-004,1.005808e-004
5.264885e-004,1.229458e-004
4.965065e-004,1.402868e-004
4.145014e-004,1.534141e-004
2.999211e-004,1.571416e-004
1.819376e-004,1.504969e-004
9.150514e-005,1.344524e-004
4.823369e-005,1.120874e-004
5.520250e-005,8.648111e-005
1.140322e-004,5.552663e-005
2.289365e-004,2.003433e-005
3.880847e-004,-1.707863e-005
5.623050e-004,-4.381940e-005
7.285841e-004,-4.965375e-005
8.616399e-004,-3.263690e-005
9.348935e-004,-8.720958e-007
9.481828e-004,3.137890e-005
9.532069e-004,5.260946e-005
1.031323e-003,5.633696e-005
1.184961e-003,4.369587e-005
1.249787e-003,1.857574e-005
9.781650e-004,-8.327101e-006
1.949028e-004,-2.745081e-005
-1.029014e-003,-3.441962e-005
-2.369457e-003,-2.858526e-005
-3.473773e-003,-1.643037e-005
-4.109883e-003,-6.706447e-006
-4.223005e-003,-3.858999e-007
-3.890769e-003,7.879431e-006
-3.260170e-003,1.922400e-005
-2.489386e-003,3.543053e-005
-1.714713e-003,5.730935e-005
-1.039062e-003,8.356393e-005
-5.292050e-004,1.031738e-004
-2.203085e-004,1.077117e-004
-1.039456e-004,9.993253e-005
-1.071869e-004,8.259154e-005
-1.008664e-004,6.330577e-005
3.721326e-005,4.596478e-005
3.386548e-004,3.526847e-005
7.334461e-004,3.413401e-005
1.088856e-003,3.883391e-005
1.286090e-003,4.337174e-005
1.274421e-003,4.288554e-005
1.087073e-003,2.862379e-005
8.272820e-004,-7.100305e-007
6.078454e-004,-4.025397e-005
4.921307e-004,-7.931171e-005
4.749518e-004,-1.029732e-004
5.070407e-004,-1.005423e-004
5.331332e-004,-6.812920e-005
5.331332e-004,-1.221667e-005
5.161164e-004,5.601283e-005
4.974788e-004,1.263492e-004
4.746277e-004,1.877719e-004
4.290873e-004,2.316917e-004
3.303894e-004,2.532463e-004
1.584381e-004,2.553532e-004
-8.368747e-005,2.464396e-004
-3.731361e-004,2.376881e-004
-6.617744e-004,2.337985e-004
-8.936898e-004,2.297469e-004
-1.023018e-003,2.135403e-004
-1.025773e-003,1.786963e-004
-9.030895e-004,1.226217e-004
-6.890013e-004,4.580272e-005
-4.431483e-004,-5.111234e-005
-2.243601e-004,-1.660166e-004
-6.229485e-005,-2.848105e-004
5.017848e-005,-3.830221e-004
1.401247e-004,-4.308313e-004
2.320158e-004,-4.074939e-004
3.378445e-004,-3.107410e-004
4.499937e-004,-1.624512e-004
5.501501e-004,3.503668e-006
6.255105e-004,1.576278e-004
6.744543e-004,2.807975e-004
7.067053e-004,3.636129e-004
7.271255e-004,3.997534e-004
7.499768e-004,3.895433e-004
7.794727e-004,3.467580e-004
8.092927e-004,2.863077e-004
8.285785e-004,2.182402e-004
8.169098e-004,1.514693e-004
7.418735e-004,9.344992e-005
5.849942e-004,4.726130e-005
3.655576e-004,1.954813e-005
1.234320e-004,1.257933e-005
-9.908367e-005,2.149292e-005
-2.593662e-004,3.462021e-005
-3.447747e-004,4.256141e-005
-3.916115e-004,4.272347e-005
-4.420138e-004,3.478227e-005
-5.105674e-004,2.181705e-005
-5.775004e-004,3.665733e-006
-6.031067e-004,-2.550602e-005
-5.736108e-004,-7.056018e-005
-4.997090e-004,-1.230693e-004
-3.700568e-004,-1.655304e-004
-1.504584e-004,-1.870851e-004
1.900409e-004,-1.848162e-004
6.619752e-004,-1.611547e-004
1.241521e-003,-1.238797e-004
1.837761e-003,-8.871149e-005
2.314559e-003,-7.039811e-005
2.556848e-003,-7.655659e-005
2.527514e-003,-1.041077e-004
2.198196e-003,-1.455964e-004
1.479596e-003,-1.925954e-004
3.030004e-004,-2.370012e-004
-1.166446e-003,-2.776796e-004
-2.506403e-003,-3.073376e-004
-3.318190e-003,-3.172235e-004
-3.379451e-003,-3.087962e-004
-2.743342e-003,-2.896725e-004
-1.686675e-003,-2.677937e-004
-5.692351e-004,-2.480217e-004
3.062417e-004,-2.303566e-004
8.037825e-004,-2.088019e-004
9.684410e-004,-1.759026e-004
9.058837e-004,-1.282554e-004
6.981159e-004,-7.331529e-005
3.777125e-004,-2.096819e-005
-6.018800e-005,1.954813e-005
-6.209339e-004,4.709924e-005
-1.281998e-003,6.184718e-005
-1.985686e-003,5.747142e-005
-2.649506e-003,2.489629e-005
-3.186430e-003,-3.717472e-005
-3.515586e-003,-1.146419e-004
-3.589326e-003,-1.789819e-004
-3.401978e-003,-2.000504e-004
-2.972503e-003,-1.645580e-004
-2.337854e-003,-8.449779e-005
-1.557671e-003,1.533444e-005
-7.105560e-004,1.051186e-004
9.717742e-005,1.668655e-004
7.640765e-004,1.999268e-004
1.244925e-003,2.090025e-004
1.543126e-003,2.025199e-004
1.687688e-003,1.916615e-004
1.716536e-003,1.825858e-004
1.665971e-003,1.736723e-004
1.567273e-003,1.498487e-004
1.449128e-003,9.993253e-005
1.336492e-003,3.429608e-005
1.243142e-003,-2.696461e-005
1.172806e-003,-6.132245e-005
1.112355e-003,-6.504996e-005
1.046881e-003,-4.754691e-005
9.797856e-004,-2.615428e-005
9.261419e-004,-8.002969e-006
8.959977e-004,9.500084e-006
8.841670e-004,3.121684e-005
8.802774e-004,6.638501e-005
8.796291e-004,1.250527e-004
8.815739e-004,2.051129e-004
8.862738e-004,2.879283e-004
8.995632e-004,3.506476e-004
9.340832e-004,3.762539e-004
1.006202e-003,3.655576e-004
1.114462e-003,3.274723e-004
1.234715e-003,2.777182e-004
1.332116e-003,2.337985e-004
1.375550e-003,2.114335e-004
1.341516e-003,2.128921e-004
1.219805e-003,2.337985e-004
1.025002e-003,2.581083e-004
7.848209e-004,2.671840e-004
5.420469e-004,2.579462e-004
3.491890e-004,2.342847e-004
2.378501e-004,1.996027e-004
1.970097e-004,1.532520e-004
1.731861e-004,9.750155e-005
9.814982e-005,3.786152e-005
-7.137050e-005,-1.950961e-005
-3.324577e-004,-6.991192e-005
-6.350335e-004,-1.144799e-004
-8.953104e-004,-1.569410e-004
-1.032094e-003,-1.958366e-004
-1.010701e-003,-2.308428e-004
-8.622491e-004,-2.558008e-004
-6.486471e-004,-2.609869e-004
-4.201350e-004,-2.415391e-004
-2.076674e-004,-2.021572e-004
-2.210265e-005,-1.548341e-004
1.508210e-004,-1.118868e-004
3.639370e-004,-7.639453e-005
6.689440e-004,-4.122636e-005
1.033105e-003,6.258778e-006
1.333899e-003,7.481241e-005
1.437459e-003,1.573037e-004
1.274745e-003,2.346088e-004
8.827084e-004,2.913317e-004
3.660438e-004,3.242310e-004
-1.684476e-004,3.435167e-004
-6.272544e-004,3.579406e-004
-9.364750e-004,3.684748e-004
-1.058510e-003,3.709058e-004
-1.027394e-003,3.585888e-004
-9.513850e-004,3.281205e-004
-9.557608e-004,2.842008e-004
-1.090113e-003,2.328261e-004
-1.288643e-003,1.811273e-004
-1.437257e-003,1.304008e-004
-1.459622e-003,8.210535e-005
-1.340018e-003,3.121684e-005
-1.117178e-003,-2.080613e-005
-8.539837e-004,-6.683268e-005
-6.058618e-004,-1.032974e-004
-3.992286e-004,-1.316588e-004
-2.324634e-004,-1.598582e-004
-9.065627e-005,-1.932436e-004
2.765140e-005,-2.250084e-004
1.103047e-004,-2.352185e-004
1.419075e-004,-2.058847e-004
1.269974e-004,-1.191798e-004
9.393611e-005,2.068259e-005
7.675719e-005,1.872858e-004
9.490851e-005,3.397892e-004
1.420695e-004,4.352457e-004
1.957131e-004,4.522626e-004
2.354192e-004,3.978086e-004
2.543808e-004,2.986246e-004
2.571359e-004,1.918236e-004
2.521119e-004,1.062531e-004
2.470879e-004,5.179913e-005
2.456293e-004,2.100672e-005
2.435224e-004,-2.006553e-006
2.360674e-004,-3.360929e-005
2.218057e-004,-7.574627e-005
2.065715e-004,-1.209625e-004
1.936063e-004,-1.621271e-004
1.799928e-004,-1.919471e-004
1.621656e-004,-2.079916e-004
1.375317e-004,-2.096122e-004
1.099806e-004,-2.013469e-004
8.048469e-005,-1.857886e-004
4.515445e-005,-1.666649e-004
-3.951337e-006,-1.541859e-004
-7.169464e-005,-1.522411e-004
-1.512687e-004,-1.512687e-004
-2.339220e-004,-1.404103e-004
-3.070135e-004,-1.169109e-004
-3.689224e-004,-8.384953e-005
-4.272659e-004,-4.884343e-005
-4.813957e-004,-1.432352e-005
-5.225603e-004,1.646889e-005
-5.382806e-004,4.013043e-005
-5.131605e-004,5.374392e-005
-4.460654e-004,5.504044e-005
-3.543365e-004,4.564065e-005
-2.650385e-004,2.927205e-005
-2.021572e-004,9.662150e-006
-1.736337e-004,-1.173047e-005
-1.718510e-004,-2.809907e-005
-1.742820e-004,-3.604027e-005
-1.564548e-004,-3.020592e-005
-1.073490e-004,-1.059601e-005
-3.701266e-005,1.549650e-005
3.040651e-005,3.462021e-005
8.550872e-005,4.029249e-005
1.338042e-004,3.818564e-005
1.835582e-004,3.672705e-005
2.350950e-004,4.191315e-005
2.760976e-004,5.568870e-005
2.910076e-004,7.367795e-005
2.780423e-004,9.215340e-005
2.517877e-004,1.119254e-004
2.286124e-004,1.341283e-004
2.248849e-004,1.574657e-004
2.493568e-004,1.798307e-004
3.018659e-004,1.976579e-004
3.652335e-004,2.090025e-004
4.133669e-004,2.140265e-004
4.234150e-004,2.088404e-004
3.791711e-004,2.008992e-004
2.715597e-004,1.940925e-004
1.098185e-004,1.824238e-004
-7.444974e-005,1.633001e-004
-2.395943e-004,1.394765e-004
-3.467194e-004,1.175977e-004
-3.651949e-004,9.879807e-005
-2.713591e-004,7.870197e-005
-6.326724e-005,5.098881e-005
2.239125e-004,1.209313e-005
5.222749e-004,-3.847125e-005
7.571077e-004,-9.649063e-005
8.731465e-004,-1.551583e-004
8.536986e-004,-2.070192e-004
7.238842e-004,-2.475355e-004
5.564707e-004,-2.760590e-004
4.250356e-004,-2.948585e-004
3.632887e-004,-3.019894e-004
3.645853e-004,-2.930758e-004
4.052637e-004,-2.663351e-004
4.606900e-004,-2.319772e-004
5.023408e-004,-2.052364e-004
5.172509e-004,-1.981056e-004
5.102821e-004,-2.096122e-004
4.853239e-004,-2.285738e-004
4.070464e-004,-2.407287e-004
2.130541e-004,-2.371633e-004
-1.331174e-004,-2.167431e-004
-6.220684e-004,-1.820611e-004
-1.179411e-003,-1.389517e-004
-1.686027e-003,-9.730095e-005
-1.998327e-003,-6.586029e-005
-2.017937e-003,-4.446767e-005
-1.753284e-003,-2.761287e-005
-1.303391e-003,-1.318906e-005
-7.925610e-004,1.558884e-006
-3.136581e-004,1.744128e-005
9.118101e-005,3.316162e-005
3.910019e-004,4.855782e-005
5.373469e-004,6.119892e-005
4.931031e-004,6.816773e-005
3.047831e-004,7.043664e-005
1.088461e-004,7.481241e-005
4.045456e-005,8.729143e-005
1.316973e-004,1.122495e-004
2.801492e-004,1.457970e-004
3.226103e-004,1.762653e-004
1.689724e-004,1.942546e-004
-1.452723e-004,1.955511e-004
-4.826922e-004,1.830720e-004
-7.035872e-004,1.645966e-004
-7.502619e-004,1.501728e-004
-6.578848e-004,1.454729e-004
-5.006815e-004,1.526038e-004
-3.399127e-004,1.680000e-004
-1.925954e-004,1.866375e-004
-4.754691e-005,2.041405e-004
1.007429e-004,2.145127e-004
2.354192e-004,2.162954e-004
3.417340e-004,2.078680e-004
4.337872e-004,1.885823e-004
5.430192e-004,1.568175e-004
6.807748e-004,1.206769e-004
8.076721e-004,8.923622e-005
8.572641e-004,6.622294e-005
7.890345e-004,5.439218e-005
6.237278e-004,5.358185e-005
4.431869e-004,6.152305e-005
3.598853e-004,6.832980e-005
4.663623e-004,6.152305e-005
7.968137e-004,3.429608e-005
1.276041e-003,-9.461557e-006
1.679261e-003,-6.083626e-005
1.704543e-003,-1.049180e-004
1.117703e-003,-1.287416e-004
-4.511592e-005,-1.293899e-004
-1.409219e-003,-1.156143e-004
-2.513209e-003,-9.438377e-005
-3.061315e-003,-7.428768e-005
-2.979958e-003,-6.326724e-005
-2.402681e-003,-6.229485e-005
-1.588140e-003,-6.375343e-005
-8.068228e-004,-6.018800e-005
-2.541802e-004,-5.354332e-005
1.002961e-007,-4.787104e-005
3.665733e-006,-4.365734e-005
-1.264727e-004,-3.360929e-005
-2.661730e-004,-1.675450e-005
-3.224097e-004,6.096713e-006
-2.572594e-004,3.154097e-005
-9.033214e-005,5.893001e-005
1.347766e-004,8.453633e-005
3.725264e-004,1.039842e-004
5.932595e-004,1.166253e-004
7.812554e-004,1.289422e-004
9.368383e-004,1.433660e-004
1.067787e-003,1.587622e-004
1.169564e-003,1.715654e-004
1.232932e-003,1.765894e-004
1.251894e-003,1.736723e-004
1.232608e-003,1.620035e-004
1.188202e-003,1.432040e-004
1.134882e-003,1.229458e-004
1.073622e-003,1.090082e-004
1.002799e-003,1.054428e-004
9.248454e-004,1.065772e-004
8.502953e-004,1.052807e-004
7.836864e-004,9.766362e-005
7.274497e-004,8.405013e-005
6.796403e-004,6.719534e-005
6.334517e-004,5.066468e-005
5.859666e-004,3.932010e-005
5.360504e-004,3.445814e-005
4.824068e-004,3.251336e-005
4.240632e-004,2.813760e-005
3.581026e-004,1.549650e-005
2.842008e-004,-8.165034e-006
2.015475e-004,-3.522994e-005
1.070634e-004,-5.775702e-005
-4.113402e-006,-6.910160e-005
-1.321450e-004,-6.423963e-005
-2.689281e-004,-4.430560e-005
-3.963114e-004,-1.562004e-005
-4.849611e-004,1.598270e-005
-5.099192e-004,4.742337e-005
-4.625961e-004,7.837785e-005
-3.551468e-004,1.049566e-004
-2.096122e-004,1.258630e-004
-3.166451e-005,1.370455e-004
1.906891e-004,1.347766e-004
4.720346e-004,1.253768e-004
7.908173e-004,1.216493e-004
1.081077e-003,1.263492e-004
1.278148e-003,1.289422e-004
1.352050e-003,1.091703e-004
1.293545e-003,5.325772e-005
1.088694e-003,-3.441962e-005
7.161051e-004,-1.310105e-004
1.782101e-004,-2.105846e-004
-4.467137e-004,-2.540181e-004
-1.032742e-003,-2.569353e-004
-1.484256e-003,-2.212809e-004
-1.772894e-003,-1.616409e-004
-1.931070e-003,-9.551824e-005
-2.022313e-003,-3.458168e-005
-2.107073e-003,1.727922e-005
-2.223760e-003,5.957827e-005
-2.361516e-003,9.101894e-005
-2.486955e-003,1.159770e-004
-2.554536e-003,1.362352e-004
-2.493924e-003,1.451487e-004
-2.231215e-003,1.338042e-004
-1.726381e-003,1.005808e-004
-9.995184e-004,5.520250e-005
-1.417068e-004,7.717366e-006
6.958469e-004,-2.858526e-005
1.345406e-003,-4.219875e-005
1.704867e-003,-3.150244e-005
1.758511e-003,-2.816880e-006
1.576187e-003,3.170303e-005
1.269397e-003,6.217131e-005
9.485069e-004,8.437427e-005
6.843403e-004,9.377405e-005
5.049338e-004,8.842590e-005
4.044533e-004,7.059870e-005
3.592371e-004,4.320967e-005
3.430306e-004,1.112074e-005
3.363859e-004,-1.999580e-005
3.221241e-004,-4.560212e-005
2.859835e-004,-6.407756e-005
2.151610e-004,-7.444974e-005
1.093323e-004,-7.590833e-005
-1.383732e-005,-6.521203e-005
-1.321450e-004,-4.333321e-005
-2.264670e-004,-2.161646e-005
-2.862691e-004,-1.286493e-005
-3.039342e-004,-2.307504e-005
-2.797865e-004,-4.819516e-005
-2.287359e-004,-8.109442e-005
-1.749302e-004,-1.198280e-004
-1.472171e-004,-1.630995e-004
-1.648822e-004,-2.062088e-004
-2.297083e-004,-2.397564e-004
-3.100927e-004,-2.561249e-004
-3.463953e-004,-2.467252e-004
-2.801106e-004,-2.126914e-004
-8.579432e-005,-1.656925e-004
2.166196e-004,-1.191798e-004
5.801322e-004,-8.141856e-005
9.556379e-004,-5.548810e-005
1.292086e-003,-3.652646e-005
1.552363e-003,-1.902341e-005
1.741980e-003,3.827798e-006
1.874712e-003,3.510640e-005
1.916363e-003,6.978838e-005
1.789790e-003,9.928427e-005
1.432597e-003,1.179218e-004
8.506195e-004,1.286181e-004
1.344524e-004,1.362352e-004
-5.554595e-004,1.464453e-004
-1.070503e-003,1.686482e-004
-1.331590e-003,2.025199e-004
-1.343745e-003,2.438465e-004
-1.178925e-003,2.851732e-004
-9.090859e-004,3.214759e-004
-5.883588e-004,3.530786e-004
-2.742762e-004,3.765781e-004
-2.113026e-005,3.833848e-004
1.532520e-004,3.687989e-004
2.829043e-004,3.388168e-004
4.550177e-004,3.114278e-004
7.647247e-004,3.025142e-004
1.222398e-003,3.127243e-004
1.709243e-003,3.308756e-004
2.000799e-003,3.371962e-004
1.915877e-003,3.135346e-004
1.401642e-003,2.537325e-004
4.551798e-004,1.590864e-004
-8.739178e-004,4.304760e-005
-2.370105e-003,-7.153257e-005
-3.686566e-003,-1.674752e-004
-4.445685e-003,-2.363530e-004
-4.455084e-003,-2.752486e-004
-3.808277e-003,-2.844864e-004
-2.800552e-003,-2.679557e-004
-1.758308e-003,-2.361909e-004
-9.128135e-004,-2.019951e-004
-3.551468e-004,-1.689338e-004
-4.462973e-005,-1.374931e-004
1.172735e-004,-1.031353e-004
2.143507e-004,-6.602235e-005
2.874421e-004,-2.323711e-005
3.452995e-004,2.441009e-005
3.845193e-004,6.719534e-005
3.942432e-004,9.344992e-005
3.632887e-004,1.005808e-004
2.958695e-004,9.377405e-005
2.057612e-004,8.113296e-005
1.060910e-004,7.221937e-005
5.286386e-006,7.027457e-005
-7.947377e-005,7.124698e-005
-1.297140e-004,6.687120e-005
-1.439758e-004,4.888196e-005
-1.407345e-004,1.711715e-005
-1.358725e-004,-2.113026e-005
-1.204763e-004,-4.803310e-005
-4.706071e-005,-4.608832e-005
1.436902e-004,-8.165034e-006
4.509661e-004,5.309565e-005
7.960033e-004,1.206769e-004
1.048177e-003,1.741585e-004
1.109438e-003,1.957131e-004
9.781650e-004,1.756170e-004
7.383081e-004,1.154908e-004
5.037994e-004,2.813760e-005
3.569682e-004,-7.428768e-005
3.258516e-004,-1.747682e-004
3.963500e-004,-2.608248e-004
5.272989e-004,-3.211131e-004
6.644062e-004,-3.523917e-004
7.571077e-004,-3.600088e-004
7.806072e-004,-3.519055e-004
7.460872e-004,-3.352128e-004
6.961710e-004,-3.112271e-004
6.692682e-004,-2.734659e-004
6.742922e-004,-2.180396e-004
6.898505e-004,-1.468929e-004
6.888781e-004,-7.266703e-005
6.545202e-004,-9.137427e-006
5.892079e-004,3.348575e-005
5.083373e-004,5.228533e-005
4.336251e-004,4.402000e-005
3.722023e-004,1.419998e-005
3.156415e-004,-1.950961e-005
2.509774e-004,-3.879538e-005
1.717275e-004,-3.360929e-005
8.648111e-005,-3.141010e-006
4.962256e-006,4.499239e-005
-6.748093e-005,1.044704e-004
-1.327932e-004,1.696206e-004
-1.870851e-004,2.289365e-004
-2.264670e-004,2.713976e-004
-2.540181e-004,2.923041e-004
-2.648765e-004,2.889007e-004
-2.413770e-004,2.615117e-004
-1.577513e-004,2.179161e-004
1.558884e-006,1.699447e-004
2.059233e-004,1.273216e-004
3.932708e-004,9.426025e-005
5.161164e-004,6.654707e-005
5.632774e-004,4.337174e-005
5.543638e-004,2.554455e-005
5.187094e-004,1.711715e-005
4.749518e-004,2.116879e-005
4.292493e-004,3.154097e-005
3.859779e-004,3.769945e-005
3.418961e-004,2.894792e-005
2.940868e-004,8.365628e-006
2.474120e-004,-1.999580e-005
2.039785e-004,-4.560212e-005
1.746447e-004,-5.321919e-005
1.709171e-004,-3.733679e-005
1.950649e-004,3.179537e-006
2.370398e-004,5.617490e-005
2.764217e-004,1.052807e-004
2.908455e-004,1.383420e-004
2.713976e-004,1.495245e-004
2.258573e-004,1.459591e-004
1.636242e-004,1.339663e-004
8.405013e-005,1.193804e-004
-9.461557e-006,1.069013e-004
-1.167488e-004,9.750155e-005
-2.382978e-004,8.875003e-005
-3.707051e-004,7.789165e-005
-5.013297e-004,6.265751e-005
-6.121824e-004,4.434413e-005
-6.886772e-004,3.040651e-005
-7.293556e-004,3.202716e-005
-7.528550e-004,5.115087e-005
-7.851060e-004,8.405013e-005
-8.384255e-004,1.200286e-004
-8.998482e-004,1.506590e-004
-9.384198e-004,1.691344e-004
-9.293441e-004,1.778859e-004
-8.635456e-004,1.898788e-004
-7.484793e-004,2.162954e-004
-6.031067e-004,2.592428e-004
-4.437965e-004,3.051073e-004
-2.807589e-004,3.324963e-004
-1.204763e-004,3.300653e-004
2.424803e-005,2.947351e-004
1.363972e-004,2.300710e-004
2.039785e-004,1.420695e-004
2.303951e-004,3.607880e-005
2.310434e-004,-7.931171e-005
2.229401e-004,-1.882196e-004
2.216436e-004,-2.724935e-004
2.299089e-004,-3.225717e-004
2.443327e-004,-3.428299e-004
2.595669e-004,-3.428299e-004
2.679943e-004,-3.275957e-004
2.730183e-004,-2.979378e-004
2.908455e-004,-2.577456e-004
3.378445e-004,-2.076674e-004
4.083429e-004,-1.493239e-004
4.686312e-004,-8.579432e-005
4.825688e-004,-2.485776e-005
4.294114e-004,2.748933e-005
3.239068e-004,7.043664e-005
2.140265e-004,9.620503e-005
1.482280e-004,9.652916e-005
1.454729e-004,7.140904e-005
1.918236e-004,2.732727e-005
2.542187e-004,-2.647842e-005
2.991108e-004,-7.769105e-005
3.041349e-004,-1.122110e-004
2.611876e-004,-1.186936e-004
1.778859e-004,-9.746302e-005
7.173317e-005,-5.840528e-005
-3.182657e-005,-1.707863e-005
-1.081593e-004,1.241726e-005
-1.566169e-004,1.971020e-005
-2.151224e-004,9.500084e-006
-3.342404e-004,-7.516774e-006
-5.496251e-004,-1.724069e-005
-8.585216e-004,-6.544382e-006
-1.234189e-003,2.343770e-005
-1.641459e-003,6.411610e-005
-2.042571e-003,1.077117e-004
-2.396036e-003,1.500107e-004
-2.637675e-003,1.911753e-004
-2.691644e-003,2.266676e-004
-2.500406e-003,2.496809e-004
-2.046785e-003,2.524360e-004
-1.374213e-003,2.359053e-004
-5.933827e-004,2.086784e-004
1.514693e-004,1.785342e-004
7.402528e-004,1.506590e-004
1.143634e-003,1.266733e-004
1.392729e-003,1.096565e-004
1.529188e-003,1.031738e-004
1.586397e-003,1.090082e-004
1.585263e-003,1.237561e-004
1.537129e-003,1.414213e-004
1.471493e-003,1.579519e-004
1.441997e-003,1.736723e-004
1.486565e-003,1.838824e-004
1.591907e-003,1.855030e-004
1.687202e-003,1.752929e-004
1.694495e-003,1.496866e-004
1.587045e-003,1.112771e-004
1.391432e-003,6.687120e-005
1.168592e-003,2.230324e-005
9.804339e-004,-1.707863e-005
8.593709e-004,-4.868136e-005
7.919517e-004,-7.201877e-005
7.204809e-004,-9.227693e-005
5.770529e-004,-1.099420e-004
3.080244e-004,-1.255003e-004
-1.013526e-004,-1.447861e-004
-6.173684e-004,-1.731475e-004
-1.185245e-003,-2.042640e-004
-1.692672e-003,-2.327876e-004
-1.930746e-003,-2.558008e-004
-1.763656e-003,-2.768693e-004
-1.293829e-003,-3.128478e-004
-8.416668e-004,-3.805911e-004
-7.577170e-004,-4.726441e-004
-1.147160e-003,-5.588629e-004
-1.792180e-003,-6.094273e-004
-2.341096e-003,-6.029447e-004
-2.556643e-003,-5.384427e-004
-2.414349e-003,-4.360174e-004
-2.036412e-003,-3.237062e-004
-1.604670e-003,-2.245222e-004
-1.279081e-003,-1.499722e-004
-1.116043e-003,-1.041077e-004
-1.053810e-003,-7.542214e-005
-9.682398e-004,-4.608832e-005
-7.510723e-004,-5.085794e-006
-3.702189e-004,4.483032e-005
1.192183e-004,9.717742e-005
6.243761e-004,1.414213e-004
1.069084e-003,1.704310e-004
1.404722e-003,1.861513e-004
1.597418e-003,1.908512e-004
1.641338e-003,1.914994e-004
1.566949e-003,1.913374e-004
1.454800e-003,1.913374e-004
1.408773e-003,1.931201e-004
1.476841e-003,1.979821e-004
1.606980e-003,2.057612e-004
1.686716e-003,2.174299e-004
1.617838e-003,2.360674e-004
1.395322e-003,2.615117e-004
1.099876e-003,2.872800e-004
8.355473e-004,3.052693e-004
6.691061e-004,3.106175e-004
6.031455e-004,3.075383e-004
5.854804e-004,3.005694e-004
5.595500e-004,2.903593e-004
4.935893e-004,2.752873e-004
3.900295e-004,2.572980e-004
2.790147e-004,2.415776e-004
1.983062e-004,2.302331e-004
1.701068e-004,2.226160e-004
1.898788e-004,2.196988e-004
2.359053e-004,2.205091e-004
2.806354e-004,2.221298e-004
3.068900e-004,2.184023e-004
3.067279e-004,2.080301e-004
2.816078e-004,1.940925e-004
2.402811e-004,1.791825e-004
1.913374e-004,1.616794e-004
1.420695e-004,1.349386e-004
9.977046e-005,1.017153e-004
7.076077e-005,6.800567e-005
6.168512e-005,4.077869e-005
6.816773e-005,2.651694e-005
9.409818e-005,2.068259e-005
1.548727e-004,2.133085e-005
2.671840e-004,2.522042e-005
4.298976e-004,2.700314e-005
6.123832e-004,2.003433e-005
7.666695e-004,-4.275467e-006
8.553193e-004,-4.608832e-005
8.695811e-004,-9.746302e-005
8.201511e-004,-1.417068e-004
7.255049e-004,-1.608306e-004
6.021731e-004,-1.376552e-004
4.584211e-004,-6.910160e-005
3.047831e-004,3.802358e-005
1.503348e-004,1.631380e-004
-5.571990e-006,2.754493e-004
-1.747682e-004,3.491890e-004
-3.697327e-004,3.790091e-004
-5.920862e-004,3.731747e-004
-8.361566e-004,3.388168e-004
-1.091734e-003,2.769079e-004
-1.351848e-003,1.902029e-004
-1.614232e-003,8.972242e-005
-1.850685e-003,-5.409925e-006
-1.995896e-003,-8.465986e-005
-1.955542e-003,-1.420310e-004
-1.667552e-003,-1.823852e-004
-1.164339e-003,-2.083157e-004
-5.572422e-004,-2.198223e-004
1.079661e-005,-2.183637e-004
3.997534e-004,-2.088019e-004
5.305402e-004,-1.934057e-004
4.007258e-004,-1.679614e-004
1.072255e-004,-1.293899e-004
-1.759026e-004,-7.833932e-005
-2.985860e-004,-2.194059e-005
-2.089639e-004,2.392390e-005
3.299956e-005,4.288554e-005
3.042969e-004,3.154097e-005
4.837033e-004,2.623614e-007
5.154681e-004,-3.733679e-005
4.196875e-004,-6.974985e-005
2.590807e-004,-9.697682e-005
1.041462e-004,-1.230693e-004
-1.682422e-006,-1.514308e-004
-4.414354e-005,-1.921091e-004
-2.826113e-005,-2.502906e-004
3.073064e-005,-3.134960e-004
1.177597e-004,-3.577399e-004
2.141886e-004,-3.643846e-004
3.038107e-004,-3.300267e-004
3.760919e-004,-2.664971e-004
4.256839e-004,-1.908126e-004
4.485351e-004,-1.204763e-004
4.435111e-004,-6.991192e-005
4.119083e-004,-4.462973e-005
3.619922e-004,-4.252288e-005
3.036486e-004,-5.305713e-005
2.488706e-004,-6.051213e-005
2.072198e-004,-5.078821e-005
1.772377e-004,-1.805102e-005
1.479039e-004,3.510640e-005
1.028497e-004,9.993253e-005
3.445814e-005,1.649207e-004
-5.143647e-005,2.179161e-004
-1.408965e-004,2.482223e-004
-2.211188e-004,2.514636e-004
-2.841623e-004,2.282883e-004
-3.400748e-004,1.851789e-004
-3.976079e-004,1.323456e-004
-4.546549e-004,8.226741e-005
-4.929024e-004,4.807163e-005
-5.113778e-004,2.910999e-005
-5.296912e-004,2.684107e-005
-5.729626e-004,3.899597e-005
-6.622605e-004,7.011251e-005
-7.970989e-004,1.206769e-004
-9.431196e-004,1.757791e-004
-1.043114e-003,2.214815e-004
-1.042466e-003,2.572980e-004
-9.069791e-004,2.832284e-004
-6.462161e-004,2.889007e-004
-3.217614e-004,2.592428e-004
-3.117831e-005,1.968476e-004
1.427178e-004,1.161391e-004
1.804790e-004,3.364782e-005
1.368834e-004,-4.803310e-005
1.002567e-004,-1.243659e-004
1.367214e-004,-1.893540e-004
2.527601e-004,-2.348944e-004
4.052637e-004,-2.569353e-004
5.345918e-004,-2.596904e-004
5.976353e-004,-2.527216e-004
5.909906e-004,-2.394322e-004
5.472329e-004,-2.186879e-004
5.034753e-004,-1.919471e-004
4.851619e-004,-1.640719e-004
4.934272e-004,-1.391138e-004
5.214645e-004,-1.227452e-004
5.665187e-004,-1.115627e-004
6.318311e-004,-9.762508e-005
7.023295e-004,-7.396355e-005
7.580800e-004,-3.652646e-005
7.793106e-004,1.744128e-005
7.452769e-004,8.388807e-005
6.422033e-004,1.564933e-004
4.700898e-004,2.240746e-004
2.493568e-004,2.723700e-004
1.517237e-005,2.892249e-004
-1.917850e-004,2.720459e-004
-3.455850e-004,2.295848e-004
-4.454172e-004,1.736723e-004
-5.099192e-004,1.193804e-004
-5.565939e-004,7.675719e-005
-5.781486e-004,5.017848e-005
-5.470321e-004,3.753739e-005
-4.324520e-004,3.186510e-005
-2.241981e-004,2.716520e-005
5.163707e-005,2.603075e-005
3.393030e-004,3.251336e-005
5.843459e-004,4.953022e-005
7.556491e-004,7.302969e-005
8.400852e-004,9.199134e-005
8.229063e-004,9.733949e-005
6.916332e-004,8.518459e-005
4.540453e-004,5.730935e-005
1.526038e-004,2.732727e-005
-1.407345e-004,5.772582e-006
-3.475298e-004,9.338019e-006
-4.253211e-004,5.001641e-005
-3.972838e-004,1.278078e-004
-3.366714e-004,2.323399e-004
-3.193304e-004,3.352514e-004
-3.870737e-004,4.004017e-004
-5.300153e-004,4.123945e-004
-6.925667e-004,3.841952e-004
-8.133054e-004,3.342790e-004
-8.653283e-004,2.798251e-004
-8.722972e-004,2.297469e-004
-8.604664e-004,1.861513e-004
-8.470149e-004,1.461212e-004
-8.630594e-004,1.114392e-004
-9.547884e-004,8.583285e-005
-1.157046e-003,7.092283e-005
-1.437581e-003,6.119892e-005
-1.692348e-003,5.082674e-005
-1.809035e-003,3.543053e-005
-1.727840e-003,9.662150e-006
-1.462701e-003,-2.518189e-005
-1.085899e-003,-6.537409e-005
-6.898117e-004,-1.024870e-004
-3.297026e-004,-1.264727e-004
-6.176923e-008,-1.331174e-004
3.623164e-004,-1.253383e-004
8.045929e-004,-1.067007e-004
1.269559e-003,-7.979790e-005
1.604873e-003,-5.030201e-005
1.669537e-003,-2.307504e-005
1.457879e-003,-7.516774e-006
1.094204e-003,-1.189254e-005
7.381460e-004,-4.009190e-005
4.911583e-004,-8.692878e-005
3.509718e-004,-1.387897e-004
2.521119e-004,-1.804405e-004
1.394765e-004,-2.034537e-004
1.501031e-005,-2.039399e-004
-7.850138e-005,-1.831956e-004
-1.037836e-004,-1.467309e-004
-5.240886e-005,-1.049180e-004
5.439218e-005,-6.278104e-005
1.736723e-004,-2.194059e-005
2.597290e-004,1.630683e-005
2.835526e-004,4.758544e-005
2.547049e-004,7.157111e-005
2.101370e-004,8.891209e-005
1.814514e-004,1.038221e-004
1.804790e-004,1.119254e-004
2.102990e-004,1.099806e-004
2.654012e-004,1.017153e-004
3.404375e-004,9.020861e-005
4.525867e-004,7.529860e-005
6.493341e-004,5.795762e-005
9.750857e-004,4.013043e-005
1.411528e-003,2.133085e-005
1.851051e-003,-7.100305e-007
2.165782e-003,-2.809907e-005
2.273232e-003,-5.402952e-005
2.156869e-003,-7.007398e-005
1.853806e-003,-7.315322e-005
1.437135e-003,-6.602235e-005
9.869165e-004,-5.565017e-005
5.687876e-004,-4.803310e-005
2.435224e-004,-4.722277e-005
7.108490e-005,-5.370539e-005
1.083599e-004,-6.407756e-005
3.892192e-004,-7.607040e-005
9.206317e-004,-8.320127e-005
1.643606e-003,-7.914964e-005
2.402723e-003,-5.727082e-005
2.976438e-003,-1.934754e-005
3.155197e-003,2.635488e-005
2.842895e-003,6.816773e-005
2.047312e-003,9.814982e-005
8.099410e-004,1.180839e-004
-7.439414e-004,1.299146e-004
-2.273028e-003,1.373696e-004
-3.411215e-003,1.449867e-004
-3.874400e-003,1.532520e-004
-3.610395e-003,1.624898e-004
-2.807034e-003,1.739964e-004
-1.770301e-003,1.855030e-004
-7.945058e-004,1.936063e-004
-8.320127e-005,1.931201e-004
2.863077e-004,1.786963e-004
3.660438e-004,1.535762e-004
2.738286e-004,1.231079e-004
1.210010e-004,8.680524e-005
-1.659243e-005,4.839576e-005
-1.010285e-004,1.322759e-005
-1.342519e-004,-1.594417e-005
-1.313347e-004,-3.685059e-005
-9.373551e-005,-4.868136e-005
-4.041603e-005,-5.240886e-005
-4.138842e-005,-5.208473e-005
-1.948643e-004,-5.597430e-005
-5.525423e-004,-6.715681e-005
-1.044735e-003,-8.271508e-005
-1.513914e-003,-9.892161e-005
-1.773867e-003,-1.122110e-004
-1.654100e-003,-1.183694e-004
-1.054783e-003,-1.191798e-004
-9.000801e-005,-1.161005e-004
8.653674e-004,-1.130213e-004
1.368743e-003,-1.107524e-004
1.202788e-003,-1.058904e-004
4.760862e-004,-9.308726e-005
-4.421759e-004,-7.185670e-005
-1.150725e-003,-4.090223e-005
-1.461891e-003,-2.006553e-006
-1.400954e-003,4.580272e-005
-1.119771e-003,9.928427e-005
-7.983954e-004,1.504969e-004
-5.778245e-004,1.893926e-004
-5.403875e-004,2.122438e-004
-6.877048e-004,2.184023e-004
-9.251304e-004,2.096508e-004
-1.094327e-003,1.945787e-004
-1.068882e-003,1.830720e-004
-8.188156e-004,1.777239e-004
-4.238625e-004,1.728619e-004
-7.192643e-006,1.611932e-004
3.308756e-004,1.407730e-004
5.509604e-004,1.122495e-004
6.716992e-004,7.238143e-005
7.383081e-004,2.246531e-005
7.851450e-004,-3.101624e-005
8.152892e-004,-8.239095e-005
8.024860e-004,-1.261486e-004
7.135121e-004,-1.611547e-004
5.511225e-004,-1.878955e-004
3.592371e-004,-2.075054e-004
1.691344e-004,-2.203085e-004
-1.513384e-005,-2.243601e-004
-2.319772e-004,-2.182017e-004
-5.275843e-004,-2.058847e-004
-9.021171e-004,-1.921091e-004
-1.293019e-003,-1.784957e-004
-1.612449e-003,-1.661787e-004
-1.791045e-003,-1.588858e-004
-1.796718e-003,-1.619650e-004
-1.627035e-003,-1.703924e-004
-1.309873e-003,-1.762267e-004
-9.013068e-004,-1.791439e-004
-4.676201e-004,-1.843300e-004
-6.553616e-005,-2.015089e-004
2.691287e-004,-2.264670e-004
5.294057e-004,-2.408908e-004
7.227497e-004,-2.233878e-004
8.543470e-004,-1.626133e-004
9.272764e-004,-6.877746e-005
9.486690e-004,3.494434e-005
9.327867e-004,1.312111e-004
9.006977e-004,2.065715e-004
8.721742e-004,2.551911e-004
8.580744e-004,2.705873e-004
8.677984e-004,2.566497e-004
9.024804e-004,2.269918e-004
9.575827e-004,1.979821e-004
1.019330e-003,1.824238e-004
1.082049e-003,1.827479e-004
1.136827e-003,1.919856e-004
1.173130e-003,2.008992e-004
1.178964e-003,1.984682e-004
1.153844e-003,1.795066e-004
1.108628e-003,1.449867e-004
1.048664e-003,1.046324e-004
9.626067e-004,7.270556e-005
8.352232e-004,6.055066e-005
6.618132e-004,6.914012e-005
4.532350e-004,9.409818e-005
2.312054e-004,1.300767e-004
1.338965e-005,1.702689e-004
-2.021572e-004,2.081922e-004
-4.183523e-004,2.383363e-004
-6.402197e-004,2.568118e-004
-8.675972e-004,2.642668e-004
-1.093030e-003,2.649151e-004
-1.311008e-003,2.655633e-004
-1.509862e-003,2.692908e-004
-1.668524e-003,2.767458e-004
-1.767546e-003,2.833905e-004
-1.788290e-003,2.791768e-004
-1.722168e-003,2.548670e-004
-1.585222e-003,2.127300e-004
-1.399333e-003,1.605450e-004
-1.172766e-003,1.060910e-004
-9.171892e-004,5.617490e-005
-6.569124e-004,1.419998e-005
-4.298589e-004,-1.983374e-005
-2.621213e-004,-4.932962e-005
-1.405724e-004,-7.412562e-005
-2.858526e-005,-9.341139e-005
1.081979e-004,-1.079973e-004
2.712356e-004,-1.177212e-004
4.357320e-004,-1.201522e-004
5.613326e-004,-1.099420e-004
6.370172e-004,-8.984595e-005
7.138362e-004,-6.391550e-005
8.436506e-004,-3.377135e-005
1.006851e-003,-1.196226e-006
1.112031e-003,3.429608e-005
1.072001e-003,6.962632e-005
8.830325e-004,1.038221e-004
6.305345e-004,1.347766e-004
4.371905e-004,1.603829e-004
3.799814e-004,1.770756e-004
4.564763e-004,1.819376e-004
6.049282e-004,1.761032e-004
7.548388e-004,1.663793e-004
8.705535e-004,1.569795e-004
9.449415e-004,1.456350e-004
9.773546e-004,1.286181e-004
9.650376e-004,9.782569e-005
9.019942e-004,5.131293e-005
7.874139e-004,-5.734055e-006
6.417171e-004,-6.504996e-005
4.968306e-004,-1.180453e-004
3.832228e-004,-1.554824e-004
3.115899e-004,-1.759026e-004
2.678322e-004,-1.801163e-004
2.253711e-004,-1.726613e-004
1.704310e-004,-1.564548e-004
1.192183e-004,-1.329553e-004
9.490851e-005,-1.055663e-004
1.195424e-004,-8.044616e-005
2.018716e-004,-6.586029e-005
3.299032e-004,-6.294311e-005
4.806241e-004,-6.391550e-005
6.297242e-004,-5.727082e-005
7.512733e-004,-4.333321e-005
8.284165e-004,-3.069211e-005
8.622881e-004,-2.161646e-005
8.705535e-004,-1.027188e-005
8.827084e-004,9.338019e-006
9.206317e-004,3.802358e-005
9.844855e-004,6.849186e-005
1.044288e-003,8.032263e-005
1.065356e-003,5.487837e-005
1.025326e-003,-1.189254e-005
9.013459e-004,-1.031353e-004
6.631097e-004,-1.922712e-004
2.845250e-004,-2.507768e-004
-2.452666e-004,-2.561249e-004
-8.692179e-004,-2.000504e-004
-1.467563e-003,-9.503204e-005
-1.914053e-003,2.959618e-005
-2.150831e-003,1.419075e-004
-2.195399e-003,2.218057e-004
-2.101563e-003,2.641047e-004
-1.929287e-003,2.730183e-004
-1.723626e-003,2.579462e-004
-1.512455e-003,2.258573e-004
-1.318787e-003,1.858272e-004
-1.165149e-003,1.605450e-004
-1.069368e-003,1.662173e-004
-1.026097e-003,1.986303e-004
-1.003408e-003,2.478982e-004
-9.512230e-004,3.059176e-004
-8.455564e-004,3.618301e-004
-7.068285e-004,4.072085e-004
-5.713420e-004,4.396215e-004
-4.454172e-004,4.636072e-004
-2.971275e-004,4.846757e-004
-8.790116e-005,5.034753e-004
1.921477e-004,5.122268e-004
4.971547e-004,5.034753e-004
7.554870e-004,4.770586e-004
9.274384e-004,4.323286e-004
1.017871e-003,3.694472e-004
1.043153e-003,2.874421e-004
9.901578e-004,1.866375e-004
8.264717e-004,7.319175e-005
5.443157e-004,-4.560212e-005
1.848548e-004,-1.543479e-004
-1.788198e-004,-2.433218e-004
-4.753993e-004,-3.105789e-004
-6.575607e-004,-3.754050e-004
-7.021286e-004,-4.601651e-004
-6.032688e-004,-5.715040e-004
-3.711913e-004,-7.008321e-004
-3.555407e-005,-8.235155e-004
3.493511e-004,-9.079515e-004
7.099466e-004,-9.261028e-004
9.768684e-004,-8.705144e-004
1.098742e-003,-7.620928e-004
1.058873e-003,-6.374645e-004
8.979425e-004,-5.306635e-004
6.932539e-004,-4.593548e-004
5.020167e-004,-4.241866e-004
3.375203e-004,-4.047388e-004
1.764274e-004,-3.771877e-004
-4.599598e-006,-3.288923e-004
-1.994021e-004,-2.593662e-004
-3.757291e-004,-1.783336e-004
-4.916058e-004,-1.036215e-004
-5.219121e-004,-5.402952e-005
-4.658374e-004,-3.960571e-005
-3.420196e-004,-6.213279e-005
-1.874093e-004,-1.201522e-004
-3.766092e-005,-2.041020e-004
8.242948e-005,-2.934000e-004
1.649207e-004,-3.593605e-004
2.145127e-004,-3.732981e-004
2.367157e-004,-3.254889e-004
2.352571e-004,-2.271153e-004
2.159713e-004,-1.037836e-004
1.872858e-004,1.501031e-005
1.582760e-004,1.070634e-004
1.398006e-004,1.692965e-004
1.383420e-004,2.143507e-004
1.530900e-004,2.532463e-004
1.746447e-004,2.879283e-004
1.911753e-004,3.156415e-004
1.955511e-004,3.370341e-004
1.796687e-004,3.535648e-004
1.391524e-004,3.717161e-004
7.092283e-005,4.020223e-004
-1.805102e-005,4.423766e-004
-1.115627e-004,4.790034e-004
-1.882196e-004,4.929410e-004
-2.361909e-004,4.762483e-004
-2.715212e-004,4.320044e-004
-3.172235e-004,3.700955e-004
-3.779980e-004,3.004074e-004
-4.326140e-004,2.328261e-004
-4.530342e-004,1.782101e-004
-4.167317e-004,1.404489e-004
-3.050687e-004,1.203528e-004
-1.008664e-004,1.146805e-004
1.919856e-004,1.219734e-004
5.336195e-004,1.430419e-004
8.639088e-004,1.701068e-004
1.112355e-003,1.931201e-004
1.214457e-003,2.004130e-004
1.144606e-003,1.892305e-004
9.212799e-004,1.670276e-004
6.020110e-004,1.466074e-004
2.644288e-004,1.402868e-004
-2.907146e-005,1.551968e-004
-2.592042e-004,1.845306e-004
-4.441207e-004,2.171058e-004
-6.210959e-004,2.477361e-004
-8.201121e-004,2.701011e-004
-1.040683e-003,2.816078e-004
-1.249423e-003,2.879283e-004
-1.390582e-003,2.968419e-004
-1.429316e-003,3.067279e-004
-1.373079e-003,3.104554e-004
-1.256554e-003,3.044590e-004
-1.113612e-003,2.898731e-004
-9.625675e-004,2.641047e-004
-8.024470e-004,2.276400e-004
-6.360059e-004,1.872858e-004
-4.684305e-004,1.480659e-004
-3.058790e-004,1.166253e-004
-1.603444e-004,9.912220e-005
-4.819516e-005,9.733949e-005
2.505835e-005,1.070634e-004
7.092283e-005,1.177597e-004
1.064151e-004,1.200286e-004
1.402868e-004,1.124116e-004
1.688103e-004,9.928427e-005
1.900409e-004,8.161915e-005
2.090025e-004,6.006446e-005
2.282883e-004,3.624086e-005
2.453051e-004,1.549650e-005
2.537325e-004,4.962256e-006
2.478982e-004,8.041497e-006
2.258573e-004,1.711715e-005
1.898788e-004,2.505835e-005
1.475797e-004,2.505835e-005
1.088461e-004,1.160693e-005
8.777764e-005,-2.096819e-005
1.044704e-004,-6.715681e-005
1.806411e-004,-1.199901e-004
3.227724e-004,-1.783336e-004
5.136854e-004,-2.451045e-004
7.062191e-004,-3.172235e-004
8.452713e-004,-3.841565e-004
8.997252e-004,-4.378001e-004
8.697432e-004,-4.668098e-004
7.794727e-004,-4.598410e-004
6.618132e-004,-4.157593e-004
5.473950e-004,-3.455850e-004
4.555039e-004,-2.718453e-004
3.969983e-004,-2.190120e-004
3.725264e-004,-2.021572e-004
3.770643e-004,-2.173913e-004
4.008879e-004,-2.452666e-004
4.274666e-004,-2.648765e-004
4.373526e-004,-2.567732e-004
4.182289e-004,-2.182017e-004
3.754436e-004,-1.592099e-004
3.305515e-004,-9.697682e-005
2.992729e-004,-4.446767e-005
2.874421e-004,-9.785687e-006
2.950592e-004,6.096713e-006
3.127243e-004,1.112074e-005
3.273102e-004,1.371378e-005
3.281205e-004,1.549650e-005
3.146691e-004,1.517237e-005
2.932765e-004,1.371378e-005
2.720459e-004,1.290346e-005
2.537325e-004,1.598270e-005
2.279641e-004,2.197911e-005
1.859892e-004,2.635488e-005
1.305629e-004,3.316162e-005
7.124698e-005,4.742337e-005
1.906194e-005,6.930219e-005
-1.772689e-005,9.750155e-005
-3.425755e-005,1.305629e-004
-3.620233e-005,1.589243e-004
-3.766092e-005,1.756170e-004
-5.305713e-005,1.778859e-004
-8.773910e-005,1.718895e-004
-1.303623e-004,1.680000e-004
-1.661787e-004,1.720516e-004
-1.888679e-004,1.840444e-004
-2.036158e-004,2.008992e-004
-2.243601e-004,2.153230e-004
-2.545043e-004,2.206712e-004
-2.848105e-004,2.130541e-004
-3.021515e-004,1.926339e-004
-2.963171e-004,1.645966e-004
-2.721694e-004,1.357490e-004
-2.464010e-004,1.099806e-004
-2.276015e-004,8.842590e-005
-2.125294e-004,6.654707e-005
-1.911368e-004,3.932010e-005
-1.601823e-004,9.338019e-006
-1.261486e-004,-1.513384e-005
-1.031353e-004,-2.777494e-005
-1.088076e-004,-2.615428e-005
-1.580754e-004,-1.529591e-005
-2.472113e-004,-5.896120e-006
-3.548227e-004,-2.978945e-006
-4.549791e-004,-3.951337e-006
-5.253154e-004,-5.479652e-007
-5.509217e-004,4.313994e-006
-5.321222e-004,6.420843e-006
-4.836646e-004,8.851824e-006
-4.224039e-004,1.857574e-005
-3.645466e-004,3.478227e-005
-3.141443e-004,5.585077e-005
-2.695764e-004,7.529860e-005
-2.186879e-004,8.875003e-005
-1.426792e-004,9.231547e-005
-2.826113e-005,8.956035e-005
1.114392e-004,8.486046e-005
2.542187e-004,8.291567e-005
3.809539e-004,8.388807e-005
4.828930e-004,7.789165e-005
5.550120e-004,6.022653e-005
6.010386e-004,3.721326e-005
6.379896e-004,1.646889e-005
6.812610e-004,1.072688e-006
7.289082e-004,-7.192643e-006
7.622938e-004,-8.813297e-006
7.666695e-004,-6.382316e-006
7.412253e-004,-1.358292e-006
6.930918e-004,7.393235e-006
6.300483e-004,2.278944e-005
5.686256e-004,4.483032e-005
5.311884e-004,6.897806e-005
5.120648e-004,8.842590e-005
4.710622e-004,9.798775e-005
3.571302e-004,9.896014e-005
1.342904e-004,9.507057e-005
-1.984297e-004,9.166720e-005
-6.055377e-004,8.956035e-005
-1.032094e-003,8.323980e-005
-1.420564e-003,6.573675e-005
-1.729299e-003,2.927205e-005
-1.925073e-003,-2.275091e-005
-1.992655e-003,-7.785312e-005
-1.933987e-003,-1.191798e-004
-1.754905e-003,-1.349001e-004
-1.474856e-003,-1.263107e-004
-1.142460e-003,-9.908367e-005
-8.136295e-004,-6.488790e-005
-5.253154e-004,-3.344722e-005
-2.635799e-004,-5.571990e-006
3.397195e-005,1.711715e-005
3.989431e-004,2.765140e-005
7.725038e-004,2.586868e-005
1.037481e-003,1.857574e-005
1.091287e-003,6.907039e-006
9.323005e-004,-6.220251e-006
6.563029e-004,-1.480971e-005
3.918122e-004,-1.351319e-005
2.328261e-004,5.864920e-007
2.018716e-004,3.299956e-005
2.564876e-004,7.610893e-005
3.282826e-004,1.156529e-004
3.756057e-004,1.462832e-004
3.965121e-004,1.642725e-004
4.110980e-004,1.736723e-004
4.414042e-004,1.793446e-004
4.869446e-004,1.798307e-004
5.362125e-004,1.738343e-004
5.739737e-004,1.607070e-004
5.798081e-004,1.415833e-004
5.362125e-004,1.159770e-004
4.277907e-004,8.664317e-005
2.521119e-004,5.520250e-005
3.478227e-005,1.938607e-005
-1.828714e-004,-2.307504e-005
-3.438023e-004,-7.299116e-005
-4.068456e-004,-1.259865e-004
-3.755671e-004,-1.771991e-004
-2.843243e-004,-2.251705e-004
-1.653684e-004,-2.695764e-004
-3.944364e-005,-3.071755e-004
8.810177e-005,-3.319715e-004
2.292607e-004,-3.416954e-004
3.968363e-004,-3.287302e-004
5.827252e-004,-2.937241e-004
7.574318e-004,-2.386219e-004
8.937289e-004,-1.702303e-004
9.572585e-004,-1.000561e-004
9.097733e-004,-4.009190e-005
7.386322e-004,1.072688e-006
4.499937e-004,2.197911e-005
6.573675e-005,2.554455e-005
-3.535262e-004,1.663096e-005
-7.141214e-004,-3.465141e-006
-9.395542e-004,-3.036798e-005
-9.948185e-004,-5.775702e-005
-8.919070e-004,-7.963584e-005
-6.685811e-004,-9.000801e-005
-3.747567e-004,-8.336334e-005
-6.423963e-005,-6.164659e-005
2.164575e-004,-3.182657e-005
4.396215e-004,-5.896120e-006
5.883976e-004,5.448451e-006
6.517651e-004,-3.858999e-007
6.243761e-004,-1.626830e-005
5.234093e-004,-3.506787e-005
3.877606e-004,-4.689864e-005
2.632944e-004,-4.641245e-005
1.641104e-004,-3.328516e-005
6.638501e-005,-1.221667e-005
-6.910160e-005,1.322759e-005
-2.652006e-004,3.834771e-005
-5.159156e-004,5.957827e-005
-7.784613e-004,7.432621e-005
-9.876876e-004,8.550872e-005
-1.087196e-003,1.004187e-004
-1.055269e-003,1.213252e-004
-9.098963e-004,1.449867e-004
-6.927288e-004,1.714033e-004
-4.502792e-004,2.062474e-004
-2.263049e-004,2.503292e-004
-4.041603e-005,2.936006e-004
1.081979e-004,3.266619e-004
2.297469e-004,3.448132e-004
3.297412e-004,3.540510e-004
4.036430e-004,3.566440e-004
4.459420e-004,3.499994e-004
4.551798e-004,3.370341e-004
4.383250e-004,3.264999e-004
4.060740e-004,3.284447e-004
3.683128e-004,3.412478e-004
3.370341e-004,3.556717e-004
3.226103e-004,3.621542e-004
3.239068e-004,3.504856e-004
3.289309e-004,3.167760e-004
3.205035e-004,2.634565e-004
2.892249e-004,2.015475e-004
2.399570e-004,1.443384e-004
1.817755e-004,1.002567e-004
1.289422e-004,7.043664e-005
8.923622e-005,4.645098e-005
6.298164e-005,2.084466e-005
4.726130e-005,-7.840905e-006
4.045456e-005,-3.296103e-005
4.061663e-005,-4.835723e-005
5.017848e-005,-5.111234e-005
7.351588e-005,-4.284701e-005
1.141943e-004,-3.393342e-005
1.691344e-004,-3.215070e-005
2.295848e-004,-3.814712e-005
2.845250e-004,-4.900549e-005
3.230965e-004,-6.180866e-005
3.431926e-004,-7.898758e-005
3.459477e-004,-1.044318e-004
3.346032e-004,-1.400862e-004
3.115899e-004,-1.838438e-004
2.757734e-004,-2.263049e-004
2.281262e-004,-2.572594e-004
1.702689e-004,-2.711970e-004
9.944633e-005,-2.637420e-004
1.954813e-005,-2.337599e-004
-5.970180e-005,-1.883817e-004
-1.381414e-004,-1.394379e-004
-2.235498e-004,-9.762508e-005
-3.144684e-004,-6.991192e-005
-3.953390e-004,-5.467778e-005
-4.305072e-004,-4.900549e-005
-3.906391e-004,-5.095028e-005
-2.838381e-004,-5.856734e-005
-1.590478e-004,-6.796713e-005
-7.428768e-005,-7.331529e-005
-6.018800e-005,-6.683268e-005
-1.114006e-004,-4.738484e-005
-1.950263e-004,-2.404744e-005
-2.643903e-004,-5.085794e-006
-2.841623e-004,9.986280e-006
-2.441321e-004,1.906194e-005
-1.673132e-004,2.295151e-005
-9.130454e-005,2.522042e-005
-5.224680e-005,2.943412e-005
-6.942573e-005,3.996836e-005
-1.337657e-004,6.006446e-005
-2.076674e-004,8.518459e-005
-2.314910e-004,1.093323e-004
-1.579134e-004,1.273216e-004
1.646889e-005,1.386661e-004
2.545429e-004,1.448246e-004
5.067165e-004,1.477418e-004
7.360392e-004,1.472556e-004
9.160939e-004,1.389903e-004
1.022409e-003,1.244044e-004
1.037157e-003,1.052807e-004
9.530449e-004,7.627100e-005
7.810934e-004,4.158902e-005
5.564707e-004,1.031041e-005
3.352514e-004,-1.059601e-005
1.530900e-004,-1.724069e-005
2.855406e-006,-1.092015e-005
-1.545100e-004,6.907039e-006
-3.449367e-004,2.894792e-005
-5.507596e-004,4.369587e-005
-7.244936e-004,4.871989e-005
-8.193018e-004,4.515445e-005
-8.171949e-004,3.251336e-005
-7.257902e-004,1.436204e-005
-5.736108e-004,-3.303075e-006
-4.032802e-004,-1.497178e-005
-2.617972e-004,-2.015787e-005
-1.728234e-004,-2.631635e-005
-1.267968e-004,-4.138842e-005
-1.078352e-004,-6.586029e-005
-1.101041e-004,-9.130454e-005
-1.303623e-004,-1.047560e-004
-1.666649e-004,-9.519411e-005
-2.104225e-004,-6.456376e-005
-2.515871e-004,-2.404744e-005
-2.757348e-004,1.079661e-005
-2.695764e-004,3.462021e-005
-2.298704e-004,5.196120e-005
-1.677994e-004,7.205730e-005
-9.730095e-005,9.847395e-005
-2.501983e-005,1.313732e-004
4.564065e-005,1.655690e-004
1.125736e-004,1.840444e-004
1.657311e-004,1.650828e-004
1.997648e-004,9.960840e-005
2.159713e-004,-3.858999e-007
2.224539e-004,-1.021629e-004
2.307192e-004,-1.665028e-004
2.457913e-004,-1.668270e-004
2.589186e-004,-1.052422e-004
2.456293e-004,-3.789271e-006
1.840444e-004,1.086841e-004
7.513654e-005,2.075439e-004
-6.197072e-005,2.770700e-004
-2.008607e-004,3.143450e-004
-3.258130e-004,3.206655e-004
-4.303451e-004,2.991108e-004
-5.149432e-004,2.558394e-004
-5.834968e-004,1.991165e-004
-6.291992e-004,1.409351e-004
-6.465402e-004,9.118101e-005
-6.285509e-004,5.050261e-005
-5.732867e-004,1.938607e-005
-4.839887e-004,-1.034161e-006
-3.707051e-004,-8.813297e-006
-2.507768e-004,-1.844488e-006
-1.323070e-004,1.711715e-005
-2.096819e-005,3.737532e-005
7.886404e-005,4.774750e-005
1.621656e-004,4.466826e-005
2.290986e-004,3.445814e-005
2.798251e-004,1.954813e-005
3.198552e-004,3.665733e-006
3.509718e-004,-9.461557e-006
3.798194e-004,-1.740276e-005
4.196875e-004,-2.485776e-005
4.811102e-004,-4.057810e-005
5.613326e-004,-7.039811e-005
6.485238e-004,-1.107524e-004
7.227497e-004,-1.504584e-004
7.652109e-004,-1.825473e-004
7.713694e-004,-2.003745e-004
7.362012e-004,-2.052364e-004
6.624614e-004,-1.997262e-004
5.699221e-004,-1.895161e-004
4.859722e-004,-1.781715e-004
4.342734e-004,-1.684476e-004
4.114221e-004,-1.652063e-004
3.940811e-004,-1.741199e-004
3.418961e-004,-1.935677e-004
2.234263e-004,-2.128535e-004
2.992031e-005,-2.201465e-004
-2.130156e-004,-2.128535e-004
-4.460654e-004,-1.930815e-004
-5.815520e-004,-1.656925e-004
-5.426563e-004,-1.342519e-004
-3.334301e-004,-1.020008e-004
-4.446767e-005,-6.780506e-005
1.955511e-004,-3.150244e-005
3.125622e-004,1.063454e-005
3.149932e-004,5.795762e-005
2.469258e-004,1.104668e-004
1.506590e-004,1.628139e-004
5.536457e-005,2.043026e-004
-1.335112e-005,2.308813e-004
-3.117831e-005,2.420638e-004
-8.720958e-007,2.402811e-004
5.309565e-005,2.286124e-004
9.004655e-005,2.115955e-004
7.691926e-005,1.991165e-004
1.047248e-005,2.033302e-004
-7.833932e-005,2.286124e-004
-1.404103e-004,2.673460e-004
-1.264727e-004,3.044590e-004
-1.189254e-005,3.253654e-004
1.944166e-004,3.216379e-004
4.517764e-004,2.931144e-004
7.036260e-004,2.443327e-004
8.912979e-004,1.812893e-004
9.642273e-004,1.175977e-004
8.921082e-004,6.589881e-005
6.733198e-004,3.089270e-005
3.371962e-004,1.031041e-005
-6.342930e-005,3.017472e-006
-4.752372e-004,5.772582e-006
-8.590078e-004,1.468617e-005
-1.199669e-003,2.684107e-005
-1.493007e-003,4.256141e-005
-1.717306e-003,5.990240e-005
-1.843393e-003,7.772959e-005
-1.845175e-003,9.717742e-005
-1.713254e-003,1.151667e-004
-1.473235e-003,1.316973e-004
-1.187514e-003,1.402868e-004
-9.131376e-004,1.329939e-004
-6.852738e-004,1.051186e-004
-5.204534e-004,6.055066e-005
-4.241866e-004,6.258778e-006
-3.950149e-004,-4.560212e-005
-4.086284e-004,-8.611845e-005
-4.240246e-004,-1.083214e-004
-4.034423e-004,-1.117248e-004
-3.342404e-004,-1.008664e-004
-2.227395e-004,-8.806324e-005
-9.130454e-005,-8.417366e-005
3.040651e-005,-9.341139e-005
1.257009e-004,-1.104282e-004
1.981441e-004,-1.277692e-004
2.574600e-004,-1.349001e-004
3.111037e-004,-1.271210e-004
3.543751e-004,-1.024870e-004
3.765781e-004,-6.521203e-005
3.783608e-004,-2.469570e-005
3.791711e-004,8.851824e-006
4.052637e-004,2.748933e-005
4.793275e-004,2.894792e-005
6.068730e-004,1.257933e-005
7.595387e-004,-2.031993e-005
8.898393e-004,-6.472583e-005
9.608240e-004,-1.107524e-004
9.668203e-004,-1.499722e-004
9.405658e-004,-1.726613e-004
9.248454e-004,-1.744440e-004
9.311660e-004,-1.588858e-004
9.444553e-004,-1.311726e-004
9.429968e-004,-9.632856e-005
9.185249e-004,-6.164659e-005
8.741189e-004,-3.069211e-005
8.310095e-004,-3.465141e-006
8.289026e-004,2.019640e-005
8.950254e-004,3.850977e-005
1.018519e-003,5.487837e-005
1.159516e-003,7.059870e-005
1.266156e-003,8.259154e-005
1.295976e-003,9.296372e-005
1.237470e-003,1.057669e-004
1.102469e-003,1.206769e-004
9.115561e-004,1.354248e-004
6.989262e-004,1.443384e-004
5.089855e-004,1.438522e-004
3.913260e-004,1.352628e-004
3.702575e-004,1.237561e-004
4.253598e-004,1.150046e-004
5.097958e-004,1.135460e-004
5.747841e-004,1.226217e-004
5.723531e-004,1.383420e-004
4.600418e-004,1.522796e-004
2.329882e-004,1.592484e-004
-6.180866e-005,1.576278e-004
-3.713534e-004,1.532520e-004
-6.619364e-004,1.550348e-004
-9.210788e-004,1.652449e-004
-1.137436e-003,1.775618e-004
-1.288643e-003,1.863134e-004
-1.356710e-003,1.949028e-004
-1.340990e-003,2.091646e-004
-1.254285e-003,2.290986e-004
-1.112316e-003,2.415776e-004
-9.355026e-004,2.370398e-004
-7.479931e-004,2.098128e-004
-5.792831e-004,1.636242e-004
-4.462275e-004,1.015532e-004
-3.488263e-004,3.445814e-005
-2.793003e-004,-3.020592e-005
-2.264670e-004,-8.595638e-005
-1.814128e-004,-1.267968e-004
-1.340898e-004,-1.485136e-004
-6.796713e-005,-1.499722e-004
2.327564e-005,-1.350622e-004
1.336421e-004,-1.115627e-004
2.480603e-004,-8.595638e-005
3.474063e-004,-6.634648e-005
4.251977e-004,-5.613637e-005
4.888894e-004,-5.386745e-005
5.386435e-004,-4.576419e-005
5.564707e-004,-2.469570e-005
5.106062e-004,4.962256e-006
3.887330e-004,3.380988e-005
1.845306e-004,5.471631e-005
-1.062145e-004,6.589881e-005
-4.809095e-004,6.751947e-005
-9.366371e-004,6.249544e-005
-1.425588e-003,5.358185e-005
-1.843230e-003,4.742337e-005
-2.084060e-003,4.742337e-005
-2.095567e-003,5.552663e-005
-1.893957e-003,7.319175e-005
-1.551351e-003,9.766362e-005
-1.160449e-003,1.211631e-004
-7.988816e-004,1.359110e-004
-5.100812e-004,1.378558e-004
-3.154408e-004,1.320215e-004
-2.167431e-004,1.234320e-004
-2.083157e-004,1.132219e-004
-2.747625e-004,9.814982e-005
-3.852910e-004,7.935023e-005
-5.031124e-004,5.990240e-005
-5.875484e-004,3.867184e-005
-6.053756e-004,1.355172e-005
-5.377944e-004,-1.707863e-005
-3.927460e-004,-5.824321e-005
-2.041020e-004,-1.079973e-004
-1.691656e-005,-1.577513e-004
1.360731e-004,-2.037778e-004
2.521119e-004,-2.420253e-004
3.294171e-004,-2.686040e-004
3.571302e-004,-2.912931e-004
3.323342e-004,-3.138202e-004
2.934386e-004,-3.327818e-004
3.260137e-004,-3.397506e-004
5.072028e-004,-3.293785e-004
8.527263e-004,-3.008549e-004
1.309427e-003,-2.564491e-004
1.772773e-003,-1.990780e-004
2.128994e-003,-1.420310e-004
2.280039e-003,-9.875954e-005
2.169348e-003,-7.412562e-005
1.831116e-003,-6.213279e-005
1.409259e-003,-5.483985e-005
1.079456e-003,-4.787104e-005
9.298695e-004,-3.960571e-005
8.909737e-004,-2.793700e-005
7.979481e-004,-1.367526e-005
5.295678e-004,-2.238345e-007
1.039842e-004,9.500084e-006
-3.559572e-004,1.468617e-005
-7.189834e-004,1.436204e-005
-9.137859e-004,1.290346e-005
-9.418231e-004,2.149292e-005
-8.580354e-004,5.244739e-005
-7.350278e-004,1.166253e-004
-6.288751e-004,2.128921e-004
-5.598352e-004,3.247172e-004
-5.149432e-004,4.201737e-004
-4.663236e-004,4.747897e-004
-3.927460e-004,4.794896e-004
-2.880518e-004,4.380009e-004
-1.660166e-004,3.658818e-004
-5.435365e-005,2.799871e-004
2.408596e-005,1.979821e-004
6.670914e-005,1.362352e-004
7.643306e-005,1.007429e-004
5.730935e-005,8.340186e-005
1.808955e-005,6.930219e-005
-3.036798e-005,5.260946e-005
-7.282909e-005,3.607880e-005
-9.486997e-005,2.149292e-005
-9.195280e-005,8.041497e-006
-6.715681e-005,-3.141010e-006
-3.474375e-005,-1.221667e-005
-2.330684e-006,-1.950961e-005
3.170303e-005,-2.534396e-005
7.546067e-005,-3.425755e-005
1.269974e-004,-4.851930e-005
1.814514e-004,-6.861539e-005
2.328261e-004,-8.676671e-005
2.788527e-004,-9.568031e-005
3.213138e-004,-9.098041e-005
3.623164e-004,-7.688072e-005
4.104497e-004,-6.796713e-005
4.712243e-004,-7.526008e-005
5.401021e-004,-9.875954e-005
6.080074e-004,-1.282554e-004
6.676475e-004,-1.475412e-004
7.052467e-004,-1.470550e-004
7.092984e-004,-1.269589e-004
6.736440e-004,-9.811128e-005
6.000663e-004,-7.509801e-005
5.039615e-004,-6.164659e-005
4.183909e-004,-5.597430e-005
3.885709e-004,-5.483985e-005
4.394594e-004,-5.889147e-005
5.566327e-004,-6.586029e-005
6.822334e-004,-7.023605e-005
7.470596e-004,-6.699474e-005
7.146465e-004,-5.419158e-005
5.929354e-004,-3.069211e-005
4.198496e-004,1.883015e-006
2.477361e-004,3.575467e-005
1.341283e-004,6.703327e-005
1.085220e-004,9.409818e-005
1.445005e-004,1.161391e-004
1.731861e-004,1.344524e-004
1.231079e-004,1.464453e-004
-5.176060e-005,1.509831e-004
-3.536882e-004,1.529279e-004
-7.410243e-004,1.540623e-004
-1.154939e-003,1.547106e-004
-1.543247e-003,1.526038e-004
-1.869161e-003,1.466074e-004
-2.109828e-003,1.349386e-004
-2.249529e-003,1.197045e-004
-2.284859e-003,1.096565e-004
-2.226840e-003,1.109530e-004
-2.085680e-003,1.193804e-004
-1.858465e-003,1.318594e-004
-1.541951e-003,1.495245e-004
-1.137922e-003,1.696206e-004
-6.753878e-004,1.845306e-004
-2.130156e-004,1.902029e-004
1.772377e-004,1.861513e-004
4.371905e-004,1.730240e-004
5.496639e-004,1.527658e-004
5.341056e-004,1.318594e-004
4.354078e-004,1.145184e-004
3.070520e-004,1.028497e-004
1.835582e-004,9.604297e-005
7.918817e-005,8.891209e-005
2.369210e-006,7.691926e-005
-3.344722e-005,6.346784e-005
-1.707863e-005,5.730935e-005
4.742337e-005,6.330577e-005
1.482280e-004,7.691926e-005
2.642668e-004,8.891209e-005
3.692851e-004,9.231547e-005
4.402698e-004,9.231547e-005
4.645796e-004,9.652916e-005
4.469145e-004,1.083599e-004
3.919743e-004,1.276457e-004
3.089968e-004,1.496866e-004
2.177540e-004,1.709171e-004
1.492004e-004,1.858272e-004
1.138701e-004,1.963614e-004
1.017153e-004,2.031682e-004
9.490851e-005,2.017096e-004
8.550872e-005,1.934442e-004
7.772959e-005,1.827479e-004
8.388807e-005,1.739964e-004
1.127357e-004,1.681620e-004
1.684862e-004,1.592484e-004
2.545429e-004,1.399627e-004
3.665300e-004,1.145184e-004
4.926169e-004,9.101894e-005
6.159487e-004,7.481241e-005
7.240463e-004,6.444023e-005
8.039446e-004,5.552663e-005
8.457575e-004,4.158902e-005
8.452713e-004,1.825161e-005
8.057273e-004,-1.626830e-005
7.324737e-004,-6.067420e-005
6.245381e-004,-1.078352e-004
4.704139e-004,-1.548341e-004
2.744769e-004,-1.994021e-004
8.080882e-005,-2.392702e-004
-4.317114e-005,-2.736280e-004
-3.733679e-005,-2.974516e-004
1.090082e-004,-3.045825e-004
3.430306e-004,-2.971275e-004
5.739737e-004,-2.786520e-004
7.169154e-004,-2.489941e-004
7.298806e-004,-2.118811e-004
6.344241e-004,-1.802784e-004
4.906721e-004,-1.619650e-004
3.571302e-004,-1.574272e-004
2.595669e-004,-1.681235e-004
1.983062e-004,-1.976194e-004
1.616794e-004,-2.447804e-004
1.323456e-004,-3.032860e-004
1.025256e-004,-3.600088e-004
7.497447e-005,-3.958252e-004
5.131293e-005,-3.956631e-004
2.927205e-005,-3.585502e-004
1.047248e-005,-2.945344e-004
-2.492749e-006,-2.143121e-004
-3.789271e-006,-1.323070e-004
1.112074e-005,-6.504996e-005
4.142695e-005,-1.918548e-005
8.129502e-005,7.879431e-006
1.338042e-004,2.181705e-005
2.052750e-004,2.619281e-005
2.895490e-004,2.635488e-005
3.704196e-004,2.538249e-005
4.394594e-004,2.246531e-005
4.984512e-004,1.355172e-005
5.585775e-004,-5.571990e-006
6.263208e-004,-2.728874e-005
6.882299e-004,-3.928157e-005
7.305289e-004,-3.944364e-005
7.504629e-004,-3.863331e-005
7.426838e-004,-5.143647e-005
6.879057e-004,-8.628051e-005
5.634395e-004,-1.324691e-004
3.615060e-004,-1.583996e-004
1.163011e-004,-1.361966e-004
-1.097800e-004,-5.840528e-005
-2.859450e-004,5.893001e-005
-4.343967e-004,1.923098e-004
-6.144513e-004,3.174242e-004
-8.714868e-004,4.167703e-004
-1.195293e-003,4.815964e-004
-1.517155e-003,5.093096e-004
-1.742750e-003,5.078511e-004
-1.824917e-003,4.903480e-004
-1.794449e-003,4.657140e-004
-1.729947e-003,4.362181e-004
-1.701585e-003,4.033188e-004
-1.723626e-003,3.676645e-004
-1.749395e-003,3.362238e-004
-1.701261e-003,3.161277e-004
-1.514076e-003,3.081865e-004
-1.166284e-003,3.089968e-004
-6.891634e-004,3.153174e-004
-1.489998e-004,3.214759e-004
3.686369e-004,3.324963e-004
7.840105e-004,3.553475e-004
1.041046e-003,3.872744e-004
1.122403e-003,4.159599e-004
1.047367e-003,4.256839e-004
8.666639e-004,4.146634e-004
6.396102e-004,3.830607e-004
4.203357e-004,3.266619e-004
2.477361e-004,2.423880e-004
1.376937e-004,1.333180e-004
9.004655e-005,4.151929e-006
9.393611e-005,-1.327932e-004
1.287802e-004,-2.605007e-004
1.568175e-004,-3.507711e-004
1.360731e-004,-3.776739e-004
5.649903e-005,-3.366714e-004
-6.715681e-005,-2.509389e-004
-2.235498e-004,-1.567789e-004
-4.074939e-004,-8.725291e-005
-6.321164e-004,-6.796713e-005
-8.953104e-004,-1.028112e-004
-1.142298e-003,-1.749302e-004
-1.290426e-003,-2.558008e-004
-1.273247e-003,-3.199787e-004
-1.055107e-003,-3.522297e-004
-6.650157e-004,-3.535262e-004
-2.097743e-004,-3.386162e-004
1.657311e-004,-3.238682e-004
3.444891e-004,-3.225717e-004
3.172621e-004,-3.345645e-004
1.759412e-004,-3.494745e-004
4.353380e-005,-3.554710e-004
9.106226e-007,-3.486642e-004
6.281957e-005,-3.295405e-004
2.055991e-004,-2.989102e-004
3.837089e-004,-2.605007e-004
5.420469e-004,-2.170672e-004
6.443101e-004,-1.780095e-004
6.741302e-004,-1.472171e-004
6.253485e-004,-1.233935e-004
5.036373e-004,-9.746302e-005
3.435167e-004,-6.083626e-005
1.978200e-004,-1.173047e-005
1.081979e-004,4.369587e-005
8.080882e-005,9.328785e-005
9.296372e-005,1.210010e-004
1.150046e-004,1.203528e-004
1.171115e-004,9.134307e-005
9.101894e-005,4.547859e-005
4.758544e-005,7.485573e-007
1.079661e-005,-2.291298e-005
2.855406e-006,-1.610623e-005
3.235129e-005,2.311357e-005
8.923622e-005,8.599491e-005
1.487142e-004,1.548727e-004
1.981441e-004,2.143507e-004
2.726942e-004,2.600531e-004
4.485351e-004,2.936006e-004
7.848209e-004,3.154794e-004
1.291276e-003,3.268240e-004
1.953476e-003,3.268240e-004
2.660408e-003,3.088348e-004
3.161355e-003,2.725321e-004
3.167676e-003,2.282883e-004
2.532052e-003,1.853410e-004
1.399860e-003,1.513072e-004
1.412592e-004,1.300767e-004
-8.261085e-004,1.182459e-004
-1.309225e-003,1.098185e-004
-1.382479e-003,1.039842e-004
-1.246506e-003,9.912220e-005
-1.098216e-003,9.507057e-005
-1.047004e-003,9.296372e-005
-1.097244e-003,9.361198e-005
-1.186704e-003,9.798775e-005
-1.240185e-003,1.017153e-004
-1.202100e-003,9.944633e-005
-1.054459e-003,8.988448e-005
-8.259465e-004,7.675719e-005
-5.865761e-004,6.995045e-005
-4.167317e-004,7.270556e-005
-3.538503e-004,7.886404e-005
-3.823738e-004,7.870197e-005
-4.528722e-004,6.865393e-005
-5.070020e-004,5.179913e-005
-4.982505e-004,3.397195e-005
-4.115455e-004,1.857574e-005
-2.647144e-004,9.500084e-006
-8.563225e-005,1.193106e-005
6.492643e-005,2.684107e-005
9.604297e-005,5.358185e-005
-5.872941e-005,8.777764e-005
-3.950149e-004,1.201907e-004
-8.154122e-004,1.398006e-004
-1.169849e-003,1.427178e-004
-1.329808e-003,1.362352e-004
-1.244075e-003,1.231079e-004
-9.358267e-004,1.043083e-004
-4.927402e-004,8.113296e-005
-2.745081e-005,5.795762e-005
3.679886e-004,4.418206e-005
6.514410e-004,3.753739e-005
8.206373e-004,3.721326e-005
9.058837e-004,4.288554e-005
9.407278e-004,5.633696e-005
9.454277e-004,7.059870e-005
9.337590e-004,7.286762e-005
9.141491e-004,5.730935e-005
8.836808e-004,2.716520e-005
8.332784e-004,-1.254080e-005
7.488423e-004,-5.516398e-005
6.182176e-004,-8.903562e-005
4.423766e-004,-1.070249e-004
2.394708e-004,-1.084835e-004
4.969228e-005,-9.892161e-005
-6.667061e-005,-7.995997e-005
-6.197072e-005,-5.095028e-005
6.362990e-005,-1.529591e-005
2.610255e-004,1.225519e-005
4.663623e-004,2.133085e-005
6.391240e-004,3.503668e-006
7.540284e-004,-4.106429e-005
7.942206e-004,-1.016767e-004
7.627800e-004,-1.606685e-004
6.880678e-004,-2.023193e-004
5.940698e-004,-2.162569e-004
4.846757e-004,-2.003745e-004
3.516200e-004,-1.634236e-004
2.023578e-004,-1.186936e-004
7.173317e-005,-7.833932e-005
9.500084e-006,-4.689864e-005
3.932010e-005,-2.275091e-005
1.357490e-004,-3.465141e-006
2.394708e-004,1.322759e-005
3.046211e-004,2.781346e-005
3.175863e-004,4.029249e-005
2.999211e-004,4.758544e-005
2.923041e-004,4.953022e-005
3.237448e-004,4.693717e-005
3.937570e-004,3.996836e-005
4.765724e-004,2.813760e-005
5.379952e-004,1.873781e-005
5.462606e-004,1.760335e-005
4.849998e-004,2.311357e-005
3.527545e-004,3.154097e-005
1.642725e-004,4.110282e-005
-5.354332e-005,4.839576e-005
-2.673074e-004,5.001641e-005
-4.509274e-004,4.920609e-005
-5.951655e-004,5.293359e-005
-7.097456e-004,6.427816e-005
-8.147639e-004,8.291567e-005
-9.178375e-004,1.038221e-004
-1.002273e-003,1.190562e-004
-1.042790e-003,1.268354e-004
-1.009891e-003,1.312111e-004
-8.818590e-004,1.342904e-004
-6.692293e-004,1.372075e-004
-4.318037e-004,1.393144e-004
-2.447804e-004,1.349386e-004
-1.579134e-004,1.234320e-004
-1.645580e-004,1.107909e-004
-2.130156e-004,9.750155e-005
-2.441321e-004,8.016056e-005
-2.190120e-004,5.909207e-005
-1.321450e-004,3.786152e-005
-2.330684e-006,1.889987e-005
1.331559e-004,7.485573e-007
2.313675e-004,-1.805102e-005
2.688046e-004,-3.555407e-005
2.598910e-004,-5.386745e-005
2.402811e-004,-7.153257e-005
2.412535e-004,-8.141856e-005
2.649151e-004,-7.607040e-005
2.893869e-004,-5.370539e-005
2.866318e-004,-2.971972e-005
2.483844e-004,-2.210265e-005
1.936063e-004,-3.944364e-005
1.479039e-004,-7.363942e-005
1.363972e-004,-1.112386e-004
1.767515e-004,-1.436516e-004
2.751252e-004,-1.637477e-004
4.281149e-004,-1.658546e-004
6.021731e-004,-1.522411e-004
7.402528e-004,-1.306864e-004
7.974620e-004,-1.060525e-004
7.712073e-004,-7.477388e-005
7.010330e-004,-3.247483e-005
6.498203e-004,1.484824e-005
6.622994e-004,5.487837e-005
7.279359e-004,7.789165e-005
8.240407e-004,8.161915e-005
9.441312e-004,7.043664e-005
1.085290e-003,5.196120e-005
1.217050e-003,3.332369e-005
1.299703e-003,1.808955e-005
1.317044e-003,5.772582e-006
1.254487e-003,-7.840905e-006
1.073297e-003,-2.420950e-005
7.316634e-004,-3.895744e-005
2.031682e-004,-4.706071e-005
-5.018159e-004,-4.414354e-005
-1.294477e-003,-3.182657e-005
-2.016641e-003,-1.092015e-005
-2.490358e-003,1.711715e-005
-2.614986e-003,4.726130e-005
-2.432176e-003,7.351588e-005
-2.112745e-003,9.263960e-005
-1.853927e-003,1.056048e-004
-1.769977e-003,1.210010e-004
-1.856682e-003,1.454729e-004
-2.036088e-003,1.770756e-004
-2.207716e-003,2.081922e-004
-2.303821e-003,2.295848e-004
-2.302848e-003,2.407673e-004
-2.214847e-003,2.466016e-004
-2.063153e-003,2.534084e-004
-1.871592e-003,2.631323e-004
-1.655073e-003,2.728562e-004
-1.411812e-003,2.760976e-004
-1.141164e-003,2.660495e-004
-8.617629e-004,2.404432e-004
-6.000275e-004,1.973338e-004
-3.707051e-004,1.328318e-004
-1.827094e-004,5.179913e-005
-3.620233e-005,-3.069211e-005
7.918817e-005,-1.007043e-004
1.825858e-004,-1.504584e-004
2.927903e-004,-1.771991e-004
4.157979e-004,-1.856265e-004
5.394538e-004,-1.804405e-004
6.483617e-004,-1.679614e-004
7.311772e-004,-1.488377e-004
7.866035e-004,-1.211245e-004
8.206373e-004,-9.114247e-005
8.392748e-004,-6.359137e-005
8.499712e-004,-3.587821e-005
8.637467e-004,-8.165034e-006
8.833566e-004,1.825161e-005
9.139871e-004,4.466826e-005
9.637411e-004,7.238143e-005
1.035698e-003,9.555677e-005
1.127427e-003,1.064151e-004
1.228556e-003,1.025256e-004
1.323203e-003,8.826383e-005
1.404235e-003,6.832980e-005
1.471331e-003,4.564065e-005
1.513630e-003,2.295151e-005
1.513954e-003,1.883015e-006
1.459500e-003,-1.869928e-005
1.354157e-003,-3.960571e-005
1.213484e-003,-5.548810e-005
1.054984e-003,-6.164659e-005
9.019942e-004,-5.370539e-005
7.857932e-004,-3.215070e-005
7.282600e-004,-5.571990e-006
7.222636e-004,1.987226e-005
7.178878e-004,4.175108e-005
6.464170e-004,5.893001e-005
4.673347e-004,6.735740e-005
1.978200e-004,5.811968e-005
-9.875954e-005,2.603075e-005
-3.548227e-004,-2.631635e-005
-5.332566e-004,-8.417366e-005
-6.167202e-004,-1.311726e-004
-5.941931e-004,-1.553203e-004
-4.702132e-004,-1.566169e-004
-2.710350e-004,-1.347380e-004
-3.749886e-005,-9.632856e-005
1.819376e-004,-4.900549e-005
3.357376e-004,-5.479652e-007
3.986190e-004,4.126489e-005
3.846813e-004,6.962632e-005
3.381686e-004,8.340186e-005
2.984626e-004,8.405013e-005
2.864697e-004,8.242948e-005
2.986246e-004,9.328785e-005
3.227724e-004,1.266733e-004
3.487029e-004,1.704310e-004
3.725264e-004,2.091646e-004
3.900295e-004,2.297469e-004
4.041292e-004,2.295848e-004
4.193634e-004,2.125679e-004
4.396215e-004,1.830720e-004
4.590693e-004,1.432040e-004
4.700898e-004,9.490851e-005
4.720346e-004,4.985435e-005
4.657140e-004,1.419998e-005
4.461041e-004,-5.734055e-006
4.041292e-004,-1.075808e-005
3.341170e-004,-6.058186e-006
2.381743e-004,1.720949e-006
1.286181e-004,1.209313e-005
2.992031e-005,2.910999e-005
-4.219875e-005,5.487837e-005
-8.984595e-005,8.712937e-005
-1.246900e-004,1.137081e-004
-1.616409e-004,1.263492e-004
-2.115570e-004,1.213252e-004
-2.744383e-004,1.044704e-004
-3.303509e-004,7.918817e-005
-3.624398e-004,4.677511e-005
-3.710292e-004,6.907039e-006
-3.723257e-004,-3.604027e-005
-3.805911e-004,-7.704279e-005
-3.737843e-004,-1.167488e-004
-2.901587e-004,-1.592099e-004
-6.180866e-005,-2.026434e-004
3.260137e-004,-2.350565e-004
7.841726e-004,-2.504527e-004
1.130831e-003,-2.509389e-004
1.206029e-003,-2.357047e-004
9.604998e-004,-2.008607e-004
3.992672e-004,-1.475412e-004
-4.389346e-004,-8.465986e-005
-1.466753e-003,-1.480971e-005
-2.493761e-003,5.957827e-005
-3.245098e-003,1.347766e-004
-3.482362e-003,2.025199e-004
-3.099887e-003,2.500050e-004
-2.166713e-003,2.730183e-004
-8.685696e-004,2.688046e-004
5.725151e-004,2.370398e-004
1.851051e-003,1.876099e-004
2.686177e-003,1.385041e-004
2.847595e-003,1.028497e-004
2.226395e-003,8.405013e-005
9.733030e-004,7.935023e-005
-5.215878e-004,8.712937e-005
-1.752312e-003,1.124116e-004
-2.444655e-003,1.527658e-004
-2.562153e-003,1.957131e-004
-2.250015e-003,2.299089e-004
-1.736591e-003,2.451431e-004
-1.223493e-003,2.383363e-004
-8.252982e-004,2.065715e-004
-5.666420e-004,1.513072e-004
-4.191626e-004,8.242948e-005
-3.400748e-004,1.112074e-005
-2.932379e-004,-5.192267e-005
-2.536940e-004,-9.713889e-005
-2.100984e-004,-1.186936e-004
-1.609926e-004,-1.199901e-004
-1.068628e-004,-1.097800e-004
-5.386745e-005,-9.859748e-005
-8.651231e-006,-9.179074e-005
1.338965e-005,-8.692878e-005
-8.720958e-007,-8.125648e-005
-5.500191e-005,-7.412562e-005
-1.353863e-004,-6.926366e-005
-1.959987e-004,-7.315322e-005
-1.609926e-004,-1.015147e-004
2.522042e-005,-1.726613e-004
3.464339e-004,-2.820554e-004
7.224256e-004,-3.979321e-004
1.045098e-003,-4.809095e-004
1.236173e-003,-5.000332e-004
1.264859e-003,-4.369898e-004
1.150603e-003,-2.953447e-004
9.452656e-004,-1.047560e-004
7.000606e-004,8.437427e-005
4.532350e-004,2.237504e-004
2.218057e-004,2.916558e-004
1.436204e-005,2.897111e-004
-1.525652e-004,2.414156e-004
-2.629317e-004,1.798307e-004
-3.167374e-004,1.265113e-004
-3.258130e-004,8.810177e-005
-3.031239e-004,6.233338e-005
-2.512630e-004,4.904402e-005
-1.694200e-004,4.855782e-005
-6.229485e-005,5.471631e-005
6.492643e-005,6.379197e-005
2.078680e-004,7.643306e-005
3.542131e-004,1.013911e-004
4.884032e-004,1.355869e-004
5.871010e-004,1.702689e-004
6.349103e-004,1.983062e-004
6.318311e-004,2.188885e-004
5.843459e-004,2.362295e-004
5.015305e-004,2.532463e-004
3.919743e-004,2.644288e-004
2.647530e-004,2.663736e-004
1.493625e-004,2.566497e-004
7.951231e-005,2.397949e-004
7.448828e-005,2.179161e-004
1.247285e-004,1.921477e-004
1.897167e-004,1.650828e-004
2.209953e-004,1.352628e-004
1.820997e-004,1.004187e-004
7.432621e-005,6.670914e-005
-6.504996e-005,4.094075e-005
-1.900023e-004,2.619281e-005
-2.596904e-004,2.262737e-005
-2.648765e-004,3.073064e-005
-2.227395e-004,4.742337e-005
-1.666649e-004,7.302969e-005
-1.292278e-004,9.896014e-005
-1.250141e-004,1.167873e-004
-1.533756e-004,1.244044e-004
-1.985918e-004,1.247285e-004
-2.334358e-004,1.193804e-004
-2.386219e-004,1.078737e-004
-2.065330e-004,9.037068e-005
-1.374931e-004,6.687120e-005
-3.976777e-005,3.996836e-005
7.627100e-005,8.203561e-006
1.845306e-004,-2.356124e-005
2.443327e-004,-4.835723e-005
2.354192e-004,-6.278104e-005
1.944166e-004,-6.958779e-005
2.094887e-004,-7.850138e-005
3.326584e-004,-9.503204e-005
5.221128e-004,-1.196660e-004
6.592201e-004,-1.493239e-004
6.363689e-004,-1.791439e-004
4.409180e-004,-2.028055e-004
1.558451e-004,-2.146362e-004
-9.908367e-005,-2.081536e-004
-2.347323e-004,-1.851403e-004
-2.240360e-004,-1.506204e-004
-1.011905e-004,-1.107524e-004
6.670914e-005,-7.509801e-005
2.115955e-004,-5.532604e-005
2.880904e-004,-6.018800e-005
2.833905e-004,-8.514606e-005
2.109473e-004,-1.159385e-004
1.034980e-004,-1.387897e-004
1.720949e-006,-1.457585e-004
-5.986387e-005,-1.407345e-004
-6.472583e-005,-1.313347e-004
-1.724069e-005,-1.206384e-004
7.189524e-005,-1.131834e-004
1.848548e-004,-1.109144e-004
2.984626e-004,-1.136696e-004
3.903536e-004,-1.173971e-004
4.524247e-004,-1.170729e-004
4.871067e-004,-1.089697e-004
5.133613e-004,-9.470791e-005
5.486915e-004,-7.914964e-005
5.827252e-004,-6.731887e-005
5.798081e-004,-6.521203e-005
5.089855e-004,-7.363942e-005
3.660438e-004,-8.190475e-005
1.564933e-004,-7.574627e-005
-1.128592e-004,-4.851930e-005
-4.444448e-004,-2.492749e-006
-8.322670e-004,5.325772e-005
-1.228841e-003,1.077117e-004
-1.550378e-003,1.543865e-004
-1.726381e-003,1.895547e-004
-1.735133e-003,2.111093e-004
-1.603050e-003,2.205091e-004
-1.363355e-003,2.213195e-004
-1.031445e-003,2.200230e-004
-6.125065e-004,2.222919e-004
-1.225831e-004,2.276400e-004
3.837089e-004,2.347709e-004
8.258234e-004,2.451431e-004
1.150116e-003,2.621599e-004
1.350592e-003,2.786906e-004
1.455772e-003,2.858215e-004
1.503582e-003,2.773941e-004
1.533564e-003,2.540566e-004
1.566139e-003,2.216436e-004
1.598390e-003,1.843686e-004
1.606007e-003,1.445005e-004
1.561763e-003,1.046324e-004
1.451072e-003,6.670914e-005
1.267452e-003,3.462021e-005
1.036022e-003,1.598270e-005
7.926000e-004,1.468617e-005
5.590637e-004,2.797553e-005
3.230965e-004,5.082674e-005
5.455424e-005,7.497447e-005
-2.558008e-004,9.782569e-005
-5.812279e-004,1.164632e-004
-8.789418e-004,1.313732e-004
-1.106481e-003,1.391524e-004
-1.232406e-003,1.310491e-004
-1.259795e-003,1.025256e-004
-1.229813e-003,5.828174e-005
-1.192214e-003,8.203561e-006
-1.171470e-003,-3.863331e-005
-1.159477e-003,-7.461181e-005
-1.127550e-003,-9.632856e-005
-1.054783e-003,-1.062145e-004
-9.478196e-004,-1.031353e-004
-8.338877e-004,-8.838737e-005
-7.441035e-004,-6.294311e-005
-7.089353e-004,-3.377135e-005
-7.397278e-004,-1.059601e-005
-8.209224e-004,-5.409925e-006
-9.074653e-004,-2.015787e-005
-9.359888e-004,-4.819516e-005
-8.781315e-004,-7.558420e-005
-7.575550e-004,-9.665269e-005
-6.232028e-004,-1.118868e-004
-5.076503e-004,-1.285796e-004
-3.945287e-004,-1.504584e-004
-2.263049e-004,-1.721751e-004
4.677511e-005,-1.966470e-004
4.104497e-004,-2.358668e-004
7.734763e-004,-2.942103e-004
1.034077e-003,-3.598467e-004
1.135369e-003,-4.011734e-004
1.076215e-003,-3.799428e-004
9.251695e-004,-2.836761e-004
8.031343e-004,-1.306864e-004
8.031343e-004,4.013043e-005
9.235489e-004,1.872858e-004
1.068111e-003,2.830664e-004
1.122403e-003,3.239068e-004
1.042829e-003,3.216379e-004
8.682846e-004,2.908455e-004
6.760749e-004,2.453051e-004
5.200059e-004,1.963614e-004
3.997534e-004,1.539003e-004
2.775562e-004,1.239182e-004
1.174356e-004,1.103047e-004
-8.044616e-005,1.161391e-004
-2.887001e-004,1.394765e-004
-4.805854e-004,1.723757e-004
-6.385990e-004,2.031682e-004
-7.496137e-004,2.221298e-004
-7.893197e-004,2.295848e-004
-7.345417e-004,2.276400e-004
-5.718281e-004,2.156472e-004
-3.070135e-004,1.937684e-004
3.429608e-005,1.579519e-004
4.025085e-004,1.091703e-004
7.326358e-004,5.633696e-005
9.630928e-004,1.387585e-005
1.045908e-003,-8.813297e-006
9.601757e-004,-1.156841e-005
7.292324e-004,-1.196226e-006
4.153117e-004,1.063454e-005
9.620503e-005,1.436204e-005
-1.671511e-004,2.369210e-006
-3.634122e-004,-2.712668e-005
-5.295291e-004,-7.396355e-005
-7.616066e-004,-1.337657e-004
-1.177790e-003,-2.023193e-004
-1.796880e-003,-2.713591e-004
-2.472531e-003,-3.321336e-004
-2.938956e-003,-3.723257e-004
-2.960834e-003,-3.757291e-004
-2.484848e-003,-3.402368e-004
-1.671765e-003,-2.794623e-004
-8.061745e-004,-2.088019e-004
-1.666649e-004,-1.465688e-004
1.177597e-004,-1.084835e-004
1.022014e-004,-9.908367e-005
-5.775702e-005,-1.128592e-004
-1.984297e-004,-1.365208e-004
-2.183637e-004,-1.549962e-004
-1.089697e-004,-1.558065e-004
7.448828e-005,-1.368449e-004
2.707494e-004,-1.034594e-004
4.456179e-004,-5.986387e-005
5.888838e-004,-1.529591e-005
7.011950e-004,2.019640e-005
7.815795e-004,4.337174e-005
8.298751e-004,5.811968e-005
8.532125e-004,7.140904e-005
8.580744e-004,8.648111e-005
8.478643e-004,1.103047e-004
8.285785e-004,1.443384e-004
8.024860e-004,1.820997e-004
7.744486e-004,2.130541e-004
7.483561e-004,2.323399e-004
7.248566e-004,2.350950e-004
7.076777e-004,2.237504e-004
7.002227e-004,2.120818e-004
6.953607e-004,2.088404e-004
6.786680e-004,2.140265e-004
6.375034e-004,2.221298e-004
5.728393e-004,2.279641e-004
5.012063e-004,2.310434e-004
4.427008e-004,2.331502e-004
4.081808e-004,2.321778e-004
3.932708e-004,2.256952e-004
3.900295e-004,2.151610e-004
3.905157e-004,2.055991e-004
3.910019e-004,1.968476e-004
3.872744e-004,1.850168e-004
3.775505e-004,1.704310e-004
3.626405e-004,1.566554e-004
3.370341e-004,1.456350e-004
3.044590e-004,1.402868e-004
2.736665e-004,1.410971e-004
2.561635e-004,1.464453e-004
2.561635e-004,1.517934e-004
2.654012e-004,1.511452e-004
2.731804e-004,1.386661e-004
2.702632e-004,1.216493e-004
2.538946e-004,1.077117e-004
2.255332e-004,9.847395e-005
1.919856e-004,9.328785e-005
1.584381e-004,8.826383e-005
1.237561e-004,8.259154e-005
7.837785e-005,7.286762e-005
1.857574e-005,6.330577e-005
-4.625038e-005,5.714729e-005
-9.875954e-005,5.325772e-005
-1.232314e-004,4.774750e-005
-1.097800e-004,3.980630e-005
-6.472583e-005,2.829966e-005
-4.113402e-006,1.128280e-005
5.504044e-005,-5.085794e-006
9.652916e-005,-1.237873e-005
1.140322e-004,-1.124428e-005
1.107909e-004,-3.627206e-006
8.858796e-005,7.879431e-006
5.212327e-005,2.068259e-005
2.045080e-006,3.543053e-005
-5.840528e-005,5.260946e-005
-1.208004e-004,7.108490e-005
-1.707165e-004,8.323980e-005
-1.833576e-004,8.631904e-005
-1.177212e-004,8.518459e-005
5.860587e-005,8.712937e-005
3.350894e-004,9.523264e-005
6.559788e-004,1.081979e-004
9.480208e-004,1.195424e-004
1.155141e-003,1.295905e-004
1.250759e-003,1.389903e-004
1.234066e-003,1.511452e-004
1.123052e-003,1.613553e-004
9.382968e-004,1.642725e-004
7.050846e-004,1.487142e-004
4.731690e-004,1.101426e-004
3.018659e-004,5.925414e-005
2.107852e-004,1.290346e-005
1.586002e-004,-1.983374e-005
7.610893e-005,-4.090223e-005
-8.206682e-005,-5.224680e-005
-3.049066e-004,-6.440169e-005
-5.337428e-004,-8.222889e-005
-7.074767e-004,-1.021629e-004
-7.985575e-004,-1.211245e-004
-8.308084e-004,-1.400862e-004
-8.557665e-004,-1.611547e-004
-9.108687e-004,-1.822232e-004
-9.935220e-004,-2.010227e-004
-1.069368e-003,-2.154466e-004
-1.112640e-003,-2.288980e-004
-1.128847e-003,-2.374874e-004
-1.145053e-003,-2.342461e-004
-1.182976e-003,-2.178775e-004
-1.237592e-003,-1.969711e-004
-1.280864e-003,-1.854645e-004
-1.281512e-003,-1.916230e-004
-1.228679e-003,-2.173913e-004
-1.130953e-003,-2.528836e-004
-1.001625e-003,-2.841623e-004
-8.509045e-004,-3.031239e-004
-6.818704e-004,-3.049066e-004
-5.001953e-004,-2.903207e-004
-3.365093e-004,-2.661730e-004
-2.319772e-004,-2.394322e-004
-2.141500e-004,-2.117190e-004
-2.736280e-004,-1.865989e-004
-3.697327e-004,-1.619650e-004
-4.408794e-004,-1.353863e-004
-4.449310e-004,-1.042698e-004
-3.877220e-004,-7.218083e-005
-3.233821e-004,-4.187462e-005
-3.073376e-004,-8.489165e-006
-3.681121e-004,3.154097e-005
-4.838267e-004,7.270556e-005
-6.019723e-004,1.077117e-004
-6.800877e-004,1.316973e-004
-7.094215e-004,1.482280e-004
-7.011562e-004,1.642725e-004
-6.515642e-004,1.822617e-004
-5.138087e-004,2.020337e-004
-2.034537e-004,2.200230e-004
3.440029e-004,2.318537e-004
1.136503e-003,2.310434e-004
2.072757e-003,2.177540e-004
2.903832e-003,1.989545e-004
3.318398e-003,1.832341e-004
3.085508e-003,1.723757e-004
2.231743e-003,1.637863e-004
1.061467e-003,1.477418e-004
2.359977e-005,1.177597e-004
-5.129984e-004,7.173317e-005
-4.718338e-004,1.744128e-005
-1.772689e-005,-2.583015e-005
5.686256e-004,-4.381940e-005
1.010578e-003,-3.101624e-005
1.142175e-003,1.128280e-005
9.167421e-004,7.465034e-005
3.961880e-004,1.420695e-004
-2.616351e-004,2.010613e-004
-8.569009e-004,2.490327e-004
-1.236782e-003,2.892249e-004
-1.331266e-003,3.192069e-004
-1.160935e-003,3.284447e-004
-8.259465e-004,3.106175e-004
-4.541687e-004,2.697770e-004
-1.418689e-004,2.130541e-004
7.059870e-005,1.470936e-004
1.783722e-004,7.416414e-005
1.872858e-004,-1.196226e-006
1.094944e-004,-6.974985e-005
-3.004385e-005,-1.216107e-004
-1.893540e-004,-1.511066e-004
-3.267854e-004,-1.574272e-004
-4.206212e-004,-1.489998e-004
-4.635685e-004,-1.340898e-004
-4.426621e-004,-1.216107e-004
-3.429920e-004,-1.164247e-004
-1.700683e-004,-1.148040e-004
3.932010e-005,-1.115627e-004
2.214815e-004,-1.041077e-004
3.245551e-004,-8.725291e-005
3.415720e-004,-5.694669e-005
3.136967e-004,-1.335112e-005
2.997591e-004,3.721326e-005
3.375203e-004,8.340186e-005
4.326527e-004,1.145184e-004
5.653843e-004,1.252147e-004
7.041122e-004,1.205148e-004
8.381404e-004,1.088461e-004
9.755719e-004,9.215340e-005
1.121269e-003,7.270556e-005
1.254973e-003,5.196120e-005
1.335844e-003,2.538249e-005
1.319799e-003,-6.706447e-006
1.193226e-003,-3.830918e-005
9.993955e-004,-6.213279e-005
7.943827e-004,-7.153257e-005
6.029834e-004,-6.829127e-005
3.963500e-004,-5.516398e-005
1.222975e-004,-3.085418e-005
-2.449424e-004,-5.479652e-007
-6.883531e-004,2.505835e-005
-1.159315e-003,3.543053e-005
-1.590571e-003,2.619281e-005
-1.906760e-003,1.720949e-006
-2.050836e-003,-2.988179e-005
-1.993789e-003,-5.905355e-005
-1.743398e-003,-7.769105e-005
-1.330618e-003,-8.271508e-005
-7.996919e-004,-7.590833e-005
-2.402425e-004,-6.294311e-005
2.198609e-004,-4.803310e-005
4.798137e-004,-3.766092e-005
5.110924e-004,-3.069211e-005
3.545372e-004,-2.501983e-005
8.064676e-005,-1.788895e-005
-2.332737e-004,-1.173047e-005
-5.259637e-004,-8.813297e-006
-7.680892e-004,-9.461557e-006
-9.617572e-004,-5.896120e-006
-1.112802e-003,9.500084e-006
-1.191728e-003,3.348575e-005
-1.113612e-003,5.941620e-005
-8.013126e-004,8.453633e-005
-2.705488e-004,1.090082e-004
3.371962e-004,1.307249e-004
8.290648e-004,1.501728e-004
1.072649e-003,1.670276e-004
1.050932e-003,1.790204e-004
8.470540e-004,1.877719e-004
5.948801e-004,1.911753e-004
4.182289e-004,1.837203e-004
3.793332e-004,1.624898e-004
4.849998e-004,1.299146e-004
6.903367e-004,9.620503e-005
9.248454e-004,7.659513e-005
1.124024e-003,8.178122e-005
1.256107e-003,1.109530e-004
1.324823e-003,1.561692e-004
1.348323e-003,2.055991e-004
1.339895e-003,2.467637e-004
1.300351e-003,2.712356e-004
1.216563e-003,2.713976e-004
1.069570e-003,2.446569e-004
8.473782e-004,2.007372e-004
5.725151e-004,1.509831e-004
2.976522e-004,1.077117e-004
8.242948e-005,7.594687e-005
-2.745081e-005,5.974033e-005
-3.668853e-005,6.022653e-005
-4.923729e-006,7.351588e-005
-1.562004e-005,9.231547e-005
-1.266348e-004,1.043083e-004
-3.340783e-004,9.847395e-005
-5.643732e-004,7.076077e-005
-7.172007e-004,2.538249e-005
-7.314624e-004,-2.874733e-005
-6.194753e-004,-8.044616e-005
-4.441207e-004,-1.185315e-004
-2.744383e-004,-1.350622e-004
-1.561307e-004,-1.308485e-004
-9.665269e-005,-1.073490e-004
-7.234290e-005,-7.688072e-005
-4.706071e-005,-6.958779e-005
1.002961e-007,-1.130213e-004
6.800567e-005,-2.068571e-004
1.401247e-004,-3.240303e-004
1.991165e-004,-4.181902e-004
2.287745e-004,-4.491447e-004
2.218057e-004,-4.013354e-004
1.814514e-004,-2.906448e-004
1.242423e-004,-1.496480e-004
7.351588e-005,-1.399939e-005
4.483032e-005,9.263960e-005
3.899597e-005,1.644345e-004
4.304760e-005,2.064095e-004
4.158902e-005,2.260194e-004
3.332369e-005,2.290986e-004
2.133085e-005,2.200230e-004
1.079661e-005,1.961993e-004
6.907039e-006,1.519555e-004
8.203561e-006,9.312579e-005
7.555300e-006,3.137890e-005
-2.168618e-006,-2.258885e-005
-2.372330e-005,-5.581224e-005
-4.949169e-005,-5.759496e-005
-6.926366e-005,-2.664048e-005
-8.401160e-005,2.376183e-005
-9.600443e-005,7.805372e-005
-1.052422e-004,1.260251e-004
-1.125351e-004,1.608691e-004
-1.266348e-004,1.808031e-004
-1.595340e-004,1.856651e-004
-2.229016e-004,1.777239e-004
-3.186821e-004,1.642725e-004
-4.399070e-004,1.487142e-004
-5.789590e-004,1.255388e-004
-7.183352e-004,8.810177e-005
-8.244879e-004,3.656499e-005
-8.546320e-004,-1.562004e-005
-7.881852e-004,-5.305713e-005
-6.395714e-004,-6.586029e-005
-4.431483e-004,-5.532604e-005
-2.379736e-004,-3.312309e-005
-5.937767e-005,-1.594417e-005
6.946425e-005,-1.156841e-005
1.464453e-004,-1.788895e-005
1.861513e-004,-2.680255e-005
2.046267e-004,-3.458168e-005
2.164575e-004,-4.284701e-005
2.389846e-004,-5.419158e-005
2.788527e-004,-6.764300e-005
3.290929e-004,-7.866345e-005
3.790091e-004,-8.287714e-005
4.239012e-004,-7.914964e-005
4.629589e-004,-6.958779e-005
4.965065e-004,-5.791909e-005
5.166026e-004,-4.252288e-005
5.127130e-004,-2.145439e-005
4.721966e-004,2.207145e-006
3.874364e-004,2.603075e-005
2.543808e-004,4.936815e-005
8.242948e-005,6.881599e-005
-1.084835e-004,7.886404e-005
-2.974516e-004,7.821578e-005
-4.574100e-004,6.492643e-005
-5.603214e-004,4.580272e-005
-5.859278e-004,2.797553e-005
-5.270981e-004,2.019640e-005
-4.040906e-004,2.197911e-005
-2.538560e-004,3.137890e-005
-1.178833e-004,4.726130e-005
-2.258885e-005,6.492643e-005
2.894792e-005,7.837785e-005
5.747142e-005,8.372600e-005
8.340186e-005,8.194328e-005
1.109530e-004,7.546067e-005
1.438522e-004,7.059870e-005
1.842065e-004,7.529860e-005
2.203471e-004,9.231547e-005
2.273159e-004,1.200286e-004
1.934442e-004,1.508210e-004
1.312111e-004,1.746447e-004
6.119892e-005,1.859892e-004
-4.275467e-006,1.793446e-004
-6.132245e-005,1.501728e-004
-1.146419e-004,9.701536e-005
-1.695821e-004,3.218923e-005
-2.282497e-004,-2.631635e-005
-2.844864e-004,-7.104637e-005
-3.326198e-004,-9.584237e-005
-3.668155e-004,-1.067007e-004
-3.843186e-004,-1.125351e-004
-3.818876e-004,-1.182074e-004
-3.666535e-004,-1.211245e-004
-3.517435e-004,-1.186936e-004
-3.523917e-004,-1.126972e-004
-3.804290e-004,-1.075111e-004
-4.249970e-004,-1.023250e-004
-4.499550e-004,-9.730095e-005
-4.152730e-004,-8.984595e-005
-3.151167e-004,-7.914964e-005
-1.773612e-004,-6.699474e-005
-4.738484e-005,-5.727082e-005
4.207521e-005,-5.062615e-005
6.508849e-005,-4.462973e-005
2.910999e-005,-3.749886e-005
-3.085418e-005,-2.437157e-005
-8.077029e-005,-4.275467e-006
-1.003802e-004,1.598270e-005
-8.871149e-005,2.522042e-005
-7.153257e-005,2.473422e-005
-6.391550e-005,2.181705e-005
-4.722277e-005,2.035846e-005
-7.192643e-006,2.035846e-005
4.790957e-005,1.889987e-005
9.312579e-005,1.241726e-005
1.005808e-004,-2.330684e-006
5.957827e-005,-2.210265e-005
-7.192643e-006,-3.830918e-005
-5.273300e-005,-4.787104e-005
-4.349527e-005,-4.900549e-005
1.646889e-005,-4.138842e-005
8.340186e-005,-2.356124e-005
9.085687e-005,6.744974e-006
1.549650e-005,4.612685e-005
-1.055663e-004,8.437427e-005
-1.984297e-004,1.180839e-004
-1.976194e-004,1.448246e-004
-7.331529e-005,1.610312e-004
1.608691e-004,1.665414e-004
4.439973e-004,1.634621e-004
6.961710e-004,1.566554e-004
8.609916e-004,1.470936e-004
9.225765e-004,1.342904e-004
8.929185e-004,1.205148e-004
7.953551e-004,1.104668e-004
6.655407e-004,1.096565e-004
5.409124e-004,1.203528e-004
4.576108e-004,1.373696e-004
4.344354e-004,1.574657e-004
4.754380e-004,1.752929e-004
5.606844e-004,1.869616e-004
6.587339e-004,1.890685e-004
7.376598e-004,1.822617e-004
7.742866e-004,1.707551e-004
7.627800e-004,1.555209e-004
7.144844e-004,1.457970e-004
6.460928e-004,1.482280e-004
5.752702e-004,1.602208e-004
5.136854e-004,1.718895e-004
4.652278e-004,1.697827e-004
4.188771e-004,1.461212e-004
3.548613e-004,1.010670e-004
2.658874e-004,4.450619e-005
1.697827e-004,-1.010982e-005
9.118101e-005,-5.208473e-005
4.823369e-005,-8.206682e-005
3.510640e-005,-1.094559e-004
2.781346e-005,-1.420310e-004
-6.868512e-006,-1.776853e-004
-8.790116e-005,-2.097743e-004
-2.152845e-004,-2.271153e-004
-3.663293e-004,-2.245222e-004
-5.107295e-004,-2.032917e-004
-6.251476e-004,-1.710407e-004
-6.941874e-004,-1.358725e-004
-7.089353e-004,-1.002181e-004
-6.653398e-004,-6.359137e-005
-5.719902e-004,-2.631635e-005
-4.510895e-004,7.069104e-006
-3.376438e-004,3.721326e-005
-2.587180e-004,6.087479e-005
-2.177155e-004,7.724339e-005
-2.018331e-004,9.247753e-005
-1.898402e-004,1.106288e-004
-1.598582e-004,1.315353e-004
-1.003802e-004,1.500107e-004
-1.805102e-005,1.566554e-004
6.832980e-005,1.445005e-004
1.368834e-004,1.141943e-004
1.718895e-004,7.351588e-005
1.644345e-004,3.397195e-005
1.140322e-004,-1.196226e-006
3.445814e-005,-3.636440e-005
-5.581224e-005,-7.185670e-005
-1.488377e-004,-1.067007e-004
-2.561249e-004,-1.418689e-004
-3.963114e-004,-1.760647e-004
-5.658317e-004,-2.019951e-004
-7.248177e-004,-2.152845e-004
-8.123330e-004,-2.207947e-004
-7.734373e-004,-2.216050e-004
-6.079687e-004,-2.120432e-004
-3.826979e-004,-1.878955e-004
-1.862748e-004,-1.507825e-004
-6.035006e-005,-1.047560e-004
1.047248e-005,-5.435365e-005
6.541262e-005,-1.034161e-006
1.466074e-004,4.839576e-005
2.681563e-004,8.307774e-005
4.041292e-004,9.588090e-005
5.138475e-004,8.939829e-005
5.626291e-004,6.768153e-005
5.318367e-004,3.932010e-005
4.289252e-004,1.501031e-005
2.848491e-004,4.313994e-006
1.456350e-004,1.355172e-005
5.585077e-005,3.640293e-005
3.721326e-005,6.362990e-005
8.453633e-005,8.939829e-005
1.798307e-004,1.146805e-004
2.987867e-004,1.380179e-004
4.174185e-004,1.574657e-004
5.248679e-004,1.689724e-004
6.284277e-004,1.675138e-004
7.353909e-004,1.586002e-004
8.381404e-004,1.474177e-004
9.232247e-004,1.410971e-004
9.843234e-004,1.409351e-004
1.032781e-003,1.401247e-004
1.100362e-003,1.316973e-004
1.218994e-003,1.135460e-004
1.383491e-003,8.761556e-005
1.503258e-003,5.811968e-005
1.436649e-003,3.024445e-005
1.079132e-003,7.231170e-006
4.514523e-004,-1.075808e-005
-2.838381e-004,-2.015787e-005
-8.979035e-004,-1.594417e-005
-1.236296e-003,-2.168618e-006
-1.270816e-003,1.889987e-005
-1.079741e-003,4.239934e-005
-7.828371e-004,6.573675e-005
-4.909575e-004,8.810177e-005
-2.841623e-004,1.120874e-004
-1.989159e-004,1.365593e-004
-2.241981e-004,1.579519e-004
-3.167374e-004,1.762653e-004
-4.303451e-004,1.879340e-004
-5.408736e-004,1.919856e-004
-6.561021e-004,1.892305e-004
-8.034194e-004,1.803169e-004
-1.000977e-003,1.662173e-004
-1.248613e-003,1.501728e-004
-1.520882e-003,1.383420e-004
-1.781321e-003,1.318594e-004
-2.003513e-003,1.313732e-004
-2.179192e-003,1.357490e-004
-2.312734e-003,1.435281e-004
-2.410460e-003,1.475797e-004
-2.459727e-003,1.401247e-004
-2.434931e-003,1.187321e-004
-2.314517e-003,8.421220e-005
-2.086491e-003,3.932010e-005
-1.767384e-003,-1.286493e-005
-1.396740e-003,-6.488790e-005
-1.006001e-003,-1.036215e-004
-6.066721e-004,-1.224211e-004
-2.036158e-004,-1.209625e-004
1.944166e-004,-1.073490e-004
5.723531e-004,-8.417366e-005
9.147974e-004,-4.446767e-005
1.205381e-003,1.501031e-005
1.431949e-003,7.983643e-005
1.597256e-003,1.253768e-004
1.726260e-003,1.261871e-004
1.858830e-003,7.821578e-005
2.018464e-003,1.883015e-006
2.158490e-003,-7.120844e-005
2.178910e-003,-1.089697e-004
2.013603e-003,-9.778715e-005
1.685095e-003,-4.414354e-005
1.270531e-003,2.992031e-005
8.697432e-004,1.018773e-004
5.762426e-004,1.503348e-004
4.311941e-004,1.613553e-004
4.086670e-004,1.399627e-004
4.383250e-004,9.993253e-005
4.514523e-004,5.309565e-005
4.216323e-004,2.531276e-006
3.728506e-004,-5.678463e-005
3.350894e-004,-1.261486e-004
3.112657e-004,-1.977814e-004
2.803112e-004,-2.616351e-004
2.120818e-004,-3.013411e-004
9.328785e-005,-3.024756e-004
-5.808115e-005,-2.546663e-004
-2.013469e-004,-1.668270e-004
-3.049066e-004,-6.683268e-005
-3.575778e-004,1.144487e-005
-3.681121e-004,4.774750e-005
-3.544986e-004,4.904402e-005
-3.204648e-004,3.932010e-005
-2.635799e-004,3.980630e-005
-1.724992e-004,5.390598e-005
-4.025397e-005,7.205730e-005
1.198666e-004,8.259154e-005
2.812837e-004,8.356393e-005
4.217943e-004,7.983643e-005
5.276230e-004,7.254349e-005
5.940698e-004,6.233338e-005
6.251864e-004,4.823369e-005
6.373413e-004,3.137890e-005
6.525755e-004,1.160693e-005
6.793162e-004,-1.221667e-005
7.144844e-004,-4.787104e-005
7.423597e-004,-1.008664e-004
7.468975e-004,-1.650442e-004
7.285841e-004,-2.241981e-004
6.922815e-004,-2.655248e-004
6.389620e-004,-2.857829e-004
5.728393e-004,-2.912931e-004
5.039615e-004,-2.908069e-004
4.449697e-004,-2.862691e-004
4.135290e-004,-2.746004e-004
4.182289e-004,-2.491561e-004
4.517764e-004,-1.994021e-004
4.895377e-004,-1.230693e-004
5.093096e-004,-2.420950e-005
4.992615e-004,7.529860e-005
4.543695e-004,1.474177e-004
3.764160e-004,1.773998e-004
2.773941e-004,1.673517e-004
1.670276e-004,1.286181e-004
5.228533e-005,7.756751e-005
-6.148453e-005,2.813760e-005
-1.677994e-004,-1.140634e-005
-2.570973e-004,-3.620233e-005
-3.206269e-004,-4.706071e-005
-3.570916e-004,-4.722277e-005
-3.689224e-004,-4.074016e-005
-3.557951e-004,-2.809907e-005
-3.284061e-004,-9.137427e-006
-2.966413e-004,1.971020e-005
-2.629317e-004,5.585077e-005
-2.300324e-004,9.539470e-005
-2.055606e-004,1.357490e-004
-2.123673e-004,1.754550e-004
-2.733039e-004,2.094887e-004
-3.849668e-004,2.292607e-004
-5.050572e-004,2.305572e-004
-5.783107e-004,2.146748e-004
-5.687489e-004,1.905270e-004
-4.719959e-004,1.670276e-004
-3.154408e-004,1.514693e-004
-1.460826e-004,1.482280e-004
-1.237873e-005,1.602208e-004
5.341978e-005,1.817755e-004
3.996836e-005,2.075439e-004
-4.544005e-005,2.305572e-004
-1.770371e-004,2.410914e-004
-3.147926e-004,2.346088e-004
-4.214316e-004,2.117576e-004
-4.823681e-004,1.775618e-004
-5.016539e-004,1.383420e-004
-4.997090e-004,9.458438e-005
-4.958195e-004,4.985435e-005
-4.946851e-004,1.095867e-005
-4.906334e-004,-1.205460e-005
-4.747510e-004,-1.448558e-005
-4.437965e-004,5.772582e-006
-3.955011e-004,4.823369e-005
-3.326198e-004,1.051186e-004
-2.588801e-004,1.519555e-004
-1.862748e-004,1.634621e-004
-1.276072e-004,1.297525e-004
-9.357345e-005,5.730935e-005
-7.623246e-005,-3.458168e-005
-5.710876e-005,-1.229073e-004
-2.826113e-005,-1.922712e-004
1.630683e-005,-2.297083e-004
8.307774e-005,-2.301945e-004
1.676758e-004,-2.052364e-004
2.561635e-004,-1.851403e-004
3.255275e-004,-1.987538e-004
3.485408e-004,-2.457528e-004
3.177483e-004,-3.015032e-004
2.446569e-004,-3.305129e-004
1.509831e-004,-3.024756e-004
5.309565e-005,-2.143121e-004
-4.041603e-005,-8.595638e-005
-1.175591e-004,5.341978e-005
-1.551583e-004,1.772377e-004
-1.293899e-004,2.675081e-004
-2.955766e-005,3.188828e-004
1.111150e-004,3.376824e-004
2.282883e-004,3.350894e-004
2.731804e-004,3.221241e-004
2.290986e-004,3.096451e-004
1.081979e-004,3.008935e-004
-4.511592e-005,2.999211e-004
-1.737958e-004,3.054314e-004
-2.224154e-004,3.161277e-004
-1.515928e-004,3.273102e-004
3.624086e-005,3.336308e-004
2.856594e-004,3.303894e-004
5.185474e-004,3.167760e-004
6.893643e-004,2.984626e-004
8.044308e-004,2.807975e-004
8.760637e-004,2.657254e-004
8.773602e-004,2.508154e-004
7.396046e-004,2.354192e-004
4.201737e-004,2.182402e-004
-4.365734e-005,1.999268e-004
-5.436288e-004,1.783722e-004
-9.732638e-004,1.479039e-004
-1.280864e-003,1.091703e-004
-1.465456e-003,6.816773e-005
-1.551189e-003,3.316162e-005
-1.561237e-003,1.387585e-005
-1.509376e-003,1.241726e-005
-1.406951e-003,2.003433e-005
-1.255906e-003,2.165498e-005
-1.049921e-003,1.558884e-006
-7.800820e-004,-4.268495e-005
-4.561135e-004,-1.003802e-004
-9.616650e-005,-1.574272e-004
2.833905e-004,-2.026434e-004
6.250243e-004,-2.313289e-004
8.433264e-004,-2.468872e-004
8.480264e-004,-2.522354e-004
6.012007e-004,-2.496423e-004
1.660552e-004,-2.387839e-004
-3.091203e-004,-2.198223e-004
-6.567503e-004,-1.945401e-004
-7.802441e-004,-1.687718e-004
-6.760361e-004,-1.468929e-004
-4.155972e-004,-1.349001e-004
-9.568031e-005,-1.332795e-004
2.328261e-004,-1.381414e-004
5.843459e-004,-1.434896e-004
1.007661e-003,-1.455964e-004
1.534374e-003,-1.428413e-004
2.143742e-003,-1.392759e-004
2.689742e-003,-1.387897e-004
2.915663e-003,-1.418689e-004
2.577592e-003,-1.415448e-004
1.586721e-003,-1.347380e-004
1.282940e-004,-1.201522e-004
-1.352497e-003,-1.008664e-004
-2.414187e-003,-8.077029e-005
-2.858409e-003,-6.423963e-005
-2.710767e-003,-5.856734e-005
-2.160555e-003,-6.116039e-005
-1.444550e-003,-6.569822e-005
-7.594997e-004,-6.618442e-005
-2.201465e-004,-5.694669e-005
1.493625e-004,-3.879538e-005
3.856537e-004,-1.043395e-005
5.493397e-004,2.068259e-005
6.835299e-004,4.061663e-005
8.013516e-004,4.013043e-005
8.976184e-004,2.408596e-005
9.700616e-004,4.476060e-006
1.011550e-003,-8.327101e-006
1.000530e-003,-1.124428e-005
9.125284e-004,-6.544382e-006
7.379840e-004,3.989864e-006
4.969927e-004,2.100672e-005
2.269918e-004,4.142695e-005
-3.668853e-005,5.682316e-005
-2.694143e-004,6.217131e-005
-4.672960e-004,5.633696e-005
-6.410300e-004,4.693717e-005
-7.996919e-004,4.628891e-005
-9.436058e-004,5.763348e-005
-1.068882e-003,7.286762e-005
-1.163042e-003,8.453633e-005
-1.193186e-003,9.507057e-005
-1.128360e-003,1.043083e-004
-9.502505e-004,1.163011e-004
-6.650157e-004,1.359110e-004
-3.096065e-004,1.607070e-004
6.152305e-005,1.824238e-004
4.010499e-004,1.916615e-004
6.713750e-004,1.869616e-004
8.481885e-004,1.738343e-004
9.235489e-004,1.597346e-004
9.194972e-004,1.456350e-004
8.681225e-004,1.326697e-004
7.953551e-004,1.197045e-004
7.245325e-004,1.031738e-004
6.673234e-004,8.340186e-005
6.253485e-004,5.990240e-005
5.937457e-004,3.429608e-005
5.655463e-004,7.555300e-006
5.366987e-004,-2.226472e-005
5.117406e-004,-5.402952e-005
4.922927e-004,-8.433573e-005
4.843515e-004,-1.110765e-004
4.845136e-004,-1.324691e-004
4.827309e-004,-1.442999e-004
4.707380e-004,-1.433275e-004
4.470765e-004,-1.276072e-004
4.123945e-004,-9.519411e-005
3.694472e-004,-4.900549e-005
3.219621e-004,2.693341e-006
2.801492e-004,5.196120e-005
2.576221e-004,9.118101e-005
2.705873e-004,1.180839e-004
3.355755e-004,1.328318e-004
4.576108e-004,1.362352e-004
6.206486e-004,1.320215e-004
7.964895e-004,1.210010e-004
9.572585e-004,1.034980e-004
1.074594e-003,7.837785e-005
1.124834e-003,4.855782e-005
1.093069e-003,1.776542e-005
9.883750e-004,-8.651231e-006
8.387886e-004,-2.939559e-005
6.772094e-004,-4.625038e-005
5.243817e-004,-6.051213e-005
3.854917e-004,-7.120844e-005
2.555152e-004,-7.979790e-005
1.321835e-004,-8.725291e-005
2.295151e-005,-9.519411e-005
-6.504996e-005,-1.042698e-004
-1.319829e-004,-1.126972e-004
-1.874093e-004,-1.125351e-004
-2.413770e-004,-1.005423e-004
-3.016653e-004,-7.752898e-005
-3.642225e-004,-4.949169e-005
-4.175420e-004,-2.291298e-005
-4.528722e-004,-4.437533e-006
-4.700511e-004,5.286386e-006
-4.698891e-004,1.031041e-005
-4.517377e-004,1.582063e-005
-4.222419e-004,2.635488e-005
-3.922598e-004,4.126489e-005
-3.677879e-004,5.763348e-005
-3.496366e-004,7.367795e-005
-3.360231e-004,8.518459e-005
-3.222476e-004,8.972242e-005
-3.112271e-004,8.923622e-005
-3.042583e-004,8.842590e-005
-3.027998e-004,9.879807e-005
-3.018273e-004,1.313732e-004
-2.911311e-004,1.851789e-004
-2.622834e-004,2.436845e-004
-2.117190e-004,2.889007e-004
-1.483515e-004,3.083486e-004
-8.563225e-005,3.012177e-004
-3.522994e-005,2.769079e-004
-7.354708e-006,2.401191e-004
-7.100305e-007,1.927960e-004
-5.085794e-006,1.385041e-004
-3.627206e-006,8.826383e-005
1.290346e-005,5.714729e-005
3.753739e-005,5.406805e-005
5.212327e-005,7.286762e-005
4.158902e-005,9.847395e-005
3.665733e-006,1.156529e-004
-5.451571e-005,1.180839e-004
-1.183694e-004,1.083599e-004
-1.804405e-004,9.312579e-005
-2.468872e-004,7.967437e-005
-3.138202e-004,7.529860e-005
-3.564433e-004,8.729143e-005
-3.345645e-004,1.107909e-004
-2.339220e-004,1.300767e-004
-9.098041e-005,1.360731e-004
2.635488e-005,1.305629e-004
5.925414e-005,1.167873e-004
-8.002969e-006,9.652916e-005
-1.545100e-004,7.092283e-005
-3.572537e-004,4.061663e-005
-6.126686e-004,5.124321e-006
-9.089239e-004,-3.506787e-005
-1.211986e-003,-7.995997e-005
-1.469994e-003,-1.269589e-004
-1.645025e-003,-1.739578e-004
-1.730109e-003,-2.204706e-004
-1.741291e-003,-2.634179e-004
-1.692186e-003,-2.948585e-004
-1.587978e-003,-3.083100e-004
-1.428505e-003,-3.073376e-004
-1.227868e-003,-2.925896e-004
-1.010215e-003,-2.619593e-004
-8.076331e-004,-2.133397e-004
-6.384369e-004,-1.472171e-004
-4.995470e-004,-6.910160e-005
-3.776739e-004,1.079661e-005
-2.660109e-004,7.918817e-005
-1.606685e-004,1.219734e-004
-6.213279e-005,1.367214e-004
2.829966e-005,1.273216e-004
1.062531e-004,1.047945e-004
1.714033e-004,7.675719e-005
2.344468e-004,5.163707e-005
3.156415e-004,3.672705e-005
4.188771e-004,3.267542e-005
5.214645e-004,3.186510e-005
5.890458e-004,3.073064e-005
6.029834e-004,2.619281e-005
5.775391e-004,1.614476e-005
5.817529e-004,1.396819e-006
7.096225e-004,-9.947754e-006
9.929129e-004,-1.237873e-005
1.354805e-003,-6.382316e-006
1.641986e-003,3.989864e-006
1.715402e-003,1.322759e-005
1.537940e-003,2.165498e-005
1.188040e-003,2.813760e-005
8.052411e-004,2.943412e-005
5.131992e-004,2.262737e-005
3.626405e-004,1.274139e-005
3.373583e-004,4.962256e-006
3.775505e-004,-6.176923e-008
4.397836e-004,-4.923729e-006
5.237334e-004,-9.785687e-006
6.525755e-004,-1.140634e-005
8.198270e-004,-8.651231e-006
9.681169e-004,-1.034161e-006
1.024516e-003,1.193106e-005
9.439691e-004,3.348575e-005
7.363633e-004,5.974033e-005
4.524247e-004,8.048469e-005
1.469315e-004,8.648111e-005
-1.387897e-004,8.210535e-005
-3.781601e-004,7.886404e-005
-5.518941e-004,8.550872e-005
-6.505919e-004,1.041462e-004
-6.823567e-004,1.336421e-004
-6.697155e-004,1.720516e-004
-6.373025e-004,2.271538e-004
-5.950034e-004,3.034866e-004
-5.366600e-004,3.874364e-004
-4.497929e-004,4.545315e-004
-3.225717e-004,4.919686e-004
-1.601823e-004,4.969927e-004
1.387585e-005,4.720346e-004
1.704310e-004,4.180668e-004
2.898731e-004,3.414099e-004
3.666921e-004,2.521119e-004
4.088291e-004,1.658931e-004
4.295734e-004,9.377405e-005
4.362181e-004,3.575467e-005
4.320044e-004,-1.821308e-005
4.151496e-004,-7.995997e-005
3.879227e-004,-1.455964e-004
3.538889e-004,-2.079916e-004
3.193690e-004,-2.617972e-004
2.848491e-004,-3.092824e-004
2.495188e-004,-3.540124e-004
2.153230e-004,-3.899909e-004
1.916615e-004,-4.052250e-004
1.895547e-004,-3.980942e-004
2.112714e-004,-3.750809e-004
2.483844e-004,-3.491504e-004
2.832284e-004,-3.313232e-004
3.030004e-004,-3.261371e-004
2.971661e-004,-3.248406e-004
2.603772e-004,-3.130099e-004
1.931201e-004,-2.848105e-004
1.073875e-004,-2.382978e-004
2.473422e-005,-1.721751e-004
-3.036798e-005,-9.568031e-005
-4.219875e-005,-2.453363e-005
-2.631635e-005,2.748933e-005
-3.951337e-006,6.136099e-005
2.505835e-005,7.902610e-005
6.006446e-005,8.340186e-005
8.291567e-005,7.967437e-005
8.161915e-005,7.481241e-005
5.277152e-005,6.962632e-005
1.072688e-006,6.735740e-005
-4.932962e-005,6.703327e-005
-6.991192e-005,6.962632e-005
-5.646050e-005,7.497447e-005
-3.069211e-005,7.805372e-005
-3.506787e-005,7.384001e-005
-9.049421e-005,5.957827e-005
-1.917850e-004,4.045456e-005
-3.118754e-004,2.376183e-005
-4.209453e-004,2.068259e-005
-5.000332e-004,3.462021e-005
-5.535147e-004,5.666109e-005
-6.050515e-004,7.400208e-005
-6.706879e-004,8.275361e-005
-7.368106e-004,8.777764e-005
-7.624169e-004,9.507057e-005
-7.071526e-004,1.059289e-004
-5.540009e-004,1.193804e-004
-3.233821e-004,1.316973e-004
-5.727082e-005,1.385041e-004
2.041405e-004,1.412592e-004
4.357320e-004,1.410971e-004
6.292380e-004,1.401247e-004
7.885484e-004,1.393144e-004
9.172283e-004,1.373696e-004
1.013009e-003,1.344524e-004
1.079294e-003,1.351007e-004
1.130020e-003,1.427178e-004
1.157409e-003,1.514693e-004
1.124348e-003,1.547106e-004
9.925888e-004,1.548727e-004
7.263152e-004,1.573037e-004
2.863077e-004,1.590864e-004
-3.374817e-004,1.545486e-004
-1.106644e-003,1.389903e-004
-1.920212e-003,1.138701e-004
-2.620659e-003,8.437427e-005
-3.069094e-003,5.601283e-005
-3.211388e-003,3.364782e-005
-3.067798e-003,1.841368e-005
-2.699747e-003,8.851824e-006
-2.182434e-003,9.106226e-007
-1.591219e-003,-1.788895e-005
-1.003732e-003,-6.634648e-005
-5.063537e-004,-1.514308e-004
-1.720131e-004,-2.561249e-004
-9.461557e-006,-3.510952e-004
3.283749e-005,-4.053871e-004
2.392390e-005,-3.979321e-004
2.181705e-005,-3.266234e-004
5.520250e-005,-2.078295e-004
1.273216e-004,-7.007398e-005
2.193747e-004,5.568870e-005
3.055935e-004,1.482280e-004
3.649094e-004,2.034923e-004
3.901916e-004,2.302331e-004
3.918122e-004,2.347709e-004
3.916502e-004,2.243987e-004
4.130428e-004,2.065715e-004
4.660382e-004,1.859892e-004
5.423710e-004,1.637863e-004
6.321552e-004,1.430419e-004
7.344185e-004,1.232699e-004
8.558055e-004,1.038221e-004
1.000854e-003,9.053274e-005
1.159354e-003,9.053274e-005
1.303917e-003,1.030118e-004
1.401480e-003,1.211631e-004
1.427411e-003,1.389903e-004
1.375712e-003,1.556830e-004
1.263076e-003,1.709171e-004
1.114138e-003,1.819376e-004
9.405658e-004,1.846927e-004
7.430080e-004,1.783722e-004
5.232472e-004,1.667035e-004
2.961937e-004,1.529279e-004
8.729143e-005,1.375317e-004
-6.472583e-005,1.244044e-004
-1.128592e-004,1.141943e-004
-2.777494e-005,1.009049e-004
1.726999e-004,7.902610e-005
4.224426e-004,5.017848e-005
6.491721e-004,1.484824e-005
8.028101e-004,-2.518189e-005
8.700673e-004,-6.764300e-005
8.669881e-004,-1.180453e-004
8.133444e-004,-1.781715e-004
7.198326e-004,-2.415391e-004
5.927733e-004,-2.916172e-004
4.475627e-004,-3.138202e-004
3.085106e-004,-3.053928e-004
2.099749e-004,-2.724935e-004
1.712413e-004,-2.253325e-004
1.832341e-004,-1.749302e-004
2.198609e-004,-1.267968e-004
2.568118e-004,-8.255302e-005
2.777182e-004,-4.171255e-005
2.757734e-004,4.244267e-007
2.500050e-004,4.677511e-005
2.064095e-004,9.409818e-005
1.558451e-004,1.286181e-004
1.031738e-004,1.449867e-004
5.293359e-005,1.453108e-004
1.436204e-005,1.352628e-004
-8.720958e-007,1.201907e-004
1.290346e-005,1.043083e-004
5.374392e-005,9.182927e-005
1.015532e-004,8.194328e-005
1.231079e-004,7.319175e-005
9.215340e-005,5.876794e-005
9.175954e-006,3.802358e-005
-1.010285e-004,6.420843e-006
-2.091260e-004,-3.895744e-005
-2.934000e-004,-9.292519e-005
-3.371576e-004,-1.457585e-004
-3.335922e-004,-1.841679e-004
-2.908069e-004,-2.047502e-004
-2.308428e-004,-2.099363e-004
-1.806025e-004,-2.076674e-004
-1.569410e-004,-1.994021e-004
-1.712027e-004,-1.833576e-004
-2.188499e-004,-1.554824e-004
-2.773555e-004,-1.118868e-004
-3.241924e-004,-5.500191e-005
-3.509331e-004,7.393235e-006
-3.616295e-004,6.638501e-005
-3.622777e-004,1.070634e-004
-3.687603e-004,1.195424e-004
-4.078180e-004,1.036600e-004
-4.916058e-004,7.351588e-005
-6.279027e-004,4.353380e-005
-8.092538e-004,2.327564e-005
-9.988701e-004,2.100672e-005
-1.149429e-003,4.013043e-005
-1.236458e-003,7.691926e-005
-1.255095e-003,1.182459e-004
-1.199993e-003,1.516314e-004
-1.056565e-003,1.748067e-004
-8.197880e-004,1.902029e-004
-5.222362e-004,1.968476e-004
-2.357047e-004,1.914994e-004
-3.020592e-005,1.751308e-004
9.134307e-005,1.511452e-004
1.879340e-004,1.182459e-004
3.107795e-004,7.837785e-005
4.525867e-004,4.158902e-005
5.506363e-004,1.322759e-005
5.448019e-004,-3.627206e-006
4.307079e-004,-6.382316e-006
2.553532e-004,3.503668e-006
8.664317e-005,2.246531e-005
-3.620233e-005,4.709924e-005
-1.214487e-004,6.703327e-005
-2.037778e-004,7.059870e-005
-3.040963e-004,5.568870e-005
-4.130041e-004,2.441009e-005
-5.047331e-004,-1.545797e-005
-5.723143e-004,-5.078821e-005
-6.298475e-004,-7.526008e-005
-6.911082e-004,-8.563225e-005
-7.556102e-004,-7.947377e-005
-8.090917e-004,-6.440169e-005
-8.220569e-004,-4.495386e-005
-7.562584e-004,-2.177852e-005
-5.990550e-004,5.772582e-006
-3.833462e-004,3.705119e-005
-1.676373e-004,6.865393e-005
-5.247859e-006,9.685329e-005
7.789165e-005,1.188942e-004
9.442231e-005,1.349386e-004
8.323980e-005,1.432040e-004
7.416414e-005,1.419075e-004
6.541262e-005,1.305629e-004
2.813760e-005,1.120874e-004
-6.731887e-005,9.588090e-005
-2.109087e-004,8.161915e-005
-3.540124e-004,6.962632e-005
-4.394208e-004,6.006446e-005
-4.368277e-004,4.758544e-005
-3.504469e-004,3.283749e-005
-2.062088e-004,2.100672e-005
-2.745081e-005,1.857574e-005
1.644345e-004,2.586868e-005
3.618301e-004,3.850977e-005
5.589016e-004,5.374392e-005
7.498147e-004,6.865393e-005
9.233868e-004,8.194328e-005
1.056929e-003,9.669123e-005
1.133586e-003,1.119254e-004
1.148334e-003,1.266733e-004
1.114462e-003,1.391524e-004
1.050932e-003,1.480659e-004
9.786512e-004,1.496866e-004
9.109078e-004,1.410971e-004
8.561296e-004,1.250527e-004
8.115617e-004,1.034980e-004
7.668316e-004,7.708132e-005
7.092984e-004,5.196120e-005
6.298863e-004,3.283749e-005
5.268127e-004,2.651694e-005
4.109359e-004,3.980630e-005
2.936006e-004,6.914012e-005
1.819376e-004,1.020394e-004
8.129502e-005,1.331559e-004
3.503668e-006,1.566554e-004
-3.685059e-005,1.686482e-004
-4.041603e-005,1.675138e-004
-3.198863e-005,1.564933e-004
-4.446767e-005,1.376937e-004
-1.007043e-004,1.137081e-004
-2.000504e-004,8.761556e-005
-3.039342e-004,6.346784e-005
-3.548227e-004,4.288554e-005
-3.219235e-004,2.376183e-005
-2.159328e-004,3.989864e-006
-6.213279e-005,-1.950961e-005
1.172735e-004,-4.479180e-005
2.981384e-004,-7.039811e-005
4.485351e-004,-1.073490e-004
5.383193e-004,-1.718510e-004
5.504742e-004,-2.645523e-004
4.846757e-004,-3.731361e-004
3.556717e-004,-4.638926e-004
1.940925e-004,-5.019780e-004
2.489629e-005,-4.729683e-004
-1.491618e-004,-3.870737e-004
-3.204648e-004,-2.736280e-004
-4.650271e-004,-1.629374e-004
-5.467080e-004,-7.769105e-005
-5.347152e-004,-2.339917e-005
-4.256452e-004,4.962256e-006
-2.481837e-004,1.533444e-005
-4.333321e-005,1.808955e-005
1.637863e-004,2.035846e-005
3.679886e-004,2.262737e-005
5.668428e-004,2.619281e-005
7.415494e-004,3.202716e-005
8.538608e-004,3.624086e-005
8.558055e-004,3.364782e-005
7.105949e-004,1.987226e-005
4.148255e-004,-5.479652e-007
2.359977e-005,-2.129233e-005
-3.457470e-004,-3.571614e-005
-5.518941e-004,-3.830918e-005
-5.003573e-004,-3.101624e-005
-1.776853e-004,-2.064406e-005
3.593991e-004,-7.678839e-006
9.183628e-004,7.879431e-006
1.204246e-003,2.473422e-005
9.635790e-004,4.013043e-005
1.503348e-004,5.390598e-005
-9.755327e-004,5.730935e-005
-1.985038e-003,4.353380e-005
-2.551133e-003,1.241726e-005
-2.556157e-003,-2.907146e-005
-2.090380e-003,-6.553616e-005
-1.372431e-003,-8.222889e-005
-6.489712e-004,-6.942573e-005
-9.665269e-005,-3.182657e-005
2.276400e-004,1.646889e-005
3.597233e-004,6.281957e-005
3.751195e-004,1.009049e-004
3.538889e-004,1.206769e-004
3.521062e-004,1.195424e-004
3.969983e-004,1.015532e-004
4.819206e-004,8.178122e-005
5.791598e-004,7.335382e-005
6.605167e-004,8.178122e-005
7.161051e-004,1.023635e-004
7.517594e-004,1.247285e-004
7.835244e-004,1.412592e-004
8.227442e-004,1.511452e-004
8.763878e-004,1.540623e-004
9.400796e-004,1.469315e-004
1.002637e-003,1.289422e-004
1.054984e-003,1.070634e-004
1.100038e-003,8.972242e-005
1.137638e-003,7.886404e-005
1.150441e-003,7.189524e-005
1.114624e-003,6.832980e-005
1.023057e-003,7.594687e-005
8.726603e-004,1.043083e-004
6.475514e-004,1.479039e-004
3.218000e-004,1.939304e-004
-1.248521e-004,2.237504e-004
-6.601537e-004,2.268297e-004
-1.182652e-003,2.017096e-004
-1.580685e-003,1.553589e-004
-1.795745e-003,9.231547e-005
-1.834641e-003,2.311357e-005
-1.739022e-003,-3.247483e-005
-1.558968e-003,-5.629843e-005
-1.340666e-003,-4.365734e-005
-1.118961e-003,-7.192643e-006
-9.055205e-004,3.753739e-005
-6.972667e-004,7.902610e-005
-4.985746e-004,1.073875e-004
-3.258130e-004,1.216493e-004
-1.987538e-004,1.265113e-004
-1.233935e-004,1.240803e-004
-9.098041e-005,1.103047e-004
-8.012203e-005,8.550872e-005
-6.748093e-005,5.163707e-005
-3.895744e-005,1.322759e-005
7.717366e-006,-2.485776e-005
6.411610e-005,-5.743289e-005
1.151667e-004,-7.963584e-005
1.414213e-004,-8.984595e-005
1.339663e-004,-9.405964e-005
1.009049e-004,-9.924574e-005
5.844381e-005,-1.037836e-004
2.343770e-005,-1.010285e-004
7.879431e-006,-8.628051e-005
1.501031e-005,-6.326724e-005
3.624086e-005,-4.333321e-005
5.747142e-005,-3.863331e-005
7.124698e-005,-4.868136e-005
8.064676e-005,-6.618442e-005
9.344992e-005,-8.190475e-005
1.161391e-004,-8.854943e-005
1.516314e-004,-8.757703e-005
1.997648e-004,-8.352540e-005
2.564876e-004,-8.060822e-005
3.125622e-004,-7.315322e-005
3.512959e-004,-4.965375e-005
3.538889e-004,-8.165034e-006
3.203414e-004,4.223728e-005
2.676701e-004,8.923622e-005
2.247228e-004,1.206769e-004
2.091646e-004,1.346145e-004
2.239125e-004,1.302387e-004
2.548670e-004,1.101426e-004
2.853353e-004,8.372600e-005
3.033245e-004,6.136099e-005
3.081865e-004,5.439218e-005
3.075383e-004,6.541262e-005
3.031625e-004,8.842590e-005
2.790147e-004,1.148425e-004
2.177540e-004,1.339663e-004
1.072255e-004,1.427178e-004
-5.095028e-005,1.474177e-004
-2.348944e-004,1.526038e-004
-4.045767e-004,1.581140e-004
-5.228844e-004,1.633001e-004
-5.687489e-004,1.624898e-004
-5.314739e-004,1.539003e-004
-4.121938e-004,1.393144e-004
-2.326255e-004,1.214872e-004
-3.960571e-005,1.025256e-004
1.185700e-004,8.518459e-005
2.171058e-004,6.719534e-005
2.636185e-004,4.969228e-005
2.765838e-004,3.413401e-005
2.733424e-004,1.841368e-005
2.619979e-004,-1.682422e-006
2.454672e-004,-2.842320e-005
2.260194e-004,-5.532604e-005
2.109473e-004,-7.299116e-005
2.143507e-004,-7.688072e-005
2.470879e-004,-7.185670e-005
3.085106e-004,-6.537409e-005
3.978086e-004,-5.775702e-005
5.033132e-004,-4.835723e-005
6.084936e-004,-3.425755e-005
6.977917e-004,-1.205460e-005
7.561353e-004,1.776542e-005
7.656971e-004,4.920609e-005
7.042743e-004,6.816773e-005
5.707324e-004,6.330577e-005
4.049395e-004,3.089270e-005
2.514636e-004,-2.599222e-005
1.393144e-004,-9.373551e-005
6.995045e-005,-1.515928e-004
2.311357e-005,-1.888679e-004
-5.192267e-005,-2.000504e-004
-2.107467e-004,-1.904885e-004
-4.612996e-004,-1.682856e-004
-7.358382e-004,-1.400862e-004
-9.181616e-004,-1.126972e-004
-9.351785e-004,-8.449779e-005
-8.055263e-004,-5.192267e-005
-6.360059e-004,-2.096819e-005
-5.598352e-004,2.207145e-006
-6.343853e-004,1.484824e-005
-8.126571e-004,2.327564e-005
-9.789361e-004,3.478227e-005
-1.044411e-003,5.212327e-005
-9.859049e-004,7.286762e-005
-8.408565e-004,8.875003e-005
-6.624226e-004,9.231547e-005
-4.741028e-004,8.226741e-005
-2.692523e-004,6.735740e-005
-4.349527e-005,5.552663e-005
1.950649e-004,4.774750e-005
4.302217e-004,4.499239e-005
6.172452e-004,4.888196e-005
6.986020e-004,5.585077e-005
6.281036e-004,6.395403e-005
3.950535e-004,7.319175e-005
3.413401e-005,8.615698e-005
-3.726499e-004,1.013911e-004
-7.212523e-004,1.117633e-004
-9.212409e-004,1.125736e-004
-9.288579e-004,1.026876e-004
-7.617687e-004,7.999850e-005
-4.904713e-004,5.212327e-005
-2.002124e-004,2.716520e-005
4.239934e-005,6.096713e-006
2.031682e-004,-1.707863e-005
2.807975e-004,-4.916756e-005
2.934386e-004,-8.547019e-005
2.668598e-004,-1.173971e-004
2.224539e-004,-1.370070e-004
1.709171e-004,-1.373311e-004
1.227837e-004,-1.199901e-004
1.018773e-004,-8.968388e-005
1.336421e-004,-4.900549e-005
2.328261e-004,-3.465141e-006
4.034809e-004,3.834771e-005
6.326414e-004,7.157111e-005
8.904876e-004,9.085687e-005
1.137313e-003,9.766362e-005
1.332116e-003,9.798775e-005
1.448479e-003,1.000946e-004
1.478299e-003,1.098185e-004
1.434866e-003,1.282940e-004
1.345568e-003,1.487142e-004
1.243790e-003,1.621656e-004
1.152709e-003,1.658931e-004
1.076539e-003,1.626518e-004
1.012361e-003,1.610312e-004
9.511000e-004,1.649207e-004
8.702294e-004,1.707551e-004
7.373357e-004,1.692965e-004
5.261644e-004,1.600588e-004
2.383363e-004,1.534141e-004
-8.822530e-005,1.574657e-004
-3.948528e-004,1.686482e-004
-6.420024e-004,1.785342e-004
-8.348601e-004,1.793446e-004
-1.003246e-003,1.671896e-004
-1.176494e-003,1.414213e-004
-1.374375e-003,1.059289e-004
-1.610505e-003,6.638501e-005
-1.872726e-003,2.797553e-005
-2.102697e-003,-5.479652e-007
-2.220195e-003,-1.659243e-005
-2.150993e-003,-2.534396e-005
-1.875644e-003,-2.939559e-005
-1.453463e-003,-3.004385e-005
-1.006325e-003,-2.858526e-005
-6.458919e-004,-2.712668e-005
-4.211074e-004,-2.664048e-005
-3.073376e-004,-2.404744e-005
-2.421873e-004,-1.545797e-005
-1.676373e-004,-3.627206e-006
-5.953974e-005,8.041497e-006
7.821578e-005,1.468617e-005
2.248849e-004,1.176900e-005
3.616681e-004,2.531276e-006
4.817585e-004,-2.816880e-006
5.820770e-004,-3.858999e-007
6.626235e-004,5.610517e-006
7.125397e-004,1.209313e-005
7.230739e-004,1.468617e-005
6.976296e-004,9.175954e-006
6.546823e-004,-2.654814e-006
6.127074e-004,-1.610623e-005
5.789977e-004,-2.631635e-005
5.485294e-004,-3.377135e-005
5.114165e-004,-4.284701e-005
4.576108e-004,-5.483985e-005
3.809539e-004,-7.088431e-005
2.911697e-004,-8.692878e-005
2.083542e-004,-9.989400e-005
1.610312e-004,-1.084835e-004
1.663793e-004,-1.115627e-004
2.180782e-004,-1.115627e-004
2.854973e-004,-1.058904e-004
3.289309e-004,-9.162867e-005
3.260137e-004,-7.137050e-005
2.738286e-004,-5.240886e-005
1.874478e-004,-4.236081e-005
9.361198e-005,-5.111234e-005
2.149292e-005,-8.336334e-005
-6.220251e-006,-1.436516e-004
1.419998e-005,-2.329496e-004
7.400208e-005,-3.326198e-004
1.623277e-004,-4.123559e-004
2.673460e-004,-4.418518e-004
3.820883e-004,-4.087905e-004
5.078511e-004,-3.228959e-004
6.452825e-004,-2.042640e-004
8.002171e-004,-7.558420e-005
9.707100e-004,4.369587e-005
1.131641e-003,1.391524e-004
1.239739e-003,2.038164e-004
1.265021e-003,2.404432e-004
1.201815e-003,2.574600e-004
1.053687e-003,2.666978e-004
8.313336e-004,2.756114e-004
5.535535e-004,2.858215e-004
2.504912e-004,2.942489e-004
-3.928157e-005,2.984626e-004
-2.776796e-004,3.002453e-004
-4.326140e-004,2.965178e-004
-4.963057e-004,2.893869e-004
-4.941989e-004,2.825802e-004
-4.674581e-004,2.786906e-004
-4.429862e-004,2.838767e-004
-4.277521e-004,3.018659e-004
-4.123559e-004,3.316860e-004
-3.848048e-004,3.616681e-004
-3.423437e-004,3.796573e-004
-2.950206e-004,3.746333e-004
-2.493182e-004,3.407616e-004
-2.070192e-004,2.780423e-004
-1.595340e-004,1.855030e-004
-9.665269e-005,6.476436e-005
-9.137427e-006,-7.039811e-005
9.571883e-005,-1.917850e-004
1.991165e-004,-2.708729e-004
2.895490e-004,-2.998826e-004
3.644232e-004,-2.852967e-004
4.300596e-004,-2.374874e-004
4.937514e-004,-1.763888e-004
5.653843e-004,-1.178833e-004
6.516030e-004,-6.974985e-005
7.219394e-004,-3.911951e-005
7.211291e-004,-2.890940e-005
5.908285e-004,-3.539201e-005
3.164518e-004,-4.851930e-005
-3.539201e-005,-6.116039e-005
-3.660052e-004,-6.731887e-005
-6.009999e-004,-6.310517e-005
-7.311383e-004,-4.819516e-005
-7.945058e-004,-2.550602e-005
-8.463667e-004,-2.168618e-006
-9.317751e-004,1.517237e-005
-1.052028e-003,2.505835e-005
-1.176980e-003,3.089270e-005
-1.265306e-003,3.737532e-005
-1.285726e-003,4.936815e-005
-1.242454e-003,6.897806e-005
-1.180221e-003,9.571883e-005
-1.150725e-003,1.258630e-004
-1.181194e-003,1.524417e-004
-1.248289e-003,1.702689e-004
-1.300798e-003,1.744826e-004
-1.300636e-003,1.618415e-004
-1.229489e-003,1.338042e-004
-1.098702e-003,9.669123e-005
-9.387439e-004,5.893001e-005
-7.755441e-004,2.278944e-005
-6.257959e-004,-1.092015e-005
-4.979264e-004,-4.365734e-005
-3.912874e-004,-7.720485e-005
-3.029618e-004,-1.117248e-004
-2.335979e-004,-1.470550e-004
-1.865989e-004,-1.736337e-004
-1.587237e-004,-1.869231e-004
-1.298761e-004,-1.835197e-004
-8.514606e-005,-1.642339e-004
-3.895744e-005,-1.323070e-004
-2.145439e-005,-9.503204e-005
-4.738484e-005,-6.180866e-005
