5.311884e-004,3.326584e-004
5.661946e-004,3.273102e-004
5.752703e-004,3.308757e-004
5.495019e-004,3.498373e-004
4.733311e-004,3.804677e-004
3.240689e-004,4.154738e-004
8.680524e-005,4.439973e-004
-2.118811e-004,4.576108e-004
-5.099192e-004,4.503179e-004
-7.436173e-004,4.224426e-004
-8.530114e-004,3.739850e-004
-8.081193e-004,3.133726e-004
-6.210960e-004,2.519498e-004
-3.329439e-004,1.974959e-004
-8.327101e-006,1.513072e-004
2.666978e-004,1.072255e-004
4.229288e-004,6.249545e-005
4.462662e-004,2.376183e-005
3.723644e-004,-2.006553e-006
2.654013e-004,-1.562004e-005
1.848548e-004,-3.150244e-005
1.709172e-004,-6.877746e-005
2.370398e-004,-1.420310e-004
3.581026e-004,-2.514251e-004
4.845136e-004,-3.851289e-004
5.752703e-004,-5.194810e-004
6.055765e-004,-6.316302e-004
5.791598e-004,-7.134732e-004
5.093097e-004,-7.646859e-004
4.127187e-004,-7.898060e-004
3.102934e-004,-7.927231e-004
2.315296e-004,-7.718167e-004
1.965235e-004,-7.223868e-004
2.034923e-004,-6.421645e-004
2.279642e-004,-5.319601e-004
2.406053e-004,-4.021458e-004
2.276400e-004,-2.676316e-004
1.974959e-004,-1.434896e-004
1.644345e-004,-4.009191e-005
1.428799e-004,3.948217e-005
1.487142e-004,8.858796e-005
1.973338e-004,1.073875e-004
2.929524e-004,9.863601e-005
4.279528e-004,7.076078e-005
5.861287e-004,3.186510e-005
7.491665e-004,-3.627206e-006
8.979426e-004,-2.307504e-005
1.000044e-003,-1.950961e-005
1.032619e-003,5.934648e-006
9.937233e-004,4.239934e-005
9.003736e-004,7.918817e-005
7.780141e-004,1.099806e-004
6.533858e-004,1.344524e-004
5.425331e-004,1.571416e-004
4.469145e-004,1.832341e-004
3.566440e-004,2.109473e-004
2.563256e-004,2.307193e-004
1.428799e-004,2.339606e-004
4.045456e-005,2.219677e-004
-2.064406e-005,2.078681e-004
-2.339918e-005,2.148369e-004
2.603075e-005,2.519498e-004
9.879808e-005,3.096451e-004
1.652449e-004,3.631267e-004
2.057612e-004,3.880847e-004
2.149989e-004,3.746333e-004
2.025199e-004,3.266619e-004
1.880961e-004,2.662116e-004
1.871237e-004,2.172679e-004
1.913374e-004,1.892305e-004
1.620036e-004,1.820997e-004
4.693717e-005,1.871237e-004
-1.721751e-004,1.893926e-004
-4.465517e-004,1.710792e-004
-6.966184e-004,1.206769e-004
-8.734317e-004,3.494434e-005
-9.729397e-004,-7.509801e-005
-1.013618e-003,-1.925954e-004
-1.017021e-003,-3.034480e-004
-9.982219e-004,-3.969597e-004
-9.646744e-004,-4.655133e-004
-9.199444e-004,-5.031124e-004
-8.643559e-004,-5.055434e-004
-7.983954e-004,-4.744269e-004
-7.204420e-004,-4.185144e-004
-6.327647e-004,-3.459091e-004
-5.463839e-004,-2.608248e-004
-4.724821e-004,-1.648822e-004
-4.170558e-004,-5.856735e-005
-3.765395e-004,5.617490e-005
-3.439643e-004,1.692965e-004
-3.168994e-004,2.683184e-004
-2.993964e-004,3.422202e-004
-3.005308e-004,3.814401e-004
-3.196545e-004,3.908399e-004
-3.501228e-004,3.851676e-004
-3.776739e-004,3.835469e-004
-3.849669e-004,3.957018e-004
-3.617915e-004,4.240633e-004
-3.133340e-004,4.652279e-004
-2.535319e-004,5.089855e-004
-1.974573e-004,5.428572e-004
-1.600202e-004,5.527431e-004
-1.528894e-004,5.271368e-004
-1.712027e-004,4.713863e-004
-1.948643e-004,4.005638e-004
-2.044261e-004,3.281205e-004
-1.979435e-004,2.636185e-004
-1.807646e-004,2.072198e-004
-1.446240e-004,1.551968e-004
-7.428769e-005,1.009049e-004
3.429608e-005,3.883391e-005
1.665414e-004,-3.053005e-005
2.970040e-004,-1.065387e-004
4.072085e-004,-1.849783e-004
4.978030e-004,-2.583939e-004
5.768909e-004,-3.245165e-004
6.404206e-004,-3.888564e-004
6.533858e-004,-4.506033e-004
5.684635e-004,-5.039228e-004
3.616681e-004,-5.313118e-004
5.585077e-005,-5.157535e-004
-2.846485e-004,-4.501171e-004
-5.903036e-004,-3.509331e-004
-8.171950e-004,-2.485079e-004
-9.359888e-004,-1.658546e-004
-9.309648e-004,-1.084835e-004
-8.084435e-004,-6.618442e-005
-5.992171e-004,-2.583016e-005
-3.460712e-004,2.457216e-005
-9.373552e-005,8.842590e-005
1.278078e-004,1.605450e-004
3.122381e-004,2.302331e-004
4.696036e-004,2.835526e-004
6.073592e-004,3.096451e-004
7.193465e-004,3.030004e-004
7.887104e-004,2.671840e-004
8.075100e-004,2.177540e-004
7.776900e-004,1.746447e-004
7.029778e-004,1.467694e-004
5.820770e-004,1.265113e-004
4.085050e-004,1.018773e-004
1.869616e-004,6.492643e-005
-5.581224e-005,1.501031e-005
-2.815692e-004,-4.592625e-005
-4.549791e-004,-1.109144e-004
-5.587008e-004,-1.666649e-004
-6.005137e-004,-2.037779e-004
-6.055377e-004,-2.209568e-004
-5.954896e-004,-2.206326e-004
-5.763660e-004,-2.062088e-004
-5.489769e-004,-1.861127e-004
-5.133225e-004,-1.703924e-004
-4.634065e-004,-1.613168e-004
-3.888564e-004,-1.524032e-004
-2.896725e-004,-1.361966e-004
-1.898403e-004,-1.143178e-004
-1.310105e-004,-9.503204e-005
-1.365208e-004,-8.158062e-005
-1.836818e-004,-6.926366e-005
-2.258187e-004,-5.467778e-005
-2.246843e-004,-3.441962e-005
-1.724993e-004,-1.140634e-005
-9.017008e-005,1.533444e-005
-7.516774e-006,4.823370e-005
5.293359e-005,8.696731e-005
7.837785e-005,1.269974e-004
5.876794e-005,1.642725e-004
-8.975362e-006,1.944166e-004
-1.196660e-004,2.109473e-004
-2.397564e-004,2.094887e-004
-3.215994e-004,1.869616e-004
-3.378059e-004,1.488763e-004
-2.940482e-004,1.080358e-004
-2.104225e-004,7.853991e-005
-9.940781e-005,6.784360e-005
3.559260e-005,7.659513e-005
2.018716e-004,9.960841e-005
4.148255e-004,1.289422e-004
6.801266e-004,1.545486e-004
9.656859e-004,1.660552e-004
1.208298e-003,1.519555e-004
1.347999e-003,1.046324e-004
1.349133e-003,2.376183e-005
1.215105e-003,-8.190475e-005
1.002475e-003,-2.011848e-004
7.929241e-004,-3.157650e-004
6.509548e-004,-4.094387e-004
5.911527e-004,-4.708614e-004
5.830494e-004,-4.984126e-004
5.660325e-004,-5.001953e-004
4.858102e-004,-4.867439e-004
3.266619e-004,-4.650271e-004
1.154908e-004,-4.358554e-004
-1.138316e-004,-3.903150e-004
-3.444506e-004,-3.162512e-004
-5.765280e-004,-2.068571e-004
-8.136295e-004,-7.801519e-005
-1.035173e-003,4.094075e-005
-1.191242e-003,1.172735e-004
-1.225275e-003,1.325077e-004
-1.114261e-003,9.053275e-005
-8.904485e-004,6.744974e-006
-6.410300e-004,-9.405965e-005
-4.731304e-004,-1.838438e-004
-4.350450e-004,-2.340841e-004
-4.812336e-004,-2.310048e-004
-5.071641e-004,-1.843300e-004
-4.298589e-004,-1.161005e-004
-2.258187e-004,-4.527799e-005
6.865393e-005,1.889987e-005
3.950536e-004,7.319176e-005
7.036261e-004,1.175977e-004
9.629308e-004,1.545486e-004
1.160003e-003,1.880961e-004
1.292572e-003,2.260194e-004
1.364205e-003,2.725321e-004
1.384625e-003,3.226103e-004
1.363557e-003,3.671783e-004
1.303593e-003,4.034809e-004
1.206029e-003,4.297355e-004
1.080428e-003,4.475628e-004
9.480208e-004,4.525868e-004
8.331164e-004,4.316803e-004
7.418735e-004,3.770643e-004
6.661890e-004,2.957075e-004
5.896941e-004,2.039785e-004
5.028270e-004,1.222976e-004
4.016982e-004,6.379197e-005
2.897111e-004,3.510641e-005
1.814514e-004,3.299956e-005
9.166720e-005,4.077869e-005
2.311357e-005,3.380988e-005
-3.539201e-005,-4.761664e-006
-1.003802e-004,-7.493595e-005
-1.831956e-004,-1.558065e-004
-2.909690e-004,-2.133397e-004
-4.384484e-004,-2.152845e-004
-6.343853e-004,-1.524032e-004
-8.415048e-004,-3.571614e-005
-9.867153e-004,1.151667e-004
-1.008756e-003,2.806354e-004
-9.038999e-004,4.407560e-004
-7.278970e-004,5.783495e-004
-5.685869e-004,6.772094e-004
-4.857715e-004,7.306910e-004
-4.749131e-004,7.358771e-004
-4.791268e-004,6.926056e-004
-4.454172e-004,6.128695e-004
-3.546606e-004,5.187094e-004
-2.173914e-004,4.320045e-004
-5.500191e-005,3.626405e-004
1.094944e-004,3.065659e-004
2.511395e-004,2.590807e-004
3.457857e-004,2.179161e-004
3.754436e-004,1.791825e-004
3.410858e-004,1.399627e-004
2.636185e-004,9.750156e-005
1.702689e-004,4.547859e-005
8.048470e-005,-2.129233e-005
4.313994e-006,-9.632857e-005
-4.592625e-005,-1.663408e-004
-6.423963e-005,-2.149604e-004
-5.224680e-005,-2.342462e-004
-1.837515e-005,-2.182017e-004
2.651694e-005,-1.749302e-004
7.076078e-005,-1.232314e-004
1.057669e-004,-8.028410e-005
1.430419e-004,-4.949169e-005
2.030061e-004,-1.918548e-005
2.832284e-004,2.554455e-005
3.501615e-004,8.972242e-005
3.624784e-004,1.641104e-004
2.965178e-004,2.331503e-004
1.582761e-004,2.788527e-004
-2.339918e-005,2.877662e-004
-2.105846e-004,2.551911e-004
-3.512573e-004,1.846927e-004
-3.922598e-004,8.048470e-005
-3.149546e-004,-5.224680e-005
-1.566169e-004,-2.021572e-004
1.614476e-005,-3.496366e-004
1.500107e-004,-4.697270e-004
2.360674e-004,-5.361738e-004
2.974902e-004,-5.334187e-004
3.650715e-004,-4.627582e-004
4.509661e-004,-3.425058e-004
5.324850e-004,-1.974573e-004
5.715428e-004,-5.240886e-005
5.410745e-004,7.108491e-005
4.350837e-004,1.492004e-004
2.736666e-004,1.587623e-004
9.750156e-005,9.263960e-005
-4.787104e-005,-3.960571e-005
-1.253383e-004,-2.099363e-004
-1.222590e-004,-3.775118e-004
-6.213279e-005,-4.941989e-004
3.179537e-006,-5.267740e-004
1.549650e-005,-4.700511e-004
-4.754691e-005,-3.433161e-004
-1.587237e-004,-1.843300e-004
-2.697385e-004,-3.182657e-005
-3.433161e-004,8.615699e-005
-3.674638e-004,1.517934e-004
-3.604950e-004,1.490383e-004
-3.669776e-004,6.865393e-005
-4.416897e-004,-7.801519e-005
-6.118583e-004,-2.556388e-004
-8.423151e-004,-4.245108e-004
-1.051541e-003,-5.567560e-004
-1.160449e-003,-6.432990e-004
-1.129495e-003,-6.852738e-004
-9.700225e-004,-6.852738e-004
-7.300039e-004,-6.432990e-004
-4.677822e-004,-5.642111e-004
-2.321393e-004,-4.598410e-004
-4.787104e-005,-3.395886e-004
8.388807e-005,-2.100984e-004
1.752929e-004,-7.931171e-005
2.384984e-004,4.077869e-005
2.793389e-004,1.355869e-004
2.923041e-004,1.991165e-004
2.725321e-004,2.297469e-004
2.290986e-004,2.315296e-004
1.761032e-004,2.114335e-004
1.156529e-004,1.816135e-004
4.466826e-005,1.560072e-004
-3.117831e-005,1.440143e-004
-1.020008e-004,1.472556e-004
-1.587237e-004,1.581140e-004
-1.987538e-004,1.624898e-004
-2.240360e-004,1.456350e-004
-2.410529e-004,1.044704e-004
-2.538560e-004,5.455425e-005
-2.572594e-004,1.760335e-005
-2.389460e-004,1.193106e-005
-1.849783e-004,4.320967e-005
-9.357346e-005,1.047945e-004
2.278944e-005,1.820997e-004
1.438522e-004,2.566497e-004
2.602152e-004,3.093210e-004
3.757678e-004,3.263378e-004
5.029891e-004,3.081865e-004
6.572754e-004,2.631324e-004
8.553194e-004,2.068957e-004
1.102145e-003,1.589243e-004
1.372795e-003,1.334801e-004
1.599525e-003,1.300767e-004
1.684123e-003,1.435281e-004
1.552525e-003,1.670276e-004
1.187392e-003,1.970097e-004
6.365310e-004,2.295848e-004
-8.489166e-006,2.637806e-004
-6.291993e-004,2.984626e-004
-1.123498e-003,3.290929e-004
-1.428343e-003,3.574544e-004
-1.524610e-003,3.845193e-004
-1.430288e-003,4.073705e-004
-1.196590e-003,4.226047e-004
-8.893140e-004,4.282770e-004
-5.685869e-004,4.230909e-004
-2.989102e-004,4.031568e-004
-1.355484e-004,3.645853e-004
-8.692878e-005,3.055935e-004
-1.126972e-004,2.316917e-004
-1.548341e-004,1.584381e-004
-1.773612e-004,1.038221e-004
-1.742820e-004,7.935024e-005
-1.556445e-004,8.842590e-005
-1.339277e-004,1.197045e-004
-1.114006e-004,1.589243e-004
-7.898758e-005,1.932822e-004
-2.874733e-005,2.179161e-004
3.478228e-005,2.260194e-004
9.879808e-005,2.127300e-004
1.511452e-004,1.741585e-004
1.876099e-004,1.163011e-004
2.143507e-004,5.131294e-005
2.341226e-004,-2.816880e-006
2.428742e-004,-3.263690e-005
2.441707e-004,-3.749886e-005
2.435224e-004,-2.420950e-005
2.535705e-004,-2.168618e-006
2.843629e-004,2.197911e-005
3.363859e-004,3.948217e-005
4.026706e-004,4.645098e-005
4.673347e-004,4.013043e-005
5.136854e-004,2.392390e-005
5.381573e-004,6.907040e-006
5.452881e-004,-7.100305e-007
5.294057e-004,3.665733e-006
4.814344e-004,9.824215e-006
4.020224e-004,1.014835e-005
3.102934e-004,1.720949e-006
2.337985e-004,-1.205460e-005
2.018716e-004,-2.923353e-005
2.218057e-004,-5.046408e-005
2.798251e-004,-7.266703e-005
3.535648e-004,-9.146661e-005
4.200116e-004,-1.041077e-004
4.590694e-004,-1.107524e-004
4.618245e-004,-1.159385e-004
4.264942e-004,-1.209625e-004
3.535648e-004,-1.245279e-004
2.501671e-004,-1.251762e-004
1.398006e-004,-1.245279e-004
4.142696e-005,-1.277692e-004
-4.155049e-005,-1.433275e-004
-1.208004e-004,-1.760647e-004
-2.019951e-004,-2.185258e-004
-2.734659e-004,-2.501286e-004
-3.078238e-004,-2.569353e-004
-2.778417e-004,-2.310048e-004
-1.702304e-004,-1.715269e-004
-1.027188e-005,-8.012204e-005
1.441764e-004,2.651694e-005
2.372019e-004,1.239182e-004
2.350950e-004,1.871237e-004
1.362352e-004,2.055991e-004
-2.680255e-005,1.780480e-004
-2.062088e-004,1.166253e-004
-3.588744e-004,4.077869e-005
-4.499550e-004,-3.069211e-005
-4.625961e-004,-8.563225e-005
-4.155972e-004,-1.242038e-004
-3.567675e-004,-1.527273e-004
-3.314853e-004,-1.781716e-004
-3.543365e-004,-2.086398e-004
-4.024699e-004,-2.472114e-004
-4.342347e-004,-2.861070e-004
-4.152731e-004,-3.151167e-004
-3.326198e-004,-3.253268e-004
-2.010227e-004,-3.066893e-004
-6.553616e-005,-2.582318e-004
1.857574e-005,-1.896782e-004
1.889987e-005,-1.253383e-004
-5.953974e-005,-7.995997e-005
-1.778474e-004,-5.095028e-005
-2.955068e-004,-2.307504e-005
-3.849669e-004,1.014835e-005
-4.358554e-004,4.661304e-005
-4.515757e-004,7.724339e-005
-4.462276e-004,9.361199e-005
-4.282383e-004,9.150514e-005
-3.906392e-004,6.978839e-005
-3.152788e-004,3.834771e-005
-1.890299e-004,9.986281e-006
-2.566809e-005,-7.030578e-006
1.365593e-004,-9.299493e-006
2.488706e-004,1.720949e-006
2.720459e-004,1.922400e-005
1.996027e-004,3.073064e-005
7.562274e-005,2.862379e-005
-1.610624e-005,1.906194e-005
2.531276e-006,1.338965e-005
1.506590e-004,2.214118e-005
3.785229e-004,4.564065e-005
5.952043e-004,7.124698e-005
7.170775e-004,7.853991e-005
7.141604e-004,5.649903e-005
6.261588e-004,2.045080e-006
5.383193e-004,-8.336335e-005
5.198439e-004,-1.853024e-004
5.977973e-004,-2.799486e-004
7.462493e-004,-3.368335e-004
9.000494e-004,-3.425058e-004
9.904819e-004,-3.002067e-004
9.838373e-004,-2.240360e-004
8.904876e-004,-1.407345e-004
7.533802e-004,-7.266703e-005
6.243761e-004,-3.620233e-005
5.439916e-004,-3.604027e-005
5.238955e-004,-6.116039e-005
5.517708e-004,-9.341139e-005
5.961767e-004,-1.141558e-004
6.135177e-004,-1.126972e-004
5.572810e-004,-1.011905e-004
3.965121e-004,-1.018388e-004
1.304008e-004,-1.292278e-004
-2.076674e-004,-1.737958e-004
-5.554595e-004,-2.045882e-004
-8.487977e-004,-1.854645e-004
-1.050245e-003,-9.875954e-005
-1.158018e-003,4.790957e-005
-1.192052e-003,2.299089e-004
-1.180545e-003,4.119083e-004
-1.148943e-003,5.632775e-004
-1.115071e-003,6.601926e-004
-1.078606e-003,6.893643e-004
-1.027718e-003,6.517651e-004
-9.496023e-004,5.653843e-004
-8.338877e-004,4.530729e-004
-6.841394e-004,3.324963e-004
-5.126743e-004,2.090025e-004
-3.463953e-004,8.469840e-005
-2.118811e-004,-3.701266e-005
-1.193418e-004,-1.421931e-004
-6.667062e-005,-2.123673e-004
-4.625038e-005,-2.350565e-004
-5.192267e-005,-2.094502e-004
-8.303922e-005,-1.457585e-004
-1.342519e-004,-6.294311e-005
-1.966470e-004,2.052053e-005
-2.444563e-004,9.053275e-005
-2.438080e-004,1.440143e-004
-1.820611e-004,1.780480e-004
-7.688073e-005,1.934442e-004
3.526847e-005,1.880961e-004
1.208390e-004,1.649207e-004
1.662173e-004,1.326697e-004
1.714034e-004,1.044704e-004
1.438522e-004,8.599492e-005
9.393612e-005,7.643307e-005
3.834771e-005,7.173317e-005
-1.869928e-005,6.881599e-005
-7.898758e-005,6.589881e-005
-1.426792e-004,6.314371e-005
-2.065330e-004,6.330578e-005
-2.504527e-004,6.930219e-005
-2.478596e-004,8.242948e-005
-1.838438e-004,1.015532e-004
-6.407757e-005,1.226217e-004
9.166720e-005,1.456350e-004
2.537325e-004,1.710792e-004
3.944053e-004,1.974959e-004
4.982892e-004,2.213195e-004
5.569569e-004,2.388225e-004
5.665187e-004,2.467637e-004
5.248679e-004,2.457913e-004
4.329769e-004,2.339606e-004
2.992729e-004,2.106232e-004
1.410971e-004,1.764274e-004
-2.978945e-006,1.391524e-004
-8.919769e-005,1.141943e-004
-9.146661e-005,1.158149e-004
-1.513384e-005,1.401247e-004
1.107909e-004,1.765894e-004
2.521119e-004,2.119197e-004
3.778746e-004,2.316917e-004
4.713863e-004,2.287745e-004
5.224369e-004,2.106232e-004
5.260024e-004,1.927960e-004
4.794896e-004,1.830721e-004
3.947294e-004,1.830721e-004
2.843629e-004,1.824238e-004
1.623277e-004,1.642725e-004
4.450620e-005,1.151667e-004
-5.565017e-005,3.462021e-005
-1.349001e-004,-6.569822e-005
-1.950263e-004,-1.645581e-004
-2.334358e-004,-2.515871e-004
-2.407288e-004,-3.254889e-004
-2.157707e-004,-3.976080e-004
-1.737958e-004,-4.758855e-004
-1.383035e-004,-5.554595e-004
-1.250141e-004,-6.136410e-004
-1.313347e-004,-6.253097e-004
-1.462447e-004,-5.817142e-004
-1.464067e-004,-4.862577e-004
-1.092938e-004,-3.515814e-004
-2.712668e-005,-1.964849e-004
8.680524e-005,-3.960571e-005
2.064095e-004,1.034980e-004
2.968419e-004,2.261814e-004
3.328204e-004,3.328204e-004
3.109416e-004,4.328148e-004
2.506533e-004,5.300540e-004
1.811273e-004,6.206486e-004
1.297526e-004,6.945504e-004
1.201907e-004,7.423597e-004
1.636242e-004,7.554871e-004
2.534084e-004,7.310151e-004
3.712299e-004,6.644063e-004
4.922928e-004,5.579292e-004
5.848321e-004,4.190393e-004
6.269692e-004,2.597290e-004
6.068730e-004,9.150514e-005
5.269747e-004,-6.877746e-005
3.955397e-004,-2.011848e-004
2.256952e-004,-2.938862e-004
5.212327e-005,-3.447747e-004
-7.720486e-005,-3.579019e-004
-1.261486e-004,-3.418575e-004
-8.741498e-005,-3.104168e-004
3.989864e-006,-2.801106e-004
9.620504e-005,-2.566112e-004
1.509831e-004,-2.371633e-004
1.576278e-004,-2.162569e-004
1.263492e-004,-2.000504e-004
8.145709e-005,-1.984297e-004
4.920609e-005,-2.125294e-004
4.774750e-005,-2.311669e-004
8.016057e-005,-2.405667e-004
1.269974e-004,-2.297083e-004
1.487142e-004,-2.013469e-004
1.010670e-004,-1.689338e-004
-3.328516e-005,-1.462447e-004
-2.303566e-004,-1.358725e-004
-4.303451e-004,-1.264727e-004
-5.676145e-004,-1.002181e-004
-6.019723e-004,-4.965376e-005
-5.428185e-004,1.679302e-005
-4.491447e-004,8.080883e-005
-3.959873e-004,1.271595e-004
-4.293727e-004,1.488763e-004
-5.374703e-004,1.428799e-004
-6.698776e-004,1.166253e-004
-7.697099e-004,7.999851e-005
-7.941817e-004,4.369587e-005
-7.165525e-004,1.906194e-005
-5.392530e-004,9.175954e-006
-2.961551e-004,9.175954e-006
-3.571614e-005,1.031041e-005
2.064095e-004,-1.844488e-006
4.029947e-004,-3.620233e-005
5.422090e-004,-8.919769e-005
6.235657e-004,-1.439758e-004
6.559788e-004,-1.859507e-004
6.511169e-004,-2.037779e-004
6.203245e-004,-1.966470e-004
5.791598e-004,-1.712027e-004
5.423710e-004,-1.374932e-004
5.093097e-004,-1.024871e-004
4.679830e-004,-7.250496e-005
4.067223e-004,-5.062615e-005
3.393030e-004,-3.182657e-005
2.803113e-004,-6.544382e-006
2.318537e-004,3.056858e-005
1.903650e-004,7.691926e-005
1.573037e-004,1.221355e-004
1.362352e-004,1.598967e-004
1.234320e-004,1.940925e-004
1.059290e-004,2.302331e-004
7.400208e-005,2.649151e-004
2.748934e-005,2.892249e-004
-2.712668e-005,2.986247e-004
-7.120844e-005,2.918179e-004
-8.320128e-005,2.707494e-004
-5.224680e-005,2.410915e-004
2.295151e-005,2.093267e-004
1.420695e-004,1.782101e-004
2.945730e-004,1.508211e-004
4.529109e-004,1.255389e-004
5.871011e-004,9.798775e-005
6.650545e-004,6.508849e-005
6.644063e-004,2.538249e-005
5.739738e-004,-2.453363e-005
3.966742e-004,-8.530812e-005
1.448246e-004,-1.483515e-004
-1.488377e-004,-1.959987e-004
-4.366657e-004,-2.160948e-004
-6.702017e-004,-2.079916e-004
-8.212466e-004,-1.705545e-004
-8.860728e-004,-1.091317e-004
-8.889899e-004,-3.636440e-005
-8.616009e-004,2.943412e-005
-8.170329e-004,7.416415e-005
-7.562584e-004,9.101894e-005
-6.953219e-004,7.999851e-005
-6.651777e-004,5.277153e-005
-6.870566e-004,1.501031e-005
-7.538275e-004,-3.247483e-005
-8.332395e-004,-8.903562e-005
-8.935277e-004,-1.528894e-004
-9.141100e-004,-2.214430e-004
-8.836418e-004,-2.898345e-004
-8.056884e-004,-3.459091e-004
-6.967805e-004,-3.707051e-004
-5.753936e-004,-3.577399e-004
-4.481723e-004,-3.190063e-004
-3.113892e-004,-2.720074e-004
-1.618029e-004,-2.331117e-004
1.558884e-006,-2.084778e-004
1.728619e-004,-1.947022e-004
3.519442e-004,-1.877334e-004
5.319988e-004,-1.831956e-004
6.986021e-004,-1.755785e-004
8.329543e-004,-1.618029e-004
9.182008e-004,-1.420310e-004
9.506139e-004,-1.190177e-004
9.425106e-004,-9.535618e-005
9.092872e-004,-7.072225e-005
8.595330e-004,-4.625038e-005
7.832003e-004,-2.583016e-005
6.631098e-004,-7.030578e-006
5.012064e-004,1.598270e-005
3.239069e-004,4.709924e-005
1.602208e-004,8.291568e-005
3.008238e-005,1.180839e-004
-5.937768e-005,1.479039e-004
-1.186936e-004,1.725378e-004
-1.595340e-004,1.952270e-004
-1.877334e-004,2.167816e-004
-2.032917e-004,2.363916e-004
-2.026434e-004,2.504913e-004
-1.883817e-004,2.628082e-004
-1.731475e-004,2.757735e-004
-1.616409e-004,2.874421e-004
-1.494860e-004,2.929524e-004
-1.243659e-004,2.866318e-004
-7.882551e-005,2.746390e-004
-3.141010e-006,2.658874e-004
1.018773e-004,2.632944e-004
2.169437e-004,2.645909e-004
3.124002e-004,2.628082e-004
3.681507e-004,2.493568e-004
3.777126e-004,2.222919e-004
3.431926e-004,1.874478e-004
2.688046e-004,1.587623e-004
1.692965e-004,1.479039e-004
6.249545e-005,1.569795e-004
-2.550602e-005,1.848548e-004
-8.239095e-005,2.260194e-004
-1.013526e-004,2.738286e-004
-8.271508e-005,3.188828e-004
-4.398147e-005,3.538890e-004
-6.058186e-006,3.772264e-004
2.197911e-005,3.856538e-004
4.450620e-005,3.741471e-004
7.059871e-005,3.397893e-004
1.124116e-004,2.919800e-004
1.731861e-004,2.436845e-004
2.352571e-004,1.978200e-004
2.785285e-004,1.526038e-004
2.952213e-004,1.059290e-004
2.901973e-004,5.730935e-005
2.658874e-004,8.365628e-006
2.271538e-004,-3.555408e-005
1.905271e-004,-6.796714e-005
1.731861e-004,-8.077030e-005
1.822617e-004,-7.266703e-005
2.180782e-004,-5.289507e-005
2.762596e-004,-3.830919e-005
3.402755e-004,-4.446767e-005
3.848434e-004,-7.477388e-005
3.893813e-004,-1.196660e-004
3.428685e-004,-1.622891e-004
2.467637e-004,-1.854645e-004
1.232699e-004,-1.825473e-004
7.717366e-006,-1.603444e-004
-6.261898e-005,-1.339277e-004
-7.088431e-005,-1.097800e-004
-2.388537e-005,-8.644259e-005
4.499239e-005,-6.261898e-005
8.648112e-005,-3.766092e-005
5.730935e-005,-1.254080e-005
-5.305713e-005,1.452411e-005
-2.178775e-004,3.964424e-005
-3.885323e-004,4.904402e-005
-5.081365e-004,3.073064e-005
-5.364979e-004,-1.237873e-005
-4.703753e-004,-6.764301e-005
-3.472056e-004,-1.253383e-004
-2.303566e-004,-1.784957e-004
-1.788198e-004,-2.217671e-004
-2.156086e-004,-2.478596e-004
-3.193304e-004,-2.501286e-004
-4.574101e-004,-2.277635e-004
-6.060239e-004,-1.874093e-004
-7.476690e-004,-1.392759e-004
-8.546321e-004,-9.049421e-005
-8.915829e-004,-5.046408e-005
-8.299981e-004,-2.955766e-005
-6.645294e-004,-2.501983e-005
-4.121938e-004,-2.907146e-005
-1.073490e-004,-2.842320e-005
2.060853e-004,-1.335113e-005
4.764104e-004,1.922400e-005
6.514410e-004,6.184718e-005
6.984400e-004,1.091703e-004
6.198382e-004,1.537382e-004
4.535592e-004,1.840444e-004
2.506533e-004,1.923098e-004
5.293359e-005,1.798307e-004
-1.151281e-004,1.522796e-004
-2.370013e-004,1.245665e-004
-3.134961e-004,1.047945e-004
-3.593606e-004,9.101894e-005
-3.810773e-004,7.837785e-005
-3.723258e-004,6.184718e-005
-3.214373e-004,3.948217e-005
-2.251705e-004,1.938607e-005
-9.373552e-005,1.371378e-005
5.115087e-005,3.040651e-005
1.832341e-004,6.832980e-005
2.806354e-004,1.151667e-004
3.297412e-004,1.551968e-004
3.286068e-004,1.762653e-004
2.856594e-004,1.761032e-004
2.153231e-004,1.607070e-004
1.291043e-004,1.386662e-004
4.094075e-005,1.185701e-004
-2.615429e-005,1.093323e-004
-5.127441e-005,1.133840e-004
-2.809907e-005,1.222976e-004
4.434413e-005,1.255389e-004
1.530900e-004,1.198666e-004
2.621599e-004,1.088461e-004
3.333067e-004,1.000946e-004
3.521062e-004,1.015532e-004
3.287688e-004,1.127357e-004
2.884145e-004,1.231079e-004
2.545429e-004,1.172735e-004
2.410915e-004,8.631905e-005
2.555152e-004,3.721326e-005
2.939248e-004,-1.043395e-005
3.396272e-004,-4.300908e-005
3.728506e-004,-5.824322e-005
3.728506e-004,-6.553616e-005
3.271482e-004,-6.829127e-005
2.396328e-004,-6.974985e-005
1.174356e-004,-7.072225e-005
-2.437157e-005,-7.509801e-005
-1.643960e-004,-8.676672e-005
-2.758969e-004,-1.037836e-004
-3.376438e-004,-1.214487e-004
-3.348887e-004,-1.332795e-004
-2.621213e-004,-1.365208e-004
-1.365208e-004,-1.297140e-004
-2.006553e-006,-1.180453e-004
8.907416e-005,-1.088076e-004
1.041462e-004,-1.097800e-004
4.450620e-005,-1.266348e-004
-4.770897e-005,-1.608306e-004
-1.089697e-004,-2.031296e-004
-8.854943e-005,-2.405667e-004
1.954813e-005,-2.608248e-004
1.694586e-004,-2.543422e-004
3.030004e-004,-2.227395e-004
3.851676e-004,-1.726613e-004
4.067223e-004,-1.131834e-004
3.785229e-004,-5.743289e-005
3.177483e-004,-1.545797e-005
2.329882e-004,9.500085e-006
1.265113e-004,1.014835e-005
-3.465141e-006,-7.516774e-006
-1.464067e-004,-3.247483e-005
-2.726556e-004,-5.808115e-005
-3.514194e-004,-8.741498e-005
-3.650328e-004,-1.225832e-004
-3.175477e-004,-1.536997e-004
-2.271153e-004,-1.689338e-004
-1.264727e-004,-1.558065e-004
-4.770897e-005,-1.117248e-004
-6.220252e-006,-4.608832e-005
9.106227e-007,2.748934e-005
-7.192643e-006,9.620504e-005
-1.092015e-005,1.511452e-004
3.989864e-006,1.889064e-004
3.494434e-005,2.111094e-004
6.719535e-005,2.159713e-004
8.712937e-005,2.057612e-004
9.263960e-005,1.864754e-004
8.875003e-005,1.645966e-004
8.761557e-005,1.448246e-004
9.944634e-005,1.252147e-004
1.252147e-004,1.009049e-004
1.573037e-004,6.719535e-005
1.882582e-004,1.841368e-005
2.169437e-004,-3.604027e-005
2.527602e-004,-8.044617e-005
3.042970e-004,-1.011905e-004
3.628026e-004,-1.026491e-004
4.055878e-004,-9.470791e-005
4.237391e-004,-8.303922e-005
4.060740e-004,-6.991193e-005
3.448133e-004,-5.370539e-005
2.367157e-004,-3.490581e-005
9.426025e-005,-1.432352e-005
-4.025397e-005,9.824215e-006
-1.224211e-004,4.191315e-005
-1.305243e-004,8.323981e-005
-7.736692e-005,1.281319e-004
2.045080e-006,1.688103e-004
7.319176e-005,2.012234e-004
1.137081e-004,2.171058e-004
1.166253e-004,2.124059e-004
9.085688e-005,1.895547e-004
5.163707e-005,1.576278e-004
6.744974e-006,1.250527e-004
-3.296103e-005,9.539470e-005
-6.472583e-005,7.481241e-005
-9.292520e-005,7.221937e-005
-1.170729e-004,9.555677e-005
-1.357104e-004,1.427178e-004
-1.455964e-004,2.036544e-004
-1.502963e-004,2.663737e-004
-1.679614e-004,3.203414e-004
-2.096122e-004,3.571303e-004
-2.640662e-004,3.746333e-004
-3.029619e-004,3.746333e-004
-3.089583e-004,3.597233e-004
-2.887001e-004,3.328204e-004
-2.605007e-004,2.945730e-004
-2.415391e-004,2.391467e-004
-2.266291e-004,1.633001e-004
-2.042641e-004,7.108491e-005
-1.600202e-004,-3.053005e-005
-8.935975e-005,-1.264727e-004
2.693341e-006,-2.016710e-004
9.896015e-005,-2.502906e-004
1.733481e-004,-2.760590e-004
2.015475e-004,-2.901587e-004
1.762653e-004,-2.971275e-004
1.114392e-004,-2.934000e-004
3.753739e-005,-2.746004e-004
-2.015787e-005,-2.417012e-004
-4.122636e-005,-1.927574e-004
-1.886135e-005,-1.303623e-004
4.337174e-005,-6.942573e-005
1.328318e-004,-2.550602e-005
2.310434e-004,-8.651231e-006
3.209897e-004,-1.821308e-005
3.828986e-004,-4.187462e-005
3.979707e-004,-6.650855e-005
3.558337e-004,-7.947377e-005
2.493568e-004,-7.461182e-005
8.323981e-005,-5.257093e-005
-1.143178e-004,-1.950961e-005
-3.055549e-004,1.355172e-005
-4.544929e-004,3.640293e-005
-5.285567e-004,4.564065e-005
-5.183466e-004,4.272347e-005
-4.426621e-004,3.073064e-005
-3.363473e-004,1.630683e-005
-2.313290e-004,1.257933e-005
-1.441378e-004,2.748934e-005
-8.417367e-005,6.006447e-005
-5.240886e-005,1.005808e-004
-4.333321e-005,1.282940e-004
-5.467778e-005,1.282940e-004
-8.287715e-005,1.009049e-004
-1.222590e-004,6.103686e-005
-1.603444e-004,2.603075e-005
-1.783336e-004,8.365628e-006
-1.645581e-004,1.063454e-005
-1.180453e-004,2.943412e-005
-5.386745e-005,5.876794e-005
4.800190e-006,9.182927e-005
3.591673e-005,1.218114e-004
3.348575e-005,1.470936e-004
1.209313e-005,1.705930e-004
-2.978945e-006,1.958752e-004
7.231170e-006,2.219677e-004
5.341979e-005,2.423880e-004
1.310491e-004,2.577842e-004
2.273159e-004,2.707494e-004
3.232586e-004,2.816078e-004
4.091532e-004,2.903593e-004
4.866205e-004,2.971661e-004
5.587396e-004,3.005694e-004
6.271312e-004,3.002453e-004
6.898505e-004,2.979764e-004
7.413874e-004,2.926282e-004
7.702350e-004,2.795009e-004
7.592146e-004,2.543808e-004
6.968193e-004,2.104611e-004
5.781874e-004,1.438522e-004
4.122325e-004,5.730935e-005
2.151610e-004,-4.479180e-005
1.396819e-006,-1.543479e-004
-2.123673e-004,-2.601766e-004
-4.128421e-004,-3.472056e-004
-5.826865e-004,-4.052250e-004
-7.131490e-004,-4.342347e-004
-8.144398e-004,-4.434724e-004
-9.102205e-004,-4.425001e-004
-1.014428e-003,-4.360174e-004
-1.111830e-003,-4.175420e-004
-1.168553e-003,-3.776739e-004
-1.159801e-003,-3.097686e-004
-1.081686e-003,-2.185258e-004
-9.406887e-004,-1.146419e-004
-7.470207e-004,-1.189254e-005
-5.152673e-004,8.064677e-005
-2.689281e-004,1.579519e-004
-3.004385e-005,2.159713e-004
1.825859e-004,2.506533e-004
3.576164e-004,2.585945e-004
4.824068e-004,2.375260e-004
5.459364e-004,1.892305e-004
5.584154e-004,1.214872e-004
5.405883e-004,4.953022e-005
5.144958e-004,-1.221667e-005
4.888894e-004,-5.305713e-005
4.692795e-004,-7.331530e-005
4.495075e-004,-8.190475e-005
4.294114e-004,-8.384954e-005
4.110980e-004,-8.077030e-005
3.921364e-004,-7.137051e-005
3.647473e-004,-5.613637e-005
3.117519e-004,-3.539201e-005
2.224539e-004,-1.221667e-005
1.127357e-004,1.047248e-005
8.527692e-006,2.732727e-005
-7.120844e-005,3.915804e-005
-1.138316e-004,4.499239e-005
-1.126972e-004,4.207521e-005
-7.704279e-005,3.299956e-005
-2.664048e-005,2.230325e-005
1.095867e-005,1.031041e-005
1.906194e-005,-2.654814e-006
-4.275467e-006,-1.286493e-005
-4.706071e-005,-1.788895e-005
-8.806324e-005,-2.323711e-005
-1.031353e-004,-3.263690e-005
-6.845333e-005,-4.090223e-005
1.695509e-005,-4.155049e-005
1.263492e-004,-3.263690e-005
2.268297e-004,-1.886135e-005
3.036487e-004,-1.156841e-005
3.645853e-004,-1.869928e-005
4.284390e-004,-4.106429e-005
5.080132e-004,-7.120844e-005
6.013628e-004,-9.924574e-005
6.932539e-004,-1.139937e-004
7.605111e-004,-1.114006e-004
7.763935e-004,-9.519411e-005
7.198326e-004,-6.974985e-005
5.785116e-004,-3.701266e-005
3.673404e-004,-3.858999e-007
1.253768e-004,3.915804e-005
-1.036215e-004,8.259155e-005
-2.861070e-004,1.302388e-004
-3.990665e-004,1.816135e-004
-4.298589e-004,2.350950e-004
-3.786463e-004,2.906835e-004
-2.635799e-004,3.456236e-004
-1.120489e-004,3.903536e-004
5.244739e-005,4.140152e-004
2.179161e-004,4.094774e-004
3.769022e-004,3.824125e-004
5.251921e-004,3.443271e-004
6.525755e-004,3.026763e-004
7.405770e-004,2.568118e-004
7.684522e-004,2.018716e-004
7.209671e-004,1.367214e-004
5.828873e-004,5.990240e-005
3.608578e-004,-2.388537e-005
9.960841e-005,-1.078352e-004
-1.405724e-004,-1.828714e-004
-3.203028e-004,-2.412149e-004
-4.318037e-004,-2.746004e-004
-4.951713e-004,-2.835140e-004
-5.486528e-004,-2.757348e-004
-6.256338e-004,-2.663351e-004
-7.319486e-004,-2.645523e-004
-8.392359e-004,-2.747625e-004
-8.988759e-004,-2.924276e-004
-8.742420e-004,-3.029619e-004
-7.791097e-004,-2.885380e-004
-6.732810e-004,-2.392702e-004
-6.121824e-004,-1.567789e-004
-6.100755e-004,-5.532604e-005
-6.303337e-004,3.899597e-005
-6.167202e-004,1.043083e-004
-5.444391e-004,1.291043e-004
-4.292107e-004,1.111150e-004
-3.097686e-004,5.811968e-005
-2.279256e-004,-1.480971e-005
-2.003745e-004,-8.790117e-005
-2.194982e-004,-1.405724e-004
-2.627696e-004,-1.596961e-004
-2.951827e-004,-1.451102e-004
-2.914552e-004,-1.071869e-004
-2.489941e-004,-6.715681e-005
-1.916230e-004,-4.138842e-005
-1.509446e-004,-3.474375e-005
-1.418689e-004,-3.620233e-005
-1.616409e-004,-2.534396e-005
-1.935677e-004,6.420843e-006
-2.157707e-004,5.325772e-005
-2.118811e-004,1.065772e-004
-1.810887e-004,1.571416e-004
-1.302002e-004,2.010613e-004
-6.683268e-005,2.368777e-004
4.476060e-006,2.623220e-004
9.037068e-005,2.752873e-004
1.939304e-004,2.765838e-004
3.012177e-004,2.623220e-004
3.939191e-004,2.274780e-004
4.548557e-004,1.722137e-004
4.775448e-004,1.012291e-004
4.704139e-004,2.473423e-005
4.480489e-004,-4.333321e-005
4.279528e-004,-9.341139e-005
4.237391e-004,-1.208004e-004
4.349216e-004,-1.303623e-004
4.506420e-004,-1.258245e-004
4.555039e-004,-1.096179e-004
4.412422e-004,-8.222889e-005
4.123946e-004,-4.414354e-005
3.859779e-004,-5.479652e-007
3.786850e-004,4.304761e-005
3.929467e-004,8.437427e-005
4.255218e-004,1.279698e-004
4.743035e-004,1.730240e-004
5.388056e-004,2.111094e-004
6.133557e-004,2.339606e-004
6.853127e-004,2.427121e-004
7.357151e-004,2.378501e-004
7.532181e-004,2.203471e-004
7.486803e-004,1.939304e-004
7.480320e-004,1.684862e-004
7.593766e-004,1.516314e-004
7.592146e-004,1.433661e-004
7.161052e-004,1.381800e-004
6.070351e-004,1.302388e-004
4.320045e-004,1.153287e-004
2.146748e-004,9.361199e-005
-6.058186e-006,6.995045e-005
-1.948643e-004,5.487838e-005
-3.334301e-004,5.828175e-005
-4.241867e-004,8.194328e-005
-4.796130e-004,1.153287e-004
-5.092709e-004,1.412592e-004
-5.097571e-004,1.511452e-004
-4.726442e-004,1.440143e-004
-3.955011e-004,1.261871e-004
-2.901587e-004,1.103047e-004
-1.781716e-004,1.036600e-004
-8.271508e-005,1.049566e-004
-1.156841e-005,1.124116e-004
3.364782e-005,1.213252e-004
5.228533e-005,1.253768e-004
4.450620e-005,1.150046e-004
2.278944e-005,7.983644e-005
7.393236e-006,1.241726e-005
5.124321e-006,-7.963584e-005
4.151929e-006,-1.712027e-004
-1.594417e-005,-2.357047e-004
-7.574627e-005,-2.551526e-004
-1.755785e-004,-2.295462e-004
-2.878898e-004,-1.718510e-004
-3.741085e-004,-9.956988e-005
-4.123559e-004,-3.409549e-005
-4.008493e-004,7.555301e-006
-3.418575e-004,2.181705e-005
-2.441321e-004,2.230325e-005
-1.389517e-004,2.214118e-005
-6.456377e-005,2.619281e-005
-4.252288e-005,3.332369e-005
-6.683268e-005,3.721326e-005
-1.037836e-004,3.737532e-005
-1.190177e-004,3.591673e-005
-9.049421e-005,3.445814e-005
-2.064406e-005,2.910999e-005
5.957827e-005,1.663096e-005
1.146805e-004,-5.247859e-006
1.153287e-004,-3.555408e-005
6.006447e-005,-6.699475e-005
-2.420950e-005,-9.486997e-005
-1.057284e-004,-1.144799e-004
-1.710407e-004,-1.208004e-004
-2.204706e-004,-1.123730e-004
-2.595283e-004,-9.130454e-005
-2.950206e-004,-6.213279e-005
-3.269475e-004,-3.506788e-005
-3.514194e-004,-2.015787e-005
-3.674638e-004,-2.113026e-005
-3.732982e-004,-3.409549e-005
-3.614674e-004,-4.835724e-005
-3.173856e-004,-5.013995e-005
-2.282497e-004,-2.615429e-005
-9.422172e-005,2.894792e-005
6.314371e-005,1.047945e-004
2.146748e-004,1.808031e-004
3.435168e-004,2.397949e-004
4.456179e-004,2.741528e-004
5.253541e-004,2.861456e-004
5.820770e-004,2.759355e-004
6.088178e-004,2.482223e-004
5.919630e-004,2.083542e-004
5.256782e-004,1.571416e-004
4.216323e-004,9.069481e-005
3.070520e-004,8.527692e-006
2.164575e-004,-8.174268e-005
1.694586e-004,-1.632615e-004
1.560072e-004,-2.180396e-004
1.487142e-004,-2.418632e-004
1.214872e-004,-2.460769e-004
6.719535e-005,-2.455907e-004
3.503668e-006,-2.473734e-004
-4.300908e-005,-2.520733e-004
-4.641245e-005,-2.527216e-004
-3.303076e-006,-2.404046e-004
6.557468e-005,-2.078295e-004
1.237561e-004,-1.561307e-004
1.469315e-004,-9.422172e-005
1.261871e-004,-3.895745e-005
6.930219e-005,-3.303076e-006
-9.461558e-006,7.393236e-006
-8.952183e-005,-1.520357e-006
-1.478653e-004,-1.578211e-005
-1.616409e-004,-2.404744e-005
-1.186936e-004,-2.307504e-005
-2.923353e-005,-1.286493e-005
7.270556e-005,6.744974e-006
1.443384e-004,3.769945e-005
1.540623e-004,7.675720e-005
9.118101e-005,1.229458e-004
-3.604027e-005,1.767515e-004
-2.024813e-004,2.336365e-004
-3.711913e-004,2.814457e-004
-5.170500e-004,3.083486e-004
-6.313061e-004,3.083486e-004
-7.170386e-004,2.827423e-004
-7.849440e-004,2.378501e-004
-8.452323e-004,1.856651e-004
-8.881796e-004,1.334801e-004
-8.899623e-004,9.231547e-005
-8.275671e-004,6.330578e-005
-7.024527e-004,4.369587e-005
-5.345531e-004,2.846173e-005
-3.442885e-004,1.014835e-005
-1.532135e-004,-1.367526e-005
1.387585e-005,-3.279896e-005
1.344524e-004,-3.652646e-005
1.945787e-004,-2.323711e-005
1.879340e-004,4.244267e-007
1.232699e-004,1.938607e-005
2.667901e-005,2.197911e-005
-6.699475e-005,4.313994e-006
-1.327933e-004,-3.036798e-005
-1.747682e-004,-6.618442e-005
-2.251705e-004,-8.838737e-005
-3.021515e-004,-9.065628e-005
-3.933943e-004,-7.185670e-005
-4.624341e-004,-4.106429e-005
-4.815578e-004,-1.237873e-005
-4.471999e-004,3.827799e-006
-3.755671e-004,6.582909e-006
-2.864312e-004,-5.479652e-007
-1.833576e-004,-1.707863e-005
-7.509801e-005,-4.430560e-005
3.202716e-005,-7.396356e-005
1.404489e-004,-9.098041e-005
2.547049e-004,-7.995997e-005
3.678266e-004,-3.944364e-005
4.564763e-004,1.727922e-005
5.044477e-004,6.962632e-005
5.101200e-004,1.081979e-004
4.814344e-004,1.297526e-004
4.313562e-004,1.398006e-004
3.820883e-004,1.454729e-004
3.563199e-004,1.493625e-004
3.619922e-004,1.543865e-004
3.897054e-004,1.624898e-004
4.274666e-004,1.712413e-004
4.650658e-004,1.733481e-004
4.937514e-004,1.623277e-004
5.081752e-004,1.389903e-004
5.156302e-004,1.091703e-004
5.196818e-004,8.064677e-005
5.182233e-004,5.439218e-005
5.094717e-004,2.603075e-005
4.943996e-004,-8.002969e-006
4.767345e-004,-4.495386e-005
4.627969e-004,-8.320128e-005
4.606900e-004,-1.208004e-004
4.710622e-004,-1.558065e-004
4.866205e-004,-1.857886e-004
4.981271e-004,-2.068571e-004
5.059062e-004,-2.146363e-004
5.119027e-004,-2.075054e-004
5.248679e-004,-1.840059e-004
5.448020e-004,-1.413827e-004
5.589016e-004,-7.947377e-005
5.506363e-004,-3.858999e-007
5.141716e-004,8.226741e-005
4.538833e-004,1.571416e-004
3.817642e-004,2.162954e-004
3.047831e-004,2.584324e-004
2.276400e-004,2.835526e-004
1.496866e-004,2.874421e-004
6.849186e-005,2.710735e-004
-1.302700e-005,2.406053e-004
-8.336335e-005,2.004130e-004
-1.293899e-004,1.477418e-004
-1.446240e-004,8.453633e-005
-1.342519e-004,2.165498e-005
-1.075111e-004,-2.712668e-005
-7.039812e-005,-5.354332e-005
-3.717473e-005,-5.532604e-005
-1.999580e-005,-3.798505e-005
-1.999580e-005,-1.416145e-005
-3.587821e-005,-6.176923e-008
-7.104638e-005,-3.951337e-006
-1.267968e-004,-2.275091e-005
-1.966470e-004,-4.657452e-005
-2.642282e-004,-6.423963e-005
-3.126857e-004,-6.407757e-005
-3.280820e-004,-4.349527e-005
-3.087962e-004,-3.141010e-006
-2.640662e-004,5.390598e-005
-2.086398e-004,1.120874e-004
-1.642339e-004,1.480659e-004
-1.546721e-004,1.508211e-004
-1.875713e-004,1.177597e-004
-2.519113e-004,6.119892e-005
-3.178718e-004,-4.275467e-006
-3.551469e-004,-6.294311e-005
-3.368335e-004,-1.067007e-004
-2.540181e-004,-1.318209e-004
-1.126972e-004,-1.400862e-004
6.346784e-005,-1.400862e-004
2.333123e-004,-1.438137e-004
3.480546e-004,-1.627754e-004
3.747954e-004,-1.974573e-004
3.078624e-004,-2.410529e-004
1.667035e-004,-2.793003e-004
-1.075808e-005,-3.008550e-004
-1.796301e-004,-3.018274e-004
-2.921034e-004,-2.805968e-004
-3.126857e-004,-2.392702e-004
-2.418632e-004,-1.802784e-004
-1.091317e-004,-1.067007e-004
4.272347e-005,-2.550602e-005
1.731861e-004,5.390598e-005
2.561635e-004,1.193804e-004
2.806354e-004,1.633001e-004
2.459534e-004,1.861513e-004
1.590864e-004,1.957132e-004
2.667901e-005,1.997648e-004
-1.420310e-004,2.033302e-004
-3.217614e-004,2.073819e-004
-4.765338e-004,2.067336e-004
-5.677765e-004,1.976579e-004
-5.812279e-004,1.830721e-004
-5.222362e-004,1.676758e-004
-4.052250e-004,1.542244e-004
-2.473734e-004,1.449867e-004
-7.461182e-005,1.469315e-004
7.935024e-005,1.676758e-004
1.843686e-004,2.049509e-004
2.265056e-004,2.472499e-004
2.138645e-004,2.799871e-004
1.739964e-004,2.939248e-004
1.329939e-004,2.846870e-004
1.015532e-004,2.524360e-004
7.513654e-005,2.010613e-004
3.218923e-005,1.393144e-004
-4.300908e-005,7.837785e-005
-1.434896e-004,2.489629e-005
-2.404046e-004,-1.837515e-005
-2.951827e-004,-5.159854e-005
-2.833519e-004,-7.185670e-005
-2.128535e-004,-8.093236e-005
-1.152902e-004,-7.444975e-005
-2.210265e-005,-4.932962e-005
5.358185e-005,-1.237873e-005
1.081979e-004,1.841368e-005
1.451488e-004,3.008238e-005
1.704310e-004,2.149292e-005
1.872858e-004,5.864920e-007
1.992786e-004,-2.275091e-005
2.107852e-004,-4.544006e-005
2.253711e-004,-6.796714e-005
2.430362e-004,-8.984595e-005
2.506533e-004,-1.029732e-004
2.407673e-004,-9.713889e-005
2.148369e-004,-6.893953e-005
1.764274e-004,-2.210265e-005
1.222976e-004,3.137890e-005
5.098881e-005,8.161915e-005
-3.360929e-005,1.239182e-004
-1.232314e-004,1.539003e-004
-1.985918e-004,1.739964e-004
-2.408908e-004,1.892305e-004
-2.438080e-004,2.038164e-004
-2.227395e-004,2.169437e-004
-2.013469e-004,2.227781e-004
-1.958367e-004,2.190506e-004
-2.063709e-004,2.049509e-004
-2.222533e-004,1.858272e-004
-2.370013e-004,1.655690e-004
-2.507768e-004,1.443384e-004
-2.699005e-004,1.218114e-004
-2.966413e-004,9.442231e-005
-3.295405e-004,6.476436e-005
-3.616295e-004,3.445814e-005
-3.805911e-004,5.124321e-006
-3.752429e-004,-2.258885e-005
-3.426678e-004,-4.949169e-005
-2.861070e-004,-7.558420e-005
-2.144742e-004,-9.616651e-005
-1.399241e-004,-1.101041e-004
-7.169464e-005,-1.148040e-004
-1.707863e-005,-1.068628e-004
1.711715e-005,-9.017008e-005
2.570662e-005,-7.850138e-005
7.069105e-006,-8.644259e-005
-3.539201e-005,-1.177212e-004
-8.628052e-005,-1.655305e-004
-1.216107e-004,-2.071812e-004
-1.204763e-004,-2.206326e-004
-7.250496e-005,-1.994021e-004
1.355172e-005,-1.541859e-004
1.171115e-004,-1.023250e-004
2.153231e-004,-5.872941e-005
2.945730e-004,-3.604027e-005
3.574544e-004,-3.814712e-005
4.119083e-004,-6.164659e-005
4.631210e-004,-9.697683e-005
5.104441e-004,-1.378173e-004
5.533914e-004,-1.797922e-004
5.950422e-004,-2.214430e-004
6.363689e-004,-2.583939e-004
6.704027e-004,-2.888622e-004
6.843403e-004,-3.060411e-004
6.652166e-004,-3.086341e-004
6.028214e-004,-2.987481e-004
4.958582e-004,-2.804347e-004
3.559958e-004,-2.577456e-004
2.073819e-004,-2.345703e-004
7.416415e-005,-2.126914e-004
-2.501983e-005,-1.820611e-004
-8.482193e-005,-1.282554e-004
-1.026491e-004,-4.300908e-005
-8.563225e-005,6.589881e-005
-4.722278e-005,1.808031e-004
-7.100305e-007,2.851732e-004
4.823370e-005,3.670162e-004
1.000946e-004,4.269804e-004
1.516314e-004,4.700898e-004
1.911753e-004,4.969927e-004
2.125679e-004,5.039615e-004
2.167816e-004,4.888894e-004
2.073819e-004,4.532350e-004
1.778860e-004,4.025085e-004
1.271595e-004,3.405996e-004
6.508849e-005,2.730183e-004
4.313994e-006,2.091646e-004
-4.446767e-005,1.566554e-004
-7.979791e-005,1.127357e-004
-9.600444e-005,7.076078e-005
-8.822530e-005,2.813760e-005
-5.402952e-005,-1.302700e-005
-3.465141e-006,-5.013995e-005
4.936815e-005,-8.498399e-005
8.972242e-005,-1.154523e-004
1.101427e-004,-1.331174e-004
1.070634e-004,-1.337657e-004
8.631905e-005,-1.172350e-004
7.189524e-005,-8.433573e-005
8.210535e-005,-3.766092e-005
1.218114e-004,1.290346e-005
1.733481e-004,6.071273e-005
2.028440e-004,9.782569e-005
1.874478e-004,1.214872e-004
1.210010e-004,1.284560e-004
1.711715e-005,1.177597e-004
-1.105903e-004,9.588091e-005
-2.444563e-004,7.011252e-005
-3.656811e-004,4.564065e-005
-4.525481e-004,2.846173e-005
-4.924161e-004,2.262738e-005
-4.912817e-004,2.635488e-005
-4.668098e-004,3.478228e-005
-4.337485e-004,4.402000e-005
-4.037664e-004,5.341979e-005
-3.801049e-004,6.038860e-005
-3.533641e-004,6.103686e-005
-3.139823e-004,5.423012e-005
-2.582318e-004,3.867184e-005
-1.951884e-004,1.630683e-005
-1.340898e-004,-6.706447e-006
-7.282909e-005,-2.339918e-005
-1.318906e-005,-3.393342e-005
3.948217e-005,-4.138842e-005
8.275361e-005,-4.527799e-005
1.124116e-004,-4.171256e-005
1.295905e-004,-2.971972e-005
1.363972e-004,-1.043395e-005
1.362352e-004,9.986281e-006
1.260251e-004,2.489629e-005
1.047945e-004,3.316162e-005
7.157111e-005,3.737532e-005
3.073064e-005,4.531652e-005
-1.108221e-005,6.444023e-005
-4.187462e-005,9.539470e-005
-4.673658e-005,1.244044e-004
-2.210265e-005,1.357490e-004
2.343770e-005,1.257009e-004
7.951231e-005,9.766362e-005
1.381800e-004,5.876794e-005
1.872858e-004,2.003433e-005
2.198609e-004,-7.840905e-006
2.415777e-004,-1.869928e-005
2.618358e-004,-1.221667e-005
2.876042e-004,6.744974e-006
3.185587e-004,2.586868e-005
3.462718e-004,3.526847e-005
3.555096e-004,3.526847e-005
3.358997e-004,2.813760e-005
2.846870e-004,1.565857e-005
2.091646e-004,4.151929e-006
1.227837e-004,-2.492749e-006
4.223728e-005,-1.034161e-006
-1.724069e-005,7.231170e-006
-5.240886e-005,2.376183e-005
-7.088431e-005,4.953022e-005
-7.833932e-005,8.631905e-005
-7.558420e-005,1.316974e-004
-5.856735e-005,1.739964e-004
-2.745081e-005,2.017096e-004
1.419998e-005,2.151610e-004
5.601284e-005,2.180782e-004
8.761557e-005,2.151610e-004
1.043083e-004,2.062474e-004
1.023635e-004,1.850168e-004
8.016057e-005,1.464453e-004
3.980630e-005,9.442231e-005
-1.237873e-005,4.191315e-005
-7.120844e-005,1.072688e-006
-1.251762e-004,-2.096820e-005
-1.624512e-004,-2.890940e-005
-1.742820e-004,-3.053005e-005
-1.606685e-004,-3.053005e-005
-1.259865e-004,-3.879538e-005
-8.190475e-005,-5.856735e-005
-3.863332e-005,-8.628052e-005
-2.816880e-006,-1.186936e-004
2.603075e-005,-1.491618e-004
4.709924e-005,-1.715269e-004
5.552663e-005,-1.818991e-004
4.790957e-005,-1.793060e-004
3.056858e-005,-1.642339e-004
1.176900e-005,-1.468929e-004
-2.006553e-006,-1.347380e-004
-6.706447e-006,-1.289037e-004
-2.492749e-006,-1.251762e-004
2.207145e-006,-1.190177e-004
-7.100305e-007,-1.097800e-004
-1.464765e-005,-1.036215e-004
-4.009191e-005,-9.989401e-005
-7.655660e-005,-9.762509e-005
-1.182074e-004,-9.632857e-005
-1.656925e-004,-9.486997e-005
-2.146363e-004,-9.260107e-005
-2.605007e-004,-9.065628e-005
-2.984240e-004,-8.547019e-005
-3.194925e-004,-7.477388e-005
-3.180339e-004,-5.581224e-005
-2.899966e-004,-2.696461e-005
-2.451045e-004,1.128280e-005
-1.953505e-004,4.774750e-005
-1.481895e-004,7.205730e-005
-1.075111e-004,7.870197e-005
-7.396356e-005,7.043665e-005
-4.236082e-005,5.974033e-005
-8.813297e-006,5.423012e-005
2.457216e-005,5.747142e-005
5.585077e-005,6.314371e-005
8.275361e-005,6.298164e-005
1.023635e-004,5.390598e-005
1.080358e-004,3.915804e-005
1.010670e-004,2.829966e-005
8.615699e-005,3.218923e-005
6.995045e-005,5.358185e-005
5.698522e-005,8.226741e-005
5.212327e-005,1.057669e-004
5.325772e-005,1.214872e-004
5.487838e-005,1.362352e-004
5.568870e-005,1.595726e-004
6.249545e-005,1.966855e-004
8.178122e-005,2.433604e-004
1.158149e-004,2.858215e-004
1.634622e-004,3.132105e-004
2.175920e-004,3.221241e-004
2.670219e-004,3.114278e-004
3.013798e-004,2.853353e-004
3.140208e-004,2.444948e-004
3.026763e-004,1.859892e-004
2.704253e-004,1.077117e-004
2.235884e-004,1.776542e-005
1.722137e-004,-6.910160e-005
1.226217e-004,-1.451102e-004
8.518459e-005,-2.147983e-004
6.525056e-005,-2.857829e-004
6.281957e-005,-3.579019e-004
7.951231e-005,-4.190006e-004
1.150046e-004,-4.509274e-004
1.691344e-004,-4.434724e-004
2.396328e-004,-3.942046e-004
3.167760e-004,-3.152788e-004
3.806297e-004,-2.279256e-004
4.057499e-004,-1.496481e-004
3.730126e-004,-8.482193e-005
2.739907e-004,-3.134038e-005
1.180839e-004,1.873781e-005
-6.586029e-005,6.881599e-005
-2.386219e-004,1.133840e-004
-3.643846e-004,1.469315e-004
-4.220798e-004,1.660552e-004
-4.066836e-004,1.702689e-004
-3.256510e-004,1.631380e-004
-1.925954e-004,1.461212e-004
-3.247483e-005,1.208390e-004
1.273216e-004,8.372601e-005
2.751252e-004,3.624086e-005
4.075326e-004,-1.464765e-005
5.193577e-004,-5.500191e-005
5.977973e-004,-7.914964e-005
6.276174e-004,-9.049421e-005
5.942319e-004,-9.324933e-005
4.858102e-004,-8.919769e-005
2.983005e-004,-7.931171e-005
5.260946e-005,-6.488790e-005
-1.998883e-004,-4.576419e-005
-3.955011e-004,-2.113026e-005
-4.929024e-004,3.179537e-006
-4.893369e-004,2.068259e-005
-4.198109e-004,2.797553e-005
-3.316474e-004,3.089271e-005
-2.639041e-004,3.688912e-005
-2.420253e-004,4.936815e-005
-2.695764e-004,7.140904e-005
-3.334301e-004,1.017153e-004
-4.147869e-004,1.354248e-004
-4.977643e-004,1.675138e-004
-5.713420e-004,1.960373e-004
-6.251476e-004,2.171058e-004
-6.476747e-004,2.289366e-004
-6.322784e-004,2.256952e-004
-5.834968e-004,2.083542e-004
-5.181845e-004,1.843686e-004
-4.515757e-004,1.660552e-004
-3.841565e-004,1.613553e-004
-2.998826e-004,1.759412e-004
-1.831956e-004,2.059233e-004
-3.782299e-005,2.368777e-004
1.112771e-004,2.524360e-004
2.344468e-004,2.397949e-004
3.169380e-004,1.955511e-004
3.577785e-004,1.252147e-004
3.676645e-004,5.034055e-005
3.509718e-004,-8.489166e-006
3.067279e-004,-4.333321e-005
2.457913e-004,-6.083626e-005
1.879340e-004,-7.542214e-005
1.492004e-004,-9.616651e-005
1.326697e-004,-1.250141e-004
1.328318e-004,-1.524032e-004
1.376938e-004,-1.689338e-004
1.415833e-004,-1.668270e-004
1.487142e-004,-1.447861e-004
1.641104e-004,-1.070249e-004
1.942546e-004,-5.808115e-005
2.388225e-004,-4.761664e-006
2.867939e-004,4.758544e-005
3.158036e-004,9.231547e-005
3.051073e-004,1.292664e-004
2.480603e-004,1.611932e-004
1.586002e-004,1.960373e-004
6.168512e-005,2.333123e-004
-6.706447e-006,2.691288e-004
-2.113026e-005,3.033245e-004
2.181705e-005,3.371962e-004
1.038221e-004,3.658818e-004
1.989545e-004,3.843572e-004
2.809595e-004,3.853296e-004
3.329825e-004,3.683128e-004
3.508097e-004,3.362238e-004
3.397893e-004,2.944109e-004
3.114278e-004,2.466017e-004
2.760976e-004,1.934442e-004
2.378501e-004,1.436902e-004
1.963614e-004,1.054428e-004
1.539003e-004,7.708133e-005
1.151667e-004,4.677511e-005
8.502253e-005,6.096713e-006
5.957827e-005,-4.657452e-005
3.348575e-005,-1.018388e-004
6.907040e-006,-1.430034e-004
-2.339918e-005,-1.624512e-004
-5.257093e-005,-1.643960e-004
-7.380149e-005,-1.595340e-004
-7.979791e-005,-1.574272e-004
-6.180866e-005,-1.626133e-004
-2.080613e-005,-1.736337e-004
3.397195e-005,-1.891920e-004
9.247754e-005,-2.052365e-004
1.433661e-004,-2.165810e-004
1.717275e-004,-2.216050e-004
1.642725e-004,-2.190120e-004
1.193804e-004,-2.100984e-004
5.568870e-005,-1.953505e-004
-3.627206e-006,-1.771992e-004
-4.106429e-005,-1.627754e-004
-5.370539e-005,-1.566169e-004
-5.013995e-005,-1.548341e-004
-4.608832e-005,-1.572651e-004
-5.224680e-005,-1.668270e-004
-7.461182e-005,-1.849783e-004
-1.131834e-004,-2.041020e-004
-1.618029e-004,-2.131776e-004
-2.123673e-004,-2.042641e-004
-2.551526e-004,-1.797922e-004
-2.895104e-004,-1.464067e-004
-3.186821e-004,-1.122110e-004
-3.446126e-004,-8.433573e-005
-3.647087e-004,-6.829127e-005
-3.744326e-004,-6.634648e-005
-3.671397e-004,-7.574627e-005
-3.389403e-004,-8.725291e-005
-2.906449e-004,-9.568031e-005
-2.293842e-004,-9.924574e-005
-1.669890e-004,-9.973194e-005
-1.136696e-004,-1.010285e-004
-7.509801e-005,-1.041077e-004
-5.402952e-005,-1.102662e-004
-4.203669e-005,-1.159385e-004
-2.323711e-005,-1.149661e-004
1.873781e-005,-1.010285e-004
8.939829e-005,-7.574627e-005
1.780480e-004,-4.349527e-005
2.589186e-004,-1.529591e-005
3.054314e-004,3.179537e-006
3.075383e-004,1.241726e-005
2.654013e-004,1.987227e-005
1.866375e-004,2.959619e-005
9.053275e-005,4.158902e-005
9.662150e-006,5.876794e-005
-2.923353e-005,8.421220e-005
-1.788895e-005,1.208390e-004
2.748934e-005,1.684862e-004
7.837785e-005,2.227781e-004
1.114392e-004,2.778803e-004
1.247285e-004,3.260137e-004
1.263492e-004,3.637749e-004
1.258630e-004,3.908399e-004
1.278078e-004,4.086671e-004
1.318594e-004,4.145014e-004
1.380179e-004,4.051016e-004
1.537382e-004,3.793332e-004
1.777239e-004,3.391410e-004
2.031682e-004,2.893870e-004
2.239125e-004,2.393087e-004
2.316917e-004,1.937684e-004
2.263435e-004,1.519555e-004
2.135403e-004,1.044704e-004
1.996027e-004,4.969229e-005
1.859892e-004,-4.761664e-006
1.731861e-004,-4.219875e-005
1.608691e-004,-5.257093e-005
1.526038e-004,-3.377136e-005
1.504969e-004,8.527692e-006
1.587623e-004,6.265751e-005
1.757791e-004,1.172735e-004
1.872858e-004,1.663793e-004
1.739964e-004,2.039785e-004
1.219734e-004,2.235884e-004
3.348575e-005,2.221298e-004
-7.461182e-005,2.007372e-004
-1.737958e-004,1.688103e-004
-2.392702e-004,1.396385e-004
-2.579077e-004,1.167873e-004
-2.381357e-004,9.879808e-005
-2.015090e-004,8.323981e-005
-1.728234e-004,6.670914e-005
-1.650443e-004,4.515445e-005
-1.742820e-004,1.760335e-005
-1.883817e-004,-1.464765e-005
-1.963229e-004,-4.868137e-005
-1.932436e-004,-8.449780e-005
-1.752544e-004,-1.216107e-004
-1.415448e-004,-1.582375e-004
-9.616651e-005,-1.885437e-004
-4.268495e-005,-2.088019e-004
1.338965e-005,-2.206326e-004
6.557468e-005,-2.267911e-004
1.031738e-004,-2.310048e-004
1.210010e-004,-2.342462e-004
1.174356e-004,-2.337599e-004
9.458438e-005,-2.227395e-004
5.341979e-005,-1.976194e-004
1.072688e-006,-1.645581e-004
-3.636440e-005,-1.284175e-004
-3.847125e-005,-9.324933e-005
-1.520357e-006,-5.710876e-005
6.654708e-005,-1.934754e-005
1.480659e-004,1.387585e-005
2.193747e-004,3.397195e-005
2.560015e-004,3.932010e-005
2.467637e-004,3.478228e-005
2.000889e-004,3.202716e-005
1.391524e-004,3.850978e-005
8.486046e-005,5.682316e-005
2.894792e-005,7.951231e-005
-6.035007e-005,9.831188e-005
-1.937298e-004,1.086841e-004
-3.473677e-004,1.125736e-004
-4.760476e-004,1.156529e-004
-5.395772e-004,1.197045e-004
-5.264499e-004,1.231079e-004
-4.546549e-004,1.263492e-004
-3.522297e-004,1.328318e-004
-2.438080e-004,1.428799e-004
-1.421931e-004,1.500107e-004
-5.321920e-005,1.479039e-004
1.744129e-005,1.287802e-004
6.119892e-005,8.988449e-005
7.335383e-005,3.429608e-005
6.136099e-005,-3.036798e-005
3.818565e-005,-9.665270e-005
1.663096e-005,-1.571031e-004
3.017472e-006,-2.002124e-004
-5.085794e-006,-2.170672e-004
-1.367526e-005,-2.071812e-004
-2.501983e-005,-1.689338e-004
-3.798505e-005,-1.026491e-004
-4.527799e-005,-1.821308e-005
-2.826114e-005,7.124698e-005
3.202716e-005,1.498487e-004
1.385041e-004,2.067336e-004
2.678322e-004,2.407673e-004
3.916502e-004,2.548670e-004
4.809482e-004,2.589186e-004
5.144958e-004,2.550291e-004
4.869446e-004,2.384984e-004
4.145014e-004,2.080301e-004
3.281205e-004,1.684862e-004
2.581083e-004,1.320215e-004
2.133783e-004,1.065772e-004
1.811273e-004,9.636710e-005
1.430419e-004,9.798775e-005
8.599492e-005,1.031738e-004
1.517237e-005,1.015532e-004
-5.224680e-005,9.085688e-005
-9.697683e-005,7.448828e-005
-1.117248e-004,5.779555e-005
-1.102662e-004,4.256141e-005
-1.114006e-004,3.089271e-005
-1.251762e-004,2.554455e-005
-1.415448e-004,2.522042e-005
-1.434896e-004,2.522042e-005
-1.201522e-004,1.808955e-005
-7.104638e-005,1.396819e-006
-8.165035e-006,-2.275091e-005
4.823370e-005,-4.835724e-005
8.712937e-005,-7.023606e-005
1.081979e-004,-7.963584e-005
1.158149e-004,-7.477388e-005
1.127357e-004,-6.002594e-005
9.896015e-005,-4.803310e-005
7.578480e-005,-5.176061e-005
4.580272e-005,-7.428769e-005
1.501031e-005,-1.055663e-004
-8.813297e-006,-1.339277e-004
-2.485776e-005,-1.536997e-004
-3.490581e-005,-1.634236e-004
-3.863332e-005,-1.645581e-004
-4.333321e-005,-1.585616e-004
-6.018800e-005,-1.485136e-004
-9.276313e-005,-1.342519e-004
-1.279313e-004,-1.169109e-004
-1.407345e-004,-9.875954e-005
-1.162626e-004,-8.579432e-005
-5.791909e-005,-8.368748e-005
1.841368e-005,-9.081835e-005
9.312580e-005,-9.535618e-005
1.521176e-004,-9.649064e-005
1.806411e-004,-9.341139e-005
1.701068e-004,-8.417367e-005
1.169494e-004,-7.120844e-005
3.024445e-005,-5.613637e-005
-6.796714e-005,-4.187462e-005
-1.501342e-004,-3.101625e-005
-2.013469e-004,-2.388537e-005
-2.323013e-004,-1.950961e-005
-2.689281e-004,-2.064406e-005
-3.228959e-004,-2.469570e-005
-3.723258e-004,-2.453363e-005
-3.799429e-004,-1.156841e-005
-3.253268e-004,2.019640e-005
-2.194982e-004,6.849186e-005
-8.660465e-005,1.235941e-004
5.228533e-005,1.691344e-004
1.806411e-004,1.991165e-004
2.751252e-004,2.154851e-004
3.127243e-004,2.269918e-004
2.709115e-004,2.386605e-004
1.535762e-004,2.517878e-004
-5.479652e-007,2.655633e-004
-1.336036e-004,2.735045e-004
-1.964849e-004,2.696149e-004
-1.692580e-004,2.513016e-004
-7.380149e-005,2.192126e-004
4.564065e-005,1.764274e-004
1.488763e-004,1.294284e-004
2.167816e-004,9.263960e-005
2.534084e-004,7.432621e-005
2.668598e-004,6.768154e-005
2.579462e-004,6.444023e-005
2.248849e-004,5.714729e-005
1.795066e-004,4.677511e-005
1.409351e-004,3.688912e-005
1.232699e-004,2.295151e-005
1.315353e-004,9.175954e-006
1.602208e-004,1.072688e-006
2.036544e-004,3.665733e-006
2.449810e-004,1.517237e-005
2.735045e-004,2.732727e-005
2.843629e-004,3.299956e-005
2.822560e-004,2.797553e-005
2.806354e-004,1.387585e-005
2.887387e-004,-5.479652e-007
3.042970e-004,-4.599598e-006
3.190449e-004,4.313994e-006
3.232586e-004,1.760335e-005
3.115899e-004,2.376183e-005
2.777182e-004,1.225520e-005
2.138645e-004,-2.080613e-005
1.145184e-004,-7.169464e-005
-1.302700e-005,-1.314967e-004
-1.441378e-004,-1.849783e-004
-2.480217e-004,-2.220912e-004
-3.094444e-004,-2.335979e-004
-3.267854e-004,-2.196603e-004
-3.011791e-004,-1.867610e-004
-2.360289e-004,-1.451102e-004
-1.449482e-004,-9.827335e-005
-5.030202e-005,-4.900550e-005
2.473423e-005,-2.238346e-007
6.184718e-005,4.483033e-005
5.844381e-005,7.983644e-005
2.538249e-005,1.018773e-004
-2.437157e-005,1.114392e-004
-8.158062e-005,1.099806e-004
-1.355484e-004,1.030118e-004
-1.780095e-004,9.377406e-005
-1.989159e-004,8.097089e-005
-1.950263e-004,6.136099e-005
-1.684476e-004,3.802358e-005
-1.267968e-004,1.873781e-005
-8.060823e-005,5.610517e-006
-3.976777e-005,-3.627206e-006
-9.299493e-006,-9.947754e-006
1.274139e-005,-1.707863e-005
2.846173e-005,-2.826114e-005
3.591673e-005,-4.155049e-005
3.948217e-005,-5.548811e-005
4.158902e-005,-6.942573e-005
4.920609e-005,-8.433573e-005
6.670914e-005,-1.013526e-004
9.960841e-005,-1.182074e-004
1.547106e-004,-1.274451e-004
2.289366e-004,-1.204763e-004
2.981384e-004,-9.535618e-005
3.213138e-004,-5.872941e-005
2.629703e-004,-2.177852e-005
1.169494e-004,1.720949e-006
-8.919769e-005,5.934648e-006
-2.963172e-004,-2.654814e-006
-4.418518e-004,-1.027188e-005
-4.891749e-004,-5.896120e-006
-4.353692e-004,1.031041e-005
-3.086341e-004,3.559260e-005
-1.559686e-004,6.281957e-005
-2.631635e-005,8.858796e-005
4.871989e-005,1.138702e-004
6.946425e-005,1.373696e-004
6.168512e-005,1.597346e-004
5.374392e-005,1.837203e-004
5.585077e-005,2.030061e-004
6.606088e-005,2.109473e-004
7.092284e-005,2.051129e-004
5.520250e-005,1.866375e-004
2.295151e-005,1.615174e-004
-3.858999e-007,1.347766e-004
3.503668e-006,1.073875e-004
3.867184e-005,8.113296e-005
9.344993e-005,6.330578e-005
1.532520e-004,5.730935e-005
2.060853e-004,5.795762e-005
2.417397e-004,5.649903e-005
2.597290e-004,4.758544e-005
2.704253e-004,3.056858e-005
2.824181e-004,1.031041e-005
2.981384e-004,-3.465141e-006
3.085106e-004,-3.465141e-006
2.987867e-004,9.986281e-006
2.639427e-004,3.089271e-005
2.211574e-004,5.228533e-005
1.945787e-004,7.416415e-005
1.942546e-004,1.043083e-004
2.081922e-004,1.490383e-004
2.135403e-004,2.004130e-004
1.809652e-004,2.449810e-004
9.231547e-005,2.720459e-004
-4.317115e-005,2.838767e-004
-1.916230e-004,2.893870e-004
-3.154408e-004,2.947351e-004
-3.940425e-004,3.085106e-004
-4.194868e-004,3.329825e-004
-3.987424e-004,3.618301e-004
-3.468815e-004,3.856538e-004
-2.765452e-004,4.051016e-004
-1.938919e-004,4.250357e-004
-1.115627e-004,4.388112e-004
-3.928157e-005,4.289252e-004
1.403791e-005,3.804677e-004
3.883391e-005,2.978143e-004
3.526847e-005,1.966855e-004
4.476060e-006,9.863601e-005
-4.446767e-005,2.327564e-005
-9.746302e-005,-2.712668e-005
-1.428413e-004,-6.245691e-005
-1.759026e-004,-9.697683e-005
-1.953505e-004,-1.462447e-004
-2.023193e-004,-2.130156e-004
-2.016710e-004,-2.948586e-004
-1.987538e-004,-3.791325e-004
-1.914609e-004,-4.531963e-004
-1.760647e-004,-5.107295e-004
-1.494860e-004,-5.505976e-004
-1.151281e-004,-5.729626e-004
-8.206682e-005,-5.810658e-004
-6.002594e-005,-5.766901e-004
-4.997789e-005,-5.619422e-004
-4.138842e-005,-5.382806e-004
-1.724069e-005,-5.019780e-004
3.397195e-005,-4.507654e-004
1.073875e-004,-3.823738e-004
1.752929e-004,-3.083100e-004
2.041406e-004,-2.488320e-004
1.806411e-004,-2.219292e-004
1.116012e-004,-2.324634e-004
2.149292e-005,-2.705488e-004
-5.970181e-005,-3.146305e-004
-1.083214e-004,-3.436402e-004
-1.193418e-004,-3.462333e-004
-1.057284e-004,-3.183580e-004
-8.709085e-005,-2.664971e-004
-7.558420e-005,-2.042641e-004
-7.072225e-005,-1.410586e-004
-5.970181e-005,-7.720486e-005
-3.101625e-005,-1.092015e-005
1.614476e-005,5.649903e-005
8.097089e-005,1.184080e-004
1.577899e-004,1.665414e-004
2.328261e-004,1.953890e-004
2.843629e-004,2.085163e-004
2.997591e-004,2.104611e-004
2.848491e-004,2.055991e-004
2.616738e-004,1.999268e-004
2.459534e-004,1.974959e-004
2.406053e-004,2.036544e-004
2.459534e-004,2.184023e-004
2.560015e-004,2.334744e-004
2.670219e-004,2.435224e-004
2.773941e-004,2.500050e-004
2.880904e-004,2.522740e-004
2.986247e-004,2.462775e-004
3.109416e-004,2.329882e-004
3.311998e-004,2.133783e-004
3.637749e-004,1.903650e-004
4.031568e-004,1.645966e-004
4.414042e-004,1.398006e-004
4.731691e-004,1.221355e-004
4.978030e-004,1.203528e-004
5.208163e-004,1.344524e-004
5.460985e-004,1.577899e-004
5.757565e-004,1.803169e-004
6.071971e-004,1.961994e-004
6.251864e-004,2.085163e-004
6.003904e-004,2.185644e-004
5.021787e-004,2.206712e-004
3.143450e-004,2.115956e-004
5.358185e-005,1.924718e-004
-2.373254e-004,1.689724e-004
-5.052193e-004,1.529279e-004
-7.008321e-004,1.542244e-004
-7.914266e-004,1.726999e-004
-7.748959e-004,2.021958e-004
-6.852738e-004,2.344468e-004
-5.689110e-004,2.603772e-004
-4.698891e-004,2.764217e-004
-4.178661e-004,2.843629e-004
-4.266177e-004,2.853353e-004
-4.979264e-004,2.759355e-004
-6.061860e-004,2.509774e-004
-7.052079e-004,2.128921e-004
-7.463724e-004,1.709172e-004
-7.058561e-004,1.334801e-004
-5.922483e-004,1.030118e-004
-4.444448e-004,7.821578e-005
-3.083100e-004,5.763349e-005
-2.157707e-004,3.964424e-005
-1.754164e-004,2.473423e-005
-1.771992e-004,1.160693e-005
-2.000504e-004,1.072688e-006
-2.147983e-004,-1.027188e-005
-1.922712e-004,-2.372331e-005
-1.295519e-004,-3.928157e-005
-4.511593e-005,-5.516398e-005
3.218923e-005,-7.169464e-005
7.789165e-005,-8.871149e-005
7.610894e-005,-1.029732e-004
2.586868e-005,-1.178833e-004
-5.710876e-005,-1.402483e-004
-1.418689e-004,-1.759026e-004
-1.950263e-004,-2.201465e-004
-1.896782e-004,-2.630937e-004
-1.178833e-004,-2.937241e-004
1.396819e-006,-3.040963e-004
1.333180e-004,-2.946965e-004
2.372019e-004,-2.754107e-004
2.867939e-004,-2.551526e-004
2.798251e-004,-2.347323e-004
2.289366e-004,-2.081536e-004
1.621656e-004,-1.715269e-004
1.106288e-004,-1.293899e-004
8.664318e-005,-9.308726e-005
8.745350e-005,-6.893953e-005
1.022015e-004,-5.321920e-005
1.090082e-004,-3.717473e-005
8.680524e-005,-1.286493e-005
3.316162e-005,2.603075e-005
-2.647842e-005,8.113296e-005
-5.062615e-005,1.474177e-004
-1.480971e-005,2.130541e-004
7.951231e-005,2.642668e-004
2.175920e-004,2.864697e-004
3.741471e-004,2.697770e-004
5.255162e-004,2.154851e-004
6.519272e-004,1.383420e-004
7.446287e-004,5.893001e-005
8.036205e-004,-4.113403e-006
8.274441e-004,-3.814712e-005
8.117238e-004,-4.025397e-005
7.579181e-004,-1.173047e-005
6.710509e-004,3.786152e-005
5.572810e-004,8.988449e-005
4.177427e-004,1.299146e-004
2.618358e-004,1.543865e-004
1.101427e-004,1.683241e-004
-2.064406e-005,1.793446e-004
-1.216107e-004,1.908512e-004
-1.925954e-004,1.986303e-004
-2.384598e-004,1.937684e-004
-2.634179e-004,1.722137e-004
-2.690902e-004,1.373696e-004
-2.580697e-004,9.377406e-005
-2.415391e-004,4.823370e-005
-2.241981e-004,9.013889e-006
-2.041020e-004,-1.659243e-005
-1.815749e-004,-2.404744e-005
-1.690959e-004,-1.416145e-005
-1.814128e-004,4.151929e-006
-2.209568e-004,2.230325e-005
-2.703867e-004,3.462021e-005
-3.031239e-004,4.013043e-005
-3.003688e-004,3.980630e-005
-2.559629e-004,3.591673e-005
-1.742820e-004,2.878586e-005
-6.731888e-005,1.825161e-005
5.455425e-005,3.665733e-006
1.730240e-004,-1.464765e-005
2.665357e-004,-3.717473e-005
3.230965e-004,-6.116039e-005
3.384927e-004,-8.303922e-005
3.138588e-004,-1.010285e-004
2.608634e-004,-1.128592e-004
1.927960e-004,-1.191798e-004
1.190562e-004,-1.216107e-004
4.645098e-005,-1.208004e-004
-1.740276e-005,-1.118868e-004
-6.521203e-005,-8.903562e-005
-9.049421e-005,-4.754691e-005
-9.568031e-005,2.693341e-006
-8.547019e-005,4.726130e-005
-7.266703e-005,7.821578e-005
-7.039812e-005,8.956036e-005
-8.968389e-005,7.821578e-005
-1.365208e-004,4.094075e-005
-2.039399e-004,-2.129233e-005
-2.679557e-004,-1.045939e-004
-3.034480e-004,-1.958367e-004
-3.049066e-004,-2.781658e-004
-2.859450e-004,-3.455850e-004
-2.639041e-004,-3.995528e-004
-2.511010e-004,-4.394208e-004
-2.501286e-004,-4.629203e-004
-2.470493e-004,-4.642168e-004
-2.248464e-004,-4.348830e-004
-1.765509e-004,-3.700569e-004
-1.060525e-004,-2.767073e-004
-2.858527e-005,-1.715269e-004
4.515445e-005,-6.942573e-005
1.150046e-004,1.598270e-005
1.843686e-004,8.405014e-005
2.543808e-004,1.372076e-004
3.192070e-004,1.762653e-004
3.649094e-004,2.013854e-004
3.801436e-004,2.102990e-004
3.673404e-004,2.018716e-004
3.336308e-004,1.772377e-004
2.939248e-004,1.399627e-004
2.561635e-004,9.896015e-005
2.245608e-004,6.687121e-005
1.924718e-004,5.682316e-005
1.467694e-004,7.675720e-005
6.897806e-005,1.211631e-004
-3.766092e-005,1.702689e-004
-1.412206e-004,2.054371e-004
-1.969711e-004,2.162954e-004
-1.833576e-004,2.055991e-004
-1.104282e-004,1.822617e-004
-7.030578e-006,1.631380e-004
9.231547e-005,1.623277e-004
1.547106e-004,1.806411e-004
1.629760e-004,2.054371e-004
1.244044e-004,2.213195e-004
6.314371e-005,2.162954e-004
9.662150e-006,1.903650e-004
-2.599222e-005,1.579519e-004
-4.349527e-005,1.328318e-004
-4.430560e-005,1.248906e-004
-2.728874e-005,1.313732e-004
3.827799e-006,1.380179e-004
4.191315e-005,1.315353e-004
7.951231e-005,1.060910e-004
1.163011e-004,6.768154e-005
1.545486e-004,2.992031e-005
2.000889e-004,8.527692e-006
2.462775e-004,8.689758e-006
2.762596e-004,2.343770e-005
2.728562e-004,4.126489e-005
2.276400e-004,5.779555e-005
1.495245e-004,6.816773e-005
5.779555e-005,6.670914e-005
-2.971972e-005,5.066468e-005
-9.373552e-005,2.635488e-005
-1.135075e-004,8.689758e-006
-8.093236e-005,1.582063e-005
-1.513384e-005,5.633696e-005
4.790957e-005,1.247285e-004
7.238143e-005,2.025199e-004
3.818565e-005,2.733424e-004
-4.900550e-005,3.247172e-004
-1.611547e-004,3.480546e-004
-2.585559e-004,3.414099e-004
-3.102548e-004,3.120761e-004
-3.018274e-004,2.657254e-004
-2.339220e-004,2.039785e-004
-1.214487e-004,1.287802e-004
1.002961e-007,5.098881e-005
9.328786e-005,-1.707863e-005
1.357490e-004,-6.829127e-005
1.260251e-004,-1.031353e-004
7.999851e-005,-1.337657e-004
2.133085e-005,-1.690959e-004
-3.960571e-005,-2.144742e-004
-1.011905e-004,-2.648765e-004
-1.695821e-004,-3.078238e-004
-2.454286e-004,-3.311612e-004
-3.361852e-004,-3.288923e-004
-4.454172e-004,-3.008550e-004
-5.578905e-004,-2.515871e-004
-6.376266e-004,-1.878955e-004
-6.494574e-004,-1.191798e-004
-5.831727e-004,-5.159854e-005
-4.572480e-004,1.274139e-005
-3.109030e-004,7.384002e-005
-1.830335e-004,1.297526e-004
-9.260107e-005,1.712413e-004
-3.992984e-005,1.897167e-004
-7.678839e-006,1.859892e-004
2.262738e-005,1.633001e-004
5.876794e-005,1.240803e-004
9.831188e-005,7.238143e-005
1.302388e-004,2.052053e-005
1.492004e-004,-2.113026e-005
1.610312e-004,-4.965376e-005
1.728619e-004,-7.120844e-005
1.923098e-004,-8.903562e-005
2.266676e-004,-1.002181e-004
2.692908e-004,-1.002181e-004
3.101313e-004,-9.114248e-005
3.431926e-004,-7.639453e-005
3.639370e-004,-5.921561e-005
3.722023e-004,-4.414354e-005
3.807918e-004,-3.020592e-005
4.067223e-004,-1.464765e-005
4.598797e-004,8.851824e-006
5.289196e-004,4.774750e-005
5.843459e-004,9.928428e-005
5.947181e-004,1.495245e-004
5.480433e-004,1.846927e-004
4.670106e-004,1.966855e-004
3.903536e-004,1.851789e-004
3.474063e-004,1.566554e-004
3.412479e-004,1.188942e-004
3.483787e-004,7.789165e-005
3.380065e-004,3.769945e-005
2.892249e-004,2.369211e-006
1.950649e-004,-2.485776e-005
6.654708e-005,-4.203669e-005
-7.607040e-005,-4.592625e-005
-2.084778e-004,-3.685060e-005
-3.019894e-004,-1.821308e-005
-3.298647e-004,3.017472e-006
-2.801106e-004,1.938607e-005
-1.650443e-004,2.797553e-005
-1.140634e-005,3.024445e-005
1.448246e-004,2.522042e-005
2.718839e-004,1.744129e-005
3.530786e-004,1.031041e-005
3.801436e-004,1.396819e-006
3.568061e-004,-1.367526e-005
3.000832e-004,-3.069211e-005
2.433604e-004,-4.414354e-005
2.219677e-004,-5.030202e-005
2.482223e-004,-5.111234e-005
2.953834e-004,-4.689865e-005
3.149933e-004,-4.090223e-005
2.590807e-004,-3.458168e-005
1.009049e-004,-2.583016e-005
-1.506204e-004,-1.189254e-005
-4.470379e-004,6.744974e-006
-7.167145e-004,3.283749e-005
-9.017931e-004,6.606088e-005
-9.844464e-004,9.944634e-005
-9.716432e-004,1.231079e-004
-8.779695e-004,1.326697e-004
-7.272488e-004,1.308870e-004
-5.523803e-004,1.169494e-004
-3.861013e-004,9.134307e-005
-2.559629e-004,5.228533e-005
-1.715269e-004,4.800190e-006
-1.261486e-004,-4.268495e-005
-1.026491e-004,-7.639453e-005
-8.433573e-005,-8.952183e-005
-6.829127e-005,-8.514606e-005
-5.872941e-005,-7.493595e-005
-5.791909e-005,-7.120844e-005
-6.116039e-005,-8.628052e-005
-6.148453e-005,-1.217728e-004
-5.970181e-005,-1.718510e-004
-6.035007e-005,-2.253326e-004
-7.137051e-005,-2.687660e-004
-9.081835e-005,-2.891863e-004
-1.083214e-004,-2.760590e-004
-1.128592e-004,-2.293842e-004
-1.042698e-004,-1.605064e-004
-9.438378e-005,-8.790117e-005
-9.535618e-005,-3.117831e-005
-1.081593e-004,5.286387e-006
-1.212866e-004,2.765140e-005
-1.206384e-004,4.434413e-005
-8.871149e-005,6.055066e-005
-1.999580e-005,7.659513e-005
7.205730e-005,8.988449e-005
1.592484e-004,9.588091e-005
2.128921e-004,9.166720e-005
2.193747e-004,8.242948e-005
1.838824e-004,7.578480e-005
1.268354e-004,8.275361e-005
7.140904e-005,1.067393e-004
3.753739e-005,1.415833e-004
3.154097e-005,1.736723e-004
5.001642e-005,1.916615e-004
8.891209e-005,1.953890e-004
1.363972e-004,1.877720e-004
1.829100e-004,1.741585e-004
2.303951e-004,1.623277e-004
2.783665e-004,1.610312e-004
3.214759e-004,1.759412e-004
3.566440e-004,2.054371e-004
3.812780e-004,2.393087e-004
3.927847e-004,2.681563e-004
3.910019e-004,2.840388e-004
3.772264e-004,2.835526e-004
3.593992e-004,2.671840e-004
3.472443e-004,2.401191e-004
3.404375e-004,2.075439e-004
3.375204e-004,1.730240e-004
3.358997e-004,1.370455e-004
3.378445e-004,1.044704e-004
3.461098e-004,7.935024e-005
3.613439e-004,6.606088e-005
3.764160e-004,6.184718e-005
3.819262e-004,6.055066e-005
3.686369e-004,5.747142e-005
3.276344e-004,4.985435e-005
2.590807e-004,3.721326e-005
1.714034e-004,1.873781e-005
7.756752e-005,-3.858999e-007
-7.354709e-006,-1.302700e-005
-6.051213e-005,-1.610624e-005
-7.007399e-005,-1.092015e-005
-3.895745e-005,-4.113403e-006
8.527692e-006,-4.923729e-006
4.094075e-005,-1.999580e-005
4.077869e-005,-4.527799e-005
4.962256e-006,-7.331530e-005
-5.710876e-005,-9.227693e-005
-1.250141e-004,-9.389759e-005
-1.781716e-004,-8.028410e-005
-2.122053e-004,-5.986387e-005
-2.284118e-004,-3.847125e-005
-2.254946e-004,-2.145439e-005
-2.110708e-004,-1.383732e-005
-1.958367e-004,-1.562004e-005
-1.799543e-004,-2.356124e-005
-1.652063e-004,-3.198864e-005
-1.564548e-004,-3.604027e-005
-1.567789e-004,-3.701266e-005
-1.596961e-004,-3.766092e-005
-1.535376e-004,-4.025397e-005
-1.318209e-004,-4.381940e-005
-9.632857e-005,-4.787104e-005
-6.213279e-005,-5.435365e-005
-4.333321e-005,-6.261898e-005
-4.851930e-005,-7.088431e-005
-6.893953e-005,-7.704279e-005
-8.757704e-005,-7.866345e-005
-8.952183e-005,-8.109443e-005
-6.974985e-005,-8.806324e-005
-3.620233e-005,-9.681477e-005
1.072688e-006,-9.875954e-005
3.494434e-005,-8.514606e-005
5.536457e-005,-5.694670e-005
5.277153e-005,-2.129233e-005
2.343770e-005,1.436204e-005
-2.096820e-005,4.353380e-005
-6.537409e-005,6.298164e-005
-1.026491e-004,7.529860e-005
-1.340898e-004,8.161915e-005
-1.614788e-004,8.291568e-005
-1.817370e-004,8.064677e-005
-1.814128e-004,7.902610e-005
-1.430034e-004,7.902610e-005
-6.488790e-005,7.805372e-005
2.959619e-005,6.735741e-005
1.041462e-004,4.402000e-005
1.326697e-004,9.500085e-006
1.127357e-004,-3.166451e-005
6.897806e-005,-7.234290e-005
3.299956e-005,-1.036215e-004
2.311357e-005,-1.190177e-004
3.607880e-005,-1.177212e-004
5.974033e-005,-9.875954e-005
8.259155e-005,-6.504996e-005
9.215340e-005,-2.064406e-005
7.918817e-005,2.457216e-005
4.418206e-005,5.763349e-005
-3.858999e-007,7.351589e-005
-4.090223e-005,7.205730e-005
-6.893953e-005,6.038860e-005
-8.028410e-005,4.645098e-005
-7.655660e-005,3.883391e-005
-5.678463e-005,4.223728e-005
-2.550602e-005,5.585077e-005
5.934648e-006,7.465034e-005
2.927205e-005,8.939829e-005
4.661304e-005,9.717743e-005
6.703327e-005,9.831188e-005
1.020394e-004,9.652917e-005
1.513072e-004,9.669123e-005
2.088404e-004,1.010670e-004
2.636185e-004,1.062531e-004
3.010556e-004,1.054428e-004
3.107795e-004,9.523264e-005
2.892249e-004,7.578480e-005
2.440086e-004,5.682316e-005
1.916615e-004,5.115087e-005
1.466074e-004,6.184718e-005
1.154908e-004,8.016057e-005
1.052807e-004,9.393612e-005
1.216493e-004,9.571884e-005
1.654069e-004,8.291568e-005
2.354192e-004,5.504044e-005
3.286068e-004,1.808955e-005
4.397836e-004,-1.497178e-005
5.540397e-004,-3.231277e-005
6.394482e-004,-3.166451e-005
6.606788e-004,-2.015787e-005
5.966629e-004,-9.785688e-006
4.558281e-004,-7.030578e-006
2.657254e-004,-8.489166e-006
5.844381e-005,-6.706447e-006
-1.376552e-004,6.582909e-006
-3.076617e-004,3.186510e-005
-4.431483e-004,6.411610e-005
-5.405495e-004,9.361199e-005
-6.097514e-004,1.098185e-004
-6.658260e-004,1.034980e-004
-7.240074e-004,7.335383e-005
-7.859163e-004,2.894792e-005
-8.389117e-004,-1.270286e-005
-8.706765e-004,-3.701266e-005
-8.648421e-004,-4.300908e-005
-8.180053e-004,-2.890940e-005
-7.466965e-004,4.151929e-006
-6.779809e-004,5.374392e-005
-6.379507e-004,1.091703e-004
-6.309819e-004,1.584381e-004
-6.400577e-004,1.900409e-004
-6.449196e-004,1.994406e-004
-6.298475e-004,1.897167e-004
-5.914380e-004,1.636242e-004
-5.342290e-004,1.253768e-004
-4.719959e-004,7.902610e-005
-4.204592e-004,2.522042e-005
-3.804291e-004,-3.409549e-005
-3.413713e-004,-9.405965e-005
-2.916173e-004,-1.460826e-004
-2.198223e-004,-1.851404e-004
-1.232314e-004,-2.063709e-004
-1.059602e-005,-2.076674e-004
1.030118e-004,-1.955125e-004
1.986303e-004,-1.815749e-004
2.584324e-004,-1.721751e-004
2.658874e-004,-1.705545e-004
2.149989e-004,-1.728234e-004
1.237561e-004,-1.726613e-004
3.170304e-005,-1.619650e-004
-1.173047e-005,-1.397621e-004
2.684107e-005,-1.054042e-004
1.441764e-004,-6.051213e-005
3.099692e-004,-1.156841e-005
4.879170e-004,3.413401e-005
6.501445e-004,6.816773e-005
7.812555e-004,8.550872e-005
8.668260e-004,8.259155e-005
8.895152e-004,6.832980e-005
8.399231e-004,5.763349e-005
7.292324e-004,6.006447e-005
5.880735e-004,7.805372e-005
4.548557e-004,1.056048e-004
3.606957e-004,1.334801e-004
3.107795e-004,1.516314e-004
2.955454e-004,1.597346e-004
3.042970e-004,1.624898e-004
3.321722e-004,1.662173e-004
3.712299e-004,1.702689e-004
4.104497e-004,1.683241e-004
4.247115e-004,1.558451e-004
3.859779e-004,1.351007e-004
2.923041e-004,1.103047e-004
1.626518e-004,8.761557e-005
1.825161e-005,7.076078e-005
-1.125351e-004,6.557468e-005
-1.979435e-004,7.497447e-005
-2.097743e-004,9.652917e-005
-1.347380e-004,1.250527e-004
1.095867e-005,1.551968e-004
1.824238e-004,1.811273e-004
3.368721e-004,1.939304e-004
4.435111e-004,1.914995e-004
4.884033e-004,1.796687e-004
4.721967e-004,1.670276e-004
4.099636e-004,1.553589e-004
3.311998e-004,1.428799e-004
2.626462e-004,1.297526e-004
2.201850e-004,1.098185e-004
2.184023e-004,8.113296e-005
2.660495e-004,4.596478e-005
3.530786e-004,9.175954e-006
4.521006e-004,-2.420950e-005
5.266506e-004,-5.565017e-005
5.507984e-004,-9.098041e-005
5.073649e-004,-1.365208e-004
3.952156e-004,-1.909747e-004
2.368777e-004,-2.436459e-004
7.351589e-005,-2.762210e-004
-5.176061e-005,-2.767073e-004
-1.175591e-004,-2.486699e-004
-1.219349e-004,-2.032917e-004
-7.850138e-005,-1.569410e-004
-6.544382e-006,-1.211246e-004
8.113296e-005,-9.616651e-005
1.667035e-004,-7.315322e-005
2.196988e-004,-4.495386e-005
2.146748e-004,-1.367526e-005
1.401247e-004,1.209313e-005
4.151929e-006,2.359977e-005
-1.723372e-004,1.889987e-005
-3.637363e-004,4.244267e-007
-5.353634e-004,-2.566809e-005
-6.489712e-004,-5.629844e-005
-6.914323e-004,-8.887356e-005
-6.755499e-004,-1.195039e-004
-6.298475e-004,-1.465688e-004
-5.812279e-004,-1.679614e-004
-5.423322e-004,-1.833576e-004
-5.115399e-004,-1.945401e-004
-4.867439e-004,-2.036158e-004
-4.706994e-004,-2.165810e-004
-4.630823e-004,-2.339220e-004
-4.575721e-004,-2.489941e-004
-4.463896e-004,-2.481838e-004
-4.245108e-004,-2.238740e-004
-3.912874e-004,-1.742820e-004
-3.481781e-004,-1.026491e-004
-2.974516e-004,-1.221667e-005
-2.391081e-004,9.166720e-005
-1.690959e-004,2.062474e-004
-9.179074e-005,3.179104e-004
-1.805102e-005,4.052637e-004
3.802358e-005,4.512903e-004
6.768154e-005,4.524247e-004
7.124698e-005,4.198496e-004
5.714729e-005,3.765781e-004
4.807163e-005,3.428685e-004
6.346784e-005,3.206656e-004
9.896015e-005,3.021901e-004
1.423936e-004,2.820940e-004
1.754550e-004,2.572980e-004
1.814514e-004,2.303951e-004
1.529279e-004,2.010613e-004
9.944634e-005,1.717275e-004
3.915804e-005,1.492004e-004
-9.623623e-006,1.344524e-004
-2.664048e-005,1.234320e-004
-2.492749e-006,1.146805e-004
6.314371e-005,1.081979e-004
1.618415e-004,1.041462e-004
2.806354e-004,9.993253e-005
3.961880e-004,9.085688e-005
4.835413e-004,7.708133e-005
5.208163e-004,6.346784e-005
5.039615e-004,5.277153e-005
4.435111e-004,4.693717e-005
3.572923e-004,4.434413e-005
2.647530e-004,4.499239e-005
1.872858e-004,4.839576e-005
1.389903e-004,5.390598e-005
1.273216e-004,5.876794e-005
1.527658e-004,5.795762e-005
2.041406e-004,5.504044e-005
2.576221e-004,5.406805e-005
2.842008e-004,5.585077e-005
2.641047e-004,5.779555e-005
2.021958e-004,5.439218e-005
1.214872e-004,4.077869e-005
4.742337e-005,1.679302e-005
-8.720959e-007,-1.302700e-005
-1.756482e-005,-3.992984e-005
-6.544382e-006,-5.694670e-005
2.570662e-005,-6.391550e-005
6.703327e-005,-6.748094e-005
1.051186e-004,-7.412562e-005
1.274836e-004,-9.195280e-005
1.195424e-004,-1.186936e-004
7.448828e-005,-1.472171e-004
-7.030578e-006,-1.697442e-004
-1.112386e-004,-1.820611e-004
-2.224154e-004,-1.846542e-004
-3.237062e-004,-1.817370e-004
-3.984183e-004,-1.786577e-004
-4.316416e-004,-1.759026e-004
-4.151110e-004,-1.697442e-004
-3.540124e-004,-1.587237e-004
-2.668213e-004,-1.465688e-004
-1.836818e-004,-1.340898e-004
-1.308485e-004,-1.199901e-004
-1.199901e-004,-1.075111e-004
-1.489998e-004,-9.859748e-005
-1.940539e-004,-9.195280e-005
-2.235498e-004,-8.255302e-005
-2.120432e-004,-6.796714e-005
-1.541859e-004,-4.754691e-005
-6.407757e-005,-2.469570e-005
3.332369e-005,-8.651231e-006
1.047945e-004,-3.951337e-006
1.287802e-004,-1.383732e-005
1.093323e-004,-3.701266e-005
6.654708e-005,-6.910160e-005
3.413401e-005,-1.097800e-004
4.077869e-005,-1.559686e-004
9.539470e-005,-2.003745e-004
1.825859e-004,-2.323013e-004
2.707494e-004,-2.438080e-004
3.318480e-004,-2.313290e-004
3.482167e-004,-2.034537e-004
3.201794e-004,-1.655305e-004
2.660495e-004,-1.266348e-004
2.067336e-004,-8.838737e-005
1.535762e-004,-4.608832e-005
1.051186e-004,7.393236e-006
5.941620e-005,7.384002e-005
2.149292e-005,1.436902e-004
-3.465141e-006,2.093267e-004
-2.858527e-005,2.603772e-004
-7.655660e-005,2.937627e-004
-1.571031e-004,3.167760e-004
-2.527216e-004,3.404375e-004
-3.339163e-004,3.691231e-004
-3.823738e-004,3.976466e-004
-3.967976e-004,4.133669e-004
-3.898288e-004,4.020224e-004
-3.747568e-004,3.576164e-004
-3.593606e-004,2.885766e-004
-3.423437e-004,2.151610e-004
-3.110651e-004,1.603829e-004
-2.504527e-004,1.380179e-004
-1.524032e-004,1.509831e-004
-2.210265e-005,1.923098e-004
1.197045e-004,2.503292e-004
2.472499e-004,3.106175e-004
3.370341e-004,3.600474e-004
3.686369e-004,3.944053e-004
3.425444e-004,4.167703e-004
2.731804e-004,4.281149e-004
1.814514e-004,4.269804e-004
9.701536e-005,4.145014e-004
4.450620e-005,3.924605e-004
3.883391e-005,3.585888e-004
7.967438e-005,3.033245e-004
1.522796e-004,2.263435e-004
2.302331e-004,1.372076e-004
2.804733e-004,4.936815e-005
2.827423e-004,-2.469570e-005
2.394708e-004,-8.012204e-005
1.691344e-004,-1.199901e-004
9.442231e-005,-1.520790e-004
3.137890e-005,-1.796301e-004
-1.351319e-005,-2.016710e-004
-4.754691e-005,-2.191741e-004
-8.773911e-005,-2.310048e-004
-1.408965e-004,-2.399184e-004
-2.006986e-004,-2.446183e-004
-2.494803e-004,-2.399184e-004
-2.669833e-004,-2.264670e-004
-2.462390e-004,-2.065330e-004
-1.966470e-004,-1.859507e-004
-1.394379e-004,-1.689338e-004
-1.049180e-004,-1.569410e-004
-1.149661e-004,-1.502963e-004
-1.674752e-004,-1.459206e-004
-2.310048e-004,-1.394379e-004
-2.658489e-004,-1.240417e-004
-2.433218e-004,-9.632857e-005
-1.632615e-004,-5.240886e-005
-4.916756e-005,2.693341e-006
6.346784e-005,5.277153e-005
1.462832e-004,8.080883e-005
1.840444e-004,8.388807e-005
1.757791e-004,6.930219e-005
1.355869e-004,4.871989e-005
8.583286e-005,2.878586e-005
4.677511e-005,6.096713e-006
3.040651e-005,-2.437157e-005
4.126489e-005,-6.197072e-005
7.335383e-005,-1.081593e-004
1.114392e-004,-1.700683e-004
1.375317e-004,-2.473734e-004
1.487142e-004,-3.284061e-004
1.466074e-004,-3.929081e-004
1.354248e-004,-4.199730e-004
1.231079e-004,-4.050630e-004
1.114392e-004,-3.622777e-004
9.409818e-005,-3.115513e-004
6.152305e-005,-2.585559e-004
1.031041e-005,-2.045882e-004
-5.500191e-005,-1.493239e-004
-1.161005e-004,-8.806324e-005
-1.425172e-004,-2.031993e-005
-1.096179e-004,4.742337e-005
-1.075808e-005,1.039842e-004
1.422316e-004,1.414213e-004
3.145071e-004,1.571416e-004
4.715484e-004,1.561692e-004
5.824011e-004,1.430419e-004
6.219451e-004,1.211631e-004
5.757565e-004,9.539470e-005
4.540453e-004,7.659513e-005
2.906835e-004,7.108491e-005
1.349386e-004,7.805372e-005
3.218923e-005,9.409818e-005
2.531276e-006,1.143563e-004
3.478228e-005,1.344524e-004
1.030118e-004,1.451488e-004
1.799928e-004,1.409351e-004
2.461155e-004,1.263492e-004
2.970040e-004,1.073875e-004
3.258516e-004,8.696731e-005
3.167760e-004,6.622294e-005
2.550291e-004,4.839576e-005
1.446626e-004,3.721326e-005
1.160693e-005,3.089271e-005
-1.071869e-004,3.024445e-005
-1.799543e-004,3.883391e-005
-1.979435e-004,5.844381e-005
-1.729855e-004,8.129502e-005
-1.237176e-004,1.086841e-004
-6.521203e-005,1.446626e-004
-1.497178e-005,1.864754e-004
1.063454e-005,2.226160e-004
3.503668e-006,2.422259e-004
-3.166451e-005,2.449810e-004
-8.060823e-005,2.399570e-004
-1.253383e-004,2.336365e-004
-1.590478e-004,2.312055e-004
-1.801163e-004,2.308813e-004
-1.851404e-004,2.260194e-004
-1.831956e-004,2.143507e-004
-1.890299e-004,1.944166e-004
-2.123673e-004,1.657311e-004
-2.528836e-004,1.305629e-004
-3.031239e-004,9.004655e-005
-3.569296e-004,4.693717e-005
-4.120317e-004,-8.720959e-007
-4.676201e-004,-5.516398e-005
-5.196431e-004,-1.083214e-004
-5.624284e-004,-1.501342e-004
-5.930586e-004,-1.749302e-004
-6.081308e-004,-1.823853e-004
-6.126686e-004,-1.741199e-004
-5.950035e-004,-1.569410e-004
-5.405495e-004,-1.370070e-004
-4.434724e-004,-1.159385e-004
-3.167374e-004,-9.373552e-005
-1.840059e-004,-6.861539e-005
-6.796714e-005,-4.560212e-005
1.808955e-005,-3.263690e-005
6.800567e-005,-3.733679e-005
8.696731e-005,-5.872941e-005
8.939829e-005,-8.838737e-005
8.259155e-005,-1.159385e-004
6.557468e-005,-1.302002e-004
3.494434e-005,-1.222590e-004
-8.975362e-006,-9.211487e-005
-4.868137e-005,-5.127441e-005
-6.116039e-005,-1.367526e-005
-2.971972e-005,1.144487e-005
4.628891e-005,2.408596e-005
1.524417e-004,3.008238e-005
2.637806e-004,3.283749e-005
3.561579e-004,3.510641e-005
4.148255e-004,4.239934e-005
4.438352e-004,5.876794e-005
4.598797e-004,8.518459e-005
4.751139e-004,1.227837e-004
4.987754e-004,1.660552e-004
5.307022e-004,2.062474e-004
5.610085e-004,2.315296e-004
5.798081e-004,2.307193e-004
5.811046e-004,2.030061e-004
5.686256e-004,1.553589e-004
5.496639e-004,9.604298e-005
5.363746e-004,3.721326e-005
5.339436e-004,-7.192643e-006
5.401021e-004,-3.069211e-005
5.438296e-004,-3.701266e-005
5.456123e-004,-3.150244e-005
5.585775e-004,-1.707863e-005
5.934216e-004,5.448452e-006
6.459308e-004,3.510641e-005
6.836920e-004,7.335383e-005
6.595443e-004,1.213252e-004
5.386435e-004,1.744826e-004
3.388169e-004,2.187264e-004
1.197045e-004,2.423880e-004
-4.787104e-005,2.383363e-004
-1.253383e-004,2.049509e-004
-1.104282e-004,1.498487e-004
-2.842320e-005,8.680524e-005
8.518459e-005,2.781346e-005
1.927960e-004,-1.594417e-005
2.634565e-004,-3.944364e-005
2.837146e-004,-4.122636e-005
2.548670e-004,-2.501983e-005
1.871237e-004,-8.720959e-007
8.550872e-005,2.732727e-005
-3.911951e-005,5.455425e-005
-1.712027e-004,7.805372e-005
-2.887001e-004,9.490851e-005
-3.674638e-004,9.912221e-005
-3.911253e-004,8.664318e-005
-3.671397e-004,6.249545e-005
-3.224097e-004,3.267542e-005
-2.870794e-004,1.720949e-006
-2.724935e-004,-2.599222e-005
-2.762210e-004,-4.673658e-005
-2.844864e-004,-5.224680e-005
-2.872415e-004,-3.928157e-005
-2.765452e-004,-1.156841e-005
-2.491561e-004,2.473423e-005
-2.173914e-004,5.941620e-005
-1.921092e-004,8.323981e-005
-1.796301e-004,9.101894e-005
-1.794681e-004,8.356394e-005
-1.846542e-004,6.427817e-005
-1.898403e-004,4.045456e-005
-2.047502e-004,1.922400e-005
-2.402425e-004,1.720949e-006
-3.003688e-004,-1.092015e-005
-3.788084e-004,-2.096820e-005
-4.520619e-004,-3.150244e-005
-4.894990e-004,-3.992984e-005
-4.658375e-004,-4.219875e-005
-3.828600e-004,-3.798505e-005
-2.679557e-004,-3.069211e-005
-1.600202e-004,-2.356124e-005
-8.449780e-005,-1.351319e-005
-5.013995e-005,7.485573e-007
-5.970181e-005,2.084466e-005
-1.083214e-004,4.353380e-005
-1.827094e-004,6.298164e-005
-2.663351e-004,7.319176e-005
-3.407231e-004,6.654708e-005
-3.927460e-004,3.996837e-005
-4.108973e-004,-5.896120e-006
-3.869116e-004,-6.148453e-005
-3.230579e-004,-1.154523e-004
-2.394322e-004,-1.582375e-004
-1.686097e-004,-1.875713e-004
-1.430034e-004,-2.070192e-004
-1.699062e-004,-2.157707e-004
-2.207947e-004,-2.094502e-004
-2.520733e-004,-1.844921e-004
-2.308428e-004,-1.410586e-004
-1.553203e-004,-8.482193e-005
-4.300908e-005,-1.707863e-005
8.291568e-005,5.325772e-005
1.984683e-004,1.081979e-004
2.846870e-004,1.316974e-004
3.342791e-004,1.190562e-004
3.516200e-004,7.708133e-005
3.546993e-004,2.230325e-005
3.629646e-004,-2.858527e-005
3.919743e-004,-6.683268e-005
4.363802e-004,-9.470791e-005
4.832171e-004,-1.157764e-004
5.195198e-004,-1.298761e-004
5.350781e-004,-1.412206e-004
5.310264e-004,-1.491618e-004
5.206542e-004,-1.525652e-004
5.170888e-004,-1.475412e-004
5.224369e-004,-1.371690e-004
5.310264e-004,-1.250141e-004
5.324850e-004,-1.115627e-004
5.154681e-004,-9.033215e-005
4.756001e-004,-5.808115e-005
4.157979e-004,-1.740276e-005
3.459477e-004,2.441009e-005
2.718839e-004,5.666109e-005
1.910133e-004,6.703327e-005
1.030118e-004,5.163707e-005
1.679302e-005,1.873781e-005
-4.965376e-005,-1.724069e-005
-8.579432e-005,-4.625038e-005
-1.031353e-004,-6.051213e-005
-1.240417e-004,-5.338126e-005
-1.629374e-004,-2.453363e-005
-2.211189e-004,2.068259e-005
-2.948586e-004,7.173317e-005
-3.817256e-004,1.125736e-004
-4.760476e-004,1.339663e-004
-5.645352e-004,1.396385e-004
-6.311440e-004,1.453108e-004
-6.700397e-004,1.603829e-004
-6.810602e-004,1.816135e-004
-6.666363e-004,1.981441e-004
-6.345474e-004,2.002510e-004
-5.899795e-004,1.812893e-004
-5.305015e-004,1.419075e-004
-4.553032e-004,9.053275e-005
-3.698948e-004,3.996837e-005
-2.856209e-004,4.476060e-006
-2.058847e-004,-6.544382e-006
-1.305243e-004,5.934648e-006
-5.921561e-005,3.073064e-005
5.610517e-006,5.747142e-005
6.168512e-005,7.805372e-005
1.080358e-004,8.988449e-005
1.493625e-004,9.182927e-005
1.949028e-004,8.421220e-005
2.534084e-004,7.059871e-005
3.185587e-004,5.309566e-005
3.665301e-004,3.688912e-005
3.639370e-004,2.619281e-005
3.020280e-004,2.603075e-005
2.004130e-004,3.494434e-005
9.669123e-005,5.082674e-005
2.959619e-005,7.205730e-005
2.035846e-005,9.539470e-005
6.314371e-005,1.132219e-004
1.344524e-004,1.214872e-004
2.099749e-004,1.245665e-004
2.660495e-004,1.260251e-004
2.916559e-004,1.229458e-004
2.866318e-004,1.086841e-004
2.607014e-004,8.161915e-005
2.269918e-004,4.758544e-005
1.989545e-004,1.257933e-005
1.795066e-004,-1.497178e-005
1.683241e-004,-3.182657e-005
1.600588e-004,-4.430560e-005
1.475797e-004,-5.872941e-005
1.224596e-004,-8.093236e-005
8.810177e-005,-1.042698e-004
5.601284e-005,-1.141558e-004
4.288554e-005,-9.551824e-005
5.990240e-005,-4.219875e-005
1.086841e-004,4.045456e-005
1.741585e-004,1.423936e-004
2.384984e-004,2.451431e-004
2.877662e-004,3.344411e-004
3.054314e-004,4.000776e-004
2.809595e-004,4.380009e-004
2.203471e-004,4.499937e-004
1.501728e-004,4.430249e-004
9.977047e-005,4.274666e-004
8.567078e-005,4.081808e-004
1.052807e-004,3.807918e-004
1.385041e-004,3.401134e-004
1.639484e-004,2.796630e-004
1.786963e-004,2.044647e-004
1.968476e-004,1.184080e-004
2.326641e-004,2.311357e-005
2.861456e-004,-7.963584e-005
3.435168e-004,-1.806025e-004
3.885709e-004,-2.669833e-004
4.106118e-004,-3.243544e-004
4.127187e-004,-3.514194e-004
3.978086e-004,-3.517435e-004
3.696093e-004,-3.348887e-004
3.339549e-004,-3.066893e-004
2.981384e-004,-2.715212e-004
2.649151e-004,-2.280877e-004
2.255332e-004,-1.754164e-004
1.715654e-004,-1.131834e-004
1.054428e-004,-4.446767e-005
3.867184e-005,2.035846e-005
-1.432352e-005,6.735741e-005
-4.576419e-005,8.777764e-005
-6.229485e-005,8.372601e-005
-6.942573e-005,6.249545e-005
-6.991193e-005,3.672706e-005
-6.278104e-005,1.873781e-005
-5.192267e-005,1.792748e-005
-4.949169e-005,3.364782e-005
-7.039812e-005,5.925414e-005
-1.235555e-004,7.999851e-005
-2.018331e-004,8.437427e-005
-2.784900e-004,6.784360e-005
-3.313232e-004,3.688912e-005
-3.567675e-004,1.558884e-006
-3.698948e-004,-2.761287e-005
-3.854531e-004,-4.398147e-005
-3.990665e-004,-4.381940e-005
-3.903150e-004,-2.842320e-005
-3.350507e-004,-4.113403e-006
-2.282497e-004,2.116879e-005
-9.211487e-005,4.013043e-005
3.526847e-005,4.547859e-005
1.206769e-004,3.510641e-005
1.492004e-004,1.160693e-005
1.292664e-004,-1.886135e-005
8.680524e-005,-4.819517e-005
4.693717e-005,-7.477388e-005
2.100672e-005,-9.584238e-005
6.582909e-006,-1.096179e-004
-7.840905e-006,-1.152902e-004
-3.539201e-005,-1.162626e-004
-8.741498e-005,-1.183694e-004
-1.577513e-004,-1.183694e-004
-2.251705e-004,-1.076731e-004
-2.652006e-004,-8.287715e-005
-2.647144e-004,-4.706071e-005
-2.251705e-004,-8.327101e-006
-1.590478e-004,2.165498e-005
-8.692878e-005,3.607880e-005
-3.976777e-005,4.191315e-005
-4.430560e-005,4.920609e-005
-1.096179e-004,5.747142e-005
-2.266291e-004,5.763349e-005
-3.637363e-004,4.742337e-005
-4.781544e-004,3.445814e-005
-5.376324e-004,3.121684e-005
-5.332566e-004,4.483033e-005
-4.870680e-004,6.865393e-005
-4.313175e-004,8.891209e-005
-3.870737e-004,9.571884e-005
-3.579019e-004,8.777764e-005
-3.378059e-004,6.525056e-005
-3.232200e-004,3.073064e-005
-3.147926e-004,-9.623623e-006
-3.058790e-004,-4.430560e-005
-2.843243e-004,-6.148453e-005
-2.467252e-004,-5.467778e-005
-1.929195e-004,-2.923353e-005
-1.282554e-004,3.665733e-006
-6.407757e-005,3.202716e-005
-9.137427e-006,4.677511e-005
3.316162e-005,4.515445e-005
6.281957e-005,2.619281e-005
8.469840e-005,-2.006553e-006
1.072255e-004,-3.069211e-005
1.342904e-004,-4.965376e-005
1.665414e-004,-5.467778e-005
2.018716e-004,-4.592625e-005
2.438466e-004,-2.631635e-005
2.908455e-004,1.883015e-006
3.380065e-004,3.688912e-005
3.801436e-004,7.059871e-005
4.179048e-004,9.831188e-005
4.509661e-004,1.138702e-004
4.671726e-004,1.090082e-004
4.530729e-004,8.453633e-005
3.971604e-004,4.871989e-005
3.031625e-004,1.128280e-005
1.939304e-004,-2.113026e-005
9.442231e-005,-4.365734e-005
2.424803e-005,-5.354332e-005
-5.571990e-006,-4.689865e-005
5.448452e-006,-2.194059e-005
4.029250e-005,1.727922e-005
7.675720e-005,6.298164e-005
9.409818e-005,1.111150e-004
8.972242e-005,1.535762e-004
7.448828e-005,1.808031e-004
5.698522e-005,1.900409e-004
4.158902e-005,1.837203e-004
3.073064e-005,1.692965e-004
2.910999e-005,1.589243e-004
3.818565e-005,1.551968e-004
5.147500e-005,1.522796e-004
6.362991e-005,1.417454e-004
7.400208e-005,1.151667e-004
8.729144e-005,6.832980e-005
1.128978e-004,3.017472e-006
1.522796e-004,-6.942573e-005
2.017096e-004,-1.347380e-004
2.469258e-004,-1.804405e-004
2.735045e-004,-2.008607e-004
2.725321e-004,-1.972953e-004
2.433604e-004,-1.778474e-004
1.861513e-004,-1.467309e-004
9.717743e-005,-1.088076e-004
-1.578211e-005,-6.375344e-005
-1.175591e-004,-9.947754e-006
-1.611547e-004,5.050261e-005
-1.198280e-004,1.101427e-004
-2.816880e-006,1.600588e-004
1.498487e-004,1.887444e-004
2.812837e-004,1.851789e-004
3.474063e-004,1.430419e-004
3.362238e-004,7.157111e-005
2.725321e-004,-1.480971e-005
2.075439e-004,-1.016767e-004
1.819376e-004,-1.767130e-004
2.083542e-004,-2.276015e-004
2.688046e-004,-2.429977e-004
3.281205e-004,-2.217671e-004
3.595612e-004,-1.733096e-004
3.542131e-004,-1.097800e-004
3.140208e-004,-4.333321e-005
2.456293e-004,1.744129e-005
1.676758e-004,6.687121e-005
1.013911e-004,1.015532e-004
5.682316e-005,1.203528e-004
2.716521e-005,1.242423e-004
-5.896120e-006,1.154908e-004
-5.921561e-005,9.993253e-005
-1.376552e-004,8.631905e-005
-2.345703e-004,8.097089e-005
-3.355370e-004,8.210535e-005
-4.222419e-004,7.918817e-005
-4.810716e-004,6.444023e-005
-5.057055e-004,4.191315e-005
-4.891749e-004,2.214118e-005
-4.246728e-004,1.841368e-005
-3.228959e-004,4.061663e-005
-2.032917e-004,9.069481e-005
-8.984595e-005,1.551968e-004
3.017472e-006,2.187264e-004
6.897806e-005,2.662116e-004
1.056048e-004,2.835526e-004
1.138702e-004,2.657254e-004
9.831188e-005,2.185644e-004
6.703327e-005,1.590864e-004
3.380988e-005,1.034980e-004
9.500085e-006,6.476436e-005
-6.176923e-008,4.742337e-005
4.638125e-006,5.082674e-005
2.473423e-005,6.897806e-005
6.508849e-005,9.523264e-005
1.227837e-004,1.248906e-004
1.905271e-004,1.496866e-004
2.587566e-004,1.671896e-004
3.187208e-004,1.803169e-004
3.597233e-004,1.926339e-004
3.662059e-004,2.020337e-004
3.224483e-004,2.077060e-004
2.292607e-004,2.130541e-004
1.214872e-004,2.184023e-004
3.332369e-005,2.184023e-004
-2.015787e-005,2.083542e-004
-4.398147e-005,1.885823e-004
-4.479180e-005,1.654069e-004
-3.036798e-005,1.415833e-004
7.485573e-007,1.166253e-004
5.374392e-005,8.696731e-005
1.206769e-004,5.066468e-005
1.772377e-004,3.341602e-006
1.997648e-004,-5.321920e-005
1.725378e-004,-1.131834e-004
1.012291e-004,-1.715269e-004
1.355172e-005,-2.209568e-004
-4.997789e-005,-2.570974e-004
-7.007399e-005,-2.750866e-004
-5.273300e-005,-2.731418e-004
-1.124428e-005,-2.585559e-004
4.045456e-005,-2.426735e-004
8.518459e-005,-2.334358e-004
1.106288e-004,-2.344082e-004
1.153287e-004,-2.413770e-004
1.073875e-004,-2.485079e-004
1.025256e-004,-2.449425e-004
1.164632e-004,-2.177155e-004
1.459591e-004,-1.653684e-004
1.592484e-004,-9.859748e-005
1.193804e-004,-3.733679e-005
1.436204e-005,6.096713e-006
-1.329553e-004,2.748934e-005
-2.742763e-004,2.554455e-005
-3.640605e-004,3.341602e-006
-3.867496e-004,-2.647842e-005
-3.650328e-004,-5.467778e-005
-3.436402e-004,-8.336335e-005
-3.530400e-004,-1.164247e-004
-3.724878e-004,-1.533756e-004
-3.465574e-004,-1.887058e-004
-2.489941e-004,-2.169052e-004
-1.086455e-004,-2.290601e-004
2.855407e-006,-2.157707e-004
2.829966e-005,-1.749302e-004
-1.756482e-005,-1.131834e-004
-7.526008e-005,-4.398147e-005
-9.568031e-005,1.922400e-005
-7.234290e-005,6.362991e-005
-3.830919e-005,8.793970e-005
-5.030202e-005,9.831188e-005
-1.541859e-004,1.056048e-004
-3.483401e-004,1.137081e-004
-5.901415e-004,1.239182e-004
-8.301602e-004,1.297526e-004
-1.033228e-003,1.245665e-004
-1.178276e-003,1.135460e-004
-1.246668e-003,1.007429e-004
-1.232568e-003,9.523264e-005
-1.143270e-003,1.002567e-004
-9.907669e-004,1.156529e-004
-7.847819e-004,1.389903e-004
-5.488148e-004,1.628139e-004
-3.156029e-004,1.827479e-004
-1.031353e-004,1.978200e-004
8.259155e-005,2.051129e-004
2.454672e-004,2.077060e-004
3.872744e-004,2.023578e-004
4.973168e-004,1.856651e-004
5.563086e-004,1.532520e-004
5.590637e-004,1.038221e-004
5.213025e-004,4.077869e-005
4.683071e-004,-2.242678e-005
4.329769e-004,-6.829127e-005
4.289252e-004,-8.644259e-005
4.474007e-004,-7.655660e-005
4.673347e-004,-5.257093e-005
4.843516e-004,-2.728874e-005
5.297299e-004,-2.168618e-006
6.349103e-004,2.116879e-005
7.857933e-004,3.575467e-005
9.269523e-004,4.077869e-005
9.974508e-004,4.466826e-005
9.817304e-004,5.860588e-005
9.135009e-004,8.842590e-005
8.546711e-004,1.331559e-004
8.481885e-004,1.840444e-004
9.016701e-004,2.227781e-004
9.838373e-004,2.334744e-004
1.058387e-003,2.065715e-004
1.110086e-003,1.474177e-004
1.149630e-003,7.157111e-005
1.180423e-003,-1.034161e-006
1.179612e-003,-5.743289e-005
1.101173e-003,-1.032974e-004
9.060458e-004,-1.462447e-004
5.900182e-004,-1.880575e-004
2.059233e-004,-2.216050e-004
-1.770371e-004,-2.350565e-004
-5.117019e-004,-2.170672e-004
-7.923990e-004,-1.627754e-004
-1.026583e-003,-7.477388e-005
-1.210852e-003,4.094075e-005
-1.334021e-003,1.683241e-004
-1.384424e-003,2.822560e-004
-1.360438e-003,3.616681e-004
-1.276974e-003,3.958639e-004
-1.162394e-003,3.833848e-004
-1.048786e-003,3.328204e-004
-9.559229e-004,2.592428e-004
-8.956346e-004,1.833962e-004
-8.638698e-004,1.203528e-004
-8.476633e-004,7.546067e-005
-8.324291e-004,4.774750e-005
-8.047160e-004,3.705119e-005
-7.648479e-004,4.256141e-005
-7.259523e-004,5.698522e-005
-7.125008e-004,6.962632e-005
-7.382692e-004,6.816773e-005
-7.841337e-004,4.466826e-005
-8.081193e-004,3.989864e-006
-7.651721e-004,-3.960571e-005
-6.411921e-004,-6.715681e-005
-4.694029e-004,-7.185670e-005
-2.963172e-004,-5.840528e-005
-1.337657e-004,-4.722278e-005
4.288554e-005,-6.132246e-005
2.663737e-004,-1.081593e-004
5.567948e-004,-1.788198e-004
9.047493e-004,-2.532078e-004
1.272476e-003,-3.177098e-004
1.598876e-003,-3.685983e-004
1.811507e-003,-4.065215e-004
1.843920e-003,-4.262935e-004
1.658355e-003,-4.204592e-004
1.285279e-003,-3.849669e-004
8.078342e-004,-3.196545e-004
3.226103e-004,-2.340841e-004
-7.396356e-005,-1.378173e-004
-2.971275e-004,-4.462973e-005
-3.172236e-004,3.283749e-005
-1.710407e-004,8.793970e-005
5.974033e-005,1.174356e-004
2.863077e-004,1.187321e-004
4.631210e-004,9.361199e-005
5.819149e-004,4.888196e-005
6.527375e-004,-4.113403e-006
6.827196e-004,-5.159854e-005
6.788301e-004,-8.449780e-005
6.498204e-004,-9.730096e-005
6.102764e-004,-8.822530e-005
5.691118e-004,-6.051213e-005
5.211404e-004,-2.210265e-005
4.572867e-004,2.035846e-005
3.764160e-004,6.362991e-005
2.923041e-004,1.080358e-004
2.336365e-004,1.548727e-004
2.224539e-004,2.025199e-004
2.595669e-004,2.453052e-004
3.243930e-004,2.725321e-004
3.767402e-004,2.777182e-004
3.796573e-004,2.668598e-004
3.190449e-004,2.524360e-004
2.227781e-004,2.451431e-004
1.415833e-004,2.480603e-004
1.148425e-004,2.598910e-004
1.634622e-004,2.756114e-004
2.838767e-004,2.934386e-004
4.435111e-004,3.089969e-004
5.895320e-004,3.107795e-004
6.778577e-004,2.889007e-004
6.968193e-004,2.391467e-004
6.532237e-004,1.657311e-004
5.559844e-004,8.161915e-005
4.154738e-004,5.864920e-007
2.409294e-004,-7.023606e-005
4.337174e-005,-1.306864e-004
-1.794681e-004,-1.802784e-004
-4.337485e-004,-2.220912e-004
-7.142835e-004,-2.582318e-004
-9.846084e-004,-2.812451e-004
-1.186056e-003,-2.726556e-004
-1.268223e-003,-2.178775e-004
-1.229327e-003,-1.212866e-004
-1.113126e-003,-4.275467e-006
-9.756948e-004,1.085220e-004
-8.650042e-004,2.005751e-004
-8.058504e-004,2.619979e-004
-8.001782e-004,2.960316e-004
-8.301602e-004,3.107795e-004
-8.711627e-004,3.117519e-004
-8.975794e-004,3.012177e-004
-8.923933e-004,2.845250e-004
-8.447461e-004,2.626462e-004
-7.517206e-004,2.350950e-004
-6.155858e-004,1.991165e-004
-4.543308e-004,1.553589e-004
-2.993964e-004,1.078737e-004
-1.768750e-004,5.860588e-005
-9.940781e-005,9.824215e-006
-6.148453e-005,-3.668853e-005
-4.398147e-005,-7.833932e-005
-2.372331e-005,-1.112386e-004
2.197911e-005,-1.308485e-004
1.020394e-004,-1.334415e-004
1.979821e-004,-1.164247e-004
2.733424e-004,-7.914964e-005
3.033245e-004,-2.550602e-005
2.879283e-004,3.526847e-005
2.548670e-004,9.344993e-005
2.360674e-004,1.423936e-004
2.454672e-004,1.707551e-004
2.790148e-004,1.730240e-004
3.266619e-004,1.474177e-004
3.723644e-004,9.652917e-005
4.041292e-004,3.089271e-005
4.148255e-004,-3.150244e-005
4.054258e-004,-8.336335e-005
3.754436e-004,-1.238797e-004
3.247172e-004,-1.546721e-004
2.577842e-004,-1.781716e-004
1.947408e-004,-1.948643e-004
1.616794e-004,-2.036158e-004
1.730240e-004,-2.011848e-004
2.219677e-004,-1.909747e-004
2.824181e-004,-1.784957e-004
3.195311e-004,-1.684476e-004
3.175863e-004,-1.608306e-004
2.884145e-004,-1.511067e-004
2.513016e-004,-1.373311e-004
2.128921e-004,-1.191798e-004
1.668655e-004,-9.130454e-005
1.116012e-004,-5.565017e-005
5.649903e-005,-1.578211e-005
2.035846e-005,2.052053e-005
5.610517e-006,4.839576e-005
8.203562e-006,6.200925e-005
1.906194e-005,6.071273e-005
3.397195e-005,4.936815e-005
5.536457e-005,4.094075e-005
9.377406e-005,4.596478e-005
1.579519e-004,6.654708e-005
2.462775e-004,9.636710e-005
3.401134e-004,1.268354e-004
3.981328e-004,1.492004e-004
3.780367e-004,1.551968e-004
2.726942e-004,1.388282e-004
1.143563e-004,9.717743e-005
-6.731888e-005,3.656499e-005
-2.538560e-004,-3.101625e-005
-4.173799e-004,-9.227693e-005
-5.175362e-004,-1.371690e-004
-5.246671e-004,-1.593720e-004
-4.313175e-004,-1.525652e-004
-2.580697e-004,-1.193418e-004
-4.479180e-005,-7.137051e-005
1.576278e-004,-2.161646e-005
3.012177e-004,1.825161e-005
3.589129e-004,4.499239e-005
3.277964e-004,5.860588e-005
2.331503e-004,6.800567e-005
1.088461e-004,7.967438e-005
-1.221667e-005,9.652917e-005
-9.130454e-005,1.150046e-004
-8.806324e-005,1.326697e-004
6.420843e-006,1.469315e-004
1.608691e-004,1.579519e-004
3.054314e-004,1.657311e-004
3.514580e-004,1.717275e-004
2.457913e-004,1.673517e-004
3.341602e-006,1.451488e-004
-3.086341e-004,1.034980e-004
-6.003517e-004,5.098881e-005
-7.923990e-004,-4.275467e-006
-8.559286e-004,-5.354332e-005
-8.225431e-004,-9.665270e-005
-7.468587e-004,-1.298761e-004
-6.776568e-004,-1.473791e-004
-6.548056e-004,-1.477033e-004
-6.891634e-004,-1.336036e-004
-7.616066e-004,-1.044318e-004
-8.306464e-004,-5.937768e-005
-8.559286e-004,-6.176923e-008
-8.193018e-004,6.687121e-005
-7.225489e-004,1.331559e-004
-5.995413e-004,1.916615e-004
-4.982505e-004,2.372019e-004
-4.399070e-004,2.691288e-004
-4.024699e-004,2.853353e-004
-3.554710e-004,2.893870e-004
-2.935620e-004,2.887387e-004
-2.301945e-004,2.900352e-004
-1.799543e-004,2.927903e-004
-1.410586e-004,2.864697e-004
-9.276313e-005,2.660495e-004
-1.886135e-005,2.297469e-004
7.805372e-005,1.809652e-004
1.863134e-004,1.244044e-004
2.929524e-004,6.427817e-005
3.788470e-004,3.827799e-006
4.302217e-004,-5.970181e-005
4.457800e-004,-1.225832e-004
4.357320e-004,-1.783336e-004
4.167703e-004,-2.217671e-004
4.062361e-004,-2.511010e-004
4.156358e-004,-2.645523e-004
4.503179e-004,-2.635799e-004
5.055821e-004,-2.522354e-004
5.700842e-004,-2.306807e-004
6.336138e-004,-1.998883e-004
6.841783e-004,-1.621271e-004
7.055709e-004,-1.219349e-004
6.851507e-004,-8.093236e-005
6.204865e-004,-3.944364e-005
5.258403e-004,9.106227e-007
4.253598e-004,3.559260e-005
3.412479e-004,5.374392e-005
2.820940e-004,4.920609e-005
2.438466e-004,2.797553e-005
2.229401e-004,-5.479652e-007
2.185644e-004,-2.777494e-005
2.268297e-004,-4.949169e-005
2.389846e-004,-5.743289e-005
2.503292e-004,-4.689865e-005
2.598910e-004,-1.643037e-005
2.665357e-004,2.781346e-005
2.694529e-004,7.837785e-005
2.710735e-004,1.263492e-004
2.649151e-004,1.608691e-004
2.449810e-004,1.780480e-004
2.159713e-004,1.762653e-004
1.927960e-004,1.540623e-004
1.858272e-004,1.143563e-004
1.957132e-004,6.719535e-005
2.214815e-004,2.084466e-005
2.603772e-004,-1.950961e-005
3.081865e-004,-5.273300e-005
3.540510e-004,-7.688073e-005
3.853296e-004,-9.292520e-005
3.974845e-004,-1.039456e-004
3.957018e-004,-1.123730e-004
3.898674e-004,-1.297140e-004
3.841952e-004,-1.645581e-004
3.712299e-004,-2.123673e-004
3.373583e-004,-2.595283e-004
2.733424e-004,-2.896725e-004
1.799928e-004,-2.914552e-004
6.184718e-005,-2.664971e-004
-7.785312e-005,-2.276015e-004
-2.241981e-004,-1.796301e-004
-3.603330e-004,-1.256624e-004
-4.703753e-004,-6.504996e-005
-5.368221e-004,-6.176923e-008
-5.442770e-004,6.622294e-005
-4.917679e-004,1.308870e-004
-3.946908e-004,1.921477e-004
-2.885380e-004,2.457913e-004
-2.086398e-004,2.830664e-004
-1.729855e-004,2.981384e-004
-1.804405e-004,2.908455e-004
-2.232257e-004,2.618358e-004
-2.925897e-004,2.141886e-004
-3.739464e-004,1.513072e-004
-4.394208e-004,8.275361e-005
-4.666478e-004,1.906194e-005
-4.480103e-004,-3.182657e-005
-4.014975e-004,-6.715681e-005
-3.449367e-004,-8.676672e-005
-2.885380e-004,-9.276313e-005
-2.360289e-004,-8.579432e-005
-1.891920e-004,-6.472583e-005
-1.533756e-004,-3.344723e-005
-1.336036e-004,4.476060e-006
-1.337657e-004,4.418206e-005
-1.533756e-004,8.161915e-005
-1.708786e-004,1.195424e-004
-1.446240e-004,1.595726e-004
-3.895745e-005,1.944166e-004
1.423936e-004,2.154851e-004
3.600474e-004,2.209954e-004
5.559844e-004,2.109473e-004
6.820714e-004,1.872858e-004
7.178878e-004,1.586002e-004
6.669993e-004,1.286181e-004
5.496639e-004,9.977047e-005
3.994293e-004,7.416415e-005
2.459534e-004,5.585077e-005
1.169494e-004,5.001642e-005
3.299956e-005,5.860588e-005
3.665733e-006,7.772959e-005
1.582063e-005,9.847395e-005
3.948217e-005,1.125736e-004
4.742337e-005,1.218114e-004
3.445814e-005,1.313732e-004
8.041497e-006,1.466074e-004
-1.999580e-005,1.673517e-004
-3.360929e-005,1.900409e-004
-1.837515e-005,2.077060e-004
2.894792e-005,2.162954e-004
9.523264e-005,2.146748e-004
1.586002e-004,2.051129e-004
2.017096e-004,1.889064e-004
2.198609e-004,1.657311e-004
2.149989e-004,1.370455e-004
1.898788e-004,1.030118e-004
1.446626e-004,6.670914e-005
7.935024e-005,3.380988e-005
7.069105e-006,9.013889e-006
-4.835724e-005,-3.951337e-006
-6.537409e-005,-5.571990e-006
-3.393342e-005,2.369211e-006
3.575467e-005,1.225520e-005
1.250527e-004,1.582063e-005
2.127300e-004,5.286387e-006
2.723701e-004,-2.031993e-005
2.885766e-004,-5.467778e-005
2.720459e-004,-9.098041e-005
2.511395e-004,-1.201522e-004
2.525981e-004,-1.345760e-004
2.712356e-004,-1.271210e-004
2.801492e-004,-9.859748e-005
2.543808e-004,-5.856735e-005
1.856651e-004,-2.583016e-005
9.604298e-005,-1.351319e-005
2.278944e-005,-2.680255e-005
1.720949e-006,-6.472583e-005
4.547859e-005,-1.156143e-004
1.435281e-004,-1.684476e-004
2.726942e-004,-2.154466e-004
4.085050e-004,-2.506147e-004
5.146578e-004,-2.690902e-004
5.454503e-004,-2.642282e-004
4.676588e-004,-2.345703e-004
2.979764e-004,-1.833576e-004
8.729144e-005,-1.167488e-004
-1.125351e-004,-4.527799e-005
-2.865932e-004,1.938607e-005
-4.538446e-004,7.059871e-005
-6.222305e-004,1.034980e-004
-7.570688e-004,1.179218e-004
-8.047160e-004,1.237561e-004
-7.397278e-004,1.352628e-004
-5.953276e-004,1.584381e-004
-4.614617e-004,1.866375e-004
-4.319658e-004,2.041406e-004
-5.342290e-004,1.914995e-004
-7.186593e-004,1.396385e-004
-8.998482e-004,5.487838e-005
-9.970875e-004,-4.495386e-005
-9.768293e-004,-1.267968e-004
-8.594940e-004,-1.580754e-004
-7.043975e-004,-1.246900e-004
-5.818762e-004,-3.182657e-005
-5.269361e-004,9.960841e-005
-5.353634e-004,2.412535e-004
-5.843072e-004,3.673404e-004
-6.468644e-004,4.542074e-004
-6.781430e-004,4.905101e-004
-6.340612e-004,4.814344e-004
-4.951713e-004,4.357320e-004
-2.807589e-004,3.645853e-004
-4.090223e-005,2.764217e-004
1.676758e-004,1.775618e-004
3.072141e-004,7.529860e-005
3.764160e-004,-2.372331e-005
4.091532e-004,-1.131834e-004
4.504799e-004,-1.861127e-004
5.268127e-004,-2.386219e-004
6.439860e-004,-2.686040e-004
7.778521e-004,-2.804347e-004
8.935668e-004,-2.791382e-004
9.621205e-004,-2.705488e-004
9.716824e-004,-2.592042e-004
9.258178e-004,-2.485079e-004
8.483506e-004,-2.365151e-004
7.635903e-004,-2.183637e-004
6.814231e-004,-1.953505e-004
5.953664e-004,-1.687718e-004
4.880791e-004,-1.441378e-004
3.396272e-004,-1.230693e-004
1.326697e-004,-1.050801e-004
-1.316588e-004,-9.098041e-005
-4.206212e-004,-7.655660e-005
-6.719845e-004,-5.808115e-005
-8.186536e-004,-3.490581e-005
-8.150881e-004,-6.382317e-006
-6.667984e-004,2.635488e-005
-4.309934e-004,6.314371e-005
-1.856265e-004,1.047945e-004
1.225520e-005,1.501728e-004
1.393144e-004,1.918236e-004
1.989545e-004,2.200230e-004
2.083542e-004,2.243987e-004
1.890685e-004,2.044647e-004
1.621656e-004,1.726999e-004
1.432040e-004,1.404489e-004
1.250527e-004,1.098185e-004
8.405014e-005,7.805372e-005
-7.516774e-006,4.483033e-005
-1.635857e-004,9.986281e-006
-3.640605e-004,-2.485776e-005
-5.666421e-004,-5.030202e-005
-7.170386e-004,-6.083626e-005
-7.789475e-004,-6.294311e-005
-7.398899e-004,-7.088431e-005
-6.121824e-004,-9.227693e-005
-4.266177e-004,-1.242038e-004
-2.263049e-004,-1.601823e-004
-4.916756e-005,-1.945401e-004
8.194328e-005,-2.214430e-004
1.704310e-004,-2.370013e-004
2.350950e-004,-2.373254e-004
3.020280e-004,-2.147983e-004
3.924605e-004,-1.694200e-004
5.232473e-004,-1.135075e-004
6.836920e-004,-6.099833e-005
8.395990e-004,-1.934754e-005
9.493173e-004,9.338019e-006
9.865924e-004,3.089271e-005
9.532070e-004,5.017848e-005
8.679605e-004,7.513654e-005
7.564594e-004,1.143563e-004
6.409068e-004,1.667035e-004
5.295678e-004,2.154851e-004
4.240633e-004,2.410915e-004
3.328204e-004,2.423880e-004
2.746390e-004,2.406053e-004
2.615117e-004,2.537325e-004
2.730183e-004,2.867939e-004
2.556773e-004,3.295791e-004
1.443384e-004,3.615060e-004
-8.757704e-005,3.666921e-004
-4.019837e-004,3.383307e-004
-7.125008e-004,2.770700e-004
-9.427955e-004,1.939304e-004
-1.057538e-003,1.098185e-004
-1.056890e-003,4.094075e-005
-9.528436e-004,-3.303076e-006
-7.719788e-004,-2.745081e-005
-5.567560e-004,-4.900550e-005
-3.619536e-004,-8.611845e-005
-2.421874e-004,-1.488377e-004
-2.297083e-004,-2.352185e-004
-3.105789e-004,-3.292164e-004
-4.280762e-004,-4.058733e-004
-5.144570e-004,-4.468758e-004
-5.230465e-004,-4.449310e-004
-4.382863e-004,-4.006872e-004
-2.822175e-004,-3.235441e-004
-9.762509e-005,-2.305186e-004
7.546067e-005,-1.418689e-004
2.090025e-004,-6.861539e-005
2.945730e-004,-1.480971e-005
3.334687e-004,2.716521e-005
3.287688e-004,6.541262e-005
2.845250e-004,1.000946e-004
2.200230e-004,1.247285e-004
1.629760e-004,1.338042e-004
1.398006e-004,1.316974e-004
1.602208e-004,1.312112e-004
2.115956e-004,1.415833e-004
2.668598e-004,1.649207e-004
3.064038e-004,1.940925e-004
3.242310e-004,2.195368e-004
3.245551e-004,2.378501e-004
3.162898e-004,2.454672e-004
3.085106e-004,2.428742e-004
3.077003e-004,2.273159e-004
3.161277e-004,1.970097e-004
3.303894e-004,1.550348e-004
3.405996e-004,1.091703e-004
3.373583e-004,7.027458e-005
3.214759e-004,4.823370e-005
3.051073e-004,4.774750e-005
3.156415e-004,6.217132e-005
3.835469e-004,8.194328e-005
5.157923e-004,9.620504e-005
6.840162e-004,9.523264e-005
8.384645e-004,7.627100e-005
9.269523e-004,4.985435e-005
9.203076e-004,2.392390e-005
8.225822e-004,1.558884e-006
6.587339e-004,-1.464765e-005
4.696036e-004,-2.599222e-005
2.940868e-004,-3.166451e-005
1.615174e-004,-3.134038e-005
8.875003e-005,-2.258885e-005
8.032264e-005,-4.437533e-006
1.242423e-004,2.262738e-005
1.884202e-004,5.390598e-005
2.350950e-004,8.242948e-005
2.417397e-004,9.960841e-005
2.030061e-004,1.020394e-004
1.239182e-004,9.101894e-005
2.716521e-005,7.546067e-005
-5.565017e-005,5.941620e-005
-9.195280e-005,4.807163e-005
-5.613637e-005,4.726130e-005
5.001642e-005,5.147500e-005
1.908512e-004,4.726130e-005
3.190449e-004,2.214118e-005
4.021844e-004,-2.518189e-005
4.384871e-004,-8.417367e-005
4.503179e-004,-1.370070e-004
4.647417e-004,-1.741199e-004
4.751139e-004,-1.985918e-004
4.389733e-004,-2.118811e-004
3.064038e-004,-2.078295e-004
7.076078e-005,-1.801163e-004
-2.248464e-004,-1.255003e-004
-5.186707e-004,-4.560212e-005
-7.633893e-004,5.358185e-005
-9.371233e-004,1.564933e-004
-1.047652e-003,2.449810e-004
-1.126902e-003,3.077003e-004
-1.207934e-003,3.452995e-004
-1.301770e-003,3.637749e-004
-1.378265e-003,3.653956e-004
-1.384910e-003,3.477304e-004
-1.295774e-003,3.104554e-004
-1.127550e-003,2.582704e-004
-9.278856e-004,2.004130e-004
-7.460483e-004,1.509831e-004
-6.107238e-004,1.210010e-004
-5.270981e-004,1.201907e-004
-4.852853e-004,1.445005e-004
-4.590307e-004,1.812893e-004
-4.185144e-004,2.166196e-004
-3.520676e-004,2.384984e-004
-2.642282e-004,2.342847e-004
-1.752544e-004,2.025199e-004
-1.096179e-004,1.517934e-004
-7.412562e-005,9.328786e-005
-5.662256e-005,3.591673e-005
-4.284701e-005,-1.383732e-005
-1.869928e-005,-5.889148e-005
2.181705e-005,-1.050801e-004
8.356394e-005,-1.512687e-004
1.676758e-004,-1.848162e-004
2.681563e-004,-1.945401e-004
3.649094e-004,-1.759026e-004
4.313562e-004,-1.331174e-004
4.499937e-004,-7.671866e-005
4.198496e-004,-2.226472e-005
3.616681e-004,1.614476e-005
3.065659e-004,3.121684e-005
2.765838e-004,2.295151e-005
2.895490e-004,-1.358292e-006
3.452995e-004,-3.539201e-005
4.339493e-004,-7.509801e-005
5.473950e-004,-1.157764e-004
6.695924e-004,-1.467309e-004
7.684522e-004,-1.575893e-004
8.052412e-004,-1.464067e-004
7.601869e-004,-1.224211e-004
6.530617e-004,-1.037836e-004
5.345919e-004,-1.032974e-004
4.509661e-004,-1.235555e-004
4.190393e-004,-1.580754e-004
4.187151e-004,-1.934057e-004
4.188772e-004,-2.118811e-004
4.067223e-004,-2.013469e-004
3.961880e-004,-1.605064e-004
3.974845e-004,-9.260107e-005
4.063981e-004,-8.489166e-006
4.122325e-004,7.886404e-005
4.028327e-004,1.560072e-004
3.640991e-004,2.106232e-004
2.705873e-004,2.303951e-004
1.051186e-004,2.099749e-004
-1.143178e-004,1.537382e-004
-3.326198e-004,7.319176e-005
-5.001953e-004,-1.675450e-005
-6.037550e-004,-1.054042e-004
-6.590193e-004,-1.846542e-004
-6.943495e-004,-2.536940e-004
-7.278970e-004,-3.110651e-004
-7.638755e-004,-3.512573e-004
-8.095779e-004,-3.741085e-004
-8.745661e-004,-3.841565e-004
-9.685640e-004,-3.823738e-004
-1.079741e-003,-3.716775e-004
-1.169687e-003,-3.476919e-004
-1.191728e-003,-3.130099e-004
-1.119771e-003,-2.689281e-004
-9.640261e-004,-2.113949e-004
-7.684134e-004,-1.418689e-004
-5.766901e-004,-6.278104e-005
-4.074939e-004,2.165498e-005
-2.507768e-004,1.046324e-004
-9.308726e-005,1.798307e-004
6.865393e-005,2.412535e-004
2.205092e-004,2.830664e-004
3.524304e-004,3.007315e-004
4.686312e-004,2.934386e-004
5.895320e-004,2.725321e-004
7.451148e-004,2.506533e-004
9.467243e-004,2.456293e-004
1.168106e-003,2.705873e-004
1.348809e-003,3.279585e-004
1.416715e-003,3.997535e-004
1.318016e-003,4.603659e-004
1.049474e-003,4.934272e-004
6.652166e-004,5.025029e-004
2.493568e-004,5.025029e-004
-1.054042e-004,5.023408e-004
-3.389403e-004,5.041235e-004
-4.425001e-004,5.052580e-004
-4.470379e-004,4.935893e-004
-3.933943e-004,4.568005e-004
-3.181960e-004,3.885709e-004
-2.371633e-004,2.970040e-004
-1.436516e-004,1.931201e-004
-2.420950e-005,9.118101e-005
1.203528e-004,7.231170e-006
2.666978e-004,-5.046408e-005
3.734989e-004,-8.303922e-005
4.096394e-004,-1.007043e-004
3.713920e-004,-1.133454e-004
2.704253e-004,-1.214487e-004
1.214872e-004,-1.243659e-004
-6.537409e-005,-1.253383e-004
-2.744383e-004,-1.280934e-004
-4.724821e-004,-1.353863e-004
-6.162340e-004,-1.506204e-004
-6.758740e-004,-1.687718e-004
-6.586951e-004,-1.835197e-004
-6.021344e-004,-1.864369e-004
-5.548113e-004,-1.778474e-004
-5.488148e-004,-1.642339e-004
-5.773384e-004,-1.540238e-004
-6.071584e-004,-1.564548e-004
-6.092652e-004,-1.700683e-004
-5.651835e-004,-1.875713e-004
-4.703753e-004,-2.016710e-004
-3.287302e-004,-2.102605e-004
-1.494860e-004,-2.144742e-004
5.568870e-005,-2.139880e-004
2.699391e-004,-2.049123e-004
4.621486e-004,-1.869231e-004
5.995801e-004,-1.665028e-004
6.566271e-004,-1.519170e-004
6.284277e-004,-1.473791e-004
5.376711e-004,-1.472171e-004
4.282770e-004,-1.465688e-004
3.444891e-004,-1.444620e-004
3.141829e-004,-1.465688e-004
3.307136e-004,-1.538618e-004
3.722023e-004,-1.642339e-004
4.206599e-004,-1.770371e-004
4.692795e-004,-1.882196e-004
5.248679e-004,-1.919471e-004
5.914768e-004,-1.864369e-004
6.506307e-004,-1.770371e-004
6.665131e-004,-1.699062e-004
6.104385e-004,-1.655305e-004
4.858102e-004,-1.632615e-004
3.258516e-004,-1.606685e-004
1.808031e-004,-1.600202e-004
8.988449e-005,-1.605064e-004
7.659513e-005,-1.559686e-004
1.193804e-004,-1.392759e-004
1.709172e-004,-1.109144e-004
1.803169e-004,-7.380149e-005
1.231079e-004,-2.890940e-005
2.019640e-005,2.505836e-005
-7.801519e-005,9.101894e-005
-1.217728e-004,1.650828e-004
-9.665270e-005,2.383363e-004
-1.448558e-005,3.000832e-004
9.312580e-005,3.438409e-004
1.945787e-004,3.650715e-004
2.679943e-004,3.600474e-004
3.081865e-004,3.316860e-004
3.149933e-004,2.921420e-004
2.893870e-004,2.577842e-004
2.303951e-004,2.334744e-004
1.354248e-004,2.187264e-004
-3.465141e-006,2.081922e-004
-1.695821e-004,1.986303e-004
-3.183580e-004,1.908512e-004
-3.976080e-004,1.884202e-004
-3.771877e-004,1.919856e-004
-2.596904e-004,2.046267e-004
-8.060823e-005,2.205092e-004
1.145184e-004,2.365536e-004
2.940868e-004,2.483844e-004
4.376768e-004,2.519498e-004
5.337815e-004,2.409294e-004
5.825632e-004,2.135403e-004
5.942319e-004,1.701068e-004
5.768909e-004,1.208390e-004
5.276231e-004,7.983644e-005
4.420525e-004,6.071273e-005
3.277964e-004,6.800567e-005
1.986303e-004,9.733949e-005
6.897806e-005,1.446626e-004
-3.458168e-005,2.085163e-004
-8.482193e-005,2.882525e-004
-6.958779e-005,3.827366e-004
-1.520357e-006,4.825689e-004
8.534666e-005,5.650602e-004
1.417454e-004,6.107626e-004
1.271595e-004,6.057385e-004
3.688912e-005,5.537156e-004
-1.050801e-004,4.709002e-004
-2.554767e-004,3.778746e-004
-3.791325e-004,2.863077e-004
-4.741028e-004,1.940925e-004
-5.502735e-004,1.012291e-004
-6.155858e-004,1.841368e-005
-6.684191e-004,-4.722278e-005
-6.975908e-004,-9.681477e-005
-7.040734e-004,-1.370070e-004
-6.932151e-004,-1.736337e-004
-6.689052e-004,-2.126914e-004
-6.356818e-004,-2.603387e-004
-6.112100e-004,-3.228959e-004
-6.186650e-004,-3.898288e-004
-6.633950e-004,-4.311555e-004
-7.254661e-004,-4.162455e-004
-7.698719e-004,-3.292164e-004
-7.593377e-004,-1.809267e-004
-6.813843e-004,-7.678839e-006
-5.436288e-004,1.430419e-004
