-3.032860e-004,-7.979791e-005
-3.275957e-004,-5.775702e-005
-3.399127e-004,-3.587821e-005
-3.322956e-004,-1.399939e-005
-3.055549e-004,7.879432e-006
-2.661730e-004,2.781346e-005
-2.188499e-004,4.483033e-005
-1.705545e-004,6.006447e-005
-1.269589e-004,7.059871e-005
-9.033215e-005,7.643307e-005
-5.953974e-005,8.113296e-005
-3.036798e-005,8.810177e-005
-6.220252e-006,9.879808e-005
1.883015e-006,1.143563e-004
-9.785688e-006,1.344524e-004
-3.992984e-005,1.526038e-004
-8.174268e-005,1.655690e-004
-1.188556e-004,1.735102e-004
-1.384655e-004,1.761032e-004
-1.438137e-004,1.783722e-004
-1.389517e-004,1.832341e-004
-1.279313e-004,1.914995e-004
-1.120489e-004,1.984683e-004
-8.790117e-005,1.997648e-004
-5.224680e-005,1.974959e-004
-6.382317e-006,1.953890e-004
4.564065e-005,1.947408e-004
9.636710e-005,1.955511e-004
1.386662e-004,1.961994e-004
1.676758e-004,1.970097e-004
1.855030e-004,1.986303e-004
1.937684e-004,2.005751e-004
1.976579e-004,2.002510e-004
1.953890e-004,1.971717e-004
1.830721e-004,1.937684e-004
1.631380e-004,1.867996e-004
1.504969e-004,1.761032e-004
1.610312e-004,1.613553e-004
1.955511e-004,1.456350e-004
2.410915e-004,1.310491e-004
2.728562e-004,1.150046e-004
2.699391e-004,9.831188e-005
2.320158e-004,8.097089e-005
1.735102e-004,6.427817e-005
1.174356e-004,5.406805e-005
8.226741e-005,4.855783e-005
7.254349e-005,4.936815e-005
8.777764e-005,5.098881e-005
1.179218e-004,4.677511e-005
1.555210e-004,3.462021e-005
1.939304e-004,1.468618e-005
2.268297e-004,-5.247859e-006
2.451431e-004,-2.145439e-005
2.503292e-004,-3.490581e-005
2.440086e-004,-4.965376e-005
2.279642e-004,-6.829127e-005
2.099749e-004,-8.887356e-005
1.996027e-004,-1.081593e-004
1.986303e-004,-1.216107e-004
1.997648e-004,-1.269589e-004
1.957132e-004,-1.279313e-004
1.825859e-004,-1.274451e-004
1.637863e-004,-1.290658e-004
1.485521e-004,-1.355484e-004
1.420695e-004,-1.451102e-004
1.401247e-004,-1.538618e-004
1.370455e-004,-1.598582e-004
1.294284e-004,-1.630995e-004
1.190562e-004,-1.669890e-004
1.116012e-004,-1.729855e-004
1.059290e-004,-1.765509e-004
9.782569e-005,-1.763888e-004
8.161915e-005,-1.708786e-004
5.098881e-005,-1.613168e-004
4.800190e-006,-1.481895e-004
-5.095028e-005,-1.368449e-004
-1.067007e-004,-1.289037e-004
-1.522411e-004,-1.229073e-004
-1.849783e-004,-1.146419e-004
-1.984297e-004,-9.778715e-005
-1.856265e-004,-6.926366e-005
-1.483515e-004,-2.842320e-005
-9.584238e-005,1.598270e-005
-4.300908e-005,5.212327e-005
-3.858999e-007,7.643307e-005
3.105477e-005,9.377406e-005
5.325772e-005,1.096565e-004
6.816773e-005,1.247285e-004
7.108491e-005,1.402868e-004
5.941620e-005,1.564933e-004
3.040651e-005,1.712413e-004
-1.497178e-005,1.850168e-004
-6.829127e-005,1.989545e-004
-1.130213e-004,2.117576e-004
-1.396000e-004,2.216436e-004
-1.519170e-004,2.255332e-004
-1.501342e-004,2.211574e-004
-1.298761e-004,2.127300e-004
-9.697683e-005,2.044647e-004
-6.002594e-005,1.999268e-004
-2.194059e-005,1.979821e-004
1.112074e-005,2.007372e-004
3.089271e-005,2.070577e-004
3.478228e-005,2.156472e-004
2.068259e-005,2.229401e-004
-5.896120e-006,2.268297e-004
-3.668853e-005,2.253711e-004
-6.391550e-005,2.167816e-004
-7.526008e-005,2.039785e-004
-6.504996e-005,1.916615e-004
-3.522994e-005,1.858272e-004
3.827799e-006,1.842065e-004
3.640293e-005,1.835583e-004
5.066468e-005,1.835583e-004
4.953022e-005,1.827479e-004
4.515445e-005,1.827479e-004
4.904402e-005,1.838824e-004
6.314371e-005,1.783722e-004
7.367795e-005,1.616794e-004
6.589881e-005,1.362352e-004
4.515445e-005,1.093323e-004
2.538249e-005,8.729144e-005
1.711715e-005,7.043665e-005
1.873781e-005,5.552663e-005
2.165498e-005,4.126489e-005
2.424803e-005,2.732727e-005
2.684107e-005,1.403791e-005
2.732727e-005,3.341602e-006
2.311357e-005,-3.303076e-006
1.614476e-005,-9.137427e-006
1.630683e-005,-1.869928e-005
3.591673e-005,-3.636440e-005
7.821578e-005,-6.083626e-005
1.347766e-004,-8.271508e-005
1.897167e-004,-9.859748e-005
2.248849e-004,-1.102662e-004
2.292607e-004,-1.204763e-004
2.090025e-004,-1.308485e-004
1.811273e-004,-1.391138e-004
1.637863e-004,-1.439758e-004
1.621656e-004,-1.436516e-004
1.723757e-004,-1.434896e-004
1.902029e-004,-1.455964e-004
2.148369e-004,-1.499722e-004
2.383363e-004,-1.536997e-004
2.508154e-004,-1.562927e-004
2.428742e-004,-1.588858e-004
2.159713e-004,-1.629374e-004
1.765894e-004,-1.699062e-004
1.300767e-004,-1.749302e-004
8.097089e-005,-1.749302e-004
3.462021e-005,-1.692580e-004
-8.975362e-006,-1.619650e-004
-5.192267e-005,-1.554824e-004
-9.227693e-005,-1.514308e-004
-1.282554e-004,-1.439758e-004
-1.532135e-004,-1.272830e-004
-1.593720e-004,-1.024871e-004
-1.410586e-004,-7.461182e-005
-1.024871e-004,-4.706071e-005
-5.905355e-005,-2.420950e-005
-2.955766e-005,-1.059602e-005
-1.821308e-005,-6.706447e-006
-1.821308e-005,-8.813297e-006
-1.821308e-005,-1.399939e-005
-1.302700e-005,-1.675450e-005
-3.858999e-007,-1.221667e-005
1.727922e-005,3.827799e-006
3.235129e-005,3.170304e-005
3.753739e-005,6.638502e-005
3.283749e-005,1.044704e-004
1.889987e-005,1.388282e-004
-3.141010e-006,1.636242e-004
-3.198864e-005,1.790204e-004
-6.472583e-005,1.866375e-004
-9.195280e-005,1.885823e-004
-1.078352e-004,1.884202e-004
-1.138316e-004,1.892305e-004
-1.144799e-004,1.944166e-004
-1.143178e-004,2.068957e-004
-1.088076e-004,2.231022e-004
-8.984595e-005,2.399570e-004
-5.808115e-005,2.574601e-004
-1.886135e-005,2.746390e-004
1.663096e-005,2.879283e-004
3.899597e-005,2.953834e-004
4.904402e-005,2.952213e-004
5.439218e-005,2.861456e-004
5.617490e-005,2.691288e-004
5.974033e-005,2.519498e-004
7.140904e-005,2.375260e-004
9.523264e-005,2.274780e-004
1.305629e-004,2.219677e-004
1.683241e-004,2.213195e-004
1.963614e-004,2.235884e-004
2.077060e-004,2.231022e-004
1.971717e-004,2.141886e-004
1.717275e-004,1.945787e-004
1.454729e-004,1.642725e-004
1.269974e-004,1.305629e-004
1.164632e-004,1.007429e-004
1.051186e-004,8.275361e-005
8.939829e-005,7.594687e-005
7.027458e-005,7.562274e-005
4.790957e-005,7.513654e-005
2.376183e-005,7.384002e-005
-7.840905e-006,6.832980e-005
-4.430560e-005,5.017848e-005
-8.320128e-005,1.679302e-005
-1.235555e-004,-2.469570e-005
-1.577513e-004,-6.326724e-005
-1.692580e-004,-9.324933e-005
-1.496481e-004,-1.152902e-004
-1.018388e-004,-1.274451e-004
-4.122636e-005,-1.314967e-004
1.371378e-005,-1.284175e-004
5.034055e-005,-1.212866e-004
6.281957e-005,-1.128592e-004
5.325772e-005,-1.070249e-004
3.299956e-005,-1.060525e-004
1.646890e-005,-1.101041e-004
1.387585e-005,-1.138316e-004
3.073064e-005,-1.173971e-004
6.589881e-005,-1.201522e-004
1.028497e-004,-1.201522e-004
1.291043e-004,-1.165867e-004
1.412592e-004,-1.105903e-004
1.375317e-004,-1.063766e-004
1.163011e-004,-1.065387e-004
8.032264e-005,-1.112386e-004
3.607880e-005,-1.131834e-004
-1.189254e-005,-1.071869e-004
-5.224680e-005,-9.665270e-005
-7.234290e-005,-8.660465e-005
-7.347736e-005,-8.352541e-005
-6.326724e-005,-8.433573e-005
-5.143648e-005,-8.401160e-005
-4.398147e-005,-7.995997e-005
-5.338126e-005,-7.234290e-005
-9.000802e-005,-6.245691e-005
-1.543479e-004,-5.159854e-005
-2.363530e-004,-3.701266e-005
-3.109030e-004,-1.659243e-005
-3.556330e-004,8.365628e-006
-3.617915e-004,3.397195e-005
-3.303509e-004,5.423012e-005
-2.679557e-004,6.622294e-005
-1.900023e-004,6.995045e-005
-1.135075e-004,7.189524e-005
-5.224680e-005,7.772959e-005
-2.654814e-006,9.247754e-005
4.807163e-005,1.119254e-004
1.096565e-004,1.300767e-004
1.796687e-004,1.453108e-004
2.459534e-004,1.564933e-004
3.002453e-004,1.655690e-004
3.354135e-004,1.749688e-004
3.438409e-004,1.835583e-004
3.287688e-004,1.902029e-004
3.010556e-004,1.927960e-004
2.683184e-004,1.924718e-004
2.347709e-004,1.889064e-004
2.041406e-004,1.843686e-004
1.799928e-004,1.835583e-004
1.667035e-004,1.879340e-004
1.654069e-004,1.961994e-004
1.725378e-004,2.057612e-004
1.864754e-004,2.148369e-004
2.023578e-004,2.177540e-004
2.078681e-004,2.132162e-004
1.859892e-004,2.013854e-004
1.360731e-004,1.876099e-004
7.384002e-005,1.754550e-004
1.663096e-005,1.649207e-004
-2.534396e-005,1.569795e-004
-5.111234e-005,1.530900e-004
-6.780507e-005,1.493625e-004
-8.190475e-005,1.409351e-004
-9.243900e-005,1.257009e-004
-9.616651e-005,1.002567e-004
-9.730096e-005,7.238143e-005
-9.989401e-005,5.244739e-005
-1.000561e-004,4.385793e-005
-9.584238e-005,4.077869e-005
-8.044617e-005,3.591673e-005
-5.062615e-005,2.700314e-005
-1.027188e-005,1.387585e-005
3.980630e-005,3.341602e-006
9.652917e-005,-3.465141e-006
1.503349e-004,-7.678839e-006
1.895547e-004,-1.367526e-005
2.112714e-004,-2.194059e-005
2.161334e-004,-3.555408e-005
2.072198e-004,-5.759496e-005
1.880961e-004,-8.320128e-005
1.692965e-004,-1.049180e-004
1.629760e-004,-1.180453e-004
1.754550e-004,-1.266348e-004
1.970097e-004,-1.323071e-004
2.130541e-004,-1.391138e-004
2.138645e-004,-1.478653e-004
2.012234e-004,-1.554824e-004
1.840444e-004,-1.603444e-004
1.688103e-004,-1.621271e-004
1.530900e-004,-1.582375e-004
1.333180e-004,-1.515928e-004
1.096565e-004,-1.457585e-004
8.712937e-005,-1.396000e-004
7.432621e-005,-1.293899e-004
7.918817e-005,-1.167488e-004
1.033359e-004,-1.039456e-004
1.396385e-004,-9.470791e-005
1.657311e-004,-9.000802e-005
1.652449e-004,-8.660465e-005
1.282940e-004,-8.482193e-005
6.395404e-005,-8.449780e-005
-6.382317e-006,-8.433573e-005
-7.104638e-005,-8.190475e-005
-1.227452e-004,-7.428769e-005
-1.588858e-004,-6.067420e-005
-1.794681e-004,-4.511593e-005
-1.927574e-004,-3.069211e-005
-2.016710e-004,-1.335113e-005
-2.016710e-004,8.041497e-006
-1.883817e-004,2.829966e-005
-1.635857e-004,4.515445e-005
-1.295519e-004,5.957827e-005
-8.741498e-005,7.027458e-005
-3.879538e-005,7.983644e-005
9.338019e-006,8.761557e-005
4.790957e-005,9.555677e-005
7.562274e-005,1.067393e-004
8.972242e-005,1.245665e-004
9.053275e-005,1.516314e-004
8.453633e-005,1.785342e-004
7.546067e-005,1.955511e-004
6.541262e-005,1.960373e-004
6.217132e-005,1.832341e-004
6.962632e-005,1.670276e-004
8.259155e-005,1.586002e-004
8.988449e-005,1.644345e-004
8.356394e-005,1.863134e-004
6.168512e-005,2.111094e-004
2.554455e-005,2.263435e-004
-1.432352e-005,2.281262e-004
-4.041603e-005,2.211574e-004
-4.284701e-005,2.145127e-004
-2.631635e-005,2.153231e-004
-3.951337e-006,2.221298e-004
7.555301e-006,2.310434e-004
-2.492749e-006,2.384984e-004
-3.101625e-005,2.414156e-004
-5.629844e-005,2.393087e-004
-5.597430e-005,2.315296e-004
-2.339918e-005,2.156472e-004
3.996837e-005,1.957132e-004
1.226217e-004,1.778860e-004
1.992786e-004,1.641104e-004
2.491947e-004,1.569795e-004
2.618358e-004,1.530900e-004
2.420638e-004,1.500107e-004
2.080301e-004,1.440143e-004
1.793446e-004,1.300767e-004
1.663793e-004,1.057669e-004
1.701068e-004,7.643307e-005
1.867996e-004,4.920609e-005
2.025199e-004,2.992031e-005
2.031682e-004,1.906194e-005
1.840444e-004,9.500085e-006
1.513072e-004,-5.247859e-006
1.122495e-004,-2.518189e-005
6.800567e-005,-4.689865e-005
8.851824e-006,-6.667062e-005
-7.104638e-005,-8.141856e-005
-1.598582e-004,-9.276313e-005
-2.373254e-004,-1.050801e-004
-2.909690e-004,-1.195039e-004
-3.178718e-004,-1.305243e-004
-3.190063e-004,-1.323071e-004
-2.992343e-004,-1.276072e-004
-2.692523e-004,-1.233935e-004
-2.319772e-004,-1.203142e-004
-1.877334e-004,-1.188556e-004
-1.332795e-004,-1.240417e-004
-6.748094e-005,-1.381414e-004
1.095867e-005,-1.590478e-004
9.555677e-005,-1.804405e-004
1.681620e-004,-1.971332e-004
2.088404e-004,-2.050744e-004
2.064095e-004,-2.055606e-004
1.689724e-004,-1.971332e-004
1.200286e-004,-1.812508e-004
8.988449e-005,-1.622891e-004
9.085688e-005,-1.473791e-004
1.166253e-004,-1.358725e-004
1.522796e-004,-1.245279e-004
1.777239e-004,-1.097800e-004
1.731861e-004,-9.065628e-005
1.336421e-004,-7.088431e-005
6.768154e-005,-5.143648e-005
-1.254080e-005,-2.988179e-005
-9.519411e-005,-3.303076e-006
-1.744440e-004,2.505836e-005
-2.446183e-004,5.017848e-005
-2.964792e-004,6.525056e-005
-3.235441e-004,6.978839e-005
-3.238683e-004,7.076078e-005
-3.039342e-004,7.400208e-005
-2.791382e-004,8.372601e-005
-2.579077e-004,1.000946e-004
-2.434839e-004,1.208390e-004
-2.376495e-004,1.462832e-004
-2.365151e-004,1.765894e-004
-2.256567e-004,2.064095e-004
-1.825473e-004,2.299089e-004
-9.179074e-005,2.490327e-004
4.596478e-005,2.618358e-004
2.122438e-004,2.704253e-004
3.788470e-004,2.752873e-004
5.203301e-004,2.762596e-004
6.200004e-004,2.709115e-004
6.751026e-004,2.603772e-004
6.830437e-004,2.477361e-004
6.391241e-004,2.360674e-004
5.418848e-004,2.278021e-004
4.013741e-004,2.255332e-004
2.407673e-004,2.268297e-004
8.194328e-005,2.274780e-004
-5.889148e-005,2.234263e-004
-1.721751e-004,2.109473e-004
-2.470493e-004,1.921477e-004
-2.718453e-004,1.748067e-004
-2.420253e-004,1.684862e-004
-1.653684e-004,1.743205e-004
-6.423963e-005,1.829100e-004
2.651694e-005,1.842065e-004
7.270556e-005,1.752929e-004
5.147500e-005,1.581140e-004
-3.733679e-005,1.341283e-004
-1.705545e-004,1.044704e-004
-3.183580e-004,7.302970e-005
-4.580583e-004,4.742337e-005
-5.715040e-004,2.748934e-005
-6.501057e-004,7.555301e-006
-6.946736e-004,-1.302700e-005
-6.971046e-004,-3.117831e-005
-6.569124e-004,-4.592625e-005
-5.783107e-004,-5.289507e-005
-4.703753e-004,-5.435365e-005
-3.496366e-004,-5.467778e-005
-2.266291e-004,-5.953974e-005
-1.063766e-004,-7.023606e-005
3.017472e-006,-8.773911e-005
1.007429e-004,-1.114006e-004
1.885823e-004,-1.379794e-004
2.650771e-004,-1.593720e-004
3.308757e-004,-1.707166e-004
3.859779e-004,-1.694200e-004
4.258460e-004,-1.598582e-004
4.443214e-004,-1.511067e-004
4.376768e-004,-1.511067e-004
4.086671e-004,-1.588858e-004
3.605336e-004,-1.679614e-004
3.038107e-004,-1.718510e-004
2.508154e-004,-1.720131e-004
2.153231e-004,-1.690959e-004
2.026820e-004,-1.650443e-004
2.090025e-004,-1.575893e-004
2.278021e-004,-1.472171e-004
2.530843e-004,-1.355484e-004
2.722080e-004,-1.276072e-004
2.804733e-004,-1.224211e-004
2.795009e-004,-1.201522e-004
2.705873e-004,-1.211246e-004
2.548670e-004,-1.245279e-004
2.389846e-004,-1.282554e-004
2.308813e-004,-1.279313e-004
2.339606e-004,-1.190177e-004
2.438466e-004,-1.042698e-004
2.579462e-004,-8.449780e-005
2.723701e-004,-5.840528e-005
2.825802e-004,-2.761287e-005
2.863077e-004,7.879432e-006
2.850112e-004,4.483033e-005
2.786906e-004,7.918817e-005
2.751252e-004,1.039842e-004
2.801492e-004,1.164632e-004
2.890628e-004,1.182459e-004
2.914938e-004,1.177597e-004
2.765838e-004,1.218114e-004
2.436845e-004,1.344524e-004
2.018716e-004,1.519555e-004
1.670276e-004,1.657311e-004
1.527658e-004,1.756171e-004
1.623277e-004,1.853410e-004
1.863134e-004,1.963614e-004
2.098128e-004,2.107852e-004
2.185644e-004,2.273159e-004
2.031682e-004,2.412535e-004
1.715654e-004,2.488706e-004
1.373696e-004,2.487085e-004
1.085220e-004,2.462775e-004
8.583286e-005,2.461155e-004
6.768154e-005,2.514636e-004
5.487838e-005,2.592428e-004
5.147500e-005,2.660495e-004
5.649903e-005,2.679943e-004
6.800567e-005,2.634565e-004
7.999851e-005,2.560015e-004
8.518459e-005,2.545429e-004
8.097089e-005,2.598910e-004
6.444023e-005,2.692908e-004
3.429608e-005,2.744769e-004
9.106227e-007,2.699391e-004
-2.501983e-005,2.561635e-004
-4.171256e-005,2.384984e-004
-5.662256e-005,2.205092e-004
-7.963584e-005,2.041406e-004
-1.081593e-004,1.863134e-004
-1.316588e-004,1.645966e-004
-1.378173e-004,1.389903e-004
-1.177212e-004,1.109530e-004
-7.428769e-005,8.242948e-005
-2.226472e-005,5.471631e-005
2.781346e-005,2.927205e-005
6.978839e-005,5.772582e-006
1.002567e-004,-1.140634e-005
1.195424e-004,-2.048200e-005
1.338042e-004,-2.291298e-005
1.493625e-004,-2.501983e-005
1.684862e-004,-3.085418e-005
1.863134e-004,-4.138842e-005
1.986303e-004,-5.370539e-005
1.913374e-004,-6.683268e-005
1.511452e-004,-7.963584e-005
7.967438e-005,-9.308726e-005
-8.813297e-006,-1.039456e-004
-9.584238e-005,-1.131834e-004
-1.661787e-004,-1.198280e-004
-2.110708e-004,-1.253383e-004
-2.274394e-004,-1.293899e-004
-2.190120e-004,-1.336036e-004
-1.893541e-004,-1.383035e-004
-1.473791e-004,-1.420310e-004
-1.135075e-004,-1.467309e-004
-1.036215e-004,-1.561307e-004
-1.203142e-004,-1.676373e-004
-1.533756e-004,-1.728234e-004
-1.934057e-004,-1.679614e-004
-2.303566e-004,-1.582375e-004
-2.669833e-004,-1.507825e-004
-3.217614e-004,-1.436516e-004
-4.079801e-004,-1.324691e-004
-5.220741e-004,-1.186936e-004
-6.392473e-004,-1.062146e-004
-7.335693e-004,-9.616651e-005
-7.867267e-004,-8.854943e-005
-7.922369e-004,-8.320128e-005
-7.484793e-004,-7.720486e-005
-6.620985e-004,-6.893953e-005
-5.523803e-004,-6.099833e-005
-4.420138e-004,-5.240886e-005
-3.463953e-004,-3.863332e-005
-2.750866e-004,-1.659243e-005
-2.250084e-004,9.986281e-006
-1.844921e-004,3.559260e-005
-1.439758e-004,5.666109e-005
-9.956988e-005,7.205730e-005
-5.565017e-005,8.340187e-005
-1.788895e-005,9.150514e-005
1.128280e-005,1.009049e-004
3.834771e-005,1.103047e-004
6.217132e-005,1.201907e-004
8.080883e-005,1.300767e-004
1.002567e-004,1.389903e-004
1.171115e-004,1.472556e-004
1.245665e-004,1.563313e-004
1.252147e-004,1.620036e-004
1.268354e-004,1.610312e-004
1.383420e-004,1.540623e-004
1.637863e-004,1.479039e-004
1.937684e-004,1.475797e-004
2.153231e-004,1.539003e-004
2.242366e-004,1.623277e-004
2.323399e-004,1.699448e-004
2.396328e-004,1.736723e-004
2.446569e-004,1.767515e-004
2.537325e-004,1.775618e-004
2.717218e-004,1.788584e-004
2.987867e-004,1.799928e-004
3.284447e-004,1.804790e-004
3.524304e-004,1.820997e-004
3.649094e-004,1.871237e-004
3.683128e-004,1.952270e-004
3.702575e-004,2.008992e-004
3.764160e-004,1.955511e-004
3.837090e-004,1.804790e-004
3.872744e-004,1.579519e-004
3.835469e-004,1.318594e-004
3.713920e-004,1.033359e-004
3.589129e-004,7.821578e-005
3.493511e-004,5.811968e-005
3.422202e-004,4.142696e-005
3.318480e-004,2.862379e-005
3.117519e-004,1.971020e-005
2.773941e-004,1.549650e-005
2.256952e-004,1.371378e-005
1.668655e-004,1.468618e-005
1.211631e-004,1.776542e-005
1.002567e-004,1.776542e-005
1.098185e-004,9.500085e-006
1.422316e-004,-5.247859e-006
1.791825e-004,-2.242678e-005
2.000889e-004,-3.976777e-005
1.955511e-004,-5.856735e-005
1.686482e-004,-7.866345e-005
1.299146e-004,-9.973194e-005
9.069481e-005,-1.212866e-004
5.893001e-005,-1.392759e-004
3.526847e-005,-1.494860e-004
2.214118e-005,-1.494860e-004
1.614476e-005,-1.384655e-004
1.857574e-005,-1.224211e-004
2.910999e-005,-1.112386e-004
4.320967e-005,-1.081593e-004
5.260946e-005,-1.083214e-004
5.601284e-005,-1.092938e-004
5.293359e-005,-1.126972e-004
4.807163e-005,-1.201522e-004
4.191315e-005,-1.271210e-004
3.640293e-005,-1.310105e-004
3.218923e-005,-1.318209e-004
2.765140e-005,-1.326312e-004
1.079661e-005,-1.332795e-004
-2.194059e-005,-1.327933e-004
-5.629844e-005,-1.298761e-004
-7.769106e-005,-1.208004e-004
-8.547019e-005,-1.047560e-004
-8.368748e-005,-8.352541e-005
-7.704279e-005,-5.986387e-005
-7.299116e-005,-3.895745e-005
-7.347736e-005,-2.356124e-005
-7.769106e-005,-5.571990e-006
-8.287715e-005,1.776542e-005
-8.887356e-005,4.369587e-005
-9.405965e-005,6.768154e-005
-9.519411e-005,8.567078e-005
-8.968389e-005,9.766362e-005
-7.785312e-005,1.057669e-004
-6.877746e-005,1.090082e-004
-6.423963e-005,1.078737e-004
-5.889148e-005,1.060910e-004
-4.625038e-005,1.125736e-004
-2.437157e-005,1.289422e-004
3.989864e-006,1.474177e-004
3.056858e-005,1.629760e-004
5.260946e-005,1.804790e-004
7.221937e-005,2.015475e-004
8.956036e-005,2.227781e-004
1.023635e-004,2.389846e-004
1.137081e-004,2.469258e-004
1.286181e-004,2.454672e-004
1.457970e-004,2.357433e-004
1.613553e-004,2.256952e-004
1.709172e-004,2.237505e-004
1.762653e-004,2.312055e-004
1.772377e-004,2.393087e-004
1.726999e-004,2.397949e-004
1.663793e-004,2.308813e-004
1.610312e-004,2.174299e-004
1.573037e-004,2.060853e-004
1.522796e-004,1.999268e-004
1.412592e-004,1.973338e-004
1.174356e-004,1.940925e-004
7.432621e-005,1.921477e-004
2.052053e-005,1.911753e-004
-3.231277e-005,1.872858e-004
-7.914964e-005,1.765894e-004
-1.224211e-004,1.563313e-004
-1.643960e-004,1.310491e-004
-2.073433e-004,1.070634e-004
-2.546664e-004,9.069481e-005
-3.083100e-004,8.259155e-005
-3.624398e-004,8.129502e-005
-4.049009e-004,7.983644e-005
-4.254832e-004,7.562274e-005
-4.152731e-004,6.557468e-005
-3.736223e-004,4.953022e-005
-3.060411e-004,2.878586e-005
-2.209568e-004,4.962256e-006
-1.253383e-004,-1.886135e-005
-2.777494e-005,-3.717473e-005
5.795762e-005,-4.576419e-005
1.133840e-004,-4.673658e-005
1.286181e-004,-4.706071e-005
1.083599e-004,-4.835724e-005
6.849186e-005,-4.657452e-005
2.846173e-005,-4.106429e-005
4.151929e-006,-3.490581e-005
1.095867e-005,-3.247483e-005
5.163707e-005,-3.604027e-005
1.128978e-004,-4.300908e-005
1.767515e-004,-5.224680e-005
2.273159e-004,-6.391550e-005
2.581083e-004,-8.141856e-005
2.722080e-004,-1.034594e-004
2.807975e-004,-1.280934e-004
2.910076e-004,-1.502963e-004
2.960316e-004,-1.653684e-004
2.814457e-004,-1.700683e-004
2.440086e-004,-1.653684e-004
1.950649e-004,-1.536997e-004
1.479039e-004,-1.405724e-004
1.179218e-004,-1.303623e-004
1.107909e-004,-1.229073e-004
1.224596e-004,-1.143178e-004
1.399627e-004,-1.011905e-004
1.522796e-004,-8.368748e-005
1.457970e-004,-6.148453e-005
1.138702e-004,-4.041603e-005
5.763349e-005,-2.599222e-005
-1.416145e-005,-1.788895e-005
-9.114248e-005,-1.221667e-005
-1.640719e-004,-4.599598e-006
-2.173914e-004,6.907040e-006
-2.353806e-004,2.116879e-005
-2.076674e-004,3.397195e-005
-1.446240e-004,4.483033e-005
-8.125649e-005,5.552663e-005
-5.548811e-005,6.476436e-005
-8.255302e-005,7.205730e-005
-1.486757e-004,8.016057e-005
-2.212809e-004,8.939829e-005
-2.715212e-004,9.814982e-005
-2.856209e-004,1.109530e-004
-2.713591e-004,1.274836e-004
-2.446183e-004,1.433661e-004
-2.250084e-004,1.543865e-004
-2.199844e-004,1.586002e-004
-2.199844e-004,1.589243e-004
-2.065330e-004,1.589243e-004
-1.765509e-004,1.642725e-004
-1.386276e-004,1.796687e-004
-1.075111e-004,2.026820e-004
-8.547019e-005,2.302331e-004
-6.359137e-005,2.592428e-004
-3.231277e-005,2.866318e-004
1.322759e-005,3.096451e-004
7.108491e-005,3.213138e-004
1.305629e-004,3.183966e-004
1.838824e-004,3.010556e-004
2.297469e-004,2.741528e-004
2.722080e-004,2.417397e-004
3.145071e-004,2.096508e-004
3.657197e-004,1.825859e-004
4.320045e-004,1.597346e-004
5.054200e-004,1.386662e-004
5.689497e-004,1.161391e-004
6.057385e-004,9.215340e-005
6.106006e-004,7.043665e-005
5.877494e-004,5.325772e-005
5.433434e-004,4.256141e-005
4.812723e-004,3.154097e-005
4.088291e-004,1.711715e-005
3.431926e-004,-3.141010e-006
2.960316e-004,-2.664048e-005
2.647530e-004,-4.884343e-005
2.456293e-004,-6.472583e-005
2.347709e-004,-7.201877e-005
2.295848e-004,-7.461182e-005
2.289366e-004,-8.271508e-005
2.265056e-004,-1.023250e-004
2.143507e-004,-1.318209e-004
1.869616e-004,-1.648822e-004
1.470936e-004,-2.003745e-004
1.005808e-004,-2.329496e-004
5.747142e-005,-2.551526e-004
2.327564e-005,-2.632558e-004
-1.844488e-006,-2.540181e-004
-1.902341e-005,-2.259808e-004
-2.258885e-005,-1.823853e-004
-3.858999e-007,-1.305243e-004
5.779555e-005,-7.704279e-005
1.448246e-004,-3.069211e-005
2.388225e-004,-4.437533e-006
3.159656e-004,-3.789272e-006
3.563199e-004,-2.226472e-005
3.572923e-004,-4.706071e-005
3.316860e-004,-7.056019e-005
2.936006e-004,-8.773911e-005
2.537325e-004,-9.794922e-005
2.216436e-004,-1.029732e-004
2.025199e-004,-1.041077e-004
1.984683e-004,-1.044318e-004
2.075439e-004,-1.042698e-004
2.151610e-004,-1.018388e-004
1.971717e-004,-9.341139e-005
1.265113e-004,-7.688073e-005
-1.059602e-005,-5.257093e-005
-1.966470e-004,-2.339918e-005
-3.893426e-004,3.341602e-006
-5.426564e-004,2.165498e-005
-6.324406e-004,2.781346e-005
-6.648536e-004,2.441009e-005
-6.679329e-004,2.278944e-005
-6.838153e-004,3.283749e-005
-7.575550e-004,5.536457e-005
-9.068170e-004,8.810177e-005
-1.105023e-003,1.257009e-004
-1.301770e-003,1.642725e-004
-1.446494e-003,1.989545e-004
-1.502407e-003,2.260194e-004
-1.461405e-003,2.431983e-004
-1.346662e-003,2.483844e-004
-1.186704e-003,2.406053e-004
-9.935220e-004,2.255332e-004
-7.669547e-004,2.117576e-004
-5.053814e-004,2.007372e-004
-2.190120e-004,1.926339e-004
6.476436e-005,1.903650e-004
3.099692e-004,1.927960e-004
4.960203e-004,1.966855e-004
6.248623e-004,1.976579e-004
6.987641e-004,1.880961e-004
7.178878e-004,1.671896e-004
6.796404e-004,1.389903e-004
5.952043e-004,1.119254e-004
4.995857e-004,9.037068e-005
4.402698e-004,7.853991e-005
4.462662e-004,7.870197e-005
5.172509e-004,8.518459e-005
6.316690e-004,9.393612e-005
7.556491e-004,1.038221e-004
8.454334e-004,1.198666e-004
8.658536e-004,1.441764e-004
8.182063e-004,1.692965e-004
7.336082e-004,1.846927e-004
6.473894e-004,1.842065e-004
5.760806e-004,1.645966e-004
5.156302e-004,1.329939e-004
4.545315e-004,9.912221e-005
3.910019e-004,6.832980e-005
3.318480e-004,4.077869e-005
2.885766e-004,1.792748e-005
2.710735e-004,1.234753e-006
2.728562e-004,-8.813297e-006
2.744769e-004,-1.610624e-005
2.611876e-004,-1.788895e-005
2.292607e-004,-1.173047e-005
1.793446e-004,-1.358292e-006
1.125736e-004,7.879432e-006
2.927205e-005,9.338019e-006
-6.731888e-005,-1.034161e-006
-1.673132e-004,-2.129233e-005
-2.600145e-004,-4.738484e-005
-3.436402e-004,-7.331530e-005
-4.110594e-004,-9.308726e-005
-4.504412e-004,-1.037836e-004
-4.554653e-004,-1.058904e-004
-4.340726e-004,-9.827335e-005
-3.948528e-004,-8.093236e-005
-3.379679e-004,-6.164659e-005
-2.645523e-004,-5.467778e-005
-1.848162e-004,-6.537409e-005
-1.101041e-004,-8.822530e-005
-4.787104e-005,-1.125351e-004
9.106227e-007,-1.314967e-004
3.607880e-005,-1.465688e-004
5.536457e-005,-1.619650e-004
6.233338e-005,-1.729855e-004
6.200925e-005,-1.718510e-004
6.525056e-005,-1.554824e-004
8.826383e-005,-1.282554e-004
1.449867e-004,-9.519411e-005
2.305572e-004,-6.116039e-005
3.206656e-004,-3.555408e-005
3.871123e-004,-2.712668e-005
4.086671e-004,-3.992984e-005
3.882468e-004,-6.731888e-005
3.478926e-004,-9.632857e-005
3.062417e-004,-1.173971e-004
2.717218e-004,-1.208004e-004
2.376881e-004,-1.026491e-004
1.913374e-004,-6.618442e-005
1.263492e-004,-1.983374e-005
4.564065e-005,2.651694e-005
-3.717473e-005,6.589881e-005
-1.020008e-004,9.474644e-005
-1.259865e-004,1.140322e-004
-1.016767e-004,1.325077e-004
-4.625038e-005,1.600588e-004
1.031041e-005,1.937684e-004
3.915804e-005,2.284504e-004
3.154097e-005,2.676702e-004
-1.682422e-006,3.104554e-004
-3.490581e-005,3.501615e-004
-5.500191e-005,3.798194e-004
-7.137051e-005,4.005638e-004
-8.806324e-005,4.140152e-004
-9.600444e-005,4.213082e-004
-8.255302e-005,4.222805e-004
-4.268495e-005,4.172565e-004
1.971020e-005,4.046154e-004
9.215340e-005,3.828986e-004
1.551968e-004,3.538890e-004
1.902029e-004,3.250413e-004
1.866375e-004,2.940868e-004
1.341283e-004,2.600531e-004
2.700314e-005,2.245608e-004
-1.321450e-004,1.910133e-004
-3.261372e-004,1.586002e-004
-5.100812e-004,1.240803e-004
-6.266062e-004,8.421220e-005
-6.314681e-004,3.802358e-005
-5.220741e-004,-4.923729e-006
-3.379679e-004,-3.522994e-005
-1.404103e-004,-4.884343e-005
1.322759e-005,-4.868137e-005
9.555677e-005,-3.895745e-005
1.154908e-004,-2.566809e-005
9.263960e-005,-1.594417e-005
4.483033e-005,-1.302700e-005
-1.302700e-005,-1.821308e-005
-7.169464e-005,-3.069211e-005
-1.318209e-004,-5.030202e-005
-1.840059e-004,-7.396356e-005
-2.096122e-004,-9.892161e-005
-1.862748e-004,-1.220970e-004
-9.924574e-005,-1.379794e-004
4.045456e-005,-1.455964e-004
2.083542e-004,-1.405724e-004
3.743092e-004,-1.253383e-004
5.075270e-004,-1.067007e-004
5.958526e-004,-9.438378e-005
6.464170e-004,-9.243900e-005
6.770474e-004,-9.843541e-005
6.979538e-004,-1.054042e-004
7.081639e-004,-1.071869e-004
6.861230e-004,-9.794922e-005
6.106006e-004,-8.239095e-005
4.892136e-004,-6.586029e-005
3.527545e-004,-4.754691e-005
2.337985e-004,-2.890940e-005
1.504969e-004,-1.432352e-005
9.944634e-005,-7.030578e-006
7.302970e-005,-1.043395e-005
6.136099e-005,-2.890940e-005
5.179914e-005,-6.116039e-005
2.992031e-005,-1.011905e-004
-9.947754e-006,-1.412206e-004
-6.748094e-005,-1.744440e-004
-1.310105e-004,-1.943781e-004
-1.875713e-004,-1.969711e-004
-2.295462e-004,-1.825473e-004
-2.572594e-004,-1.543479e-004
-2.734659e-004,-1.198280e-004
-2.773555e-004,-8.676672e-005
-2.655248e-004,-6.261898e-005
-2.350565e-004,-4.657452e-005
-1.870851e-004,-3.166451e-005
-1.318209e-004,-1.140634e-005
-8.255302e-005,1.646890e-005
-4.916756e-005,4.580272e-005
-3.247483e-005,6.832980e-005
-2.291298e-005,8.534666e-005
-1.844488e-006,9.944634e-005
4.239934e-005,1.120874e-004
1.067393e-004,1.242423e-004
1.762653e-004,1.341283e-004
2.376881e-004,1.378558e-004
2.901973e-004,1.320215e-004
3.347652e-004,1.208390e-004
3.616681e-004,1.085220e-004
3.595612e-004,1.041462e-004
3.299033e-004,1.151667e-004
2.748010e-004,1.414213e-004
1.963614e-004,1.756171e-004
1.025256e-004,2.072198e-004
-8.002969e-006,2.307193e-004
-1.425172e-004,2.454672e-004
-2.916173e-004,2.548670e-004
-4.149489e-004,2.624841e-004
-4.614617e-004,2.686426e-004
-4.070078e-004,2.702632e-004
-2.731418e-004,2.673460e-004
-1.096179e-004,2.624841e-004
3.283749e-005,2.564877e-004
1.263492e-004,2.517878e-004
1.521176e-004,2.521119e-004
8.242948e-005,2.592428e-004
-9.713889e-005,2.715597e-004
-3.593606e-004,2.816078e-004
-6.249856e-004,2.837146e-004
-7.996919e-004,2.720459e-004
-8.175191e-004,2.514636e-004
-6.729569e-004,2.266676e-004
-4.262935e-004,2.007372e-004
-1.621271e-004,1.757791e-004
5.212327e-005,1.514693e-004
1.874478e-004,1.244044e-004
2.375260e-004,9.490851e-005
2.159713e-004,6.962632e-005
1.636242e-004,5.552663e-005
1.184080e-004,5.682316e-005
8.405014e-005,7.059871e-005
4.693717e-005,8.599492e-005
-1.173047e-005,9.020862e-005
-9.195280e-005,7.578480e-005
-1.621271e-004,4.418206e-005
-1.841680e-004,-3.627206e-006
-1.459206e-004,-6.569822e-005
-6.796714e-005,-1.303623e-004
2.311357e-005,-1.818991e-004
1.200286e-004,-2.115570e-004
2.328261e-004,-2.180396e-004
3.846814e-004,-2.073433e-004
5.768909e-004,-1.909747e-004
7.742866e-004,-1.760647e-004
9.298695e-004,-1.710407e-004
1.004420e-003,-1.781716e-004
9.810822e-004,-1.992400e-004
8.851394e-004,-2.303566e-004
7.689385e-004,-2.648765e-004
6.776956e-004,-2.943724e-004
6.230795e-004,-3.110651e-004
5.858046e-004,-3.104168e-004
5.237334e-004,-2.906449e-004
3.927847e-004,-2.583939e-004
1.722137e-004,-2.222533e-004
-1.284175e-004,-1.874093e-004
-4.549791e-004,-1.574272e-004
-7.196317e-004,-1.344139e-004
-8.436117e-004,-1.211246e-004
-7.956403e-004,-1.199901e-004
-6.087790e-004,-1.313347e-004
-3.645466e-004,-1.477033e-004
-1.614788e-004,-1.635857e-004
-7.444975e-005,-1.750923e-004
-1.216107e-004,-1.786577e-004
-2.582318e-004,-1.673132e-004
-4.083043e-004,-1.387897e-004
-5.136467e-004,-9.324933e-005
-5.488148e-004,-3.766092e-005
-5.227224e-004,2.100672e-005
-4.619479e-004,7.497447e-005
-3.937184e-004,1.213252e-004
-3.319715e-004,1.636242e-004
-2.805968e-004,1.996027e-004
-2.360289e-004,2.192126e-004
-1.992400e-004,2.138645e-004
-1.724993e-004,1.864754e-004
-1.554824e-004,1.513072e-004
-1.400862e-004,1.242423e-004
-1.143178e-004,1.182459e-004
-7.153257e-005,1.336421e-004
-1.156841e-005,1.647587e-004
5.601284e-005,2.005751e-004
1.274836e-004,2.331503e-004
2.018716e-004,2.602152e-004
2.833905e-004,2.791768e-004
3.647473e-004,2.892249e-004
4.336251e-004,2.893870e-004
4.692795e-004,2.777182e-004
4.496696e-004,2.527602e-004
3.694472e-004,2.192126e-004
2.488706e-004,1.816135e-004
1.154908e-004,1.482280e-004
-3.789272e-006,1.237561e-004
-8.530812e-005,1.150046e-004
-1.141558e-004,1.224596e-004
-8.806324e-005,1.433661e-004
-2.129233e-005,1.691344e-004
6.298164e-005,1.885823e-004
1.412592e-004,1.940925e-004
2.068957e-004,1.846927e-004
2.637806e-004,1.655690e-004
3.195311e-004,1.430419e-004
3.786850e-004,1.222976e-004
4.300596e-004,1.133840e-004
4.490213e-004,1.198666e-004
4.088291e-004,1.427178e-004
2.978143e-004,1.782101e-004
1.278078e-004,2.184023e-004
-6.829127e-005,2.535705e-004
-2.478596e-004,2.738286e-004
-3.760533e-004,2.689667e-004
-4.280762e-004,2.401191e-004
-4.014975e-004,1.979821e-004
-3.138202e-004,1.530900e-004
-1.890299e-004,1.099806e-004
-4.657452e-005,7.254349e-005
9.766362e-005,4.337174e-005
2.281262e-004,2.181705e-005
3.334687e-004,4.476060e-006
4.106118e-004,-1.318906e-005
4.598797e-004,-4.284701e-005
4.645796e-004,-9.195280e-005
3.978086e-004,-1.543479e-004
2.611876e-004,-2.177155e-004
9.409818e-005,-2.715212e-004
-4.074016e-005,-3.055549e-004
-8.887356e-005,-3.172236e-004
-4.576419e-005,-3.102548e-004
5.017848e-005,-2.888622e-004
1.493625e-004,-2.567732e-004
2.255332e-004,-2.206326e-004
2.752873e-004,-1.891920e-004
3.096451e-004,-1.671511e-004
3.321722e-004,-1.491618e-004
3.315239e-004,-1.302002e-004
2.971661e-004,-1.112386e-004
2.302331e-004,-9.422172e-005
1.428799e-004,-7.914964e-005
4.628891e-005,-6.586029e-005
-6.229485e-005,-5.257093e-005
-1.763888e-004,-4.074016e-005
-2.585559e-004,-3.312309e-005
-2.632558e-004,-3.279896e-005
-1.728234e-004,-3.668853e-005
-1.075808e-005,-3.928157e-005
1.783722e-004,-3.830919e-005
3.430306e-004,-3.134038e-005
4.469145e-004,-1.707863e-005
4.756001e-004,1.558884e-006
4.323286e-004,2.084466e-005
3.347652e-004,3.769945e-005
2.164575e-004,4.499239e-005
1.106288e-004,4.110282e-005
3.607880e-005,2.943412e-005
-5.571990e-006,1.922400e-005
-1.967167e-005,1.711715e-005
-1.448558e-005,2.489629e-005
1.234753e-006,3.705119e-005
1.128280e-005,5.017848e-005
5.934648e-006,6.444023e-005
-1.950961e-005,8.048470e-005
-6.245691e-005,1.036600e-004
-1.041077e-004,1.380179e-004
-1.198280e-004,1.819376e-004
-9.535618e-005,2.271538e-004
-3.279896e-005,2.683184e-004
5.568870e-005,2.989488e-004
1.569795e-004,3.128864e-004
2.508154e-004,3.083486e-004
2.987867e-004,2.914938e-004
2.537325e-004,2.733424e-004
1.073875e-004,2.665357e-004
-7.850138e-005,2.733424e-004
-2.066950e-004,2.863077e-004
-2.086398e-004,2.991108e-004
-1.016767e-004,3.081865e-004
3.478228e-005,3.133726e-004
1.163011e-004,3.133726e-004
1.038221e-004,3.046211e-004
8.041497e-006,2.854973e-004
-1.305243e-004,2.547049e-004
-2.570974e-004,2.115956e-004
-3.240303e-004,1.634622e-004
-3.136581e-004,1.179218e-004
-2.413770e-004,8.080883e-005
-1.352242e-004,5.893001e-005
-2.323711e-005,5.585077e-005
7.789165e-005,6.914012e-005
1.513072e-004,9.069481e-005
1.856651e-004,1.094944e-004
1.767515e-004,1.133840e-004
1.216493e-004,9.993253e-005
1.841368e-005,7.189524e-005
-1.219349e-004,3.559260e-005
-2.737901e-004,-3.303076e-006
-3.971218e-004,-4.041603e-005
-4.624341e-004,-7.266703e-005
-4.572480e-004,-9.940781e-005
-3.901529e-004,-1.204763e-004
-2.801106e-004,-1.365208e-004
-1.548341e-004,-1.483515e-004
-4.365734e-005,-1.606685e-004
2.748934e-005,-1.775233e-004
4.499239e-005,-1.984297e-004
6.744974e-006,-2.177155e-004
-7.023606e-005,-2.288980e-004
-1.459206e-004,-2.292221e-004
-1.780095e-004,-2.199844e-004
-1.533756e-004,-2.055606e-004
-9.162867e-005,-1.857886e-004
-2.307504e-005,-1.640719e-004
3.688912e-005,-1.451102e-004
8.631905e-005,-1.339277e-004
1.234320e-004,-1.293899e-004
1.449867e-004,-1.285796e-004
1.496866e-004,-1.280934e-004
1.376938e-004,-1.277692e-004
1.083599e-004,-1.263107e-004
7.092284e-005,-1.224211e-004
3.316162e-005,-1.143178e-004
-1.844488e-006,-1.024871e-004
-2.907146e-005,-8.611845e-005
-4.025397e-005,-7.072225e-005
-2.923353e-005,-6.132246e-005
2.693341e-006,-6.148453e-005
5.066468e-005,-7.039812e-005
1.104668e-004,-8.222889e-005
1.809652e-004,-9.195280e-005
2.595669e-004,-8.984595e-005
3.417340e-004,-7.234290e-005
4.201737e-004,-4.090223e-005
4.833792e-004,-8.720959e-007
5.094717e-004,4.256141e-005
4.804620e-004,8.729144e-005
3.973225e-004,1.355869e-004
2.863077e-004,1.820997e-004
1.814514e-004,2.222919e-004
1.025256e-004,2.500050e-004
4.612685e-005,2.592428e-004
-1.756482e-005,2.491947e-004
-1.173971e-004,2.248849e-004
-2.650386e-004,1.918236e-004
-4.510895e-004,1.611932e-004
-6.526987e-004,1.425557e-004
-8.400462e-004,1.474177e-004
-9.601366e-004,1.773998e-004
-9.607848e-004,2.252090e-004
-8.308084e-004,2.746390e-004
-6.052136e-004,3.075383e-004
-3.389403e-004,3.111037e-004
-8.352541e-005,2.863077e-004
1.210010e-004,2.475741e-004
2.462775e-004,2.070577e-004
2.845250e-004,1.739964e-004
2.485465e-004,1.540623e-004
1.594105e-004,1.464453e-004
2.992031e-005,1.517934e-004
-1.263107e-004,1.692965e-004
-2.616352e-004,1.981441e-004
-3.199787e-004,2.336365e-004
-2.815692e-004,2.709115e-004
-1.822232e-004,2.973281e-004
-8.190475e-005,2.945730e-004
-1.610624e-005,2.597290e-004
1.193106e-005,2.043026e-004
3.283749e-005,1.454729e-004
8.891209e-005,9.150514e-005
2.127300e-004,4.645098e-005
4.018603e-004,1.598270e-005
6.200004e-004,-4.761664e-006
8.229063e-004,-1.886135e-005
9.733030e-004,-3.296103e-005
1.057739e-003,-5.030202e-005
1.083183e-003,-6.618442e-005
1.051419e-003,-7.201877e-005
9.708721e-004,-6.051213e-005
8.661778e-004,-3.312309e-005
7.665075e-004,5.864920e-007
6.883920e-004,3.332369e-005
6.302104e-004,5.698522e-005
5.775391e-004,6.217132e-005
5.073649e-004,4.320967e-005
4.023465e-004,5.864920e-007
2.744769e-004,-5.240886e-005
1.817755e-004,-9.665270e-005
1.775618e-004,-1.159385e-004
2.634565e-004,-1.102662e-004
4.042913e-004,-9.697683e-005
5.543638e-004,-9.535618e-005
6.684579e-004,-1.201522e-004
7.097846e-004,-1.731475e-004
6.681338e-004,-2.441321e-004
5.718669e-004,-3.177098e-004
4.696036e-004,-3.818876e-004
4.029947e-004,-4.274280e-004
3.707437e-004,-4.484965e-004
3.363859e-004,-4.399070e-004
2.501671e-004,-4.031182e-004
8.842590e-005,-3.467195e-004
-1.196660e-004,-2.820554e-004
-3.071755e-004,-2.159328e-004
-4.288866e-004,-1.536997e-004
-4.851232e-004,-1.007043e-004
-5.228845e-004,-5.629844e-005
-6.037550e-004,-1.675450e-005
-7.667927e-004,2.068259e-005
-9.996805e-004,5.617490e-005
-1.252988e-003,8.194328e-005
-1.474370e-003,8.891209e-005
-1.629628e-003,7.416415e-005
-1.711471e-003,4.158902e-005
-1.734809e-003,-2.238346e-007
-1.717306e-003,-4.074016e-005
-1.672252e-003,-7.331530e-005
-1.606291e-003,-9.357346e-005
-1.527365e-003,-1.024871e-004
-1.435636e-003,-9.989401e-005
-1.318463e-003,-8.530812e-005
-1.163853e-003,-5.338126e-005
-9.679157e-004,-3.951337e-006
-7.368106e-004,5.893001e-005
-4.749131e-004,1.248906e-004
-1.947022e-004,1.843686e-004
7.902610e-005,2.318537e-004
3.083486e-004,2.637806e-004
4.571246e-004,2.778803e-004
5.151440e-004,2.746390e-004
5.076890e-004,2.594049e-004
4.901859e-004,2.469258e-004
5.263265e-004,2.464396e-004
6.587339e-004,2.607014e-004
8.783326e-004,2.889007e-004
1.127265e-003,3.221241e-004
1.331792e-003,3.499994e-004
1.430490e-003,3.639370e-004
1.395808e-003,3.642611e-004
1.244277e-003,3.572923e-004
1.027271e-003,3.527545e-004
8.068618e-004,3.534027e-004
6.389620e-004,3.603715e-004
5.639257e-004,3.657197e-004
5.950422e-004,3.626405e-004
7.023296e-004,3.483787e-004
8.211235e-004,3.239069e-004
8.802774e-004,2.913317e-004
8.319819e-004,2.553532e-004
6.754267e-004,2.184023e-004
4.493454e-004,1.840444e-004
1.947408e-004,1.537382e-004
-6.569822e-005,1.269974e-004
-3.134961e-004,1.020394e-004
-5.222362e-004,7.886404e-005
-6.680949e-004,5.876794e-005
-7.261143e-004,4.531652e-005
-6.831670e-004,3.996837e-005
-5.575664e-004,3.802358e-005
-3.810773e-004,3.040651e-005
-1.974573e-004,1.711715e-005
-5.111234e-005,2.623614e-007
3.089271e-005,-1.740276e-005
3.964424e-005,-3.539201e-005
-8.002969e-006,-5.629844e-005
-8.012204e-005,-8.271508e-005
-1.504584e-004,-1.120489e-004
-1.984297e-004,-1.339277e-004
-2.146363e-004,-1.423551e-004
-2.099363e-004,-1.384655e-004
-2.091260e-004,-1.224211e-004
-2.284118e-004,-9.713889e-005
-2.587180e-004,-6.812920e-005
-2.682799e-004,-4.381940e-005
-2.295462e-004,-2.939559e-005
-1.327933e-004,-2.631635e-005
5.286387e-006,-3.474375e-005
1.566554e-004,-4.916756e-005
2.927903e-004,-6.359137e-005
3.991052e-004,-8.093236e-005
4.707381e-004,-1.000561e-004
5.119027e-004,-1.182074e-004
5.319988e-004,-1.349001e-004
5.368608e-004,-1.506204e-004
5.308643e-004,-1.635857e-004
5.156302e-004,-1.689338e-004
4.858102e-004,-1.645581e-004
4.360561e-004,-1.551583e-004
3.590750e-004,-1.415448e-004
2.516257e-004,-1.259865e-004
1.342904e-004,-1.078352e-004
4.158902e-005,-8.514606e-005
-2.168618e-006,-5.775702e-005
4.313994e-006,-2.275091e-005
3.932010e-005,1.533444e-005
7.594687e-005,4.871989e-005
1.002567e-004,7.319176e-005
1.184080e-004,8.923623e-005
1.483901e-004,9.993253e-005
2.047888e-004,1.091703e-004
2.885766e-004,1.248906e-004
3.875985e-004,1.480659e-004
4.772207e-004,1.722137e-004
5.316747e-004,1.903650e-004
5.324850e-004,2.020337e-004
4.684692e-004,2.091646e-004
3.483787e-004,2.146748e-004
2.005751e-004,2.174299e-004
5.082674e-005,2.133783e-004
-9.827335e-005,2.060853e-004
-2.404046e-004,1.994406e-004
-3.491504e-004,1.939304e-004
-3.901529e-004,1.910133e-004
-3.444506e-004,1.914995e-004
-2.178775e-004,1.936063e-004
-3.895745e-005,1.979821e-004
1.427178e-004,2.051129e-004
2.846870e-004,2.138645e-004
3.686369e-004,2.218057e-004
4.020224e-004,2.252090e-004
4.042913e-004,2.218057e-004
3.845193e-004,2.106232e-004
3.268240e-004,1.929580e-004
2.023578e-004,1.681620e-004
7.555301e-006,1.363972e-004
-2.201465e-004,1.004187e-004
-4.097628e-004,6.427817e-005
-4.974402e-004,2.927205e-005
-4.548170e-004,-3.303076e-006
-3.070135e-004,-3.604027e-005
-1.170729e-004,-6.667062e-005
3.656499e-005,-9.098041e-005
1.031738e-004,-1.054042e-004
8.226741e-005,-1.104282e-004
2.035846e-005,-1.008664e-004
-3.101625e-005,-7.688073e-005
-4.625038e-005,-4.689865e-005
-2.161646e-005,-1.772689e-005
3.948217e-005,2.855407e-006
1.192183e-004,5.772582e-006
1.880961e-004,-1.513384e-005
2.263435e-004,-5.176061e-005
2.302331e-004,-9.130454e-005
1.963614e-004,-1.282554e-004
1.221355e-004,-1.619650e-004
1.387585e-005,-1.930815e-004
-1.044318e-004,-2.198223e-004
-2.049123e-004,-2.382978e-004
-2.634179e-004,-2.472114e-004
-2.656868e-004,-2.449425e-004
-2.126914e-004,-2.319772e-004
-1.180453e-004,-2.086398e-004
-9.623623e-006,-1.783336e-004
8.016057e-005,-1.496481e-004
1.242423e-004,-1.318209e-004
1.107909e-004,-1.235555e-004
5.293359e-005,-1.173971e-004
-2.031993e-005,-1.079973e-004
-7.963584e-005,-9.357346e-005
-1.101041e-004,-7.963584e-005
-1.167488e-004,-7.234290e-005
-1.222590e-004,-6.926366e-005
-1.556445e-004,-6.650855e-005
-2.282497e-004,-6.359137e-005
-3.293785e-004,-5.759496e-005
-4.319658e-004,-4.884343e-005
-5.092709e-004,-3.749886e-005
-5.476804e-004,-2.550602e-005
-5.504355e-004,-1.545797e-005
-5.264499e-004,-9.785688e-006
-4.810716e-004,-6.868513e-006
-4.108973e-004,-1.196227e-006
-3.151167e-004,1.468618e-005
-2.062088e-004,4.677511e-005
-9.956988e-005,9.571884e-005
-2.064406e-005,1.527658e-004
7.485573e-007,1.992786e-004
-6.099833e-005,2.180782e-004
-2.060468e-004,2.026820e-004
-3.830221e-004,1.568175e-004
-4.997091e-004,9.879808e-005
-4.831784e-004,5.179914e-005
-3.313232e-004,2.927205e-005
-1.071869e-004,3.202716e-005
1.146805e-004,5.066468e-005
2.842008e-004,7.724339e-005
3.827366e-004,1.069013e-004
4.141773e-004,1.385041e-004
3.892192e-004,1.663793e-004
3.268240e-004,1.866375e-004
2.642668e-004,1.958752e-004
2.274780e-004,1.994406e-004
2.166196e-004,2.044647e-004
2.145127e-004,2.127300e-004
1.983062e-004,2.266676e-004
1.598967e-004,2.423880e-004
1.184080e-004,2.524360e-004
1.013911e-004,2.525981e-004
1.145184e-004,2.459534e-004
1.383420e-004,2.380122e-004
1.454729e-004,2.334744e-004
1.219734e-004,2.399570e-004
6.573675e-005,2.607014e-004
-2.096820e-005,2.910076e-004
-1.467309e-004,3.161277e-004
-3.173856e-004,3.243930e-004
-5.032745e-004,3.086727e-004
-6.518884e-004,2.654013e-004
-7.180111e-004,2.036544e-004
-6.821946e-004,1.399627e-004
-5.478425e-004,9.312580e-005
-3.292164e-004,7.319176e-005
-6.326724e-005,7.562274e-005
1.838824e-004,8.875003e-005
3.404375e-004,1.010670e-004
3.692851e-004,1.069013e-004
2.876042e-004,1.065772e-004
1.594105e-004,9.442231e-005
6.022653e-005,7.076078e-005
3.656499e-005,4.110282e-005
9.215340e-005,2.181705e-005
2.070577e-004,2.586868e-005
3.585888e-004,5.893001e-005
5.191956e-004,1.167873e-004
6.600305e-004,1.843686e-004
7.554871e-004,2.368777e-004
7.934103e-004,2.462775e-004
7.832003e-004,1.950649e-004
7.428459e-004,8.242948e-005
6.713751e-004,-7.850138e-005
5.571189e-004,-2.583939e-004
4.073705e-004,-4.173799e-004
2.503292e-004,-5.238568e-004
1.150046e-004,-5.624284e-004
6.907040e-006,-5.402254e-004
-8.660465e-005,-4.818819e-004
-1.817370e-004,-4.167317e-004
-2.914552e-004,-3.627639e-004
-4.206212e-004,-3.279199e-004
-5.629146e-004,-3.091203e-004
-6.956460e-004,-2.992343e-004
-7.923990e-004,-2.945344e-004
-8.325911e-004,-2.904828e-004
-8.079573e-004,-2.812451e-004
-7.227109e-004,-2.614731e-004
-5.815520e-004,-2.300324e-004
-3.873979e-004,-1.930815e-004
-1.394379e-004,-1.606685e-004
1.385041e-004,-1.360346e-004
3.955397e-004,-1.172350e-004
5.822391e-004,-9.551824e-005
6.559788e-004,-6.910160e-005
6.075213e-004,-3.636440e-005
4.709002e-004,2.045080e-006
3.054314e-004,4.256141e-005
1.496866e-004,7.724339e-005
2.084466e-005,1.005808e-004
-6.715681e-005,1.146805e-004
-9.908367e-005,1.257009e-004
-6.359137e-005,1.398006e-004
2.943412e-005,1.584381e-004
1.466074e-004,1.827479e-004
2.535705e-004,2.141886e-004
3.242310e-004,2.506533e-004
3.436788e-004,2.845250e-004
3.185587e-004,3.128864e-004
2.741528e-004,3.368721e-004
2.365536e-004,3.621543e-004
2.287745e-004,3.906778e-004
2.628082e-004,4.183910e-004
3.362238e-004,4.404318e-004
4.190393e-004,4.525868e-004
4.721967e-004,4.486972e-004
4.649037e-004,4.300596e-004
3.867882e-004,4.012120e-004
2.555152e-004,3.678266e-004
1.090082e-004,3.311998e-004
-5.896120e-006,2.921420e-004
-5.889148e-005,2.568118e-004
-4.949169e-005,2.297469e-004
1.396819e-006,2.149989e-004
7.562274e-005,2.122438e-004
1.616794e-004,2.120818e-004
2.504913e-004,2.072198e-004
3.287688e-004,1.914995e-004
3.877606e-004,1.688103e-004
4.271425e-004,1.438522e-004
4.457800e-004,1.227837e-004
4.399457e-004,1.120874e-004
4.093153e-004,1.094944e-004
3.649094e-004,1.080358e-004
3.224483e-004,1.013911e-004
2.974902e-004,9.134307e-005
2.978143e-004,7.789165e-005
3.158036e-004,6.022653e-005
3.209897e-004,3.834771e-005
2.723701e-004,1.711715e-005
1.436902e-004,2.369211e-006
-3.085418e-005,-5.571990e-006
-1.733096e-004,-9.137427e-006
-2.096122e-004,-1.156841e-005
-1.243659e-004,-1.059602e-005
3.251336e-005,-1.399939e-005
1.966855e-004,-2.728874e-005
3.284447e-004,-4.851930e-005
4.138531e-004,-7.558420e-005
4.598797e-004,-1.083214e-004
4.906721e-004,-1.465688e-004
5.305402e-004,-1.817370e-004
5.958526e-004,-2.052365e-004
6.679717e-004,-2.146363e-004
6.921195e-004,-2.164190e-004
6.149763e-004,-2.165810e-004
4.250357e-004,-2.173914e-004
1.717275e-004,-2.169052e-004
-6.326724e-005,-2.159328e-004
-2.172293e-004,-2.178775e-004
-2.752487e-004,-2.198223e-004
-2.784900e-004,-2.186879e-004
-2.934000e-004,-2.136638e-004
-3.721637e-004,-2.044261e-004
-5.223983e-004,-1.948643e-004
-7.039114e-004,-1.917850e-004
-8.567389e-004,-1.950263e-004
-9.478196e-004,-2.008607e-004
-9.719674e-004,-2.062088e-004
-9.324234e-004,-2.055606e-004
-8.332395e-004,-1.940539e-004
-6.928909e-004,-1.669890e-004
-5.533527e-004,-1.276072e-004
-4.575721e-004,-8.482193e-005
-4.190006e-004,-4.592625e-005
-4.168937e-004,-1.351319e-005
-4.180282e-004,1.501031e-005
-3.927460e-004,3.802358e-005
-3.235441e-004,5.617490e-005
-2.149604e-004,6.946425e-005
-8.887356e-005,8.275361e-005
1.873781e-005,1.007429e-004
7.189524e-005,1.235941e-004
5.520250e-005,1.490383e-004
-2.258885e-005,1.720516e-004
-1.374932e-004,1.872858e-004
-2.506147e-004,1.937684e-004
-3.240303e-004,1.968476e-004
-3.292164e-004,1.992786e-004
-2.519113e-004,1.978200e-004
-9.875954e-005,1.913374e-004
1.005808e-004,1.791825e-004
3.072141e-004,1.654069e-004
4.807861e-004,1.534141e-004
5.880735e-004,1.422316e-004
6.212969e-004,1.325077e-004
5.896941e-004,1.299146e-004
5.109303e-004,1.398006e-004
4.104497e-004,1.657311e-004
3.167760e-004,2.052750e-004
2.425500e-004,2.534084e-004
1.850168e-004,3.030004e-004
1.316974e-004,3.495132e-004
6.735741e-005,3.897054e-004
-2.048200e-005,4.153117e-004
-1.353863e-004,4.161220e-004
-2.770314e-004,3.858158e-004
-4.420138e-004,3.297412e-004
-6.008379e-004,2.615117e-004
-7.032631e-004,1.955511e-004
-7.303280e-004,1.438522e-004
-7.176869e-004,1.057669e-004
-7.345417e-004,7.302970e-005
-7.966127e-004,4.126489e-005
-8.434496e-004,6.582909e-006
-7.938576e-004,-2.939559e-005
-6.061860e-004,-6.375344e-005
-3.000446e-004,-9.341139e-005
5.147500e-005,-1.175591e-004
3.572923e-004,-1.326312e-004
5.574431e-004,-1.347380e-004
6.357207e-004,-1.240417e-004
6.109247e-004,-9.989401e-005
5.185474e-004,-7.039812e-005
4.007258e-004,-4.657452e-005
2.957075e-004,-3.992984e-005
2.166196e-004,-5.192267e-005
1.551968e-004,-8.141856e-005
9.409818e-005,-1.186936e-004
2.392390e-005,-1.532135e-004
-5.143648e-005,-1.796301e-004
-1.079973e-004,-1.955125e-004
-1.225832e-004,-1.995642e-004
-8.903562e-005,-1.947022e-004
-1.254080e-005,-1.843300e-004
9.701536e-005,-1.681235e-004
2.187264e-004,-1.449482e-004
3.281205e-004,-1.177212e-004
4.200116e-004,-9.503204e-005
5.120648e-004,-8.482193e-005
6.258347e-004,-8.887356e-005
7.802831e-004,-1.015147e-004
9.814063e-004,-1.165867e-004
1.212836e-003,-1.279313e-004
1.430976e-003,-1.353863e-004
1.569380e-003,-1.399241e-004
1.560143e-003,-1.407345e-004
1.375226e-003,-1.345760e-004
1.057415e-003,-1.229073e-004
6.961711e-004,-1.078352e-004
3.859779e-004,-8.790117e-005
1.830721e-004,-5.548811e-005
8.599492e-005,-9.137427e-006
5.552663e-005,4.612685e-005
5.390598e-005,9.863601e-005
6.200925e-005,1.383420e-004
7.367795e-005,1.620036e-004
7.772959e-005,1.701068e-004
5.504044e-005,1.663793e-004
-1.724069e-005,1.553589e-004
-1.536997e-004,1.420695e-004
-3.462333e-004,1.320215e-004
-5.807417e-004,1.282940e-004
-8.353463e-004,1.255389e-004
-1.085413e-003,1.205148e-004
-1.318301e-003,1.106288e-004
-1.508728e-003,1.028497e-004
-1.620553e-003,1.049566e-004
-1.648428e-003,1.213252e-004
-1.620067e-003,1.509831e-004
-1.573716e-003,1.913374e-004
-1.528662e-003,2.342847e-004
-1.470318e-003,2.717218e-004
-1.358817e-003,3.039728e-004
-1.166932e-003,3.292550e-004
-9.009827e-004,3.448133e-004
-5.984068e-004,3.464339e-004
-3.084721e-004,3.286068e-004
-7.671866e-005,2.945730e-004
7.173317e-005,2.522740e-004
1.365593e-004,2.135403e-004
1.456350e-004,1.874478e-004
1.464453e-004,1.749688e-004
1.825859e-004,1.726999e-004
2.754493e-004,1.715654e-004
4.145014e-004,1.689724e-004
5.725152e-004,1.673517e-004
7.201568e-004,1.678379e-004
8.267959e-004,1.705930e-004
8.715259e-004,1.761032e-004
8.519160e-004,1.845306e-004
7.880622e-004,1.934442e-004
7.135121e-004,2.000889e-004
6.563030e-004,2.012234e-004
6.243761e-004,1.927960e-004
6.169211e-004,1.712413e-004
6.294001e-004,1.365593e-004
6.509548e-004,9.539470e-005
6.691061e-004,5.325772e-005
6.815852e-004,1.387585e-005
6.895264e-004,-2.161646e-005
6.984400e-004,-5.176061e-005
6.994124e-004,-7.526008e-005
6.731578e-004,-9.438378e-005
6.146522e-004,-1.091317e-004
5.454503e-004,-1.195039e-004
5.018546e-004,-1.250141e-004
4.968306e-004,-1.289037e-004
5.146578e-004,-1.305243e-004
5.196818e-004,-1.319829e-004
4.781931e-004,-1.352242e-004
3.803056e-004,-1.462447e-004
2.535705e-004,-1.660166e-004
1.454729e-004,-1.880575e-004
6.946425e-005,-2.058847e-004
-8.720959e-007,-2.125294e-004
-8.984595e-005,-2.086398e-004
-1.747682e-004,-1.981056e-004
-2.015090e-004,-1.874093e-004
-1.417068e-004,-1.848162e-004
-2.534396e-005,-1.890299e-004
8.323981e-005,-1.971332e-004
1.396385e-004,-2.011848e-004
1.432040e-004,-1.961608e-004
1.258630e-004,-1.827094e-004
1.216493e-004,-1.671511e-004
1.368834e-004,-1.548341e-004
1.402868e-004,-1.436516e-004
9.182927e-005,-1.313347e-004
-2.339918e-005,-1.130213e-004
-1.945401e-004,-8.563225e-005
-3.877220e-004,-5.192267e-005
-5.544871e-004,-1.756482e-005
-6.533470e-004,1.290346e-005
-6.671225e-004,3.932010e-005
-6.138030e-004,6.492643e-005
-5.366600e-004,8.696731e-005
-4.715097e-004,1.051186e-004
-4.279142e-004,1.210010e-004
-3.916115e-004,1.372076e-004
-3.507711e-004,1.504969e-004
-2.963172e-004,1.543865e-004
-2.167431e-004,1.474177e-004
-1.118868e-004,1.357490e-004
3.827799e-006,1.253768e-004
1.026876e-004,1.187321e-004
1.620036e-004,1.200286e-004
1.746447e-004,1.310491e-004
1.503349e-004,1.436902e-004
1.072255e-004,1.556830e-004
7.011252e-005,1.658931e-004
5.179914e-005,1.752929e-004
4.596478e-005,1.795066e-004
3.688912e-005,1.736723e-004
6.582909e-006,1.581140e-004
-5.824322e-005,1.394765e-004
-1.525652e-004,1.308870e-004
-2.486699e-004,1.401247e-004
-3.134961e-004,1.684862e-004
-3.204649e-004,2.098128e-004
-2.637420e-004,2.519498e-004
-1.640719e-004,2.830664e-004
-4.803310e-005,2.976523e-004
7.221937e-005,2.973281e-004
1.939304e-004,2.832284e-004
3.120761e-004,2.564877e-004
4.140152e-004,2.216436e-004
4.871067e-004,1.845306e-004
5.251921e-004,1.500107e-004
5.417228e-004,1.235941e-004
5.644119e-004,1.090082e-004
6.065489e-004,9.993253e-005
6.538720e-004,8.664318e-005
6.793162e-004,6.687121e-005
6.603546e-004,4.564065e-005
5.937457e-004,2.910999e-005
4.995857e-004,2.149292e-005
4.125566e-004,2.473423e-005
3.699334e-004,3.380988e-005
3.773884e-004,4.272347e-005
4.130428e-004,4.709924e-005
4.548557e-004,4.288554e-005
4.937514e-004,2.862379e-005
5.260024e-004,6.258778e-006
5.465847e-004,-1.837515e-005
5.605224e-004,-4.041603e-005
5.793219e-004,-5.629844e-005
6.122212e-004,-6.618442e-005
6.543582e-004,-7.607040e-005
6.840162e-004,-9.162867e-005
6.702406e-004,-1.152902e-004
5.986077e-004,-1.425172e-004
4.919686e-004,-1.650443e-004
3.817642e-004,-1.702304e-004
2.649151e-004,-1.520790e-004
1.026876e-004,-1.170729e-004
-1.538618e-004,-7.607040e-005
-5.256396e-004,-4.446767e-005
-1.002274e-003,-3.409549e-005
-1.533524e-003,-5.046408e-005
-2.011130e-003,-8.952183e-005
-2.308358e-003,-1.370070e-004
-2.355033e-003,-1.767130e-004
-2.179192e-003,-2.006986e-004
-1.873213e-003,-2.076674e-004
-1.533524e-003,-1.958367e-004
-1.213121e-003,-1.640719e-004
-9.188099e-004,-1.169109e-004
-6.326026e-004,-6.213279e-005
-3.483401e-004,-7.516774e-006
-7.218083e-005,3.591673e-005
1.793446e-004,5.779555e-005
3.811159e-004,5.844381e-005
5.057442e-004,4.045456e-005
5.357263e-004,7.717366e-006
4.768966e-004,-3.506788e-005
3.571303e-004,-7.785312e-005
2.166196e-004,-1.073490e-004
8.842590e-005,-1.138316e-004
-1.416145e-005,-9.243900e-005
-8.919769e-005,-4.462973e-005
-1.389517e-004,2.214118e-005
-1.590478e-004,9.831188e-005
-1.384655e-004,1.692965e-004
-7.963584e-005,2.219677e-004
-4.275467e-006,2.522740e-004
5.131294e-005,2.634565e-004
5.714729e-005,2.618358e-004
1.014835e-005,2.564877e-004
-6.488790e-005,2.590807e-004
-1.302002e-004,2.715597e-004
-1.590478e-004,2.924662e-004
-1.442999e-004,3.149933e-004
-9.632857e-005,3.263378e-004
-2.955766e-005,3.188828e-004
4.239934e-005,2.940868e-004
1.036600e-004,2.649151e-004
1.325077e-004,2.428742e-004
9.766362e-005,2.274780e-004
-1.805102e-005,2.132162e-004
-1.924333e-004,1.934442e-004
-3.658432e-004,1.686482e-004
-4.627582e-004,1.475797e-004
-4.298589e-004,1.346145e-004
-2.621213e-004,1.279698e-004
-6.058186e-006,1.231079e-004
2.712356e-004,1.185701e-004
5.049339e-004,1.154908e-004
6.543582e-004,1.106288e-004
7.083260e-004,9.993253e-005
6.734819e-004,8.080883e-005
5.786736e-004,5.455425e-005
4.616624e-004,3.008238e-005
3.595612e-004,1.711715e-005
3.010556e-004,2.165498e-005
2.968419e-004,3.786152e-005
3.452995e-004,5.325772e-005
4.333010e-004,5.666109e-005
5.365367e-004,4.645098e-005
6.276174e-004,2.748934e-005
6.820714e-004,1.720949e-006
6.767232e-004,-2.761287e-005
5.997422e-004,-5.370539e-005
4.582590e-004,-7.266703e-005
2.760976e-004,-8.628052e-005
8.016057e-005,-9.875954e-005
-1.143178e-004,-1.123730e-004
-2.942103e-004,-1.267968e-004
-4.416897e-004,-1.396000e-004
-5.395772e-004,-1.480274e-004
-5.750695e-004,-1.520790e-004
-5.402254e-004,-1.556445e-004
-4.454172e-004,-1.616409e-004
-3.222476e-004,-1.746061e-004
-1.969711e-004,-1.906506e-004
-8.563225e-005,-2.041020e-004
1.371378e-005,-2.079916e-004
1.094944e-004,-1.998883e-004
2.068957e-004,-1.807646e-004
3.062417e-004,-1.566169e-004
4.154738e-004,-1.366828e-004
5.350781e-004,-1.237176e-004
6.459308e-004,-1.183694e-004
7.295565e-004,-1.162626e-004
7.874139e-004,-1.092938e-004
8.366818e-004,-9.081835e-005
8.747673e-004,-6.148453e-005
8.593710e-004,-3.101625e-005
7.327979e-004,-1.270286e-005
4.880791e-004,-1.464765e-005
1.987924e-004,-3.344723e-005
-3.441962e-005,-5.905355e-005
-1.561307e-004,-7.882551e-005
-1.874093e-004,-8.384954e-005
-1.820611e-004,-7.526008e-005
-1.716889e-004,-5.727083e-005
-1.460826e-004,-3.636440e-005
-8.320128e-005,-2.096820e-005
1.776542e-005,-9.299493e-006
1.287802e-004,2.693341e-006
2.047888e-004,2.230325e-005
2.211574e-004,5.147500e-005
1.850168e-004,8.810177e-005
1.205148e-004,1.333180e-004
4.953022e-005,1.832341e-004
-2.453363e-005,2.294227e-004
-1.055663e-004,2.597290e-004
-1.880575e-004,2.666978e-004
-2.579077e-004,2.540567e-004
-2.995585e-004,2.346088e-004
-3.062031e-004,2.206712e-004
-2.814071e-004,2.213195e-004
-2.376495e-004,2.326641e-004
-1.875713e-004,2.456293e-004
-1.558065e-004,2.506533e-004
-1.677994e-004,2.440086e-004
-2.198223e-004,2.325020e-004
-2.778417e-004,2.237505e-004
-3.036101e-004,2.187264e-004
-2.775176e-004,2.200230e-004
-1.994021e-004,2.289366e-004
-8.401160e-005,2.399570e-004
5.098881e-005,2.453052e-004
1.926339e-004,2.431983e-004
3.305515e-004,2.375260e-004
4.490213e-004,2.299089e-004
5.342677e-004,2.187264e-004
5.751082e-004,2.049509e-004
5.794840e-004,1.921477e-004
5.648981e-004,1.804790e-004
5.456123e-004,1.675138e-004
5.219508e-004,1.488763e-004
4.926169e-004,1.193804e-004
4.529109e-004,8.356394e-005
3.939191e-004,5.196120e-005
3.153174e-004,3.413401e-005
2.276400e-004,3.186510e-005
1.449867e-004,3.640293e-005
6.751948e-005,3.883391e-005
-2.307504e-005,3.073064e-005
-1.609926e-004,9.175954e-006
-3.713534e-004,-2.210265e-005
-6.416783e-004,-5.224680e-005
-9.176755e-004,-7.104638e-005
-1.146512e-003,-7.623246e-005
-1.294153e-003,-7.137051e-005
-1.334994e-003,-6.634648e-005
-1.254123e-003,-6.456377e-005
-1.047328e-003,-6.910160e-005
-7.240074e-004,-8.093236e-005
-3.173856e-004,-1.005423e-004
1.080358e-004,-1.246900e-004
4.752759e-004,-1.446240e-004
7.319876e-004,-1.553203e-004
8.621261e-004,-1.554824e-004
8.843291e-004,-1.486757e-004
8.264717e-004,-1.394379e-004
7.169155e-004,-1.342519e-004
5.872631e-004,-1.368449e-004
4.697657e-004,-1.465688e-004
3.662059e-004,-1.603444e-004
2.561635e-004,-1.752544e-004
1.282940e-004,-1.844921e-004
-1.399939e-005,-1.817370e-004
-1.752544e-004,-1.674752e-004
-3.660052e-004,-1.462447e-004
-5.946793e-004,-1.255003e-004
-8.577113e-004,-1.054042e-004
-1.105671e-003,-8.141856e-005
-1.249261e-003,-4.754691e-005
-1.224789e-003,-4.437533e-006
-1.030635e-003,3.980630e-005
-7.267626e-004,7.610894e-005
-4.026320e-004,9.442231e-005
-1.311726e-004,9.199134e-005
5.698522e-005,7.675720e-005
1.704310e-004,5.941620e-005
2.328261e-004,4.450620e-005
2.624841e-004,3.024445e-005
2.709115e-004,1.598270e-005
2.760976e-004,3.179537e-006
3.028383e-004,-5.085794e-006
3.645853e-004,-3.141010e-006
4.514523e-004,1.922400e-005
5.392918e-004,7.027458e-005
6.016869e-004,1.500107e-004
6.174073e-004,2.545429e-004
5.872631e-004,3.743092e-004
5.230852e-004,4.914824e-004
4.469145e-004,5.888838e-004
3.830607e-004,6.563030e-004
3.550234e-004,6.927677e-004
3.734989e-004,6.990883e-004
4.190393e-004,6.733199e-004
4.373526e-004,6.140039e-004
3.720403e-004,5.230852e-004
1.989545e-004,4.080188e-004
-5.548811e-005,2.790148e-004
-3.254889e-004,1.467694e-004
-5.319601e-004,2.441009e-005
-6.165582e-004,-7.558420e-005
-5.619422e-004,-1.447861e-004
-3.959873e-004,-1.849783e-004
-1.783336e-004,-2.006986e-004
3.137890e-005,-1.969711e-004
1.953890e-004,-1.810887e-004
2.981384e-004,-1.614788e-004
3.493511e-004,-1.454344e-004
3.665301e-004,-1.368449e-004
3.665301e-004,-1.344139e-004
3.564820e-004,-1.339277e-004
3.357376e-004,-1.352242e-004
3.049452e-004,-1.371690e-004
2.691288e-004,-1.363587e-004
2.328261e-004,-1.259865e-004
1.960373e-004,-1.042698e-004
1.598967e-004,-7.931171e-005
1.273216e-004,-5.629844e-005
1.128978e-004,-3.539201e-005
1.331559e-004,-1.853722e-005
1.937684e-004,-8.002969e-006
2.786906e-004,-4.599598e-006
3.556717e-004,-7.840905e-006
3.948915e-004,-1.399939e-005
3.846814e-004,-2.177852e-005
3.324963e-004,-2.777494e-005
2.553532e-004,-3.182657e-005
1.851789e-004,-3.312309e-005
1.516314e-004,-3.782299e-005
1.608691e-004,-5.095028e-005
1.864754e-004,-6.958779e-005
1.950649e-004,-8.644259e-005
1.717275e-004,-9.892161e-005
1.305629e-004,-1.097800e-004
9.247754e-005,-1.214487e-004
6.978839e-005,-1.318209e-004
6.249545e-005,-1.318209e-004
6.103686e-005,-1.178833e-004
6.087479e-005,-9.600444e-005
6.217132e-005,-7.444975e-005
6.298164e-005,-5.791909e-005
5.504044e-005,-4.770897e-005
2.846173e-005,-4.381940e-005
-3.053005e-005,-4.544006e-005
-1.420310e-004,-5.176061e-005
-3.139823e-004,-5.905355e-005
-5.155915e-004,-6.488790e-005
-6.855980e-004,-6.877746e-005
-7.591756e-004,-7.120844e-005
-7.060182e-004,-6.731888e-005
-5.543251e-004,-5.451572e-005
-3.734602e-004,-3.409549e-005
-2.392702e-004,-1.043395e-005
-1.903264e-004,1.079661e-005
-2.081536e-004,2.732727e-005
-2.454286e-004,4.077869e-005
-2.601766e-004,5.034055e-005
-2.340841e-004,5.666109e-005
-1.885437e-004,6.427817e-005
-1.634236e-004,7.918817e-005
-1.825473e-004,1.023635e-004
-2.415391e-004,1.295905e-004
-3.087962e-004,1.553589e-004
-3.504470e-004,1.803169e-004
-3.510952e-004,2.059233e-004
-3.126857e-004,2.274780e-004
-2.446183e-004,2.410915e-004
-1.511067e-004,2.469258e-004
-2.550602e-005,2.488706e-004
1.368834e-004,2.495189e-004
3.143450e-004,2.521119e-004
4.597176e-004,2.579462e-004
5.287575e-004,2.634565e-004
5.088235e-004,2.611876e-004
4.219564e-004,2.457913e-004
3.101313e-004,2.193747e-004
2.125679e-004,1.939304e-004
1.527658e-004,1.811273e-004
1.362352e-004,1.830721e-004
1.509831e-004,1.970097e-004
1.691344e-004,2.175920e-004
1.584381e-004,2.402811e-004
8.388807e-005,2.579462e-004
-6.197072e-005,2.649151e-004
-2.413770e-004,2.600531e-004
-3.880461e-004,2.454672e-004
-4.484965e-004,2.211574e-004
-4.130042e-004,1.874478e-004
-3.013411e-004,1.514693e-004
-1.452723e-004,1.190562e-004
2.829966e-005,9.490851e-005
1.986303e-004,8.323981e-005
3.498373e-004,8.080883e-005
4.587452e-004,8.340187e-005
5.083373e-004,9.215340e-005
5.062304e-004,1.047945e-004
4.809482e-004,1.153287e-004
4.662003e-004,1.166253e-004
4.775448e-004,1.065772e-004
5.067165e-004,8.486046e-005
5.318367e-004,5.617490e-005
5.300540e-004,2.441009e-005
4.877550e-004,-7.840905e-006
4.070464e-004,-3.976777e-005
2.970040e-004,-7.104638e-005
1.825859e-004,-9.811128e-005
8.923623e-005,-1.204763e-004
3.283749e-005,-1.383035e-004
1.160693e-005,-1.543479e-004
6.907040e-006,-1.723372e-004
1.002961e-007,-1.942160e-004
-1.578211e-005,-2.160948e-004
-3.749886e-005,-2.352185e-004
-5.824322e-005,-2.488320e-004
-6.748094e-005,-2.548284e-004
-5.370539e-005,-2.515871e-004
-1.010982e-005,-2.392702e-004
5.779555e-005,-2.169052e-004
1.313732e-004,-1.885437e-004
1.735102e-004,-1.629374e-004
1.454729e-004,-1.442999e-004
4.871989e-005,-1.344139e-004
-6.488790e-005,-1.279313e-004
-1.349001e-004,-1.130213e-004
-1.434896e-004,-8.919769e-005
-1.156143e-004,-6.002594e-005
-8.563225e-005,-3.182657e-005
-7.282909e-005,-1.302700e-005
-8.077030e-005,-1.059602e-005
-1.013526e-004,-2.728874e-005
-1.276072e-004,-5.824322e-005
-1.512687e-004,-8.692878e-005
-1.601823e-004,-1.018388e-004
-1.488377e-004,-1.018388e-004
-1.282554e-004,-9.017008e-005
-1.065387e-004,-6.812920e-005
-8.287715e-005,-3.620233e-005
-6.359137e-005,1.396819e-006
-6.537409e-005,3.737532e-005
-1.023250e-004,6.249545e-005
-1.723372e-004,7.886404e-005
-2.587180e-004,9.571884e-005
-3.387782e-004,1.172735e-004
-3.932322e-004,1.422316e-004
-4.113835e-004,1.689724e-004
-3.946908e-004,1.958752e-004
-3.523917e-004,2.146748e-004
-2.930758e-004,2.206712e-004
-2.199844e-004,2.175920e-004
-1.292278e-004,2.146748e-004
-1.594417e-005,2.205092e-004
1.172735e-004,2.359054e-004
2.645909e-004,2.509774e-004
4.130428e-004,2.540567e-004
5.418848e-004,2.386605e-004
6.256726e-004,2.124059e-004
6.496583e-004,1.842065e-004
6.133557e-004,1.616794e-004
5.331332e-004,1.488763e-004
4.310321e-004,1.440143e-004
3.286068e-004,1.422316e-004
2.352571e-004,1.349386e-004
1.479039e-004,1.219734e-004
6.006447e-005,1.088461e-004
-2.939559e-005,1.047945e-004
-1.209625e-004,1.135460e-004
-2.177155e-004,1.297526e-004
-3.227338e-004,1.441764e-004
-4.202971e-004,1.522796e-004
-4.818819e-004,1.563313e-004
-4.930644e-004,1.571416e-004
-4.574101e-004,1.576278e-004
-3.828600e-004,1.594105e-004
-2.796244e-004,1.577899e-004
-1.588858e-004,1.503349e-004
-3.701266e-005,1.427178e-004
6.055066e-005,1.385041e-004
1.132219e-004,1.362352e-004
1.188942e-004,1.325077e-004
9.166720e-005,1.175977e-004
5.893001e-005,8.437427e-005
5.601284e-005,3.494434e-005
1.158149e-004,-2.096820e-005
2.393087e-004,-7.137051e-005
3.914881e-004,-1.073490e-004
5.234093e-004,-1.232314e-004
5.918010e-004,-1.209625e-004
5.647360e-004,-1.062146e-004
4.258460e-004,-8.887356e-005
1.971717e-004,-8.239095e-005
-6.796714e-005,-9.584238e-005
-3.081479e-004,-1.255003e-004
-4.666478e-004,-1.572651e-004
-4.990608e-004,-1.789819e-004
-3.980942e-004,-1.856265e-004
-1.943781e-004,-1.778474e-004
4.936815e-005,-1.605064e-004
2.676702e-004,-1.439758e-004
4.149876e-004,-1.396000e-004
4.815964e-004,-1.478653e-004
4.872688e-004,-1.592099e-004
4.689553e-004,-1.661787e-004
4.546936e-004,-1.637477e-004
4.582590e-004,-1.554824e-004
4.733311e-004,-1.447861e-004
4.778690e-004,-1.345760e-004
4.414042e-004,-1.255003e-004
3.422202e-004,-1.159385e-004
1.611932e-004,-1.063766e-004
-1.060525e-004,-1.008664e-004
-4.319658e-004,-1.020008e-004
-7.690616e-004,-1.086455e-004
-1.058024e-003,-1.152902e-004
-1.236782e-003,-1.146419e-004
-1.265468e-003,-1.045939e-004
-1.145701e-003,-8.482193e-005
-9.222133e-004,-5.759496e-005
-6.586951e-004,-2.793700e-005
-4.168937e-004,1.396819e-006
-2.366771e-004,3.494434e-005
-1.329553e-004,7.756752e-005
-9.535618e-005,1.279698e-004
-9.697683e-005,1.816135e-004
-1.052422e-004,2.284504e-004
-8.676672e-005,2.628082e-004
-1.318906e-005,2.845250e-004
1.261871e-004,2.955454e-004
3.148312e-004,2.890628e-004
5.133613e-004,2.623220e-004
6.749405e-004,2.205092e-004
7.512733e-004,1.738343e-004
7.169155e-004,1.389903e-004
5.914768e-004,1.252147e-004
4.222805e-004,1.367214e-004
2.600531e-004,1.744826e-004
1.480659e-004,2.355812e-004
9.879808e-005,3.077003e-004
9.782569e-005,3.781987e-004
1.224596e-004,4.324906e-004
1.644345e-004,4.621486e-004
2.237505e-004,4.637693e-004
2.986247e-004,4.367043e-004
3.935950e-004,3.853296e-004
5.018546e-004,3.219621e-004
5.997422e-004,2.613496e-004
6.608408e-004,2.151610e-004
6.716992e-004,1.877720e-004
6.413930e-004,1.785342e-004
5.974732e-004,1.796687e-004
5.757565e-004,1.796687e-004
5.824011e-004,1.673517e-004
5.819149e-004,1.308870e-004
5.120648e-004,7.043665e-005
3.289309e-004,-3.627206e-006
5.617490e-005,-7.072225e-005
-2.092881e-004,-1.104282e-004
-3.687603e-004,-1.156143e-004
-3.953390e-004,-9.308726e-005
-3.468815e-004,-5.759496e-005
-3.097686e-004,-2.437157e-005
-3.275957e-004,-6.220252e-006
-3.830221e-004,-6.706447e-006
-4.316416e-004,-1.545797e-005
-4.326141e-004,-2.388537e-005
-3.655190e-004,-2.761287e-005
-2.464010e-004,-2.518189e-005
-1.133454e-004,-2.583016e-005
8.689758e-006,-3.944364e-005
1.122495e-004,-6.569822e-005
2.044647e-004,-9.665270e-005
2.895490e-004,-1.196660e-004
3.649094e-004,-1.331174e-004
4.261701e-004,-1.418689e-004
4.802999e-004,-1.472171e-004
5.373470e-004,-1.499722e-004
5.947181e-004,-1.554824e-004
6.324793e-004,-1.708786e-004
6.242140e-004,-1.921092e-004
5.506363e-004,-2.136638e-004
4.076947e-004,-2.250084e-004
2.073819e-004,-2.229016e-004
-2.550602e-005,-2.096122e-004
-2.549905e-004,-1.885437e-004
-4.300210e-004,-1.624512e-004
-5.117019e-004,-1.358725e-004
-5.013297e-004,-1.183694e-004
-4.337485e-004,-1.173971e-004
-3.402368e-004,-1.326312e-004
-2.329496e-004,-1.543479e-004
-1.240417e-004,-1.669890e-004
-5.224680e-005,-1.630995e-004
-5.824322e-005,-1.438137e-004
-1.528894e-004,-1.128592e-004
-3.034480e-004,-7.590833e-005
-4.494688e-004,-3.766092e-005
-5.337428e-004,-1.196227e-006
-5.193190e-004,3.299956e-005
-4.053871e-004,6.573675e-005
-2.196603e-004,9.750156e-005
-7.354709e-006,1.255389e-004
1.772377e-004,1.477418e-004
2.859836e-004,1.649207e-004
2.971661e-004,1.801549e-004
2.303951e-004,1.924718e-004
1.224596e-004,2.010613e-004
4.638125e-006,2.039785e-004
-9.681477e-005,1.963614e-004
-1.540238e-004,1.785342e-004
-1.379794e-004,1.558451e-004
-4.365734e-005,1.362352e-004
1.062531e-004,1.261871e-004
2.780424e-004,1.304008e-004
4.530729e-004,1.425557e-004
6.232416e-004,1.556830e-004
7.822278e-004,1.660552e-004
9.164180e-004,1.759412e-004
9.987473e-004,1.916615e-004
9.849718e-004,2.180782e-004
8.399231e-004,2.513016e-004
5.812666e-004,2.827423e-004
2.707494e-004,3.039728e-004
-3.296103e-005,3.127243e-004
-2.831898e-004,3.094830e-004
-4.504412e-004,2.916559e-004
-5.235327e-004,2.615117e-004
-5.146191e-004,2.281262e-004
-4.603272e-004,1.966855e-004
-4.014975e-004,1.645966e-004
-3.638984e-004,1.284560e-004
-3.506090e-004,9.085688e-005
-3.564434e-004,5.714729e-005
-3.695707e-004,3.299956e-005
-3.893426e-004,1.744129e-005
-4.083043e-004,7.717366e-006
-4.011734e-004,-3.465141e-006
-3.353749e-004,-2.242678e-005
-2.029675e-004,-5.127441e-005
-4.074016e-005,-8.384954e-005
9.977047e-005,-1.131834e-004
1.911753e-004,-1.339277e-004
2.260194e-004,-1.449482e-004
2.086784e-004,-1.483515e-004
1.500107e-004,-1.434896e-004
6.184718e-005,-1.248521e-004
-3.571614e-005,-9.422172e-005
-1.235555e-004,-5.581224e-005
-1.901644e-004,-1.853722e-005
-2.423494e-004,1.031041e-005
-2.883759e-004,2.570662e-005
-3.282440e-004,2.667901e-005
-3.551469e-004,1.387585e-005
-3.640605e-004,-8.165035e-006
-3.478539e-004,-3.279896e-005
-3.036101e-004,-5.386745e-005
-2.425115e-004,-6.926366e-005
-1.843300e-004,-7.655660e-005
-1.420310e-004,-7.347736e-005
-1.138316e-004,-5.937768e-005
-8.741498e-005,-3.928157e-005
-5.305713e-005,-2.258885e-005
-1.173047e-005,-1.464765e-005
2.716521e-005,-9.947754e-006
4.823370e-005,-4.761664e-006
3.964424e-005,4.244267e-007
8.365628e-006,5.286387e-006
-2.518189e-005,9.500085e-006
-3.328516e-005,1.468618e-005
6.744974e-006,2.586868e-005
9.847395e-005,4.758544e-005
2.276400e-004,7.481241e-005
3.636129e-004,9.977047e-005
4.751139e-004,1.086841e-004
5.394538e-004,8.956036e-005
5.483674e-004,3.915804e-005
5.034753e-004,-2.939559e-005
4.219564e-004,-9.357346e-005
3.268240e-004,-1.336036e-004
2.402811e-004,-1.391138e-004
1.705930e-004,-1.126972e-004
1.116012e-004,-6.812920e-005
6.606088e-005,-1.918548e-005
4.888196e-005,2.441009e-005
6.897806e-005,5.763349e-005
1.096565e-004,8.453633e-005
1.339663e-004,1.044704e-004
1.093323e-004,1.218114e-004
2.765140e-005,1.360731e-004
-8.465986e-005,1.433661e-004
-1.815749e-004,1.401247e-004
-2.256567e-004,1.299146e-004
-2.071812e-004,1.184080e-004
-1.413827e-004,1.140322e-004
-5.062615e-005,1.195424e-004
3.543054e-005,1.305629e-004
9.182927e-005,1.404489e-004
1.012291e-004,1.441764e-004
6.136099e-005,1.474177e-004
-2.826114e-005,1.639484e-004
-1.629374e-004,2.008992e-004
-3.172236e-004,2.540567e-004
-4.293727e-004,3.089969e-004
-4.261314e-004,3.482167e-004
-2.666592e-004,3.585888e-004
1.419998e-005,3.391410e-004
3.193690e-004,3.030004e-004
5.496639e-004,2.657254e-004
6.524134e-004,2.381743e-004
6.242140e-004,2.227781e-004
5.000719e-004,2.124059e-004
3.362238e-004,1.939304e-004
1.869616e-004,1.598967e-004
7.886404e-005,1.106288e-004
1.841368e-005,5.196120e-005
2.531276e-006,-7.678839e-006
1.808955e-005,-6.229485e-005
4.288554e-005,-1.005423e-004
5.633696e-005,-1.157764e-004
4.661304e-005,-1.097800e-004
1.646890e-005,-9.470791e-005
-2.485776e-005,-8.109443e-005
-5.953974e-005,-7.137051e-005
-6.829127e-005,-6.893953e-005
-4.414354e-005,-7.363943e-005
-4.275467e-006,-8.271508e-005
2.538249e-005,-9.260107e-005
2.246531e-005,-9.794922e-005
-2.048200e-005,-9.843541e-005
-7.769106e-005,-9.616651e-005
-1.011905e-004,-9.713889e-005
-5.159854e-005,-1.065387e-004
7.772959e-005,-1.230693e-004
2.595669e-004,-1.373311e-004
4.367043e-004,-1.404103e-004
5.587396e-004,-1.302002e-004
6.067110e-004,-1.079973e-004
5.918010e-004,-7.947377e-005
5.407503e-004,-4.997789e-005
4.734932e-004,-2.404744e-005
3.918123e-004,-5.085794e-006
2.885766e-004,5.286387e-006
1.670276e-004,5.124321e-006
4.077869e-005,-4.437533e-006
-7.120844e-005,-2.275091e-005
-1.556445e-004,-4.446767e-005
-2.141500e-004,-6.423963e-005
-2.606628e-004,-7.801519e-005
-3.029619e-004,-8.206682e-005
-3.348887e-004,-7.607040e-005
-3.397507e-004,-6.099833e-005
-3.045825e-004,-4.171256e-005
-2.345703e-004,-2.356124e-005
-1.451102e-004,-7.516774e-006
-4.673658e-005,5.124321e-006
5.536457e-005,1.549650e-005
1.492004e-004,2.586868e-005
2.065715e-004,3.316162e-005
2.111094e-004,3.478228e-005
1.714034e-004,3.283749e-005
1.116012e-004,3.462021e-005
6.071273e-005,4.466826e-005
4.515445e-005,6.362991e-005
6.816773e-005,9.037068e-005
1.195424e-004,1.187321e-004
1.838824e-004,1.407730e-004
2.414156e-004,1.469315e-004
2.754493e-004,1.359110e-004
2.837146e-004,1.159770e-004
2.707494e-004,9.912221e-005
2.427121e-004,9.960841e-005
2.153231e-004,1.248906e-004
2.005751e-004,1.689724e-004
1.968476e-004,2.187264e-004
1.837203e-004,2.572980e-004
1.402868e-004,2.731804e-004
6.525056e-005,2.639427e-004
-1.788895e-005,2.368777e-004
-8.725291e-005,2.015475e-004
-1.405724e-004,1.697827e-004
-1.882196e-004,1.496866e-004
-2.350565e-004,1.398006e-004
-2.862691e-004,1.368834e-004
-3.580640e-004,1.342904e-004
-4.621100e-004,1.313732e-004
-5.784728e-004,1.297526e-004
-6.569124e-004,1.302388e-004
-6.528608e-004,1.342904e-004
-5.544871e-004,1.436902e-004
-3.843186e-004,1.551968e-004
-1.809267e-004,1.633001e-004
1.598270e-005,1.628139e-004
1.783722e-004,1.504969e-004
2.856594e-004,1.237561e-004
3.276344e-004,8.550872e-005
2.973281e-004,4.207521e-005
1.968476e-004,3.341602e-006
5.163707e-005,-2.145439e-005
-1.096179e-004,-3.020592e-005
-2.763831e-004,-2.664048e-005
-4.538446e-004,-1.335113e-005
-6.395715e-004,4.151929e-006
-8.014747e-004,1.549650e-005
-8.792660e-004,1.274139e-005
-8.369670e-004,-5.896120e-006
-7.019666e-004,-3.279896e-005
-5.290429e-004,-6.148453e-005
-3.436402e-004,-8.919769e-005
-1.475412e-004,-1.169109e-004
5.844381e-005,-1.485136e-004
2.608634e-004,-1.825473e-004
4.261701e-004,-2.182017e-004
5.166026e-004,-2.485079e-004
5.063924e-004,-2.682799e-004
4.002396e-004,-2.737901e-004
2.406053e-004,-2.632558e-004
8.907416e-005,-2.366771e-004
5.864920e-007,-1.927574e-004
-2.238346e-007,-1.360346e-004
7.529860e-005,-7.704279e-005
1.796687e-004,-2.842320e-005
2.611876e-004,-3.141010e-006
2.879283e-004,-6.868513e-006
2.498430e-004,-3.085418e-005
1.449867e-004,-6.116039e-005
-1.043395e-005,-8.222889e-005
-1.840059e-004,-8.563225e-005
-3.300267e-004,-7.266703e-005
-4.027940e-004,-5.451572e-005
-3.812394e-004,-3.944364e-005
-2.710350e-004,-3.279896e-005
-1.036215e-004,-3.490581e-005
8.372601e-005,-3.992984e-005
2.626462e-004,-4.365734e-005
4.096394e-004,-4.203669e-005
5.112545e-004,-3.263690e-005
5.655463e-004,-1.545797e-005
5.781874e-004,5.286387e-006
5.579292e-004,2.197911e-005
5.112545e-004,3.397195e-005
4.441593e-004,4.402000e-005
3.668542e-004,5.763349e-005
2.903593e-004,7.805372e-005
2.195368e-004,1.056048e-004
1.634622e-004,1.342904e-004
1.292664e-004,1.569795e-004
1.069013e-004,1.696206e-004
8.534666e-005,1.744826e-004
6.233338e-005,1.783722e-004
4.693717e-005,1.863134e-004
5.131294e-005,2.030061e-004
8.729144e-005,2.289366e-004
1.602208e-004,2.621599e-004
2.569738e-004,2.961937e-004
3.480546e-004,3.243930e-004
4.119083e-004,3.402755e-004
4.486972e-004,3.396272e-004
4.717105e-004,3.258516e-004
4.893756e-004,3.068900e-004
5.107683e-004,2.913317e-004
5.397780e-004,2.833905e-004
5.798081e-004,2.798251e-004
6.289139e-004,2.735045e-004
6.755888e-004,2.613496e-004
6.990883e-004,2.443328e-004
6.725095e-004,2.278021e-004
5.679773e-004,2.128921e-004
3.822504e-004,1.983062e-004
1.615174e-004,1.808031e-004
-1.124428e-005,1.576278e-004
-7.623246e-005,1.305629e-004
-3.749886e-005,1.041462e-004
4.402000e-005,8.405014e-005
1.017153e-004,7.481241e-005
9.555677e-005,7.465034e-005
1.355172e-005,7.821578e-005
-1.336036e-004,7.756752e-005
-3.180339e-004,6.444023e-005
-5.039228e-004,3.834771e-005
-6.502678e-004,5.610517e-006
-7.107180e-004,-2.728874e-005
-6.522125e-004,-5.305713e-005
-4.813957e-004,-6.812920e-005
-2.509389e-004,-7.380149e-005
-4.138842e-005,-7.477388e-005
7.918817e-005,-7.250496e-005
8.599492e-005,-6.861539e-005
2.116879e-005,-6.699475e-005
-3.717473e-005,-7.023606e-005
-3.085418e-005,-8.222889e-005
4.564065e-005,-1.047560e-004
1.555210e-004,-1.326312e-004
2.561635e-004,-1.580754e-004
3.205035e-004,-1.775233e-004
3.491891e-004,-1.914609e-004
3.722023e-004,-1.994021e-004
4.112601e-004,-2.057227e-004
4.477248e-004,-2.115570e-004
4.472386e-004,-2.220912e-004
3.937570e-004,-2.365151e-004
3.004074e-004,-2.483458e-004
1.936063e-004,-2.509389e-004
9.442231e-005,-2.455907e-004
1.387585e-005,-2.352185e-004
-4.706071e-005,-2.216050e-004
-9.875954e-005,-2.086398e-004
-1.618029e-004,-2.013469e-004
-2.582318e-004,-2.019951e-004
-4.024699e-004,-2.138259e-004
-5.791211e-004,-2.284118e-004
-7.450759e-004,-2.301945e-004
-8.452323e-004,-2.078295e-004
-8.411807e-004,-1.554824e-004
-7.364865e-004,-8.206682e-005
-5.775004e-004,-2.330684e-006
-4.241867e-004,6.832980e-005
-3.183580e-004,1.224596e-004
-2.635799e-004,1.610312e-004
-2.368392e-004,1.898788e-004
-2.141500e-004,2.122438e-004
-1.870851e-004,2.303951e-004
-1.592099e-004,2.493568e-004
-1.250141e-004,2.717218e-004
-8.239095e-005,2.994350e-004
-4.074016e-005,3.240689e-004
-1.335113e-005,3.380065e-004
-1.594417e-005,3.371962e-004
-6.310517e-005,3.258516e-004
-1.501342e-004,3.117519e-004
-2.548284e-004,3.046211e-004
-3.378059e-004,3.052694e-004
-3.692465e-004,3.070520e-004
-3.394265e-004,3.044590e-004
-2.605007e-004,3.017039e-004
-1.707166e-004,3.018659e-004
-1.225832e-004,3.018659e-004
-1.501342e-004,2.955454e-004
-2.418632e-004,2.738286e-004
-3.454229e-004,2.320158e-004
-4.026320e-004,1.761032e-004
-3.862634e-004,1.198666e-004
-3.256510e-004,7.691926e-005
-2.793003e-004,5.163707e-005
-2.729798e-004,4.337174e-005
-2.760590e-004,4.790957e-005
-2.267911e-004,6.281957e-005
-8.838737e-005,7.999851e-005
1.214872e-004,9.199134e-005
3.425444e-004,9.037068e-005
5.284334e-004,7.384002e-005
6.619753e-004,4.953022e-005
7.528940e-004,2.700314e-005
8.264717e-004,1.841368e-005
9.016701e-004,2.651694e-005
9.789753e-004,4.726130e-005
1.037967e-003,7.659513e-005
1.051581e-003,1.056048e-004
9.984232e-004,1.240803e-004
8.843291e-004,1.252147e-004
7.397667e-004,1.043083e-004
5.864528e-004,6.881599e-005
4.039671e-004,2.748934e-005
1.633001e-004,-5.734056e-006
-1.010285e-004,-2.728874e-005
-2.940482e-004,-3.944364e-005
-3.374817e-004,-4.722278e-005
-2.433218e-004,-5.694670e-005
-9.162867e-005,-7.736692e-005
3.526847e-005,-1.105903e-004
8.858796e-005,-1.524032e-004
5.893001e-005,-1.927574e-004
-2.080613e-005,-2.246843e-004
-1.045939e-004,-2.464010e-004
-1.595340e-004,-2.525595e-004
-1.716889e-004,-2.420253e-004
-1.386276e-004,-2.224154e-004
-7.315322e-005,-2.044261e-004
2.531276e-006,-1.865989e-004
5.406805e-005,-1.626133e-004
5.374392e-005,-1.314967e-004
-5.247859e-006,-9.632857e-005
-9.973194e-005,-6.002594e-005
-1.841680e-004,-2.728874e-005
-2.222533e-004,-5.479652e-007
-2.003745e-004,1.598270e-005
-1.282554e-004,1.922400e-005
-3.360929e-005,5.448452e-006
4.547859e-005,-2.534396e-005
8.242948e-005,-6.731888e-005
7.238143e-005,-1.104282e-004
3.170304e-005,-1.452723e-004
-1.335113e-005,-1.642339e-004
-4.300908e-005,-1.665028e-004
-5.046408e-005,-1.564548e-004
-3.685060e-005,-1.421931e-004
-6.868513e-006,-1.258245e-004
3.850978e-005,-1.042698e-004
9.458438e-005,-7.137051e-005
1.551968e-004,-2.712668e-005
2.119197e-004,2.829966e-005
2.551911e-004,9.393612e-005
2.879283e-004,1.611932e-004
3.174242e-004,2.184023e-004
3.488649e-004,2.572980e-004
3.767402e-004,2.752873e-004
3.895433e-004,2.770700e-004
3.773884e-004,2.705873e-004
3.409237e-004,2.644289e-004
2.960316e-004,2.608634e-004
2.555152e-004,2.563256e-004
2.325020e-004,2.487085e-004
2.325020e-004,2.394708e-004
2.453052e-004,2.355812e-004
2.375260e-004,2.376881e-004
1.761032e-004,2.376881e-004
4.466826e-005,2.255332e-004
-1.511067e-004,2.025199e-004
-3.754050e-004,1.756171e-004
-5.650214e-004,1.569795e-004
-6.585331e-004,1.542244e-004
-6.355198e-004,1.629760e-004
-5.175362e-004,1.746447e-004
-3.569296e-004,1.814514e-004
-2.102605e-004,1.808031e-004
-1.073490e-004,1.722137e-004
-3.506788e-005,1.634622e-004
3.624086e-005,1.626518e-004
1.346145e-004,1.749688e-004
2.639427e-004,2.025199e-004
4.068843e-004,2.410915e-004
5.329712e-004,2.798251e-004
6.141660e-004,3.041349e-004
6.328035e-004,2.994350e-004
5.851563e-004,2.636185e-004
4.780310e-004,2.021958e-004
3.156415e-004,1.287802e-004
1.073875e-004,6.200925e-005
-1.058904e-004,1.144487e-005
-2.512630e-004,-2.323711e-005
-2.736280e-004,-4.657452e-005
-1.692580e-004,-6.586029e-005
1.403791e-005,-8.255302e-005
2.070577e-004,-9.762509e-005
3.436788e-004,-1.143178e-004
3.744712e-004,-1.297140e-004
2.754493e-004,-1.381414e-004
6.233338e-005,-1.350622e-004
-2.052365e-004,-1.193418e-004
-4.517378e-004,-9.324933e-005
-6.160720e-004,-6.294311e-005
-6.721465e-004,-4.203669e-005
-6.364922e-004,-4.641245e-005
-5.527044e-004,-7.947377e-005
-4.706994e-004,-1.250141e-004
-4.228902e-004,-1.642339e-004
-4.126800e-004,-1.841680e-004
-4.168937e-004,-1.849783e-004
-4.047388e-004,-1.754164e-004
-3.736223e-004,-1.622891e-004
-3.340784e-004,-1.541859e-004
-3.000446e-004,-1.554824e-004
-2.707109e-004,-1.665028e-004
-2.339220e-004,-1.864369e-004
-1.770371e-004,-2.117191e-004
-1.045939e-004,-2.292221e-004
-3.296103e-005,-2.301945e-004
3.299956e-005,-2.122053e-004
9.474644e-005,-1.686097e-004
1.620036e-004,-9.535618e-005
2.477361e-004,-5.896120e-006
3.556717e-004,7.789165e-005
4.666864e-004,1.359110e-004
5.496639e-004,1.605450e-004
5.700842e-004,1.556830e-004
5.130371e-004,1.334801e-004
3.900295e-004,1.072255e-004
2.294227e-004,8.956036e-005
7.027458e-005,8.291568e-005
-5.030202e-005,8.242948e-005
-1.032974e-004,8.032264e-005
-8.271508e-005,6.816773e-005
-1.318906e-005,4.726130e-005
6.735741e-005,2.052053e-005
1.185701e-004,-9.137427e-006
1.154908e-004,-3.749886e-005
5.860588e-005,-5.532604e-005
-2.307504e-005,-5.775702e-005
-8.093236e-005,-4.544006e-005
-7.850138e-005,-2.356124e-005
-9.299493e-006,2.531276e-006
1.023635e-004,3.170304e-005
2.187264e-004,6.751948e-005
3.010556e-004,1.085220e-004
3.200173e-004,1.526038e-004
2.796630e-004,1.957132e-004
2.111094e-004,2.308813e-004
1.372076e-004,2.509774e-004
5.876794e-005,2.513016e-004
-2.566809e-005,2.357433e-004
-9.892161e-005,2.120818e-004
-1.311726e-004,1.906891e-004
-1.028112e-004,1.785342e-004
-2.048200e-005,1.754550e-004
9.085688e-005,1.811273e-004
1.974959e-004,1.927960e-004
2.657254e-004,2.070577e-004
2.795009e-004,2.190506e-004
2.433604e-004,2.195368e-004
1.803169e-004,2.064095e-004
1.244044e-004,1.843686e-004
9.977047e-005,1.579519e-004
1.078737e-004,1.344524e-004
1.362352e-004,1.219734e-004
1.699448e-004,1.245665e-004
2.015475e-004,1.380179e-004
2.269918e-004,1.503349e-004
2.449810e-004,1.498487e-004
2.529222e-004,1.344524e-004
2.506533e-004,1.080358e-004
2.433604e-004,7.724339e-005
2.362295e-004,5.244739e-005
2.313675e-004,3.721326e-005
2.308813e-004,2.441009e-005
2.355812e-004,7.231170e-006
2.440086e-004,-1.173047e-005
2.493568e-004,-2.583016e-005
2.446569e-004,-3.393342e-005
2.255332e-004,-3.879538e-005
1.898788e-004,-4.284701e-005
1.425557e-004,-4.706071e-005
8.712937e-005,-4.689865e-005
2.441009e-005,-4.300908e-005
-4.138842e-005,-3.701266e-005
-9.859748e-005,-3.166451e-005
-1.384655e-004,-3.360929e-005
-1.621271e-004,-4.754691e-005
-1.809267e-004,-7.526008e-005
-2.183637e-004,-1.123730e-004
-2.959930e-004,-1.506204e-004
-4.185144e-004,-1.796301e-004
-5.518941e-004,-1.961608e-004
-6.338991e-004,-2.039399e-004
-6.191512e-004,-2.073433e-004
-4.980884e-004,-2.104225e-004
-3.044204e-004,-2.086398e-004
-9.713889e-005,-1.947022e-004
6.168512e-005,-1.671511e-004
1.247285e-004,-1.284175e-004
8.907416e-005,-8.773911e-005
3.827799e-006,-5.208474e-005
-6.099833e-005,-3.134038e-005
-5.710876e-005,-3.134038e-005
2.100672e-005,-4.576419e-005
1.443384e-004,-5.710876e-005
2.684805e-004,-5.111234e-005
3.595612e-004,-2.566809e-005
3.908399e-004,8.527692e-006
3.485408e-004,3.624086e-005
2.474120e-004,4.790957e-005
1.307250e-004,4.158902e-005
4.142696e-005,2.295151e-005
-5.247859e-006,6.096713e-006
-3.117831e-005,3.503668e-006
-7.039812e-005,1.954813e-005
-1.316588e-004,4.661304e-005
-1.935677e-004,7.254349e-005
-2.272773e-004,8.745350e-005
-2.058847e-004,8.939829e-005
-1.115627e-004,8.291568e-005
5.568870e-005,7.173317e-005
2.545429e-004,6.395404e-005
4.057499e-004,6.638502e-005
4.386491e-004,8.178122e-005
3.326584e-004,1.096565e-004
1.273216e-004,1.449867e-004
-1.075111e-004,1.845306e-004
-3.113892e-004,2.224539e-004
-4.452552e-004,2.535705e-004
-4.875542e-004,2.759355e-004
-4.378002e-004,2.880904e-004
-3.211132e-004,2.903593e-004
-1.828714e-004,2.861456e-004
-5.791909e-005,2.822560e-004
3.834771e-005,2.812837e-004
1.034980e-004,2.795009e-004
1.402868e-004,2.754493e-004
1.498487e-004,2.710735e-004
1.388282e-004,2.650771e-004
1.117633e-004,2.564877e-004
7.562274e-005,2.457913e-004
4.013043e-005,2.313675e-004
1.501031e-005,2.119197e-004
4.151929e-006,1.919856e-004
3.503668e-006,1.728619e-004
9.500085e-006,1.581140e-004
2.538249e-005,1.461212e-004
4.661304e-005,1.357490e-004
6.200925e-005,1.295905e-004
5.747142e-005,1.245665e-004
3.073064e-005,1.153287e-004
-1.140634e-005,1.009049e-004
-4.787104e-005,7.999851e-005
-4.673658e-005,5.714729e-005
6.420843e-006,3.964424e-005
1.015532e-004,3.137890e-005
2.235884e-004,3.040651e-005
3.551855e-004,3.024445e-005
4.730070e-004,2.133085e-005
5.558224e-004,-4.437533e-006
5.838597e-004,-3.863332e-005
5.519328e-004,-6.877746e-005
4.731691e-004,-8.838737e-005
3.616681e-004,-9.811128e-005
2.261814e-004,-1.042698e-004
7.951231e-005,-1.125351e-004
-6.877746e-005,-1.255003e-004
-2.182017e-004,-1.457585e-004
-3.786463e-004,-1.744440e-004
-5.621043e-004,-2.091260e-004
-7.635514e-004,-2.441321e-004
-9.387439e-004,-2.746004e-004
-1.017021e-003,-2.953447e-004
-9.445783e-004,-2.987481e-004
-7.186593e-004,-2.848105e-004
-3.992286e-004,-2.566112e-004
-7.833932e-005,-2.211189e-004
1.668655e-004,-1.851404e-004
3.081865e-004,-1.558065e-004
3.639370e-004,-1.344139e-004
3.781987e-004,-1.156143e-004
3.843572e-004,-9.389759e-005
3.832228e-004,-6.812920e-005
3.545372e-004,-4.284701e-005
2.838767e-004,-2.680255e-005
1.746447e-004,-2.096820e-005
5.277153e-005,-2.599222e-005
-4.722278e-005,-3.620233e-005
-9.875954e-005,-4.511593e-005
-8.871149e-005,-4.722278e-005
-2.842320e-005,-4.057810e-005
6.200925e-005,-2.680255e-005
1.592484e-004,-5.896120e-006
2.378501e-004,2.295151e-005
2.871180e-004,5.536457e-005
3.256896e-004,8.437427e-005
3.759298e-004,1.075496e-004
4.360561e-004,1.235941e-004
4.812723e-004,1.367214e-004
4.948858e-004,1.519555e-004
4.827309e-004,1.717275e-004
4.576108e-004,1.910133e-004
4.287631e-004,2.046267e-004
4.042913e-004,2.133783e-004
3.824125e-004,2.222919e-004
3.615060e-004,2.344468e-004
3.367100e-004,2.500050e-004
3.052694e-004,2.610255e-004
2.701012e-004,2.670219e-004
2.372019e-004,2.712356e-004
2.078681e-004,2.757735e-004
1.869616e-004,2.806354e-004
1.825859e-004,2.843629e-004
1.963614e-004,2.846870e-004
2.193747e-004,2.859836e-004
2.337985e-004,2.892249e-004
2.200230e-004,2.914938e-004
1.759412e-004,2.858215e-004
1.127357e-004,2.701012e-004
4.223728e-005,2.444948e-004
-2.955766e-005,2.128921e-004
-1.008664e-004,1.798307e-004
-1.632615e-004,1.466074e-004
-2.099363e-004,1.140322e-004
-2.269532e-004,8.421220e-005
-2.075054e-004,5.876794e-005
-1.606685e-004,4.077869e-005
-1.023250e-004,3.267542e-005
-4.770897e-005,3.332369e-005
-3.303076e-006,3.413401e-005
2.392390e-005,2.829966e-005
2.748934e-005,1.889987e-005
6.096713e-006,7.393236e-006
-3.117831e-005,-8.489166e-006
-6.164659e-005,-3.215070e-005
-6.213279e-005,-6.245691e-005
-2.113026e-005,-9.422172e-005
5.487838e-005,-1.232314e-004
1.367214e-004,-1.477033e-004
1.971717e-004,-1.669890e-004
2.169437e-004,-1.804405e-004
1.856651e-004,-1.849783e-004
1.056048e-004,-1.789819e-004
2.623614e-007,-1.673132e-004
-9.568031e-005,-1.549962e-004
-1.558065e-004,-1.425172e-004
-1.710407e-004,-1.300382e-004
-1.470550e-004,-1.188556e-004
-1.015147e-004,-1.112386e-004
-6.569822e-005,-1.101041e-004
-7.137051e-005,-1.196660e-004
-1.250141e-004,-1.379794e-004
-2.133397e-004,-1.541859e-004
-3.125237e-004,-1.645581e-004
-4.019837e-004,-1.713648e-004
-4.616237e-004,-1.771992e-004
-4.757234e-004,-1.796301e-004
-4.387725e-004,-1.747682e-004
-3.613053e-004,-1.590478e-004
-2.598524e-004,-1.349001e-004
-1.494860e-004,-1.094559e-004
-4.414354e-005,-8.903562e-005
3.559260e-005,-7.671866e-005
6.330578e-005,-7.120844e-005
2.133085e-005,-7.169464e-005
-8.757704e-005,-7.866345e-005
-2.344082e-004,-8.433573e-005
-3.669776e-004,-7.396356e-005
-4.342347e-004,-3.247483e-005
-4.084663e-004,4.029250e-005
-2.899966e-004,1.274836e-004
-1.105903e-004,2.070577e-004
7.821578e-005,2.655633e-004
2.206712e-004,2.966799e-004
2.752873e-004,2.999212e-004
2.295848e-004,2.853353e-004
1.009049e-004,2.647530e-004
-7.218083e-005,2.457913e-004
-2.511010e-004,2.346088e-004
-3.895047e-004,2.297469e-004
-4.389346e-004,2.281262e-004
-3.736223e-004,2.279642e-004
-1.995642e-004,2.323399e-004
4.450620e-005,2.404432e-004
2.913317e-004,2.511395e-004
4.568005e-004,2.605393e-004
4.849998e-004,2.670219e-004
3.963501e-004,2.662116e-004
2.757735e-004,2.537325e-004
2.033302e-004,2.308813e-004
2.064095e-004,2.041406e-004
2.592428e-004,1.796687e-004
3.196932e-004,1.569795e-004
3.608578e-004,1.320215e-004
3.743092e-004,1.005808e-004
3.697714e-004,6.606088e-005
3.553475e-004,3.850978e-005
3.358997e-004,2.716521e-005
3.067279e-004,3.591673e-005
2.435224e-004,5.552663e-005
1.239182e-004,7.789165e-005
-3.441962e-005,1.000946e-004
-1.746061e-004,1.198666e-004
-2.617972e-004,1.338042e-004
-3.248407e-004,1.389903e-004
-4.143007e-004,1.339663e-004
-5.478425e-004,1.222976e-004
-6.949978e-004,1.047945e-004
-7.974231e-004,8.129502e-005
-8.034194e-004,5.244739e-005
-7.019666e-004,2.197911e-005
-5.366600e-004,-5.409925e-006
-3.637363e-004,-2.566809e-005
-2.070192e-004,-3.604027e-005
-5.192267e-005,-3.555408e-005
1.284560e-004,-3.296103e-005
3.487029e-004,-3.425755e-005
5.974732e-004,-4.252288e-005
8.361956e-004,-5.856735e-005
1.025164e-003,-8.044617e-005
1.139744e-003,-1.084835e-004
1.178964e-003,-1.363587e-004
1.152223e-003,-1.582375e-004
1.068598e-003,-1.715269e-004
9.433209e-004,-1.744440e-004
8.007033e-004,-1.655305e-004
6.712130e-004,-1.491618e-004
5.789978e-004,-1.311726e-004
5.298919e-004,-1.165867e-004
5.104441e-004,-1.097800e-004
4.858102e-004,-1.146419e-004
4.060740e-004,-1.267968e-004
2.402811e-004,-1.397621e-004
8.851824e-006,-1.468929e-004
-2.185258e-004,-1.464067e-004
-3.661673e-004,-1.379794e-004
-4.115456e-004,-1.227452e-004
-3.917736e-004,-1.073490e-004
-3.783222e-004,-9.843541e-005
-4.371519e-004,-1.008664e-004
-5.924104e-004,-1.094559e-004
-8.116848e-004,-1.156143e-004
-1.013942e-003,-1.123730e-004
-1.122364e-003,-9.730096e-005
-1.102106e-003,-7.331530e-005
-9.690502e-004,-4.479180e-005
-7.734374e-004,-1.480971e-005
-5.638869e-004,1.679302e-005
-3.681121e-004,5.147500e-005
-2.037779e-004,8.437427e-005
-8.579432e-005,1.081979e-004
-2.777494e-005,1.195424e-004
-4.527799e-005,1.185701e-004
-1.383035e-004,1.059290e-004
-2.754107e-004,8.923623e-005
-4.016596e-004,7.465034e-005
-4.658375e-004,6.784360e-005
-4.475241e-004,7.157111e-005
-3.638984e-004,8.421220e-005
-2.449425e-004,1.028497e-004
-1.114006e-004,1.245665e-004
2.295151e-005,1.449867e-004
1.422316e-004,1.633001e-004
2.414156e-004,1.795066e-004
3.247172e-004,1.963614e-004
3.910019e-004,2.169437e-004
4.401077e-004,2.393087e-004
4.723587e-004,2.560015e-004
4.927790e-004,2.600531e-004
5.050959e-004,2.487085e-004
5.151440e-004,2.320158e-004
5.247059e-004,2.248849e-004
5.307022e-004,2.380122e-004
5.324850e-004,2.718839e-004
5.311884e-004,3.106175e-004
5.339436e-004,3.346032e-004
5.533914e-004,3.336308e-004
5.871011e-004,3.068900e-004
6.167590e-004,2.637806e-004
6.195141e-004,2.188885e-004
5.859666e-004,1.808031e-004
5.190336e-004,1.513072e-004
4.360561e-004,1.263492e-004
3.576164e-004,1.007429e-004
2.955454e-004,6.865393e-005
2.569738e-004,3.056858e-005
2.453052e-004,-5.247859e-006
2.482223e-004,-3.117831e-005
2.417397e-004,-4.025397e-005
2.080301e-004,-3.344723e-005
1.524417e-004,-1.270286e-005
1.047945e-004,1.727922e-005
9.782569e-005,4.969229e-005
1.456350e-004,7.902610e-005
2.360674e-004,9.458438e-005
3.427064e-004,8.923623e-005
4.399457e-004,6.395404e-005
5.057442e-004,2.684107e-005
5.258403e-004,-1.237873e-005
4.913204e-004,-4.608832e-005
4.133669e-004,-7.153257e-005
3.148312e-004,-8.660465e-005
2.081922e-004,-9.033215e-005
9.717743e-005,-8.368748e-005
-1.221667e-005,-7.590833e-005
-1.096179e-004,-7.266703e-005
-1.822232e-004,-7.655660e-005
-2.237119e-004,-8.871149e-005
-2.397564e-004,-1.101041e-004
-2.335979e-004,-1.383035e-004
-2.011848e-004,-1.645581e-004
-1.289037e-004,-1.810887e-004
-9.137427e-006,-1.869231e-004
1.513072e-004,-1.831956e-004
3.135347e-004,-1.721751e-004
4.221185e-004,-1.574272e-004
4.333010e-004,-1.421931e-004
3.258516e-004,-1.303623e-004
1.013911e-004,-1.264727e-004
-2.016710e-004,-1.259865e-004
-5.324463e-004,-1.199901e-004
-8.419910e-004,-1.021629e-004
-1.072124e-003,-7.720486e-005
-1.158829e-003,-5.078821e-005
-1.076337e-003,-3.020592e-005
-8.603043e-004,-1.950961e-005
-5.847933e-004,-2.064406e-005
-3.394265e-004,-2.939559e-005
-1.979435e-004,-4.300908e-005
-1.786577e-004,-5.483985e-005
-2.400805e-004,-6.067420e-005
-3.081479e-004,-5.694670e-005
-3.115513e-004,-3.976777e-005
-2.227395e-004,-4.275467e-006
-7.347736e-005,4.920609e-005
7.157111e-005,1.130598e-004
1.530900e-004,1.751309e-004
1.526038e-004,2.240746e-004
8.340187e-005,2.561635e-004
-2.356124e-005,2.746390e-004
-1.342519e-004,2.820940e-004
-2.216050e-004,2.814457e-004
-2.723315e-004,2.783665e-004
-2.773555e-004,2.712356e-004
-2.483458e-004,2.563256e-004
-2.045882e-004,2.303951e-004
-1.564548e-004,1.965235e-004
-1.050801e-004,1.633001e-004
-6.326724e-005,1.399627e-004
-4.965376e-005,1.321835e-004
-6.731888e-005,1.406109e-004
-1.052422e-004,1.602208e-004
-1.489998e-004,1.827479e-004
-1.874093e-004,1.991165e-004
-2.151224e-004,2.081922e-004
-2.269532e-004,2.151610e-004
-2.133397e-004,2.261814e-004
-1.679614e-004,2.441707e-004
-8.935975e-005,2.666978e-004
1.112074e-005,2.893870e-004
1.127357e-004,3.054314e-004
1.986303e-004,3.062417e-004
2.572980e-004,2.913317e-004
2.795009e-004,2.637806e-004
2.678322e-004,2.269918e-004
2.350950e-004,1.833962e-004
1.955511e-004,1.370455e-004
1.645966e-004,8.956036e-005
1.551968e-004,4.256141e-005
1.691344e-004,9.106227e-007
1.989545e-004,-3.182657e-005
2.321778e-004,-5.095028e-005
2.582704e-004,-5.921561e-005
2.641047e-004,-6.278104e-005
2.474120e-004,-6.974985e-005
2.205092e-004,-8.417367e-005
2.044647e-004,-1.091317e-004
2.214815e-004,-1.365208e-004
2.746390e-004,-1.559686e-004
3.404375e-004,-1.671511e-004
3.874365e-004,-1.736337e-004
4.023465e-004,-1.835197e-004
3.965121e-004,-1.974573e-004
3.853296e-004,-2.128535e-004
3.673404e-004,-2.258187e-004
3.208276e-004,-2.311669e-004
2.201850e-004,-2.261429e-004
7.562274e-005,-2.096122e-004
-5.613637e-005,-1.875713e-004
-1.079973e-004,-1.677994e-004
-5.808115e-005,-1.533756e-004
5.909208e-005,-1.430034e-004
1.874478e-004,-1.396000e-004
2.882525e-004,-1.449482e-004
3.433547e-004,-1.556445e-004
3.404375e-004,-1.627754e-004
2.660495e-004,-1.605064e-004
1.263492e-004,-1.532135e-004
-3.069211e-005,-1.455964e-004
-1.374932e-004,-1.363587e-004
-1.575893e-004,-1.284175e-004
-1.042698e-004,-1.212866e-004
-1.788895e-005,-1.089697e-004
6.168512e-005,-8.401160e-005
1.185701e-004,-4.300908e-005
1.527658e-004,7.231170e-006
1.840444e-004,5.568870e-005
2.240746e-004,9.166720e-005
2.584324e-004,1.125736e-004
2.746390e-004,1.208390e-004
2.786906e-004,1.213252e-004
2.807975e-004,1.203528e-004
2.812837e-004,1.213252e-004
2.827423e-004,1.273216e-004
2.856594e-004,1.417454e-004
2.798251e-004,1.668655e-004
2.448189e-004,1.999268e-004
1.597346e-004,2.303951e-004
2.635488e-005,2.495189e-004
-1.250141e-004,2.530843e-004
-2.546664e-004,2.443328e-004
-3.360231e-004,2.276400e-004
-3.661673e-004,2.096508e-004
-3.692465e-004,1.932822e-004
-3.797808e-004,1.778860e-004
-4.240246e-004,1.613553e-004
-5.120260e-004,1.396385e-004
-6.345474e-004,1.101427e-004
-7.572309e-004,8.129502e-005
-8.160605e-004,6.265751e-005
-7.492896e-004,6.298164e-005
-5.447632e-004,8.307774e-005
-2.434839e-004,1.180839e-004
8.988449e-005,1.592484e-004
4.005638e-004,1.957132e-004
6.553305e-004,2.140265e-004
8.370060e-004,2.094887e-004
9.290591e-004,1.876099e-004
9.164180e-004,1.563313e-004
8.028102e-004,1.218114e-004
6.172452e-004,9.182927e-005
4.012120e-004,7.076078e-005
1.984683e-004,5.698522e-005
3.656499e-005,4.742337e-005
-7.542214e-005,4.483033e-005
-1.447861e-004,5.212327e-005
-1.844921e-004,7.140904e-005
-2.028055e-004,9.555677e-005
-1.977815e-004,1.159770e-004
-1.702304e-004,1.286181e-004
-1.248521e-004,1.359110e-004
-7.331530e-005,1.423936e-004
-4.722278e-005,1.454729e-004
-7.931171e-005,1.355869e-004
-1.812508e-004,1.101427e-004
-3.326198e-004,7.481241e-005
-4.911196e-004,3.575467e-005
-6.142893e-004,-2.168618e-006
-6.784671e-004,-3.360929e-005
-6.693914e-004,-5.354332e-005
-5.940311e-004,-6.310517e-005
-4.736166e-004,-7.039812e-005
-3.384541e-004,-8.271508e-005
-2.167431e-004,-1.020008e-004
-1.310105e-004,-1.245279e-004
-9.341139e-005,-1.446240e-004
-9.713889e-005,-1.582375e-004
-1.263107e-004,-1.613168e-004
-1.551583e-004,-1.577513e-004
-1.574272e-004,-1.545100e-004
-1.180453e-004,-1.535376e-004
-3.571614e-005,-1.530514e-004
8.194328e-005,-1.491618e-004
2.172679e-004,-1.361966e-004
3.545372e-004,-1.107524e-004
4.835413e-004,-7.574627e-005
5.835356e-004,-3.782299e-005
6.287518e-004,-5.247859e-006
6.083316e-004,1.079661e-005
5.352402e-004,1.160693e-005
4.290873e-004,2.531276e-006
3.000832e-004,-1.189254e-005
1.479039e-004,-2.842320e-005
-3.377136e-005,-4.576419e-005
-2.344082e-004,-5.970181e-005
-4.146248e-004,-6.618442e-005
-5.225603e-004,-6.083626e-005
-5.206155e-004,-4.074016e-005
-4.094387e-004,-6.220252e-006
-2.279256e-004,4.013043e-005
-3.393342e-005,8.583286e-005
1.253768e-004,1.190562e-004
2.253711e-004,1.325077e-004
2.681563e-004,1.297526e-004
2.744769e-004,1.200286e-004
2.639427e-004,1.130598e-004
2.480603e-004,1.135460e-004
2.394708e-004,1.216493e-004
2.478982e-004,1.362352e-004
2.820940e-004,1.582761e-004
3.409237e-004,1.866375e-004
4.055878e-004,2.119197e-004
4.530729e-004,2.237505e-004
4.785172e-004,2.151610e-004
4.908342e-004,1.889064e-004
5.021787e-004,1.597346e-004
5.018546e-004,1.417454e-004
4.749518e-004,1.402868e-004
4.148255e-004,1.563313e-004
3.252034e-004,1.843686e-004
2.166196e-004,2.185644e-004
1.046324e-004,2.516257e-004
-8.489166e-006,2.759355e-004
-1.220970e-004,2.835526e-004
-2.128535e-004,2.712356e-004
-2.486699e-004,2.440086e-004
-2.144742e-004,2.130541e-004
-1.251762e-004,1.808031e-004
-1.318906e-005,1.495245e-004
8.810177e-005,1.214872e-004
1.621656e-004,9.409818e-005
2.043026e-004,6.557468e-005
2.248849e-004,3.818565e-005
2.397949e-004,1.533444e-005
2.584324e-004,1.396819e-006
2.837146e-004,-4.113403e-006
3.096451e-004,-6.868513e-006
3.156415e-004,-8.002969e-006
2.691288e-004,-8.813297e-006
1.555210e-004,-5.896120e-006
-1.318906e-005,4.962256e-006
-1.984297e-004,3.008238e-005
-3.569296e-004,7.027458e-005
-4.588687e-004,1.172735e-004
-4.925782e-004,1.508211e-004
-4.629203e-004,1.526038e-004
-3.839945e-004,1.167873e-004
-2.746004e-004,4.920609e-005
-1.524032e-004,-2.923353e-005
-3.604027e-005,-9.778715e-005
5.714729e-005,-1.459206e-004
1.117633e-004,-1.729855e-004
1.260251e-004,-1.831956e-004
1.206769e-004,-1.851404e-004
1.150046e-004,-1.825473e-004
1.177597e-004,-1.765509e-004
1.231079e-004,-1.686097e-004
1.252147e-004,-1.614788e-004
1.302388e-004,-1.532135e-004
1.436902e-004,-1.426792e-004
1.569795e-004,-1.329553e-004
1.492004e-004,-1.267968e-004
1.034980e-004,-1.235555e-004
2.133085e-005,-1.233935e-004
-8.336335e-005,-1.303623e-004
-1.929195e-004,-1.431655e-004
-2.836761e-004,-1.540238e-004
-3.280820e-004,-1.616409e-004
-3.118754e-004,-1.692580e-004
-2.418632e-004,-1.763888e-004
-1.396000e-004,-1.789819e-004
-3.636440e-005,-1.752544e-004
4.223728e-005,-1.635857e-004
8.145709e-005,-1.451102e-004
8.534666e-005,-1.212866e-004
6.865393e-005,-9.292520e-005
4.304761e-005,-6.294311e-005
2.084466e-005,-3.830919e-005
1.825161e-005,-1.934754e-005
4.839576e-005,-3.465141e-006
1.175977e-004,1.306552e-005
2.200230e-004,3.283749e-005
3.266619e-004,5.666109e-005
3.854917e-004,8.631905e-005
3.495132e-004,1.200286e-004
2.115956e-004,1.522796e-004
1.241726e-005,1.764274e-004
-1.922712e-004,1.903650e-004
-3.630881e-004,1.952270e-004
-4.685925e-004,1.950649e-004
-4.776682e-004,1.994406e-004
-3.801049e-004,2.128921e-004
-1.974573e-004,2.316917e-004
2.392390e-005,2.506533e-004
2.265056e-004,2.701012e-004
3.590750e-004,2.863077e-004
3.922984e-004,2.961937e-004
3.425444e-004,3.017039e-004
2.647530e-004,3.051073e-004
2.093267e-004,3.054314e-004
1.924718e-004,2.958695e-004
1.979821e-004,2.743149e-004
1.976579e-004,2.478982e-004
1.642725e-004,2.250470e-004
8.388807e-005,2.093267e-004
-2.420950e-005,2.010613e-004
-1.078352e-004,1.979821e-004
-1.225832e-004,1.979821e-004
-6.877746e-005,1.963614e-004
6.096713e-006,1.874478e-004
3.559260e-005,1.723757e-004
-1.967167e-005,1.592484e-004
-1.527273e-004,1.582761e-004
-3.230579e-004,1.735102e-004
-4.718339e-004,1.960373e-004
-5.514079e-004,2.060853e-004
-5.402254e-004,1.856651e-004
-4.452552e-004,1.297526e-004
-2.942103e-004,5.260946e-005
-1.285796e-004,-2.226472e-005
1.679302e-005,-7.331530e-005
1.291043e-004,-9.033215e-005
2.203471e-004,-8.320128e-005
3.080245e-004,-7.120844e-005
3.965121e-004,-7.088431e-005
4.686312e-004,-8.838737e-005
5.174129e-004,-1.209625e-004
5.477191e-004,-1.541859e-004
5.739738e-004,-1.742820e-004
5.965008e-004,-1.788198e-004
6.003904e-004,-1.716889e-004
5.631154e-004,-1.611547e-004
4.777069e-004,-1.512687e-004
3.559958e-004,-1.417068e-004
2.195368e-004,-1.297140e-004
9.361199e-005,-1.182074e-004
1.720949e-006,-1.122110e-004
-4.738484e-005,-1.151281e-004
-5.921561e-005,-1.242038e-004
-3.895745e-005,-1.353863e-004
5.610517e-006,-1.447861e-004
4.547859e-005,-1.488377e-004
3.299956e-005,-1.478653e-004
-6.018800e-005,-1.473791e-004
-2.120432e-004,-1.465688e-004
-3.541745e-004,-1.415448e-004
-4.172179e-004,-1.284175e-004
-3.695707e-004,-1.110765e-004
-2.499665e-004,-9.875954e-005
-1.345760e-004,-9.341139e-005
-7.995997e-005,-8.871149e-005
-8.903562e-005,-7.898758e-005
-1.329553e-004,-6.229485e-005
-1.880575e-004,-4.300908e-005
-2.470493e-004,-2.469570e-005
-3.021515e-004,-9.785688e-006
-3.360231e-004,9.106227e-007
-3.288923e-004,7.393236e-006
-2.770314e-004,1.549650e-005
-1.987538e-004,2.797553e-005
-1.214487e-004,4.369587e-005
-6.715681e-005,5.666109e-005
-4.770897e-005,6.622294e-005
-6.488790e-005,7.302970e-005
-1.115627e-004,7.805372e-005
-1.634236e-004,8.178122e-005
-1.900023e-004,8.810177e-005
-1.767130e-004,9.993253e-005
-1.246900e-004,1.193804e-004
-3.668853e-005,1.482280e-004
8.518459e-005,1.851789e-004
2.350950e-004,2.242366e-004
3.973225e-004,2.582704e-004
5.441537e-004,2.827423e-004
6.467411e-004,2.984626e-004
6.940642e-004,3.059176e-004
6.922815e-004,3.070520e-004
6.490100e-004,3.055935e-004
5.697600e-004,3.062417e-004
4.572867e-004,3.046211e-004
3.154794e-004,2.963557e-004
1.641104e-004,2.830664e-004
3.494434e-005,2.673460e-004
-4.965376e-005,2.496809e-004
-9.130454e-005,2.316917e-004
-1.088076e-004,2.130541e-004
-1.138316e-004,1.983062e-004
-1.105903e-004,1.927960e-004
-9.681477e-005,1.981441e-004
-7.234290e-005,2.130541e-004
-4.041603e-005,2.321778e-004
-1.610624e-005,2.496809e-004
-8.975362e-006,2.594049e-004
-1.999580e-005,2.548670e-004
-5.694670e-005,2.316917e-004
-1.157764e-004,1.926339e-004
-1.724993e-004,1.435281e-004
-2.031296e-004,9.361199e-005
-2.005366e-004,4.985435e-005
-1.768750e-004,1.501031e-005
-1.525652e-004,-1.092015e-005
-1.417068e-004,-3.020592e-005
-1.396000e-004,-4.657452e-005
-1.314967e-004,-6.213279e-005
-9.859748e-005,-7.752899e-005
-3.069211e-005,-8.887356e-005
5.811968e-005,-9.989401e-005
1.380179e-004,-1.146419e-004
1.822617e-004,-1.345760e-004
1.884202e-004,-1.587237e-004
1.739964e-004,-1.840059e-004
1.542244e-004,-2.050744e-004
1.235941e-004,-2.190120e-004
6.346784e-005,-2.258187e-004
-3.312309e-005,-2.245222e-004
-1.405724e-004,-2.118811e-004
-2.204706e-004,-1.916230e-004
-2.493182e-004,-1.663408e-004
-2.300324e-004,-1.459206e-004
-1.797922e-004,-1.366828e-004
-1.112386e-004,-1.384655e-004
-3.279896e-005,-1.498101e-004
4.758544e-005,-1.671511e-004
1.135460e-004,-1.841680e-004
1.470936e-004,-1.927574e-004
1.427178e-004,-1.887058e-004
1.143563e-004,-1.731475e-004
9.037068e-005,-1.507825e-004
8.875003e-005,-1.287416e-004
1.093323e-004,-1.081593e-004
1.462832e-004,-8.984595e-005
1.942546e-004,-7.072225e-005
2.456293e-004,-5.338126e-005
2.812837e-004,-3.636440e-005
2.882525e-004,-1.999580e-005
2.595669e-004,-8.327101e-006
1.997648e-004,-1.358292e-006
1.299146e-004,4.476060e-006
8.502253e-005,1.112074e-005
8.502253e-005,1.889987e-005
1.244044e-004,3.235129e-005
1.692965e-004,5.358185e-005
1.780480e-004,8.178122e-005
1.328318e-004,1.127357e-004
5.423012e-005,1.415833e-004
-1.659243e-005,1.626518e-004
-5.386745e-005,1.710792e-004
-5.646050e-005,1.642725e-004
-3.652646e-005,1.433661e-004
-5.247859e-006,1.169494e-004
2.700314e-005,9.377406e-005
5.277153e-005,8.421220e-005
6.962632e-005,9.182927e-005
7.853991e-005,1.137081e-004
8.210535e-005,1.415833e-004
7.935024e-005,1.694586e-004
6.638502e-005,1.936063e-004
4.871989e-005,2.127300e-004
3.802358e-005,2.226160e-004
4.823370e-005,2.201850e-004
8.356394e-005,2.096508e-004
1.336421e-004,2.012234e-004
1.853410e-004,2.057612e-004
2.273159e-004,2.286124e-004
2.451431e-004,2.647530e-004
2.359054e-004,3.015418e-004
2.107852e-004,3.271482e-004
1.877720e-004,3.360618e-004
1.780480e-004,3.376824e-004
1.777239e-004,3.427064e-004
1.825859e-004,3.530786e-004
1.926339e-004,3.611819e-004
2.062474e-004,3.563199e-004
2.243987e-004,3.324963e-004
2.506533e-004,2.903593e-004
2.973281e-004,2.378501e-004
3.647473e-004,1.838824e-004
4.386491e-004,1.355869e-004
4.981271e-004,9.442231e-005
5.297299e-004,6.038860e-005
5.285954e-004,3.348575e-005
4.893756e-004,1.176900e-005
3.997535e-004,-6.544382e-006
2.558394e-004,-2.647842e-005
6.995045e-005,-5.208474e-005
-1.253383e-004,-8.514606e-005
-2.875656e-004,-1.269589e-004
-3.885323e-004,-1.765509e-004
-4.155972e-004,-2.280877e-004
-3.862634e-004,-2.715212e-004
-3.405610e-004,-2.976137e-004
-3.130099e-004,-3.047445e-004
-3.138202e-004,-3.021515e-004
-3.282440e-004,-2.974516e-004
-3.288923e-004,-2.912931e-004
-3.000446e-004,-2.818933e-004
-2.517492e-004,-2.658489e-004
-2.081536e-004,-2.421874e-004
-1.862748e-004,-2.154466e-004
-1.862748e-004,-1.909747e-004
-1.950263e-004,-1.682856e-004
-1.890299e-004,-1.454344e-004
-1.502963e-004,-1.209625e-004
-8.190475e-005,-9.260107e-005
7.555301e-006,-6.391550e-005
9.701536e-005,-4.284701e-005
1.697827e-004,-3.604027e-005
2.072198e-004,-4.090223e-005
1.979821e-004,-5.095028e-005
1.399627e-004,-5.532604e-005
3.267542e-005,-4.884343e-005
-1.285796e-004,-3.377136e-005
-3.567675e-004,-1.367526e-005
-6.457299e-004,4.313994e-006
-9.371233e-004,1.225520e-005
-1.123823e-003,7.555301e-006
-1.117664e-003,-9.947754e-006
-9.152445e-004,-3.393342e-005
-5.959758e-004,-5.613637e-005
-2.783279e-004,-6.650855e-005
-5.808115e-005,-6.634648e-005
2.181705e-005,-5.678463e-005
-3.004385e-005,-4.219875e-005
-1.695821e-004,-2.356124e-005
-3.369955e-004,1.883015e-006
-4.763717e-004,3.867184e-005
-5.504355e-004,8.388807e-005
-5.387668e-004,1.287802e-004
-4.355313e-004,1.636242e-004
-2.536940e-004,1.850168e-004
-1.950961e-005,1.947408e-004
2.328261e-004,2.012234e-004
4.636072e-004,2.120818e-004
6.191900e-004,2.286124e-004
6.598685e-004,2.472499e-004
5.827253e-004,2.619979e-004
4.305459e-004,2.748010e-004
2.726942e-004,2.923041e-004
1.710792e-004,3.162898e-004
1.602208e-004,3.462718e-004
2.344468e-004,3.739850e-004
3.631267e-004,3.843572e-004
5.097958e-004,3.726885e-004
6.425274e-004,3.433547e-004
7.336082e-004,3.033245e-004
7.661834e-004,2.662116e-004
7.525698e-004,2.415777e-004
7.329599e-004,2.289366e-004
7.410632e-004,2.232643e-004
7.833623e-004,2.171058e-004
8.502954e-004,2.041406e-004
9.254937e-004,1.851789e-004
9.815684e-004,1.670276e-004
9.888613e-004,1.564933e-004
9.253316e-004,1.545486e-004
7.870898e-004,1.561692e-004
5.862907e-004,1.573037e-004
3.352514e-004,1.517934e-004
5.017848e-005,1.300767e-004
-2.334358e-004,9.280167e-005
-4.604893e-004,5.017848e-005
-5.844692e-004,1.371378e-005
-5.935449e-004,-1.027188e-005
-5.136467e-004,-2.129233e-005
-3.933943e-004,-2.258885e-005
-2.961551e-004,-2.096820e-005
-2.768693e-004,-2.664048e-005
-3.449367e-004,-4.284701e-005
-4.559515e-004,-7.169464e-005
-5.507597e-004,-1.107524e-004
-5.917621e-004,-1.525652e-004
-5.702075e-004,-1.882196e-004
-4.869059e-004,-2.117191e-004
-3.400748e-004,-2.222533e-004
-1.452723e-004,-2.209568e-004
5.066468e-005,-2.117191e-004
1.955511e-004,-2.036158e-004
2.556773e-004,-2.006986e-004
2.211574e-004,-2.015090e-004
1.116012e-004,-2.032917e-004
-3.134038e-005,-2.026434e-004
-1.583996e-004,-2.005366e-004
-2.378116e-004,-1.951884e-004
-2.558008e-004,-1.857886e-004
-2.204706e-004,-1.759026e-004
-1.519170e-004,-1.697442e-004
-7.266703e-005,-1.681235e-004
5.772582e-006,-1.655305e-004
7.659513e-005,-1.574272e-004
1.440143e-004,-1.446240e-004
2.172679e-004,-1.242038e-004
3.073762e-004,-1.002181e-004
4.169324e-004,-7.720486e-005
5.420469e-004,-5.597430e-005
6.673234e-004,-3.830919e-005
7.796348e-004,-2.194059e-005
8.632605e-004,-4.761664e-006
9.003736e-004,2.035846e-005
8.700673e-004,5.795762e-005
7.528940e-004,1.051186e-004
5.598741e-004,1.477418e-004
3.365480e-004,1.722137e-004
1.373696e-004,1.739964e-004
-5.571990e-006,1.589243e-004
-8.547019e-005,1.383420e-004
-1.052422e-004,1.205148e-004
-8.093236e-005,1.044704e-004
-3.377136e-005,8.712937e-005
1.873781e-005,7.189524e-005
5.698522e-005,6.687121e-005
4.661304e-005,8.323981e-005
-4.106429e-005,1.252147e-004
-2.000504e-004,1.820997e-004
-3.908012e-004,2.323399e-004
-5.643732e-004,2.597290e-004
-6.792775e-004,2.629703e-004
-7.321107e-004,2.508154e-004
-7.638755e-004,2.339606e-004
-8.372911e-004,2.221298e-004
-9.852567e-004,2.162954e-004
-1.177952e-003,2.119197e-004
-1.342287e-003,2.041406e-004
-1.403223e-003,1.919856e-004
-1.321542e-003,1.791825e-004
-1.109885e-003,1.715654e-004
-8.222190e-004,1.717275e-004
-5.343911e-004,1.829100e-004
-3.005308e-004,2.020337e-004
-1.336036e-004,2.203471e-004
-2.080613e-005,2.294227e-004
5.098881e-005,2.231022e-004
9.474644e-005,1.968476e-004
1.205148e-004,1.550348e-004
1.422316e-004,1.090082e-004
1.754550e-004,6.687121e-005
2.271538e-004,3.834771e-005
2.997591e-004,2.149292e-005
3.846814e-004,1.403791e-005
4.726828e-004,1.144487e-005
5.532294e-004,1.387585e-005
6.156246e-004,2.133085e-005
6.464170e-004,3.364782e-005
6.360448e-004,4.304761e-005
5.796460e-004,4.645098e-005
4.775448e-004,4.547859e-005
3.422202e-004,4.013043e-005
2.041406e-004,2.927205e-005
1.070634e-004,8.851824e-006
8.210535e-005,-2.388537e-005
1.312112e-004,-6.553616e-005
2.307193e-004,-1.079973e-004
3.412479e-004,-1.475412e-004
4.213082e-004,-1.797922e-004
4.423766e-004,-2.000504e-004
4.012120e-004,-2.076674e-004
3.143450e-004,-2.042641e-004
2.054371e-004,-1.893541e-004
1.081979e-004,-1.618029e-004
4.580272e-005,-1.256624e-004
1.987227e-005,-8.547019e-005
2.100672e-005,-5.289507e-005
4.385793e-005,-3.587821e-005
8.939829e-005,-3.539201e-005
1.605450e-004,-4.625038e-005
2.488706e-004,-6.002594e-005
3.365480e-004,-6.618442e-005
4.039671e-004,-6.278104e-005
4.401077e-004,-5.565017e-005
4.365423e-004,-5.483985e-005
3.934329e-004,-6.893953e-005
3.174242e-004,-9.535618e-005
2.214815e-004,-1.232314e-004
1.232699e-004,-1.353863e-004
4.077869e-005,-1.220970e-004
-9.461558e-006,-8.676672e-005
-2.793700e-005,-4.527799e-005
-3.328516e-005,-1.092015e-005
-4.381940e-005,1.209313e-005
-6.731888e-005,2.862379e-005
-1.008664e-004,4.142696e-005
-1.344139e-004,5.228533e-005
-1.572651e-004,6.427817e-005
-1.605064e-004,8.048470e-005
-1.408965e-004,1.018773e-004
-9.746302e-005,1.265113e-004
-4.138842e-005,1.539003e-004
1.095867e-005,1.829100e-004
5.341979e-005,2.062474e-004
9.020862e-005,2.172679e-004
1.300767e-004,2.159713e-004
1.709172e-004,2.038164e-004
1.992786e-004,1.863134e-004
2.096508e-004,1.680000e-004
2.104611e-004,1.535762e-004
2.177540e-004,1.427178e-004
2.417397e-004,1.359110e-004
2.733424e-004,1.344524e-004
3.012177e-004,1.398006e-004
3.198552e-004,1.480659e-004
3.323342e-004,1.524417e-004
3.443271e-004,1.479039e-004
3.546993e-004,1.347766e-004
3.524304e-004,1.206769e-004
3.273102e-004,1.083599e-004
2.869559e-004,9.782569e-005
2.504913e-004,8.891209e-005
2.355812e-004,7.918817e-005
2.417397e-004,7.108491e-005
2.501671e-004,6.946425e-005
2.245608e-004,7.400208e-005
1.274836e-004,7.740546e-005
-4.949169e-005,7.724339e-005
-2.723315e-004,7.286763e-005
-4.796130e-004,6.168512e-005
-6.100755e-004,4.693717e-005
-6.290372e-004,3.769945e-005
-5.394151e-004,3.802358e-005
-3.818876e-004,4.612685e-005
-2.053985e-004,5.406805e-005
-4.398147e-005,5.649903e-005
8.437427e-005,5.487838e-005
1.799928e-004,5.228533e-005
2.514636e-004,4.823370e-005
2.950592e-004,4.158902e-005
2.942489e-004,2.927205e-005
2.318537e-004,1.565857e-005
1.018773e-004,2.369211e-006
-8.547019e-005,-1.545797e-005
-2.982619e-004,-3.992984e-005
-4.945230e-004,-6.958779e-005
-6.392473e-004,-9.956988e-005
-7.227109e-004,-1.229073e-004
-7.488034e-004,-1.308485e-004
-7.206041e-004,-1.203142e-004
-6.457299e-004,-9.098041e-005
-5.525423e-004,-5.030202e-005
-4.825302e-004,-7.516774e-006
-4.488206e-004,2.603075e-005
-4.193247e-004,3.834771e-005
-3.405610e-004,2.635488e-005
-1.827094e-004,-5.571990e-006
3.218923e-005,-4.576419e-005
2.410915e-004,-8.482193e-005
3.950536e-004,-1.115627e-004
4.875929e-004,-1.256624e-004
5.373470e-004,-1.263107e-004
5.631154e-004,-1.164247e-004
5.723531e-004,-1.000561e-004
5.636016e-004,-8.352541e-005
5.329712e-004,-7.574627e-005
4.780310e-004,-7.947377e-005
3.987811e-004,-8.854943e-005
3.020280e-004,-9.260107e-005
2.077060e-004,-7.995997e-005
1.354248e-004,-4.106429e-005
8.421220e-005,2.100672e-005
2.716521e-005,8.923623e-005
-6.553616e-005,1.475797e-004
-2.152845e-004,1.850168e-004
-4.198109e-004,1.999268e-004
-6.507540e-004,1.989545e-004
-8.572251e-004,1.897167e-004
-9.797465e-004,1.775618e-004
-9.735880e-004,1.692965e-004
-8.416669e-004,1.714034e-004
-6.377887e-004,1.880961e-004
-4.394208e-004,2.158093e-004
-2.992343e-004,2.420638e-004
-2.115570e-004,2.514636e-004
-1.340898e-004,2.307193e-004
-2.518189e-005,1.806411e-004
1.278078e-004,1.114392e-004
3.052694e-004,3.932010e-005
4.739794e-004,-2.064406e-005
6.122212e-004,-5.483985e-005
7.047605e-004,-6.051213e-005
7.384702e-004,-4.057810e-005
7.033019e-004,-3.858999e-007
6.067110e-004,4.985435e-005
4.717105e-004,1.018773e-004
3.311998e-004,1.495245e-004
2.102990e-004,1.903650e-004
1.245665e-004,2.222919e-004
8.453633e-005,2.461155e-004
9.118101e-005,2.613496e-004
1.381800e-004,2.676702e-004
2.115956e-004,2.647530e-004
2.911697e-004,2.503292e-004
3.582647e-004,2.209954e-004
4.059119e-004,1.785342e-004
4.269804e-004,1.308870e-004
4.156358e-004,8.599492e-005
3.756057e-004,5.212327e-005
3.190449e-004,3.202716e-005
2.560015e-004,2.246531e-005
1.957132e-004,1.744129e-005
1.466074e-004,1.144487e-005
1.159770e-004,3.179537e-006
1.125736e-004,-5.896120e-006
1.453108e-004,-1.221667e-005
2.140265e-004,-1.497178e-005
3.086727e-004,-1.124428e-005
4.099636e-004,-1.682422e-006
4.947237e-004,1.079661e-005
5.452881e-004,1.598270e-005
5.548500e-004,8.203562e-006
5.316747e-004,-1.124428e-005
4.927790e-004,-3.766092e-005
4.522626e-004,-6.650855e-005
4.242253e-004,-9.211487e-005
4.132049e-004,-1.084835e-004
4.093153e-004,-1.105903e-004
3.819262e-004,-9.859748e-005
3.078624e-004,-7.736692e-005
1.835583e-004,-5.840528e-005
3.105477e-005,-4.495386e-005
-1.177212e-004,-3.798505e-005
-2.358668e-004,-3.782299e-005
-3.235441e-004,-4.446767e-005
-4.089525e-004,-5.921561e-005
-5.233706e-004,-8.174268e-005
-6.770085e-004,-1.055663e-004
-8.442599e-004,-1.263107e-004
-9.586780e-004,-1.431655e-004
-9.508989e-004,-1.577513e-004
-8.034194e-004,-1.739578e-004
-5.666421e-004,-1.938919e-004
-3.248407e-004,-2.133397e-004
-1.464067e-004,-2.269532e-004
-4.932962e-005,-2.272773e-004
-5.571990e-006,-2.076674e-004
2.246531e-005,-1.674752e-004
5.098881e-005,-1.144799e-004
6.735741e-005,-5.662256e-005
4.402000e-005,-2.654814e-006
-3.425755e-005,3.688912e-005
-1.512687e-004,6.087479e-005
-2.583939e-004,7.400208e-005
-3.036101e-004,8.372601e-005
-2.640662e-004,9.636710e-005
-1.614788e-004,1.096565e-004
-4.900550e-005,1.203528e-004
2.522042e-005,1.227837e-004
3.526847e-005,1.218114e-004
-2.485776e-005,1.210010e-004
-1.433275e-004,1.203528e-004
-3.164132e-004,1.175977e-004
-5.413599e-004,1.153287e-004
-7.846198e-004,1.159770e-004
-9.881739e-004,1.175977e-004
-1.098702e-003,1.219734e-004
