7.821578e-005,2.321778e-004
5.423012e-005,2.196988e-004
3.827799e-006,2.174299e-004
-6.278104e-005,2.221298e-004
-1.582375e-004,2.300710e-004
-3.070135e-004,2.336365e-004
-5.223983e-004,2.299089e-004
-7.891576e-004,2.208333e-004
-1.053972e-003,2.072198e-004
-1.249747e-003,1.908512e-004
-1.316518e-003,1.699448e-004
-1.223169e-003,1.412592e-004
-9.825015e-004,1.078737e-004
-6.502678e-004,7.594687e-005
-3.230579e-004,4.564065e-005
-1.235555e-004,1.225520e-005
-1.224211e-004,-2.680255e-005
-2.864312e-004,-6.861539e-005
-5.131605e-004,-1.024871e-004
-7.011562e-004,-1.209625e-004
-7.797579e-004,-1.233935e-004
-7.238454e-004,-1.151281e-004
-5.484907e-004,-1.039456e-004
-2.924276e-004,-9.470791e-005
-7.100305e-007,-9.373552e-005
2.944109e-004,-1.034594e-004
5.585775e-004,-1.201522e-004
7.550009e-004,-1.436516e-004
8.596951e-004,-1.686097e-004
8.658536e-004,-1.904885e-004
7.849830e-004,-2.057227e-004
6.446343e-004,-2.159328e-004
4.905101e-004,-2.251705e-004
3.734989e-004,-2.352185e-004
3.216380e-004,-2.451045e-004
3.318480e-004,-2.523975e-004
3.798194e-004,-2.504527e-004
4.358940e-004,-2.332737e-004
4.584211e-004,-2.039399e-004
3.851676e-004,-1.710407e-004
1.715654e-004,-1.436516e-004
-1.588858e-004,-1.285796e-004
-5.011677e-004,-1.279313e-004
-7.355141e-004,-1.379794e-004
-8.021229e-004,-1.439758e-004
-7.155800e-004,-1.361966e-004
-5.392530e-004,-1.130213e-004
-3.489884e-004,-7.914964e-005
-1.934057e-004,-4.252288e-005
-6.634648e-005,-6.706447e-006
6.589881e-005,2.133085e-005
2.107852e-004,3.656499e-005
3.303894e-004,3.834771e-005
3.608578e-004,3.121684e-005
2.665357e-004,2.424803e-005
5.163707e-005,2.829966e-005
-2.404046e-004,4.823370e-005
-5.407116e-004,7.610894e-005
-7.795958e-004,1.033359e-004
-8.970932e-004,1.240803e-004
-8.531735e-004,1.365593e-004
-6.366542e-004,1.398006e-004
-2.895104e-004,1.360731e-004
9.669123e-005,1.305629e-004
4.132049e-004,1.284560e-004
5.848321e-004,1.287802e-004
5.913147e-004,1.292664e-004
4.618245e-004,1.287802e-004
2.595669e-004,1.305629e-004
4.855783e-005,1.380179e-004
-1.219349e-004,1.526038e-004
-2.267911e-004,1.704310e-004
-2.728177e-004,1.843686e-004
-2.731418e-004,1.955511e-004
-2.433218e-004,2.055991e-004
-1.867610e-004,2.182402e-004
-1.018388e-004,2.299089e-004
7.231170e-006,2.336365e-004
1.185701e-004,2.231022e-004
1.999268e-004,1.974959e-004
2.357433e-004,1.631380e-004
2.357433e-004,1.282940e-004
2.226160e-004,9.814982e-005
2.133783e-004,7.983644e-005
2.112714e-004,7.448828e-005
2.111094e-004,7.708133e-005
2.077060e-004,7.999851e-005
1.918236e-004,7.837785e-005
1.636242e-004,7.011252e-005
1.406109e-004,5.277153e-005
1.378558e-004,2.667901e-005
1.490383e-004,-5.085794e-006
1.457970e-004,-4.171256e-005
1.080358e-004,-8.060823e-005
4.110282e-005,-1.193418e-004
-2.907146e-005,-1.528894e-004
-7.769106e-005,-1.775233e-004
-9.081835e-005,-1.938919e-004
-6.423963e-005,-1.997262e-004
9.106227e-007,-1.940539e-004
9.685330e-005,-1.844921e-004
2.133783e-004,-1.823853e-004
3.371962e-004,-1.927574e-004
4.499937e-004,-2.126914e-004
5.258403e-004,-2.370013e-004
5.389676e-004,-2.554767e-004
4.858102e-004,-2.639041e-004
3.859779e-004,-2.595283e-004
2.709115e-004,-2.438080e-004
1.608691e-004,-2.196603e-004
6.751948e-005,-1.867610e-004
-4.761664e-006,-1.468929e-004
-5.905355e-005,-1.054042e-004
-8.368748e-005,-6.942573e-005
-5.662256e-005,-4.252288e-005
2.781346e-005,-2.258885e-005
1.493625e-004,-8.975362e-006
2.783665e-004,-3.858999e-007
3.910019e-004,7.555301e-006
4.681450e-004,1.922400e-005
5.039615e-004,3.688912e-005
5.005581e-004,6.249545e-005
4.694416e-004,9.733949e-005
4.250357e-004,1.412592e-004
3.767402e-004,1.861513e-004
3.308757e-004,2.240746e-004
2.987867e-004,2.532463e-004
2.804733e-004,2.736666e-004
2.782044e-004,2.817699e-004
2.958695e-004,2.743149e-004
3.412479e-004,2.555152e-004
4.128807e-004,2.297469e-004
5.000719e-004,2.051129e-004
5.827253e-004,1.859892e-004
6.452826e-004,1.754550e-004
6.812610e-004,1.731861e-004
6.853127e-004,1.785342e-004
6.509548e-004,1.877720e-004
5.632775e-004,1.953890e-004
4.041292e-004,2.000889e-004
1.645966e-004,1.987924e-004
-1.441378e-004,1.892305e-004
-4.760476e-004,1.739964e-004
-7.518827e-004,1.594105e-004
-9.050344e-004,1.517934e-004
-9.073032e-004,1.519555e-004
-7.812165e-004,1.582761e-004
-5.954896e-004,1.686482e-004
-4.308313e-004,1.788584e-004
-3.382920e-004,1.910133e-004
-3.165753e-004,2.093267e-004
-3.267854e-004,2.329882e-004
-3.185201e-004,2.563256e-004
-2.587180e-004,2.710735e-004
-1.562927e-004,2.751252e-004
-6.002594e-005,2.678322e-004
-2.826114e-005,2.500050e-004
-9.681477e-005,2.221298e-004
-2.606628e-004,1.876099e-004
-4.815578e-004,1.517934e-004
-7.112043e-004,1.210010e-004
-9.048723e-004,9.717743e-005
-1.033228e-003,7.691926e-005
-1.094489e-003,5.455425e-005
-1.090761e-003,2.846173e-005
-1.026097e-003,-2.654814e-006
-9.019551e-004,-3.766092e-005
-7.060182e-004,-7.461182e-005
-4.371519e-004,-1.118868e-004
-1.130213e-004,-1.425172e-004
2.179161e-004,-1.575893e-004
4.945617e-004,-1.567789e-004
6.708889e-004,-1.451102e-004
7.264773e-004,-1.256624e-004
6.864472e-004,-1.018388e-004
6.114109e-004,-7.850138e-005
5.645740e-004,-6.229485e-005
5.789978e-004,-5.727083e-005
6.436619e-004,-6.342931e-005
7.182120e-004,-7.704279e-005
7.588904e-004,-9.017008e-005
7.384702e-004,-9.486997e-005
6.551685e-004,-8.935975e-005
4.984512e-004,-7.979791e-005
2.329882e-004,-7.590833e-005
-1.705545e-004,-8.287715e-005
-6.870566e-004,-1.013526e-004
-1.235648e-003,-1.274451e-004
-1.708230e-003,-1.593720e-004
-2.006917e-003,-1.955125e-004
-2.070770e-003,-2.327876e-004
-1.898333e-003,-2.697385e-004
-1.555402e-003,-3.006929e-004
-1.156884e-003,-3.185201e-004
-8.045539e-004,-3.186821e-004
-5.374703e-004,-3.019894e-004
-3.164132e-004,-2.711970e-004
-7.266703e-005,-2.381357e-004
2.352571e-004,-2.084778e-004
5.888838e-004,-1.838438e-004
9.305178e-004,-1.618029e-004
1.209919e-003,-1.394379e-004
1.405046e-003,-1.159385e-004
1.524812e-003,-8.871149e-005
1.587856e-003,-5.775702e-005
1.598552e-003,-3.053005e-005
1.546367e-003,-1.416145e-005
1.435352e-003,-1.092015e-005
1.293383e-003,-2.015787e-005
1.150116e-003,-3.490581e-005
1.015116e-003,-4.819517e-005
8.833567e-004,-4.965376e-005
7.400909e-004,-2.826114e-005
5.678153e-004,2.359977e-005
3.600474e-004,1.017153e-004
1.206769e-004,1.919856e-004
-1.489998e-004,2.785285e-004
-4.556273e-004,3.431926e-004
-8.042298e-004,3.726885e-004
-1.170335e-003,3.621543e-004
-1.495600e-003,3.195311e-004
-1.723788e-003,2.579462e-004
-1.835776e-003,1.914995e-004
-1.857330e-003,1.349386e-004
-1.826862e-003,1.046324e-004
-1.742588e-003,1.128978e-004
-1.555889e-003,1.560072e-004
-1.222682e-003,2.192126e-004
-7.531792e-004,2.822560e-004
-2.264670e-004,3.221241e-004
2.496809e-004,3.258516e-004
5.809425e-004,2.987867e-004
7.297186e-004,2.608634e-004
7.272876e-004,2.274780e-004
6.736440e-004,2.028440e-004
6.882299e-004,1.869616e-004
8.383025e-004,1.814514e-004
1.111221e-003,1.869616e-004
1.440376e-003,2.031682e-004
1.738415e-003,2.237505e-004
1.922522e-003,2.404432e-004
1.930463e-003,2.493568e-004
1.747329e-003,2.490327e-004
1.436324e-003,2.419018e-004
1.101821e-003,2.312055e-004
8.224201e-004,2.180782e-004
6.289139e-004,2.038164e-004
5.023408e-004,1.869616e-004
3.864641e-004,1.629760e-004
2.222919e-004,1.334801e-004
-1.772689e-005,1.026876e-004
-3.209511e-004,7.092284e-005
-6.455678e-004,3.510641e-005
-9.340441e-004,-1.844488e-006
-1.146674e-003,-3.863332e-005
-1.285888e-003,-7.428769e-005
-1.376969e-003,-1.045939e-004
-1.435474e-003,-1.277692e-004
-1.443091e-003,-1.444620e-004
-1.364652e-003,-1.626133e-004
-1.204693e-003,-1.895161e-004
-1.017508e-003,-2.233878e-004
-8.765109e-004,-2.606628e-004
-8.214086e-004,-2.924276e-004
-8.244879e-004,-3.156029e-004
-8.123330e-004,-3.292164e-004
-7.186593e-004,-3.324577e-004
-5.246671e-004,-3.215994e-004
-2.639041e-004,-2.989102e-004
1.338965e-005,-2.705488e-004
2.657254e-004,-2.434839e-004
4.640934e-004,-2.172293e-004
5.811046e-004,-1.908126e-004
6.060627e-004,-1.669890e-004
5.610085e-004,-1.430034e-004
4.945617e-004,-1.180453e-004
4.475628e-004,-9.973194e-005
4.315182e-004,-9.405965e-005
4.349216e-004,-1.023250e-004
4.383250e-004,-1.199901e-004
4.180668e-004,-1.371690e-004
3.640991e-004,-1.447861e-004
2.897111e-004,-1.399241e-004
2.232643e-004,-1.240417e-004
2.062474e-004,-9.924574e-005
2.688046e-004,-6.586029e-005
3.950536e-004,-2.064406e-005
5.243817e-004,2.376183e-005
5.848321e-004,5.212327e-005
5.308643e-004,5.828175e-005
3.765781e-004,4.807163e-005
1.957132e-004,3.769945e-005
7.740546e-005,4.191315e-005
8.793970e-005,7.011252e-005
2.381743e-004,1.197045e-004
4.822447e-004,1.851789e-004
7.444666e-004,2.535705e-004
9.553138e-004,3.140208e-004
1.066329e-003,3.593992e-004
1.048177e-003,3.953777e-004
9.047493e-004,4.300596e-004
6.810990e-004,4.634451e-004
4.391353e-004,4.939134e-004
2.370398e-004,5.183853e-004
1.145184e-004,5.360505e-004
8.875003e-005,5.438296e-004
1.527658e-004,5.422090e-004
2.676702e-004,5.316747e-004
3.803056e-004,5.123889e-004
4.397836e-004,4.849998e-004
4.182289e-004,4.519385e-004
3.350894e-004,4.174185e-004
2.457913e-004,3.838710e-004
2.124059e-004,3.530786e-004
2.660495e-004,3.240689e-004
3.921364e-004,2.984626e-004
5.319988e-004,2.744769e-004
6.169211e-004,2.504913e-004
6.104385e-004,2.269918e-004
5.388056e-004,1.999268e-004
4.621486e-004,1.683241e-004
4.201737e-004,1.360731e-004
3.929467e-004,1.051186e-004
3.188828e-004,6.849186e-005
1.461212e-004,2.408596e-005
-1.371690e-004,-2.777494e-005
-5.008436e-004,-7.801519e-005
-8.781315e-004,-1.152902e-004
-1.182004e-003,-1.332795e-004
-1.334345e-003,-1.361966e-004
-1.303553e-003,-1.366828e-004
-1.121392e-003,-1.407345e-004
-8.637077e-004,-1.489998e-004
-6.094273e-004,-1.614788e-004
-4.183523e-004,-1.739578e-004
-3.160891e-004,-1.825473e-004
-2.987481e-004,-1.846542e-004
-3.342404e-004,-1.846542e-004
-3.773498e-004,-1.888679e-004
-3.830221e-004,-2.023193e-004
-3.105789e-004,-2.241981e-004
-1.627754e-004,-2.494803e-004
1.883015e-006,-2.718453e-004
1.051186e-004,-2.844864e-004
9.523264e-005,-2.919414e-004
-2.631635e-005,-3.047445e-004
-2.138259e-004,-3.285682e-004
-3.938804e-004,-3.642225e-004
-4.916058e-004,-4.029561e-004
-4.614617e-004,-4.308313e-004
-3.023136e-004,-4.373140e-004
-5.791909e-005,-4.220798e-004
2.057612e-004,-3.861013e-004
4.227667e-004,-3.361852e-004
5.493398e-004,-2.770314e-004
5.613327e-004,-2.141500e-004
4.436732e-004,-1.569410e-004
2.004130e-004,-1.151281e-004
-1.256624e-004,-9.227693e-005
-4.627582e-004,-8.530812e-005
-7.447518e-004,-8.790117e-005
-9.167031e-004,-9.260107e-005
-9.424714e-004,-8.887356e-005
-8.165467e-004,-7.315322e-005
-5.752315e-004,-5.354332e-005
-2.825416e-004,-4.025397e-005
1.234753e-006,-3.652646e-005
2.268297e-004,-3.587821e-005
3.662059e-004,-3.182657e-005
4.308700e-004,-2.372331e-005
4.621486e-004,-1.335113e-005
4.939134e-004,-2.330684e-006
5.250300e-004,9.662150e-006
5.323229e-004,2.538249e-005
4.801379e-004,4.304761e-005
3.350894e-004,5.925414e-005
9.896015e-005,7.643307e-005
-1.705545e-004,9.717743e-005
-3.895047e-004,1.219734e-004
-4.841508e-004,1.469315e-004
-4.224039e-004,1.702689e-004
-2.387840e-004,1.953890e-004
-1.659243e-005,2.276400e-004
1.717275e-004,2.628082e-004
3.055935e-004,2.936006e-004
4.036430e-004,3.125623e-004
4.884033e-004,3.177483e-004
5.576051e-004,3.145071e-004
5.953664e-004,3.109416e-004
5.856425e-004,3.120761e-004
5.251921e-004,3.188828e-004
4.182289e-004,3.286068e-004
2.722080e-004,3.370341e-004
1.077117e-004,3.360618e-004
-3.863332e-005,3.183966e-004
-1.350622e-004,2.903593e-004
-1.580754e-004,2.605393e-004
-1.097800e-004,2.313675e-004
-4.275467e-006,2.030061e-004
1.295905e-004,1.752929e-004
2.496809e-004,1.443384e-004
3.059176e-004,1.116012e-004
2.584324e-004,7.886404e-005
9.782569e-005,5.115087e-005
-1.413827e-004,3.283749e-005
-3.930701e-004,2.522042e-005
-5.839830e-004,2.586868e-005
-6.590193e-004,2.716521e-005
-6.016482e-004,2.667901e-005
-4.322899e-004,2.408596e-005
-2.062088e-004,2.295151e-005
3.503668e-006,2.278944e-005
1.406109e-004,2.035846e-005
1.913374e-004,1.225520e-005
1.840444e-004,-3.858999e-007
1.689724e-004,-1.156841e-005
1.756171e-004,-1.999580e-005
1.926339e-004,-2.501983e-005
1.812893e-004,-2.469570e-005
1.148425e-004,-2.210265e-005
5.864920e-007,-1.967167e-005
-1.361966e-004,-2.096820e-005
-2.786520e-004,-2.793700e-005
-4.157593e-004,-3.830919e-005
-5.261258e-004,-4.641245e-005
-5.776625e-004,-5.078821e-005
-5.468701e-004,-5.273300e-005
-4.423380e-004,-5.435365e-005
-3.050687e-004,-5.532604e-005
-1.865989e-004,-6.002594e-005
-1.130213e-004,-6.634648e-005
-7.234290e-005,-7.120844e-005
-4.349527e-005,-7.380149e-005
-2.388537e-005,-7.477388e-005
-3.928157e-005,-7.785312e-005
-1.143178e-004,-8.628052e-005
-2.429977e-004,-9.600444e-005
-3.940425e-004,-9.875954e-005
-5.198052e-004,-9.243900e-005
-5.645352e-004,-7.866345e-005
-4.836646e-004,-5.662256e-005
-2.736280e-004,-2.923353e-005
1.679302e-005,-5.085794e-006
3.166139e-004,1.290346e-005
5.793219e-004,2.813760e-005
7.903311e-004,4.515445e-005
9.532070e-004,6.444023e-005
1.067463e-003,8.340187e-005
1.126779e-003,9.733949e-005
1.120297e-003,1.034980e-004
1.042181e-003,1.059290e-004
9.100975e-004,1.080358e-004
7.757452e-004,1.130598e-004
6.864472e-004,1.219734e-004
6.558168e-004,1.323456e-004
6.734819e-004,1.417454e-004
7.099467e-004,1.517934e-004
7.308531e-004,1.615174e-004
7.060571e-004,1.670276e-004
6.161107e-004,1.654069e-004
4.702519e-004,1.611932e-004
2.952213e-004,1.584381e-004
1.138702e-004,1.581140e-004
-5.905355e-005,1.610312e-004
-2.110708e-004,1.670276e-004
-3.227338e-004,1.762653e-004
-3.895047e-004,1.850168e-004
-4.313175e-004,1.905271e-004
-4.721580e-004,1.923098e-004
-5.280706e-004,1.879340e-004
-5.995413e-004,1.749688e-004
-6.692294e-004,1.532520e-004
-7.227109e-004,1.214872e-004
-7.458862e-004,9.020862e-005
-7.197938e-004,6.849186e-005
-6.142893e-004,6.362991e-005
-4.196489e-004,7.384002e-005
-1.712027e-004,9.442231e-005
6.476436e-005,1.124116e-004
2.015475e-004,1.151667e-004
1.704310e-004,9.831188e-005
-5.240886e-005,6.881599e-005
-4.246728e-004,3.445814e-005
-8.442599e-004,4.313994e-006
-1.168066e-003,-1.999580e-005
-1.260444e-003,-4.252288e-005
-1.068396e-003,-6.197072e-005
-6.658260e-004,-7.137051e-005
-2.253326e-004,-7.120844e-005
8.583286e-005,-7.137051e-005
2.111094e-004,-7.704279e-005
2.226160e-004,-9.017008e-005
2.331503e-004,-1.013526e-004
2.979764e-004,-9.989401e-005
4.055878e-004,-8.158062e-005
5.211404e-004,-5.046408e-005
6.217830e-004,-2.096820e-005
6.979538e-004,-5.571990e-006
7.511112e-004,-7.840905e-006
7.930862e-004,-2.469570e-005
8.585607e-004,-5.419158e-005
9.758961e-004,-9.162867e-005
1.151575e-003,-1.287416e-004
1.356588e-003,-1.540238e-004
1.517519e-003,-1.596961e-004
1.538426e-003,-1.447861e-004
1.329199e-003,-1.154523e-004
8.389507e-004,-7.769106e-005
8.680524e-005,-4.203669e-005
-8.011505e-004,-1.918548e-005
-1.624280e-003,-1.383732e-005
-2.198640e-003,-1.886135e-005
-2.422453e-003,-2.631635e-005
-2.306252e-003,-3.279896e-005
-1.958945e-003,-3.814712e-005
-1.541627e-003,-3.911951e-005
-1.203072e-003,-3.344723e-005
-1.007622e-003,-2.275091e-005
-9.178375e-004,-1.724069e-005
-8.554424e-004,-2.631635e-005
-7.721409e-004,-4.479180e-005
-6.697156e-004,-6.229485e-005
-5.721523e-004,-7.007399e-005
-4.912817e-004,-6.294311e-005
-4.243487e-004,-4.300908e-005
-3.421817e-004,-1.562004e-005
-2.047502e-004,1.565857e-005
5.772582e-006,4.547859e-005
2.735045e-004,6.460230e-005
5.548500e-004,7.059871e-005
7.979482e-004,6.703327e-005
9.650377e-004,6.330578e-005
1.049960e-003,6.800567e-005
1.080104e-003,8.340187e-005
1.097445e-003,1.056048e-004
1.119648e-003,1.247285e-004
1.121755e-003,1.320215e-004
1.046070e-003,1.263492e-004
8.541849e-004,1.125736e-004
5.694359e-004,9.717743e-005
2.845250e-004,8.712937e-005
1.099806e-004,8.502253e-005
1.158149e-004,9.150514e-005
2.846870e-004,1.025256e-004
5.331332e-004,1.146805e-004
7.640765e-004,1.300767e-004
9.305178e-004,1.522796e-004
1.047853e-003,1.748067e-004
1.150279e-003,1.905271e-004
1.254649e-003,1.978200e-004
1.337951e-003,1.971717e-004
1.363881e-003,1.900409e-004
1.308130e-003,1.799928e-004
1.165675e-003,1.697827e-004
9.574206e-004,1.590864e-004
7.107570e-004,1.498487e-004
4.564763e-004,1.427178e-004
2.261814e-004,1.360731e-004
4.434413e-005,1.273216e-004
-8.644259e-005,1.158149e-004
-1.754164e-004,1.052807e-004
-2.324634e-004,1.009049e-004
-2.634179e-004,9.993253e-005
-2.742763e-004,9.863601e-005
-2.697385e-004,9.101894e-005
-2.489941e-004,7.513654e-005
-2.169052e-004,5.179914e-005
-1.893541e-004,2.716521e-005
-1.759026e-004,7.879432e-006
-1.752544e-004,-3.141010e-006
-1.802784e-004,-8.975362e-006
-1.861127e-004,-1.302700e-005
-1.953505e-004,-1.659243e-005
-2.100984e-004,-2.226472e-005
-2.279256e-004,-3.490581e-005
-2.433218e-004,-5.905355e-005
-2.536940e-004,-9.195280e-005
-2.582318e-004,-1.225832e-004
-2.519113e-004,-1.444620e-004
-2.298704e-004,-1.621271e-004
-1.901644e-004,-1.806025e-004
-1.305243e-004,-1.994021e-004
-4.787104e-005,-2.120432e-004
4.175109e-005,-2.086398e-004
1.179218e-004,-1.869231e-004
1.694586e-004,-1.540238e-004
2.036544e-004,-1.175591e-004
2.381743e-004,-8.368748e-005
2.833905e-004,-5.646050e-005
3.386548e-004,-4.333321e-005
3.926226e-004,-4.819517e-005
4.294114e-004,-6.488790e-005
4.350837e-004,-8.287715e-005
3.830607e-004,-9.017008e-005
2.269918e-004,-8.077030e-005
-6.148453e-005,-5.710876e-005
-4.587066e-004,-3.312309e-005
-8.902864e-004,-1.416145e-005
-1.257202e-003,2.623614e-007
-1.460594e-003,9.175954e-006
-1.433205e-003,1.031041e-005
-1.167256e-003,6.420843e-006
-7.201179e-004,5.864920e-007
-2.086398e-004,-2.816880e-006
2.226160e-004,-3.951337e-006
4.715484e-004,-5.734056e-006
5.368608e-004,-7.354709e-006
5.041235e-004,-6.544382e-006
4.692795e-004,-2.654814e-006
4.794896e-004,6.096713e-006
5.302161e-004,2.035846e-005
5.788357e-004,3.964424e-005
5.608465e-004,6.330578e-005
4.195254e-004,8.729144e-005
1.451488e-004,1.080358e-004
-2.144742e-004,1.242423e-004
-5.719902e-004,1.354248e-004
-8.479874e-004,1.459591e-004
-1.012808e-003,1.616794e-004
-1.071475e-003,1.853410e-004
-1.042466e-003,2.162954e-004
-9.708329e-004,2.493568e-004
-9.205926e-004,2.788527e-004
-9.418232e-004,3.005694e-004
-1.040683e-003,3.127243e-004
-1.175035e-003,3.101313e-004
-1.257364e-003,2.890628e-004
-1.193511e-003,2.522740e-004
-9.393922e-004,2.102990e-004
-5.350393e-004,1.723757e-004
-9.470791e-005,1.470936e-004
2.590807e-004,1.354248e-004
4.668485e-004,1.391524e-004
5.572810e-004,1.521176e-004
6.063868e-004,1.655690e-004
6.697544e-004,1.691344e-004
7.426839e-004,1.594105e-004
7.877381e-004,1.410971e-004
7.819037e-004,1.184080e-004
7.405770e-004,9.490851e-005
6.945504e-004,7.627100e-005
6.608408e-004,6.395404e-005
6.337758e-004,5.341979e-005
6.083316e-004,4.158902e-005
5.883976e-004,3.073064e-005
5.854804e-004,2.424803e-005
5.965008e-004,2.651694e-005
6.013628e-004,3.899597e-005
5.751082e-004,6.071273e-005
5.200059e-004,8.518459e-005
4.551798e-004,1.046324e-004
3.935950e-004,1.177597e-004
3.300653e-004,1.206769e-004
2.284504e-004,1.130598e-004
5.795762e-005,9.539470e-005
-1.643960e-004,7.124698e-005
-3.861013e-004,4.288554e-005
-5.713420e-004,1.387585e-005
-7.144455e-004,-1.610624e-005
-8.483115e-004,-4.819517e-005
-1.017346e-003,-8.611845e-005
-1.241644e-003,-1.256624e-004
-1.512779e-003,-1.652063e-004
-1.783753e-003,-2.052365e-004
-1.968021e-003,-2.452666e-004
-1.979690e-003,-2.791382e-004
-1.793639e-003,-3.008550e-004
-1.459298e-003,-3.079858e-004
-1.066289e-003,-3.057169e-004
-7.026148e-004,-3.018274e-004
-4.058733e-004,-2.956689e-004
-1.601823e-004,-2.831898e-004
6.995045e-005,-2.590421e-004
2.999212e-004,-2.237119e-004
5.169268e-004,-1.835197e-004
6.958470e-004,-1.455964e-004
8.292268e-004,-1.151281e-004
9.198214e-004,-9.341139e-005
9.723307e-004,-7.769106e-005
9.838373e-004,-6.051213e-005
9.630929e-004,-2.988179e-005
9.267902e-004,1.565857e-005
8.976185e-004,6.411610e-005
8.914600e-004,1.031738e-004
9.041011e-004,1.269974e-004
9.113940e-004,1.362352e-004
8.715259e-004,1.375317e-004
7.344186e-004,1.357490e-004
4.799758e-004,1.331559e-004
1.385041e-004,1.274836e-004
-2.000504e-004,1.171115e-004
-4.295348e-004,1.005808e-004
-4.779923e-004,8.518459e-005
-3.395886e-004,7.999851e-005
-5.775702e-005,8.226741e-005
3.109416e-004,8.502253e-005
7.094605e-004,8.956036e-005
1.080266e-003,9.944634e-005
1.371822e-003,1.153287e-004
1.547502e-003,1.336421e-004
1.583804e-003,1.474177e-004
1.465982e-003,1.547106e-004
1.205543e-003,1.530900e-004
8.762258e-004,1.430419e-004
5.930975e-004,1.313732e-004
4.482110e-004,1.248906e-004
4.566384e-004,1.250527e-004
5.623050e-004,1.341283e-004
6.742922e-004,1.501728e-004
7.172396e-004,1.712413e-004
6.452826e-004,1.906891e-004
4.564763e-004,2.073819e-004
1.989545e-004,2.255332e-004
-4.187462e-005,2.477361e-004
-1.898403e-004,2.735045e-004
-2.219292e-004,3.007315e-004
-1.543479e-004,3.218000e-004
-2.696461e-005,3.227724e-004
1.159770e-004,2.957075e-004
2.372019e-004,2.495189e-004
2.905214e-004,1.994406e-004
2.130541e-004,1.556830e-004
-2.712668e-005,1.219734e-004
-3.796187e-004,9.426025e-005
-7.248178e-004,6.897806e-005
-9.376095e-004,4.337174e-005
-9.478196e-004,1.338965e-005
-7.564205e-004,-2.226472e-005
-4.141386e-004,-5.953974e-005
-5.734056e-006,-9.195280e-005
3.676645e-004,-1.141558e-004
6.384758e-004,-1.263107e-004
7.896828e-004,-1.327933e-004
8.342508e-004,-1.381414e-004
7.776900e-004,-1.464067e-004
6.065489e-004,-1.564548e-004
3.101313e-004,-1.663408e-004
-8.077030e-005,-1.712027e-004
-4.815578e-004,-1.707166e-004
-7.919128e-004,-1.648822e-004
-9.474955e-004,-1.575893e-004
-9.745604e-004,-1.522411e-004
-9.722915e-004,-1.467309e-004
-1.038900e-003,-1.353863e-004
-1.205179e-003,-1.172350e-004
-1.410192e-003,-9.730096e-005
-1.551027e-003,-8.433573e-005
-1.556699e-003,-8.255302e-005
-1.425426e-003,-9.697683e-005
-1.205017e-003,-1.225832e-004
-9.278856e-004,-1.451102e-004
-5.899795e-004,-1.499722e-004
-2.032917e-004,-1.334415e-004
1.837203e-004,-1.062146e-004
4.968306e-004,-8.417367e-005
6.793162e-004,-7.444975e-005
7.198326e-004,-7.396356e-005
6.451205e-004,-7.655660e-005
5.029891e-004,-7.412562e-005
3.355756e-004,-6.213279e-005
1.663793e-004,-4.187462e-005
2.045080e-006,-1.902341e-005
-1.457585e-004,3.503668e-006
-2.434839e-004,2.084466e-005
-2.491561e-004,3.105477e-005
-1.425172e-004,3.462021e-005
3.429608e-005,3.445814e-005
1.919856e-004,3.283749e-005
2.594049e-004,3.316162e-005
2.253711e-004,3.899597e-005
1.221355e-004,5.115087e-005
-2.129233e-005,6.541262e-005
-1.844921e-004,7.691926e-005
-3.298647e-004,8.518459e-005
-4.139766e-004,9.328786e-005
-4.039285e-004,1.072255e-004
-2.872415e-004,1.321835e-004
-7.898758e-005,1.678379e-004
1.726999e-004,2.094887e-004
4.128807e-004,2.485465e-004
5.958526e-004,2.801492e-004
6.961711e-004,2.947351e-004
7.133500e-004,2.867939e-004
6.644063e-004,2.595669e-004
5.721910e-004,2.219677e-004
4.600418e-004,1.855030e-004
3.435168e-004,1.574657e-004
2.362295e-004,1.420695e-004
1.568175e-004,1.402868e-004
1.247285e-004,1.490383e-004
1.470936e-004,1.641104e-004
2.102990e-004,1.804790e-004
2.936006e-004,1.885823e-004
3.759298e-004,1.824238e-004
4.585832e-004,1.660552e-004
5.556603e-004,1.485521e-004
6.798024e-004,1.326697e-004
8.279303e-004,1.198666e-004
9.921027e-004,1.073875e-004
1.165513e-003,9.717743e-005
1.343299e-003,9.134307e-005
1.521571e-003,8.712937e-005
1.686392e-003,8.405014e-005
1.816044e-003,8.712937e-005
1.904857e-003,9.847395e-005
1.948452e-003,1.078737e-004
1.926573e-003,1.083599e-004
1.811993e-003,9.604298e-005
1.574891e-003,7.497447e-005
1.196953e-003,5.325772e-005
6.932539e-004,3.834771e-005
1.258630e-004,3.137890e-005
-4.199730e-004,2.716521e-005
-8.932036e-004,2.343770e-005
-1.317329e-003,1.808955e-005
-1.756850e-003,9.986281e-006
-2.258442e-003,-5.571990e-006
-2.801848e-003,-3.344723e-005
-3.300038e-003,-7.007399e-005
-3.649291e-003,-1.079973e-004
-3.768896e-003,-1.376552e-004
-3.630329e-003,-1.562927e-004
-3.269246e-003,-1.656925e-004
-2.759063e-003,-1.686097e-004
-2.176923e-003,-1.715269e-004
-1.591219e-003,-1.755785e-004
-1.062400e-003,-1.810887e-004
-6.321164e-004,-1.857886e-004
-3.271096e-004,-1.885437e-004
-1.799543e-004,-1.875713e-004
-2.023193e-004,-1.827094e-004
-3.488263e-004,-1.731475e-004
-5.199672e-004,-1.566169e-004
-6.116962e-004,-1.360346e-004
-5.575664e-004,-1.175591e-004
-3.630881e-004,-1.070249e-004
-1.138316e-004,-1.044318e-004
7.918817e-005,-1.049180e-004
1.498487e-004,-1.057284e-004
9.847395e-005,-1.057284e-004
-2.372331e-005,-1.084835e-004
-1.481895e-004,-1.139937e-004
-2.196603e-004,-1.196660e-004
-2.013469e-004,-1.220970e-004
-7.817725e-005,-1.162626e-004
1.373696e-004,-1.024871e-004
4.076947e-004,-8.579432e-005
6.883920e-004,-6.991193e-005
9.332729e-004,-5.532604e-005
1.104738e-003,-3.895745e-005
1.187716e-003,-2.080613e-005
1.204571e-003,-4.437533e-006
1.201978e-003,1.160693e-005
1.221425e-003,3.510641e-005
1.277014e-003,6.930219e-005
1.350430e-003,1.086841e-004
1.402453e-003,1.453108e-004
1.405208e-003,1.777239e-004
1.363557e-003,2.041406e-004
1.309589e-003,2.232643e-004
1.267776e-003,2.359054e-004
1.233742e-003,2.454672e-004
1.174426e-003,2.540567e-004
1.042829e-003,2.597290e-004
8.104272e-004,2.595669e-004
5.003960e-004,2.572980e-004
1.850168e-004,2.540567e-004
-5.581224e-005,2.524360e-004
-1.733096e-004,2.514636e-004
-1.528894e-004,2.477361e-004
-1.610624e-005,2.399570e-004
1.911753e-004,2.290986e-004
3.924605e-004,2.171058e-004
5.196818e-004,2.093267e-004
5.543638e-004,2.052750e-004
5.472330e-004,2.015475e-004
5.671670e-004,1.892305e-004
6.459308e-004,1.642725e-004
7.541905e-004,1.307250e-004
8.353853e-004,9.652917e-005
8.522401e-004,6.832980e-005
8.055653e-004,4.985435e-005
7.269635e-004,4.726130e-005
6.483617e-004,5.844381e-005
5.778633e-004,7.805372e-005
5.000719e-004,1.004187e-004
3.934329e-004,1.205148e-004
2.423880e-004,1.362352e-004
5.941620e-005,1.459591e-004
-1.128592e-004,1.448246e-004
-2.395943e-004,1.312112e-004
-3.220855e-004,1.098185e-004
-3.948528e-004,8.648112e-005
-5.006815e-004,6.654708e-005
-6.478368e-004,4.693717e-005
-7.956403e-004,2.441009e-005
-8.700282e-004,4.244267e-007
-8.230293e-004,-1.999580e-005
-6.749016e-004,-3.409549e-005
-5.084606e-004,-4.106429e-005
-4.199730e-004,-4.689865e-005
-4.567618e-004,-5.451572e-005
-5.867381e-004,-6.488790e-005
-7.337314e-004,-7.590833e-005
-8.317808e-004,-8.628052e-005
-8.638698e-004,-9.535618e-005
-8.534976e-004,-1.057284e-004
-8.345360e-004,-1.177212e-004
-8.218948e-004,-1.314967e-004
-8.001782e-004,-1.446240e-004
-7.410243e-004,-1.525652e-004
-6.279027e-004,-1.541859e-004
-4.682684e-004,-1.512687e-004
-2.875656e-004,-1.478653e-004
-1.094559e-004,-1.470550e-004
5.358185e-005,-1.462447e-004
1.918236e-004,-1.433275e-004
2.921420e-004,-1.360346e-004
3.467581e-004,-1.266348e-004
3.571303e-004,-1.182074e-004
3.355756e-004,-1.133454e-004
2.987867e-004,-1.133454e-004
2.595669e-004,-1.157764e-004
2.218057e-004,-1.154523e-004
1.898788e-004,-1.076731e-004
1.707551e-004,-9.033215e-005
1.730240e-004,-6.099833e-005
1.992786e-004,-1.837515e-005
2.368777e-004,3.413401e-005
2.673460e-004,8.729144e-005
2.871180e-004,1.266733e-004
3.038107e-004,1.501728e-004
3.311998e-004,1.623277e-004
3.770643e-004,1.683241e-004
4.376768e-004,1.710792e-004
5.107683e-004,1.697827e-004
5.950422e-004,1.665414e-004
6.906608e-004,1.676758e-004
7.854691e-004,1.714034e-004
8.460816e-004,1.759412e-004
8.172340e-004,1.791825e-004
6.491721e-004,1.777239e-004
3.503235e-004,1.714034e-004
5.934648e-006,1.657311e-004
-2.801106e-004,1.637863e-004
-4.536825e-004,1.662173e-004
-5.266119e-004,1.692965e-004
-5.536768e-004,1.712413e-004
-5.740970e-004,1.704310e-004
-5.807417e-004,1.678379e-004
-5.384427e-004,1.623277e-004
-4.290486e-004,1.534141e-004
-2.906449e-004,1.451488e-004
-1.900023e-004,1.383420e-004
-1.840059e-004,1.383420e-004
-2.924276e-004,1.504969e-004
-5.057055e-004,1.694586e-004
-7.995299e-004,1.877720e-004
-1.127712e-003,1.968476e-004
-1.413919e-003,1.931201e-004
-1.581009e-003,1.770756e-004
-1.571123e-003,1.550348e-004
-1.369676e-003,1.339663e-004
-1.026259e-003,1.163011e-004
-6.209339e-004,9.766362e-005
-2.207947e-004,7.529860e-005
1.282940e-004,5.455425e-005
4.033189e-004,4.110282e-005
6.212969e-004,3.769945e-005
8.089686e-004,4.304761e-005
9.880509e-004,5.374392e-005
1.163730e-003,6.444023e-005
1.312830e-003,7.076078e-005
1.371822e-003,7.594687e-005
1.261456e-003,7.967438e-005
9.381349e-004,7.691926e-005
4.292493e-004,6.022653e-005
-1.694200e-004,2.651694e-005
-7.361624e-004,-1.934754e-005
-1.192862e-003,-6.812920e-005
-1.536117e-003,-1.065387e-004
-1.803200e-003,-1.302002e-004
-2.027499e-003,-1.439758e-004
-2.197992e-003,-1.546721e-004
-2.268166e-003,-1.703924e-004
-2.189727e-003,-1.924333e-004
-1.928315e-003,-2.177155e-004
-1.482959e-003,-2.373254e-004
-9.063309e-004,-2.433218e-004
-3.015032e-004,-2.378116e-004
2.106232e-004,-2.259808e-004
5.224369e-004,-2.126914e-004
5.768909e-004,-2.011848e-004
4.195254e-004,-1.906506e-004
1.934442e-004,-1.810887e-004
7.302970e-005,-1.712027e-004
1.702689e-004,-1.616409e-004
4.856481e-004,-1.536997e-004
9.297074e-004,-1.462447e-004
1.377657e-003,-1.387897e-004
1.723343e-003,-1.327933e-004
1.912149e-003,-1.285796e-004
1.945373e-003,-1.214487e-004
1.861585e-003,-1.071869e-004
1.723829e-003,-8.482193e-005
1.593528e-003,-5.840528e-005
1.513144e-003,-2.842320e-005
1.494020e-003,1.234753e-006
1.511037e-003,2.457216e-005
1.515250e-003,3.883391e-005
1.464848e-003,4.904402e-005
1.343785e-003,6.233338e-005
1.165351e-003,8.145709e-005
9.664963e-004,1.034980e-004
7.994067e-004,1.250527e-004
6.976296e-004,1.446626e-004
6.530617e-004,1.586002e-004
6.212969e-004,1.613553e-004
5.554983e-004,1.475797e-004
4.380009e-004,1.203528e-004
2.871180e-004,9.182927e-005
1.232699e-004,7.011252e-005
-3.733679e-005,5.698522e-005
-1.712027e-004,5.082674e-005
-2.457528e-004,5.034055e-005
-2.266291e-004,5.260946e-005
-1.002181e-004,5.779555e-005
9.409818e-005,7.043665e-005
2.898731e-004,9.118101e-005
4.185530e-004,1.185701e-004
4.435111e-004,1.449867e-004
3.973225e-004,1.645966e-004
3.469201e-004,1.730240e-004
3.240689e-004,1.710792e-004
3.141829e-004,1.650828e-004
2.735045e-004,1.587623e-004
1.762653e-004,1.534141e-004
2.554455e-005,1.508211e-004
-1.579134e-004,1.500107e-004
-3.501228e-004,1.487142e-004
-5.327704e-004,1.446626e-004
-6.969426e-004,1.385041e-004
-8.364808e-004,1.312112e-004
-9.465230e-004,1.240803e-004
-1.034525e-003,1.197045e-004
-1.113774e-003,1.179218e-004
-1.195131e-003,1.184080e-004
-1.268871e-003,1.179218e-004
-1.306308e-003,1.132219e-004
-1.278919e-003,1.034980e-004
-1.178925e-003,8.696731e-005
-1.016859e-003,6.055066e-005
-8.176812e-004,2.149292e-005
-6.107238e-004,-2.096820e-005
-4.228902e-004,-5.824322e-005
-2.642282e-004,-8.271508e-005
-1.242038e-004,-9.454585e-005
1.160693e-005,-9.616651e-005
1.449867e-004,-8.692878e-005
2.705873e-004,-7.072225e-005
3.866261e-004,-5.629844e-005
4.931031e-004,-4.884343e-005
5.882355e-004,-4.754691e-005
6.686199e-004,-4.803310e-005
7.230740e-004,-4.722278e-005
7.413874e-004,-4.398147e-005
7.259911e-004,-4.090223e-005
6.963331e-004,-3.539201e-005
6.726716e-004,-2.388537e-005
6.631098e-004,-8.327101e-006
6.624615e-004,3.827799e-006
6.355586e-004,4.962256e-006
5.281092e-004,-3.627206e-006
3.023522e-004,-1.610624e-005
-5.759496e-005,-3.198864e-005
-5.267740e-004,-4.868137e-005
-1.028204e-003,-6.261898e-005
-1.441308e-003,-7.315322e-005
-1.657017e-003,-8.044617e-005
-1.645673e-003,-8.206682e-005
-1.471777e-003,-7.898758e-005
-1.241158e-003,-7.023606e-005
-1.029825e-003,-5.921561e-005
-8.601423e-004,-4.754691e-005
-7.204420e-004,-3.749886e-005
-5.909518e-004,-2.907146e-005
-4.577342e-004,-1.967167e-005
-3.181960e-004,-6.058186e-006
-1.771992e-004,9.013889e-006
-4.689865e-005,2.278944e-005
7.238143e-005,3.105477e-005
2.007372e-004,3.526847e-005
3.681507e-004,4.239934e-005
5.903424e-004,5.925414e-005
8.536987e-004,8.891209e-005
1.135044e-003,1.310491e-004
1.406666e-003,1.825859e-004
1.627238e-003,2.406053e-004
1.750408e-003,3.015418e-004
1.741818e-003,3.593992e-004
1.605845e-003,4.018603e-004
1.379764e-003,4.185530e-004
1.110411e-003,4.093153e-004
8.483506e-004,3.793332e-004
6.298863e-004,3.381686e-004
4.495075e-004,2.974902e-004
2.647530e-004,2.655633e-004
2.781346e-005,2.420638e-004
-2.809209e-004,2.232643e-004
-6.317923e-004,2.065715e-004
-9.544643e-004,1.885823e-004
-1.174387e-003,1.705930e-004
-1.233703e-003,1.480659e-004
-1.105347e-003,1.187321e-004
-8.040677e-004,8.664318e-005
-3.898288e-004,5.504044e-005
3.299956e-005,2.797553e-005
3.555096e-004,8.527692e-006
5.122268e-004,-3.303076e-006
4.896998e-004,-9.299493e-006
3.250413e-004,-4.761664e-006
8.242948e-005,1.257933e-005
-1.713648e-004,3.591673e-005
-3.912874e-004,5.552663e-005
-5.606457e-004,6.508849e-005
-6.763602e-004,6.573675e-005
-7.334072e-004,6.200925e-005
-7.266005e-004,5.747142e-005
-6.734431e-004,5.066468e-005
-6.210960e-004,3.543054e-005
-6.154237e-004,6.420843e-006
-6.737672e-004,-3.490581e-005
-7.703581e-004,-8.222889e-005
-8.444220e-004,-1.280934e-004
-8.366429e-004,-1.655305e-004
-7.274108e-004,-1.880575e-004
-5.309877e-004,-1.961608e-004
-2.747625e-004,-1.956746e-004
1.452411e-005,-1.945401e-004
3.086727e-004,-1.969711e-004
5.676532e-004,-1.979435e-004
7.569456e-004,-1.972953e-004
8.538608e-004,-1.908126e-004
8.489988e-004,-1.767130e-004
7.550009e-004,-1.614788e-004
5.984457e-004,-1.483515e-004
4.029947e-004,-1.397621e-004
1.859892e-004,-1.389517e-004
-3.960571e-005,-1.449482e-004
-2.454286e-004,-1.528894e-004
-4.003631e-004,-1.592099e-004
-4.856094e-004,-1.585616e-004
-5.003574e-004,-1.462447e-004
-4.504412e-004,-1.274451e-004
-3.433161e-004,-1.099421e-004
-1.963229e-004,-9.681477e-005
-3.782299e-005,-8.433573e-005
1.112771e-004,-6.294311e-005
2.566497e-004,-2.437157e-005
4.046154e-004,2.748934e-005
5.490156e-004,8.113296e-005
6.700786e-004,1.250527e-004
7.441425e-004,1.582761e-004
7.530560e-004,1.846927e-004
7.037881e-004,2.090025e-004
6.203245e-004,2.276400e-004
5.178991e-004,2.367157e-004
4.012120e-004,2.284504e-004
2.749631e-004,2.049509e-004
1.511452e-004,1.723757e-004
4.158902e-005,1.362352e-004
-6.472583e-005,1.007429e-004
-2.057227e-004,6.670914e-005
-4.055492e-004,4.094075e-005
-6.300096e-004,3.154097e-005
-7.864026e-004,4.013043e-005
-7.958024e-004,6.217132e-005
-6.531850e-004,8.891209e-005
-4.040906e-004,1.124116e-004
-9.551824e-005,1.252147e-004
2.159713e-004,1.247285e-004
4.726828e-004,1.140322e-004
6.336138e-004,1.012291e-004
6.859610e-004,8.793970e-005
6.473894e-004,7.481241e-005
5.590637e-004,6.346784e-005
4.632831e-004,6.314371e-005
3.890571e-004,8.080883e-005
3.394651e-004,1.096565e-004
3.099692e-004,1.363972e-004
2.939248e-004,1.501728e-004
2.893870e-004,1.469315e-004
3.104554e-004,1.338042e-004
3.752816e-004,1.190562e-004
4.903480e-004,1.065772e-004
6.405826e-004,9.896015e-005
7.955172e-004,9.750156e-005
9.162560e-004,9.928428e-005
9.763823e-004,1.000946e-004
9.700617e-004,9.717743e-005
9.109079e-004,9.442231e-005
8.230684e-004,9.944634e-005
7.282600e-004,1.180839e-004
6.478756e-004,1.453108e-004
5.999042e-004,1.654069e-004
5.942319e-004,1.665414e-004
6.324793e-004,1.472556e-004
7.084881e-004,1.151667e-004
8.000550e-004,7.918817e-005
8.818981e-004,4.985435e-005
9.332729e-004,3.154097e-005
9.282488e-004,2.035846e-005
8.327923e-004,1.241726e-005
6.360448e-004,2.207145e-006
3.900295e-004,-1.610624e-005
1.801549e-004,-3.944364e-005
6.168512e-005,-6.148453e-005
6.907040e-006,-8.206682e-005
-7.817725e-005,-1.010285e-004
-2.831898e-004,-1.211246e-004
-6.484850e-004,-1.400862e-004
-1.156884e-003,-1.601823e-004
-1.742750e-003,-1.796301e-004
-2.314193e-003,-1.919471e-004
-2.793907e-003,-1.919471e-004
-3.135218e-003,-1.853024e-004
-3.297770e-003,-1.820611e-004
-3.235698e-003,-1.877334e-004
-2.909460e-003,-2.042641e-004
-2.326834e-003,-2.285739e-004
-1.565126e-003,-2.536940e-004
-7.721409e-004,-2.741142e-004
-1.217728e-004,-2.848105e-004
2.582704e-004,-2.820554e-004
3.438409e-004,-2.658489e-004
2.002510e-004,-2.360289e-004
-5.467778e-005,-1.953505e-004
-2.980999e-004,-1.478653e-004
-4.347209e-004,-1.007043e-004
-4.277521e-004,-6.002594e-005
-3.049066e-004,-2.534396e-005
-1.263107e-004,5.448452e-006
5.617490e-005,3.607880e-005
2.188885e-004,6.670914e-005
3.673404e-004,9.474644e-005
5.050959e-004,1.137081e-004
6.281036e-004,1.216493e-004
7.334462e-004,1.203528e-004
8.141547e-004,1.148425e-004
8.697432e-004,1.078737e-004
9.060458e-004,1.038221e-004
9.246834e-004,1.046324e-004
9.159319e-004,1.124116e-004
8.770361e-004,1.266733e-004
8.203132e-004,1.443384e-004
7.619697e-004,1.608691e-004
7.199947e-004,1.759412e-004
7.138362e-004,1.885823e-004
7.512733e-004,1.961994e-004
8.238787e-004,2.000889e-004
9.102596e-004,2.036544e-004
9.937233e-004,2.096508e-004
1.058063e-003,2.175920e-004
1.089666e-003,2.294227e-004
1.077511e-003,2.406053e-004
1.021437e-003,2.461155e-004
9.207938e-004,2.504913e-004
7.780141e-004,2.543808e-004
5.956905e-004,2.581083e-004
3.916502e-004,2.607014e-004
1.882582e-004,2.623220e-004
5.610517e-006,2.649151e-004
-1.447861e-004,2.696149e-004
-2.530457e-004,2.678322e-004
-3.165753e-004,2.556773e-004
-3.420196e-004,2.367157e-004
-3.412093e-004,2.153231e-004
-3.280820e-004,1.974959e-004
-3.052308e-004,1.885823e-004
-2.583939e-004,1.866375e-004
-1.843300e-004,1.859892e-004
-1.049180e-004,1.822617e-004
-5.921561e-005,1.688103e-004
-8.449780e-005,1.475797e-004
-1.990780e-004,1.205148e-004
-3.959873e-004,9.328786e-005
-6.395715e-004,7.108491e-005
-8.591699e-004,5.277153e-005
-9.818533e-004,3.640293e-005
-9.745604e-004,1.695509e-005
-8.379394e-004,-1.027188e-005
-6.031067e-004,-4.300908e-005
-3.207890e-004,-7.509801e-005
-4.398147e-005,-9.924574e-005
1.885823e-004,-1.092938e-004
3.522683e-004,-1.114006e-004
4.480489e-004,-1.190177e-004
4.931031e-004,-1.392759e-004
5.002340e-004,-1.737958e-004
4.658761e-004,-2.157707e-004
3.790091e-004,-2.554767e-004
2.265056e-004,-2.802727e-004
5.772582e-006,-2.784900e-004
-2.692523e-004,-2.472114e-004
-5.846313e-004,-1.959987e-004
-9.252926e-004,-1.418689e-004
-1.248289e-003,-9.989401e-005
-1.479070e-003,-7.623246e-005
-1.553458e-003,-7.331530e-005
-1.443740e-003,-8.790117e-005
-1.170335e-003,-1.099421e-004
-8.084435e-004,-1.310105e-004
-4.635685e-004,-1.451102e-004
-2.318152e-004,-1.481895e-004
-1.509446e-004,-1.381414e-004
-1.861127e-004,-1.214487e-004
-2.541802e-004,-1.032974e-004
-2.726556e-004,-8.482193e-005
-2.037779e-004,-6.342931e-005
-6.018800e-005,-3.863332e-005
1.248906e-004,-1.562004e-005
3.117519e-004,-3.789272e-006
4.597176e-004,-1.196227e-006
5.439916e-004,-3.303076e-006
5.632775e-004,-3.303076e-006
5.435055e-004,1.396819e-006
5.284334e-004,8.041497e-006
5.590637e-004,1.322759e-005
6.480376e-004,1.630683e-005
7.759072e-004,2.003433e-005
9.006977e-004,2.489629e-005
9.754099e-004,3.478228e-005
9.825408e-004,4.953022e-005
9.436450e-004,6.897806e-005
8.942151e-004,9.717743e-005
8.593710e-004,1.363972e-004
8.365198e-004,1.824238e-004
8.092928e-004,2.260194e-004
7.587284e-004,2.550291e-004
6.762370e-004,2.629703e-004
5.456123e-004,2.524360e-004
3.462718e-004,2.337985e-004
5.601284e-005,2.174299e-004
-3.237062e-004,2.080301e-004
-7.481552e-004,2.043026e-004
-1.142298e-003,2.020337e-004
-1.433529e-003,1.983062e-004
-1.575012e-003,1.942546e-004
-1.554754e-003,1.923098e-004
-1.395768e-003,1.955511e-004
-1.150725e-003,2.036544e-004
-8.721352e-004,2.120818e-004
-5.776625e-004,2.128921e-004
-2.694143e-004,2.041406e-004
3.575467e-005,1.902029e-004
2.932765e-004,1.756171e-004
4.524247e-004,1.663793e-004
4.846757e-004,1.620036e-004
4.107739e-004,1.551968e-004
2.986247e-004,1.380179e-004
2.250470e-004,1.103047e-004
2.318537e-004,7.999851e-005
3.169380e-004,5.196120e-005
4.496696e-004,2.959619e-005
5.956905e-004,1.338965e-005
7.285841e-004,1.883015e-006
8.298751e-004,-9.623623e-006
8.797912e-004,-2.129233e-005
8.603434e-004,-3.117831e-005
7.739625e-004,-3.798505e-005
6.501445e-004,-4.009191e-005
5.357263e-004,-3.766092e-005
4.709002e-004,-3.069211e-005
4.721967e-004,-1.821308e-005
5.271368e-004,-2.168618e-006
6.080075e-004,1.387585e-005
6.789921e-004,2.489629e-005
7.128638e-004,2.603075e-005
7.044364e-004,1.582063e-005
6.629477e-004,-3.141010e-006
5.963388e-004,-2.356124e-005
5.036374e-004,-4.203669e-005
3.770643e-004,-5.710876e-005
2.081922e-004,-6.748094e-005
-1.092015e-005,-7.153257e-005
-2.755728e-004,-6.910160e-005
-5.642111e-004,-6.407757e-005
-8.327533e-004,-6.164659e-005
-1.022208e-003,-6.877746e-005
-1.093678e-003,-8.871149e-005
-1.044086e-003,-1.175591e-004
-8.941760e-004,-1.470550e-004
-6.745775e-004,-1.692580e-004
-4.215936e-004,-1.848162e-004
-1.723372e-004,-1.966470e-004
2.927205e-005,-2.045882e-004
1.404489e-004,-2.044261e-004
1.255389e-004,-1.922712e-004
-2.615429e-005,-1.687718e-004
-2.827037e-004,-1.399241e-004
-5.728005e-004,-1.169109e-004
-8.040677e-004,-1.057284e-004
-9.026034e-004,-1.068628e-004
-8.538218e-004,-1.118868e-004
-7.129870e-004,-1.089697e-004
-5.527044e-004,-9.357346e-005
-4.149489e-004,-6.699475e-005
-2.942103e-004,-3.879538e-005
-1.480274e-004,-1.270286e-005
6.622294e-005,1.176900e-005
3.530786e-004,4.013043e-005
6.707268e-004,7.302970e-005
9.425106e-004,1.069013e-004
1.107331e-003,1.359110e-004
1.148172e-003,1.517934e-004
1.090152e-003,1.540623e-004
9.852959e-004,1.440143e-004
8.713639e-004,1.308870e-004
7.655351e-004,1.214872e-004
6.682958e-004,1.167873e-004
5.700842e-004,1.122495e-004
4.537212e-004,1.036600e-004
2.952213e-004,9.069481e-005
8.858796e-005,7.983644e-005
-1.297140e-004,7.562274e-005
-2.987481e-004,7.821578e-005
-3.723258e-004,8.502253e-005
-3.488263e-004,9.652917e-005
-2.681178e-004,1.120874e-004
-1.948643e-004,1.307250e-004
-2.003745e-004,1.464453e-004
-3.240303e-004,1.584381e-004
-5.551354e-004,1.707551e-004
-8.290258e-004,1.820997e-004
-1.055593e-003,1.879340e-004
-1.153480e-003,1.861513e-004
-1.080875e-003,1.803169e-004
-8.449082e-004,1.738343e-004
-5.018159e-004,1.714034e-004
-1.323071e-004,1.736723e-004
1.822617e-004,1.757791e-004
3.901916e-004,1.736723e-004
4.867825e-004,1.657311e-004
4.968306e-004,1.521176e-004
4.605280e-004,1.360731e-004
4.101256e-004,1.229458e-004
3.636129e-004,1.180839e-004
3.276344e-004,1.187321e-004
3.130485e-004,1.197045e-004
3.287688e-004,1.159770e-004
3.743092e-004,1.034980e-004
4.464283e-004,8.259155e-005
5.332953e-004,5.520250e-005
6.164349e-004,2.376183e-005
6.823955e-004,-9.461558e-006
7.306910e-004,-4.090223e-005
7.687764e-004,-6.569822e-005
8.097790e-004,-8.255302e-005
8.637467e-004,-9.486997e-005
9.350556e-004,-1.057284e-004
1.016737e-003,-1.135075e-004
1.081077e-003,-1.199901e-004
1.085128e-003,-1.240417e-004
9.891854e-004,-1.220970e-004
7.660213e-004,-1.135075e-004
4.303838e-004,-9.827335e-005
4.499239e-005,-8.190475e-005
-3.058790e-004,-6.748094e-005
-5.609698e-004,-5.775702e-005
-7.056941e-004,-5.565017e-005
-7.585274e-004,-6.083626e-005
-7.640376e-004,-7.218083e-005
-7.721409e-004,-8.676672e-005
-8.381014e-004,-1.062146e-004
-1.026097e-003,-1.308485e-004
-1.357845e-003,-1.559686e-004
-1.770949e-003,-1.765509e-004
-2.143376e-003,-1.861127e-004
-2.335262e-003,-1.841680e-004
-2.225381e-003,-1.752544e-004
-1.783266e-003,-1.656925e-004
-1.099027e-003,-1.564548e-004
-3.284061e-004,-1.412206e-004
3.747954e-004,-1.149661e-004
9.036149e-004,-7.509801e-005
1.202788e-003,-2.745081e-005
1.242008e-003,1.825161e-005
1.029054e-003,5.390598e-005
6.297242e-004,7.999851e-005
1.385041e-004,1.017153e-004
-3.403989e-004,1.210010e-004
-7.105560e-004,1.404489e-004
-9.102205e-004,1.644345e-004
-9.235098e-004,1.968476e-004
-7.886715e-004,2.349330e-004
-5.833348e-004,2.743149e-004
-3.877220e-004,3.054314e-004
-2.650386e-004,3.193690e-004
-2.514251e-004,3.182346e-004
-3.433161e-004,3.086727e-004
-4.872300e-004,2.970040e-004
-6.008379e-004,2.851732e-004
-6.052136e-004,2.757735e-004
-4.457413e-004,2.663737e-004
-1.253383e-004,2.503292e-004
2.848491e-004,2.247229e-004
6.922815e-004,1.882582e-004
1.020950e-003,1.483901e-004
1.240063e-003,1.135460e-004
1.369715e-003,9.215340e-005
1.433407e-003,8.810177e-005
1.436324e-003,9.393612e-005
1.371822e-003,1.025256e-004
1.233742e-003,1.083599e-004
1.038453e-003,1.114392e-004
8.342508e-004,1.117633e-004
6.681338e-004,1.117633e-004
5.404262e-004,1.138702e-004
4.054258e-004,1.185701e-004
2.175920e-004,1.216493e-004
-2.647842e-005,1.163011e-004
-2.830278e-004,1.017153e-004
-4.933886e-004,7.870197e-005
-6.337371e-004,5.131294e-005
-7.180111e-004,1.873781e-005
-7.654962e-004,-1.772689e-005
-7.794338e-004,-5.354332e-005
-7.442656e-004,-8.077030e-005
-6.405439e-004,-9.146661e-005
-4.653512e-004,-8.709085e-005
-2.355427e-004,-7.282909e-005
1.387585e-005,-6.051213e-005
2.380122e-004,-6.018800e-005
4.060740e-004,-7.461182e-005
5.091476e-004,-9.713889e-005
5.532294e-004,-1.154523e-004
5.475571e-004,-1.243659e-004
5.037994e-004,-1.235555e-004
4.396215e-004,-1.175591e-004
3.851676e-004,-1.101041e-004
3.762539e-004,-1.045939e-004
4.321665e-004,-1.036215e-004
5.480433e-004,-1.097800e-004
6.981159e-004,-1.201522e-004
8.434886e-004,-1.314967e-004
9.370004e-004,-1.444620e-004
9.384590e-004,-1.587237e-004
8.475402e-004,-1.681235e-004
7.015193e-004,-1.605064e-004
5.579292e-004,-1.300382e-004
4.704139e-004,-7.769106e-005
4.493454e-004,-1.626830e-005
4.621486e-004,3.559260e-005
4.577728e-004,6.460230e-005
3.736609e-004,7.254349e-005
1.564933e-004,6.816773e-005
-2.120432e-004,6.136099e-005
-6.877048e-004,5.520250e-005
-1.183949e-003,4.920609e-005
-1.612450e-003,3.899597e-005
-1.901412e-003,2.359977e-005
-2.002379e-003,5.934648e-006
-1.894281e-003,-1.189254e-005
-1.578740e-003,-2.842320e-005
-1.099675e-003,-4.333321e-005
-5.493010e-004,-5.240886e-005
-4.009191e-005,-5.548811e-005
3.405996e-004,-5.386745e-005
5.488536e-004,-4.738484e-005
5.958526e-004,-3.312309e-005
5.321609e-004,-4.113403e-006
4.242253e-004,3.753739e-005
3.192070e-004,8.097089e-005
2.444948e-004,1.188942e-004
2.138645e-004,1.479039e-004
2.145127e-004,1.650828e-004
2.132162e-004,1.718896e-004
1.837203e-004,1.715654e-004
1.156529e-004,1.689724e-004
2.214118e-005,1.707551e-004
-5.516398e-005,1.819376e-004
-7.056019e-005,1.994406e-004
-1.196227e-006,2.149989e-004
1.320215e-004,2.216436e-004
2.796630e-004,2.172679e-004
3.850055e-004,1.991165e-004
4.206599e-004,1.707551e-004
3.976466e-004,1.415833e-004
3.451374e-004,1.213252e-004
2.866318e-004,1.140322e-004
2.333123e-004,1.161391e-004
1.914995e-004,1.205148e-004
1.704310e-004,1.232699e-004
1.780480e-004,1.222976e-004
2.182402e-004,1.137081e-004
2.780424e-004,9.782569e-005
3.276344e-004,8.242948e-005
3.286068e-004,7.481241e-005
2.657254e-004,7.740546e-005
1.624898e-004,8.372601e-005
6.103686e-005,8.486046e-005
-6.706447e-006,7.886404e-005
-2.226472e-005,6.816773e-005
1.533444e-005,5.601284e-005
9.101894e-005,4.320967e-005
1.738343e-004,2.959619e-005
2.393087e-004,1.403791e-005
2.769079e-004,-3.303076e-006
2.846870e-004,-1.740276e-005
2.607014e-004,-2.372331e-005
2.041406e-004,-2.031993e-005
1.214872e-004,-1.010982e-005
3.040651e-005,1.883015e-006
-5.386745e-005,6.096713e-006
-1.172350e-004,1.002961e-007
-1.473791e-004,-1.464765e-005
-1.436516e-004,-3.458168e-005
-1.201522e-004,-5.078821e-005
-9.146661e-005,-5.516398e-005
-6.974985e-005,-5.224680e-005
-6.326724e-005,-5.062615e-005
-7.169464e-005,-6.035007e-005
-8.725291e-005,-8.109443e-005
-1.063766e-004,-1.055663e-004
-1.366828e-004,-1.267968e-004
-1.934057e-004,-1.452723e-004
-2.878898e-004,-1.635857e-004
-4.066836e-004,-1.806025e-004
-4.946851e-004,-1.971332e-004
-5.010056e-004,-2.065330e-004
-4.071698e-004,-1.997262e-004
-2.363530e-004,-1.754164e-004
-3.458168e-005,-1.347380e-004
1.415833e-004,-8.595638e-005
2.389846e-004,-3.895745e-005
2.357433e-004,-2.816880e-006
1.498487e-004,1.857574e-005
3.137890e-005,3.040651e-005
-4.884343e-005,3.656499e-005
-4.122636e-005,4.223728e-005
5.925414e-005,5.277153e-005
2.154851e-004,7.092284e-005
3.723644e-004,8.988449e-005
4.900239e-004,1.039842e-004
5.658705e-004,1.073875e-004
6.170832e-004,1.007429e-004
6.519272e-004,8.583286e-005
6.558168e-004,6.784360e-005
6.169211e-004,5.601284e-005
5.657084e-004,5.358185e-005
5.749461e-004,6.168512e-005
7.021675e-004,7.805372e-005
9.376486e-004,1.010670e-004
1.196305e-003,1.274836e-004
1.361774e-003,1.527658e-004
1.347675e-003,1.712413e-004
1.124672e-003,1.761032e-004
7.420356e-004,1.704310e-004
3.106175e-004,1.620036e-004
-5.629844e-005,1.590864e-004
-2.867553e-004,1.618415e-004
-3.814014e-004,1.678379e-004
-4.282383e-004,1.720516e-004
-5.770142e-004,1.764274e-004
-9.366371e-004,1.825859e-004
-1.506135e-003,1.892305e-004
-2.199126e-003,1.934442e-004
-2.898926e-003,1.902029e-004
-3.483173e-003,1.746447e-004
-3.852684e-003,1.500107e-004
-3.958999e-003,1.211631e-004
-3.796123e-003,8.826383e-005
-3.388365e-003,5.536457e-005
-2.793907e-003,2.732727e-005
-2.097673e-003,9.175954e-006
-1.397551e-003,1.002961e-007
-7.854302e-004,-7.516774e-006
-3.225718e-004,-1.724069e-005
-2.161646e-005,-2.874733e-005
1.516314e-004,-4.138842e-005
2.676702e-004,-5.257093e-005
3.910019e-004,-5.386745e-005
5.525811e-004,-4.495386e-005
7.530560e-004,-2.761287e-005
9.755720e-004,-4.761664e-006
1.200681e-003,2.424803e-005
1.406504e-003,5.585077e-005
1.568408e-003,8.178122e-005
1.673102e-003,9.280167e-005
1.732094e-003,8.648112e-005
1.768073e-003,6.751948e-005
1.785090e-003,4.418206e-005
1.764021e-003,2.359977e-005
1.687850e-003,1.468618e-005
1.562736e-003,2.262738e-005
1.404884e-003,4.726130e-005
1.211864e-003,8.145709e-005
9.590413e-004,1.127357e-004
6.222692e-004,1.308870e-004
2.237505e-004,1.328318e-004
-1.640719e-004,1.198666e-004
-4.622720e-004,9.426025e-005
-6.402197e-004,6.071273e-005
-7.131490e-004,3.008238e-005
-7.048837e-004,6.420843e-006
-6.377887e-004,-1.545797e-005
-5.287188e-004,-4.203669e-005
-3.972838e-004,-7.315322e-005
-2.784900e-004,-1.041077e-004
-1.974573e-004,-1.297140e-004
-1.387897e-004,-1.527273e-004
-5.597430e-005,-1.741199e-004
8.194328e-005,-1.948643e-004
2.634565e-004,-2.125294e-004
4.459421e-004,-2.263049e-004
5.715428e-004,-2.313290e-004
5.977973e-004,-2.261429e-004
5.263265e-004,-2.118811e-004
4.065602e-004,-1.959987e-004
3.047831e-004,-1.806025e-004
2.673460e-004,-1.681235e-004
2.976523e-004,-1.533756e-004
3.694472e-004,-1.318209e-004
4.553419e-004,-9.973194e-005
5.509604e-004,-5.629844e-005
6.674855e-004,-4.599598e-006
8.055653e-004,4.953022e-005
9.454277e-004,1.002567e-004
1.056605e-003,1.446626e-004
1.116731e-003,1.782101e-004
1.112031e-003,1.984683e-004
1.055794e-003,2.080301e-004
9.679549e-004,2.133783e-004
8.541849e-004,2.151610e-004
7.128638e-004,2.145127e-004
5.551741e-004,2.124059e-004
4.015361e-004,2.083542e-004
2.666978e-004,2.026820e-004
1.438522e-004,1.971717e-004
8.365628e-006,1.916615e-004
-1.595340e-004,1.822617e-004
-3.392644e-004,1.726999e-004
-4.681064e-004,1.615174e-004
-4.946851e-004,1.472556e-004
-4.185144e-004,1.315353e-004
-2.773555e-004,1.185701e-004
-1.183694e-004,1.083599e-004
7.555301e-006,1.020394e-004
5.455425e-005,9.863601e-005
2.531276e-006,9.863601e-005
-1.302002e-004,1.000946e-004
-2.875656e-004,9.912221e-005
-4.011734e-004,9.588091e-005
-4.353692e-004,9.215340e-005
-3.886944e-004,9.069481e-005
-2.780038e-004,9.263960e-005
-1.352242e-004,9.831188e-005
8.527692e-006,1.023635e-004
1.355869e-004,1.012291e-004
2.457913e-004,9.361199e-005
3.464339e-004,8.291568e-005
4.368664e-004,7.238143e-005
4.982892e-004,6.298164e-005
5.044477e-004,5.293359e-005
4.269804e-004,3.867184e-005
2.431983e-004,1.971020e-005
-4.365734e-005,-2.168618e-006
-3.831841e-004,-2.583016e-005
-7.129870e-004,-4.884343e-005
-9.842842e-004,-7.120844e-005
-1.154939e-003,-9.373552e-005
-1.186866e-003,-1.128592e-004
-1.052190e-003,-1.245279e-004
-7.630652e-004,-1.240417e-004
-3.828600e-004,-1.135075e-004
-1.351319e-005,-9.875954e-005
2.346088e-004,-8.709085e-005
2.772320e-004,-8.465986e-005
1.026876e-004,-9.065628e-005
-2.107467e-004,-1.052422e-004
-5.356876e-004,-1.255003e-004
-7.515585e-004,-1.498101e-004
-7.747339e-004,-1.752544e-004
-5.812279e-004,-1.887058e-004
-2.267911e-004,-1.814128e-004
1.645966e-004,-1.551583e-004
4.545315e-004,-1.170729e-004
5.577672e-004,-7.979791e-005
4.738173e-004,-5.208474e-005
2.824181e-004,-3.004385e-005
9.280167e-005,-7.516774e-006
-1.173047e-005,1.889987e-005
-2.168618e-006,4.742337e-005
9.085688e-005,7.497447e-005
2.012234e-004,9.490851e-005
2.764217e-004,1.020394e-004
2.948972e-004,9.814982e-005
2.715597e-004,9.231547e-005
2.196988e-004,9.296373e-005
1.402868e-004,9.912221e-005
1.889987e-005,1.080358e-004
-1.553203e-004,1.128978e-004
-3.839945e-004,1.120874e-004
-6.536711e-004,1.069013e-004
-9.285338e-004,1.034980e-004
-1.139381e-003,1.051186e-004
-1.210203e-003,1.130598e-004
-1.104861e-003,1.265113e-004
-8.452323e-004,1.412592e-004
-4.870680e-004,1.532520e-004
-9.892161e-005,1.602208e-004
2.404432e-004,1.598967e-004
4.665244e-004,1.542244e-004
5.469088e-004,1.401247e-004
4.955341e-004,1.182459e-004
3.503235e-004,9.263960e-005
1.717275e-004,6.978839e-005
4.061663e-005,5.293359e-005
3.462021e-005,4.239934e-005
1.730240e-004,4.045456e-005
3.919743e-004,4.742337e-005
5.773771e-004,5.811968e-005
6.180556e-004,6.687121e-005
4.726828e-004,7.578480e-005
1.772377e-004,8.486046e-005
-1.791439e-004,9.798775e-005
-4.917679e-004,1.154908e-004
-6.932151e-004,1.344524e-004
-7.598239e-004,1.487142e-004
-6.875428e-004,1.517934e-004
-4.940368e-004,1.415833e-004
-2.272773e-004,1.182459e-004
4.385793e-005,8.502253e-005
2.457913e-004,5.131294e-005
3.222862e-004,2.635488e-005
2.537325e-004,1.371378e-005
6.525056e-005,1.760335e-005
-1.817370e-004,3.494434e-005
-4.034423e-004,5.909208e-005
-5.162397e-004,8.242948e-005
-4.786406e-004,9.863601e-005
-3.042584e-004,1.070634e-004
-4.317115e-005,1.086841e-004
2.488706e-004,1.067393e-004
5.329712e-004,1.025256e-004
7.797969e-004,9.636710e-005
9.653618e-004,8.583286e-005
1.080104e-003,7.448828e-005
1.124024e-003,6.865393e-005
1.109600e-003,7.254349e-005
1.063574e-003,7.902610e-005
1.015440e-003,7.740546e-005
9.856200e-004,5.909208e-005
9.749237e-004,2.943412e-005
9.590413e-004,-3.627206e-006
9.042631e-004,-3.490581e-005
7.851450e-004,-6.116039e-005
5.937457e-004,-8.368748e-005
3.355756e-004,-1.029732e-004
3.267542e-005,-1.186936e-004
-2.690902e-004,-1.332795e-004
-5.087847e-004,-1.496481e-004
-6.470265e-004,-1.679614e-004
-6.797637e-004,-1.885437e-004
-6.351956e-004,-2.112329e-004
-5.706937e-004,-2.327876e-004
-5.585388e-004,-2.532078e-004
-6.385990e-004,-2.682799e-004
-7.857543e-004,-2.718453e-004
-9.283718e-004,-2.582318e-004
-9.962771e-004,-2.300324e-004
-9.450645e-004,-1.925954e-004
-7.650100e-004,-1.514308e-004
-4.891749e-004,-1.128592e-004
-1.841680e-004,-8.190475e-005
8.356394e-005,-6.326724e-005
2.798251e-004,-5.727083e-005
4.101256e-004,-5.921561e-005
4.905101e-004,-6.164659e-005
5.127130e-004,-5.678463e-005
4.529109e-004,-3.863332e-005
3.051073e-004,-1.092015e-005
1.062531e-004,1.906194e-005
-6.650855e-005,4.515445e-005
-1.352242e-004,6.346784e-005
-6.051213e-005,7.643307e-005
1.257009e-004,8.502253e-005
3.380065e-004,9.263960e-005
4.934272e-004,9.847395e-005
5.522569e-004,1.012291e-004
5.302161e-004,1.030118e-004
4.561522e-004,1.073875e-004
3.284447e-004,1.146805e-004
1.456350e-004,1.210010e-004
-7.234290e-005,1.203528e-004
-2.878898e-004,1.106288e-004
-4.658375e-004,9.604298e-005
-5.800935e-004,7.853991e-005
-6.082929e-004,6.638502e-005
-5.269361e-004,6.978839e-005
-3.245165e-004,9.280167e-005
-3.231277e-005,1.299146e-004
2.812837e-004,1.694586e-004
5.383193e-004,2.023578e-004
6.854748e-004,2.235884e-004
7.105949e-004,2.321778e-004
6.504686e-004,2.295848e-004
5.720290e-004,2.187264e-004
5.331332e-004,2.039785e-004
5.670050e-004,1.913374e-004
6.785059e-004,1.851789e-004
8.439748e-004,1.845306e-004
1.018843e-003,1.840444e-004
1.154168e-003,1.798307e-004
1.219643e-003,1.757791e-004
1.215267e-003,1.735102e-004
1.153034e-003,1.675138e-004
1.043802e-003,1.522796e-004
9.016701e-004,1.312112e-004
7.470596e-004,1.086841e-004
5.922872e-004,8.858796e-005
4.219564e-004,7.367795e-005
2.057612e-004,6.265751e-005
-6.391550e-005,5.568870e-005
-3.561192e-004,5.277153e-005
-6.275786e-004,4.985435e-005
-8.429634e-004,4.402000e-005
-9.787740e-004,4.013043e-005
-1.020101e-003,4.061663e-005
-9.549505e-004,4.369587e-005
-7.870508e-004,4.256141e-005
-5.447632e-004,3.559260e-005
-2.687660e-004,2.343770e-005
1.906194e-005,4.476060e-006
3.102934e-004,-2.583016e-005
5.671670e-004,-6.748094e-005
7.114052e-004,-1.167488e-004
6.631098e-004,-1.590478e-004
3.905157e-004,-1.780095e-004
-5.483985e-005,-1.692580e-004
-5.434667e-004,-1.371690e-004
-9.212409e-004,-9.130454e-005
-1.081199e-003,-4.090223e-005
-1.018642e-003,4.151929e-006
-8.346980e-004,3.640293e-005
-6.766844e-004,4.969229e-005
-6.475127e-004,4.920609e-005
-7.627411e-004,4.418206e-005
-9.654847e-004,4.175109e-005
-1.182166e-003,4.256141e-005
-1.365948e-003,4.531652e-005
-1.500300e-003,4.969229e-005
-1.576795e-003,5.325772e-005
-1.569340e-003,5.406805e-005
-1.448277e-003,4.985435e-005
-1.226086e-003,3.996837e-005
-9.470092e-004,2.732727e-005
-6.561021e-004,7.555301e-006
-3.909633e-004,-1.610624e-005
-1.794681e-004,-4.025397e-005
-3.441962e-005,-5.937768e-005
5.828175e-005,-7.088431e-005
1.252147e-004,-7.120844e-005
1.799928e-004,-6.002594e-005
2.263435e-004,-4.025397e-005
2.657254e-004,-1.788895e-005
2.816078e-004,-6.176923e-008
2.334744e-004,1.014835e-005
7.643307e-005,1.436204e-005
-1.951884e-004,2.052053e-005
-5.167259e-004,3.316162e-005
-7.823510e-004,5.115087e-005
-8.935277e-004,7.221937e-005
-8.073090e-004,9.150514e-005
-5.413599e-004,1.072255e-004
-1.446240e-004,1.224596e-004
3.188828e-004,1.388282e-004
7.725039e-004,1.564933e-004
1.142986e-003,1.710792e-004
1.387381e-003,1.803169e-004
1.508606e-003,1.812893e-004
1.548798e-003,1.728619e-004
1.562736e-003,1.556830e-004
1.575377e-003,1.326697e-004
1.582670e-003,1.120874e-004
1.588018e-003,9.733949e-005
1.621890e-003,9.134307e-005
1.719615e-003,9.069481e-005
1.889946e-003,9.053275e-005
2.093663e-003,8.777764e-005
2.258971e-003,8.145709e-005
2.298190e-003,6.816773e-005
2.135152e-003,5.001642e-005
1.727232e-003,3.462021e-005
1.085128e-003,2.667901e-005
2.713977e-004,2.424803e-005
-6.235270e-004,1.873781e-005
-1.493332e-003,3.503668e-006
-2.219385e-003,-2.275091e-005
-2.682406e-003,-5.629844e-005
-2.820324e-003,-8.968389e-005
-2.651289e-003,-1.162626e-004
-2.250663e-003,-1.326312e-004
-1.717144e-003,-1.365208e-004
-1.156074e-003,-1.255003e-004
-6.684191e-004,-9.778715e-005
-3.360231e-004,-5.273300e-005
-1.932436e-004,1.234753e-006
-2.188499e-004,5.163707e-005
-3.502849e-004,8.469840e-005
-5.084606e-004,9.426025e-005
-6.353577e-004,8.437427e-005
-7.157421e-004,6.119892e-005
-7.384312e-004,3.170304e-005
-6.959701e-004,7.485573e-007
-5.888450e-004,-2.647842e-005
-4.206212e-004,-4.608832e-005
-2.062088e-004,-5.289507e-005
2.910999e-005,-4.365734e-005
2.589186e-004,-1.902341e-005
4.611762e-004,1.792748e-005
6.225934e-004,6.119892e-005
7.457631e-004,1.018773e-004
8.353853e-004,1.287802e-004
8.865980e-004,1.365593e-004
8.998874e-004,1.289422e-004
8.828705e-004,1.101427e-004
8.465679e-004,8.421220e-005
7.840106e-004,5.811968e-005
6.799645e-004,3.591673e-005
5.368608e-004,1.679302e-005
3.794953e-004,-3.141010e-006
2.553532e-004,-2.615429e-005
2.098128e-004,-5.208474e-005
2.660495e-004,-7.914964e-005
4.046154e-004,-1.063766e-004
5.726772e-004,-1.229073e-004
7.041123e-004,-1.188556e-004
7.515975e-004,-9.243900e-005
6.997365e-004,-5.305713e-005
5.809425e-004,-1.659243e-005
4.613383e-004,5.448452e-006
3.971604e-004,6.420843e-006
3.947294e-004,-1.302700e-005
4.248736e-004,-4.884343e-005
4.451317e-004,-9.292520e-005
4.230909e-004,-1.329553e-004
3.495132e-004,-1.609926e-004
2.459534e-004,-1.712027e-004
1.548727e-004,-1.588858e-004
1.156529e-004,-1.285796e-004
1.427178e-004,-8.174268e-005
2.125679e-004,-1.756482e-005
2.657254e-004,6.022653e-005
2.383363e-004,1.393144e-004
1.015532e-004,2.077060e-004
-1.212866e-004,2.608634e-004
-3.724878e-004,2.926282e-004
-5.993792e-004,2.983005e-004
-7.692237e-004,2.819319e-004
-8.787798e-004,2.511395e-004
-9.491161e-004,2.127300e-004
-9.922255e-004,1.780480e-004
-1.005191e-003,1.571416e-004
-9.816912e-004,1.547106e-004
-9.173513e-004,1.621656e-004
-8.111986e-004,1.689724e-004
-6.789533e-004,1.652449e-004
-5.481666e-004,1.511452e-004
-4.342347e-004,1.295905e-004
-3.293785e-004,1.099806e-004
-2.123673e-004,1.002567e-004
-6.699475e-005,9.960841e-005
1.107909e-004,1.002567e-004
3.081865e-004,9.101894e-005
5.016926e-004,7.059871e-005
6.674855e-004,4.515445e-005
7.937344e-004,2.133085e-005
8.887049e-004,1.558884e-006
9.592033e-004,-1.286493e-005
9.925888e-004,-2.583016e-005
9.609861e-004,-3.976777e-005
8.561297e-004,-4.981582e-005
6.947125e-004,-5.046408e-005
5.076890e-004,-4.430560e-005
3.055935e-004,-3.490581e-005
7.675720e-005,-2.858527e-005
-1.556445e-004,-3.150244e-005
-3.209511e-004,-4.333321e-005
-3.491504e-004,-6.440170e-005
-2.235498e-004,-9.179074e-005
-5.571990e-006,-1.185315e-004
1.960373e-004,-1.428413e-004
2.965178e-004,-1.632615e-004
2.835526e-004,-1.721751e-004
1.966855e-004,-1.616409e-004
8.615699e-005,-1.302002e-004
-8.813297e-006,-8.465986e-005
-8.741498e-005,-3.344723e-005
-1.757406e-004,1.387585e-005
-2.924276e-004,4.855783e-005
-4.277521e-004,6.395404e-005
-5.540010e-004,6.362991e-005
-6.400577e-004,5.341979e-005
-6.702017e-004,3.543054e-005
-6.403818e-004,1.241726e-005
-5.426564e-004,-1.156841e-005
-3.726499e-004,-3.231277e-005
-1.402483e-004,-4.835724e-005
1.132219e-004,-6.407757e-005
3.245551e-004,-8.433573e-005
4.341113e-004,-1.083214e-004
4.140152e-004,-1.310105e-004
2.760976e-004,-1.436516e-004
5.406805e-005,-1.428413e-004
-1.990780e-004,-1.297140e-004
-4.280762e-004,-1.083214e-004
-5.920863e-004,-8.336335e-005
-6.541573e-004,-5.694670e-005
-5.951655e-004,-2.275091e-005
-4.149489e-004,2.181705e-005
-1.408965e-004,7.157111e-005
1.670276e-004,1.151667e-004
4.287631e-004,1.454729e-004
5.812666e-004,1.607070e-004
6.039558e-004,1.647587e-004
5.255162e-004,1.658931e-004
4.002396e-004,1.731861e-004
2.634565e-004,1.887444e-004
1.187321e-004,2.090025e-004
-4.155049e-005,2.235884e-004
-2.165810e-004,2.274780e-004
-3.869116e-004,2.229401e-004
-5.084606e-004,2.148369e-004
-5.321222e-004,2.101370e-004
-4.392588e-004,2.098128e-004
-2.616352e-004,2.145127e-004
-5.257093e-005,2.175920e-004
1.422316e-004,2.164575e-004
2.923041e-004,2.128921e-004
3.898674e-004,2.104611e-004
4.409181e-004,2.059233e-004
4.600418e-004,1.940925e-004
4.627969e-004,1.770756e-004
4.613383e-004,1.574657e-004
4.600418e-004,1.359110e-004
4.545315e-004,1.143563e-004
4.329769e-004,9.896015e-005
3.905157e-004,9.458438e-005
3.380065e-004,9.766362e-005
2.919800e-004,1.025256e-004
2.654013e-004,1.103047e-004
2.483844e-004,1.242423e-004
2.137024e-004,1.415833e-004
1.320215e-004,1.577899e-004
-1.788895e-005,1.663793e-004
-2.337599e-004,1.633001e-004
-4.773441e-004,1.522796e-004
-6.700397e-004,1.359110e-004
-7.369727e-004,1.174356e-004
-6.476747e-004,1.013911e-004
-4.379622e-004,9.215340e-005
-1.699062e-004,9.231547e-005
1.112771e-004,9.669123e-005
3.809539e-004,9.604298e-005
6.295622e-004,7.999851e-005
8.564538e-004,4.726130e-005
1.038453e-003,2.207145e-006
1.144444e-003,-4.641245e-005
1.154168e-003,-8.773911e-005
1.079618e-003,-1.165867e-004
9.590413e-004,-1.302002e-004
8.357094e-004,-1.284175e-004
7.433321e-004,-1.143178e-004
6.943883e-004,-9.405965e-005
6.867713e-004,-7.801519e-005
7.047605e-004,-7.250496e-005
7.139983e-004,-8.093236e-005
6.519272e-004,-1.044318e-004
4.423766e-004,-1.391138e-004
3.850978e-005,-1.752544e-004
-5.364979e-004,-2.011848e-004
-1.167418e-003,-2.053985e-004
-1.705961e-003,-1.877334e-004
-2.042247e-003,-1.614788e-004
-2.145807e-003,-1.407345e-004
-2.047271e-003,-1.357104e-004
-1.811142e-003,-1.459206e-004
-1.506135e-003,-1.650443e-004
-1.197886e-003,-1.817370e-004
-9.335579e-004,-1.935677e-004
-7.419967e-004,-2.002124e-004
-6.246614e-004,-2.045882e-004
-5.559457e-004,-2.102605e-004
-5.021401e-004,-2.160948e-004
-4.468758e-004,-2.151224e-004
-4.120317e-004,-1.995642e-004
-4.327761e-004,-1.660166e-004
-5.154294e-004,-1.177212e-004
-6.170443e-004,-6.213279e-005
-6.604778e-004,9.106227e-007
-5.980827e-004,6.930219e-005
-4.476861e-004,1.339663e-004
-2.729798e-004,1.837203e-004
-1.336036e-004,2.125679e-004
-4.787104e-005,2.187264e-004
4.151929e-006,2.046267e-004
6.281957e-005,1.783722e-004
1.613553e-004,1.485521e-004
3.068900e-004,1.248906e-004
4.713863e-004,1.177597e-004
6.127074e-004,1.307250e-004
6.934160e-004,1.573037e-004
6.926056e-004,1.859892e-004
6.198382e-004,2.094887e-004
5.029891e-004,2.231022e-004
3.804677e-004,2.260194e-004
2.884145e-004,2.214815e-004
2.462775e-004,2.104611e-004
2.524360e-004,1.945787e-004
2.816078e-004,1.754550e-004
3.031625e-004,1.579519e-004
3.119140e-004,1.469315e-004
3.286068e-004,1.419075e-004
3.888950e-004,1.393144e-004
5.287575e-004,1.339663e-004
7.543526e-004,1.297526e-004
1.031485e-003,1.284560e-004
1.303593e-003,1.294284e-004
1.509902e-003,1.257009e-004
1.609573e-003,1.125736e-004
1.589639e-003,9.344993e-005
1.459014e-003,7.627100e-005
1.248328e-003,6.784360e-005
1.009444e-003,7.286763e-005
7.950310e-004,8.875003e-005
6.295622e-004,1.146805e-004
5.021787e-004,1.495245e-004
3.884089e-004,1.910133e-004
3.005694e-004,2.290986e-004
2.833905e-004,2.530843e-004
3.658818e-004,2.603772e-004
5.217887e-004,2.537325e-004
6.728336e-004,2.346088e-004
7.396046e-004,1.981441e-004
6.807749e-004,1.470936e-004
5.060683e-004,8.988449e-005
2.543808e-004,3.624086e-005
-3.409549e-005,-8.975362e-006
-3.463953e-004,-4.641245e-005
-7.176869e-004,-7.995997e-005
-1.184921e-003,-1.126972e-004
-1.739023e-003,-1.447861e-004
-2.321810e-003,-1.736337e-004
-2.839772e-003,-1.972953e-004
-3.202151e-003,-2.206326e-004
-3.337638e-003,-2.470493e-004
-3.197451e-003,-2.752487e-004
-2.788397e-003,-2.985861e-004
-2.181461e-003,-3.123616e-004
-1.495600e-003,-3.159271e-004
-8.737558e-004,-3.105789e-004
-4.355313e-004,-3.002067e-004
-2.290601e-004,-2.870794e-004
-2.081536e-004,-2.697385e-004
-2.733039e-004,-2.467252e-004
-3.211132e-004,-2.201465e-004
-2.763831e-004,-1.956746e-004
-1.094559e-004,-1.762268e-004
1.577899e-004,-1.652063e-004
4.736553e-004,-1.593720e-004
7.810934e-004,-1.564548e-004
1.040236e-003,-1.494860e-004
1.223694e-003,-1.290658e-004
1.307158e-003,-9.081835e-005
1.281876e-003,-3.992984e-005
1.184474e-003,1.095867e-005
1.079942e-003,5.374392e-005
1.022895e-003,8.680524e-005
1.030188e-003,1.128978e-004
1.074918e-003,1.334801e-004
1.105062e-003,1.477418e-004
1.086101e-003,1.584381e-004
1.024516e-003,1.728619e-004
9.494794e-004,1.931201e-004
8.948633e-004,2.182402e-004
8.838429e-004,2.415777e-004
9.193352e-004,2.566497e-004
9.797857e-004,2.598910e-004
1.040560e-003,2.532463e-004
1.080104e-003,2.410915e-004
1.083021e-003,2.261814e-004
1.036671e-003,2.122438e-004
9.415382e-004,2.012234e-004
8.044308e-004,1.987924e-004
6.441481e-004,2.088404e-004
5.080132e-004,2.268297e-004
4.538833e-004,2.394708e-004
5.010443e-004,2.331503e-004
5.968250e-004,2.075439e-004
6.339379e-004,1.702689e-004
5.219508e-004,1.329939e-004
2.263435e-004,1.070634e-004
-2.386219e-004,9.296373e-005
-7.927231e-004,8.648112e-005
-1.321542e-003,8.518459e-005
-1.739185e-003,8.729144e-005
-2.013723e-003,9.458438e-005
-2.132841e-003,1.088461e-004
-2.078063e-003,1.284560e-004
-1.842096e-003,1.461212e-004
-1.460918e-003,1.524417e-004
-1.010701e-003,1.480659e-004
-5.935449e-004,1.376938e-004
-2.989102e-004,1.300767e-004
-1.545100e-004,1.268354e-004
-1.065387e-004,1.273216e-004
-7.282909e-005,1.274836e-004
4.151929e-006,1.229458e-004
1.273216e-004,1.104668e-004
2.660495e-004,8.875003e-005
3.879227e-004,6.265751e-005
4.623107e-004,3.883391e-005
4.772207e-004,2.262738e-005
4.475628e-004,1.322759e-005
4.016982e-004,8.041497e-006
3.739850e-004,9.106227e-007
3.866261e-004,-9.785688e-006
4.503179e-004,-2.291298e-005
5.507984e-004,-3.539201e-005
6.650545e-004,-4.900550e-005
7.689385e-004,-6.504996e-005
8.374922e-004,-8.465986e-005
8.342508e-004,-1.091317e-004
7.306910e-004,-1.405724e-004
5.315126e-004,-1.721751e-004
2.790148e-004,-1.943781e-004
3.121684e-005,-2.050744e-004
-1.561307e-004,-2.047502e-004
-2.407288e-004,-1.930815e-004
-2.164190e-004,-1.728234e-004
-1.193418e-004,-1.512687e-004
-1.756482e-005,-1.360346e-004
2.457216e-005,-1.298761e-004
-2.323711e-005,-1.324691e-004
-1.457585e-004,-1.399241e-004
-3.003688e-004,-1.494860e-004
-4.483344e-004,-1.546721e-004
-5.531906e-004,-1.489998e-004
-5.792832e-004,-1.311726e-004
-4.998712e-004,-1.037836e-004
-3.042584e-004,-6.715681e-005
-2.080613e-005,-1.967167e-005
2.929524e-004,3.024445e-005
5.683015e-004,7.351589e-005
7.477079e-004,9.766362e-005
8.039447e-004,9.717743e-005
7.462493e-004,7.659513e-005
6.125454e-004,5.115087e-005
4.524247e-004,3.202716e-005
2.991108e-004,2.359977e-005
1.543865e-004,2.359977e-005
-5.571990e-006,2.959619e-005
-2.110708e-004,4.061663e-005
-4.616237e-004,5.423012e-005
-7.176869e-004,6.816773e-005
-9.405267e-004,8.421220e-005
-1.138246e-003,9.831188e-005
-1.356062e-003,1.057669e-004
-1.615205e-003,1.056048e-004
-1.892174e-003,1.012291e-004
-2.114852e-003,9.199134e-005
-2.186809e-003,8.064677e-005
-2.020692e-003,7.011252e-005
-1.588950e-003,6.525056e-005
-9.607848e-004,6.897806e-005
-2.788141e-004,8.032264e-005
3.034866e-004,9.960841e-005
6.909850e-004,1.245665e-004
8.773603e-004,1.514693e-004
9.222524e-004,1.751309e-004
9.084769e-004,1.908512e-004
9.053976e-004,1.908512e-004
9.397555e-004,1.744826e-004
9.993956e-004,1.440143e-004
1.049150e-003,1.137081e-004
1.049150e-003,9.409818e-005
9.846477e-004,9.085688e-005
8.686088e-004,1.000946e-004
7.271256e-004,1.101427e-004
5.809425e-004,1.166253e-004
4.307079e-004,1.197045e-004
2.637806e-004,1.222976e-004
6.751948e-005,1.247285e-004
-1.428413e-004,1.268354e-004
-3.198166e-004,1.286181e-004
-4.143007e-004,1.326697e-004
-4.091146e-004,1.349386e-004
-3.308371e-004,1.313732e-004
-2.335979e-004,1.208390e-004
-1.635857e-004,1.031738e-004
-1.436516e-004,8.113296e-005
-1.621271e-004,5.633696e-005
-1.911368e-004,2.829966e-005
-2.075054e-004,-3.951337e-006
-1.851404e-004,-3.344723e-005
-9.746302e-005,-5.078821e-005
6.379197e-005,-5.224680e-005
2.741528e-004,-4.009191e-005
4.866205e-004,-2.291298e-005
6.600305e-004,-1.513384e-005
7.817416e-004,-2.177852e-005
8.572642e-004,-3.749886e-005
8.921082e-004,-5.613637e-005
8.882187e-004,-7.461182e-005
8.502954e-004,-8.595638e-005
7.807693e-004,-8.871149e-005
6.823955e-004,-8.498399e-005
5.674912e-004,-7.720486e-005
4.674968e-004,-6.715681e-005
4.109360e-004,-5.548811e-005
4.013741e-004,-4.673658e-005
4.180668e-004,-4.608832e-005
4.226047e-004,-5.370539e-005
3.671783e-004,-6.942573e-005
2.101370e-004,-9.260107e-005
-5.532604e-005,-1.204763e-004
-3.723258e-004,-1.473791e-004
-6.405439e-004,-1.660166e-004
-7.674409e-004,-1.686097e-004
-7.134732e-004,-1.551583e-004
-4.916058e-004,-1.339277e-004
-1.522411e-004,-1.105903e-004
2.292607e-004,-8.887356e-005
5.475571e-004,-7.072225e-005
7.117294e-004,-5.775702e-005
6.909850e-004,-4.819517e-005
5.344298e-004,-3.863332e-005
3.391410e-004,-2.437157e-005
2.034923e-004,-1.196227e-006
1.702689e-004,2.943412e-005
2.085163e-004,6.281957e-005
2.436845e-004,9.474644e-005
2.057612e-004,1.232699e-004
5.909208e-005,1.469315e-004
-1.945401e-004,1.637863e-004
-5.194810e-004,1.743205e-004
-8.473391e-004,1.817755e-004
-1.106157e-003,1.913374e-004
-1.262064e-003,2.025199e-004
-1.324135e-003,2.115956e-004
-1.302905e-003,2.182402e-004
-1.179897e-003,2.190506e-004
-9.290201e-004,2.102990e-004
-5.638869e-004,1.916615e-004
-1.543479e-004,1.654069e-004
2.083542e-004,1.342904e-004
4.611762e-004,9.977047e-005
5.880735e-004,6.881599e-005
6.042800e-004,4.077869e-005
5.507984e-004,1.419998e-005
4.809482e-004,-1.108221e-005
4.365423e-004,-2.842320e-005
4.290873e-004,-3.069211e-005
4.320045e-004,-1.124428e-005
3.919743e-004,2.700314e-005
2.647530e-004,7.416415e-005
3.980630e-005,1.179218e-004
-2.583939e-004,1.524417e-004
-5.672903e-004,1.752929e-004
-8.022850e-004,1.830721e-004
-8.802384e-004,1.726999e-004
-7.525309e-004,1.511452e-004
-4.415277e-004,1.312112e-004
-4.544006e-005,1.242423e-004
3.004074e-004,1.354248e-004
4.687933e-004,1.620036e-004
3.905157e-004,1.983062e-004
8.486046e-005,2.297469e-004
-3.533641e-004,2.485465e-004
-8.142778e-004,2.503292e-004
-1.211176e-003,2.300710e-004
-1.503866e-003,1.895547e-004
-1.671117e-003,1.372076e-004
-1.700127e-003,8.340187e-005
-1.603698e-003,4.077869e-005
-1.426723e-003,1.468618e-005
-1.223493e-003,3.989864e-006
-1.021883e-003,-2.330684e-006
-8.154123e-004,-1.594417e-005
-5.690731e-004,-3.863332e-005
-2.629317e-004,-6.148453e-005
8.016057e-005,-7.688073e-005
4.083429e-004,-8.044617e-005
6.731578e-004,-7.769106e-005
8.616399e-004,-7.558420e-005
9.870786e-004,-8.044617e-005
1.077673e-003,-9.389759e-005
1.153196e-003,-1.126972e-004
1.213646e-003,-1.366828e-004
1.238929e-003,-1.614788e-004
1.207002e-003,-1.810887e-004
1.113004e-003,-1.976194e-004
9.686031e-004,-2.144742e-004
7.827141e-004,-2.334358e-004
5.540397e-004,-2.501286e-004
2.955454e-004,-2.587180e-004
4.628891e-005,-2.551526e-004
-1.204763e-004,-2.345703e-004
-1.439758e-004,-1.924333e-004
-1.659243e-005,-1.355484e-004
2.198609e-004,-7.444975e-005
5.062304e-004,-2.339918e-005
7.775280e-004,7.069105e-006
9.801098e-004,1.582063e-005
1.084642e-003,8.851824e-006
1.094528e-003,-5.734056e-006
1.030350e-003,-1.578211e-005
9.284109e-004,-1.756482e-005
8.224201e-004,-1.092015e-005
7.363633e-004,-1.196227e-006
6.755888e-004,5.286387e-006
6.345862e-004,5.448452e-006
6.067110e-004,1.883015e-006
5.921251e-004,1.396819e-006
5.926113e-004,6.258778e-006
6.054144e-004,1.646890e-005
6.253485e-004,3.170304e-005
6.481997e-004,5.179914e-005
6.541961e-004,7.578480e-005
6.165970e-004,1.041462e-004
5.211404e-004,1.370455e-004
3.793332e-004,1.696206e-004
2.284504e-004,2.013854e-004
1.137081e-004,2.303951e-004
8.664318e-005,2.529222e-004
1.803169e-004,2.675081e-004
3.853296e-004,2.725321e-004
6.537099e-004,2.715597e-004
9.115561e-004,2.678322e-004
1.082859e-003,2.632944e-004
1.093231e-003,2.550291e-004
8.922703e-004,2.419018e-004
4.683071e-004,2.234263e-004
-1.235555e-004,2.002510e-004
-7.358382e-004,1.791825e-004
-1.180870e-003,1.668655e-004
-1.315060e-003,1.618415e-004
-1.110857e-003,1.600588e-004
-6.846256e-004,1.576278e-004
-2.558008e-004,1.503349e-004
-3.798505e-005,1.355869e-004
-1.352242e-004,1.150046e-004
-5.086227e-004,9.507057e-005
-1.019777e-003,8.242948e-005
-1.501921e-003,7.708133e-005
-1.815679e-003,7.124698e-005
-1.883261e-003,5.552663e-005
-1.704503e-003,2.813760e-005
-1.353793e-003,-5.409925e-006
-9.544643e-004,-3.506788e-005
-6.288751e-004,-5.743289e-005
-4.523860e-004,-7.039812e-005
-4.309934e-004,-7.380149e-005
-5.102433e-004,-6.845333e-005
-6.118583e-004,-5.257093e-005
-6.718224e-004,-2.631635e-005
-6.488092e-004,4.800190e-006
-5.350393e-004,3.186510e-005
-3.528779e-004,4.531652e-005
-1.524032e-004,4.191315e-005
3.364782e-005,2.586868e-005
1.958752e-004,6.582909e-006
3.410858e-004,-8.813297e-006
4.772207e-004,-1.756482e-005
6.115729e-004,-2.161646e-005
7.498147e-004,-2.745081e-005
8.763879e-004,-4.009191e-005
9.741134e-004,-5.597430e-005
1.036184e-003,-6.618442e-005
1.061143e-003,-6.456377e-005
1.032781e-003,-5.111234e-005
9.156077e-004,-3.020592e-005
6.619753e-004,-1.092015e-005
2.438466e-004,-6.220252e-006
-3.175477e-004,-2.307504e-005
-9.502506e-004,-5.986387e-005
-1.577605e-003,-1.013526e-004
-2.137704e-003,-1.326312e-004
-2.568798e-003,-1.488377e-004
-2.801524e-003,-1.512687e-004
-2.811572e-003,-1.473791e-004
-2.617094e-003,-1.493239e-004
-2.278538e-003,-1.634236e-004
-1.870782e-003,-1.854645e-004
-1.437419e-003,-2.070192e-004
-9.682399e-004,-2.204706e-004
-4.311555e-004,-2.190120e-004
1.717275e-004,-1.990780e-004
7.791486e-004,-1.613168e-004
1.305213e-003,-1.110765e-004
1.676992e-003,-6.213279e-005
1.860126e-003,-2.258885e-005
1.869688e-003,1.720949e-006
1.751542e-003,1.144487e-005
1.554957e-003,1.306552e-005
1.326606e-003,1.419998e-005
1.125807e-003,2.019640e-005
1.000854e-003,3.624086e-005
9.627688e-004,6.119892e-005
9.839993e-004,8.810177e-005
1.028729e-003,1.065772e-004
1.073135e-003,1.135460e-004
1.102793e-003,1.153287e-004
1.112841e-003,1.188942e-004
1.100687e-003,1.284560e-004
1.066329e-003,1.462832e-004
1.022571e-003,1.676758e-004
1.000206e-003,1.876099e-004
1.025812e-003,2.012234e-004
1.103442e-003,2.049509e-004
1.217536e-003,2.020337e-004
1.341354e-003,1.987924e-004
1.445562e-003,2.021958e-004
1.499692e-003,2.146748e-004
1.479272e-003,2.333123e-004
1.382357e-003,2.519498e-004
1.224181e-003,2.629703e-004
1.027757e-003,2.675081e-004
8.148030e-004,2.710735e-004
6.002283e-004,2.744769e-004
3.683128e-004,2.786906e-004
7.367795e-005,2.829043e-004
-3.206269e-004,2.854973e-004
-8.100641e-004,2.842008e-004
-1.358817e-003,2.752873e-004
-1.904167e-003,2.553532e-004
-2.363299e-003,2.253711e-004
-2.647886e-003,1.887444e-004
-2.689375e-003,1.474177e-004
-2.473665e-003,1.005808e-004
-2.069798e-003,4.871989e-005
-1.623146e-003,-1.196227e-006
-1.283457e-003,-4.398147e-005
-1.125929e-003,-7.363943e-005
-1.136788e-003,-8.919769e-005
-1.247154e-003,-8.725291e-005
-1.359141e-003,-6.472583e-005
-1.372269e-003,-2.566809e-005
-1.232730e-003,1.679302e-005
-9.543023e-004,5.147500e-005
-6.086170e-004,7.384002e-005
-2.896725e-004,8.340187e-005
-5.727083e-005,8.210535e-005
8.080883e-005,7.270556e-005
1.657311e-004,5.828175e-005
2.585945e-004,4.223728e-005
3.965121e-004,2.295151e-005
5.645740e-004,-3.303076e-006
7.099467e-004,-3.992984e-005
7.833623e-004,-8.482193e-005
7.656972e-004,-1.274451e-004
6.741302e-004,-1.629374e-004
5.533914e-004,-1.896782e-004
4.561522e-004,-2.075054e-004
4.185530e-004,-2.204706e-004
4.428628e-004,-2.335979e-004
5.013684e-004,-2.460769e-004
5.516087e-004,-2.536940e-004
5.655463e-004,-2.538560e-004
5.290816e-004,-2.488320e-004
4.250357e-004,-2.397564e-004
2.436845e-004,-2.266291e-004
-3.465141e-006,-2.125294e-004
-2.664971e-004,-1.984297e-004
-4.800992e-004,-1.830335e-004
-5.916001e-004,-1.629374e-004
-5.875485e-004,-1.378173e-004
-4.927403e-004,-1.102662e-004
-3.480160e-004,-8.012204e-005
-1.972953e-004,-4.706071e-005
-7.590833e-005,-1.140634e-005
-9.785688e-006,2.214118e-005
1.079661e-005,5.066468e-005
4.207521e-005,7.205730e-005
1.446626e-004,9.004655e-005
3.316860e-004,1.078737e-004
5.647360e-004,1.258630e-004
7.901691e-004,1.386662e-004
9.705480e-004,1.420695e-004
1.091287e-003,1.362352e-004
1.160651e-003,1.295905e-004
1.194847e-003,1.284560e-004
1.205867e-003,1.355869e-004
1.203112e-003,1.482280e-004
1.188040e-003,1.647587e-004
1.167782e-003,1.874478e-004
1.154654e-003,2.106232e-004
1.138772e-003,2.310434e-004
1.080753e-003,2.410915e-004
9.470484e-004,2.346088e-004
7.251808e-004,2.120818e-004
4.242253e-004,1.824238e-004
6.071273e-005,1.564933e-004
-3.433161e-004,1.417454e-004
-7.499378e-004,1.375317e-004
-1.117016e-003,1.422316e-004
-1.403061e-003,1.500107e-004
-1.570150e-003,1.551968e-004
-1.599160e-003,1.551968e-004
-1.480528e-003,1.461212e-004
-1.217010e-003,1.289422e-004
-8.325911e-004,1.088461e-004
-3.749188e-004,9.280167e-005
9.231547e-005,8.388807e-005
4.969927e-004,8.242948e-005
7.896828e-004,8.777764e-005
9.452657e-004,9.490851e-005
9.686031e-004,1.023635e-004
8.793051e-004,1.057669e-004
7.099467e-004,1.049566e-004
4.918066e-004,1.005808e-004
2.594049e-004,8.875003e-005
4.645098e-005,6.751948e-005
-1.326312e-004,4.013043e-005
-2.702246e-004,1.274139e-005
-3.622777e-004,-6.058186e-006
-4.026320e-004,-1.140634e-005
-3.804291e-004,-6.382317e-006
-2.948586e-004,1.002961e-007
-1.489998e-004,2.623614e-007
2.748934e-005,-9.137427e-006
1.785342e-004,-2.372331e-005
2.717218e-004,-3.668853e-005
3.243930e-004,-4.608832e-005
3.924605e-004,-5.176061e-005
5.104441e-004,-5.694670e-005
6.686199e-004,-6.359137e-005
8.342508e-004,-7.526008e-005
9.830269e-004,-9.486997e-005
1.099228e-003,-1.190177e-004
1.164378e-003,-1.404103e-004
1.145093e-003,-1.514308e-004
1.033591e-003,-1.449482e-004
8.640709e-004,-1.220970e-004
6.812610e-004,-8.563225e-005
5.104441e-004,-3.960571e-005
3.386548e-004,1.031041e-005
1.088461e-004,5.747142e-005
-2.447804e-004,8.615699e-005
-7.594998e-004,8.972242e-005
-1.407113e-003,6.735741e-005
-2.061695e-003,2.651694e-005
-2.556643e-003,-2.210265e-005
-2.765870e-003,-6.780507e-005
-2.661499e-003,-1.047560e-004
-2.309979e-003,-1.308485e-004
-1.829293e-003,-1.546721e-004
-1.334507e-003,-1.844921e-004
-9.060067e-004,-2.169052e-004
-5.740970e-004,-2.399184e-004
-3.241924e-004,-2.462390e-004
-1.336036e-004,-2.360289e-004
2.623614e-007,-2.144742e-004
6.103686e-005,-1.898403e-004
2.603075e-005,-1.653684e-004
-9.503204e-005,-1.353863e-004
-2.441321e-004,-9.146661e-005
-3.543365e-004,-3.652646e-005
-3.815635e-004,2.327564e-005
-3.204649e-004,8.259155e-005
-1.974573e-004,1.339663e-004
-5.565017e-005,1.712413e-004
7.853991e-005,1.950649e-004
1.913374e-004,2.080301e-004
2.676702e-004,2.146748e-004
3.004074e-004,2.187264e-004
2.953834e-004,2.208333e-004
2.681563e-004,2.201850e-004
2.397949e-004,2.182402e-004
2.250470e-004,2.192126e-004
2.261814e-004,2.235884e-004
2.419018e-004,2.290986e-004
2.739907e-004,2.307193e-004
3.192070e-004,2.273159e-004
3.710679e-004,2.286124e-004
4.242253e-004,2.376881e-004
4.746277e-004,2.495189e-004
5.206542e-004,2.576221e-004
5.618189e-004,2.602152e-004
5.914768e-004,2.553532e-004
6.065489e-004,2.456293e-004
6.015248e-004,2.313675e-004
5.725152e-004,2.128921e-004
5.260024e-004,1.932822e-004
4.728449e-004,1.769136e-004
4.277907e-004,1.676758e-004
4.029947e-004,1.628139e-004
4.002396e-004,1.560072e-004
4.256839e-004,1.443384e-004
4.799758e-004,1.244044e-004
5.533914e-004,9.685330e-005
6.360448e-004,6.800567e-005
7.060571e-004,4.353380e-005
7.428459e-004,2.684107e-005
7.256670e-004,1.906194e-005
6.499824e-004,1.679302e-005
5.381573e-004,1.517237e-005
4.266563e-004,1.225520e-005
3.415720e-004,8.689758e-006
2.830664e-004,-2.816880e-006
2.302331e-004,-2.809907e-005
1.462832e-004,-6.245691e-005
-1.821308e-005,-9.632857e-005
-3.029619e-004,-1.209625e-004
-6.783050e-004,-1.298761e-004
-1.036307e-003,-1.237176e-004
-1.251368e-003,-1.050801e-004
-1.252178e-003,-8.433573e-005
-1.040035e-003,-7.137051e-005
-6.894876e-004,-6.974985e-005
-3.087962e-004,-7.833932e-005
-1.075808e-005,-9.438378e-005
1.383420e-004,-1.128592e-004
1.368834e-004,-1.303623e-004
3.786152e-005,-1.455964e-004
-8.709085e-005,-1.582375e-004
-1.799543e-004,-1.681235e-004
-2.109087e-004,-1.752544e-004
-1.833576e-004,-1.793060e-004
-1.371690e-004,-1.783336e-004
-1.214487e-004,-1.687718e-004
-1.530514e-004,-1.493239e-004
-1.982676e-004,-1.214487e-004
-2.005366e-004,-9.049421e-005
-1.285796e-004,-6.148453e-005
-2.816880e-006,-3.539201e-005
1.219734e-004,-9.299493e-006
1.947408e-004,2.165498e-005
1.958752e-004,5.487838e-005
1.409351e-004,8.194328e-005
7.708133e-005,9.328786e-005
5.974033e-005,8.810177e-005
1.205148e-004,7.302970e-005
2.469258e-004,5.795762e-005
3.901916e-004,5.406805e-005
5.041235e-004,6.427817e-005
5.561466e-004,8.210535e-005
5.276231e-004,1.005808e-004
4.141773e-004,1.143563e-004
2.242366e-004,1.208390e-004
-2.129233e-005,1.156529e-004
-2.713591e-004,1.000946e-004
-4.711856e-004,7.627100e-005
-5.930586e-004,4.888196e-005
-6.426507e-004,2.181705e-005
-6.394094e-004,-6.176923e-008
-5.959758e-004,-7.678839e-006
-5.037607e-004,3.665733e-006
-3.455850e-004,3.397195e-005
-1.182074e-004,7.983644e-005
1.477418e-004,1.323456e-004
3.971604e-004,1.827479e-004
5.859666e-004,2.218057e-004
6.947125e-004,2.436845e-004
7.347427e-004,2.495189e-004
7.431700e-004,2.435224e-004
7.626179e-004,2.334744e-004
8.113996e-004,2.252090e-004
8.718501e-004,2.182402e-004
9.136630e-004,2.137024e-004
9.212800e-004,2.073819e-004
8.916220e-004,2.021958e-004
8.117238e-004,2.008992e-004
6.653786e-004,2.002510e-004
4.527488e-004,1.947408e-004
1.864754e-004,1.804790e-004
-1.128592e-004,1.582761e-004
-4.141386e-004,1.336421e-004
-6.726327e-004,1.073875e-004
-8.288636e-004,8.242948e-005
-8.274051e-004,5.909208e-005
-6.663122e-004,3.348575e-005
-4.096008e-004,4.638125e-006
-1.559686e-004,-2.469570e-005
1.614476e-005,-5.224680e-005
7.335383e-005,-7.509801e-005
3.445814e-005,-8.984595e-005
-5.483985e-005,-9.519411e-005
-1.575893e-004,-9.422172e-005
-2.669833e-004,-8.757704e-005
-3.877220e-004,-7.898758e-005
-5.141329e-004,-7.396356e-005
-6.144513e-004,-7.380149e-005
-6.381128e-004,-7.623246e-005
-5.484907e-004,-7.898758e-005
-3.671397e-004,-8.093236e-005
-1.750923e-004,-8.498399e-005
-6.213279e-005,-9.519411e-005
-8.044617e-005,-1.133454e-004
-2.323013e-004,-1.379794e-004
-4.706994e-004,-1.676373e-004
-7.116905e-004,-1.958367e-004
-8.622491e-004,-2.105846e-004
-8.567389e-004,-2.021572e-004
-6.878669e-004,-1.676373e-004
-4.089525e-004,-1.122110e-004
-1.091317e-004,-4.770897e-005
1.423936e-004,8.527692e-006
3.266619e-004,4.661304e-005
4.486972e-004,5.893001e-005
5.036374e-004,4.385793e-005
4.908342e-004,2.045080e-006
4.315182e-004,-5.759496e-005
3.628026e-004,-1.196660e-004
3.093210e-004,-1.686097e-004
2.756114e-004,-1.929195e-004
2.501671e-004,-1.925954e-004
2.169437e-004,-1.775233e-004
1.582761e-004,-1.538618e-004
6.800567e-005,-1.266348e-004
-3.668853e-005,-1.021629e-004
-1.117248e-004,-8.044617e-005
-9.260107e-005,-5.402952e-005
4.936815e-005,-1.659243e-005
2.702632e-004,3.073064e-005
4.746277e-004,8.453633e-005
5.731634e-004,1.318594e-004
5.363746e-004,1.641104e-004
3.935950e-004,1.804790e-004
2.104611e-004,1.877720e-004
4.969229e-005,1.924718e-004
-4.981582e-005,2.002510e-004
-7.493595e-005,2.128921e-004
-3.668853e-005,2.281262e-004
3.802358e-005,2.425500e-004
1.214872e-004,2.524360e-004
1.963614e-004,2.564877e-004
2.513016e-004,2.537325e-004
2.717218e-004,2.435224e-004
2.449810e-004,2.279642e-004
1.730240e-004,2.146748e-004
6.914012e-005,2.060853e-004
-5.483985e-005,2.008992e-004
-1.942160e-004,1.957132e-004
-3.402368e-004,1.874478e-004
-4.664857e-004,1.767515e-004
-5.335807e-004,1.641104e-004
-5.097571e-004,1.509831e-004
-3.818876e-004,1.415833e-004
-1.574272e-004,1.352628e-004
1.326697e-004,1.312112e-004
4.216323e-004,1.271595e-004
6.399344e-004,1.210010e-004
7.503009e-004,1.117633e-004
7.559733e-004,1.023635e-004
6.744543e-004,9.296373e-005
5.362125e-004,8.080883e-005
3.756057e-004,6.719535e-005
2.307193e-004,5.811968e-005
1.185701e-004,6.136099e-005
3.202716e-005,7.448828e-005
-4.317115e-005,9.004655e-005
-8.854943e-005,9.831188e-005
-7.185670e-005,9.247754e-005
1.063454e-005,7.221937e-005
1.347766e-004,4.077869e-005
2.673460e-004,5.934648e-006
3.822504e-004,-2.728874e-005
4.657141e-004,-5.305713e-005
5.237334e-004,-6.683268e-005
5.796460e-004,-6.699475e-005
6.592202e-004,-5.386745e-005
7.691005e-004,-3.409549e-005
8.896773e-004,-1.432352e-005
9.854579e-004,9.106227e-007
1.018357e-003,9.662150e-006
9.570965e-004,1.144487e-005
7.778521e-004,5.934648e-006
4.710622e-004,-8.813297e-006
5.811968e-005,-3.312309e-005
-3.911253e-004,-6.456377e-005
-7.821888e-004,-9.584238e-005
-1.042952e-003,-1.193418e-004
-1.141488e-003,-1.349001e-004
-1.077148e-003,-1.468929e-004
-8.609526e-004,-1.574272e-004
-5.305015e-004,-1.674752e-004
-1.643960e-004,-1.729855e-004
1.417454e-004,-1.694200e-004
3.175863e-004,-1.558065e-004
3.427064e-004,-1.350622e-004
2.404432e-004,-1.115627e-004
4.985435e-005,-8.887356e-005
-1.862748e-004,-7.380149e-005
-4.329382e-004,-7.056019e-005
-6.659881e-004,-8.028410e-005
-8.742420e-004,-9.924574e-005
-1.037118e-003,-1.212866e-004
-1.127388e-003,-1.431655e-004
-1.139381e-003,-1.614788e-004
-1.103726e-003,-1.705545e-004
-1.080875e-003,-1.668270e-004
-1.132574e-003,-1.502963e-004
-1.261092e-003,-1.211246e-004
-1.399820e-003,-7.785312e-005
-1.452167e-003,-1.513384e-005
-1.348931e-003,6.751948e-005
-1.079579e-003,1.598967e-004
-6.969426e-004,2.430362e-004
-2.895104e-004,3.015418e-004
6.119892e-005,3.297412e-004
3.167760e-004,3.297412e-004
4.888894e-004,3.080245e-004
6.211348e-004,2.760976e-004
7.637524e-004,2.443328e-004
9.530449e-004,2.188885e-004
1.199384e-003,2.043026e-004
1.483486e-003,2.007372e-004
1.759646e-003,2.021958e-004
1.980703e-003,1.987924e-004
2.103873e-003,1.825859e-004
2.107601e-003,1.537382e-004
1.998855e-003,1.167873e-004
1.784604e-003,8.291568e-005
1.447183e-003,6.460230e-005
9.577448e-004,7.157111e-005
3.127243e-004,1.052807e-004
-4.214316e-004,1.566554e-004
-1.100971e-003,2.072198e-004
-1.573554e-003,2.423880e-004
-1.726381e-003,2.543808e-004
-1.543572e-003,2.467637e-004
-1.115233e-003,2.229401e-004
-5.959758e-004,1.871237e-004
-1.240417e-004,1.516314e-004
2.167816e-004,1.316974e-004
4.026706e-004,1.292664e-004
4.692795e-004,1.380179e-004
4.631210e-004,1.469315e-004
4.154738e-004,1.427178e-004
3.527545e-004,1.273216e-004
2.916559e-004,1.064152e-004
2.331503e-004,8.405014e-005
1.537382e-004,6.087479e-005
2.910999e-005,3.202716e-005
-1.540238e-004,-3.951337e-006
-3.995528e-004,-4.576419e-005
-6.703638e-004,-9.017008e-005
-9.087619e-004,-1.303623e-004
-1.057052e-003,-1.621271e-004
-1.078282e-003,-1.823853e-004
-9.731018e-004,-1.969711e-004
-7.860785e-004,-2.141500e-004
-5.776625e-004,-2.365151e-004
-4.053871e-004,-2.546664e-004
-2.989102e-004,-2.558008e-004
-2.506147e-004,-2.374874e-004
-2.259808e-004,-2.002124e-004
-1.961608e-004,-1.567789e-004
-1.574272e-004,-1.167488e-004
-1.355484e-004,-8.563225e-005
-1.629374e-004,-6.391550e-005
-2.379736e-004,-5.240886e-005
-3.128478e-004,-4.770897e-005
-3.253268e-004,-4.916756e-005
-2.478596e-004,-5.808115e-005
-1.070249e-004,-7.736692e-005
4.094075e-005,-1.067007e-004
1.464453e-004,-1.400862e-004
1.937684e-004,-1.700683e-004
2.004130e-004,-1.912988e-004
2.021958e-004,-2.011848e-004
2.344468e-004,-1.956746e-004
3.073762e-004,-1.731475e-004
4.183910e-004,-1.355484e-004
5.661946e-004,-8.919769e-005
7.441425e-004,-4.738484e-005
9.392693e-004,-1.707863e-005
1.126941e-003,4.638125e-006
1.272638e-003,1.971020e-005
1.345730e-003,2.586868e-005
1.340219e-003,2.846173e-005
1.266156e-003,3.397195e-005
1.143958e-003,4.499239e-005
9.980991e-004,5.860588e-005
8.517539e-004,7.205730e-005
7.167534e-004,7.983644e-005
6.037938e-004,8.275361e-005
5.321609e-004,8.826383e-005
5.041235e-004,1.043083e-004
5.010443e-004,1.312112e-004
4.885653e-004,1.639484e-004
4.344354e-004,1.939304e-004
3.206656e-004,2.149989e-004
1.521176e-004,2.281262e-004
-2.907146e-005,2.363916e-004
-1.603444e-004,2.436845e-004
-2.032917e-004,2.503292e-004
-1.541859e-004,2.527602e-004
-2.907146e-005,2.491947e-004
1.388282e-004,2.394708e-004
3.052694e-004,2.242366e-004
4.290873e-004,2.044647e-004
4.754380e-004,1.833962e-004
4.235771e-004,1.655690e-004
2.770700e-004,1.543865e-004
5.828175e-005,1.527658e-004
-1.990780e-004,1.595726e-004
-4.413656e-004,1.678379e-004
-6.081308e-004,1.730240e-004
-6.467023e-004,1.764274e-004
-5.399013e-004,1.799928e-004
-3.162512e-004,1.842065e-004
-5.548811e-005,1.903650e-004
1.469315e-004,1.953890e-004
2.227781e-004,1.929580e-004
1.581140e-004,1.808031e-004
6.582909e-006,1.582761e-004
-1.511067e-004,1.255389e-004
-2.750866e-004,8.939829e-005
-3.929081e-004,6.006447e-005
-5.645352e-004,4.110282e-005
-8.483115e-004,3.105477e-005
-1.279405e-003,2.197911e-005
-1.835451e-003,7.555301e-006
-2.418077e-003,-1.270286e-005
-2.879802e-003,-3.312309e-005
-3.064395e-003,-4.819517e-005
-2.858733e-003,-5.467778e-005
-2.243370e-003,-5.435365e-005
-1.321218e-003,-5.208474e-005
-2.849726e-004,-5.208474e-005
6.329655e-004,-5.662256e-005
1.254649e-003,-6.958779e-005
1.532591e-003,-9.260107e-005
1.516385e-003,-1.177212e-004
1.323365e-003,-1.363587e-004
1.077025e-003,-1.444620e-004
8.661778e-004,-1.441378e-004
7.316634e-004,-1.386276e-004
6.744543e-004,-1.342519e-004
6.642442e-004,-1.332795e-004
6.626236e-004,-1.324691e-004
6.407447e-004,-1.323071e-004
5.921251e-004,-1.340898e-004
5.211404e-004,-1.386276e-004
4.337872e-004,-1.460826e-004
3.297412e-004,-1.569410e-004
2.017096e-004,-1.668270e-004
4.839576e-005,-1.752544e-004
-1.157764e-004,-1.793060e-004
-2.632558e-004,-1.744440e-004
-3.627639e-004,-1.606685e-004
-3.945287e-004,-1.374932e-004
-3.530400e-004,-1.037836e-004
-2.540181e-004,-5.646050e-005
-1.232314e-004,-4.113403e-006
5.124321e-006,3.948217e-005
9.863601e-005,6.751948e-005
1.410971e-004,8.129502e-005
1.425557e-004,8.680524e-005
1.295905e-004,8.923623e-005
1.203528e-004,9.344993e-005
1.242423e-004,1.028497e-004
1.527658e-004,1.150046e-004
2.185644e-004,1.222976e-004
3.260137e-004,1.187321e-004
4.394595e-004,1.041462e-004
5.002340e-004,8.129502e-005
4.582590e-004,5.666109e-005
3.119140e-004,3.543054e-005
1.279698e-004,2.376183e-005
5.934648e-006,2.878586e-005
1.906194e-005,5.374392e-005
1.739964e-004,9.652917e-005
4.149876e-004,1.501728e-004
6.545202e-004,2.017096e-004
8.044308e-004,2.412535e-004
8.160995e-004,2.701012e-004
6.898505e-004,2.923041e-004
4.832171e-004,3.119140e-004
2.807975e-004,3.321722e-004
1.492004e-004,3.516200e-004
1.109530e-004,3.658818e-004
1.425557e-004,3.715541e-004
1.769136e-004,3.652335e-004
1.373696e-004,3.464339e-004
-1.821308e-005,3.148312e-004
-2.624455e-004,2.728562e-004
-5.193190e-004,2.268297e-004
-7.172007e-004,1.843686e-004
-8.240017e-004,1.479039e-004
-8.619250e-004,1.164632e-004
-8.807246e-004,8.826383e-005
-9.085998e-004,6.136099e-005
-9.487920e-004,3.364782e-005
-9.906049e-004,4.800190e-006
-1.006811e-003,-2.226472e-005
-9.641882e-004,-4.738484e-005
-8.368049e-004,-7.282909e-005
-6.201236e-004,-9.551824e-005
-3.366714e-004,-1.161005e-004
-4.122636e-005,-1.334415e-004
1.981441e-004,-1.451102e-004
3.405996e-004,-1.473791e-004
3.919743e-004,-1.350622e-004
3.893813e-004,-1.079973e-004
3.807918e-004,-7.558420e-005
3.947294e-004,-4.722278e-005
4.368664e-004,-2.842320e-005
4.989374e-004,-1.999580e-005
5.707325e-004,-2.015787e-005
6.456067e-004,-2.323711e-005
7.201568e-004,-2.696461e-005
7.888725e-004,-3.312309e-005
8.282544e-004,-4.462973e-005
7.985964e-004,-6.602235e-005
6.684579e-004,-9.551824e-005
4.566384e-004,-1.227452e-004
2.271538e-004,-1.397621e-004
5.017848e-005,-1.442999e-004
-3.766092e-005,-1.413827e-004
-4.770897e-005,-1.381414e-004
-1.351319e-005,-1.391138e-004
3.299956e-005,-1.397621e-004
6.687121e-005,-1.366828e-004
6.816773e-005,-1.287416e-004
1.241726e-005,-1.201522e-004
-1.358725e-004,-1.144799e-004
-3.848048e-004,-1.123730e-004
-6.860842e-004,-1.079973e-004
-9.453886e-004,-9.260107e-005
-1.056403e-003,-6.326724e-005
-9.630537e-004,-2.469570e-005
-6.962943e-004,1.468618e-005
-3.520676e-004,4.758544e-005
-2.501983e-005,7.059871e-005
2.363916e-004,8.340187e-005
4.240633e-004,8.939829e-005
5.394538e-004,9.085688e-005
5.770530e-004,9.134307e-005
5.397780e-004,9.053275e-005
4.407560e-004,8.323981e-005
2.921420e-004,6.541262e-005
9.004655e-005,3.802358e-005
-1.754164e-004,7.393236e-006
-4.922541e-004,-1.967167e-005
-8.011505e-004,-3.344723e-005
-1.034038e-003,-3.053005e-005
-1.145215e-003,-1.092015e-005
-1.118474e-003,2.197911e-005
-9.674295e-004,6.152305e-005
-7.309763e-004,9.685330e-005
-4.561135e-004,1.211631e-004
-1.703924e-004,1.299146e-004
1.099806e-004,1.274836e-004
3.593992e-004,1.219734e-004
5.446399e-004,1.221355e-004
6.545202e-004,1.320215e-004
7.036261e-004,1.498487e-004
7.201568e-004,1.707551e-004
7.305289e-004,1.882582e-004
7.504630e-004,1.966855e-004
7.888725e-004,1.973338e-004
8.376542e-004,1.963614e-004
8.720121e-004,1.999268e-004
8.684467e-004,2.078681e-004
8.253373e-004,2.166196e-004
7.687764e-004,2.209954e-004
7.347427e-004,2.151610e-004
7.397667e-004,1.999268e-004
7.765555e-004,1.816135e-004
8.227442e-004,1.680000e-004
8.436506e-004,1.637863e-004
8.062135e-004,1.616794e-004
6.927677e-004,1.560072e-004
5.188715e-004,1.409351e-004
3.286068e-004,1.143563e-004
1.744826e-004,7.918817e-005
8.907416e-005,4.320967e-005
7.724339e-005,1.760335e-005
1.206769e-004,3.989864e-006
1.965235e-004,3.179537e-006
2.856594e-004,1.241726e-005
3.602095e-004,2.554455e-005
3.671783e-004,3.364782e-005
2.572980e-004,3.170304e-005
1.841368e-005,2.133085e-005
-3.071755e-004,6.420843e-006
-6.411921e-004,-7.678839e-006
-8.891520e-004,-2.323711e-005
-9.640261e-004,-4.689865e-005
-8.282154e-004,-7.639453e-005
-5.196431e-004,-1.050801e-004
-1.378173e-004,-1.259865e-004
2.000889e-004,-1.352242e-004
4.018603e-004,-1.340898e-004
4.324906e-004,-1.284175e-004
3.065659e-004,-1.266348e-004
7.173317e-005,-1.306864e-004
-2.068571e-004,-1.363587e-004
-4.671340e-004,-1.365208e-004
-6.763602e-004,-1.305243e-004
-8.218948e-004,-1.188556e-004
-8.993621e-004,-1.045939e-004
-9.134618e-004,-9.276313e-005
-8.773212e-004,-8.125649e-005
-8.087676e-004,-7.137051e-005
-7.254661e-004,-6.521203e-005
-6.347094e-004,-6.326724e-005
-5.350393e-004,-6.715681e-005
-4.240246e-004,-8.012204e-005
-3.023136e-004,-1.008664e-004
-1.768750e-004,-1.201522e-004
-5.808115e-005,-1.280934e-004
4.110282e-005,-1.173971e-004
1.072255e-004,-8.854943e-005
1.318594e-004,-4.738484e-005
1.201907e-004,-1.682422e-006
8.826383e-005,4.029250e-005
5.001642e-005,6.573675e-005
1.355172e-005,7.092284e-005
-6.382317e-006,6.152305e-005
5.286387e-006,4.693717e-005
5.325772e-005,3.996837e-005
1.357490e-004,4.596478e-005
2.412535e-004,6.184718e-005
3.393030e-004,7.724339e-005
3.926226e-004,8.648112e-005
3.790091e-004,8.534666e-005
2.950592e-004,7.627100e-005
1.582761e-004,6.265751e-005
3.827799e-006,4.434413e-005
-1.183694e-004,2.943412e-005
-1.699062e-004,2.797553e-005
-1.352242e-004,4.515445e-005
-2.161646e-005,8.048470e-005
1.375317e-004,1.261871e-004
3.034866e-004,1.739964e-004
4.394595e-004,2.153231e-004
5.243817e-004,2.443328e-004
5.473950e-004,2.595669e-004
5.274609e-004,2.611876e-004
5.068787e-004,2.525981e-004
5.289196e-004,2.410915e-004
6.091419e-004,2.357433e-004
7.389564e-004,2.396328e-004
8.822222e-004,2.482223e-004
9.700617e-004,2.548670e-004
9.258178e-004,2.529222e-004
7.063812e-004,2.401191e-004
3.235827e-004,2.169437e-004
-1.768750e-004,1.874478e-004
-7.178490e-004,1.563313e-004
-1.199345e-003,1.271595e-004
-1.495762e-003,1.022015e-004
-1.501597e-003,8.178122e-005
-1.204045e-003,6.735741e-005
-7.060182e-004,6.071273e-005
-1.799543e-004,6.038860e-005
2.000889e-004,6.379197e-005
3.516200e-004,6.849186e-005
2.895490e-004,7.432621e-005
8.016057e-005,7.610894e-005
-1.885437e-004,7.011252e-005
-4.292107e-004,5.277153e-005
-5.540010e-004,2.457216e-005
-5.107295e-004,-9.137427e-006
-3.032860e-004,-3.830919e-005
7.879432e-006,-6.164659e-005
3.407616e-004,-8.384954e-005
6.294001e-004,-1.086455e-004
8.384645e-004,-1.344139e-004
9.611481e-004,-1.569410e-004
1.009282e-003,-1.666649e-004
9.971267e-004,-1.676373e-004
9.413761e-004,-1.655305e-004
8.524022e-004,-1.585616e-004
7.266394e-004,-1.402483e-004
5.553362e-004,-1.156143e-004
3.271482e-004,-9.454585e-005
4.790957e-005,-8.579432e-005
-2.600145e-004,-8.628052e-005
-5.700454e-004,-8.952183e-005
-8.701903e-004,-9.017008e-005
-1.149105e-003,-9.308726e-005
-1.371134e-003,-1.013526e-004
-1.475342e-003,-1.141558e-004
-1.415378e-003,-1.272830e-004
-1.188811e-003,-1.353863e-004
-8.470150e-004,-1.410586e-004
-4.796130e-004,-1.494860e-004
-1.945401e-004,-1.621271e-004
-7.963584e-005,-1.739578e-004
-1.624512e-004,-1.776853e-004
-3.916115e-004,-1.658546e-004
-6.460540e-004,-1.363587e-004
-7.817027e-004,-9.276313e-005
-7.102319e-004,-4.430560e-005
-4.384484e-004,1.002961e-007
-4.625038e-005,3.413401e-005
3.629646e-004,5.844381e-005
7.094605e-004,7.481241e-005
9.348936e-004,8.421220e-005
9.987473e-004,8.696731e-005
8.883807e-004,8.194328e-005
6.405826e-004,7.238143e-005
3.402755e-004,6.508849e-005
7.610894e-005,6.541262e-005
-8.757704e-005,7.659513e-005
-1.122110e-004,1.031738e-004
1.112074e-005,1.462832e-004
2.577842e-004,1.997648e-004
5.647360e-004,2.521119e-004
8.506195e-004,2.960316e-004
1.042343e-003,3.287688e-004
1.096473e-003,3.493511e-004
1.016737e-003,3.543751e-004
8.494850e-004,3.423823e-004
6.412309e-004,3.172622e-004
3.947294e-004,2.853353e-004
8.161915e-005,2.480603e-004
-3.198166e-004,2.067336e-004
-7.791097e-004,1.626518e-004
-1.234027e-003,1.201907e-004
-1.634814e-003,8.421220e-005
-1.940470e-003,5.974033e-005
-2.101401e-003,4.466826e-005
-2.074012e-003,4.094075e-005
-1.846634e-003,5.017848e-005
-1.451195e-003,7.108491e-005
-9.604607e-004,1.022015e-004
-4.561135e-004,1.339663e-004
-2.816880e-006,1.589243e-004
3.618301e-004,1.773998e-004
6.290760e-004,1.882582e-004
8.101031e-004,1.869616e-004
9.182008e-004,1.756171e-004
9.682790e-004,1.605450e-004
9.870786e-004,1.456350e-004
1.006040e-003,1.326697e-004
1.039102e-003,1.141943e-004
1.072163e-003,8.615699e-005
1.073135e-003,5.228533e-005
1.017709e-003,1.484824e-005
9.112320e-004,-1.950961e-005
7.815796e-004,-4.868137e-005
6.639201e-004,-7.493595e-005
5.866149e-004,-1.007043e-004
5.556603e-004,-1.240417e-004
5.475571e-004,-1.402483e-004
5.204921e-004,-1.488377e-004
4.383250e-004,-1.494860e-004
2.921420e-004,-1.408965e-004
1.093323e-004,-1.245279e-004
-5.905355e-005,-1.089697e-004
-1.554824e-004,-1.034594e-004
-1.442999e-004,-1.089697e-004
-2.858527e-005,-1.188556e-004
1.566554e-004,-1.261486e-004
3.495132e-004,-1.269589e-004
4.909963e-004,-1.264727e-004
5.623050e-004,-1.290658e-004
5.760806e-004,-1.336036e-004
5.459364e-004,-1.386276e-004
4.652279e-004,-1.455964e-004
3.226103e-004,-1.506204e-004
1.300767e-004,-1.493239e-004
-7.947377e-005,-1.454344e-004
-2.629317e-004,-1.423551e-004
-3.886944e-004,-1.431655e-004
-4.352071e-004,-1.436516e-004
-3.930701e-004,-1.352242e-004
-2.744383e-004,-1.130213e-004
-1.089697e-004,-8.044617e-005
6.476436e-005,-4.187462e-005
2.140265e-004,-2.816880e-006
3.179104e-004,3.640293e-005
3.675024e-004,6.962632e-005
3.707437e-004,8.858796e-005
3.427064e-004,9.215340e-005
2.974902e-004,8.372601e-005
2.466017e-004,6.768154e-005
2.004130e-004,4.434413e-005
1.641104e-004,1.533444e-005
1.297526e-004,-1.594417e-005
8.129502e-005,-4.268495e-005
1.160693e-005,-5.500191e-005
-6.067420e-005,-4.592625e-005
-9.973194e-005,-1.902341e-005
-7.234290e-005,1.663096e-005
3.024445e-005,5.277153e-005
1.801549e-004,8.680524e-005
3.264999e-004,1.188942e-004
4.235771e-004,1.509831e-004
4.553419e-004,1.833962e-004
4.443214e-004,2.151610e-004
4.154738e-004,2.451431e-004
3.697714e-004,2.733424e-004
2.780424e-004,2.960316e-004
1.081979e-004,3.067279e-004
-1.454344e-004,3.008936e-004
-4.480103e-004,2.791768e-004
-7.311383e-004,2.456293e-004
-9.248063e-004,2.117576e-004
-9.881739e-004,1.856651e-004
-9.150825e-004,1.712413e-004
-7.277349e-004,1.673517e-004
-4.708614e-004,1.692965e-004
-1.994021e-004,1.744826e-004
3.915804e-005,1.837203e-004
2.205092e-004,1.958752e-004
3.373583e-004,2.039785e-004
3.884089e-004,2.002510e-004
3.759298e-004,1.824238e-004
3.140208e-004,1.503349e-004
2.243987e-004,1.072255e-004
1.454729e-004,5.795762e-005
1.083599e-004,9.175954e-006
1.266733e-004,-3.425755e-005
1.984683e-004,-7.007399e-005
3.106175e-004,-9.260107e-005
4.422146e-004,-9.503204e-005
5.475571e-004,-7.704279e-005
5.571189e-004,-4.576419e-005
4.076947e-004,-6.382317e-006
8.664318e-005,3.964424e-005
-3.590364e-004,9.118101e-005
-8.254603e-004,1.386662e-004
-1.184759e-003,1.788584e-004
-1.342125e-003,2.102990e-004
-1.264171e-003,2.274780e-004
-9.829877e-004,2.247229e-004
-5.935449e-004,1.936063e-004
-2.164190e-004,1.347766e-004
4.288554e-005,6.460230e-005
1.357490e-004,2.045080e-006
9.085688e-005,-3.782299e-005
-5.247859e-006,-5.078821e-005
-6.780507e-005,-4.284701e-005
-6.942573e-005,-3.150244e-005
-4.803310e-005,-3.458168e-005
-8.417367e-005,-6.132246e-005
-2.522354e-004,-1.083214e-004
-5.779866e-004,-1.624512e-004
-1.029014e-003,-2.089640e-004
-1.524772e-003,-2.421874e-004
-1.943549e-003,-2.600145e-004
-2.160879e-003,-2.629317e-004
-2.093946e-003,-2.545043e-004
-1.739995e-003,-2.360289e-004
-1.170173e-003,-2.091260e-004
-5.151053e-004,-1.783336e-004
5.666109e-005,-1.519170e-004
4.096394e-004,-1.347380e-004
5.243817e-004,-1.238797e-004
4.895377e-004,-1.152902e-004
4.261701e-004,-1.073490e-004
4.109360e-004,-9.276313e-005
4.504799e-004,-7.299116e-005
5.263265e-004,-5.386745e-005
6.418792e-004,-4.236082e-005
8.110755e-004,-3.960571e-005
1.024516e-003,-4.527799e-005
1.239577e-003,-5.386745e-005
1.393863e-003,-5.986387e-005
1.433569e-003,-5.743289e-005
1.338923e-003,-5.273300e-005
1.141041e-003,-5.224680e-005
9.084769e-004,-5.646050e-005
7.167534e-004,-6.245691e-005
6.101143e-004,-6.067420e-005
5.681394e-004,-4.608832e-005
5.211404e-004,-1.724069e-005
3.877606e-004,1.987227e-005
1.276457e-004,5.714729e-005
-2.173914e-004,8.826383e-005
-5.458977e-004,1.124116e-004
-7.661444e-004,1.363972e-004
-8.311326e-004,1.684862e-004
-7.290315e-004,2.127300e-004
-4.839888e-004,2.613496e-004
-1.621271e-004,3.028383e-004
1.457970e-004,3.315239e-004
3.542131e-004,3.483787e-004
4.130428e-004,3.584268e-004
3.264999e-004,3.640991e-004
1.569795e-004,3.626405e-004
-5.734056e-006,3.512959e-004
-8.239095e-005,3.303894e-004
-3.377136e-005,3.012177e-004
1.344524e-004,2.647530e-004
3.809539e-004,2.261814e-004
6.554927e-004,1.947408e-004
9.177146e-004,1.749688e-004
1.128400e-003,1.626518e-004
1.247356e-003,1.487142e-004
1.255945e-003,1.291043e-004
1.154979e-003,1.049566e-004
9.666584e-004,8.097089e-005
7.277738e-004,5.941620e-005
4.679830e-004,4.045456e-005
1.908512e-004,2.181705e-005
-1.105903e-004,4.638125e-006
-4.220798e-004,-3.465141e-006
-7.006701e-004,9.106227e-007
-8.938519e-004,1.792748e-005
-9.687260e-004,3.915804e-005
-9.202685e-004,5.568870e-005
-7.818647e-004,5.990240e-005
-6.244993e-004,5.131294e-005
-5.139708e-004,3.056858e-005
-4.937127e-004,-6.176923e-008
-5.710179e-004,-3.685060e-005
-7.210903e-004,-7.607040e-005
-8.974173e-004,-1.120489e-004
-1.041169e-003,-1.376552e-004
-1.116854e-003,-1.515928e-004
-1.106319e-003,-1.541859e-004
-1.002274e-003,-1.468929e-004
-8.040677e-004,-1.321450e-004
-5.293671e-004,-1.110765e-004
-2.139880e-004,-8.935975e-005
9.393612e-005,-7.039812e-005
3.501615e-004,-5.775702e-005
5.282713e-004,-5.581224e-005
6.175694e-004,-6.440170e-005
6.118971e-004,-8.077030e-005
5.157923e-004,-9.940781e-005
3.509718e-004,-1.130213e-004
1.517934e-004,-1.198280e-004
-3.652646e-005,-1.229073e-004
-1.673132e-004,-1.258245e-004
-2.068571e-004,-1.282554e-004
-1.512687e-004,-1.306864e-004
-3.247483e-005,-1.287416e-004
1.122495e-004,-1.201522e-004
2.498430e-004,-1.081593e-004
3.548613e-004,-9.843541e-005
4.085050e-004,-9.357346e-005
4.094774e-004,-9.357346e-005
3.845193e-004,-9.454585e-005
3.754436e-004,-8.790117e-005
4.088291e-004,-6.569822e-005
4.807861e-004,-3.166451e-005
5.577672e-004,1.558884e-006
6.023352e-004,2.311357e-005
5.892079e-004,3.332369e-005
5.227611e-004,4.077869e-005
4.273046e-004,5.568870e-005
3.329825e-004,8.453633e-005
2.632944e-004,1.234320e-004
2.438466e-004,1.629760e-004
2.879283e-004,1.961994e-004
3.754436e-004,2.214815e-004
4.585832e-004,2.419018e-004
4.900239e-004,2.597290e-004
4.538833e-004,2.749631e-004
3.712299e-004,2.840388e-004
2.728562e-004,2.859836e-004
1.856651e-004,2.817699e-004
1.242423e-004,2.767458e-004
8.421220e-005,2.697770e-004
5.536457e-005,2.579462e-004
2.748934e-005,2.402811e-004
2.855407e-006,2.263435e-004
-3.627206e-006,2.195368e-004
2.570662e-005,2.175920e-004
1.015532e-004,2.138645e-004
2.182402e-004,2.047888e-004
3.517821e-004,1.887444e-004
4.681450e-004,1.649207e-004
5.360505e-004,1.354248e-004
5.315126e-004,1.015532e-004
4.503179e-004,6.330578e-005
3.154794e-004,2.554455e-005
1.474177e-004,-8.813297e-006
-4.333321e-005,-3.798505e-005
-2.436459e-004,-5.970181e-005
-4.303451e-004,-6.748094e-005
-5.728005e-004,-6.213279e-005
-6.340612e-004,-4.754691e-005
-5.920863e-004,-3.344723e-005
-4.609755e-004,-3.036798e-005
-2.773555e-004,-3.895745e-005
-8.935975e-005,-5.273300e-005
6.168512e-005,-5.937768e-005
1.511452e-004,-4.819517e-005
1.739964e-004,-1.610624e-005
1.542244e-004,2.748934e-005
1.315353e-004,6.897806e-005
1.305629e-004,9.636710e-005
1.506590e-004,1.083599e-004
1.819376e-004,1.072255e-004
2.072198e-004,9.766362e-005
2.133783e-004,8.631905e-005
1.872858e-004,7.092284e-005
1.195424e-004,5.082674e-005
2.693341e-006,2.489629e-005
-1.554824e-004,-6.706447e-006
-3.251648e-004,-4.365734e-005
-4.663236e-004,-8.595638e-005
-5.317981e-004,-1.308485e-004
-5.055434e-004,-1.759026e-004
-4.110594e-004,-2.162569e-004
-2.919414e-004,-2.475355e-004
-1.943781e-004,-2.694143e-004
-1.496481e-004,-2.818933e-004
-1.601823e-004,-2.825416e-004
-1.925954e-004,-2.697385e-004
-2.086398e-004,-2.476975e-004
-2.006986e-004,-2.209568e-004
-1.799543e-004,-1.955125e-004
-1.571031e-004,-1.762268e-004
-1.397621e-004,-1.619650e-004
-1.297140e-004,-1.473791e-004
-1.360346e-004,-1.255003e-004
-1.864369e-004,-9.503204e-005
-3.068514e-004,-5.791909e-005
-4.805854e-004,-1.756482e-005
-6.573986e-004,2.214118e-005
-7.782993e-004,5.844381e-005
-8.060125e-004,8.696731e-005
-7.251419e-004,1.075496e-004
-5.358497e-004,1.213252e-004
-2.614731e-004,1.274836e-004
5.909208e-005,1.260251e-004
3.576164e-004,1.188942e-004
5.668429e-004,1.091703e-004
6.682958e-004,9.912221e-005
6.879058e-004,9.182927e-005
6.601926e-004,8.988449e-005
5.955285e-004,9.361199e-005
4.689553e-004,9.912221e-005
2.652392e-004,1.043083e-004
1.695509e-005,1.094944e-004
-2.076674e-004,1.208390e-004
-3.467195e-004,1.419075e-004
-3.843186e-004,1.715654e-004
-3.454229e-004,2.007372e-004
-2.702246e-004,2.232643e-004
-1.874093e-004,2.378501e-004
-1.203142e-004,2.451431e-004
-8.854943e-005,2.466017e-004
-1.120489e-004,2.464396e-004
-2.042641e-004,2.456293e-004
-3.488263e-004,2.384984e-004
-4.959816e-004,2.221298e-004
-5.830107e-004,1.973338e-004
-5.825245e-004,1.657311e-004
-5.089468e-004,1.286181e-004
-4.003631e-004,8.680524e-005
-2.796244e-004,4.709924e-005
-1.407345e-004,1.889987e-005
2.813760e-005,4.151929e-006
2.232643e-004,-2.978945e-006
4.308700e-004,-5.409925e-006
6.397723e-004,4.244267e-007
8.387887e-004,1.906194e-005
1.010254e-003,5.228533e-005
1.131155e-003,9.814982e-005
1.179288e-003,1.519555e-004
1.153358e-003,2.044647e-004
1.074432e-003,2.425500e-004
9.642274e-004,2.547049e-004
8.370060e-004,2.383363e-004
6.892023e-004,2.000889e-004
5.050959e-004,1.487142e-004
2.814457e-004,9.182927e-005
4.871989e-005,3.996837e-005
-1.415448e-004,4.244267e-007
-2.504527e-004,-2.599222e-005
-2.716832e-004,-4.479180e-005
-2.272773e-004,-6.229485e-005
-1.515928e-004,-8.158062e-005
-7.590833e-005,-9.875954e-005
-3.465141e-006,-1.104282e-004
7.659513e-005,-1.165867e-004
1.621656e-004,-1.175591e-004
2.349330e-004,-1.164247e-004
2.713977e-004,-1.180453e-004
2.679943e-004,-1.237176e-004
2.522740e-004,-1.277692e-004
2.595669e-004,-1.272830e-004
3.060797e-004,-1.250141e-004
3.666921e-004,-1.258245e-004
3.853296e-004,-1.327933e-004
2.957075e-004,-1.441378e-004
6.038860e-005,-1.588858e-004
-2.922655e-004,-1.750923e-004
-6.695535e-004,-1.903264e-004
-9.607848e-004,-2.011848e-004
-1.093030e-003,-2.023193e-004
-1.039386e-003,-1.943781e-004
-8.155743e-004,-1.780095e-004
-4.682684e-004,-1.519170e-004
-7.461182e-005,-1.183694e-004
2.838767e-004,-7.979791e-005
5.616568e-004,-4.009191e-005
7.681281e-004,-5.247859e-006
9.308419e-004,2.586868e-005
1.062925e-003,5.536457e-005
1.152548e-003,8.275361e-005
1.168916e-003,1.090082e-004
1.077997e-003,1.281319e-004
8.724983e-004,1.329939e-004
5.875872e-004,1.234320e-004
2.948972e-004,1.067393e-004
6.914012e-005,9.199134e-005
-5.646050e-005,8.388807e-005
-1.067007e-004,8.550872e-005
-1.352242e-004,9.636710e-005
-1.804405e-004,1.137081e-004
-2.507768e-004,1.321835e-004
-3.301888e-004,1.467694e-004
-3.984183e-004,1.529279e-004
-4.405553e-004,1.547106e-004
-4.559515e-004,1.543865e-004
-4.460655e-004,1.553589e-004
-4.108973e-004,1.600588e-004
-3.692465e-004,1.770756e-004
-3.366714e-004,2.039785e-004
-3.092824e-004,2.308813e-004
-2.658489e-004,2.496809e-004
-1.833576e-004,2.579462e-004
-6.099833e-005,2.592428e-004
8.016057e-005,2.577842e-004
1.992786e-004,2.527602e-004
2.406053e-004,2.422259e-004
1.410971e-004,2.227781e-004
-1.365208e-004,1.963614e-004
-5.668041e-004,1.712413e-004
-1.037604e-003,1.569795e-004
-1.386044e-003,1.547106e-004
-1.463836e-003,1.556830e-004
-1.216524e-003,1.500107e-004
-7.060182e-004,1.331559e-004
-8.838737e-005,1.086841e-004
4.368664e-004,8.502253e-005
7.195085e-004,6.881599e-005
7.152948e-004,6.087479e-005
4.859722e-004,5.941620e-005
1.618415e-004,6.298164e-005
-1.383035e-004,6.946425e-005
-3.533641e-004,7.675720e-005
-4.802613e-004,7.691926e-005
-5.447632e-004,6.152305e-005
-5.731247e-004,2.943412e-005
-5.736109e-004,-1.205460e-005
-5.416840e-004,-5.176061e-005
-4.828543e-004,-8.239095e-005
-4.175420e-004,-1.007043e-004
-3.624398e-004,-1.139937e-004
-3.180339e-004,-1.271210e-004
-2.781658e-004,-1.439758e-004
-2.355427e-004,-1.671511e-004
-1.705545e-004,-1.958367e-004
-5.143648e-005,-2.277635e-004
1.419075e-004,-2.522354e-004
3.893813e-004,-2.603387e-004
6.520892e-004,-2.545043e-004
8.786568e-004,-2.344082e-004
1.022085e-003,-2.037779e-004
1.056767e-003,-1.734716e-004
9.932371e-004,-1.524032e-004
8.643950e-004,-1.446240e-004
7.232360e-004,-1.460826e-004
6.135177e-004,-1.489998e-004
5.480433e-004,-1.478653e-004
5.144958e-004,-1.394379e-004
4.971547e-004,-1.243659e-004
4.644175e-004,-1.023250e-004
3.611819e-004,-7.671866e-005
1.331559e-004,-5.224680e-005
-2.261429e-004,-2.971972e-005
-6.442713e-004,-1.740276e-005
-1.007622e-003,-1.513384e-005
-1.208745e-003,-1.643037e-005
-1.176332e-003,-1.432352e-005
-9.094102e-004,-5.734056e-006
-4.770200e-004,5.772582e-006
9.338019e-006,1.582063e-005
4.224426e-004,2.246531e-005
6.679717e-004,2.684107e-005
6.977918e-004,3.348575e-005
5.136854e-004,4.337174e-005
1.680000e-004,5.990240e-005
-2.499665e-004,8.194328e-005
-6.317923e-004,1.086841e-004
-8.802384e-004,1.326697e-004
-9.447403e-004,1.506590e-004
-8.392359e-004,1.626518e-004
-6.256338e-004,1.726999e-004
-3.754050e-004,1.819376e-004
-1.392759e-004,1.876099e-004
5.893001e-005,1.908512e-004
2.221298e-004,1.944166e-004
3.653956e-004,1.992786e-004
5.037994e-004,2.077060e-004
6.394482e-004,2.200230e-004
7.538663e-004,2.263435e-004
8.233925e-004,2.239125e-004
8.395990e-004,2.120818e-004
8.148030e-004,1.970097e-004
7.729901e-004,1.867996e-004
7.332841e-004,1.795066e-004
7.018434e-004,1.746447e-004
6.786680e-004,1.728619e-004
6.605167e-004,1.748067e-004
6.431757e-004,1.785342e-004
6.162729e-004,1.803169e-004
5.720290e-004,1.749688e-004
5.086614e-004,1.573037e-004
4.333010e-004,1.286181e-004
3.496752e-004,9.847395e-005
2.619979e-004,7.351589e-005
1.843686e-004,5.828175e-005
1.363972e-004,5.406805e-005
1.372076e-004,6.184718e-005
1.919856e-004,7.675720e-005
2.879283e-004,9.166720e-005
3.927847e-004,1.015532e-004
4.710622e-004,1.056048e-004
5.068787e-004,1.054428e-004
5.107683e-004,1.049566e-004
5.172509e-004,1.060910e-004
5.666808e-004,1.103047e-004
6.713751e-004,1.172735e-004
8.037825e-004,1.187321e-004
9.222524e-004,1.081979e-004
9.927510e-004,8.486046e-005
1.000206e-003,5.309566e-005
9.400796e-004,1.987227e-005
8.105893e-004,-1.335113e-005
5.961767e-004,-4.300908e-005
2.812837e-004,-7.088431e-005
-1.222590e-004,-1.000561e-004
-5.467080e-004,-1.357104e-004
-8.967691e-004,-1.747682e-004
-1.097568e-003,-2.073433e-004
-1.131440e-003,-2.261429e-004
-1.038090e-003,-2.301945e-004
-8.893140e-004,-2.256567e-004
-7.586894e-004,-2.211189e-004
-7.100698e-004,-2.233878e-004
-7.797579e-004,-2.331117e-004
-9.453886e-004,-2.460769e-004
-1.137274e-003,-2.579077e-004
-1.267737e-003,-2.658489e-004
-1.269519e-003,-2.653627e-004
-1.137274e-003,-2.517492e-004
-9.329096e-004,-2.212809e-004
-7.509103e-004,-1.755785e-004
-6.616123e-004,-1.186936e-004
-6.729569e-004,-5.856735e-005
-7.316245e-004,2.623614e-007
-7.624169e-004,5.293359e-005
-7.249799e-004,9.328786e-005
-6.262821e-004,1.158149e-004
-4.982505e-004,1.198666e-004
-3.732982e-004,1.117633e-004
-2.677937e-004,9.685330e-005
-1.818991e-004,7.708133e-005
-1.165867e-004,5.390598e-005
-7.898758e-005,2.781346e-005
-7.558420e-005,5.610517e-006
-9.843541e-005,-5.896120e-006
-1.180453e-004,-2.492749e-006
-9.357346e-005,1.711715e-005
-5.247859e-006,4.466826e-005
1.297526e-004,6.816773e-005
2.741528e-004,8.323981e-005
3.929467e-004,9.426025e-005
4.691174e-004,1.057669e-004
5.052580e-004,1.182459e-004
5.182233e-004,1.294284e-004
5.217887e-004,1.414213e-004
5.187094e-004,1.532520e-004
5.157923e-004,1.624898e-004
5.318367e-004,1.688103e-004
5.783495e-004,1.704310e-004
6.464170e-004,1.675138e-004
7.117294e-004,1.603829e-004
7.537043e-004,1.506590e-004
7.624559e-004,1.407730e-004
7.297186e-004,1.331559e-004
6.464170e-004,1.336421e-004
5.060683e-004,1.453108e-004
3.187208e-004,1.663793e-004
1.231079e-004,1.916615e-004
-3.004385e-005,2.158093e-004
-1.036215e-004,2.323399e-004
-7.963584e-005,2.399570e-004
4.418206e-005,2.368777e-004
2.427121e-004,2.190506e-004
4.647417e-004,1.859892e-004
6.420412e-004,1.438522e-004
7.178878e-004,1.015532e-004
6.776956e-004,6.816773e-005
5.587396e-004,4.418206e-005
4.337872e-004,2.684107e-005
3.542131e-004,1.582063e-005
3.159656e-004,1.209313e-005
2.769079e-004,7.393236e-006
1.846927e-004,-2.006553e-006
1.630683e-005,-9.299493e-006
-2.091260e-004,-8.327101e-006
-4.533584e-004,2.369211e-006
-6.907841e-004,1.776542e-005
-9.189720e-004,3.397195e-005
-1.127874e-003,4.531652e-005
-1.277298e-003,4.450620e-005
-1.308577e-003,3.024445e-005
-1.189945e-003,1.031041e-005
-9.575436e-004,-5.571990e-006
-7.126629e-004,-1.075808e-005
-5.674524e-004,-5.896120e-006
-5.870623e-004,4.476060e-006
-7.617687e-004,1.371378e-005
-1.014428e-003,1.727922e-005
