8.381404e-004,2.347709e-004
8.705535e-004,2.320158e-004
8.686088e-004,2.273159e-004
8.603434e-004,2.276400e-004
8.718501e-004,2.352571e-004
9.217662e-004,2.381743e-004
1.004582e-003,2.329882e-004
1.092907e-003,2.255332e-004
1.150927e-003,2.190506e-004
1.142500e-003,2.120818e-004
1.039102e-003,2.078681e-004
8.316578e-004,2.081922e-004
5.448020e-004,2.093267e-004
2.433604e-004,2.043026e-004
7.555301e-006,1.871237e-004
-1.107524e-004,1.582761e-004
-1.157764e-004,1.248906e-004
-5.905355e-005,9.409818e-005
6.907040e-006,7.594687e-005
6.314371e-005,6.849186e-005
1.114392e-004,6.508849e-005
1.513072e-004,6.152305e-005
1.725378e-004,5.779555e-005
1.714034e-004,5.698522e-005
1.681620e-004,5.585077e-005
1.913374e-004,4.969229e-005
2.409294e-004,3.753739e-005
2.979764e-004,2.068259e-005
3.472443e-004,-5.734056e-006
3.812780e-004,-4.349527e-005
4.021844e-004,-8.952183e-005
4.250357e-004,-1.368449e-004
4.775448e-004,-1.746061e-004
5.640878e-004,-1.934057e-004
6.616511e-004,-1.912988e-004
7.498147e-004,-1.726613e-004
8.211235e-004,-1.452723e-004
8.596951e-004,-1.165867e-004
8.431645e-004,-8.919769e-005
7.624559e-004,-6.423963e-005
6.381517e-004,-4.625038e-005
5.143337e-004,-4.203669e-005
4.217943e-004,-5.095028e-005
3.508097e-004,-6.748094e-005
2.636185e-004,-8.628052e-005
1.248906e-004,-1.075111e-004
-7.331530e-005,-1.332795e-004
-3.055549e-004,-1.671511e-004
-5.415219e-004,-2.084778e-004
-7.864026e-004,-2.514251e-004
-1.063210e-003,-2.861070e-004
-1.344555e-003,-3.019894e-004
-1.541141e-003,-2.914552e-004
-1.566585e-003,-2.498044e-004
-1.401440e-003,-1.841680e-004
-1.095461e-003,-1.076731e-004
-7.402140e-004,-3.863332e-005
-4.326141e-004,1.047248e-005
-2.352185e-004,3.721326e-005
-1.512687e-004,4.596478e-005
-1.352242e-004,4.661304e-005
-1.243659e-004,4.871989e-005
-8.968389e-005,5.795762e-005
-4.689865e-005,7.643307e-005
-2.518189e-005,9.944634e-005
-3.620233e-005,1.158149e-004
-7.088431e-005,1.161391e-004
-1.071869e-004,9.977047e-005
-1.201522e-004,7.740546e-005
-9.584238e-005,6.346784e-005
-3.571614e-005,6.444023e-005
4.628891e-005,7.659513e-005
1.299146e-004,9.199134e-005
2.033302e-004,1.062531e-004
2.728562e-004,1.193804e-004
3.595612e-004,1.336421e-004
4.717105e-004,1.522796e-004
5.867769e-004,1.754550e-004
6.734819e-004,1.996027e-004
7.174017e-004,2.214815e-004
7.271256e-004,2.378501e-004
7.303669e-004,2.475741e-004
7.488423e-004,2.517878e-004
7.870898e-004,2.516257e-004
8.407335e-004,2.498430e-004
8.972943e-004,2.498430e-004
9.400796e-004,2.543808e-004
9.603378e-004,2.654013e-004
9.507760e-004,2.798251e-004
8.985908e-004,2.921420e-004
7.990826e-004,2.950592e-004
6.692683e-004,2.843629e-004
5.316747e-004,2.585945e-004
3.926226e-004,2.214815e-004
2.368777e-004,1.795066e-004
5.714729e-005,1.302388e-004
-1.292278e-004,7.578480e-005
-2.972895e-004,2.262738e-005
-4.157593e-004,-2.113026e-005
-4.703753e-004,-4.835724e-005
-4.692408e-004,-6.035007e-005
-4.348830e-004,-6.423963e-005
-3.875599e-004,-6.342931e-005
-3.415334e-004,-5.467778e-005
-3.040963e-004,-3.555408e-005
-3.099306e-004,-9.461558e-006
-4.407173e-004,1.322759e-005
-7.946679e-004,2.133085e-005
-1.391879e-003,8.041497e-006
-2.100914e-003,-2.404744e-005
-2.677382e-003,-6.764301e-005
-2.902653e-003,-1.151281e-004
-2.694723e-003,-1.580754e-004
-2.128304e-003,-1.867610e-004
-1.382479e-003,-1.964849e-004
-6.685811e-004,-1.914609e-004
-1.713648e-004,-1.827094e-004
1.630683e-005,-1.755785e-004
-7.234290e-005,-1.700683e-004
-3.092824e-004,-1.658546e-004
-5.392530e-004,-1.614788e-004
-6.471885e-004,-1.532135e-004
-5.852795e-004,-1.410586e-004
-3.626019e-004,-1.274451e-004
-2.566809e-005,-1.159385e-004
3.514580e-004,-1.060525e-004
6.780197e-004,-9.730096e-005
9.003736e-004,-9.130454e-005
1.018357e-003,-8.692878e-005
1.072163e-003,-7.979791e-005
1.098256e-003,-6.958779e-005
1.090152e-003,-5.678463e-005
1.014143e-003,-4.414354e-005
8.360335e-004,-3.377136e-005
5.540397e-004,-2.728874e-005
2.193747e-004,-2.874733e-005
-8.384954e-005,-3.344723e-005
-2.843243e-004,-3.539201e-005
-3.575778e-004,-3.182657e-005
-3.136581e-004,-2.113026e-005
-1.822232e-004,-1.358292e-006
5.286387e-006,2.813760e-005
2.188885e-004,6.071273e-005
4.324906e-004,8.810177e-005
6.282657e-004,1.020394e-004
7.937344e-004,9.993253e-005
9.190111e-004,8.680524e-005
9.908061e-004,7.221937e-005
1.001827e-003,6.200925e-005
9.595275e-004,6.038860e-005
8.840049e-004,6.687121e-005
7.979482e-004,7.870197e-005
7.127018e-004,9.166720e-005
6.334517e-004,1.047945e-004
5.754323e-004,1.195424e-004
5.585775e-004,1.344524e-004
5.888838e-004,1.500107e-004
6.481997e-004,1.681620e-004
7.028158e-004,1.866375e-004
7.212912e-004,2.012234e-004
6.791542e-004,2.093267e-004
5.691118e-004,2.120818e-004
4.106118e-004,2.112714e-004
2.482223e-004,2.101370e-004
1.318594e-004,2.115956e-004
9.928428e-005,2.161334e-004
1.479039e-004,2.250470e-004
2.393087e-004,2.386605e-004
3.248792e-004,2.555152e-004
3.757678e-004,2.748010e-004
3.926226e-004,2.939248e-004
3.874365e-004,3.093210e-004
3.683128e-004,3.177483e-004
3.381686e-004,3.172622e-004
2.955454e-004,3.077003e-004
2.334744e-004,2.910076e-004
1.372076e-004,2.728562e-004
-1.196227e-006,2.577842e-004
-1.629374e-004,2.480603e-004
-3.063652e-004,2.409294e-004
-3.781601e-004,2.318537e-004
-3.321336e-004,2.180782e-004
-1.632615e-004,1.961994e-004
7.594687e-005,1.686482e-004
2.989488e-004,1.393144e-004
4.277907e-004,1.065772e-004
4.277907e-004,6.930219e-005
3.282826e-004,2.927205e-005
1.949028e-004,-9.947754e-006
8.777764e-005,-4.754691e-005
4.677511e-005,-8.239095e-005
7.367795e-005,-1.115627e-004
1.278078e-004,-1.316588e-004
1.331559e-004,-1.449482e-004
2.035846e-005,-1.566169e-004
-2.229016e-004,-1.689338e-004
-5.484907e-004,-1.807646e-004
-8.813728e-004,-1.906506e-004
-1.147970e-003,-1.997262e-004
-1.329646e-003,-2.073433e-004
-1.455732e-003,-2.130156e-004
-1.553134e-003,-2.160948e-004
-1.613746e-003,-2.194982e-004
-1.615853e-003,-2.225774e-004
-1.566747e-003,-2.264670e-004
-1.483121e-003,-2.303566e-004
-1.372593e-003,-2.339220e-004
-1.238079e-003,-2.378116e-004
-1.085737e-003,-2.428356e-004
-9.152445e-004,-2.476975e-004
-7.223868e-004,-2.483458e-004
-5.178604e-004,-2.425115e-004
-3.329439e-004,-2.279256e-004
-1.781716e-004,-2.062088e-004
-4.300908e-005,-1.804405e-004
8.534666e-005,-1.558065e-004
2.013854e-004,-1.360346e-004
2.773941e-004,-1.198280e-004
2.897111e-004,-1.029732e-004
2.469258e-004,-8.109443e-005
1.897167e-004,-5.759496e-005
1.589243e-004,-3.701266e-005
1.662173e-004,-2.242678e-005
2.064095e-004,-1.335113e-005
2.749631e-004,-1.108221e-005
3.576164e-004,-1.092015e-005
4.250357e-004,-6.220252e-006
4.469145e-004,9.500085e-006
4.034809e-004,3.462021e-005
3.007315e-004,5.779555e-005
1.777239e-004,6.930219e-005
8.648112e-005,7.124698e-005
6.022653e-005,7.367795e-005
1.030118e-004,8.275361e-005
1.992786e-004,9.831188e-005
3.195311e-004,1.184080e-004
4.298976e-004,1.373696e-004
5.052580e-004,1.532520e-004
5.355643e-004,1.641104e-004
5.284334e-004,1.675138e-004
5.039615e-004,1.637863e-004
4.809482e-004,1.532520e-004
4.746277e-004,1.417454e-004
4.880791e-004,1.316974e-004
5.177371e-004,1.210010e-004
5.618189e-004,1.116012e-004
6.219451e-004,1.107909e-004
6.964952e-004,1.258630e-004
7.796348e-004,1.577899e-004
8.609917e-004,2.010613e-004
9.178767e-004,2.509774e-004
9.151215e-004,2.971661e-004
8.206373e-004,3.302274e-004
6.238899e-004,3.461098e-004
3.456236e-004,3.417340e-004
2.797553e-005,3.174242e-004
-2.921034e-004,2.762596e-004
-5.943552e-004,2.247229e-004
-8.525252e-004,1.702689e-004
-1.018480e-003,1.219734e-004
-1.032418e-003,8.388807e-005
-8.481495e-004,5.601284e-005
-4.672960e-004,3.624086e-005
4.256141e-005,2.489629e-005
5.572810e-004,2.149292e-005
9.611481e-004,2.376183e-005
1.192091e-003,2.619281e-005
1.260969e-003,2.603075e-005
1.235363e-003,2.343770e-005
1.188526e-003,2.295151e-005
1.159192e-003,2.084466e-005
1.162596e-003,1.355172e-005
1.201978e-003,2.855407e-006
1.263076e-003,-1.335113e-005
1.309103e-003,-3.571614e-005
1.259673e-003,-5.986387e-005
1.014954e-003,-8.028410e-005
5.110924e-004,-9.551824e-005
-2.306807e-004,-1.036215e-004
-1.093030e-003,-1.089697e-004
-1.912757e-003,-1.107524e-004
-2.543029e-003,-1.102662e-004
-2.908325e-003,-1.125351e-004
-3.012210e-003,-1.209625e-004
-2.908650e-003,-1.303623e-004
-2.654855e-003,-1.314967e-004
-2.291017e-003,-1.208004e-004
-1.840151e-003,-1.036215e-004
-1.342773e-003,-9.017008e-005
-8.641939e-004,-8.887356e-005
-4.651892e-004,-1.031353e-004
-1.716889e-004,-1.261486e-004
2.927205e-005,-1.465688e-004
1.652449e-004,-1.551583e-004
2.602152e-004,-1.470550e-004
3.205035e-004,-1.263107e-004
3.409237e-004,-1.000561e-004
3.188828e-004,-7.493595e-005
2.574601e-004,-5.500191e-005
1.589243e-004,-3.879538e-005
3.235129e-005,-2.712668e-005
-8.984595e-005,-1.788895e-005
-1.741199e-004,-5.896120e-006
-2.055606e-004,1.484824e-005
-2.005366e-004,4.094075e-005
-1.994021e-004,6.362991e-005
-2.418632e-004,7.627100e-005
-3.402368e-004,7.578480e-005
-4.637306e-004,6.362991e-005
-5.501114e-004,4.418206e-005
-5.562698e-004,2.748934e-005
-4.835025e-004,2.278944e-005
-3.574158e-004,3.202716e-005
-1.977815e-004,5.536457e-005
-6.220252e-006,8.939829e-005
2.114335e-004,1.315353e-004
4.266563e-004,1.762653e-004
6.104385e-004,2.179161e-004
7.486803e-004,2.453052e-004
8.454334e-004,2.530843e-004
9.131767e-004,2.453052e-004
9.616343e-004,2.305572e-004
9.917786e-004,2.158093e-004
9.989094e-004,2.102990e-004
9.742755e-004,2.151610e-004
9.102596e-004,2.253711e-004
8.041067e-004,2.373639e-004
6.647304e-004,2.456293e-004
5.140096e-004,2.427121e-004
3.793332e-004,2.287745e-004
2.786906e-004,2.135403e-004
2.159713e-004,2.062474e-004
1.949028e-004,2.077060e-004
2.229401e-004,2.119197e-004
2.882525e-004,2.184023e-004
3.535648e-004,2.240746e-004
3.728506e-004,2.247229e-004
3.347652e-004,2.162954e-004
2.718839e-004,1.966855e-004
2.444948e-004,1.686482e-004
2.927903e-004,1.349386e-004
4.076947e-004,1.017153e-004
5.405883e-004,7.562274e-005
6.319932e-004,5.763349e-005
6.499824e-004,4.418206e-005
6.063868e-004,3.316162e-005
5.482053e-004,2.149292e-005
5.282713e-004,5.610517e-006
5.576051e-004,-1.562004e-005
6.013628e-004,-4.041603e-005
6.052523e-004,-6.099833e-005
5.162785e-004,-7.850138e-005
3.195311e-004,-9.665270e-005
5.244739e-005,-1.224211e-004
-2.036158e-004,-1.522411e-004
-3.684362e-004,-1.807646e-004
-3.979321e-004,-1.966470e-004
-3.010170e-004,-1.976194e-004
-1.404103e-004,-1.833576e-004
9.824215e-006,-1.603444e-004
1.041462e-004,-1.357104e-004
1.294284e-004,-1.161005e-004
9.377406e-005,-1.028112e-004
2.894792e-005,-9.892161e-005
-1.302700e-005,-1.047560e-004
-5.571990e-006,-1.152902e-004
4.823370e-005,-1.243659e-004
1.621656e-004,-1.302002e-004
3.762539e-004,-1.311726e-004
6.974676e-004,-1.253383e-004
1.071677e-003,-1.139937e-004
1.402128e-003,-1.007043e-004
1.592880e-003,-8.611845e-005
1.601307e-003,-6.683268e-005
1.464686e-003,-4.203669e-005
1.264373e-003,-1.189254e-005
1.066653e-003,2.311357e-005
8.825464e-004,5.844381e-005
6.608408e-004,8.696731e-005
3.101313e-004,1.034980e-004
-2.585559e-004,1.044704e-004
-1.070827e-003,8.858796e-005
-2.062991e-003,6.152305e-005
-3.097132e-003,3.170304e-005
-3.993843e-003,3.503668e-006
-4.567558e-003,-1.918548e-005
-4.686678e-003,-3.296103e-005
-4.310359e-003,-3.847125e-005
-3.498893e-003,-3.717473e-005
-2.411108e-003,-3.182657e-005
-1.271788e-003,-2.420950e-005
-3.083100e-004,-1.416145e-005
3.245551e-004,-8.720959e-007
6.005525e-004,1.209313e-005
6.084936e-004,2.165498e-005
4.911583e-004,2.376183e-005
3.752816e-004,2.116879e-005
3.328204e-004,1.825161e-005
3.807918e-004,2.376183e-005
4.901859e-004,4.402000e-005
6.089798e-004,7.529860e-005
7.015193e-004,1.096565e-004
7.580801e-004,1.407730e-004
7.934103e-004,1.660552e-004
8.130203e-004,1.848548e-004
8.160995e-004,1.952270e-004
8.047550e-004,1.970097e-004
7.857933e-004,1.955511e-004
7.694247e-004,1.945787e-004
7.674799e-004,1.963614e-004
7.832003e-004,2.002510e-004
8.107513e-004,2.034923e-004
8.460816e-004,2.051129e-004
8.804395e-004,2.051129e-004
8.989150e-004,2.007372e-004
8.982667e-004,1.924718e-004
8.872462e-004,1.824238e-004
8.817361e-004,1.752929e-004
8.922703e-004,1.741585e-004
9.185249e-004,1.739964e-004
9.457519e-004,1.644345e-004
9.439692e-004,1.417454e-004
8.817361e-004,1.112771e-004
7.323117e-004,8.405014e-005
4.919686e-004,6.800567e-005
2.041406e-004,6.362991e-005
-5.386745e-005,6.427817e-005
-2.193361e-004,6.152305e-005
-2.783279e-004,4.742337e-005
-2.639041e-004,1.517237e-005
-2.248464e-004,-3.215070e-005
-2.060468e-004,-8.174268e-005
-2.457528e-004,-1.198280e-004
-3.640605e-004,-1.396000e-004
-5.596732e-004,-1.436516e-004
-7.982334e-004,-1.415448e-004
-1.035497e-003,-1.426792e-004
-1.244237e-003,-1.502963e-004
-1.400954e-003,-1.585616e-004
-1.471290e-003,-1.639098e-004
-1.418295e-003,-1.660166e-004
-1.225113e-003,-1.679614e-004
-9.087619e-004,-1.682856e-004
-5.279084e-004,-1.656925e-004
-1.760647e-004,-1.577513e-004
5.277153e-005,-1.434896e-004
1.145184e-004,-1.298761e-004
2.408596e-005,-1.224211e-004
-1.629374e-004,-1.255003e-004
-3.666535e-004,-1.379794e-004
-5.207775e-004,-1.546721e-004
-5.909518e-004,-1.634236e-004
-5.825245e-004,-1.541859e-004
-5.306636e-004,-1.259865e-004
-4.789647e-004,-7.882551e-005
-4.611376e-004,-2.031993e-005
-4.820440e-004,3.818565e-005
-5.021401e-004,8.453633e-005
-4.557894e-004,1.101427e-004
-2.993964e-004,1.190562e-004
-3.360929e-005,1.164632e-004
2.770700e-004,1.111150e-004
5.298919e-004,1.046324e-004
6.540340e-004,9.766362e-005
6.511169e-004,9.053275e-005
5.849942e-004,8.534666e-005
5.383193e-004,8.323981e-005
5.556603e-004,8.421220e-005
6.261588e-004,8.518459e-005
7.041123e-004,8.469840e-005
7.425218e-004,8.259155e-005
7.146465e-004,7.999851e-005
6.306967e-004,8.259155e-005
5.279472e-004,9.182927e-005
4.475628e-004,1.059290e-004
4.120704e-004,1.206769e-004
4.196875e-004,1.344524e-004
4.469145e-004,1.461212e-004
4.559901e-004,1.534141e-004
4.157979e-004,1.574657e-004
3.271482e-004,1.616794e-004
2.200230e-004,1.667035e-004
1.239182e-004,1.749688e-004
4.953022e-005,1.874478e-004
-1.221667e-005,2.015475e-004
-6.602235e-005,2.114335e-004
-9.017008e-005,2.146748e-004
-5.759496e-005,2.104611e-004
3.348575e-005,2.000889e-004
1.560072e-004,1.866375e-004
2.748010e-004,1.704310e-004
3.598854e-004,1.513072e-004
3.908399e-004,1.321835e-004
3.650715e-004,1.135460e-004
2.947351e-004,9.426025e-005
2.080301e-004,7.432621e-005
1.399627e-004,5.406805e-005
1.106288e-004,3.559260e-005
1.172735e-004,2.230325e-005
1.477418e-004,1.501031e-005
1.895547e-004,1.160693e-005
2.274780e-004,1.176900e-005
2.548670e-004,1.808955e-005
2.764217e-004,3.040651e-005
3.055935e-004,4.353380e-005
3.506476e-004,5.050261e-005
4.101256e-004,4.645098e-005
4.733311e-004,3.186510e-005
5.264886e-004,1.193106e-005
5.650602e-004,-4.437533e-006
5.948802e-004,-1.237873e-005
6.151384e-004,-1.675450e-005
6.165970e-004,-2.518189e-005
5.851563e-004,-3.976777e-005
5.055821e-004,-5.759496e-005
3.593992e-004,-7.623246e-005
1.490383e-004,-9.373552e-005
-9.114248e-005,-1.088076e-004
-3.219235e-004,-1.162626e-004
-5.348772e-004,-1.138316e-004
-7.462104e-004,-1.070249e-004
-9.732639e-004,-1.034594e-004
-1.206638e-003,-1.097800e-004
-1.403385e-003,-1.248521e-004
-1.518938e-003,-1.439758e-004
-1.540493e-003,-1.598582e-004
-1.488956e-003,-1.697442e-004
-1.400144e-003,-1.720131e-004
-1.287995e-003,-1.642339e-004
-1.139543e-003,-1.455964e-004
-9.325854e-004,-1.209625e-004
-6.590193e-004,-9.600444e-005
-3.433161e-004,-8.174268e-005
-3.685060e-005,-8.352541e-005
2.072198e-004,-9.600444e-005
3.475684e-004,-1.062146e-004
3.827366e-004,-1.052422e-004
3.545372e-004,-9.098041e-005
3.198552e-004,-6.877746e-005
3.240689e-004,-4.479180e-005
3.827366e-004,-1.983374e-005
4.822447e-004,6.744974e-006
5.872631e-004,3.494434e-005
6.655407e-004,6.330578e-005
7.060571e-004,8.615699e-005
7.114052e-004,1.031738e-004
6.665131e-004,1.172735e-004
5.285954e-004,1.313732e-004
2.678322e-004,1.445005e-004
-8.854943e-005,1.545486e-004
-4.437966e-004,1.597346e-004
-6.781430e-004,1.582761e-004
-7.100698e-004,1.511452e-004
-5.452494e-004,1.436902e-004
-2.802727e-004,1.415833e-004
-4.284701e-005,1.438522e-004
9.199134e-005,1.482280e-004
1.443384e-004,1.526038e-004
1.921477e-004,1.584381e-004
3.106175e-004,1.678379e-004
5.222749e-004,1.808031e-004
7.929241e-004,1.929580e-004
1.054174e-003,1.999268e-004
1.235525e-003,2.007372e-004
1.285441e-003,1.983062e-004
1.190147e-003,1.955511e-004
9.830269e-004,1.942546e-004
7.284221e-004,1.958752e-004
4.961824e-004,2.012234e-004
3.360618e-004,2.091646e-004
2.607014e-004,2.174299e-004
2.563256e-004,2.226160e-004
2.934386e-004,2.179161e-004
3.237448e-004,1.992786e-004
3.021901e-004,1.654069e-004
1.934442e-004,1.200286e-004
-1.108221e-005,7.124698e-005
-2.606628e-004,2.230325e-005
-4.744269e-004,-1.578211e-005
-5.869002e-004,-3.960571e-005
-5.674524e-004,-5.127441e-005
-4.399070e-004,-5.370539e-005
-2.614731e-004,-4.965376e-005
-8.514606e-005,-4.074016e-005
6.055066e-005,-2.858527e-005
1.678379e-004,-1.513384e-005
2.333123e-004,2.623614e-007
2.393087e-004,1.727922e-005
1.668655e-004,3.445814e-005
-2.238346e-007,4.742337e-005
-2.694143e-004,5.196120e-005
-6.058619e-004,4.288554e-005
-9.317751e-004,2.538249e-005
-1.157208e-003,4.962256e-006
-1.221872e-003,-1.237873e-005
-1.120905e-003,-2.518189e-005
-8.956346e-004,-3.636440e-005
-6.089411e-004,-4.479180e-005
-3.178718e-004,-5.224680e-005
-7.120844e-005,-6.197072e-005
7.967438e-005,-7.509801e-005
9.442231e-005,-9.179074e-005
-3.636440e-005,-1.092938e-004
-2.794623e-004,-1.276072e-004
-5.634008e-004,-1.441378e-004
-8.123330e-004,-1.582375e-004
-9.737500e-004,-1.671511e-004
-1.033228e-003,-1.694200e-004
-1.030149e-003,-1.663408e-004
-1.040197e-003,-1.611547e-004
-1.108264e-003,-1.543479e-004
-1.211176e-003,-1.425172e-004
-1.272112e-003,-1.212866e-004
-1.203235e-003,-9.486997e-005
-9.659709e-004,-7.039812e-005
-5.924104e-004,-5.338126e-005
-1.600202e-004,-4.268495e-005
2.427121e-004,-3.150244e-005
5.567948e-004,-1.562004e-005
7.686144e-004,9.175954e-006
8.891911e-004,3.802358e-005
9.392693e-004,6.233338e-005
9.447795e-004,7.529860e-005
9.216042e-004,7.643307e-005
8.702294e-004,6.784360e-005
7.832003e-004,5.309566e-005
6.587339e-004,3.850978e-005
5.238955e-004,3.121684e-005
4.255218e-004,3.818565e-005
4.059119e-004,6.298164e-005
4.650658e-004,1.025256e-004
5.519328e-004,1.470936e-004
6.057385e-004,1.882582e-004
5.890459e-004,2.200230e-004
5.102821e-004,2.404432e-004
4.198496e-004,2.493568e-004
3.752816e-004,2.521119e-004
3.966742e-004,2.561635e-004
4.482110e-004,2.626462e-004
4.806241e-004,2.662116e-004
4.679830e-004,2.611876e-004
4.159600e-004,2.475741e-004
3.613439e-004,2.278021e-004
3.441650e-004,2.028440e-004
3.736609e-004,1.744826e-004
4.357320e-004,1.470936e-004
5.204921e-004,1.279698e-004
6.118971e-004,1.185701e-004
6.836920e-004,1.179218e-004
7.086502e-004,1.180839e-004
6.726716e-004,1.111150e-004
5.922872e-004,9.636710e-005
5.044477e-004,7.967438e-005
4.431870e-004,6.184718e-005
4.235771e-004,4.029250e-005
4.365423e-004,1.598270e-005
4.551798e-004,-2.492749e-006
4.665244e-004,-1.237873e-005
4.673347e-004,-1.173047e-005
4.563143e-004,-5.479652e-007
4.271425e-004,1.711715e-005
3.660439e-004,3.526847e-005
2.595669e-004,5.131294e-005
1.237561e-004,6.103686e-005
-7.030578e-006,6.395404e-005
-1.031353e-004,6.444023e-005
-1.665028e-004,6.573675e-005
-2.350565e-004,6.768154e-005
-3.485022e-004,6.314371e-005
-5.066779e-004,4.677511e-005
-6.799257e-004,1.663096e-005
-8.180053e-004,-2.469570e-005
-8.747282e-004,-6.780507e-005
-8.356704e-004,-1.034594e-004
-7.157421e-004,-1.267968e-004
-5.510838e-004,-1.381414e-004
-3.801049e-004,-1.430034e-004
-2.288980e-004,-1.470550e-004
-1.070249e-004,-1.538618e-004
-1.724069e-005,-1.637477e-004
3.867184e-005,-1.736337e-004
6.119892e-005,-1.807646e-004
5.131294e-005,-1.802784e-004
1.468618e-005,-1.705545e-004
-3.798505e-005,-1.558065e-004
-9.989401e-005,-1.428413e-004
-1.682856e-004,-1.389517e-004
-2.337599e-004,-1.468929e-004
-2.677937e-004,-1.616409e-004
-2.454286e-004,-1.747682e-004
-1.647201e-004,-1.814128e-004
-3.749886e-005,-1.794681e-004
1.200286e-004,-1.632615e-004
2.827423e-004,-1.310105e-004
4.193634e-004,-8.935975e-005
5.037994e-004,-4.787104e-005
5.339436e-004,-1.756482e-005
5.266506e-004,-1.520357e-006
4.892136e-004,5.934648e-006
4.094774e-004,9.986281e-006
2.874421e-004,1.436204e-005
1.542244e-004,2.116879e-005
5.034055e-005,3.251336e-005
-2.238346e-007,4.726130e-005
-1.682422e-006,6.071273e-005
2.829966e-005,7.221937e-005
7.594687e-005,8.226741e-005
1.313732e-004,9.101894e-005
1.796687e-004,9.636710e-005
1.926339e-004,1.005808e-004
1.459591e-004,1.043083e-004
3.721326e-005,1.072255e-004
-1.036215e-004,1.088461e-004
-2.313290e-004,1.081979e-004
-3.008550e-004,1.083599e-004
-2.799486e-004,1.135460e-004
-1.755785e-004,1.234320e-004
-3.960571e-005,1.373696e-004
6.395404e-005,1.519555e-004
9.020862e-005,1.652449e-004
3.024445e-005,1.778860e-004
-8.757704e-005,1.898788e-004
-2.097743e-004,2.018716e-004
-2.877277e-004,2.119197e-004
-3.044204e-004,2.179161e-004
-2.692523e-004,2.188885e-004
-2.081536e-004,2.180782e-004
-1.553203e-004,2.175920e-004
-1.342519e-004,2.158093e-004
-1.467309e-004,2.086784e-004
-1.715269e-004,1.960373e-004
-1.750923e-004,1.814514e-004
-1.300382e-004,1.676758e-004
-3.571614e-005,1.537382e-004
8.518459e-005,1.370455e-004
2.000889e-004,1.210010e-004
2.822560e-004,1.073875e-004
3.169380e-004,9.944634e-005
3.038107e-004,9.701536e-005
2.504913e-004,9.507057e-005
1.620036e-004,9.053275e-005
4.142696e-005,7.967438e-005
-1.031353e-004,5.730935e-005
-2.528836e-004,2.359977e-005
-3.645466e-004,-1.286493e-005
-3.908012e-004,-4.398147e-005
-3.074997e-004,-6.683268e-005
-1.230693e-004,-7.769106e-005
1.130598e-004,-7.817725e-005
3.347652e-004,-7.526008e-005
4.885653e-004,-7.542214e-005
5.569569e-004,-8.271508e-005
5.509604e-004,-9.681477e-005
4.916445e-004,-1.117248e-004
4.106118e-004,-1.212866e-004
3.326584e-004,-1.216107e-004
2.709115e-004,-1.060525e-004
2.282883e-004,-7.526008e-005
1.913374e-004,-3.814712e-005
1.401247e-004,-7.516774e-006
4.304761e-005,6.582909e-006
-1.287416e-004,1.720949e-006
-3.656811e-004,-1.464765e-005
-5.946793e-004,-3.377136e-005
-7.285453e-004,-4.592625e-005
-7.186593e-004,-4.625038e-005
-5.775004e-004,-3.879538e-005
-3.604950e-004,-3.539201e-005
-1.363587e-004,-4.252288e-005
2.975825e-005,-6.132246e-005
1.013911e-004,-8.709085e-005
9.685330e-005,-1.136696e-004
8.242948e-005,-1.368449e-004
1.276457e-004,-1.514308e-004
2.628082e-004,-1.562927e-004
4.579349e-004,-1.519170e-004
6.232416e-004,-1.378173e-004
6.546823e-004,-1.107524e-004
4.882411e-004,-7.120844e-005
1.226217e-004,-2.501983e-005
-3.663294e-004,2.570662e-005
-8.560906e-004,7.756752e-005
-1.234189e-003,1.222976e-004
-1.421861e-003,1.532520e-004
-1.396254e-003,1.731861e-004
-1.179411e-003,1.874478e-004
-8.267568e-004,1.978200e-004
-4.202971e-004,2.036544e-004
-4.074016e-005,2.057612e-004
2.508154e-004,2.028440e-004
4.161220e-004,1.957132e-004
4.474007e-004,1.874478e-004
3.490270e-004,1.785342e-004
1.284560e-004,1.645966e-004
-1.809267e-004,1.433661e-004
-5.095950e-004,1.174356e-004
-7.860785e-004,9.426025e-005
-9.859049e-004,7.967438e-005
-1.132250e-003,7.384002e-005
-1.244885e-003,7.319176e-005
-1.314897e-003,7.108491e-005
-1.300150e-003,6.281957e-005
-1.144081e-003,4.953022e-005
-8.327533e-004,3.786152e-005
-4.099249e-004,3.413401e-005
5.050261e-005,4.061663e-005
4.751139e-004,6.071273e-005
8.089686e-004,8.680524e-005
1.029216e-003,1.096565e-004
1.136665e-003,1.224596e-004
1.145255e-003,1.244044e-004
1.074594e-003,1.213252e-004
9.491552e-004,1.187321e-004
8.073480e-004,1.216493e-004
6.942263e-004,1.260251e-004
6.271312e-004,1.257009e-004
5.958526e-004,1.185701e-004
5.851563e-004,1.022015e-004
5.827253e-004,7.983644e-005
5.830494e-004,5.795762e-005
5.721910e-004,3.915804e-005
5.178991e-004,2.441009e-005
3.718782e-004,1.468618e-005
9.944634e-005,7.717366e-006
-2.784900e-004,4.313994e-006
-6.667984e-004,5.772582e-006
-9.452265e-004,9.662150e-006
-1.028852e-003,1.176900e-005
-8.904485e-004,9.013889e-006
-5.593491e-004,2.369211e-006
-1.101041e-004,-7.192643e-006
3.535648e-004,-1.886135e-005
7.293945e-004,-3.036798e-005
9.582310e-004,-4.203669e-005
1.046233e-003,-5.532604e-005
1.041857e-003,-6.812920e-005
9.966405e-004,-7.736692e-005
9.389452e-004,-8.174268e-005
8.742810e-004,-8.206682e-005
7.891966e-004,-7.914964e-005
6.673234e-004,-7.833932e-005
5.065545e-004,-8.628052e-005
3.303894e-004,-1.068628e-004
1.863134e-004,-1.357104e-004
1.015532e-004,-1.611547e-004
6.881599e-005,-1.724993e-004
6.314371e-005,-1.666649e-004
7.319176e-005,-1.449482e-004
9.344993e-005,-1.131834e-004
1.056048e-004,-7.542214e-005
8.631905e-005,-3.814712e-005
2.894792e-005,-6.544382e-006
-5.500191e-005,1.679302e-005
-1.418689e-004,3.235129e-005
-2.128535e-004,3.899597e-005
-2.587180e-004,3.397195e-005
-2.728177e-004,1.711715e-005
-2.447804e-004,-6.868513e-006
-1.621271e-004,-3.036798e-005
-3.296103e-005,-4.398147e-005
1.051186e-004,-4.268495e-005
2.065715e-004,-3.166451e-005
2.444948e-004,-1.967167e-005
2.227781e-004,-9.461558e-006
1.796687e-004,1.396819e-006
1.620036e-004,1.403791e-005
2.052750e-004,2.878586e-005
3.086727e-004,4.369587e-005
4.352458e-004,5.763349e-005
5.470709e-004,7.351589e-005
6.290760e-004,9.101894e-005
6.848265e-004,1.070634e-004
7.373357e-004,1.163011e-004
7.974620e-004,1.200286e-004
8.549952e-004,1.247285e-004
8.953495e-004,1.357490e-004
9.096113e-004,1.582761e-004
9.055596e-004,1.884202e-004
9.000494e-004,2.198609e-004
9.042631e-004,2.506533e-004
9.107458e-004,2.752873e-004
9.149595e-004,2.900352e-004
9.099355e-004,2.939248e-004
8.806016e-004,2.895490e-004
8.120479e-004,2.777182e-004
7.000606e-004,2.607014e-004
5.337815e-004,2.389846e-004
2.929524e-004,2.138645e-004
-2.874733e-005,1.877720e-004
-3.990665e-004,1.675138e-004
-7.599859e-004,1.582761e-004
-1.069693e-003,1.564933e-004
-1.317329e-003,1.564933e-004
-1.500300e-003,1.539003e-004
-1.607263e-003,1.469315e-004
-1.641459e-003,1.292664e-004
-1.623632e-003,9.701536e-005
-1.556375e-003,5.536457e-005
-1.430288e-003,1.533444e-005
-1.232244e-003,-1.383732e-005
-9.666192e-004,-3.279896e-005
-6.676087e-004,-4.446767e-005
-3.867496e-004,-5.062615e-005
-1.679614e-004,-4.787104e-005
-3.458168e-005,-3.701266e-005
-2.238346e-007,-2.096820e-005
-7.250496e-005,-3.627206e-006
-2.489941e-004,7.069105e-006
-5.167259e-004,7.393236e-006
-8.368049e-004,-2.006553e-006
-1.135005e-003,-1.902341e-005
-1.325594e-003,-4.284701e-005
-1.344069e-003,-7.023606e-005
-1.178276e-003,-9.632857e-005
-8.658146e-004,-1.165867e-004
-4.835025e-004,-1.279313e-004
-1.173971e-004,-1.298761e-004
1.613553e-004,-1.211246e-004
3.222862e-004,-1.049180e-004
3.859779e-004,-8.968389e-005
3.897054e-004,-8.660465e-005
3.644232e-004,-1.013526e-004
3.239069e-004,-1.298761e-004
2.607014e-004,-1.640719e-004
1.479039e-004,-1.943781e-004
-3.636440e-005,-2.146363e-004
-2.729798e-004,-2.157707e-004
-5.070020e-004,-1.940539e-004
-6.695535e-004,-1.549962e-004
-7.056941e-004,-1.115627e-004
-6.129927e-004,-7.866345e-005
-4.463896e-004,-6.018800e-005
-2.747625e-004,-5.743289e-005
-1.387897e-004,-6.586029e-005
-4.997789e-005,-7.477388e-005
2.693341e-006,-7.542214e-005
4.256141e-005,-6.569822e-005
9.458438e-005,-4.900550e-005
1.655690e-004,-3.360929e-005
2.582704e-004,-1.853722e-005
3.872744e-004,-3.141010e-006
5.574431e-004,1.160693e-005
7.428459e-004,2.003433e-005
8.908117e-004,1.630683e-005
9.613102e-004,4.313994e-006
9.496415e-004,-6.058186e-006
8.720121e-004,-6.382317e-006
7.459252e-004,6.744974e-006
5.856425e-004,2.894792e-005
4.213082e-004,5.552663e-005
2.824181e-004,8.631905e-005
1.799928e-004,1.200286e-004
1.005808e-004,1.501728e-004
1.646890e-005,1.715654e-004
-9.405965e-005,1.885823e-004
-2.387840e-004,2.046267e-004
-4.084663e-004,2.231022e-004
-5.580526e-004,2.438466e-004
-6.246614e-004,2.650771e-004
-5.614560e-004,2.816078e-004
-3.637363e-004,2.874421e-004
-7.201877e-005,2.827423e-004
2.644289e-004,2.705873e-004
5.992560e-004,2.540567e-004
9.039390e-004,2.359054e-004
1.160165e-003,2.229401e-004
1.353347e-003,2.175920e-004
1.474896e-003,2.190506e-004
1.515250e-003,2.226160e-004
1.466307e-003,2.258573e-004
1.325796e-003,2.265056e-004
1.120945e-003,2.174299e-004
9.125285e-004,1.974959e-004
7.793107e-004,1.668655e-004
7.587284e-004,1.294284e-004
8.219338e-004,8.907416e-005
8.877325e-004,5.163707e-005
8.699053e-004,2.003433e-005
7.109190e-004,-3.465141e-006
3.861400e-004,-1.934754e-005
-7.623246e-005,-2.793700e-005
-5.747453e-004,-3.296103e-005
-9.698605e-004,-3.506788e-005
-1.153967e-003,-3.150244e-005
-1.085089e-003,-1.886135e-005
-8.147640e-004,-2.006553e-006
-4.637306e-004,1.257933e-005
-1.759026e-004,1.776542e-005
-6.278104e-005,1.517237e-005
-1.608306e-004,7.393236e-006
-4.271038e-004,-5.896120e-006
-7.635514e-004,-2.356124e-005
-1.050893e-003,-4.349527e-005
-1.189783e-003,-5.953974e-005
-1.136788e-003,-7.007399e-005
-9.199444e-004,-7.688073e-005
-6.204477e-004,-8.628052e-005
-3.361852e-004,-1.021629e-004
-1.381414e-004,-1.211246e-004
-5.127441e-005,-1.383035e-004
-6.326724e-005,-1.509446e-004
-1.319829e-004,-1.601823e-004
-2.104225e-004,-1.658546e-004
-2.716832e-004,-1.684476e-004
-3.211132e-004,-1.661787e-004
-3.873979e-004,-1.608306e-004
-4.757234e-004,-1.548341e-004
-5.543251e-004,-1.459206e-004
-5.753936e-004,-1.344139e-004
-4.993849e-004,-1.208004e-004
-3.269475e-004,-1.071869e-004
-9.405965e-005,-9.681477e-005
1.412592e-004,-8.644259e-005
3.213138e-004,-7.331530e-005
4.138531e-004,-5.532604e-005
4.200116e-004,-3.328516e-005
3.713920e-004,-1.416145e-005
3.057555e-004,-4.761664e-006
2.435224e-004,-5.085794e-006
1.898788e-004,-1.156841e-005
1.474177e-004,-1.756482e-005
1.257009e-004,-1.999580e-005
1.389903e-004,-1.772689e-005
1.876099e-004,-1.610624e-005
2.530843e-004,-1.886135e-005
3.122381e-004,-2.534396e-005
3.470822e-004,-3.522994e-005
3.485408e-004,-4.414354e-005
3.098072e-004,-4.057810e-005
2.171058e-004,-1.513384e-005
6.638502e-005,3.494434e-005
-1.130213e-004,1.033359e-004
-2.694143e-004,1.743205e-004
-3.562813e-004,2.318537e-004
-3.473677e-004,2.663737e-004
-2.261429e-004,2.767458e-004
2.855407e-006,2.710735e-004
2.978143e-004,2.613496e-004
5.856425e-004,2.558394e-004
7.893587e-004,2.553532e-004
8.645570e-004,2.615117e-004
8.144788e-004,2.754493e-004
6.849886e-004,2.934386e-004
5.417228e-004,3.098072e-004
4.294114e-004,3.167760e-004
3.608578e-004,3.128864e-004
3.248792e-004,3.026763e-004
3.140208e-004,2.914938e-004
3.303894e-004,2.809595e-004
3.824125e-004,2.713977e-004
4.717105e-004,2.649151e-004
5.835356e-004,2.621599e-004
6.939021e-004,2.607014e-004
7.819037e-004,2.563256e-004
8.387887e-004,2.438466e-004
8.679605e-004,2.224539e-004
8.810877e-004,1.934442e-004
8.844911e-004,1.587623e-004
8.663398e-004,1.218114e-004
8.054032e-004,8.599492e-005
7.013571e-004,5.390598e-005
5.736496e-004,2.408596e-005
4.431870e-004,-6.544382e-006
3.171001e-004,-3.782299e-005
1.858272e-004,-6.699475e-005
1.873781e-005,-9.454585e-005
-2.266291e-004,-1.170729e-004
-5.677765e-004,-1.327933e-004
-9.594883e-004,-1.426792e-004
-1.320894e-003,-1.451102e-004
-1.576471e-003,-1.444620e-004
-1.680841e-003,-1.433275e-004
-1.634004e-003,-1.434896e-004
-1.462863e-003,-1.460826e-004
-1.204531e-003,-1.501342e-004
-9.074653e-004,-1.559686e-004
-6.194753e-004,-1.634236e-004
-3.666535e-004,-1.700683e-004
-1.305243e-004,-1.737958e-004
1.141943e-004,-1.749302e-004
3.530786e-004,-1.726613e-004
5.386435e-004,-1.663408e-004
6.400964e-004,-1.593720e-004
6.665131e-004,-1.533756e-004
6.580857e-004,-1.494860e-004
6.548444e-004,-1.451102e-004
6.645683e-004,-1.381414e-004
6.676476e-004,-1.266348e-004
6.188659e-004,-1.138316e-004
4.697657e-004,-1.060525e-004
1.858272e-004,-1.096179e-004
-2.464010e-004,-1.251762e-004
-7.794338e-004,-1.425172e-004
-1.305660e-003,-1.514308e-004
-1.716171e-003,-1.441378e-004
-1.965752e-003,-1.222590e-004
-2.074012e-003,-9.324933e-005
-2.096863e-003,-6.748094e-005
-2.080656e-003,-5.046408e-005
-2.046461e-003,-4.381940e-005
-1.977583e-003,-4.754691e-005
-1.841610e-003,-6.018800e-005
-1.619094e-003,-7.428769e-005
-1.328673e-003,-7.769106e-005
-1.024639e-003,-6.391550e-005
-7.569068e-004,-3.296103e-005
-5.343911e-004,1.047248e-005
-3.284061e-004,5.568870e-005
-1.092938e-004,9.296373e-005
9.669123e-005,1.182459e-004
2.081922e-004,1.329939e-004
1.694586e-004,1.389903e-004
3.008238e-005,1.417454e-004
-7.801519e-005,1.427178e-004
-5.694670e-005,1.451488e-004
9.474644e-005,1.496866e-004
2.953834e-004,1.586002e-004
4.545315e-004,1.714034e-004
5.379952e-004,1.819376e-004
5.631154e-004,1.871237e-004
5.626292e-004,1.853410e-004
5.584154e-004,1.765894e-004
5.642498e-004,1.620036e-004
5.845079e-004,1.472556e-004
6.274553e-004,1.388282e-004
6.990883e-004,1.375317e-004
8.029722e-004,1.398006e-004
9.361901e-004,1.425557e-004
1.082859e-003,1.449867e-004
1.220777e-003,1.480659e-004
1.325958e-003,1.571416e-004
1.380736e-003,1.710792e-004
1.377008e-003,1.822617e-004
1.319799e-003,1.842065e-004
1.220939e-003,1.761032e-004
1.095825e-003,1.620036e-004
9.595275e-004,1.466074e-004
8.280924e-004,1.333180e-004
7.203188e-004,1.255389e-004
6.519272e-004,1.274836e-004
6.183797e-004,1.393144e-004
6.002283e-004,1.568175e-004
5.804563e-004,1.748067e-004
5.475571e-004,1.906891e-004
5.125510e-004,2.005751e-004
5.025029e-004,2.039785e-004
5.365367e-004,2.012234e-004
6.102764e-004,1.903650e-004
6.827196e-004,1.655690e-004
7.052467e-004,1.257009e-004
6.465791e-004,7.562274e-005
5.007202e-004,2.554455e-005
2.921420e-004,-1.691656e-005
7.011252e-005,-5.013995e-005
-1.161005e-004,-7.104638e-005
-2.381357e-004,-7.947377e-005
-2.861070e-004,-7.639453e-005
-2.817312e-004,-7.039812e-005
-2.498044e-004,-6.650855e-005
-2.120432e-004,-6.650855e-005
-1.741199e-004,-6.748094e-005
-1.361966e-004,-6.456377e-005
-1.076731e-004,-5.759496e-005
-1.041077e-004,-5.224680e-005
-1.255003e-004,-5.759496e-005
-1.520790e-004,-7.639453e-005
-1.682856e-004,-1.049180e-004
-1.778474e-004,-1.378173e-004
-1.844921e-004,-1.700683e-004
-1.780095e-004,-1.958367e-004
-1.340898e-004,-2.084778e-004
-3.604027e-005,-2.062088e-004
1.085220e-004,-1.914609e-004
2.618358e-004,-1.715269e-004
3.780367e-004,-1.512687e-004
4.273046e-004,-1.314967e-004
4.123946e-004,-1.115627e-004
3.639370e-004,-8.854943e-005
3.120761e-004,-6.472583e-005
2.773941e-004,-3.717473e-005
2.642668e-004,-5.896120e-006
2.652392e-004,2.149292e-005
2.688046e-004,3.818565e-005
2.699391e-004,4.564065e-005
2.681563e-004,5.017848e-005
2.793389e-004,5.666109e-005
3.179104e-004,6.962632e-005
3.777126e-004,9.215340e-005
4.242253e-004,1.195424e-004
3.926226e-004,1.445005e-004
2.130541e-004,1.634622e-004
-1.289037e-004,1.739964e-004
-5.700454e-004,1.730240e-004
-1.006001e-003,1.603829e-004
-1.323649e-003,1.385041e-004
-1.437419e-003,1.099806e-004
-1.334670e-003,7.627100e-005
-1.075041e-003,4.142696e-005
-7.562584e-004,9.338019e-006
-4.784786e-004,-1.691656e-005
-3.104168e-004,-2.988179e-005
-2.663351e-004,-2.518189e-005
-3.074997e-004,-6.058186e-006
-3.666535e-004,1.938607e-005
-3.852910e-004,4.288554e-005
-3.436402e-004,6.184718e-005
-2.611490e-004,7.821578e-005
-1.663408e-004,9.490851e-005
-8.433573e-005,1.119254e-004
-2.015787e-005,1.257009e-004
2.554455e-005,1.360731e-004
5.763349e-005,1.445005e-004
8.712937e-005,1.534141e-004
1.312112e-004,1.621656e-004
1.986303e-004,1.691344e-004
2.832284e-004,1.684862e-004
3.686369e-004,1.577899e-004
4.464283e-004,1.425557e-004
5.046097e-004,1.299146e-004
5.258403e-004,1.253768e-004
4.952099e-004,1.304008e-004
3.987811e-004,1.401247e-004
2.349330e-004,1.435281e-004
3.429608e-005,1.341283e-004
-1.507825e-004,1.109530e-004
-2.786520e-004,8.178122e-005
-3.376438e-004,5.763349e-005
-3.300267e-004,5.050261e-005
-2.613110e-004,6.541262e-005
-1.486757e-004,9.377406e-005
-2.242678e-005,1.195424e-004
8.080883e-005,1.316974e-004
1.307250e-004,1.252147e-004
1.244044e-004,1.002567e-004
8.210535e-005,6.055066e-005
2.781346e-005,1.517237e-005
-2.728874e-005,-2.437157e-005
-7.542214e-005,-5.159854e-005
-1.042698e-004,-6.116039e-005
-9.243900e-005,-5.646050e-005
-2.680255e-005,-4.592625e-005
8.307774e-005,-3.895745e-005
1.997648e-004,-4.074016e-005
2.514636e-004,-5.240886e-005
1.542244e-004,-7.104638e-005
-1.473791e-004,-9.681477e-005
-6.316302e-004,-1.331174e-004
-1.197238e-003,-1.771992e-004
-1.704016e-003,-2.237119e-004
-2.011941e-003,-2.660110e-004
-2.035440e-003,-2.961551e-004
-1.783753e-003,-3.087962e-004
-1.350066e-003,-3.037722e-004
-8.784557e-004,-2.833519e-004
-5.125122e-004,-2.504527e-004
-3.339163e-004,-2.045882e-004
-3.194925e-004,-1.451102e-004
-3.781601e-004,-7.623246e-005
-4.047388e-004,-8.327101e-006
-3.240303e-004,5.001642e-005
-1.242038e-004,8.907416e-005
1.433661e-004,1.073875e-004
4.091532e-004,1.086841e-004
6.281036e-004,1.005808e-004
7.846588e-004,8.939829e-005
8.822222e-004,7.594687e-005
9.340832e-004,5.941620e-005
9.486690e-004,4.061663e-005
9.277626e-004,2.781346e-005
8.652053e-004,2.278944e-005
7.601869e-004,2.424803e-005
6.298863e-004,3.105477e-005
4.927790e-004,4.175109e-005
3.613439e-004,5.455425e-005
2.326641e-004,7.027458e-005
9.960841e-005,9.134307e-005
-3.263690e-005,1.133840e-004
-1.517549e-004,1.313732e-004
-2.476975e-004,1.417454e-004
-2.958309e-004,1.461212e-004
-2.716832e-004,1.487142e-004
-1.598582e-004,1.498487e-004
3.299956e-005,1.466074e-004
2.723701e-004,1.346145e-004
5.093097e-004,1.175977e-004
7.096225e-004,1.031738e-004
8.630985e-004,9.798775e-005
9.802718e-004,1.059290e-004
1.062277e-003,1.250527e-004
1.092097e-003,1.459591e-004
1.049474e-003,1.615174e-004
9.391072e-004,1.696206e-004
7.755831e-004,1.673517e-004
5.836976e-004,1.548727e-004
4.063981e-004,1.394765e-004
2.817699e-004,1.300767e-004
2.224539e-004,1.276457e-004
2.119197e-004,1.248906e-004
2.153231e-004,1.112771e-004
1.960373e-004,8.080883e-005
1.432040e-004,4.142696e-005
6.654708e-005,4.151929e-006
-1.432352e-005,-2.372331e-005
-8.563225e-005,-4.138842e-005
-1.352242e-004,-5.338126e-005
-1.483515e-004,-6.326724e-005
-1.169109e-004,-6.974985e-005
-5.030202e-005,-6.893953e-005
2.829966e-005,-6.229485e-005
8.745350e-005,-4.819517e-005
1.030118e-004,-3.215070e-005
6.460230e-005,-1.869928e-005
-7.354709e-006,-7.030578e-006
-5.889148e-005,5.772582e-006
-3.490581e-005,2.311357e-005
8.599492e-005,4.531652e-005
2.816078e-004,7.092284e-005
4.976409e-004,9.539470e-005
6.608408e-004,1.103047e-004
7.138362e-004,1.078737e-004
6.449584e-004,8.712937e-005
4.947237e-004,5.682316e-005
3.305515e-004,2.570662e-005
1.989545e-004,-5.479652e-007
1.163011e-004,-1.950961e-005
8.567078e-005,-2.826114e-005
1.033359e-004,-2.550602e-005
1.597346e-004,-1.529591e-005
2.300710e-004,-7.840905e-006
2.540567e-004,-1.075808e-005
1.696206e-004,-2.890940e-005
-2.793700e-005,-5.402952e-005
-2.750866e-004,-7.331530e-005
-4.719959e-004,-7.947377e-005
-5.319601e-004,-7.574627e-005
-4.298589e-004,-6.715681e-005
-2.214430e-004,-5.613637e-005
-8.327101e-006,-4.592625e-005
1.062531e-004,-3.895745e-005
6.038860e-005,-3.522994e-005
-1.618029e-004,-3.863332e-005
-5.311498e-004,-4.900550e-005
-9.815291e-004,-6.537409e-005
-1.440336e-003,-8.255302e-005
-1.836586e-003,-9.730096e-005
-2.127655e-003,-1.058904e-004
-2.303334e-003,-1.039456e-004
-2.367188e-003,-8.757704e-005
-2.305279e-003,-5.743289e-005
-2.083574e-003,-2.048200e-005
-1.686513e-003,1.517237e-005
-1.151860e-003,4.434413e-005
-5.655076e-004,6.897806e-005
-3.053005e-005,8.680524e-005
3.814401e-004,9.912221e-005
6.603546e-004,1.083599e-004
8.480264e-004,1.218114e-004
1.001989e-003,1.475797e-004
1.163082e-003,1.858272e-004
1.341516e-003,2.276400e-004
1.521895e-003,2.623220e-004
1.666782e-003,2.822560e-004
1.737280e-003,2.835526e-004
1.706326e-003,2.741528e-004
1.554632e-003,2.611876e-004
1.268100e-003,2.485465e-004
8.671501e-004,2.412535e-004
4.164462e-004,2.388225e-004
5.448452e-006,2.360674e-004
-2.815692e-004,2.227781e-004
-3.873979e-004,1.961994e-004
-3.110651e-004,1.618415e-004
-1.089697e-004,1.252147e-004
1.321835e-004,9.134307e-005
3.299033e-004,6.606088e-005
4.315182e-004,5.147500e-005
4.151496e-004,4.823370e-005
2.921420e-004,5.504044e-005
1.039842e-004,6.849186e-005
-8.692878e-005,8.242948e-005
-2.156086e-004,9.166720e-005
-2.389460e-004,9.588091e-005
-1.502963e-004,9.523264e-005
6.744974e-006,8.826383e-005
1.509831e-004,7.221937e-005
2.005751e-004,4.628891e-005
9.571884e-005,1.517237e-005
-1.647201e-004,-1.594417e-005
-5.142950e-004,-4.398147e-005
-8.522011e-004,-6.229485e-005
-1.090113e-003,-6.958779e-005
-1.166608e-003,-6.521203e-005
-1.065641e-003,-5.257093e-005
-8.269189e-004,-3.782299e-005
-5.363359e-004,-2.745081e-005
-2.843243e-004,-2.647842e-005
-1.295519e-004,-3.263690e-005
-8.060823e-005,-4.203669e-005
-9.519411e-005,-5.289507e-005
-1.094559e-004,-6.537409e-005
-7.396356e-005,-8.287715e-005
2.992031e-005,-1.005423e-004
1.869616e-004,-1.117248e-004
3.595612e-004,-1.117248e-004
5.055821e-004,-1.065387e-004
5.934216e-004,-1.052422e-004
6.067110e-004,-1.102662e-004
5.383193e-004,-1.209625e-004
3.931088e-004,-1.361966e-004
1.887444e-004,-1.507825e-004
-2.907146e-005,-1.571031e-004
-1.961608e-004,-1.486757e-004
-2.538560e-004,-1.266348e-004
-1.835197e-004,-9.632857e-005
-1.059602e-005,-6.310517e-005
1.966855e-004,-3.296103e-005
3.660439e-004,-1.497178e-005
4.542074e-004,-1.318906e-005
4.559901e-004,-2.583016e-005
3.960259e-004,-4.527799e-005
3.102934e-004,-6.002594e-005
2.339606e-004,-6.229485e-005
1.855030e-004,-5.289507e-005
1.584381e-004,-3.668853e-005
1.432040e-004,-2.420950e-005
1.409351e-004,-2.226472e-005
1.529279e-004,-2.631635e-005
1.879340e-004,-2.420950e-005
2.446569e-004,-4.275467e-006
3.125623e-004,3.656499e-005
3.764160e-004,9.166720e-005
4.284390e-004,1.492004e-004
4.674968e-004,1.981441e-004
5.084993e-004,2.295848e-004
5.674912e-004,2.406053e-004
6.358828e-004,2.326641e-004
6.879058e-004,2.122438e-004
7.190223e-004,1.843686e-004
7.389564e-004,1.550348e-004
7.569456e-004,1.279698e-004
7.687764e-004,1.075496e-004
7.550009e-004,9.442231e-005
6.995744e-004,8.502253e-005
6.102764e-004,7.627100e-005
5.021787e-004,6.832980e-005
3.851676e-004,6.152305e-005
2.585945e-004,5.601284e-005
1.258630e-004,4.953022e-005
7.879432e-006,3.802358e-005
-6.699475e-005,2.230325e-005
-9.049421e-005,5.610517e-006
-8.239095e-005,-2.654814e-006
-7.493595e-005,3.017472e-006
-9.033215e-005,2.197911e-005
-1.310105e-004,4.823370e-005
-1.932436e-004,7.238143e-005
-2.737901e-004,8.956036e-005
-3.648708e-004,1.025256e-004
-4.493068e-004,1.145184e-004
-5.094330e-004,1.237561e-004
-5.374703e-004,1.308870e-004
-5.457356e-004,1.336421e-004
-5.494631e-004,1.308870e-004
-5.540010e-004,1.187321e-004
-5.429805e-004,9.863601e-005
-4.943609e-004,7.302970e-005
-4.002010e-004,4.515445e-005
-2.771934e-004,1.744129e-005
-1.528894e-004,-2.006553e-006
-5.694670e-005,-7.192643e-006
-1.205460e-005,8.527692e-006
-2.809907e-005,4.855783e-005
-9.503204e-005,1.018773e-004
-1.984297e-004,1.509831e-004
-3.186821e-004,1.793446e-004
-4.233763e-004,1.757791e-004
-4.818819e-004,1.383420e-004
-4.836646e-004,7.821578e-005
-4.413656e-004,9.013889e-006
-3.835083e-004,-5.808115e-005
-3.386162e-004,-1.139937e-004
-3.144685e-004,-1.507825e-004
-3.063652e-004,-1.677994e-004
-2.993964e-004,-1.640719e-004
-2.840002e-004,-1.405724e-004
-2.569353e-004,-1.079973e-004
-2.100984e-004,-8.044617e-005
-1.368449e-004,-6.699475e-005
-4.252288e-005,-6.877746e-005
5.260946e-005,-7.866345e-005
1.193804e-004,-8.968389e-005
1.355869e-004,-9.778715e-005
9.896015e-005,-1.005423e-004
2.133085e-005,-9.892161e-005
-7.931171e-005,-9.568031e-005
-1.883817e-004,-9.389759e-005
-2.935620e-004,-9.794922e-005
-3.828600e-004,-1.039456e-004
-4.454172e-004,-1.063766e-004
-4.679443e-004,-9.389759e-005
-4.507654e-004,-6.148453e-005
-4.099249e-004,-1.173047e-005
-3.541745e-004,5.131294e-005
-2.789762e-004,1.232699e-004
-1.875713e-004,1.957132e-004
-8.935975e-005,2.550291e-004
1.906194e-005,2.895490e-004
1.545486e-004,2.968419e-004
3.522683e-004,2.864697e-004
6.446343e-004,2.688046e-004
1.037319e-003,2.511395e-004
1.486241e-003,2.329882e-004
1.915067e-003,2.127300e-004
2.248112e-003,1.879340e-004
2.435136e-003,1.607070e-004
2.457826e-003,1.351007e-004
2.319259e-003,1.111150e-004
2.038075e-003,8.907416e-005
1.655113e-003,7.173317e-005
1.229042e-003,6.330578e-005
8.190167e-004,6.703327e-005
4.637693e-004,8.518459e-005
1.778860e-004,1.153287e-004
-4.981582e-005,1.529279e-004
-2.648765e-004,1.905271e-004
-5.368221e-004,2.177540e-004
-9.377715e-004,2.269918e-004
-1.496411e-003,2.171058e-004
-2.175303e-003,1.942546e-004
-2.872509e-003,1.633001e-004
-3.444925e-003,1.269974e-004
-3.757227e-003,8.761557e-005
-3.722220e-003,4.839576e-005
-3.319811e-003,1.338965e-005
-2.619362e-003,-1.724069e-005
-1.779053e-003,-4.592625e-005
-9.970875e-004,-7.088431e-005
-4.292107e-004,-8.984595e-005
-1.250141e-004,-9.908367e-005
-1.950961e-005,-9.973194e-005
1.808955e-005,-9.260107e-005
1.080358e-004,-8.158062e-005
2.981384e-004,-6.974985e-005
5.499881e-004,-5.937768e-005
7.723419e-004,-5.791909e-005
8.762258e-004,-6.748094e-005
8.336026e-004,-8.174268e-005
6.934160e-004,-9.130454e-005
5.413986e-004,-8.968389e-005
4.423766e-004,-7.704279e-005
4.099636e-004,-6.002594e-005
4.179048e-004,-4.884343e-005
4.211461e-004,-4.770897e-005
3.874365e-004,-5.532604e-005
3.073762e-004,-6.764301e-005
1.987924e-004,-7.607040e-005
1.038221e-004,-7.639453e-005
5.568870e-005,-6.958779e-005
7.205730e-005,-6.164659e-005
1.701068e-004,-5.224680e-005
3.668542e-004,-3.782299e-005
6.554927e-004,-1.853722e-005
9.979371e-004,1.234753e-006
1.334385e-003,1.549650e-005
1.619783e-003,2.603075e-005
1.829010e-003,3.543054e-005
1.953152e-003,4.110282e-005
1.982000e-003,3.721326e-005
1.891081e-003,2.262738e-005
1.651710e-003,-8.720959e-007
1.253352e-003,-2.550602e-005
7.258290e-004,-4.949169e-005
1.378558e-004,-7.282909e-005
-4.225660e-004,-1.011905e-004
-8.703524e-004,-1.417068e-004
-1.146350e-003,-1.906506e-004
-1.246020e-003,-2.370013e-004
-1.218955e-003,-2.643903e-004
-1.163853e-003,-2.637420e-004
-1.168877e-003,-2.366771e-004
-1.257526e-003,-1.909747e-004
-1.395606e-003,-1.365208e-004
-1.519748e-003,-8.352541e-005
-1.571285e-003,-3.992984e-005
-1.513914e-003,-6.220252e-006
-1.339856e-003,2.133085e-005
-1.070827e-003,4.709924e-005
-7.463724e-004,7.238143e-005
-4.125180e-004,9.977047e-005
-1.083214e-004,1.334801e-004
1.376938e-004,1.743205e-004
3.167760e-004,2.231022e-004
4.405939e-004,2.715597e-004
5.371849e-004,3.064038e-004
6.389620e-004,3.195311e-004
7.616456e-004,3.177483e-004
9.019942e-004,3.132105e-004
1.048664e-003,3.115899e-004
1.186905e-003,3.104554e-004
1.301648e-003,3.054314e-004
1.371660e-003,2.960316e-004
1.383653e-003,2.832284e-004
1.333251e-003,2.644289e-004
1.228718e-003,2.394708e-004
1.089666e-003,2.083542e-004
9.373245e-004,1.710792e-004
8.021619e-004,1.274836e-004
7.237222e-004,8.080883e-005
7.144845e-004,3.672706e-005
7.537043e-004,3.341602e-006
8.028102e-004,-1.432352e-005
8.235546e-004,-1.497178e-005
8.005413e-004,-2.978945e-006
7.391184e-004,1.760335e-005
6.522514e-004,4.256141e-005
5.554983e-004,6.897806e-005
4.600418e-004,9.166720e-005
3.713920e-004,1.120874e-004
2.876042e-004,1.331559e-004
1.906891e-004,1.561692e-004
5.439218e-005,1.798307e-004
-1.386276e-004,1.986303e-004
-3.731361e-004,2.034923e-004
-6.060239e-004,1.910133e-004
-7.862405e-004,1.654069e-004
-8.867210e-004,1.320215e-004
-9.081136e-004,9.620504e-005
-8.572251e-004,6.444023e-005
-7.424829e-004,3.575467e-005
-5.753936e-004,5.286387e-006
-3.805911e-004,-2.809907e-005
-2.041020e-004,-6.018800e-005
-1.081593e-004,-8.757704e-005
-1.358725e-004,-1.088076e-004
-2.828657e-004,-1.261486e-004
-4.935506e-004,-1.442999e-004
-6.873807e-004,-1.626133e-004
-7.915886e-004,-1.737958e-004
-7.671168e-004,-1.749302e-004
-6.254718e-004,-1.613168e-004
-4.117076e-004,-1.332795e-004
-1.862748e-004,-1.024871e-004
-4.275467e-006,-7.979791e-005
1.036600e-004,-7.023606e-005
1.457970e-004,-7.542214e-005
1.558451e-004,-9.389759e-005
1.641104e-004,-1.209625e-004
1.756171e-004,-1.462447e-004
1.756171e-004,-1.647201e-004
1.448246e-004,-1.752544e-004
8.129502e-005,-1.802784e-004
5.934648e-006,-1.825473e-004
-3.847125e-005,-1.822232e-004
-7.840905e-006,-1.771992e-004
1.044704e-004,-1.660166e-004
2.626462e-004,-1.480274e-004
4.161220e-004,-1.198280e-004
5.229231e-004,-8.206682e-005
5.614947e-004,-4.025397e-005
5.230852e-004,-6.058186e-006
4.046154e-004,1.419998e-005
2.226160e-004,2.084466e-005
2.035846e-005,2.246531e-005
-1.483515e-004,2.894792e-005
-2.438080e-004,4.677511e-005
-2.472114e-004,7.610894e-005
-1.695821e-004,1.088461e-004
-7.315322e-005,1.399627e-004
-5.451572e-005,1.670276e-004
-2.078295e-004,1.877720e-004
-5.640491e-004,1.976579e-004
-1.037604e-003,1.942546e-004
-1.456543e-003,1.762653e-004
-1.648914e-003,1.466074e-004
-1.528662e-003,1.177597e-004
-1.124633e-003,1.026876e-004
-5.630766e-004,1.111150e-004
-9.785688e-006,1.427178e-004
3.991052e-004,1.866375e-004
6.130316e-004,2.281262e-004
6.498204e-004,2.592428e-004
5.640878e-004,2.788527e-004
4.224426e-004,2.889007e-004
2.819319e-004,2.895490e-004
1.738343e-004,2.866318e-004
1.143563e-004,2.867939e-004
1.041462e-004,2.869559e-004
1.313732e-004,2.796630e-004
1.761032e-004,2.615117e-004
2.208333e-004,2.331503e-004
2.534084e-004,1.953890e-004
2.752873e-004,1.480659e-004
2.804733e-004,9.555677e-005
2.556773e-004,4.320967e-005
1.987924e-004,-4.923729e-006
1.127357e-004,-4.673658e-005
1.144487e-005,-7.914964e-005
-8.222889e-005,-9.924574e-005
-1.399241e-004,-1.050801e-004
-1.426792e-004,-9.486997e-005
-9.697683e-005,-7.056019e-005
-2.339918e-005,-3.620233e-005
6.849186e-005,1.234753e-006
2.041406e-004,3.624086e-005
4.196875e-004,6.249545e-005
7.151327e-004,7.967438e-005
1.044126e-003,8.518459e-005
1.346540e-003,7.886404e-005
1.567598e-003,6.670914e-005
1.669213e-003,5.374392e-005
1.629669e-003,4.207521e-005
1.450748e-003,3.218923e-005
1.165513e-003,2.408596e-005
8.180443e-004,1.403791e-005
4.328148e-004,-8.489166e-006
3.429608e-005,-4.738484e-005
-3.293785e-004,-9.114248e-005
-6.003517e-004,-1.242038e-004
-7.653341e-004,-1.391138e-004
-8.854245e-004,-1.438137e-004
-1.069369e-003,-1.511067e-004
-1.400144e-003,-1.684476e-004
-1.853603e-003,-1.971332e-004
-2.286480e-003,-2.332737e-004
-2.514344e-003,-2.655248e-004
-2.415970e-003,-2.882139e-004
-2.007079e-003,-3.015032e-004
-1.430774e-003,-3.050687e-004
-8.705144e-004,-2.998826e-004
-4.783165e-004,-2.810830e-004
-3.185201e-004,-2.472114e-004
-3.441264e-004,-2.028055e-004
-4.402311e-004,-1.566169e-004
-4.997091e-004,-1.193418e-004
-4.768579e-004,-9.211487e-005
-3.925839e-004,-7.477388e-005
-2.930758e-004,-6.602235e-005
-2.201465e-004,-6.407757e-005
-1.964849e-004,-6.699475e-005
-2.092881e-004,-7.023606e-005
-2.300324e-004,-6.812920e-005
-2.329496e-004,-5.451572e-005
-2.076674e-004,-2.437157e-005
-1.679614e-004,2.441009e-005
-1.352242e-004,9.263960e-005
-1.136696e-004,1.749688e-004
-8.206682e-005,2.598910e-004
-5.734056e-006,3.362238e-004
1.381800e-004,3.950536e-004
3.451374e-004,4.315182e-004
5.820770e-004,4.401077e-004
8.068618e-004,4.193634e-004
9.888613e-004,3.769022e-004
1.111383e-003,3.297412e-004
1.166323e-003,2.913317e-004
1.145579e-003,2.632944e-004
1.061143e-003,2.461155e-004
9.506139e-004,2.388225e-004
8.639088e-004,2.370398e-004
8.352232e-004,2.323399e-004
8.682846e-004,2.235884e-004
9.370004e-004,2.114335e-004
9.993956e-004,1.961994e-004
1.019330e-003,1.770756e-004
9.899958e-004,1.521176e-004
9.274385e-004,1.263492e-004
8.430023e-004,1.028497e-004
7.342565e-004,8.518459e-005
5.806184e-004,7.367795e-005
3.717161e-004,6.589881e-005
1.268354e-004,6.200925e-005
-1.131834e-004,6.103686e-005
-2.804347e-004,6.200925e-005
-3.003688e-004,6.346784e-005
-1.397621e-004,6.152305e-005
1.530900e-004,5.649903e-005
4.618245e-004,5.260946e-005
6.669993e-004,5.179914e-005
7.109190e-004,5.098881e-005
6.290760e-004,5.163707e-005
5.127130e-004,5.536457e-005
4.397836e-004,5.795762e-005
4.358940e-004,5.082674e-005
4.827309e-004,3.202716e-005
5.412365e-004,3.827799e-006
5.759185e-004,-2.583016e-005
5.619809e-004,-5.257093e-005
4.765725e-004,-7.428769e-005
3.098072e-004,-8.871149e-005
6.265751e-005,-9.486997e-005
-2.546664e-004,-9.243900e-005
-6.369784e-004,-8.709085e-005
-1.081848e-003,-8.498399e-005
-1.570475e-003,-8.692878e-005
-2.042247e-003,-9.000802e-005
-2.408515e-003,-9.422172e-005
-2.597321e-003,-1.023250e-004
-2.564260e-003,-1.152902e-004
-2.302848e-003,-1.329553e-004
-1.848579e-003,-1.489998e-004
-1.279567e-003,-1.593720e-004
-6.971046e-004,-1.609926e-004
-1.987538e-004,-1.556445e-004
1.495245e-004,-1.470550e-004
3.388169e-004,-1.404103e-004
4.059119e-004,-1.397621e-004
4.015361e-004,-1.442999e-004
3.754436e-004,-1.506204e-004
3.629646e-004,-1.540238e-004
3.812780e-004,-1.507825e-004
4.234150e-004,-1.396000e-004
4.689553e-004,-1.243659e-004
5.012064e-004,-1.078352e-004
5.112545e-004,-9.308726e-005
4.932652e-004,-8.141856e-005
4.517764e-004,-7.056019e-005
3.924605e-004,-5.727083e-005
3.307136e-004,-4.106429e-005
2.801492e-004,-2.096820e-005
2.563256e-004,3.341602e-006
2.665357e-004,3.089271e-005
3.094830e-004,5.876794e-005
3.707437e-004,8.291568e-005
4.349216e-004,1.031738e-004
4.869446e-004,1.222976e-004
5.125510e-004,1.404489e-004
5.119027e-004,1.563313e-004
5.026649e-004,1.660552e-004
5.287575e-004,1.714034e-004
6.362069e-004,1.756171e-004
8.502954e-004,1.773998e-004
1.136503e-003,1.748067e-004
1.399860e-003,1.671896e-004
1.534374e-003,1.623277e-004
1.483486e-003,1.667035e-004
1.251408e-003,1.843686e-004
9.094492e-004,2.078681e-004
5.597120e-004,2.219677e-004
2.866318e-004,2.187264e-004
1.266733e-004,2.002510e-004
6.152305e-005,1.764274e-004
5.260946e-005,1.561692e-004
7.205730e-005,1.461212e-004
1.041462e-004,1.490383e-004
1.346145e-004,1.610312e-004
1.490383e-004,1.770756e-004
1.412592e-004,1.953890e-004
1.083599e-004,2.169437e-004
4.061663e-005,2.414156e-004
-6.245691e-005,2.602152e-004
-1.814128e-004,2.637806e-004
-2.742763e-004,2.485465e-004
-2.987481e-004,2.166196e-004
-2.444563e-004,1.765894e-004
-1.389517e-004,1.393144e-004
-3.247483e-005,1.143563e-004
4.077869e-005,1.044704e-004
7.400208e-005,1.054428e-004
7.772959e-005,1.057669e-004
5.439218e-005,9.717743e-005
8.689758e-006,8.194328e-005
-3.458168e-005,6.670914e-005
-6.342931e-005,5.633696e-005
-7.817725e-005,5.212327e-005
-9.260107e-005,5.277153e-005
-1.397621e-004,5.341979e-005
-2.506147e-004,4.920609e-005
-4.230522e-004,3.818565e-005
-6.204477e-004,2.035846e-005
-8.014747e-004,-4.275467e-006
-9.319372e-004,-3.296103e-005
-9.812050e-004,-5.743289e-005
-9.419852e-004,-7.493595e-005
-8.500942e-004,-8.660465e-005
-7.815406e-004,-9.892161e-005
-7.919128e-004,-1.169109e-004
-8.719731e-004,-1.384655e-004
-9.562470e-004,-1.603444e-004
-9.867153e-004,-1.776853e-004
-9.624055e-004,-1.861127e-004
-9.136238e-004,-1.840059e-004
-8.577113e-004,-1.741199e-004
-7.932093e-004,-1.626133e-004
-7.176869e-004,-1.556445e-004
-6.337371e-004,-1.514308e-004
-5.296912e-004,-1.465688e-004
-3.852910e-004,-1.394379e-004
-1.929195e-004,-1.280934e-004
3.364782e-005,-1.159385e-004
2.639427e-004,-1.067007e-004
4.640934e-004,-1.036215e-004
6.117350e-004,-1.045939e-004
6.762370e-004,-1.062146e-004
6.243761e-004,-1.060525e-004
4.315182e-004,-1.034594e-004
9.507057e-005,-9.973194e-005
-3.497987e-004,-9.746302e-005
-8.296740e-004,-9.730096e-005
-1.243103e-003,-9.681477e-005
-1.501111e-003,-9.227693e-005
-1.545679e-003,-7.623246e-005
-1.354603e-003,-4.868137e-005
-9.606228e-004,-1.869928e-005
-4.553032e-004,5.286387e-006
4.402000e-005,1.857574e-005
4.389733e-004,2.035846e-005
6.856368e-004,1.565857e-005
8.016757e-004,1.614476e-005
8.371680e-004,2.992031e-005
8.451093e-004,5.893001e-005
8.583986e-004,9.685330e-005
8.880566e-004,1.315353e-004
9.360280e-004,1.551968e-004
9.993956e-004,1.683241e-004
1.068922e-003,1.744826e-004
1.125159e-003,1.756171e-004
1.143796e-003,1.735102e-004
1.112679e-003,1.770756e-004
1.028892e-003,1.916615e-004
9.091251e-004,2.162954e-004
7.840106e-004,2.453052e-004
6.853127e-004,2.705873e-004
6.269692e-004,2.889007e-004
6.013628e-004,2.979764e-004
5.773771e-004,2.939248e-004
5.250300e-004,2.767458e-004
4.336251e-004,2.451431e-004
3.221241e-004,1.992786e-004
2.248849e-004,1.440143e-004
1.722137e-004,9.118101e-005
1.655690e-004,5.179914e-005
1.934442e-004,3.056858e-005
2.328261e-004,2.797553e-005
2.585945e-004,3.932010e-005
2.589186e-004,5.860588e-005
2.430362e-004,7.627100e-005
2.310434e-004,8.680524e-005
2.362295e-004,8.664318e-005
2.509774e-004,7.805372e-005
2.462775e-004,6.427817e-005
1.913374e-004,4.790957e-005
8.113296e-005,3.040651e-005
-5.953974e-005,1.517237e-005
-1.990780e-004,1.072688e-006
-3.175477e-004,-1.383732e-005
-3.953390e-004,-2.777494e-005
-4.070078e-004,-3.976777e-005
-3.426678e-004,-5.402952e-005
-2.271153e-004,-7.558420e-005
-1.178833e-004,-1.041077e-004
-7.720486e-005,-1.310105e-004
-1.415448e-004,-1.511067e-004
-3.013411e-004,-1.619650e-004
-5.099192e-004,-1.656925e-004
-7.076389e-004,-1.648822e-004
-8.408565e-004,-1.611547e-004
-8.745661e-004,-1.525652e-004
-8.131433e-004,-1.337657e-004
-6.920806e-004,-1.044318e-004
-5.535148e-004,-7.218083e-005
-4.188385e-004,-4.171256e-005
-2.849726e-004,-1.351319e-005
-1.451102e-004,1.128280e-005
-2.006553e-006,2.862379e-005
1.381800e-004,3.559260e-005
2.498430e-004,3.024445e-005
3.005694e-004,1.517237e-005
2.615117e-004,-3.303076e-006
1.279698e-004,-1.853722e-005
-5.386745e-005,-3.004385e-005
-2.109087e-004,-4.041603e-005
-2.645523e-004,-4.997789e-005
-1.687718e-004,-5.419158e-005
6.670914e-005,-5.176061e-005
3.699334e-004,-4.122636e-005
6.449584e-004,-2.015787e-005
8.091307e-004,8.365628e-006
8.305234e-004,3.494434e-005
7.358771e-004,4.839576e-005
5.765668e-004,4.564065e-005
4.028327e-004,3.332369e-005
2.449810e-004,1.646890e-005
1.158149e-004,-3.303076e-006
2.116879e-005,-2.501983e-005
-2.858527e-005,-4.333321e-005
-2.437157e-005,-5.386745e-005
3.964424e-005,-4.819517e-005
1.545486e-004,-2.615429e-005
2.825802e-004,8.527692e-006
3.778746e-004,4.969229e-005
4.253598e-004,9.409818e-005
4.470765e-004,1.376938e-004
4.765725e-004,1.803169e-004
5.371849e-004,2.219677e-004
6.311828e-004,2.597290e-004
7.551629e-004,2.893870e-004
8.968081e-004,3.073762e-004
1.029054e-003,3.128864e-004
1.094042e-003,3.101313e-004
1.021761e-003,3.017039e-004
7.780141e-004,2.916559e-004
3.929467e-004,2.837146e-004
-5.273300e-005,2.785285e-004
-4.752372e-004,2.793389e-004
-8.126572e-004,2.820940e-004
-1.024801e-003,2.817699e-004
-1.108264e-003,2.746390e-004
-1.086872e-003,2.605393e-004
-9.949806e-004,2.372019e-004
-8.769971e-004,1.978200e-004
-7.878611e-004,1.423936e-004
-7.868888e-004,7.967438e-005
-8.923933e-004,2.878586e-005
-1.082496e-003,2.531276e-006
-1.300150e-003,1.396819e-006
-1.473884e-003,1.695509e-005
-1.558968e-003,3.737532e-005
-1.564316e-003,5.260946e-005
-1.535955e-003,5.714729e-005
-1.505810e-003,4.871989e-005
-1.448926e-003,2.943412e-005
-1.312304e-003,-8.720959e-007
-1.072448e-003,-4.171256e-005
-7.573929e-004,-8.952183e-005
-4.449310e-004,-1.378173e-004
-2.211189e-004,-1.818991e-004
-1.271210e-004,-2.138259e-004
-1.387897e-004,-2.287359e-004
-2.128535e-004,-2.246843e-004
-3.039342e-004,-2.058847e-004
-3.405610e-004,-1.775233e-004
-2.412149e-004,-1.489998e-004
2.667901e-005,-1.284175e-004
4.080188e-004,-1.201522e-004
7.801210e-004,-1.267968e-004
1.026461e-003,-1.438137e-004
1.101659e-003,-1.632615e-004
1.038453e-003,-1.767130e-004
9.091251e-004,-1.843300e-004
7.793107e-004,-1.849783e-004
6.832058e-004,-1.799543e-004
6.097901e-004,-1.676373e-004
5.279472e-004,-1.485136e-004
4.196875e-004,-1.212866e-004
2.994350e-004,-8.741498e-005
2.065715e-004,-5.321920e-005
1.770756e-004,-2.242678e-005
2.156472e-004,4.244267e-007
2.974902e-004,8.689758e-006
3.905157e-004,-1.844488e-006
4.725208e-004,-2.615429e-005
5.294057e-004,-5.143648e-005
5.546879e-004,-6.537409e-005
5.469088e-004,-6.569822e-005
5.211404e-004,-5.840528e-005
5.057442e-004,-4.689865e-005
5.284334e-004,-3.085418e-005
5.979594e-004,-1.010982e-005
7.054088e-004,1.193106e-005
8.222580e-004,3.478228e-005
9.084769e-004,5.925414e-005
9.378107e-004,8.680524e-005
9.053976e-004,1.132219e-004
8.238787e-004,1.338042e-004
7.182120e-004,1.427178e-004
6.221072e-004,1.438522e-004
5.593878e-004,1.423936e-004
5.321609e-004,1.415833e-004
5.261644e-004,1.365593e-004
5.256782e-004,1.258630e-004
5.166026e-004,1.127357e-004
4.848378e-004,1.026876e-004
4.109360e-004,1.015532e-004
2.675081e-004,1.122495e-004
4.223728e-005,1.320215e-004
-2.421874e-004,1.519555e-004
-5.189948e-004,1.673517e-004
-6.975908e-004,1.759412e-004
-7.000218e-004,1.764274e-004
-5.021401e-004,1.676758e-004
-1.493239e-004,1.524417e-004
2.571359e-004,1.372076e-004
6.049282e-004,1.248906e-004
8.170719e-004,1.138702e-004
8.799533e-004,1.036600e-004
8.357094e-004,9.490851e-005
7.467355e-004,9.296373e-005
6.592202e-004,1.018773e-004
5.825632e-004,1.221355e-004
5.034753e-004,1.506590e-004
4.094774e-004,1.808031e-004
3.052694e-004,2.052750e-004
2.028440e-004,2.232643e-004
1.054428e-004,2.373639e-004
2.369211e-006,2.498430e-004
-1.201522e-004,2.597290e-004
-2.632558e-004,2.634565e-004
-4.167317e-004,2.558394e-004
-5.629146e-004,2.373639e-004
-6.846256e-004,2.124059e-004
-7.569068e-004,1.867996e-004
-7.616066e-004,1.668655e-004
-7.060182e-004,1.563313e-004
-6.272545e-004,1.508211e-004
-5.659938e-004,1.414213e-004
-5.465460e-004,1.206769e-004
-5.648594e-004,8.810177e-005
-5.875485e-004,4.839576e-005
-5.791211e-004,9.500085e-006
-5.194810e-004,-1.707863e-005
-4.099249e-004,-2.777494e-005
-2.703867e-004,-2.971972e-005
-1.300382e-004,-3.344723e-005
-1.724069e-005,-4.268495e-005
5.277153e-005,-5.953974e-005
8.664318e-005,-8.352541e-005
1.072255e-004,-1.089697e-004
1.294284e-004,-1.316588e-004
1.470936e-004,-1.501342e-004
1.312112e-004,-1.666649e-004
6.492643e-005,-1.806025e-004
-3.522994e-005,-1.909747e-004
-1.250141e-004,-1.989159e-004
-1.697442e-004,-2.071812e-004
-1.601823e-004,-2.198223e-004
-1.208004e-004,-2.374874e-004
-1.005423e-004,-2.546664e-004
-1.452723e-004,-2.658489e-004
-2.645523e-004,-2.681178e-004
-4.240246e-004,-2.629317e-004
-5.705316e-004,-2.512630e-004
-6.608020e-004,-2.339220e-004
-6.710121e-004,-2.130156e-004
-5.963000e-004,-1.896782e-004
-4.462276e-004,-1.663408e-004
-2.494803e-004,-1.420310e-004
-4.738484e-005,-1.172350e-004
1.205148e-004,-9.503204e-005
2.331503e-004,-7.704279e-005
2.866318e-004,-6.391550e-005
2.978143e-004,-5.483985e-005
2.944109e-004,-4.851930e-005
2.978143e-004,-4.057810e-005
3.145071e-004,-2.485776e-005
3.307136e-004,-3.858999e-007
3.234207e-004,2.927205e-005
2.748010e-004,5.795762e-005
1.778860e-004,8.307774e-005
3.672706e-005,9.896015e-005
-1.261486e-004,1.033359e-004
-2.637420e-004,9.798775e-005
-3.235441e-004,8.972242e-005
-2.838381e-004,8.729144e-005
-1.796301e-004,1.015532e-004
-8.887356e-005,1.360731e-004
-9.227693e-005,1.869616e-004
-2.203085e-004,2.472499e-004
-4.395829e-004,3.089969e-004
-6.716604e-004,3.647473e-004
-8.321049e-004,4.112601e-004
-8.714869e-004,4.428628e-004
-7.988816e-004,4.512903e-004
-6.572366e-004,4.282770e-004
-5.086227e-004,3.773884e-004
-4.133283e-004,3.093210e-004
-3.964735e-004,2.372019e-004
-4.334244e-004,1.709172e-004
-4.580583e-004,1.150046e-004
-4.070078e-004,7.302970e-005
-2.595283e-004,4.742337e-005
-4.155049e-005,3.834771e-005
1.911753e-004,3.932010e-005
3.819262e-004,4.547859e-005
5.012064e-004,5.293359e-005
5.485295e-004,5.844381e-005
5.384815e-004,6.136099e-005
4.901859e-004,5.909208e-005
4.161220e-004,5.649903e-005
3.206656e-004,5.811968e-005
2.096508e-004,6.492643e-005
1.009049e-004,7.610894e-005
2.165498e-005,8.907416e-005
7.485573e-007,9.831188e-005
6.427817e-005,1.017153e-004
2.171058e-004,9.523264e-005
4.414042e-004,7.691926e-005
7.037881e-004,4.855783e-005
9.595275e-004,1.727922e-005
1.166485e-003,-7.354709e-006
1.280255e-003,-2.291298e-005
1.262428e-003,-3.717473e-005
1.105224e-003,-6.278104e-005
8.511057e-004,-1.000561e-004
5.921251e-004,-1.363587e-004
4.292493e-004,-1.559686e-004
4.047775e-004,-1.473791e-004
4.773828e-004,-1.136696e-004
5.601982e-004,-7.315322e-005
5.726772e-004,-4.900550e-005
4.772207e-004,-5.062615e-005
2.814457e-004,-7.153257e-005
1.971020e-005,-1.039456e-004
-2.629317e-004,-1.355484e-004
-5.241810e-004,-1.582375e-004
-7.262764e-004,-1.687718e-004
-8.345360e-004,-1.705545e-004
-8.280533e-004,-1.639098e-004
-7.196317e-004,-1.504584e-004
-5.431426e-004,-1.334415e-004
-3.434782e-004,-1.169109e-004
-1.676373e-004,-1.018388e-004
-5.030202e-005,-9.065628e-005
2.693341e-006,-8.384954e-005
1.387585e-005,-7.850138e-005
1.517237e-005,-6.893953e-005
2.392390e-005,-5.273300e-005
2.781346e-005,-2.858527e-005
-2.006553e-006,-2.330684e-006
-7.671866e-005,1.873781e-005
-1.639098e-004,3.316162e-005
-2.089640e-004,4.045456e-005
-1.682856e-004,4.515445e-005
-3.198864e-005,4.969229e-005
1.722137e-004,5.260946e-005
3.963501e-004,5.212327e-005
5.956905e-004,4.904402e-005
7.412253e-004,4.790957e-005
8.084825e-004,5.309566e-005
7.840106e-004,6.606088e-005
6.780197e-004,8.356394e-005
5.298919e-004,9.831188e-005
3.960259e-004,1.051186e-004
3.284447e-004,1.051186e-004
3.440029e-004,1.020394e-004
4.091532e-004,1.009049e-004
4.535592e-004,1.057669e-004
4.047775e-004,1.182459e-004
2.316917e-004,1.373696e-004
-4.689865e-005,1.592484e-004
-3.801049e-004,1.822617e-004
-7.160662e-004,2.010613e-004
-1.019777e-003,2.060853e-004
-1.284105e-003,1.911753e-004
-1.509700e-003,1.553589e-004
-1.676303e-003,1.073875e-004
-1.741616e-003,5.974033e-005
-1.642270e-003,2.165498e-005
-1.318949e-003,1.558884e-006
-7.805682e-004,9.106227e-007
-1.289037e-004,1.971020e-005
4.864584e-004,5.487838e-005
9.509380e-004,9.977047e-005
1.225801e-003,1.474177e-004
1.322068e-003,1.908512e-004
1.288034e-003,2.219677e-004
1.198898e-003,2.350950e-004
1.122727e-003,2.321778e-004
1.089180e-003,2.221298e-004
1.088694e-003,2.088404e-004
1.094528e-003,1.911753e-004
1.090638e-003,1.649207e-004
1.077511e-003,1.307250e-004
1.056929e-003,9.263960e-005
1.010416e-003,5.941620e-005
8.872462e-004,3.834771e-005
6.345862e-004,3.656499e-005
2.423880e-004,5.325772e-005
-2.321393e-004,8.145709e-005
-6.958081e-004,1.096565e-004
-1.056890e-003,1.284560e-004
-1.254447e-003,1.295905e-004
-1.262550e-003,1.060910e-004
-1.099837e-003,6.136099e-005
-8.290258e-004,5.610517e-006
-5.295291e-004,-5.143648e-005
-2.780038e-004,-1.024871e-004
-1.264727e-004,-1.434896e-004
-8.773911e-005,-1.715269e-004
-1.313347e-004,-1.818991e-004
-1.984297e-004,-1.789819e-004
-2.219292e-004,-1.676373e-004
-1.606685e-004,-1.543479e-004
-1.999580e-005,-1.418689e-004
1.495245e-004,-1.314967e-004
2.893870e-004,-1.245279e-004
3.694472e-004,-1.230693e-004
3.999155e-004,-1.274451e-004
3.866261e-004,-1.344139e-004
3.148312e-004,-1.408965e-004
1.634622e-004,-1.451102e-004
-6.650855e-005,-1.481895e-004
-3.452609e-004,-1.499722e-004
-6.191512e-004,-1.473791e-004
-8.321049e-004,-1.389517e-004
-9.389060e-004,-1.253383e-004
-9.131377e-004,-1.058904e-004
-7.708443e-004,-8.320128e-005
-5.740970e-004,-5.727083e-005
-4.055492e-004,-3.215070e-005
-3.201407e-004,-1.302700e-005
-3.196545e-004,2.855407e-006
-3.634122e-004,1.906194e-005
-3.980942e-004,3.786152e-005
-3.831841e-004,5.536457e-005
-3.013411e-004,6.492643e-005
-1.621271e-004,6.055066e-005
4.151929e-006,4.077869e-005
1.592484e-004,1.241726e-005
2.731804e-004,-1.448558e-005
3.410858e-004,-3.215070e-005
3.715541e-004,-3.441962e-005
3.762539e-004,-1.740276e-005
3.542131e-004,1.841368e-005
3.023522e-004,6.557468e-005
2.214815e-004,1.154908e-004
1.354248e-004,1.600588e-004
8.080883e-005,1.942546e-004
7.967438e-005,2.143507e-004
1.404489e-004,2.235884e-004
2.498430e-004,2.268297e-004
3.752816e-004,2.297469e-004
4.699278e-004,2.300710e-004
4.969927e-004,2.282883e-004
4.499937e-004,2.260194e-004
3.509718e-004,2.279642e-004
2.329882e-004,2.378501e-004
1.316974e-004,2.571359e-004
7.627100e-005,2.793389e-004
8.194328e-005,2.924662e-004
1.393144e-004,2.876042e-004
2.083542e-004,2.594049e-004
2.524360e-004,2.130541e-004
2.616738e-004,1.658931e-004
2.538946e-004,1.355869e-004
2.428742e-004,1.247285e-004
2.360674e-004,1.269974e-004
2.279642e-004,1.368834e-004
2.051129e-004,1.482280e-004
1.616794e-004,1.527658e-004
1.088461e-004,1.464453e-004
5.876794e-005,1.263492e-004
1.160693e-005,9.669123e-005
-4.511593e-005,6.444023e-005
-1.115627e-004,3.867184e-005
-1.682856e-004,2.230325e-005
-1.734716e-004,1.484824e-005
-9.600444e-005,1.355172e-005
5.698522e-005,1.517237e-005
2.397949e-004,1.419998e-005
3.921364e-004,5.934648e-006
4.820827e-004,-1.221667e-005
5.081752e-004,-4.041603e-005
4.934272e-004,-7.137051e-005
4.649037e-004,-9.746302e-005
4.365423e-004,-1.149661e-004
4.149876e-004,-1.263107e-004
3.947294e-004,-1.324691e-004
3.671783e-004,-1.360346e-004
3.279585e-004,-1.412206e-004
2.756114e-004,-1.465688e-004
2.130541e-004,-1.460826e-004
1.373696e-004,-1.383035e-004
3.494434e-005,-1.287416e-004
-1.135075e-004,-1.204763e-004
-3.173856e-004,-1.112386e-004
-5.535148e-004,-9.811128e-005
-7.687375e-004,-8.093236e-005
-9.034137e-004,-6.051213e-005
-9.231857e-004,-4.219875e-005
-8.413427e-004,-3.474375e-005
-7.055320e-004,-4.171256e-005
-5.645352e-004,-5.565017e-005
-4.457413e-004,-7.039812e-005
-3.600088e-004,-7.785312e-005
-3.112272e-004,-7.639453e-005
-3.003688e-004,-6.715681e-005
-3.277578e-004,-5.435365e-005
-3.873979e-004,-4.284701e-005
-4.590307e-004,-3.490581e-005
-5.220741e-004,-3.344723e-005
-5.541630e-004,-3.895745e-005
-5.339049e-004,-4.446767e-005
-4.548170e-004,-4.495386e-005
-3.287302e-004,-3.847125e-005
-1.823853e-004,-2.469570e-005
-4.106429e-005,-6.220252e-006
8.064677e-005,7.717366e-006
1.801549e-004,1.598270e-005
2.657254e-004,2.165498e-005
3.346032e-004,2.943412e-005
3.785229e-004,4.142696e-005
3.927847e-004,5.520250e-005
3.833848e-004,7.011252e-005
3.637749e-004,8.858796e-005
3.498373e-004,1.101427e-004
3.487029e-004,1.299146e-004
3.642611e-004,1.404489e-004
3.885709e-004,1.360731e-004
4.157979e-004,1.159770e-004
4.467524e-004,8.388807e-005
4.778690e-004,5.179914e-005
4.973168e-004,3.154097e-005
4.799758e-004,2.700314e-005
4.018603e-004,3.526847e-005
2.696149e-004,5.406805e-005
1.201907e-004,8.097089e-005
5.286387e-006,1.099806e-004
-1.772689e-005,1.386662e-004
7.853991e-005,1.611932e-004
2.697770e-004,1.738343e-004
4.940755e-004,1.790204e-004
6.830437e-004,1.838824e-004
7.985964e-004,1.942546e-004
8.374922e-004,2.072198e-004
8.235546e-004,2.195368e-004
7.851450e-004,2.290986e-004
7.504630e-004,2.354192e-004
7.339324e-004,2.346088e-004
7.246946e-004,2.232643e-004
6.880678e-004,2.021958e-004
5.840218e-004,1.767515e-004
3.929467e-004,1.526038e-004
1.214872e-004,1.302388e-004
-2.122053e-004,1.090082e-004
-5.997034e-004,8.891209e-005
-1.039711e-003,6.492643e-005
-1.487983e-003,3.186510e-005
-1.853441e-003,-8.002969e-006
-2.045813e-003,-4.673658e-005
-2.016965e-003,-7.801519e-005
-1.777756e-003,-1.007043e-004
-1.381831e-003,-1.188556e-004
-9.084377e-004,-1.370070e-004
-4.531963e-004,-1.549962e-004
-9.081835e-005,-1.686097e-004
1.501728e-004,-1.757406e-004
2.819319e-004,-1.746061e-004
3.277964e-004,-1.666649e-004
3.039728e-004,-1.551583e-004
2.261814e-004,-1.454344e-004
1.093323e-004,-1.441378e-004
-3.717473e-005,-1.504584e-004
-2.015090e-004,-1.590478e-004
-3.561192e-004,-1.656925e-004
-4.540067e-004,-1.630995e-004
-4.600031e-004,-1.504584e-004
-3.575778e-004,-1.306864e-004
-1.600202e-004,-1.118868e-004
8.307774e-005,-9.875954e-005
3.055935e-004,-8.935975e-005
4.603659e-004,-8.222889e-005
5.268127e-004,-7.428769e-005
5.230852e-004,-6.407757e-005
4.989374e-004,-4.787104e-005
4.898618e-004,-2.518189e-005
4.926169e-004,1.558884e-006
4.717105e-004,3.040651e-005
3.707437e-004,5.293359e-005
1.409351e-004,6.265751e-005
-2.201465e-004,5.406805e-005
-6.407059e-004,3.105477e-005
-1.002760e-003,3.017472e-006
-1.196104e-003,-2.194059e-005
-1.171794e-003,-3.749886e-005
-9.494403e-004,-3.879538e-005
-5.925725e-004,-2.307504e-005
-1.794681e-004,6.096713e-006
2.258573e-004,4.402000e-005
5.947181e-004,8.437427e-005
9.188490e-004,1.210010e-004
1.188526e-003,1.480659e-004
1.383653e-003,1.592484e-004
1.494182e-003,1.561692e-004
1.544098e-003,1.492004e-004
1.570677e-003,1.492004e-004
1.592070e-003,1.660552e-004
1.591907e-003,1.979821e-004
1.525136e-003,2.337985e-004
1.347512e-003,2.658874e-004
1.038778e-003,2.905214e-004
6.328035e-004,3.059176e-004
1.940925e-004,3.115899e-004
-2.237119e-004,3.089969e-004
-5.924104e-004,2.981384e-004
-8.928794e-004,2.790148e-004
-1.104699e-003,2.548670e-004
-1.221062e-003,2.313675e-004
-1.244885e-003,2.098128e-004
-1.184759e-003,1.889064e-004
-1.048948e-003,1.726999e-004
-8.518770e-004,1.579519e-004
-6.163961e-004,1.406109e-004
-3.614674e-004,1.206769e-004
-1.011905e-004,1.018773e-004
1.563313e-004,8.810177e-005
3.982949e-004,8.421220e-005
5.896941e-004,9.458438e-005
6.802886e-004,1.135460e-004
6.355586e-004,1.323456e-004
4.493454e-004,1.449867e-004
1.457970e-004,1.487142e-004
-2.117191e-004,1.428799e-004
-5.254775e-004,1.271595e-004
-7.116905e-004,1.000946e-004
-7.324349e-004,6.346784e-005
-5.990551e-004,1.922400e-005
-3.562813e-004,-2.566809e-005
-6.634648e-005,-6.261898e-005
2.184023e-004,-8.368748e-005
4.551798e-004,-8.871149e-005
6.227554e-004,-7.850138e-005
7.233981e-004,-5.889148e-005
7.652109e-004,-3.539201e-005
7.682902e-004,-1.464765e-005
7.527319e-004,-1.034161e-006
7.272876e-004,-2.238346e-007
6.804507e-004,-1.578211e-005
5.723531e-004,-4.916756e-005
3.663680e-004,-9.405965e-005
6.460230e-005,-1.413827e-004
-2.793003e-004,-1.823853e-004
-5.728005e-004,-2.107467e-004
-7.251419e-004,-2.211189e-004
-6.862463e-004,-2.097743e-004
-4.865818e-004,-1.810887e-004
-2.180396e-004,-1.460826e-004
2.116879e-005,-1.130213e-004
1.645966e-004,-8.725291e-005
1.923098e-004,-7.623246e-005
1.201907e-004,-8.368748e-005
-9.299493e-006,-1.037836e-004
-1.608306e-004,-1.258245e-004
-2.959930e-004,-1.455964e-004
-3.867496e-004,-1.648822e-004
-4.331002e-004,-1.801163e-004
-4.580583e-004,-1.840059e-004
-4.784786e-004,-1.742820e-004
-4.966299e-004,-1.535376e-004
-4.941989e-004,-1.232314e-004
-4.444448e-004,-9.081835e-005
-3.271096e-004,-6.472583e-005
-1.507825e-004,-4.657452e-005
4.677511e-005,-3.425755e-005
2.146748e-004,-2.583016e-005
3.174242e-004,-2.226472e-005
3.491891e-004,-1.967167e-005
3.261758e-004,-1.173047e-005
2.760976e-004,-2.238346e-007
2.287745e-004,1.355172e-005
2.017096e-004,3.137890e-005
2.041406e-004,5.828175e-005
2.391467e-004,9.263960e-005
2.983005e-004,1.289422e-004
3.639370e-004,1.608691e-004
4.248736e-004,1.856651e-004
4.822447e-004,2.038164e-004
5.386435e-004,2.151610e-004
5.943940e-004,2.274780e-004
6.370172e-004,2.440086e-004
6.496583e-004,2.600531e-004
6.172452e-004,2.704253e-004
5.290816e-004,2.723701e-004
3.874365e-004,2.645909e-004
2.101370e-004,2.485465e-004
3.235129e-005,2.289366e-004
-1.058904e-004,2.187264e-004
-1.780095e-004,2.205092e-004
-1.882196e-004,2.255332e-004
-1.579134e-004,2.214815e-004
-1.003802e-004,2.054371e-004
-2.307504e-005,1.812893e-004
6.152305e-005,1.551968e-004
1.449867e-004,1.323456e-004
2.085163e-004,1.166253e-004
2.234263e-004,1.049566e-004
1.816135e-004,9.037068e-005
1.273216e-004,6.914012e-005
1.331559e-004,4.434413e-005
2.462775e-004,1.954813e-005
4.420525e-004,-1.682422e-006
6.413930e-004,-1.950961e-005
7.640765e-004,-3.409549e-005
7.684522e-004,-3.863332e-005
6.613270e-004,-3.069211e-005
4.885653e-004,-1.270286e-005
3.088348e-004,9.500085e-006
1.730240e-004,3.040651e-005
1.075496e-004,4.402000e-005
1.185701e-004,4.726130e-005
1.835583e-004,3.721326e-005
2.456293e-004,1.711715e-005
2.342847e-004,-9.461558e-006
9.539470e-005,-3.344723e-005
-1.925954e-004,-5.143648e-005
-5.974344e-004,-6.326724e-005
-1.042304e-003,-6.715681e-005
-1.429478e-003,-6.051213e-005
-1.658476e-003,-4.787104e-005
-1.661555e-003,-3.360929e-005
-1.424130e-003,-2.631635e-005
-9.951427e-004,-3.215070e-005
-4.713477e-004,-4.625038e-005
4.369587e-005,-5.613637e-005
4.671726e-004,-5.678463e-005
7.524078e-004,-4.625038e-005
8.817361e-004,-3.020592e-005
8.695811e-004,-1.691656e-005
7.619697e-004,-1.221667e-005
6.049282e-004,-1.724069e-005
4.248736e-004,-2.599222e-005
2.300710e-004,-3.134038e-005
1.452411e-005,-3.328516e-005
-2.421874e-004,-3.668853e-005
-5.599973e-004,-4.203669e-005
-9.508989e-004,-4.997789e-005
-1.414406e-003,-5.856735e-005
-1.923129e-003,-6.715681e-005
-2.431366e-003,-7.833932e-005
-2.875102e-003,-9.486997e-005
-3.175086e-003,-1.175591e-004
-3.254174e-003,-1.415448e-004
-3.058722e-003,-1.608306e-004
-2.589704e-003,-1.690959e-004
-1.923777e-003,-1.629374e-004
-1.192376e-003,-1.404103e-004
-5.300153e-004,-1.065387e-004
-2.534396e-005,-6.877746e-005
3.093210e-004,-3.101625e-005
5.172509e-004,4.313994e-006
6.520892e-004,3.526847e-005
7.449528e-004,6.168512e-005
8.144788e-004,8.956036e-005
8.724983e-004,1.245665e-004
9.233868e-004,1.610312e-004
9.603378e-004,1.927960e-004
9.757340e-004,2.153231e-004
9.690893e-004,2.305572e-004
9.408899e-004,2.402811e-004
9.010218e-004,2.462775e-004
8.603434e-004,2.483844e-004
8.314957e-004,2.454672e-004
8.222580e-004,2.397949e-004
8.376542e-004,2.286124e-004
8.755776e-004,2.086784e-004
9.261420e-004,1.820997e-004
9.760582e-004,1.560072e-004
1.010740e-003,1.378558e-004
1.014468e-003,1.302388e-004
9.768684e-004,1.291043e-004
8.985908e-004,1.289422e-004
7.956792e-004,1.240803e-004
6.964952e-004,1.171115e-004
6.245382e-004,1.106288e-004
5.984457e-004,1.059290e-004
6.272933e-004,1.046324e-004
7.002227e-004,1.062531e-004
7.927621e-004,1.062531e-004
8.747673e-004,1.031738e-004
9.263040e-004,9.814982e-005
9.410520e-004,9.020862e-005
9.100975e-004,7.999851e-005
8.198270e-004,6.914012e-005
6.765611e-004,5.520250e-005
5.169268e-004,3.932010e-005
3.895433e-004,2.376183e-005
3.216380e-004,1.274139e-005
3.002453e-004,1.225520e-005
2.929524e-004,2.165498e-005
2.701012e-004,3.218923e-005
2.162954e-004,3.510641e-005
1.320215e-004,2.473423e-005
1.630683e-005,-2.006553e-006
-1.357104e-004,-4.252288e-005
-3.079858e-004,-8.854943e-005
-4.640547e-004,-1.271210e-004
-5.664800e-004,-1.449482e-004
-5.992171e-004,-1.426792e-004
-5.661559e-004,-1.311726e-004
-4.805854e-004,-1.229073e-004
-3.600088e-004,-1.225832e-004
-2.250084e-004,-1.276072e-004
-9.308726e-005,-1.316588e-004
2.489629e-005,-1.280934e-004
1.156529e-004,-1.135075e-004
1.705930e-004,-8.773911e-005
1.880961e-004,-5.824322e-005
1.785342e-004,-2.971972e-005
1.587623e-004,-3.465141e-006
1.394765e-004,1.322759e-005
1.279698e-004,1.193106e-005
1.266733e-004,-8.975362e-006
1.368834e-004,-4.333321e-005
1.492004e-004,-8.028410e-005
1.527658e-004,-1.076731e-004
1.462832e-004,-1.136696e-004
1.325077e-004,-9.794922e-005
1.111150e-004,-7.007399e-005
8.145709e-005,-4.268495e-005
3.202716e-005,-2.307504e-005
-5.548811e-005,-1.156841e-005
-1.862748e-004,-6.382317e-006
-3.366714e-004,-2.816880e-006
-4.570859e-004,-6.176923e-008
-4.903093e-004,-2.238346e-007
-4.074939e-004,-7.100305e-007
-2.308428e-004,5.286387e-006
-1.853722e-005,1.889987e-005
1.561692e-004,3.753739e-005
2.331503e-004,5.487838e-005
1.900409e-004,6.816773e-005
5.034055e-005,7.610894e-005
-1.258245e-004,8.161915e-005
-2.827037e-004,8.648112e-005
-3.950149e-004,9.393612e-005
-4.559515e-004,1.052807e-004
-4.565997e-004,1.208390e-004
-3.940425e-004,1.401247e-004
-2.711970e-004,1.616794e-004
-1.042698e-004,1.803169e-004
6.557468e-005,1.903650e-004
1.905271e-004,1.903650e-004
2.354192e-004,1.804790e-004
1.910133e-004,1.629760e-004
6.427817e-005,1.451488e-004
-1.185315e-004,1.289422e-004
-3.198166e-004,1.135460e-004
-4.869059e-004,1.047945e-004
-5.554595e-004,1.090082e-004
-4.843129e-004,1.252147e-004
-2.872415e-004,1.482280e-004
-3.441962e-005,1.704310e-004
1.808031e-004,1.879340e-004
2.968419e-004,1.974959e-004
2.940868e-004,1.978200e-004
1.728619e-004,1.924718e-004
-5.467778e-005,1.850168e-004
-3.467195e-004,1.806411e-004
-6.308199e-004,1.832341e-004
-8.277292e-004,1.942546e-004
-8.889899e-004,2.054371e-004
-8.167088e-004,2.067336e-004
-6.588572e-004,1.944166e-004
-4.843129e-004,1.707551e-004
-3.493125e-004,1.373696e-004
-2.720074e-004,9.215340e-005
-2.321393e-004,3.867184e-005
-1.961608e-004,-1.497178e-005
-1.383035e-004,-6.553616e-005
-5.727083e-005,-1.081593e-004
2.846173e-005,-1.423551e-004
9.555677e-005,-1.658546e-004
1.351007e-004,-1.754164e-004
1.555210e-004,-1.737958e-004
1.746447e-004,-1.676373e-004
2.057612e-004,-1.587237e-004
2.451431e-004,-1.480274e-004
2.822560e-004,-1.396000e-004
3.101313e-004,-1.355484e-004
3.277964e-004,-1.360346e-004
3.384927e-004,-1.360346e-004
3.380065e-004,-1.314967e-004
3.094830e-004,-1.232314e-004
2.459534e-004,-1.128592e-004
1.598967e-004,-1.039456e-004
7.627100e-005,-9.746302e-005
2.295151e-005,-9.276313e-005
1.031041e-005,-8.757704e-005
2.797553e-005,-8.303922e-005
6.168512e-005,-7.866345e-005
1.080358e-004,-7.380149e-005
1.594105e-004,-7.007399e-005
1.979821e-004,-6.699475e-005
2.099749e-004,-6.359137e-005
1.984683e-004,-6.342931e-005
1.879340e-004,-7.153257e-005
2.070577e-004,-8.773911e-005
2.584324e-004,-1.050801e-004
3.187208e-004,-1.122110e-004
3.637749e-004,-1.010285e-004
3.788470e-004,-7.072225e-005
3.637749e-004,-2.420950e-005
3.367100e-004,2.975825e-005
3.205035e-004,8.032264e-005
3.276344e-004,1.179218e-004
3.504856e-004,1.363972e-004
3.699334e-004,1.391524e-004
3.722023e-004,1.320215e-004
3.621543e-004,1.216493e-004
3.519442e-004,1.195424e-004
3.524304e-004,1.315353e-004
3.493511e-004,1.542244e-004
2.958695e-004,1.783722e-004
1.456350e-004,1.966855e-004
-1.079973e-004,2.065715e-004
-4.220798e-004,2.090025e-004
-7.071526e-004,2.099749e-004
-8.598181e-004,2.119197e-004
-8.149261e-004,2.112714e-004
-5.818762e-004,2.060853e-004
-2.421874e-004,1.955511e-004
7.286763e-005,1.798307e-004
2.456293e-004,1.613553e-004
2.433604e-004,1.443384e-004
1.146805e-004,1.329939e-004
-5.613637e-005,1.307250e-004
-1.977815e-004,1.355869e-004
-2.817312e-004,1.386662e-004
-3.201407e-004,1.352628e-004
-3.298647e-004,1.273216e-004
-3.168994e-004,1.171115e-004
-2.856209e-004,1.052807e-004
-2.423494e-004,9.053275e-005
-1.807646e-004,7.513654e-005
-8.611845e-005,6.298164e-005
3.948217e-005,5.747142e-005
1.709172e-004,6.006447e-005
2.809595e-004,6.978839e-005
3.360618e-004,8.064677e-005
3.085106e-004,8.372601e-005
1.981441e-004,8.064677e-005
3.332369e-005,7.221937e-005
-1.266348e-004,6.119892e-005
-2.198223e-004,5.633696e-005
-2.133397e-004,6.314371e-005
-1.235555e-004,7.951231e-005
-8.489166e-006,9.426025e-005
6.038860e-005,9.588091e-005
4.531652e-005,8.048470e-005
-4.722278e-005,5.374392e-005
-1.846542e-004,2.700314e-005
-3.319715e-004,-1.520357e-006
-4.645409e-004,-3.425755e-005
-5.740970e-004,-6.829127e-005
-6.486471e-004,-9.859748e-005
-6.719845e-004,-1.216107e-004
-6.384369e-004,-1.342519e-004
-5.546492e-004,-1.350622e-004
-4.290486e-004,-1.272830e-004
-2.674695e-004,-1.196660e-004
-7.380149e-005,-1.204763e-004
1.316974e-004,-1.272830e-004
3.104554e-004,-1.349001e-004
4.268184e-004,-1.423551e-004
4.754380e-004,-1.517549e-004
4.721967e-004,-1.601823e-004
4.493454e-004,-1.676373e-004
4.431870e-004,-1.726613e-004
4.898618e-004,-1.801163e-004
5.989318e-004,-1.909747e-004
7.425218e-004,-2.018331e-004
8.749293e-004,-2.089640e-004
9.472105e-004,-2.094502e-004
9.251696e-004,-1.984297e-004
8.149651e-004,-1.760647e-004
6.545202e-004,-1.436516e-004
4.950479e-004,-1.029732e-004
3.679886e-004,-6.164659e-005
2.767458e-004,-2.550602e-005
2.166196e-004,3.989864e-006
1.788584e-004,2.894792e-005
1.603829e-004,5.082674e-005
1.620036e-004,6.946425e-005
1.889064e-004,8.323981e-005
2.393087e-004,9.523264e-005
2.854973e-004,1.078737e-004
2.880904e-004,1.258630e-004
2.281262e-004,1.451488e-004
1.103047e-004,1.589243e-004
-4.608832e-005,1.644345e-004
-2.169052e-004,1.637863e-004
-3.823738e-004,1.571416e-004
-5.235327e-004,1.475797e-004
-6.240131e-004,1.376938e-004
-6.645294e-004,1.346145e-004
-6.191512e-004,1.415833e-004
-4.794509e-004,1.576278e-004
-2.676316e-004,1.803169e-004
-2.809907e-005,2.072198e-004
1.970097e-004,2.334744e-004
3.820883e-004,2.500050e-004
5.135234e-004,2.553532e-004
5.858046e-004,2.500050e-004
6.023352e-004,2.349330e-004
5.734875e-004,2.114335e-004
5.028270e-004,1.874478e-004
3.713920e-004,1.705930e-004
1.496866e-004,1.680000e-004
-1.541859e-004,1.752929e-004
-4.775062e-004,1.832341e-004
-7.471828e-004,1.864754e-004
-9.004966e-004,1.830721e-004
-9.089239e-004,1.746447e-004
-7.813785e-004,1.624898e-004
-5.612939e-004,1.472556e-004
-3.036101e-004,1.294284e-004
-5.565017e-005,1.093323e-004
1.600588e-004,8.664318e-005
3.302274e-004,6.168512e-005
4.407560e-004,3.559260e-005
4.893756e-004,1.306552e-005
4.885653e-004,-1.844488e-006
4.564763e-004,-9.137427e-006
4.159600e-004,-1.027188e-005
3.885709e-004,-7.840905e-006
3.804677e-004,-3.465141e-006
3.898674e-004,-7.100305e-007
4.088291e-004,1.396819e-006
4.286011e-004,3.827799e-006
4.418904e-004,4.476060e-006
4.358940e-004,7.485573e-007
4.062361e-004,-1.010982e-005
3.524304e-004,-2.485776e-005
2.827423e-004,-4.187462e-005
2.072198e-004,-6.294311e-005
1.396385e-004,-8.514606e-005
8.858796e-005,-1.034594e-004
5.585077e-005,-1.154523e-004
4.061663e-005,-1.253383e-004
3.850978e-005,-1.363587e-004
4.337174e-005,-1.446240e-004
4.320967e-005,-1.489998e-004
3.154097e-005,-1.478653e-004
1.031041e-005,-1.418689e-004
-1.691656e-005,-1.337657e-004
-4.090223e-005,-1.245279e-004
-4.932962e-005,-1.157764e-004
-4.041603e-005,-1.078352e-004
-2.647842e-005,-1.031353e-004
-2.177852e-005,-1.021629e-004
-3.539201e-005,-1.018388e-004
-6.602235e-005,-1.032974e-004
-1.068628e-004,-1.086455e-004
-1.488377e-004,-1.118868e-004
-1.840059e-004,-1.070249e-004
-2.109087e-004,-9.081835e-005
-2.292221e-004,-6.699475e-005
-2.400805e-004,-4.187462e-005
-2.439701e-004,-2.080613e-005
-2.441321e-004,-4.923729e-006
-2.467252e-004,2.531276e-006
-2.485079e-004,3.665733e-006
-2.459149e-004,4.151929e-006
-2.365151e-004,1.031041e-005
-2.191741e-004,2.457216e-005
-1.961608e-004,4.434413e-005
-1.676373e-004,6.330578e-005
-1.371690e-004,7.691926e-005
-1.083214e-004,8.502253e-005
-7.526008e-005,8.502253e-005
-3.506788e-005,7.886404e-005
7.555301e-006,7.011252e-005
5.649903e-005,6.346784e-005
1.258630e-004,6.298164e-005
2.252090e-004,7.173317e-005
3.449753e-004,8.972242e-005
4.469145e-004,1.171115e-004
4.833792e-004,1.462832e-004
4.201737e-004,1.701068e-004
2.676702e-004,1.859892e-004
6.573675e-005,1.952270e-004
-1.321450e-004,2.020337e-004
-2.757348e-004,2.072198e-004
-3.428299e-004,2.107852e-004
-3.324577e-004,2.141886e-004
-2.663351e-004,2.195368e-004
-1.771992e-004,2.239125e-004
-9.324933e-005,2.284504e-004
-3.279896e-005,2.354192e-004
-1.196227e-006,2.451431e-004
5.610517e-006,2.513016e-004
-1.140634e-005,2.491947e-004
-4.608832e-005,2.344468e-004
-7.963584e-005,2.101370e-004
-8.790117e-005,1.796687e-004
-5.986387e-005,1.470936e-004
4.244267e-007,1.145184e-004
8.145709e-005,8.388807e-005
1.673517e-004,6.038860e-005
2.397949e-004,4.693717e-005
2.795009e-004,4.045456e-005
2.804733e-004,3.867184e-005
2.556773e-004,4.207521e-005
2.222919e-004,5.034055e-005
1.825859e-004,5.666109e-005
1.216493e-004,5.747142e-005
1.355172e-005,5.439218e-005
-1.561307e-004,5.001642e-005
-3.815635e-004,4.207521e-005
-6.410300e-004,2.878586e-005
-9.032516e-004,9.013889e-006
-1.134033e-003,-1.740276e-005
-1.295612e-003,-4.868137e-005
-1.351524e-003,-7.914964e-005
-1.261416e-003,-1.049180e-004
-1.010701e-003,-1.230693e-004
-6.317923e-004,-1.358725e-004
-1.945401e-004,-1.475412e-004
2.141886e-004,-1.590478e-004
5.285954e-004,-1.666649e-004
7.222636e-004,-1.652063e-004
7.950310e-004,-1.588858e-004
7.475458e-004,-1.511067e-004
5.971491e-004,-1.459206e-004
3.816021e-004,-1.428413e-004
1.386662e-004,-1.368449e-004
-9.989401e-005,-1.240417e-004
-3.066893e-004,-1.015147e-004
-4.638926e-004,-7.120844e-005
-5.642111e-004,-4.090223e-005
-6.069963e-004,-2.145439e-005
-6.061860e-004,-1.821308e-005
-5.682627e-004,-3.377136e-005
-4.941989e-004,-5.872941e-005
-3.854531e-004,-8.109443e-005
-2.536940e-004,-9.276313e-005
-1.167488e-004,-9.065628e-005
4.151929e-006,-7.234290e-005
9.409818e-005,-4.106429e-005
1.498487e-004,-5.409925e-006
1.743205e-004,2.813760e-005
1.790204e-004,4.807163e-005
1.923098e-004,5.034055e-005
2.402811e-004,3.948217e-005
3.266619e-004,2.538249e-005
4.326527e-004,1.549650e-005
5.203301e-004,7.069105e-006
5.524190e-004,7.485573e-007
5.161164e-004,-3.627206e-006
4.337872e-004,-3.141010e-006
3.566440e-004,7.069105e-006
3.277964e-004,2.846173e-005
3.543751e-004,5.893001e-005
4.123946e-004,9.004655e-005
4.720346e-004,1.146805e-004
5.097958e-004,1.313732e-004
5.201680e-004,1.430419e-004
5.119027e-004,1.511452e-004
5.054200e-004,1.547106e-004
5.109303e-004,1.564933e-004
5.263265e-004,1.584381e-004
5.358884e-004,1.615174e-004
5.289196e-004,1.663793e-004
5.055821e-004,1.704310e-004
4.684692e-004,1.746447e-004
4.214702e-004,1.824238e-004
3.650715e-004,1.971717e-004
3.094830e-004,2.177540e-004
2.662116e-004,2.375260e-004
2.470879e-004,2.503292e-004
2.354192e-004,2.563256e-004
2.041406e-004,2.561635e-004
1.433661e-004,2.524360e-004
8.242948e-005,2.419018e-004
6.816773e-005,2.190506e-004
1.312112e-004,1.812893e-004
2.804733e-004,1.351007e-004
4.974789e-004,9.361199e-005
7.360392e-004,6.444023e-005
9.465622e-004,4.823370e-005
1.097931e-003,3.526847e-005
1.171833e-003,2.424803e-005
1.158868e-003,1.792748e-005
1.061791e-003,1.257933e-005
8.964840e-004,-3.858999e-007
6.843403e-004,-2.615429e-005
4.456179e-004,-5.824322e-005
1.830721e-004,-8.579432e-005
-1.245279e-004,-1.026491e-004
-4.995471e-004,-1.092938e-004
-9.400405e-004,-1.073490e-004
-1.405330e-003,-9.778715e-005
-1.835938e-003,-8.579432e-005
-2.185351e-003,-7.866345e-005
-2.424884e-003,-8.077030e-005
-2.533305e-003,-9.276313e-005
-2.498623e-003,-1.139937e-004
-2.314679e-003,-1.412206e-004
-1.984390e-003,-1.694200e-004
-1.541789e-003,-1.921092e-004
-1.054134e-003,-2.062088e-004
-6.047274e-004,-2.088019e-004
-2.548284e-004,-1.972953e-004
-2.728874e-005,-1.736337e-004
9.199134e-005,-1.485136e-004
1.415833e-004,-1.332795e-004
1.597346e-004,-1.302002e-004
1.629760e-004,-1.336036e-004
1.506590e-004,-1.329553e-004
1.200286e-004,-1.229073e-004
8.372601e-005,-1.008664e-004
6.379197e-005,-6.991193e-005
7.627100e-005,-4.138842e-005
1.407730e-004,-2.226472e-005
2.707494e-004,-1.626830e-005
4.590694e-004,-1.934754e-005
6.592202e-004,-2.728874e-005
7.989206e-004,-3.830919e-005
8.240407e-004,-4.916756e-005
7.334462e-004,-5.646050e-005
5.749461e-004,-5.629844e-005
4.151496e-004,-5.192267e-005
3.205035e-004,-4.592625e-005
3.349273e-004,-3.652646e-005
4.600418e-004,-2.372331e-005
6.452826e-004,-6.706447e-006
8.133444e-004,1.808955e-005
9.096113e-004,5.017848e-005
9.191732e-004,8.826383e-005
8.598572e-004,1.245665e-004
7.686144e-004,1.551968e-004
6.853127e-004,1.786963e-004
6.460929e-004,1.981441e-004
6.673234e-004,2.161334e-004
7.318255e-004,2.320158e-004
8.130203e-004,2.461155e-004
8.869221e-004,2.568118e-004
9.426727e-004,2.629703e-004
9.673066e-004,2.676702e-004
9.292212e-004,2.765838e-004
7.746107e-004,2.900352e-004
4.475628e-004,3.031625e-004
-5.548811e-005,3.093210e-004
-6.497815e-004,3.047831e-004
-1.196590e-003,2.879283e-004
-1.551675e-003,2.628082e-004
-1.619904e-003,2.370398e-004
-1.403871e-003,2.133783e-004
-9.855808e-004,1.923098e-004
-4.943609e-004,1.756171e-004
-6.667062e-005,1.650828e-004
2.068957e-004,1.582761e-004
3.161277e-004,1.551968e-004
3.153174e-004,1.516314e-004
2.767458e-004,1.443384e-004
2.579462e-004,1.346145e-004
2.854973e-004,1.239182e-004
3.537269e-004,1.124116e-004
4.482110e-004,9.474644e-005
5.574431e-004,7.011252e-005
6.603546e-004,4.239934e-005
7.242084e-004,2.116879e-005
7.183740e-004,1.095867e-005
6.269692e-004,8.689758e-006
4.506420e-004,9.824215e-006
2.135403e-004,9.824215e-006
-3.490581e-005,6.096713e-006
-2.468872e-004,-1.358292e-006
-4.052250e-004,-1.464765e-005
-5.159156e-004,-3.231277e-005
-5.867381e-004,-5.694670e-005
-6.173685e-004,-8.498399e-005
-6.044033e-004,-1.110765e-004
-5.530285e-004,-1.289037e-004
-4.788027e-004,-1.334415e-004
-4.057112e-004,-1.237176e-004
-3.570916e-004,-1.016767e-004
-3.523917e-004,-7.509801e-005
-3.963114e-004,-5.127441e-005
-4.724821e-004,-3.036798e-005
-5.517320e-004,-1.594417e-005
-5.998655e-004,-9.299493e-006
-5.914380e-004,-9.137427e-006
-5.230465e-004,-1.448558e-005
-4.206212e-004,-2.615429e-005
-3.159271e-004,-4.317115e-005
-2.298704e-004,-6.375344e-005
-1.755785e-004,-8.806324e-005
-1.603444e-004,-1.161005e-004
-1.870851e-004,-1.464067e-004
-2.567732e-004,-1.734716e-004
-3.622777e-004,-1.875713e-004
-4.789647e-004,-1.867610e-004
-5.703696e-004,-1.728234e-004
-6.061860e-004,-1.501342e-004
-5.728005e-004,-1.225832e-004
-4.700511e-004,-9.049421e-005
-3.186821e-004,-5.905355e-005
-1.504584e-004,-3.166451e-005
3.665733e-006,-7.678839e-006
1.172735e-004,1.079661e-005
1.806411e-004,2.392390e-005
1.984683e-004,3.235129e-005
1.902029e-004,3.980630e-005
1.793446e-004,4.774750e-005
1.850168e-004,5.601284e-005
2.115956e-004,6.379197e-005
2.558394e-004,6.897806e-005
3.119140e-004,6.978839e-005
3.757678e-004,6.735741e-005
4.511282e-004,6.719535e-005
5.352402e-004,6.978839e-005
6.259967e-004,7.400208e-005
7.190223e-004,7.918817e-005
8.021619e-004,8.648112e-005
8.569400e-004,9.604298e-005
8.703915e-004,1.036600e-004
8.412196e-004,1.103047e-004
7.739625e-004,1.169494e-004
6.807749e-004,1.255389e-004
5.707325e-004,1.359110e-004
4.495075e-004,1.504969e-004
3.247172e-004,1.692965e-004
2.067336e-004,1.906891e-004
1.388282e-004,2.059233e-004
1.769136e-004,2.060853e-004
3.318480e-004,1.924718e-004
5.572810e-004,1.739964e-004
7.781762e-004,1.571416e-004
9.339211e-004,1.466074e-004
9.974508e-004,1.438522e-004
9.870786e-004,1.492004e-004
9.381349e-004,1.563313e-004
8.705535e-004,1.615174e-004
7.736384e-004,1.681620e-004
6.128695e-004,1.777239e-004
3.626405e-004,1.874478e-004
4.175109e-005,1.939304e-004
-2.796244e-004,1.924718e-004
-5.097571e-004,1.798307e-004
-6.094273e-004,1.560072e-004
-6.343853e-004,1.291043e-004
-7.128249e-004,1.041462e-004
-9.628917e-004,8.016057e-005
-1.403871e-003,5.828175e-005
-1.932367e-003,3.883391e-005
-2.387933e-003,1.792748e-005
-2.622928e-003,-5.571990e-006
-2.554860e-003,-3.377136e-005
-2.189727e-003,-6.731888e-005
-1.626063e-003,-9.940781e-005
-1.005029e-003,-1.217728e-004
-4.557894e-004,-1.314967e-004
-5.370539e-005,-1.342519e-004
1.775618e-004,-1.383035e-004
2.675081e-004,-1.431655e-004
2.893870e-004,-1.454344e-004
3.227724e-004,-1.405724e-004
4.295735e-004,-1.290658e-004
6.250244e-004,-1.154523e-004
8.695811e-004,-1.029732e-004
1.090638e-003,-9.470791e-005
1.216239e-003,-9.081835e-005
1.206029e-003,-9.584238e-005
1.067139e-003,-1.104282e-004
8.407335e-004,-1.274451e-004
5.775391e-004,-1.446240e-004
3.235827e-004,-1.632615e-004
1.039842e-004,-1.809267e-004
-6.829127e-005,-1.922712e-004
-1.853024e-004,-1.948643e-004
-2.418632e-004,-1.882196e-004
-2.460769e-004,-1.742820e-004
-2.109087e-004,-1.538618e-004
-1.538618e-004,-1.293899e-004
-9.195280e-005,-1.058904e-004
-4.025397e-005,-8.206682e-005
-5.409925e-006,-5.467778e-005
2.278944e-005,-2.712668e-005
6.395404e-005,-2.654814e-006
1.363972e-004,2.441009e-005
2.470879e-004,5.844381e-005
3.830607e-004,9.620504e-005
5.256782e-004,1.307250e-004
6.579236e-004,1.543865e-004
7.634282e-004,1.605450e-004
8.277682e-004,1.496866e-004
8.473782e-004,1.284560e-004
8.276062e-004,1.069013e-004
7.794728e-004,8.826383e-005
7.225877e-004,7.627100e-005
6.785059e-004,7.205730e-005
6.574374e-004,7.772959e-005
6.501445e-004,9.134307e-005
6.383138e-004,1.091703e-004
6.000663e-004,1.258630e-004
5.149820e-004,1.373696e-004
3.718782e-004,1.456350e-004
1.511452e-004,1.513072e-004
-1.540238e-004,1.542244e-004
-5.251534e-004,1.582761e-004
-9.194582e-004,1.639484e-004
-1.267899e-003,1.686482e-004
-1.480042e-003,1.715654e-004
-1.484094e-003,1.738343e-004
-1.265144e-003,1.746447e-004
-8.867210e-004,1.757791e-004
-4.634065e-004,1.751309e-004
-1.175591e-004,1.699448e-004
8.064677e-005,1.560072e-004
1.299146e-004,1.385041e-004
7.983644e-005,1.257009e-004
-7.100305e-007,1.198666e-004
-7.185670e-005,1.201907e-004
-1.384655e-004,1.242423e-004
-2.238740e-004,1.278078e-004
-3.410472e-004,1.282940e-004
-4.773441e-004,1.229458e-004
-6.150996e-004,1.086841e-004
-7.364865e-004,8.599492e-005
-8.158985e-004,6.119892e-005
-8.312946e-004,4.126489e-005
-7.815406e-004,2.862379e-005
-6.789533e-004,2.214118e-005
-5.373082e-004,2.100672e-005
-3.627639e-004,2.586868e-005
-1.712027e-004,3.267542e-005
4.800190e-006,3.932010e-005
1.359110e-004,4.596478e-005
2.104611e-004,5.196120e-005
2.466017e-004,5.585077e-005
2.783665e-004,5.439218e-005
3.315239e-004,4.353380e-005
4.123946e-004,2.100672e-005
5.052580e-004,-6.868513e-006
5.804563e-004,-3.587821e-005
6.031455e-004,-6.035007e-005
5.542018e-004,-7.590833e-005
4.457800e-004,-8.158062e-005
3.201794e-004,-8.482193e-005
2.237505e-004,-9.065628e-005
1.824238e-004,-9.973194e-005
1.974959e-004,-1.126972e-004
2.466017e-004,-1.264727e-004
2.970040e-004,-1.366828e-004
3.258516e-004,-1.431655e-004
3.266619e-004,-1.433275e-004
2.973281e-004,-1.386276e-004
2.444948e-004,-1.355484e-004
1.887444e-004,-1.344139e-004
1.556830e-004,-1.329553e-004
1.582761e-004,-1.277692e-004
1.680000e-004,-1.191798e-004
1.456350e-004,-1.068628e-004
8.016057e-005,-8.692878e-005
2.369211e-006,-5.710876e-005
-3.992984e-005,-2.372331e-005
-1.075808e-005,6.420843e-006
9.134307e-005,2.700314e-005
2.355812e-004,3.786152e-005
3.715541e-004,4.191315e-005
4.632831e-004,4.466826e-005
4.927790e-004,4.985435e-005
4.652279e-004,5.730935e-005
4.057499e-004,6.444023e-005
3.477304e-004,6.978839e-005
3.021901e-004,7.270556e-005
2.585945e-004,6.978839e-005
1.937684e-004,6.022653e-005
1.039842e-004,4.790957e-005
9.986281e-006,3.915804e-005
-6.051213e-005,4.029250e-005
-9.017008e-005,5.163707e-005
-8.222889e-005,6.654708e-005
-5.176061e-005,7.643307e-005
-7.516774e-006,8.210535e-005
4.466826e-005,9.280167e-005
9.750156e-005,1.085220e-004
1.420695e-004,1.268354e-004
1.704310e-004,1.435281e-004
1.762653e-004,1.556830e-004
1.624898e-004,1.641104e-004
1.464453e-004,1.710792e-004
1.501728e-004,1.767515e-004
1.772377e-004,1.833962e-004
2.211574e-004,1.923098e-004
2.691288e-004,2.034923e-004
3.033245e-004,2.125679e-004
2.940868e-004,2.135403e-004
2.175920e-004,2.034923e-004
7.497447e-005,1.866375e-004
-9.503204e-005,1.684862e-004
-2.298704e-004,1.516314e-004
-2.671454e-004,1.399627e-004
-1.882196e-004,1.362352e-004
-2.809907e-005,1.339663e-004
1.594105e-004,1.266733e-004
3.501615e-004,1.111150e-004
5.409124e-004,8.712937e-005
7.080019e-004,5.876794e-005
8.010275e-004,3.364782e-005
7.721797e-004,1.938607e-005
6.018490e-004,1.825161e-005
2.999212e-004,3.105477e-005
-8.352541e-005,5.455425e-005
-4.778303e-004,7.918817e-005
-8.212466e-004,9.669123e-005
-1.078768e-003,1.002567e-004
-1.235972e-003,8.761557e-005
-1.298043e-003,6.200925e-005
-1.292695e-003,2.927205e-005
-1.251206e-003,-2.492749e-006
-1.193024e-003,-2.809907e-005
-1.111992e-003,-4.803310e-005
-9.881739e-004,-6.375344e-005
-8.082814e-004,-7.639453e-005
-5.766901e-004,-8.692878e-005
-3.201407e-004,-9.827335e-005
-8.628052e-005,-1.110765e-004
9.069481e-005,-1.255003e-004
2.025199e-004,-1.426792e-004
2.514636e-004,-1.622891e-004
2.485465e-004,-1.806025e-004
2.117576e-004,-1.929195e-004
1.594105e-004,-1.953505e-004
1.090082e-004,-1.878955e-004
7.400208e-005,-1.707166e-004
6.670914e-005,-1.472171e-004
9.523264e-005,-1.255003e-004
1.654069e-004,-1.122110e-004
2.652392e-004,-1.083214e-004
3.606957e-004,-1.076731e-004
3.888950e-004,-1.037836e-004
3.102934e-004,-9.292520e-005
1.480659e-004,-7.363943e-005
-2.955766e-005,-5.305713e-005
-1.524032e-004,-3.879538e-005
-1.765509e-004,-3.490581e-005
-1.091317e-004,-4.041603e-005
4.151929e-006,-4.949169e-005
1.106288e-004,-5.159854e-005
1.655690e-004,-4.495386e-005
1.430419e-004,-3.036798e-005
4.320967e-005,-1.092015e-005
-1.175591e-004,8.041497e-006
-3.144685e-004,2.278944e-005
-5.223983e-004,2.878586e-005
-7.225489e-004,2.781346e-005
-8.896381e-004,2.165498e-005
-9.948185e-004,1.257933e-005
-1.015239e-003,8.041497e-006
-9.364750e-004,1.549650e-005
-7.671168e-004,3.640293e-005
-5.313118e-004,6.638502e-005
-2.562870e-004,9.474644e-005
3.235129e-005,1.175977e-004
3.081865e-004,1.323456e-004
5.428572e-004,1.404489e-004
7.165913e-004,1.451488e-004
8.193408e-004,1.535762e-004
8.491609e-004,1.658931e-004
8.243649e-004,1.811273e-004
7.828761e-004,1.926339e-004
7.627800e-004,1.966855e-004
7.802831e-004,1.929580e-004
8.227442e-004,1.850168e-004
8.630985e-004,1.764274e-004
8.699053e-004,1.712413e-004
8.287407e-004,1.697827e-004
7.634282e-004,1.744826e-004
7.230740e-004,1.859892e-004
7.511112e-004,2.036544e-004
8.561297e-004,2.232643e-004
1.006364e-003,2.384984e-004
1.155627e-003,2.414156e-004
1.265021e-003,2.286124e-004
1.316234e-003,2.008992e-004
1.299379e-003,1.628139e-004
1.189174e-003,1.179218e-004
9.577448e-004,7.805372e-005
5.948802e-004,5.730935e-005
1.297526e-004,6.541262e-005
-3.616295e-004,1.009049e-004
-7.876991e-004,1.482280e-004
-1.076824e-003,1.887444e-004
-1.192376e-003,2.094887e-004
-1.140353e-003,2.030061e-004
-9.640261e-004,1.723757e-004
-7.395657e-004,1.266733e-004
-5.392530e-004,7.740546e-005
-4.057112e-004,3.040651e-005
-3.264613e-004,-8.327101e-006
-2.707109e-004,-3.328516e-005
-2.241981e-004,-4.819517e-005
-2.031296e-004,-6.067420e-005
-2.378116e-004,-7.104638e-005
-3.400748e-004,-7.590833e-005
-5.026262e-004,-7.736692e-005
-6.961322e-004,-7.720486e-005
-8.831556e-004,-7.526008e-005
-1.020263e-003,-7.509801e-005
-1.064345e-003,-8.093236e-005
-9.763431e-004,-9.568031e-005
-7.512344e-004,-1.164247e-004
-4.305072e-004,-1.365208e-004
-8.287715e-005,-1.475412e-004
2.198609e-004,-1.494860e-004
4.392974e-004,-1.472171e-004
5.717048e-004,-1.454344e-004
6.250244e-004,-1.475412e-004
6.114109e-004,-1.546721e-004
5.435055e-004,-1.643960e-004
4.410801e-004,-1.695821e-004
3.227724e-004,-1.669890e-004
1.945787e-004,-1.556445e-004
5.212327e-005,-1.379794e-004
-1.112386e-004,-1.175591e-004
-2.874036e-004,-9.859748e-005
-4.530343e-004,-8.239095e-005
-5.831727e-004,-6.683268e-005
-6.713362e-004,-4.787104e-005
-7.298418e-004,-2.469570e-005
-7.726270e-004,-3.858999e-007
-7.933713e-004,1.646890e-005
-7.593377e-004,2.019640e-005
-6.368163e-004,1.355172e-005
-4.201350e-004,-1.682422e-006
-1.394379e-004,-1.902341e-005
1.590864e-004,-3.328516e-005
4.405939e-004,-3.604027e-005
6.882299e-004,-2.031993e-005
8.977805e-004,8.041497e-006
1.063736e-003,4.061663e-005
1.172320e-003,6.995045e-005
1.203274e-003,8.875003e-005
1.152223e-003,9.912221e-005
1.048177e-003,1.098185e-004
9.365142e-004,1.316974e-004
8.501333e-004,1.644345e-004
7.969757e-004,2.023578e-004
7.614834e-004,2.373639e-004
7.175637e-004,2.637806e-004
6.347483e-004,2.788527e-004
4.953720e-004,2.830664e-004
3.146691e-004,2.754493e-004
1.372076e-004,2.594049e-004
8.527692e-006,2.406053e-004
-4.300908e-005,2.240746e-004
-1.772689e-005,2.112714e-004
7.011252e-005,1.979821e-004
1.973338e-004,1.793446e-004
3.260137e-004,1.539003e-004
4.107739e-004,1.266733e-004
4.078567e-004,1.051186e-004
2.942489e-004,9.555677e-005
8.988449e-005,9.831188e-005
-1.442999e-004,1.088461e-004
-3.279199e-004,1.211631e-004
-3.964735e-004,1.279698e-004
-3.374817e-004,1.229458e-004
-1.977815e-004,1.065772e-004
-4.916756e-005,8.761557e-005
4.547859e-005,7.351589e-005
5.325772e-005,6.508849e-005
-1.837515e-005,5.649903e-005
-1.373311e-004,4.483033e-005
-2.561249e-004,3.121684e-005
-3.277578e-004,1.873781e-005
-3.332680e-004,5.124321e-006
-2.972895e-004,-9.623623e-006
-2.580697e-004,-2.583016e-005
-2.323013e-004,-4.300908e-005
-2.172293e-004,-6.326724e-005
-2.094502e-004,-8.514606e-005
-2.088019e-004,-1.044318e-004
-2.173914e-004,-1.178833e-004
-2.272773e-004,-1.243659e-004
-2.297083e-004,-1.261486e-004
-2.225774e-004,-1.280934e-004
-2.049123e-004,-1.314967e-004
-1.694200e-004,-1.371690e-004
-1.079973e-004,-1.467309e-004
-2.971972e-005,-1.609926e-004
4.677511e-005,-1.780095e-004
9.733949e-005,-1.900023e-004
1.051186e-004,-1.908126e-004
7.059871e-005,-1.825473e-004
1.274139e-005,-1.713648e-004
-4.155049e-005,-1.606685e-004
-6.942573e-005,-1.522411e-004
-6.342931e-005,-1.438137e-004
-3.117831e-005,-1.269589e-004
1.274139e-005,-9.713889e-005
5.811968e-005,-5.321920e-005
9.409818e-005,-3.465141e-006
1.124116e-004,4.402000e-005
1.104668e-004,8.080883e-005
8.923623e-005,1.007429e-004
5.115087e-005,1.028497e-004
2.045080e-006,8.923623e-005
-5.273300e-005,7.076078e-005
-1.076731e-004,5.747142e-005
-1.477033e-004,5.568870e-005
-1.533756e-004,6.589881e-005
-1.169109e-004,8.226741e-005
-4.576419e-005,9.588091e-005
3.348575e-005,9.977047e-005
8.453633e-005,9.328786e-005
7.416415e-005,8.242948e-005
-6.058186e-006,7.643307e-005
-1.246900e-004,7.886404e-005
-2.301945e-004,8.826383e-005
-2.778417e-004,9.750156e-005
-2.507768e-004,9.814982e-005
-1.695821e-004,8.875003e-005
-8.352541e-005,7.481241e-005
-4.835724e-005,6.379197e-005
-9.227693e-005,6.087479e-005
-1.990780e-004,6.768154e-005
-3.126857e-004,8.145709e-005
-3.685983e-004,9.944634e-005
-3.297026e-004,1.187321e-004
-2.039399e-004,1.381800e-004
-3.474375e-005,1.579519e-004
1.279698e-004,1.757791e-004
2.467637e-004,1.877720e-004
3.051073e-004,1.914995e-004
3.039728e-004,1.887444e-004
2.576221e-004,1.855030e-004
1.957132e-004,1.885823e-004
1.469315e-004,2.010613e-004
1.315353e-004,2.193747e-004
1.475797e-004,2.359054e-004
1.762653e-004,2.414156e-004
1.950649e-004,2.320158e-004
1.903650e-004,2.085163e-004
1.641104e-004,1.775618e-004
1.368834e-004,1.477418e-004
1.255389e-004,1.248906e-004
1.376938e-004,1.137081e-004
1.631380e-004,1.111150e-004
1.856651e-004,1.093323e-004
1.892305e-004,1.026876e-004
1.662173e-004,8.761557e-005
1.304008e-004,6.460230e-005
1.051186e-004,4.175109e-005
1.060910e-004,2.732727e-005
1.342904e-004,2.700314e-005
1.801549e-004,3.348575e-005
2.297469e-004,3.299956e-005
2.829043e-004,2.165498e-005
3.613439e-004,1.720949e-006
4.837033e-004,-2.437157e-005
6.436619e-004,-5.548811e-005
8.154513e-004,-8.368748e-005
9.689272e-004,-1.060525e-004
1.081239e-003,-1.229073e-004
1.137313e-003,-1.334415e-004
1.116083e-003,-1.370070e-004
1.000206e-003,-1.319829e-004
7.947069e-004,-1.195039e-004
5.438296e-004,-1.011905e-004
3.041349e-004,-8.336335e-005
8.842590e-005,-6.715681e-005
-1.600202e-004,-5.338126e-005
-5.160777e-004,-4.219875e-005
-1.004380e-003,-4.106429e-005
-1.576309e-003,-5.532604e-005
-2.136083e-003,-8.222889e-005
-2.580791e-003,-1.154523e-004
-2.821134e-003,-1.478653e-004
-2.790828e-003,-1.781716e-004
-2.483875e-003,-2.045882e-004
-1.980500e-003,-2.282497e-004
-1.421212e-003,-2.421874e-004
-9.426335e-004,-2.434839e-004
-6.232028e-004,-2.327876e-004
-4.561135e-004,-2.123673e-004
-3.815635e-004,-1.846542e-004
-3.256510e-004,-1.538618e-004
-2.308428e-004,-1.253383e-004
-8.465986e-005,-1.042698e-004
8.161915e-005,-8.806324e-005
2.158093e-004,-6.569822e-005
2.791768e-004,-3.312309e-005
2.621599e-004,1.396819e-006
1.811273e-004,2.684107e-005
7.335383e-005,3.721326e-005
-1.124428e-005,3.850978e-005
-3.847125e-005,3.899597e-005
-1.196227e-006,4.580272e-005
9.199134e-005,6.281957e-005
2.303951e-004,8.729144e-005
4.034809e-004,1.091703e-004
5.879114e-004,1.219734e-004
7.430080e-004,1.271595e-004
8.204753e-004,1.307250e-004
7.832003e-004,1.341283e-004
6.277795e-004,1.420695e-004
3.945674e-004,1.547106e-004
1.506590e-004,1.710792e-004
-3.036798e-005,1.845306e-004
-9.519411e-005,1.848548e-004
-3.652646e-005,1.739964e-004
1.098185e-004,1.574657e-004
2.932765e-004,1.419075e-004
4.709002e-004,1.315353e-004
6.238899e-004,1.294284e-004
7.504630e-004,1.339663e-004
8.502954e-004,1.453108e-004
9.214421e-004,1.615174e-004
9.642274e-004,1.767515e-004
9.780029e-004,1.859892e-004
9.562862e-004,1.898788e-004
9.000494e-004,1.932822e-004
8.316578e-004,1.953890e-004
7.940586e-004,1.924718e-004
8.199891e-004,1.838824e-004
8.945392e-004,1.736723e-004
9.630929e-004,1.657311e-004
9.705480e-004,1.611932e-004
8.927565e-004,1.611932e-004
7.473837e-004,1.658931e-004
5.804563e-004,1.707551e-004
4.443214e-004,1.694586e-004
3.793332e-004,1.581140e-004
3.859779e-004,1.401247e-004
4.376768e-004,1.219734e-004
4.987754e-004,1.072255e-004
5.381573e-004,9.652917e-005
5.446399e-004,9.020862e-005
5.146578e-004,8.437427e-005
4.503179e-004,7.238143e-005
3.655576e-004,4.855783e-005
2.746390e-004,1.338965e-005
1.908512e-004,-2.777494e-005
1.278078e-004,-6.261898e-005
9.150514e-005,-8.368748e-005
7.951231e-005,-9.130454e-005
7.384002e-005,-8.887356e-005
4.466826e-005,-8.222889e-005
-3.247483e-005,-7.509801e-005
-1.660166e-004,-7.169464e-005
-3.475298e-004,-7.072225e-005
-5.486528e-004,-6.861539e-005
-7.389174e-004,-6.261898e-005
-8.996862e-004,-5.678463e-005
-1.025449e-003,-5.710876e-005
-1.126416e-003,-6.780507e-005
-1.212472e-003,-9.179074e-005
-1.288967e-003,-1.259865e-004
-1.355738e-003,-1.630995e-004
-1.394310e-003,-1.934057e-004
-1.375996e-003,-2.154466e-004
-1.287184e-003,-2.303566e-004
-1.123012e-003,-2.381357e-004
-8.941760e-004,-2.348944e-004
-6.316302e-004,-2.159328e-004
-3.732982e-004,-1.799543e-004
-1.509446e-004,-1.332795e-004
1.646890e-005,-8.028410e-005
1.203528e-004,-2.955766e-005
1.608691e-004,1.501031e-005
1.568175e-004,5.179914e-005
1.386662e-004,7.886404e-005
1.304008e-004,9.766362e-005
1.451488e-004,1.114392e-004
1.843686e-004,1.226217e-004
2.307193e-004,1.310491e-004
2.662116e-004,1.399627e-004
2.861456e-004,1.466074e-004
2.981384e-004,1.448246e-004
3.130485e-004,1.334801e-004
3.407616e-004,1.174356e-004
3.884089e-004,1.034980e-004
4.660382e-004,9.750156e-005
5.788357e-004,1.033359e-004
7.204809e-004,1.190562e-004
8.715259e-004,1.393144e-004
1.002313e-003,1.566554e-004
1.093231e-003,1.675138e-004
1.132614e-003,1.705930e-004
1.122079e-003,1.631380e-004
1.065356e-003,1.483901e-004
9.614723e-004,1.329939e-004
8.117238e-004,1.245665e-004
6.342620e-004,1.258630e-004
4.631210e-004,1.336421e-004
3.159656e-004,1.373696e-004
1.678379e-004,1.344524e-004
-3.263690e-005,1.252147e-004
-3.290543e-004,1.128978e-004
-7.317866e-004,1.004187e-004
-1.203072e-003,9.199134e-005
-1.662042e-003,9.150514e-005
-2.003514e-003,9.863601e-005
-2.127331e-003,1.109530e-004
-1.982283e-003,1.219734e-004
-1.603212e-003,1.227837e-004
-1.111181e-003,1.106288e-004
-6.676087e-004,8.761557e-005
-3.908012e-004,5.730935e-005
-3.044204e-004,2.424803e-005
-3.468815e-004,-4.275467e-006
-4.230522e-004,-2.534396e-005
-4.565997e-004,-4.252288e-005
-4.063595e-004,-5.613637e-005
-2.682799e-004,-6.812920e-005
-6.504996e-005,-7.461182e-005
1.642725e-004,-7.444975e-005
3.694472e-004,-6.991193e-005
5.180612e-004,-6.812920e-005
6.021731e-004,-7.315322e-005
6.258347e-004,-8.433573e-005
5.945560e-004,-9.697683e-005
5.191956e-004,-1.084835e-004
4.091532e-004,-1.139937e-004
2.846870e-004,-1.114006e-004
1.691344e-004,-1.041077e-004
9.507057e-005,-9.260107e-005
8.032264e-005,-7.509801e-005
1.239182e-004,-5.370539e-005
1.974959e-004,-3.150244e-005
2.607014e-004,-1.351319e-005
2.845250e-004,-3.303076e-006
2.637806e-004,-2.816880e-006
2.243987e-004,-1.043395e-005
2.115956e-004,-2.258885e-005
2.632944e-004,-3.782299e-005
3.893813e-004,-5.321920e-005
5.712186e-004,-6.245691e-005
7.744487e-004,-6.423963e-005
9.643894e-004,-6.650855e-005
1.119162e-003,-7.785312e-005
1.229367e-003,-9.730096e-005
1.293059e-003,-1.170729e-004
1.303268e-003,-1.295519e-004
1.251083e-003,-1.290658e-004
1.127265e-003,-1.117248e-004
9.290591e-004,-8.044617e-005
6.712130e-004,-4.446767e-005
3.874365e-004,-1.075808e-005
1.130598e-004,1.419998e-005
-1.431655e-004,3.121684e-005
-4.096008e-004,4.158902e-005
-7.128249e-004,4.580272e-005
-1.048786e-003,4.483033e-005
-1.377941e-003,4.353380e-005
-1.645673e-003,4.466826e-005
-1.806118e-003,4.790957e-005
-1.833831e-003,5.536457e-005
-1.730271e-003,6.638502e-005
-1.520558e-003,7.983644e-005
-1.246992e-003,9.490851e-005
-9.599745e-004,1.112771e-004
-7.102319e-004,1.273216e-004
-5.282326e-004,1.427178e-004
-4.230522e-004,1.582761e-004
-3.885323e-004,1.699448e-004
-4.013355e-004,1.759412e-004
-4.243487e-004,1.777239e-004
-4.290486e-004,1.783722e-004
-3.958252e-004,1.806411e-004
-3.115513e-004,1.867996e-004
-1.775233e-004,1.942546e-004
-1.189254e-005,1.986303e-004
1.551968e-004,1.958752e-004
3.021901e-004,1.856651e-004
4.214702e-004,1.728619e-004
5.191956e-004,1.644345e-004
6.073592e-004,1.615174e-004
6.968193e-004,1.624898e-004
7.802831e-004,1.675138e-004
8.434886e-004,1.744826e-004
8.723363e-004,1.830721e-004
8.627744e-004,1.903650e-004
8.227442e-004,1.918236e-004
7.699109e-004,1.889064e-004
7.157810e-004,1.835583e-004
6.642442e-004,1.778860e-004
6.122212e-004,1.748067e-004
5.580913e-004,1.738343e-004
5.054200e-004,1.770756e-004
4.652279e-004,1.845306e-004
4.430249e-004,1.958752e-004
4.360561e-004,2.038164e-004
4.423766e-004,2.008992e-004
4.461041e-004,1.793446e-004
4.180668e-004,1.417454e-004
3.321722e-004,9.717743e-005
1.809652e-004,5.325772e-005
-7.192643e-006,1.549650e-005
-1.865989e-004,-1.610624e-005
-3.123616e-004,-3.749886e-005
-3.595226e-004,-4.446767e-005
-3.306750e-004,-4.203669e-005
-2.363530e-004,-3.798505e-005
-1.020008e-004,-3.944364e-005
3.040651e-005,-5.257093e-005
1.336421e-004,-7.428769e-005
1.987924e-004,-9.535618e-005
2.271538e-004,-1.123730e-004
2.325020e-004,-1.267968e-004
2.397949e-004,-1.357104e-004
2.739907e-004,-1.379794e-004
3.506476e-004,-1.357104e-004
4.676588e-004,-1.337657e-004
6.034696e-004,-1.384655e-004
7.164293e-004,-1.515928e-004
7.673178e-004,-1.710407e-004
7.271256e-004,-1.906506e-004
5.883976e-004,-2.010227e-004
3.621543e-004,-1.953505e-004
7.076078e-005,-1.750923e-004
-2.447804e-004,-1.488377e-004
-5.290429e-004,-1.238797e-004
-7.426449e-004,-1.060525e-004
-8.784557e-004,-9.762509e-005
-9.539781e-004,-9.713889e-005
-9.941703e-004,-9.827335e-005
-1.025125e-003,-9.794922e-005
-1.077958e-003,-9.973194e-005
-1.167418e-003,-1.016767e-004
-1.259309e-003,-1.042698e-004
-1.281674e-003,-1.032974e-004
-1.173090e-003,-9.405965e-005
-9.296683e-004,-7.380149e-005
-6.066722e-004,-4.495386e-005
-2.770314e-004,-1.432352e-005
2.693341e-006,1.209313e-005
2.010613e-004,3.462021e-005
3.124002e-004,5.698522e-005
3.444891e-004,8.161915e-005
3.154794e-004,1.047945e-004
2.521119e-004,1.200286e-004
1.788584e-004,1.260251e-004
1.143563e-004,1.224596e-004
7.319176e-005,1.107909e-004
6.800567e-005,9.928428e-005
9.571884e-005,9.458438e-005
1.470936e-004,9.896015e-005
2.174299e-004,1.077117e-004
3.041349e-004,1.195424e-004
4.002396e-004,1.321835e-004
4.981271e-004,1.401247e-004
5.840218e-004,1.420695e-004
6.413930e-004,1.393144e-004
6.674855e-004,1.360731e-004
6.640821e-004,1.391524e-004
6.387999e-004,1.514693e-004
6.049282e-004,1.704310e-004
5.648981e-004,1.903650e-004
5.172509e-004,2.086784e-004
4.702519e-004,2.200230e-004
4.352458e-004,2.239125e-004
4.229288e-004,2.256952e-004
4.298976e-004,2.265056e-004
4.465904e-004,2.221298e-004
4.642555e-004,2.091646e-004
4.775448e-004,1.877720e-004
4.843516e-004,1.600588e-004
4.815964e-004,1.276457e-004
4.642555e-004,9.442231e-005
4.303838e-004,6.330578e-005
3.746333e-004,3.624086e-005
2.945730e-004,1.355172e-005
1.939304e-004,-3.789272e-006
8.356394e-005,-1.351319e-005
-3.198864e-005,-1.432352e-005
-1.600202e-004,-1.092015e-005
-3.084721e-004,-1.205460e-005
-4.791268e-004,-2.177852e-005
-6.655019e-004,-3.911951e-005
-8.452323e-004,-5.905355e-005
-9.771534e-004,-7.817725e-005
-1.022694e-003,-9.632857e-005
-9.667812e-004,-1.146419e-004
-8.233535e-004,-1.334415e-004
-6.300096e-004,-1.477033e-004
-4.342347e-004,-1.527273e-004
-2.765452e-004,-1.467309e-004
-1.773612e-004,-1.280934e-004
-1.465688e-004,-9.956988e-005
-1.770371e-004,-6.472583e-005
-2.269532e-004,-2.631635e-005
-2.504527e-004,9.338019e-006
-2.152845e-004,3.397195e-005
-1.173971e-004,4.223728e-005
2.311357e-005,3.299956e-005
1.673517e-004,9.175954e-006
2.765838e-004,-2.161646e-005
3.303894e-004,-5.224680e-005
3.329825e-004,-7.574627e-005
3.059176e-004,-9.065628e-005
2.697770e-004,-9.892161e-005
2.352571e-004,-1.054042e-004
1.971717e-004,-1.148040e-004
1.615174e-004,-1.251762e-004
1.526038e-004,-1.318209e-004
1.987924e-004,-1.306864e-004
3.183966e-004,-1.177212e-004
4.956961e-004,-9.065628e-005
6.791542e-004,-5.435365e-005
7.948689e-004,-1.578211e-005
7.890346e-004,1.938607e-005
6.541961e-004,4.871989e-005
4.323286e-004,7.270556e-005
1.947408e-004,9.474644e-005
1.922400e-005,1.159770e-004
-3.863332e-005,1.378558e-004
3.429608e-005,1.584381e-004
2.098128e-004,1.726999e-004
4.156358e-004,1.741585e-004
5.704083e-004,1.620036e-004
5.977973e-004,1.386662e-004
4.183910e-004,1.138702e-004
-2.226472e-005,9.701536e-005
-7.029389e-004,8.988449e-005
-1.509862e-003,9.620504e-005
-2.274325e-003,1.184080e-004
-2.821782e-003,1.535762e-004
-3.016747e-003,1.942546e-004
-2.814165e-003,2.302331e-004
-2.278538e-003,2.524360e-004
-1.565126e-003,2.569738e-004
-8.502563e-004,2.449810e-004
-2.682799e-004,2.206712e-004
1.297526e-004,1.884202e-004
3.553475e-004,1.579519e-004
4.485351e-004,1.401247e-004
4.405939e-004,1.326697e-004
3.339549e-004,1.257009e-004
1.201907e-004,1.122495e-004
-1.801163e-004,9.588091e-005
-5.005194e-004,8.291568e-005
-7.507482e-004,7.708133e-005
-8.526873e-004,7.837785e-005
-7.714926e-004,8.210535e-005
-5.215878e-004,8.259155e-005
-1.606685e-004,7.546067e-005
2.407673e-004,5.779555e-005
6.242140e-004,2.862379e-005
9.410520e-004,-4.761664e-006
