-1.076731e-004,-6.051213e-005
-8.952183e-005,-6.018800e-005
-8.595638e-005,-5.775702e-005
-9.713889e-005,-5.548811e-005
-1.178833e-004,-5.354332e-005
-1.387897e-004,-5.192267e-005
-1.493239e-004,-5.321920e-005
-1.449482e-004,-5.808115e-005
-1.242038e-004,-6.180866e-005
-9.600444e-005,-5.905355e-005
-7.072225e-005,-4.965376e-005
-4.916756e-005,-3.344723e-005
-2.145439e-005,-1.545797e-005
2.554455e-005,-3.141010e-006
9.020862e-005,8.041497e-006
1.650828e-004,2.052053e-005
2.372019e-004,3.478228e-005
2.908455e-004,4.807163e-005
3.185587e-004,6.152305e-005
3.240689e-004,7.254349e-005
3.130485e-004,8.210535e-005
2.971661e-004,8.891209e-005
2.820940e-004,9.312580e-005
2.647530e-004,9.620504e-005
2.406053e-004,9.896015e-005
2.122438e-004,1.038221e-004
1.819376e-004,1.088461e-004
1.474177e-004,1.114392e-004
1.075496e-004,1.098185e-004
6.800567e-005,1.091703e-004
3.510641e-005,1.138702e-004
1.630683e-005,1.240803e-004
1.663096e-005,1.373696e-004
3.526847e-005,1.511452e-004
6.346784e-005,1.633001e-004
8.680524e-005,1.746447e-004
9.879808e-005,1.827479e-004
1.018773e-004,1.850168e-004
1.017153e-004,1.843686e-004
9.896015e-005,1.832341e-004
9.118101e-005,1.798307e-004
8.210535e-005,1.726999e-004
7.675720e-005,1.633001e-004
7.691926e-005,1.527658e-004
8.518459e-005,1.441764e-004
1.023635e-004,1.398006e-004
1.219734e-004,1.363972e-004
1.370455e-004,1.318594e-004
1.406109e-004,1.269974e-004
1.273216e-004,1.201907e-004
1.047945e-004,1.078737e-004
9.101894e-005,8.631905e-005
9.847395e-005,6.200925e-005
1.232699e-004,4.628891e-005
1.503349e-004,4.450620e-005
1.623277e-004,5.179914e-005
1.540623e-004,6.071273e-005
1.347766e-004,6.265751e-005
1.088461e-004,5.536457e-005
7.594687e-005,4.337174e-005
3.575467e-005,3.073064e-005
-5.896120e-006,1.808955e-005
-4.074016e-005,1.014835e-005
-6.553616e-005,7.717366e-006
-8.514606e-005,5.772582e-006
-1.050801e-004,5.864920e-007
-1.263107e-004,-1.221667e-005
-1.473791e-004,-3.101625e-005
-1.757406e-004,-5.224680e-005
-2.170672e-004,-7.201877e-005
-2.676316e-004,-8.968389e-005
-3.172236e-004,-1.044318e-004
-3.538503e-004,-1.109144e-004
-3.642225e-004,-1.101041e-004
-3.426678e-004,-1.079973e-004
-2.950206e-004,-1.088076e-004
-2.360289e-004,-1.083214e-004
-1.781716e-004,-1.049180e-004
-1.311726e-004,-1.015147e-004
-9.989401e-005,-1.042698e-004
-8.741498e-005,-1.122110e-004
-8.887356e-005,-1.217728e-004
-9.324933e-005,-1.285796e-004
-9.211487e-005,-1.261486e-004
-8.498399e-005,-1.123730e-004
-7.526008e-005,-8.741498e-005
-6.942573e-005,-5.872941e-005
-6.942573e-005,-3.620233e-005
-7.137051e-005,-2.631635e-005
-6.456377e-005,-2.631635e-005
-4.300908e-005,-3.085418e-005
-2.654814e-006,-3.360929e-005
4.888196e-005,-3.150244e-005
1.020394e-004,-2.501983e-005
1.509831e-004,-1.448558e-005
1.897167e-004,-2.168618e-006
2.128921e-004,9.338019e-006
2.179161e-004,1.825161e-005
2.099749e-004,2.619281e-005
1.936063e-004,3.510641e-005
1.696206e-004,4.628891e-005
1.417454e-004,5.747142e-005
1.177597e-004,6.541262e-005
1.085220e-004,7.286763e-005
1.120874e-004,8.161915e-005
1.197045e-004,9.247754e-005
1.248906e-004,1.062531e-004
1.284560e-004,1.205148e-004
1.376938e-004,1.310491e-004
1.514693e-004,1.365593e-004
1.613553e-004,1.375317e-004
1.563313e-004,1.359110e-004
1.372076e-004,1.339663e-004
1.133840e-004,1.316974e-004
9.458438e-005,1.269974e-004
8.810177e-005,1.190562e-004
9.912221e-005,1.101427e-004
1.261871e-004,1.070634e-004
1.602208e-004,1.132219e-004
1.952270e-004,1.263492e-004
2.234263e-004,1.381800e-004
2.378501e-004,1.451488e-004
2.362295e-004,1.441764e-004
2.169437e-004,1.323456e-004
1.786963e-004,1.120874e-004
1.281319e-004,9.199134e-005
7.805372e-005,7.724339e-005
3.786152e-005,6.865393e-005
8.851824e-006,6.687121e-005
-1.156841e-005,6.849186e-005
-2.437157e-005,6.995045e-005
-3.879538e-005,6.265751e-005
-6.132246e-005,4.596478e-005
-9.324933e-005,2.635488e-005
-1.292278e-004,9.986281e-006
-1.600202e-004,-2.006553e-006
-1.746061e-004,-1.270286e-005
-1.684476e-004,-2.226472e-005
-1.399241e-004,-2.858527e-005
-9.859748e-005,-2.874733e-005
-6.116039e-005,-2.420950e-005
-3.458168e-005,-2.210265e-005
-1.983374e-005,-2.372331e-005
-1.480971e-005,-2.842320e-005
-1.626830e-005,-3.296103e-005
-2.761287e-005,-3.895745e-005
-5.565017e-005,-4.657452e-005
-9.568031e-005,-5.370539e-005
-1.394379e-004,-5.889148e-005
-1.733096e-004,-6.261898e-005
-1.882196e-004,-6.634648e-005
-1.823853e-004,-7.153257e-005
-1.665028e-004,-7.720486e-005
-1.498101e-004,-7.979791e-005
-1.357104e-004,-7.963584e-005
-1.217728e-004,-7.866345e-005
-1.089697e-004,-7.850138e-005
-9.940781e-005,-7.769106e-005
-9.162867e-005,-7.526008e-005
-7.866345e-005,-6.861539e-005
-6.099833e-005,-5.840528e-005
-4.138842e-005,-4.770897e-005
-2.696461e-005,-3.782299e-005
-2.518189e-005,-3.377136e-005
-3.539201e-005,-3.960571e-005
-4.932962e-005,-5.289507e-005
-5.905355e-005,-6.715681e-005
-5.905355e-005,-7.704279e-005
-4.706071e-005,-7.914964e-005
-2.518189e-005,-7.671866e-005
3.179537e-006,-7.266703e-005
3.186510e-005,-6.569822e-005
5.601284e-005,-5.662256e-005
8.080883e-005,-4.317115e-005
1.078737e-004,-3.036798e-005
1.359110e-004,-1.918548e-005
1.543865e-004,-7.030578e-006
1.500107e-004,7.231170e-006
1.265113e-004,2.408596e-005
9.409818e-005,4.110282e-005
5.698522e-005,5.763349e-005
1.792748e-005,7.367795e-005
-1.383732e-005,8.810177e-005
-3.134038e-005,9.814982e-005
-3.053005e-005,1.069013e-004
-9.137427e-006,1.137081e-004
3.186510e-005,1.200286e-004
8.502253e-005,1.260251e-004
1.409351e-004,1.333180e-004
1.940925e-004,1.425557e-004
2.365536e-004,1.482280e-004
2.736666e-004,1.492004e-004
3.089969e-004,1.493625e-004
3.371962e-004,1.535762e-004
3.516200e-004,1.624898e-004
3.559958e-004,1.722137e-004
3.542131e-004,1.744826e-004
3.499994e-004,1.696206e-004
3.430306e-004,1.603829e-004
3.347652e-004,1.522796e-004
3.266619e-004,1.500107e-004
3.229345e-004,1.539003e-004
3.242310e-004,1.613553e-004
3.276344e-004,1.683241e-004
3.268240e-004,1.712413e-004
3.153174e-004,1.668655e-004
2.884145e-004,1.555210e-004
2.461155e-004,1.414213e-004
1.966855e-004,1.260251e-004
1.530900e-004,1.114392e-004
1.222976e-004,1.000946e-004
1.043083e-004,9.539470e-005
8.956036e-005,9.620504e-005
7.157111e-005,9.555677e-005
5.277153e-005,8.891209e-005
3.769945e-005,7.708133e-005
2.570662e-005,6.071273e-005
1.014835e-005,4.223728e-005
-1.513384e-005,2.457216e-005
-4.787104e-005,9.986281e-006
-8.255302e-005,1.002961e-007
-1.143178e-004,-7.678839e-006
-1.426792e-004,-1.529591e-005
-1.710407e-004,-2.210265e-005
-1.997262e-004,-2.696461e-005
-2.298704e-004,-3.198864e-005
-2.549905e-004,-4.333321e-005
-2.661730e-004,-5.986387e-005
-2.596904e-004,-7.493595e-005
-2.365151e-004,-8.514606e-005
-2.073433e-004,-9.179074e-005
-1.830335e-004,-9.568031e-005
-1.713648e-004,-9.600444e-005
-1.770371e-004,-9.405965e-005
-2.002124e-004,-9.389759e-005
-2.358668e-004,-9.940781e-005
-2.736280e-004,-1.070249e-004
-2.971275e-004,-1.114006e-004
-3.008550e-004,-1.092938e-004
-2.883759e-004,-1.047560e-004
-2.632558e-004,-1.007043e-004
-2.276015e-004,-9.827335e-005
-1.843300e-004,-9.778715e-005
-1.438137e-004,-9.908367e-005
-1.253383e-004,-9.908367e-005
-1.344139e-004,-9.778715e-005
-1.684476e-004,-9.341139e-005
-2.177155e-004,-8.320128e-005
-2.682799e-004,-6.715681e-005
-3.134961e-004,-4.787104e-005
-3.467195e-004,-2.696461e-005
-3.595226e-004,-8.489166e-006
-3.441264e-004,5.610517e-006
-2.997205e-004,1.387585e-005
-2.404046e-004,1.338965e-005
-1.794681e-004,9.824215e-006
-1.237176e-004,1.193106e-005
-6.796714e-005,2.635488e-005
-2.006553e-006,5.034055e-005
8.356394e-005,7.610894e-005
1.895547e-004,9.766362e-005
2.987867e-004,1.159770e-004
3.879227e-004,1.300767e-004
4.475628e-004,1.386662e-004
4.827309e-004,1.423936e-004
5.059062e-004,1.433661e-004
5.227611e-004,1.438522e-004
5.311884e-004,1.453108e-004
5.282713e-004,1.475797e-004
5.119027e-004,1.438522e-004
4.849998e-004,1.331559e-004
4.521006e-004,1.197045e-004
4.128807e-004,1.083599e-004
3.593992e-004,1.023635e-004
2.876042e-004,9.993253e-005
2.028440e-004,9.977047e-005
1.239182e-004,1.046324e-004
7.416415e-005,1.154908e-004
6.978839e-005,1.302388e-004
1.070634e-004,1.466074e-004
1.645966e-004,1.628139e-004
2.216436e-004,1.754550e-004
2.681563e-004,1.811273e-004
3.000832e-004,1.764274e-004
3.133726e-004,1.613553e-004
3.010556e-004,1.433661e-004
2.574601e-004,1.281319e-004
1.929580e-004,1.163011e-004
1.234320e-004,1.033359e-004
6.265751e-005,8.793970e-005
1.598270e-005,7.221937e-005
-1.902341e-005,5.795762e-005
-4.625038e-005,4.288554e-005
-7.072225e-005,2.748934e-005
-9.568031e-005,1.403791e-005
-1.253383e-004,4.476060e-006
-1.652063e-004,-2.330684e-006
-2.165810e-004,-6.544382e-006
-2.736280e-004,-9.785688e-006
-3.243544e-004,-1.140634e-005
-3.572537e-004,-1.205460e-005
-3.682741e-004,-1.805102e-005
-3.613053e-004,-2.939559e-005
-3.485022e-004,-4.138842e-005
-3.420196e-004,-4.868137e-005
-3.486642e-004,-4.981582e-005
-3.666535e-004,-4.560212e-005
-3.880461e-004,-4.317115e-005
-4.002010e-004,-5.143648e-005
-3.930701e-004,-7.120844e-005
-3.632501e-004,-9.827335e-005
-3.130099e-004,-1.229073e-004
-2.467252e-004,-1.383035e-004
-1.690959e-004,-1.412206e-004
-9.065628e-005,-1.355484e-004
-2.356124e-005,-1.274451e-004
2.846173e-005,-1.211246e-004
6.800567e-005,-1.164247e-004
9.863601e-005,-1.146419e-004
1.245665e-004,-1.139937e-004
1.464453e-004,-1.141558e-004
1.603829e-004,-1.146419e-004
1.587623e-004,-1.120489e-004
1.410971e-004,-1.041077e-004
1.180839e-004,-9.276313e-005
9.977047e-005,-8.336335e-005
8.599492e-005,-8.125649e-005
7.886404e-005,-8.174268e-005
8.194328e-005,-7.736692e-005
9.733949e-005,-6.667062e-005
1.240803e-004,-5.078821e-005
1.590864e-004,-2.971972e-005
1.905271e-004,-8.002969e-006
2.161334e-004,1.112074e-005
2.367157e-004,2.522042e-005
2.521119e-004,3.478228e-005
2.629703e-004,4.272347e-005
2.683184e-004,5.196120e-005
2.626462e-004,5.893001e-005
2.435224e-004,6.006447e-005
2.143507e-004,5.374392e-005
1.893926e-004,4.628891e-005
1.759412e-004,4.564065e-005
1.749688e-004,5.520250e-005
1.780480e-004,7.205730e-005
1.777239e-004,9.134307e-005
1.692965e-004,1.112771e-004
1.501728e-004,1.274836e-004
1.292664e-004,1.351007e-004
1.180839e-004,1.325077e-004
1.287802e-004,1.287802e-004
1.658931e-004,1.299146e-004
2.179161e-004,1.359110e-004
2.619979e-004,1.451488e-004
2.858215e-004,1.555210e-004
2.898731e-004,1.657311e-004
2.814457e-004,1.707551e-004
2.715597e-004,1.675138e-004
2.679943e-004,1.594105e-004
2.739907e-004,1.516314e-004
2.940868e-004,1.466074e-004
3.232586e-004,1.430419e-004
3.452995e-004,1.386662e-004
3.462718e-004,1.299146e-004
3.218000e-004,1.161391e-004
2.770700e-004,1.041462e-004
2.258573e-004,9.912221e-005
1.752929e-004,1.009049e-004
1.232699e-004,1.060910e-004
6.022653e-005,1.072255e-004
-2.534396e-005,1.036600e-004
-1.378173e-004,9.588091e-005
-2.569353e-004,8.956036e-005
-3.544986e-004,8.648112e-005
-4.143007e-004,8.161915e-005
-4.378002e-004,7.157111e-005
-4.449310e-004,5.698522e-005
-4.496309e-004,4.061663e-005
-4.559515e-004,2.586868e-005
-4.651892e-004,1.225520e-005
-4.742648e-004,-2.330684e-006
-4.768579e-004,-1.707863e-005
-4.668098e-004,-2.728874e-005
-4.434724e-004,-3.328516e-005
-4.117076e-004,-4.041603e-005
-3.797808e-004,-5.451572e-005
-3.541745e-004,-7.526008e-005
-3.297026e-004,-9.503204e-005
-2.993964e-004,-1.084835e-004
-2.598524e-004,-1.141558e-004
-2.147983e-004,-1.136696e-004
-1.720131e-004,-1.076731e-004
-1.326312e-004,-9.778715e-005
-9.486997e-005,-8.935975e-005
-5.937768e-005,-8.790117e-005
-2.842320e-005,-9.260107e-005
-5.734056e-006,-1.016767e-004
1.014835e-005,-1.118868e-004
2.133085e-005,-1.188556e-004
2.862379e-005,-1.185315e-004
3.154097e-005,-1.126972e-004
2.992031e-005,-1.037836e-004
2.554455e-005,-9.324933e-005
2.116879e-005,-8.287715e-005
1.841368e-005,-7.542214e-005
1.419998e-005,-7.201877e-005
5.124321e-006,-7.104638e-005
-3.303076e-006,-6.748094e-005
-5.247859e-006,-5.937768e-005
4.151929e-006,-4.738484e-005
2.149292e-005,-3.441962e-005
4.223728e-005,-2.226472e-005
6.638502e-005,-1.318906e-005
9.669123e-005,-1.108221e-005
1.347766e-004,-1.092015e-005
1.697827e-004,-6.220252e-006
1.923098e-004,1.095867e-005
2.013854e-004,3.721326e-005
2.005751e-004,6.557468e-005
1.944166e-004,8.631905e-005
1.908512e-004,9.912221e-005
1.940925e-004,1.015532e-004
2.047888e-004,9.426025e-005
2.208333e-004,8.064677e-005
2.367157e-004,7.416415e-005
2.464396e-004,8.080883e-005
2.462775e-004,9.814982e-005
2.396328e-004,1.201907e-004
2.333123e-004,1.404489e-004
2.384984e-004,1.564933e-004
2.561635e-004,1.678379e-004
2.795009e-004,1.780480e-004
3.055935e-004,1.846927e-004
3.318480e-004,1.889064e-004
3.538890e-004,1.924718e-004
3.603715e-004,1.987924e-004
3.470822e-004,2.062474e-004
3.171001e-004,2.101370e-004
2.767458e-004,2.078681e-004
2.308813e-004,1.970097e-004
1.801549e-004,1.799928e-004
1.237561e-004,1.633001e-004
6.525056e-005,1.539003e-004
1.403791e-005,1.500107e-004
-1.707863e-005,1.469315e-004
-2.388537e-005,1.432040e-004
-1.432352e-005,1.386662e-004
5.610517e-006,1.320215e-004
3.008238e-005,1.248906e-004
4.855783e-005,1.141943e-004
4.969229e-005,1.020394e-004
2.522042e-005,9.215340e-005
-2.113026e-005,8.502253e-005
-7.655660e-005,7.610894e-005
-1.230693e-004,6.476436e-005
-1.486757e-004,5.260946e-005
-1.532135e-004,3.850978e-005
-1.480274e-004,2.376183e-005
-1.412206e-004,1.257933e-005
-1.355484e-004,8.527692e-006
-1.282554e-004,9.013889e-006
-1.114006e-004,1.257933e-005
-8.854943e-005,1.452411e-005
-6.796714e-005,1.338965e-005
-5.840528e-005,7.231170e-006
-6.926366e-005,-6.544382e-006
-1.029732e-004,-2.437157e-005
-1.553203e-004,-4.333321e-005
-2.130156e-004,-5.905355e-005
-2.634179e-004,-6.942573e-005
-3.008550e-004,-7.574627e-005
-3.230579e-004,-8.303922e-005
-3.256510e-004,-9.098041e-005
-3.011791e-004,-9.956988e-005
-2.528836e-004,-1.068628e-004
-1.958367e-004,-1.107524e-004
-1.498101e-004,-1.133454e-004
-1.313347e-004,-1.190177e-004
-1.499722e-004,-1.295519e-004
-2.008607e-004,-1.391138e-004
-2.681178e-004,-1.436516e-004
-3.324577e-004,-1.400862e-004
-3.822118e-004,-1.323071e-004
-4.019837e-004,-1.211246e-004
-3.826980e-004,-1.097800e-004
-3.227338e-004,-1.005423e-004
-2.347323e-004,-9.535618e-005
-1.426792e-004,-9.681477e-005
-6.829127e-005,-1.002181e-004
-1.626830e-005,-9.956988e-005
1.727922e-005,-9.179074e-005
4.142696e-005,-7.817725e-005
6.006447e-005,-6.116039e-005
7.708133e-005,-4.268495e-005
9.863601e-005,-2.275091e-005
1.273216e-004,-2.330684e-006
1.613553e-004,1.954813e-005
1.983062e-004,4.207521e-005
2.274780e-004,6.330578e-005
2.263435e-004,7.935024e-005
1.748067e-004,9.069481e-005
7.789165e-005,9.798775e-005
-2.615429e-005,1.026876e-004
-8.320128e-005,1.044704e-004
-5.937768e-005,1.020394e-004
3.040651e-005,9.750156e-005
1.313732e-004,9.182927e-005
1.927960e-004,9.020862e-005
1.947408e-004,9.588091e-005
1.514693e-004,1.088461e-004
9.231547e-005,1.237561e-004
5.034055e-005,1.362352e-004
4.985435e-005,1.467694e-004
9.069481e-005,1.550348e-004
1.449867e-004,1.594105e-004
1.845306e-004,1.587623e-004
1.968476e-004,1.542244e-004
1.911753e-004,1.483901e-004
1.829100e-004,1.422316e-004
1.842065e-004,1.329939e-004
2.017096e-004,1.222976e-004
2.349330e-004,1.128978e-004
2.767458e-004,1.078737e-004
3.158036e-004,1.062531e-004
3.422202e-004,1.043083e-004
3.465960e-004,1.004187e-004
3.263378e-004,9.717743e-005
2.872801e-004,9.539470e-005
2.337985e-004,9.215340e-005
1.694586e-004,8.729144e-005
9.831188e-005,7.935024e-005
3.105477e-005,7.043665e-005
-2.550602e-005,6.006447e-005
-6.553616e-005,4.742337e-005
-9.098041e-005,3.170304e-005
-1.065387e-004,1.727922e-005
-1.110765e-004,9.662150e-006
-1.007043e-004,9.824215e-006
-7.250496e-005,1.533444e-005
-2.923353e-005,2.214118e-005
2.068259e-005,2.813760e-005
6.768154e-005,2.700314e-005
1.083599e-004,1.484824e-005
1.451488e-004,-7.030578e-006
1.770756e-004,-3.296103e-005
1.981441e-004,-5.694670e-005
2.010613e-004,-7.477388e-005
1.880961e-004,-8.498399e-005
1.642725e-004,-9.081835e-005
1.401247e-004,-9.503204e-005
1.200286e-004,-1.011905e-004
1.025256e-004,-1.096179e-004
8.664318e-005,-1.178833e-004
6.914012e-005,-1.214487e-004
4.985435e-005,-1.165867e-004
2.797553e-005,-1.028112e-004
1.072688e-006,-8.514606e-005
-3.215070e-005,-6.602235e-005
-7.282909e-005,-4.868137e-005
-1.225832e-004,-3.766092e-005
-1.814128e-004,-3.198864e-005
-2.460769e-004,-2.988179e-005
-3.128478e-004,-3.425755e-005
-3.814014e-004,-4.122636e-005
-4.425001e-004,-4.333321e-005
-4.698891e-004,-4.122636e-005
-4.331002e-004,-3.928157e-005
-3.261372e-004,-4.252288e-005
-1.783336e-004,-4.819517e-005
-3.182657e-005,-5.354332e-005
8.777764e-005,-5.646050e-005
1.741585e-004,-5.548811e-005
2.336365e-004,-4.819517e-005
2.739907e-004,-3.231277e-005
3.020280e-004,-1.351319e-005
3.172622e-004,3.017472e-006
3.148312e-004,1.598270e-005
3.021901e-004,2.894792e-005
2.879283e-004,4.369587e-005
2.683184e-004,6.233338e-005
2.278021e-004,8.664318e-005
1.576278e-004,1.109530e-004
7.124698e-005,1.260251e-004
-4.113403e-006,1.291043e-004
-4.479180e-005,1.266733e-004
-4.057810e-005,1.295905e-004
1.002961e-007,1.398006e-004
6.055066e-005,1.535762e-004
1.171115e-004,1.675138e-004
1.529279e-004,1.777239e-004
1.641104e-004,1.785342e-004
1.537382e-004,1.688103e-004
1.391524e-004,1.530900e-004
1.422316e-004,1.381800e-004
1.765894e-004,1.295905e-004
2.359054e-004,1.291043e-004
3.028383e-004,1.363972e-004
3.634508e-004,1.530900e-004
4.086671e-004,1.739964e-004
4.388112e-004,1.882582e-004
4.530729e-004,1.879340e-004
4.464283e-004,1.765894e-004
4.166082e-004,1.598967e-004
3.649094e-004,1.436902e-004
2.914938e-004,1.307250e-004
1.918236e-004,1.195424e-004
6.881599e-005,1.049566e-004
-6.634648e-005,8.437427e-005
-1.925954e-004,5.974033e-005
-2.896725e-004,3.818565e-005
-3.433161e-004,2.359977e-005
-3.515814e-004,1.614476e-005
-3.275957e-004,1.517237e-005
-2.938862e-004,1.549650e-005
-2.723315e-004,1.825161e-005
-2.721694e-004,2.424803e-005
-2.843243e-004,2.959619e-005
-2.955068e-004,3.397195e-005
-2.982619e-004,3.737532e-005
-2.943724e-004,3.867184e-005
-2.875656e-004,3.397195e-005
-2.755728e-004,2.052053e-005
-2.525595e-004,-3.141010e-006
-2.188499e-004,-2.939559e-005
-1.799543e-004,-5.046408e-005
-1.389517e-004,-6.407757e-005
-9.697683e-005,-7.169464e-005
-4.754691e-005,-7.282909e-005
1.079661e-005,-6.958779e-005
6.816773e-005,-6.521203e-005
1.120874e-004,-6.197072e-005
1.432040e-004,-6.213279e-005
1.647587e-004,-6.472583e-005
1.793446e-004,-6.667062e-005
1.853410e-004,-6.829127e-005
1.790204e-004,-7.428769e-005
1.569795e-004,-8.887356e-005
1.141943e-004,-1.146419e-004
5.001642e-005,-1.485136e-004
-2.647842e-005,-1.848162e-004
-1.102662e-004,-2.169052e-004
-2.016710e-004,-2.358668e-004
-2.904828e-004,-2.345703e-004
-3.611433e-004,-2.131776e-004
-4.036044e-004,-1.806025e-004
-4.167317e-004,-1.446240e-004
-4.002010e-004,-1.118868e-004
-3.570916e-004,-8.984595e-005
-2.919414e-004,-8.368748e-005
-2.113949e-004,-8.919769e-005
-1.323071e-004,-9.924574e-005
-6.796714e-005,-1.047560e-004
-2.615429e-005,-9.778715e-005
-1.270286e-005,-7.542214e-005
-2.971972e-005,-4.625038e-005
-6.569822e-005,-1.788895e-005
-1.037836e-004,5.448452e-006
-1.271210e-004,1.906194e-005
-1.246900e-004,2.230325e-005
-9.649064e-005,1.679302e-005
-4.851930e-005,7.555301e-006
1.403791e-005,3.503668e-006
8.291568e-005,1.257933e-005
1.466074e-004,3.235129e-005
2.015475e-004,5.666109e-005
2.488706e-004,7.999851e-005
2.854973e-004,9.717743e-005
3.145071e-004,1.091703e-004
3.393030e-004,1.218114e-004
3.577785e-004,1.367214e-004
3.636129e-004,1.547106e-004
3.509718e-004,1.723757e-004
3.171001e-004,1.833962e-004
2.585945e-004,1.856651e-004
1.833962e-004,1.827479e-004
1.193804e-004,1.791825e-004
1.013911e-004,1.795066e-004
1.462832e-004,1.893926e-004
2.483844e-004,2.114335e-004
3.775505e-004,2.410915e-004
4.905101e-004,2.726942e-004
5.498260e-004,2.979764e-004
5.363746e-004,3.119140e-004
4.555039e-004,3.122381e-004
3.294171e-004,2.973281e-004
1.874478e-004,2.697770e-004
5.698522e-005,2.397949e-004
-4.236082e-005,2.180782e-004
-1.041077e-004,2.077060e-004
-1.339277e-004,2.072198e-004
-1.391138e-004,2.065715e-004
-1.264727e-004,1.971717e-004
-1.052422e-004,1.782101e-004
-8.579432e-005,1.553589e-004
-7.639453e-005,1.365593e-004
-7.914964e-005,1.315353e-004
-8.449780e-005,1.398006e-004
-8.125649e-005,1.495245e-004
-6.180866e-005,1.521176e-004
-2.923353e-005,1.427178e-004
5.448452e-006,1.188942e-004
2.635488e-005,8.323981e-005
2.538249e-005,3.737532e-005
-2.978945e-006,-1.869928e-005
-5.354332e-005,-8.530812e-005
-1.102662e-004,-1.583996e-004
-1.515928e-004,-2.258187e-004
-1.650443e-004,-2.734659e-004
-1.566169e-004,-2.990722e-004
-1.491618e-004,-3.107410e-004
-1.671511e-004,-3.167374e-004
-2.216050e-004,-3.228959e-004
-2.958309e-004,-3.306750e-004
-3.510952e-004,-3.355370e-004
-3.569296e-004,-3.322956e-004
-3.170615e-004,-3.186821e-004
-2.629317e-004,-2.966413e-004
-2.225774e-004,-2.669833e-004
-1.987538e-004,-2.293842e-004
-1.689338e-004,-1.875713e-004
-1.144799e-004,-1.452723e-004
-3.960571e-005,-1.060525e-004
3.413401e-005,-7.347736e-005
8.226741e-005,-4.770897e-005
9.960841e-005,-2.971972e-005
9.960841e-005,-1.934754e-005
9.571884e-005,-1.918548e-005
9.814982e-005,-2.842320e-005
1.195424e-004,-4.462973e-005
1.676758e-004,-6.035007e-005
2.308813e-004,-6.877746e-005
2.775562e-004,-6.845333e-005
2.845250e-004,-6.197072e-005
2.525981e-004,-5.013995e-005
1.929580e-004,-3.328516e-005
1.297526e-004,-1.562004e-005
8.550872e-005,-1.034161e-006
6.962632e-005,9.013889e-006
7.254349e-005,1.549650e-005
7.578480e-005,2.246531e-005
6.508849e-005,3.040651e-005
4.790957e-005,3.980630e-005
4.337174e-005,5.147500e-005
5.828175e-005,6.362991e-005
8.988449e-005,7.400208e-005
1.359110e-004,8.097089e-005
1.918236e-004,8.421220e-005
2.461155e-004,8.437427e-005
2.829043e-004,8.469840e-005
2.921420e-004,8.648112e-005
2.749631e-004,9.004655e-005
2.401191e-004,9.652917e-005
1.910133e-004,1.052807e-004
1.318594e-004,1.145184e-004
7.238143e-005,1.231079e-004
2.376183e-005,1.349386e-004
-1.520357e-006,1.551968e-004
1.031041e-005,1.829100e-004
5.730935e-005,2.107852e-004
1.206769e-004,2.297469e-004
1.801549e-004,2.312055e-004
2.166196e-004,2.175920e-004
2.171058e-004,1.968476e-004
1.791825e-004,1.777239e-004
1.159770e-004,1.660552e-004
4.888196e-005,1.626518e-004
-6.058186e-006,1.663793e-004
-4.138842e-005,1.748067e-004
-5.629844e-005,1.829100e-004
-5.386745e-005,1.842065e-004
-3.847125e-005,1.683241e-004
-8.489166e-006,1.419075e-004
3.883391e-005,1.185701e-004
9.442231e-005,1.077117e-004
1.375317e-004,1.086841e-004
1.461212e-004,1.151667e-004
1.009049e-004,1.210010e-004
-6.176923e-008,1.240803e-004
-1.263107e-004,1.284560e-004
-2.308428e-004,1.354248e-004
-2.818933e-004,1.457970e-004
-2.770314e-004,1.569795e-004
-2.365151e-004,1.629760e-004
-1.830335e-004,1.626518e-004
-1.323071e-004,1.529279e-004
-8.935975e-005,1.357490e-004
-5.435365e-005,1.109530e-004
-2.501983e-005,7.983644e-005
-3.951337e-006,5.179914e-005
7.069105e-006,3.543054e-005
3.665733e-006,3.137890e-005
-1.918548e-005,3.786152e-005
-5.856735e-005,5.163707e-005
-1.062146e-004,6.460230e-005
-1.572651e-004,7.027458e-005
-2.162569e-004,6.751948e-005
-2.843243e-004,5.617490e-005
-3.517435e-004,4.045456e-005
-4.070078e-004,2.376183e-005
-4.442827e-004,7.393236e-006
-4.648651e-004,-9.137427e-006
-4.635685e-004,-2.793700e-005
-4.241867e-004,-5.078821e-005
-3.203028e-004,-7.817725e-005
-1.430034e-004,-1.091317e-004
7.400208e-005,-1.436516e-004
2.686426e-004,-1.762268e-004
3.913261e-004,-1.979435e-004
4.289252e-004,-2.070192e-004
3.934329e-004,-2.037779e-004
3.127243e-004,-1.938919e-004
2.143507e-004,-1.812508e-004
1.235941e-004,-1.669890e-004
6.233338e-005,-1.457585e-004
4.045456e-005,-1.122110e-004
5.909208e-005,-6.456377e-005
1.127357e-004,-1.043395e-005
1.942546e-004,3.948217e-005
2.832284e-004,7.529860e-005
3.545372e-004,8.923623e-005
3.890571e-004,7.853991e-005
3.801436e-004,4.888196e-005
3.370341e-004,1.209313e-005
2.820940e-004,-1.610624e-005
2.372019e-004,-2.469570e-005
2.164575e-004,-9.137427e-006
2.258573e-004,2.246531e-005
2.553532e-004,5.730935e-005
2.767458e-004,8.745350e-005
2.370398e-004,1.137081e-004
9.247754e-005,1.360731e-004
-1.277692e-004,1.513072e-004
-3.201407e-004,1.547106e-004
-3.818876e-004,1.457970e-004
-2.840002e-004,1.291043e-004
-8.595638e-005,1.065772e-004
1.080358e-004,8.372601e-005
2.138645e-004,6.362991e-005
2.051129e-004,5.082674e-005
1.047945e-004,4.709924e-005
-4.236082e-005,4.758544e-005
-2.003745e-004,4.564065e-005
-3.460712e-004,3.267542e-005
-4.697270e-004,8.851824e-006
-5.689110e-004,-1.788895e-005
-6.405439e-004,-3.587821e-005
-6.799257e-004,-3.847125e-005
-6.813843e-004,-2.356124e-005
-6.407059e-004,4.962256e-006
-5.601594e-004,3.478228e-005
-4.465517e-004,5.568870e-005
-3.144685e-004,6.152305e-005
-1.862748e-004,5.017848e-005
-8.303922e-005,2.619281e-005
-1.643037e-005,-8.720959e-007
2.408596e-005,-1.610624e-005
5.730935e-005,-1.432352e-005
9.636710e-005,-1.196227e-006
1.482280e-004,1.193106e-005
2.049509e-004,1.468618e-005
2.545429e-004,1.720949e-006
2.864697e-004,-2.258885e-005
2.936006e-004,-4.446767e-005
2.668598e-004,-5.257093e-005
2.068957e-004,-4.608832e-005
1.268354e-004,-2.842320e-005
4.369587e-005,-4.761664e-006
-2.356124e-005,1.614476e-005
-5.808115e-005,2.765140e-005
-4.722278e-005,2.748934e-005
9.338019e-006,1.760335e-005
8.729144e-005,1.072688e-006
1.501728e-004,-1.594417e-005
1.754550e-004,-3.182657e-005
1.702689e-004,-4.868137e-005
1.551968e-004,-6.893953e-005
1.438522e-004,-9.049421e-005
1.321835e-004,-1.083214e-004
1.148425e-004,-1.209625e-004
1.010670e-004,-1.250141e-004
1.005808e-004,-1.214487e-004
1.231079e-004,-1.128592e-004
1.738343e-004,-1.020008e-004
2.454672e-004,-9.373552e-005
3.218000e-004,-8.482193e-005
3.801436e-004,-7.412562e-005
4.063981e-004,-6.180866e-005
3.973225e-004,-5.305713e-005
3.509718e-004,-5.176061e-005
2.697770e-004,-5.662256e-005
1.615174e-004,-6.456377e-005
3.445814e-005,-7.623246e-005
-8.482193e-005,-8.563225e-005
-1.626133e-004,-9.179074e-005
-1.759026e-004,-9.033215e-005
-1.284175e-004,-8.093236e-005
-4.300908e-005,-6.310517e-005
6.152305e-005,-3.685060e-005
1.752929e-004,4.244267e-007
2.929524e-004,4.304761e-005
4.021844e-004,7.902610e-005
4.746277e-004,9.717743e-005
4.709002e-004,9.701536e-005
3.765781e-004,8.502253e-005
2.402811e-004,7.270556e-005
1.522796e-004,6.638502e-005
1.739964e-004,6.832980e-005
3.004074e-004,7.999851e-005
4.660382e-004,1.010670e-004
5.890459e-004,1.292664e-004
6.180556e-004,1.566554e-004
5.644119e-004,1.775618e-004
4.819206e-004,1.879340e-004
4.320045e-004,1.871237e-004
4.467524e-004,1.785342e-004
4.982892e-004,1.663793e-004
5.047718e-004,1.511452e-004
3.929467e-004,1.329939e-004
1.586002e-004,1.169494e-004
-1.212866e-004,1.056048e-004
-3.478539e-004,9.782569e-005
-4.645409e-004,9.393612e-005
-4.732924e-004,9.393612e-005
-4.219178e-004,9.847395e-005
-3.716775e-004,1.060910e-004
-3.737844e-004,1.153287e-004
-4.585445e-004,1.263492e-004
-6.095894e-004,1.396385e-004
-7.724650e-004,1.509831e-004
-8.922312e-004,1.537382e-004
-9.413370e-004,1.430419e-004
-9.179996e-004,1.190562e-004
-8.325911e-004,8.810177e-005
-7.045596e-004,5.585077e-005
-5.604835e-004,2.765140e-005
-4.235384e-004,7.069105e-006
-3.050687e-004,-5.571990e-006
-2.013469e-004,-1.351319e-005
-1.037836e-004,-2.275091e-005
-1.464765e-005,-3.393342e-005
5.131294e-005,-4.527799e-005
7.254349e-005,-5.532604e-005
4.661304e-005,-6.407757e-005
-2.006553e-006,-7.137051e-005
-3.636440e-005,-7.574627e-005
-3.344723e-005,-7.363943e-005
8.365628e-006,-6.391550e-005
7.140904e-005,-5.192267e-005
1.271595e-004,-4.041603e-005
1.555210e-004,-3.166451e-005
1.563313e-004,-2.696461e-005
1.422316e-004,-3.150244e-005
1.261871e-004,-4.479180e-005
1.128978e-004,-6.067420e-005
1.028497e-004,-7.477388e-005
9.750156e-005,-8.401160e-005
9.555677e-005,-8.692878e-005
8.810177e-005,-8.174268e-005
7.011252e-005,-7.250496e-005
3.996837e-005,-6.197072e-005
1.002961e-007,-5.127441e-005
-4.835724e-005,-4.284701e-005
-1.011905e-004,-3.555408e-005
-1.522411e-004,-2.534396e-005
-2.002124e-004,-1.318906e-005
-2.441321e-004,-4.113403e-006
-2.650386e-004,1.072688e-006
-2.421874e-004,7.231170e-006
-1.707166e-004,1.565857e-005
-6.829127e-005,2.927205e-005
3.850978e-005,4.661304e-005
1.281319e-004,6.865393e-005
1.895547e-004,9.199134e-005
2.172679e-004,1.122495e-004
2.141886e-004,1.266733e-004
1.890685e-004,1.381800e-004
1.576278e-004,1.501728e-004
1.428799e-004,1.658931e-004
1.636242e-004,1.842065e-004
2.240746e-004,2.031682e-004
3.044590e-004,2.162954e-004
3.762539e-004,2.196988e-004
4.222805e-004,2.124059e-004
4.477248e-004,1.936063e-004
4.778690e-004,1.626518e-004
5.378332e-004,1.244044e-004
6.428516e-004,8.469840e-005
7.768797e-004,4.418206e-005
8.909738e-004,3.017472e-006
9.276005e-004,-3.441962e-005
8.460816e-004,-6.197072e-005
6.499824e-004,-7.558420e-005
3.937570e-004,-8.384954e-005
1.616794e-004,-9.260107e-005
2.359977e-005,-1.000561e-004
1.002961e-007,-9.681477e-005
4.985435e-005,-7.574627e-005
1.004187e-004,-4.219875e-005
1.099806e-004,-4.437533e-006
8.486046e-005,3.348575e-005
5.649903e-005,6.784360e-005
4.823370e-005,9.701536e-005
4.985435e-005,1.146805e-004
3.834771e-005,1.192183e-004
1.558884e-006,1.141943e-004
-6.278104e-005,1.062531e-004
-1.467309e-004,9.896015e-005
-2.324634e-004,9.182927e-005
-2.987481e-004,8.745350e-005
-3.366714e-004,8.777764e-005
-3.472056e-004,9.442231e-005
-3.279199e-004,1.000946e-004
-2.791382e-004,9.215340e-005
-2.133397e-004,6.768154e-005
-1.546721e-004,3.137890e-005
-1.255003e-004,-4.761664e-006
-1.352242e-004,-3.377136e-005
-1.739578e-004,-5.305713e-005
-2.152845e-004,-6.472583e-005
-2.295462e-004,-6.942573e-005
-2.031296e-004,-7.493595e-005
-1.396000e-004,-8.563225e-005
-5.743289e-005,-9.811128e-005
1.533444e-005,-1.062146e-004
5.260946e-005,-1.037836e-004
3.834771e-005,-8.401160e-005
-3.053005e-005,-5.046408e-005
-1.353863e-004,-1.124428e-005
-2.358668e-004,2.376183e-005
-2.951827e-004,4.855783e-005
-3.037722e-004,6.427817e-005
-2.718453e-004,7.108491e-005
-2.214430e-004,6.995045e-005
-1.733096e-004,6.492643e-005
-1.447861e-004,6.071273e-005
-1.430034e-004,5.682316e-005
-1.582375e-004,5.552663e-005
-1.705545e-004,5.471631e-005
-1.676373e-004,5.260946e-005
-1.391138e-004,4.645098e-005
-8.174268e-005,3.332369e-005
2.531276e-006,1.387585e-005
1.057669e-004,-2.006553e-006
2.104611e-004,-8.165035e-006
3.015418e-004,-7.840905e-006
3.645853e-004,-7.100305e-007
3.799815e-004,8.527692e-006
3.315239e-004,1.403791e-005
2.172679e-004,1.257933e-005
5.244739e-005,7.069105e-006
-1.310105e-004,-8.720959e-007
-2.921034e-004,-1.075808e-005
-3.886944e-004,-1.626830e-005
-3.971218e-004,-1.318906e-005
-3.217614e-004,-4.437533e-006
-1.878955e-004,7.231170e-006
-2.907146e-005,1.825161e-005
1.308870e-004,3.121684e-005
2.778803e-004,4.742337e-005
4.012120e-004,6.962632e-005
4.888894e-004,9.442231e-005
5.324850e-004,1.193804e-004
5.222749e-004,1.440143e-004
4.358940e-004,1.658931e-004
2.551911e-004,1.798307e-004
-3.951337e-006,1.796687e-004
-2.794623e-004,1.701068e-004
-4.998712e-004,1.579519e-004
-6.334129e-004,1.474177e-004
-7.031010e-004,1.359110e-004
-7.522068e-004,1.197045e-004
-8.014747e-004,9.879808e-005
-8.290258e-004,7.610894e-005
-7.881853e-004,5.244739e-005
-6.497815e-004,3.688912e-005
-4.284004e-004,3.073064e-005
-1.775233e-004,2.619281e-005
4.904402e-005,1.971020e-005
2.052750e-004,1.436204e-005
2.624841e-004,1.403791e-005
2.219677e-004,2.197911e-005
1.193804e-004,4.304761e-005
5.772582e-006,7.756752e-005
-8.190475e-005,1.137081e-004
-1.250141e-004,1.386662e-004
-1.169109e-004,1.407730e-004
-5.646050e-005,1.232699e-004
4.466826e-005,9.912221e-005
1.642725e-004,8.064677e-005
2.795009e-004,7.432621e-005
3.700955e-004,7.918817e-005
4.292493e-004,9.069481e-005
4.616624e-004,1.005808e-004
4.624728e-004,1.038221e-004
4.248736e-004,9.879808e-005
3.483787e-004,8.761557e-005
2.470879e-004,7.448828e-005
1.493625e-004,6.038860e-005
8.372601e-005,4.466826e-005
6.087479e-005,2.732727e-005
7.400208e-005,9.500085e-006
1.057669e-004,-6.868513e-006
1.349386e-004,-2.161646e-005
1.550348e-004,-3.766092e-005
1.705930e-004,-5.581224e-005
1.825859e-004,-7.396356e-005
1.897167e-004,-9.162867e-005
1.940925e-004,-1.105903e-004
1.978200e-004,-1.323071e-004
2.020337e-004,-1.514308e-004
2.072198e-004,-1.608306e-004
2.051129e-004,-1.590478e-004
1.861513e-004,-1.485136e-004
1.470936e-004,-1.334415e-004
8.939829e-005,-1.245279e-004
2.262738e-005,-1.255003e-004
-5.500191e-005,-1.321450e-004
-1.402483e-004,-1.412206e-004
-2.188499e-004,-1.504584e-004
-2.660110e-004,-1.583996e-004
-2.611490e-004,-1.622891e-004
-1.995642e-004,-1.619650e-004
-9.049421e-005,-1.571031e-004
5.698522e-005,-1.430034e-004
2.252090e-004,-1.216107e-004
3.887330e-004,-9.276313e-005
5.261644e-004,-5.824322e-005
6.156246e-004,-2.647842e-005
6.434998e-004,-3.303076e-006
6.046041e-004,8.851824e-006
5.112545e-004,1.241726e-005
3.691231e-004,1.355172e-005
1.801549e-004,1.468618e-005
-3.798505e-005,1.257933e-005
-2.429977e-004,6.420843e-006
-3.859393e-004,-3.303076e-006
-4.374760e-004,-1.464765e-005
-3.987424e-004,-1.967167e-005
-3.008550e-004,-1.318906e-005
-1.836818e-004,4.962256e-006
-7.056019e-005,2.992031e-005
3.737532e-005,5.098881e-005
1.407730e-004,6.217132e-005
2.273159e-004,6.411610e-005
2.837146e-004,6.346784e-005
3.067279e-004,6.330578e-005
3.154794e-004,6.768154e-005
3.388169e-004,7.724339e-005
3.982949e-004,9.652917e-005
4.939134e-004,1.307250e-004
6.141660e-004,1.746447e-004
7.313393e-004,2.203471e-004
8.060515e-004,2.537325e-004
8.086445e-004,2.709115e-004
7.303669e-004,2.738286e-004
5.814288e-004,2.668598e-004
3.892192e-004,2.551911e-004
1.879340e-004,2.428742e-004
1.744129e-005,2.269918e-004
-9.211487e-005,2.049509e-004
-1.316588e-004,1.769136e-004
-1.079973e-004,1.422316e-004
-4.333321e-005,1.038221e-004
2.278944e-005,6.800567e-005
5.439218e-005,3.980630e-005
4.385793e-005,2.295151e-005
1.225520e-005,1.727922e-005
6.258778e-006,2.133085e-005
4.839576e-005,3.121684e-005
1.291043e-004,3.996837e-005
2.112714e-004,4.272347e-005
2.514636e-004,3.559260e-005
2.198609e-004,1.679302e-005
1.090082e-004,-9.785688e-006
-6.359137e-005,-3.652646e-005
-2.663351e-004,-5.872941e-005
-4.648651e-004,-7.201877e-005
-6.277406e-004,-7.639453e-005
-7.278970e-004,-7.396356e-005
-7.599859e-004,-6.310517e-005
-7.419967e-004,-4.560212e-005
-6.993735e-004,-3.036798e-005
-6.476747e-004,-2.939559e-005
-5.919242e-004,-4.738484e-005
-5.275843e-004,-7.801519e-005
-4.493068e-004,-1.123730e-004
-3.553089e-004,-1.402483e-004
-2.525595e-004,-1.535376e-004
-1.493239e-004,-1.512687e-004
-6.083626e-005,-1.336036e-004
7.485573e-007,-1.034594e-004
2.149292e-005,-7.185670e-005
-3.465141e-006,-5.111234e-005
-6.910160e-005,-4.544006e-005
-1.724993e-004,-4.997789e-005
-3.092824e-004,-5.629844e-005
-4.747511e-004,-6.116039e-005
-6.479988e-004,-6.440170e-005
-7.868888e-004,-6.521203e-005
-8.419910e-004,-6.294311e-005
-7.928851e-004,-5.775702e-005
-6.515643e-004,-5.046408e-005
-4.478482e-004,-3.668853e-005
-2.238740e-004,-1.545797e-005
-2.161646e-005,1.112074e-005
1.289422e-004,3.867184e-005
2.265056e-004,6.362991e-005
2.950592e-004,7.740546e-005
3.603715e-004,7.238143e-005
4.362182e-004,4.985435e-005
5.138475e-004,1.971020e-005
5.770530e-004,-1.844488e-006
6.104385e-004,-2.654814e-006
6.021731e-004,1.517237e-005
5.511225e-004,4.126489e-005
4.624728e-004,7.108491e-005
3.509718e-004,1.026876e-004
2.336365e-004,1.302388e-004
1.180839e-004,1.454729e-004
4.638125e-006,1.474177e-004
-1.086455e-004,1.381800e-004
-2.214430e-004,1.281319e-004
-3.128478e-004,1.260251e-004
-3.574158e-004,1.360731e-004
-3.480160e-004,1.566554e-004
-3.070135e-004,1.824238e-004
-2.844864e-004,2.030061e-004
-3.018274e-004,2.119197e-004
-3.241924e-004,2.085163e-004
-3.044204e-004,2.000889e-004
-2.300324e-004,1.957132e-004
-1.389517e-004,1.961994e-004
-7.785312e-005,1.984683e-004
-6.521203e-005,1.945787e-004
-9.649064e-005,1.799928e-004
-1.514308e-004,1.592484e-004
-2.070192e-004,1.404489e-004
-2.523975e-004,1.263492e-004
-2.891863e-004,1.161391e-004
-3.045825e-004,1.146805e-004
-2.643903e-004,1.232699e-004
-1.430034e-004,1.425557e-004
4.920609e-005,1.667035e-004
2.662116e-004,1.882582e-004
4.512903e-004,1.960373e-004
5.658705e-004,1.871237e-004
6.034696e-004,1.624898e-004
5.775391e-004,1.269974e-004
5.112545e-004,8.729144e-005
4.268184e-004,5.131294e-005
3.347652e-004,2.116879e-005
2.363916e-004,-2.654814e-006
1.475797e-004,-1.659243e-005
9.474644e-005,-2.453363e-005
8.712937e-005,-2.761287e-005
9.669123e-005,-2.793700e-005
7.659513e-005,-2.955766e-005
-6.544382e-006,-3.231277e-005
-1.442999e-004,-3.328516e-005
-2.934000e-004,-3.522994e-005
-3.972838e-004,-3.879538e-005
-4.146248e-004,-4.252288e-005
-3.337542e-004,-4.592625e-005
-1.776853e-004,-5.289507e-005
-6.176923e-008,-6.407757e-005
1.235941e-004,-7.947377e-005
1.537382e-004,-1.031353e-004
1.328318e-004,-1.319829e-004
1.422316e-004,-1.582375e-004
2.328261e-004,-1.702304e-004
3.814401e-004,-1.619650e-004
5.119027e-004,-1.413827e-004
5.464226e-004,-1.235555e-004
4.733311e-004,-1.217728e-004
3.435168e-004,-1.397621e-004
2.344468e-004,-1.695821e-004
2.059233e-004,-1.948643e-004
2.738286e-004,-2.034537e-004
4.013741e-004,-1.925954e-004
5.350781e-004,-1.687718e-004
6.294001e-004,-1.392759e-004
6.679717e-004,-1.070249e-004
6.579236e-004,-7.412562e-005
6.146522e-004,-4.317115e-005
5.469088e-004,-1.934754e-005
4.636072e-004,-4.761664e-006
3.803056e-004,4.476060e-006
3.240689e-004,1.160693e-005
3.111037e-004,1.841368e-005
3.358997e-004,1.987227e-005
3.751195e-004,9.500085e-006
4.096394e-004,-1.675450e-005
4.384871e-004,-5.970181e-005
4.754380e-004,-1.065387e-004
5.144958e-004,-1.480274e-004
5.146578e-004,-1.771992e-004
4.169324e-004,-1.919471e-004
1.931201e-004,-1.951884e-004
-1.217728e-004,-1.875713e-004
-4.429862e-004,-1.728234e-004
-6.995356e-004,-1.546721e-004
-8.578734e-004,-1.370070e-004
-9.055205e-004,-1.164247e-004
-8.390738e-004,-9.049421e-005
-6.844635e-004,-5.386745e-005
-4.956574e-004,-8.489166e-006
-3.345645e-004,4.110282e-005
-2.540181e-004,8.648112e-005
-2.830278e-004,1.261871e-004
-4.060354e-004,1.620036e-004
-5.698834e-004,1.921477e-004
-7.113663e-004,2.120818e-004
-7.833233e-004,2.196988e-004
-7.808923e-004,2.175920e-004
-7.202800e-004,2.109473e-004
-6.133168e-004,2.083542e-004
-4.650271e-004,2.146748e-004
-2.903207e-004,2.271538e-004
-1.190177e-004,2.373639e-004
2.197911e-005,2.401191e-004
1.201907e-004,2.341226e-004
1.783722e-004,2.266676e-004
2.102990e-004,2.247229e-004
2.250470e-004,2.316917e-004
2.292607e-004,2.428742e-004
2.339606e-004,2.513016e-004
2.491947e-004,2.534084e-004
2.812837e-004,2.522740e-004
3.315239e-004,2.467637e-004
3.931088e-004,2.360674e-004
4.555039e-004,2.224539e-004
5.037994e-004,2.075439e-004
5.182233e-004,1.942546e-004
4.901859e-004,1.830721e-004
4.245494e-004,1.701068e-004
3.394651e-004,1.529279e-004
2.594049e-004,1.326697e-004
2.018716e-004,1.119254e-004
1.644345e-004,9.280167e-005
1.410971e-004,7.270556e-005
1.278078e-004,4.855783e-005
1.245665e-004,2.538249e-005
1.295905e-004,9.986281e-006
1.391524e-004,7.485573e-007
1.495245e-004,-6.220252e-006
1.524417e-004,-1.610624e-005
1.250527e-004,-3.020592e-005
4.385793e-005,-4.754691e-005
-9.551824e-005,-6.974985e-005
-2.724935e-004,-9.713889e-005
-4.452552e-004,-1.267968e-004
-5.611319e-004,-1.543479e-004
-5.802555e-004,-1.775233e-004
-4.943609e-004,-1.880575e-004
-3.387782e-004,-1.843300e-004
-1.669890e-004,-1.686097e-004
-3.117831e-005,-1.478653e-004
4.369587e-005,-1.321450e-004
6.136099e-005,-1.242038e-004
3.640293e-005,-1.180453e-004
-1.237873e-005,-1.063766e-004
-6.229485e-005,-8.595638e-005
-9.114248e-005,-5.710876e-005
-8.352541e-005,-2.388537e-005
-3.782299e-005,1.225520e-005
3.348575e-005,5.098881e-005
1.075496e-004,8.761557e-005
1.589243e-004,1.158149e-004
1.811273e-004,1.329939e-004
1.973338e-004,1.398006e-004
2.409294e-004,1.388282e-004
3.175863e-004,1.339663e-004
4.047775e-004,1.299146e-004
4.741415e-004,1.255389e-004
5.107683e-004,1.177597e-004
5.198439e-004,1.028497e-004
5.229231e-004,8.129502e-005
5.490156e-004,5.212327e-005
6.216210e-004,1.889987e-005
7.321496e-004,-1.351319e-005
8.347370e-004,-4.398147e-005
8.583986e-004,-7.412562e-005
7.376599e-004,-1.044318e-004
4.730070e-004,-1.311726e-004
1.399627e-004,-1.470550e-004
-1.536997e-004,-1.417068e-004
-3.271096e-004,-1.141558e-004
-3.682741e-004,-7.704279e-005
-3.254889e-004,-4.090223e-005
-2.511010e-004,-1.643037e-005
-1.707166e-004,-7.516774e-006
-8.806324e-005,-1.075808e-005
1.234753e-006,-2.291298e-005
8.340187e-005,-3.960571e-005
1.268354e-004,-4.868137e-005
8.891209e-005,-4.203669e-005
-5.727083e-005,-2.712668e-005
-3.104168e-004,-1.173047e-005
-6.400577e-004,-8.720959e-007
-9.886600e-004,3.989864e-006
-1.271140e-003,8.527692e-006
-1.396741e-003,2.522042e-005
-1.316356e-003,5.828175e-005
-1.057052e-003,1.049566e-004
-7.081250e-004,1.540623e-004
-3.664914e-004,1.918236e-004
-1.130213e-004,2.033302e-004
-2.978945e-006,1.874478e-004
-3.733679e-005,1.470936e-004
-1.660166e-004,9.150514e-005
-3.203028e-004,3.429608e-005
-4.575721e-004,-8.165035e-006
-5.711799e-004,-2.518189e-005
-6.590193e-004,-1.821308e-005
-7.074767e-004,3.017472e-006
-6.898117e-004,2.781346e-005
-5.752315e-004,4.904402e-005
-3.600088e-004,6.638502e-005
-8.109443e-005,7.853991e-005
1.937684e-004,8.226741e-005
3.884089e-004,7.173317e-005
4.577728e-004,5.341979e-005
4.167703e-004,3.818565e-005
3.234207e-004,3.559260e-005
2.331503e-004,4.693717e-005
1.748067e-004,7.335383e-005
1.503349e-004,1.124116e-004
1.482280e-004,1.637863e-004
1.574657e-004,2.172679e-004
1.684862e-004,2.615117e-004
1.840444e-004,2.905214e-004
2.038164e-004,2.974902e-004
2.209954e-004,2.811216e-004
2.281262e-004,2.453052e-004
2.208333e-004,1.971717e-004
1.994406e-004,1.454729e-004
1.564933e-004,1.030118e-004
8.145709e-005,7.189524e-005
-2.631635e-005,4.742337e-005
-1.571031e-004,2.716521e-005
-2.985861e-004,1.274139e-005
-4.413656e-004,4.476060e-006
-5.679386e-004,5.864920e-007
-6.400577e-004,-4.761664e-006
-6.219063e-004,-1.934754e-005
-4.907955e-004,-4.576419e-005
-2.540181e-004,-8.482193e-005
4.677511e-005,-1.334415e-004
3.451374e-004,-1.859507e-004
5.765668e-004,-2.404046e-004
6.956849e-004,-2.916173e-004
6.843403e-004,-3.282440e-004
5.648981e-004,-3.428299e-004
4.051016e-004,-3.345645e-004
2.814457e-004,-3.065273e-004
2.292607e-004,-2.679557e-004
2.391467e-004,-2.292221e-004
2.752873e-004,-1.985918e-004
2.874421e-004,-1.822232e-004
2.470879e-004,-1.762268e-004
1.705930e-004,-1.729855e-004
9.685330e-005,-1.614788e-004
6.411610e-005,-1.391138e-004
7.740546e-005,-1.109144e-004
1.182459e-004,-8.368748e-005
1.598967e-004,-5.791909e-005
1.942546e-004,-3.215070e-005
2.119197e-004,-4.275467e-006
2.057612e-004,2.700314e-005
1.762653e-004,6.136099e-005
1.378558e-004,9.426025e-005
1.116012e-004,1.208390e-004
1.132219e-004,1.393144e-004
1.513072e-004,1.537382e-004
2.278021e-004,1.655690e-004
3.354135e-004,1.757791e-004
4.514523e-004,1.822617e-004
5.438296e-004,1.885823e-004
5.804563e-004,1.986303e-004
5.451261e-004,2.140265e-004
4.444835e-004,2.295848e-004
3.049452e-004,2.394708e-004
1.611932e-004,2.372019e-004
4.596478e-005,2.239125e-004
-2.388537e-005,2.073819e-004
-5.143648e-005,1.961994e-004
-4.981582e-005,1.910133e-004
-3.344723e-005,1.893926e-004
-3.303076e-006,1.924718e-004
4.790957e-005,2.041406e-004
1.261871e-004,2.158093e-004
2.180782e-004,2.164575e-004
3.017039e-004,2.034923e-004
3.519442e-004,1.803169e-004
3.569682e-004,1.556830e-004
3.183966e-004,1.389903e-004
2.466017e-004,1.300767e-004
1.584381e-004,1.235941e-004
7.270556e-005,1.132219e-004
3.017472e-006,9.733949e-005
-4.576419e-005,7.821578e-005
-7.461182e-005,6.071273e-005
-8.287715e-005,4.645098e-005
-6.618442e-005,3.429608e-005
-2.712668e-005,1.971020e-005
2.619281e-005,3.665733e-006
8.648112e-005,-1.286493e-005
1.483901e-004,-2.939559e-005
2.086784e-004,-4.187462e-005
2.597290e-004,-5.159854e-005
2.948972e-004,-5.921561e-005
3.042970e-004,-6.618442e-005
2.846870e-004,-7.120844e-005
2.420638e-004,-7.493595e-005
1.889064e-004,-8.028410e-005
1.341283e-004,-8.790117e-005
7.837785e-005,-9.859748e-005
2.165498e-005,-1.092938e-004
-3.069211e-005,-1.180453e-004
-7.655660e-005,-1.245279e-004
-1.235555e-004,-1.276072e-004
-1.867610e-004,-1.293899e-004
-2.674695e-004,-1.305243e-004
-3.397507e-004,-1.329553e-004
-3.687603e-004,-1.373311e-004
-3.300267e-004,-1.417068e-004
-2.306807e-004,-1.433275e-004
-1.028112e-004,-1.376552e-004
1.971020e-005,-1.193418e-004
1.140322e-004,-9.162867e-005
1.736723e-004,-6.310517e-005
2.054371e-004,-3.782299e-005
2.231022e-004,-1.675450e-005
2.328261e-004,5.864920e-007
2.224539e-004,1.744129e-005
1.615174e-004,3.510641e-005
5.277153e-005,5.520250e-005
-4.673658e-005,7.384002e-005
-7.347736e-005,8.599492e-005
-1.075808e-005,8.534666e-005
9.199134e-005,7.335383e-005
1.547106e-004,5.471631e-005
1.184080e-004,3.818565e-005
-1.302700e-005,2.797553e-005
-1.820611e-004,2.910999e-005
-3.084721e-004,3.818565e-005
-3.376438e-004,5.082674e-005
-2.707109e-004,6.816773e-005
-1.502963e-004,8.712937e-005
-3.377136e-005,1.119254e-004
3.267542e-005,1.456350e-004
3.218923e-005,1.835583e-004
-2.404744e-005,2.159713e-004
-1.086455e-004,2.380122e-004
-1.867610e-004,2.448189e-004
-2.297083e-004,2.407673e-004
-2.250084e-004,2.320158e-004
-1.831956e-004,2.229401e-004
-1.272830e-004,2.158093e-004
-7.120844e-005,2.051129e-004
-1.724069e-005,1.902029e-004
4.547859e-005,1.743205e-004
1.226217e-004,1.608691e-004
2.041406e-004,1.513072e-004
2.718839e-004,1.487142e-004
3.153174e-004,1.519555e-004
3.290929e-004,1.556830e-004
2.983005e-004,1.527658e-004
2.030061e-004,1.402868e-004
4.110282e-005,1.219734e-004
-1.520790e-004,1.064152e-004
-3.175477e-004,9.604298e-005
-4.073319e-004,9.263960e-005
-4.194868e-004,9.393612e-005
-4.058733e-004,1.010670e-004
-4.269418e-004,1.093323e-004
-5.063537e-004,1.135460e-004
-6.061860e-004,1.099806e-004
-6.575607e-004,9.361199e-005
-6.103997e-004,6.314371e-005
-4.690787e-004,1.906194e-005
-2.997205e-004,-3.652646e-005
-1.846542e-004,-9.697683e-005
-1.760647e-004,-1.556445e-004
-2.814071e-004,-2.044261e-004
-4.608134e-004,-2.348944e-004
-6.413542e-004,-2.412149e-004
-7.416725e-004,-2.199844e-004
-6.885151e-004,-1.771992e-004
-4.557894e-004,-1.279313e-004
-9.956988e-005,-9.081835e-005
2.616738e-004,-7.671866e-005
5.096338e-004,-8.952183e-005
5.947181e-004,-1.230693e-004
5.357263e-004,-1.596961e-004
4.010500e-004,-1.833576e-004
2.608634e-004,-1.916230e-004
1.519555e-004,-1.872472e-004
6.103686e-005,-1.771992e-004
-3.847125e-005,-1.676373e-004
-1.504584e-004,-1.609926e-004
-2.470493e-004,-1.587237e-004
-2.963172e-004,-1.577513e-004
-2.775176e-004,-1.575893e-004
-1.912988e-004,-1.571031e-004
-7.995997e-005,-1.564548e-004
-1.659243e-005,-1.530514e-004
-6.083626e-005,-1.455964e-004
-2.120432e-004,-1.370070e-004
-3.948528e-004,-1.274451e-004
-5.016539e-004,-1.151281e-004
-4.601652e-004,-9.649064e-005
-2.684419e-004,-7.493595e-005
3.827799e-006,-5.532604e-005
2.477361e-004,-4.155049e-005
3.739850e-004,-3.814712e-005
3.527545e-004,-4.641245e-005
2.043026e-004,-6.083626e-005
-2.242678e-005,-7.396356e-005
-2.509389e-004,-7.688073e-005
-3.937184e-004,-6.942573e-005
-3.916115e-004,-5.289507e-005
-2.493182e-004,-3.020592e-005
-3.182657e-005,-2.006553e-006
1.748067e-004,3.170304e-005
3.047831e-004,6.995045e-005
3.315239e-004,1.135460e-004
2.705873e-004,1.624898e-004
1.645966e-004,2.067336e-004
5.860588e-005,2.362295e-004
-1.724069e-005,2.428742e-004
-4.868137e-005,2.281262e-004
-3.101625e-005,2.018716e-004
2.975825e-005,1.752929e-004
1.156529e-004,1.598967e-004
2.051129e-004,1.603829e-004
2.806354e-004,1.772377e-004
3.276344e-004,1.991165e-004
3.302274e-004,2.109473e-004
2.856594e-004,2.060853e-004
2.187264e-004,1.885823e-004
1.717275e-004,1.704310e-004
1.772377e-004,1.594105e-004
2.386605e-004,1.558451e-004
3.341170e-004,1.534141e-004
4.362182e-004,1.464453e-004
5.318367e-004,1.331559e-004
6.277795e-004,1.159770e-004
7.339324e-004,9.701536e-005
8.334405e-004,7.918817e-005
8.835187e-004,5.893001e-005
8.395990e-004,3.705119e-005
6.990883e-004,1.938607e-005
5.216266e-004,9.500085e-006
3.874365e-004,6.744974e-006
3.478926e-004,5.124321e-006
3.971604e-004,1.072688e-006
4.846757e-004,-7.354709e-006
5.686256e-004,-1.643037e-005
6.420412e-004,-1.853722e-005
7.084881e-004,-8.813297e-006
7.566215e-004,1.614476e-005
7.624559e-004,5.487838e-005
7.076777e-004,9.879808e-005
5.909906e-004,1.370455e-004
4.305459e-004,1.582761e-004
2.579462e-004,1.581140e-004
9.928428e-005,1.381800e-004
-2.971972e-005,1.062531e-004
-1.266348e-004,7.140904e-005
-1.950263e-004,3.932010e-005
-2.348944e-004,1.176900e-005
-2.506147e-004,-1.254080e-005
-2.520733e-004,-3.134038e-005
-2.637420e-004,-4.268495e-005
-3.154408e-004,-4.527799e-005
-4.128421e-004,-4.041603e-005
-5.274223e-004,-3.117831e-005
-6.113721e-004,-2.194059e-005
-6.369784e-004,-1.399939e-005
-6.097514e-004,-4.761664e-006
-5.434667e-004,7.717366e-006
-4.437966e-004,2.327564e-005
-3.258130e-004,3.445814e-005
-2.112329e-004,3.235129e-005
-1.293899e-004,1.160693e-005
-1.105903e-004,-2.388537e-005
-1.660166e-004,-6.083626e-005
-2.713591e-004,-8.368748e-005
-3.822118e-004,-8.838737e-005
-4.578962e-004,-7.639453e-005
-4.762096e-004,-5.613637e-005
-4.425001e-004,-3.490581e-005
-3.838324e-004,-1.821308e-005
-3.334301e-004,-9.137427e-006
-3.066893e-004,-3.951337e-006
-2.904828e-004,3.827799e-006
-2.574215e-004,2.019640e-005
-1.909747e-004,4.369587e-005
-9.811128e-005,6.492643e-005
-7.030578e-006,7.772959e-005
5.828175e-005,7.513654e-005
9.182927e-005,6.022653e-005
1.051186e-004,4.256141e-005
1.281319e-004,3.008238e-005
1.869616e-004,3.073064e-005
2.817699e-004,4.466826e-005
3.841952e-004,6.379197e-005
4.589073e-004,8.226741e-005
4.804620e-004,1.007429e-004
4.446456e-004,1.221355e-004
3.663680e-004,1.432040e-004
2.723701e-004,1.581140e-004
1.879340e-004,1.637863e-004
1.380179e-004,1.620036e-004
1.456350e-004,1.620036e-004
2.125679e-004,1.692965e-004
3.156415e-004,1.788584e-004
4.123946e-004,1.838824e-004
4.739794e-004,1.832341e-004
4.982892e-004,1.775618e-004
5.007202e-004,1.657311e-004
4.943996e-004,1.464453e-004
4.756001e-004,1.187321e-004
4.247115e-004,8.550872e-005
3.247172e-004,5.131294e-005
1.738343e-004,1.889987e-005
-1.108221e-005,-9.137427e-006
-1.900023e-004,-3.441962e-005
-3.154408e-004,-5.791909e-005
-3.459091e-004,-7.623246e-005
-2.643903e-004,-8.806324e-005
-9.405965e-005,-9.827335e-005
1.091703e-004,-1.050801e-004
2.772320e-004,-1.013526e-004
3.574544e-004,-8.190475e-005
3.146691e-004,-5.500191e-005
1.423936e-004,-3.134038e-005
-1.240417e-004,-2.129233e-005
-4.154351e-004,-2.469570e-005
-6.514022e-004,-3.749886e-005
-7.659824e-004,-5.046408e-005
-7.330831e-004,-5.305713e-005
-5.711799e-004,-4.122636e-005
-3.403989e-004,-2.048200e-005
-1.078352e-004,-2.006553e-006
8.372601e-005,6.258778e-006
2.156472e-004,2.045080e-006
2.807975e-004,-1.108221e-005
2.914938e-004,-2.680255e-005
2.678322e-004,-3.960571e-005
2.286124e-004,-4.608832e-005
1.895547e-004,-4.787104e-005
1.441764e-004,-4.981582e-005
5.974033e-005,-5.548811e-005
-1.049180e-004,-6.796714e-005
-3.718396e-004,-8.579432e-005
-7.055320e-004,-1.055663e-004
-1.012322e-003,-1.225832e-004
-1.192376e-003,-1.345760e-004
-1.186866e-003,-1.434896e-004
-1.000653e-003,-1.509446e-004
-7.022907e-004,-1.488377e-004
-3.885323e-004,-1.337657e-004
-1.314967e-004,-1.058904e-004
3.445814e-005,-6.796714e-005
1.124116e-004,-2.728874e-005
1.188942e-004,7.393236e-006
8.113296e-005,2.910999e-005
3.559260e-005,3.575467e-005
2.019640e-005,3.218923e-005
6.006447e-005,2.748934e-005
1.548727e-004,2.959619e-005
2.679943e-004,4.337174e-005
3.371962e-004,6.541262e-005
3.047831e-004,8.858796e-005
1.469315e-004,1.034980e-004
-1.031353e-004,1.069013e-004
-3.643846e-004,1.013911e-004
-5.517320e-004,9.263960e-005
-6.176926e-004,9.085688e-005
-5.715040e-004,1.002567e-004
-4.624341e-004,1.150046e-004
-3.402368e-004,1.257009e-004
-2.285739e-004,1.248906e-004
-1.229073e-004,1.103047e-004
-2.978945e-006,8.793970e-005
1.373696e-004,6.654708e-005
2.874421e-004,5.115087e-005
4.239012e-004,4.175109e-005
5.166026e-004,3.672706e-005
5.428572e-004,3.688912e-005
4.965065e-004,4.256141e-005
3.961880e-004,5.374392e-005
2.785285e-004,6.978839e-005
1.773998e-004,8.858796e-005
1.153287e-004,1.104668e-004
1.026876e-004,1.357490e-004
1.393144e-004,1.634622e-004
2.135403e-004,1.882582e-004
3.044590e-004,2.031682e-004
3.879227e-004,2.046267e-004
4.435111e-004,1.950649e-004
4.589073e-004,1.793446e-004
4.371906e-004,1.618415e-004
3.905157e-004,1.438522e-004
3.266619e-004,1.221355e-004
2.501671e-004,9.733949e-005
1.733481e-004,7.659513e-005
1.065772e-004,7.027458e-005
5.666109e-005,7.902610e-005
2.505836e-005,9.507057e-005
1.403791e-005,1.085220e-004
1.889987e-005,1.171115e-004
3.348575e-005,1.210010e-004
5.471631e-005,1.216493e-004
8.226741e-005,1.198666e-004
1.112771e-004,1.140322e-004
1.378558e-004,1.041462e-004
1.582761e-004,9.231547e-005
1.717275e-004,8.161915e-005
1.714034e-004,6.930219e-005
1.553589e-004,5.601284e-005
1.300767e-004,4.402000e-005
1.083599e-004,2.992031e-005
9.409818e-005,1.209313e-005
8.729144e-005,-1.140634e-005
8.518459e-005,-3.863332e-005
8.405014e-005,-6.537409e-005
8.469840e-005,-8.725291e-005
9.231547e-005,-1.000561e-004
1.145184e-004,-1.015147e-004
1.543865e-004,-9.470791e-005
2.031682e-004,-8.903562e-005
2.482223e-004,-9.114248e-005
2.801492e-004,-1.050801e-004
2.939248e-004,-1.297140e-004
2.887387e-004,-1.553203e-004
2.707494e-004,-1.720131e-004
2.478982e-004,-1.734716e-004
2.195368e-004,-1.595340e-004
1.786963e-004,-1.308485e-004
1.174356e-004,-9.454585e-005
3.964424e-005,-6.407757e-005
-3.863332e-005,-4.673658e-005
-9.730096e-005,-4.171256e-005
-1.298761e-004,-4.738484e-005
-1.410586e-004,-6.229485e-005
-1.384655e-004,-8.255302e-005
-1.289037e-004,-1.037836e-004
-1.182074e-004,-1.225832e-004
-1.144799e-004,-1.355484e-004
-1.180453e-004,-1.365208e-004
-1.161005e-004,-1.199901e-004
-8.676672e-005,-8.595638e-005
-1.902341e-005,-4.284701e-005
7.967438e-005,-1.196227e-006
1.808031e-004,2.943412e-005
2.534084e-004,4.547859e-005
2.735045e-004,4.871989e-005
2.237505e-004,4.596478e-005
9.361199e-005,4.564065e-005
-1.130213e-004,5.601284e-005
-3.643846e-004,7.837785e-005
-5.984068e-004,1.069013e-004
-7.518827e-004,1.342904e-004
-7.909404e-004,1.537382e-004
-7.223868e-004,1.610312e-004
-5.677765e-004,1.564933e-004
-3.559572e-004,1.436902e-004
-1.279313e-004,1.323456e-004
8.550872e-005,1.304008e-004
2.754493e-004,1.414213e-004
4.376768e-004,1.603829e-004
5.501501e-004,1.757791e-004
5.736496e-004,1.775618e-004
4.754380e-004,1.663793e-004
2.710735e-004,1.469315e-004
2.667901e-005,1.278078e-004
-1.827094e-004,1.130598e-004
-3.159271e-004,1.056048e-004
-3.690845e-004,1.039842e-004
-3.634122e-004,1.059290e-004
-3.196545e-004,1.083599e-004
-2.523975e-004,1.085220e-004
-1.669890e-004,1.077117e-004
-7.331530e-005,1.070634e-004
1.565857e-005,1.080358e-004
8.129502e-005,1.130598e-004
1.069013e-004,1.214872e-004
9.344993e-005,1.300767e-004
5.050261e-005,1.375317e-004
-8.165035e-006,1.381800e-004
-7.234290e-005,1.307250e-004
-1.302002e-004,1.190562e-004
-1.742820e-004,1.047945e-004
-2.015090e-004,9.037068e-005
-2.023193e-004,7.367795e-005
-1.647201e-004,5.212327e-005
-9.373552e-005,2.797553e-005
-6.706447e-006,7.069105e-006
7.918817e-005,-4.599598e-006
1.628139e-004,-4.113403e-006
2.474120e-004,2.693341e-006
3.414099e-004,8.365628e-006
4.368664e-004,3.665733e-006
5.114165e-004,-1.318906e-005
5.389676e-004,-3.847125e-005
5.083373e-004,-7.056019e-005
4.274666e-004,-1.005423e-004
3.242310e-004,-1.222590e-004
2.256952e-004,-1.311726e-004
1.508211e-004,-1.302002e-004
1.078737e-004,-1.267968e-004
9.750156e-005,-1.264727e-004
1.146805e-004,-1.271210e-004
1.495245e-004,-1.259865e-004
1.887444e-004,-1.266348e-004
2.213195e-004,-1.326312e-004
2.397949e-004,-1.400862e-004
2.347709e-004,-1.417068e-004
2.020337e-004,-1.313347e-004
1.506590e-004,-1.060525e-004
7.448828e-005,-6.974985e-005
-5.095028e-005,-2.664048e-005
-2.344082e-004,1.436204e-005
-4.319658e-004,4.207521e-005
-5.805797e-004,4.742337e-005
-6.557780e-004,3.316162e-005
-6.781430e-004,9.013889e-006
-6.912703e-004,-1.869928e-005
-7.097457e-004,-4.560212e-005
-7.089354e-004,-7.056019e-005
-6.539953e-004,-8.871149e-005
-5.478425e-004,-9.778715e-005
-4.214316e-004,-9.260107e-005
-2.927517e-004,-7.201877e-005
-1.643960e-004,-4.398147e-005
-3.393342e-005,-1.399939e-005
8.793970e-005,1.193106e-005
1.837203e-004,2.781346e-005
2.286124e-004,3.348575e-005
2.078681e-004,3.299956e-005
1.304008e-004,3.186510e-005
1.857574e-005,3.040651e-005
-1.020008e-004,3.202716e-005
-2.172293e-004,3.964424e-005
-3.245165e-004,5.244739e-005
-4.155972e-004,6.703327e-005
-4.642168e-004,7.837785e-005
-4.347209e-004,8.145709e-005
-3.209511e-004,7.627100e-005
-1.592099e-004,6.395404e-005
3.503668e-006,4.790957e-005
1.263492e-004,3.478228e-005
1.778860e-004,3.105477e-005
1.448246e-004,3.932010e-005
4.483033e-005,5.795762e-005
-7.363943e-005,8.405014e-005
-1.472171e-004,1.120874e-004
-1.397621e-004,1.355869e-004
-5.013995e-005,1.495245e-004
9.393612e-005,1.511452e-004
2.467637e-004,1.409351e-004
3.756057e-004,1.227837e-004
4.709002e-004,1.018773e-004
5.394538e-004,7.772959e-005
5.918010e-004,4.936815e-005
6.332897e-004,2.068259e-005
6.631098e-004,-2.492749e-006
6.757508e-004,-1.399939e-005
6.569512e-004,-1.448558e-005
5.937457e-004,-3.141010e-006
4.875929e-004,1.549650e-005
3.512959e-004,3.445814e-005
2.115956e-004,4.969229e-005
9.977047e-005,6.768154e-005
4.029250e-005,9.636710e-005
3.672706e-005,1.342904e-004
7.335383e-005,1.697827e-004
1.224596e-004,1.916615e-004
1.587623e-004,1.953890e-004
1.699448e-004,1.824238e-004
1.551968e-004,1.598967e-004
1.182459e-004,1.329939e-004
6.589881e-005,1.012291e-004
1.582063e-005,6.735741e-005
-1.173047e-005,3.218923e-005
-7.354709e-006,-7.100305e-007
2.165498e-005,-2.631635e-005
5.358185e-005,-3.863332e-005
6.881599e-005,-3.733679e-005
5.763349e-005,-3.020592e-005
2.392390e-005,-2.647842e-005
-1.756482e-005,-2.939559e-005
-5.662256e-005,-3.717473e-005
-8.190475e-005,-4.949169e-005
-8.822530e-005,-6.391550e-005
-6.958779e-005,-7.558420e-005
-2.161646e-005,-7.801519e-005
6.168512e-005,-7.072225e-005
1.889064e-004,-6.099833e-005
3.534027e-004,-5.402952e-005
5.277851e-004,-5.192267e-005
6.648925e-004,-5.338126e-005
7.276118e-004,-5.824322e-005
7.060571e-004,-6.829127e-005
6.216210e-004,-8.449780e-005
5.028270e-004,-1.037836e-004
3.769022e-004,-1.203142e-004
2.652392e-004,-1.258245e-004
1.790204e-004,-1.214487e-004
1.266733e-004,-1.089697e-004
1.130598e-004,-8.871149e-005
1.386662e-004,-5.970181e-005
1.934442e-004,-2.485776e-005
2.516257e-004,6.744974e-006
2.840388e-004,2.667901e-005
2.699391e-004,3.510641e-005
2.106232e-004,4.353380e-005
1.286181e-004,5.876794e-005
5.390598e-005,8.210535e-005
9.175954e-006,1.091703e-004
-8.720959e-007,1.331559e-004
6.744974e-006,1.514693e-004
1.355172e-005,1.662173e-004
9.013889e-006,1.783722e-004
-3.465141e-006,1.914995e-004
-1.594417e-005,2.055991e-004
-3.960571e-005,2.185644e-004
-1.031353e-004,2.260194e-004
-2.310048e-004,2.265056e-004
-4.202971e-004,2.235884e-004
-6.397335e-004,2.175920e-004
-8.374532e-004,2.086784e-004
-9.593263e-004,1.937684e-004
-9.721294e-004,1.775618e-004
-8.761868e-004,1.637863e-004
-6.995356e-004,1.542244e-004
-4.880404e-004,1.472556e-004
-2.828657e-004,1.412592e-004
-1.162626e-004,1.323456e-004
-1.335113e-005,1.179218e-004
1.679302e-005,1.005808e-004
-9.137427e-006,8.356394e-005
-5.743289e-005,7.027458e-005
-9.875954e-005,5.714729e-005
-1.130213e-004,3.980630e-005
-9.146661e-005,2.133085e-005
-3.506788e-005,9.175954e-006
4.191315e-005,4.638125e-006
1.135460e-004,4.151929e-006
1.537382e-004,5.772582e-006
1.485521e-004,8.527692e-006
1.026876e-004,9.500085e-006
2.797553e-005,9.013889e-006
-6.375344e-005,8.041497e-006
-1.703924e-004,5.610517e-006
-2.984240e-004,1.720949e-006
-4.348830e-004,-4.113403e-006
-5.364979e-004,-1.124428e-005
-5.543251e-004,-2.291298e-005
-4.653512e-004,-3.766092e-005
-2.857829e-004,-5.192267e-005
-6.099833e-005,-6.359137e-005
1.514693e-004,-7.120844e-005
3.081865e-004,-7.072225e-005
3.934329e-004,-6.472583e-005
4.208219e-004,-5.791909e-005
4.149876e-004,-5.305713e-005
3.994293e-004,-5.516398e-005
3.848434e-004,-6.974985e-005
3.691231e-004,-1.008664e-004
3.540510e-004,-1.441378e-004
3.363859e-004,-1.853024e-004
3.044590e-004,-2.147983e-004
2.281262e-004,-2.248464e-004
7.319176e-005,-2.170672e-004
-1.788198e-004,-1.992400e-004
-5.094330e-004,-1.780095e-004
-8.502563e-004,-1.562927e-004
-1.107616e-003,-1.349001e-004
-1.192862e-003,-1.186936e-004
-1.063372e-003,-1.079973e-004
-7.397278e-004,-1.018388e-004
-3.186821e-004,-1.015147e-004
5.974033e-005,-1.044318e-004
2.889007e-004,-1.058904e-004
3.412479e-004,-1.018388e-004
2.545429e-004,-9.081835e-005
1.119254e-004,-7.817725e-005
1.072688e-006,-6.877746e-005
-3.312309e-005,-6.731888e-005
-6.058186e-006,-7.120844e-005
2.311357e-005,-6.910160e-005
8.365628e-006,-5.013995e-005
-4.787104e-005,-9.785688e-006
-1.193418e-004,4.985435e-005
-1.757406e-004,1.153287e-004
-1.943781e-004,1.681620e-004
-1.710407e-004,1.965235e-004
-1.143178e-004,2.038164e-004
-3.733679e-005,2.015475e-004
4.888196e-005,2.008992e-004
1.346145e-004,2.088404e-004
2.057612e-004,2.263435e-004
2.466017e-004,2.466017e-004
2.440086e-004,2.572980e-004
2.017096e-004,2.487085e-004
1.376938e-004,2.247229e-004
7.513654e-005,1.945787e-004
3.818565e-005,1.676758e-004
4.596478e-005,1.542244e-004
9.896015e-005,1.542244e-004
1.817755e-004,1.623277e-004
2.684805e-004,1.684862e-004
3.279585e-004,1.645966e-004
3.454615e-004,1.446626e-004
3.336308e-004,1.119254e-004
3.198552e-004,7.643307e-005
3.211517e-004,4.920609e-005
3.358997e-004,3.753739e-005
3.478926e-004,3.915804e-005
3.467581e-004,4.483033e-005
3.414099e-004,4.693717e-005
3.452995e-004,4.402000e-005
3.571303e-004,3.769945e-005
3.686369e-004,3.283749e-005
3.624784e-004,3.121684e-005
3.185587e-004,3.445814e-005
2.346088e-004,4.304761e-005
1.279698e-004,5.585077e-005
3.170304e-005,6.962632e-005
-1.869928e-005,8.129502e-005
-1.844488e-006,8.988449e-005
9.247754e-005,9.766362e-005
2.500050e-004,1.015532e-004
4.256839e-004,1.004187e-004
5.618189e-004,9.312580e-005
6.102764e-004,8.388807e-005
5.537156e-004,7.238143e-005
4.046154e-004,6.395404e-005
1.991165e-004,6.055066e-005
-9.947754e-006,6.152305e-005
-1.666649e-004,6.703327e-005
-2.373254e-004,7.627100e-005
-2.274394e-004,8.615699e-005
-1.736337e-004,9.069481e-005
-1.126972e-004,8.631905e-005
-6.731888e-005,6.978839e-005
-3.928157e-005,4.207521e-005
-1.691656e-005,6.907040e-006
1.047248e-005,-2.712668e-005
5.325772e-005,-5.321920e-005
1.101427e-004,-7.153257e-005
1.730240e-004,-8.255302e-005
2.372019e-004,-8.465986e-005
2.981384e-004,-7.574627e-005
3.438409e-004,-5.694670e-005
3.632887e-004,-3.555408e-005
3.477304e-004,-1.934754e-005
2.848491e-004,-1.286493e-005
1.658931e-004,-1.480971e-005
1.128280e-005,-2.583016e-005
-1.336036e-004,-4.576419e-005
-2.264670e-004,-7.396356e-005
-2.467252e-004,-1.028112e-004
-2.091260e-004,-1.229073e-004
-1.575893e-004,-1.287416e-004
-1.345760e-004,-1.212866e-004
-1.635857e-004,-1.060525e-004
-2.399184e-004,-9.130454e-005
-3.374817e-004,-8.336335e-005
-4.248349e-004,-8.125649e-005
-4.796130e-004,-7.931171e-005
-4.969540e-004,-6.942573e-005
-4.872300e-004,-5.143648e-005
-4.669719e-004,-3.198864e-005
-4.463896e-004,-1.610624e-005
-4.224039e-004,-6.220252e-006
-3.752429e-004,2.045080e-006
-2.872415e-004,1.679302e-005
-1.619650e-004,4.126489e-005
-2.793700e-005,7.416415e-005
8.923623e-005,1.080358e-004
1.830721e-004,1.347766e-004
2.555152e-004,1.472556e-004
3.081865e-004,1.448246e-004
3.350894e-004,1.370455e-004
3.341170e-004,1.260251e-004
3.156415e-004,1.107909e-004
2.961937e-004,9.782569e-005
2.900352e-004,9.182927e-005
3.052694e-004,9.620504e-005
3.384927e-004,1.081979e-004
3.777126e-004,1.232699e-004
4.143393e-004,1.367214e-004
4.483731e-004,1.454729e-004
4.754380e-004,1.477418e-004
4.841895e-004,1.410971e-004
4.684692e-004,1.284560e-004
4.290873e-004,1.148425e-004
3.456236e-004,1.064152e-004
1.884202e-004,1.036600e-004
-3.749886e-005,1.047945e-004
-2.686040e-004,1.078737e-004
-4.172179e-004,1.116012e-004
-4.293727e-004,1.156529e-004
-3.147926e-004,1.132219e-004
-1.400862e-004,9.863601e-005
1.257933e-005,7.157111e-005
9.182927e-005,4.013043e-005
8.340187e-005,1.436204e-005
9.013889e-006,4.151929e-006
-9.762509e-005,9.500085e-006
-2.115570e-004,2.278944e-005
-3.248407e-004,3.543054e-005
-4.431483e-004,4.385793e-005
-5.702075e-004,4.191315e-005
-6.807360e-004,2.732727e-005
-7.175248e-004,5.286387e-006
-6.240131e-004,-1.480971e-005
-3.908012e-004,-3.069211e-005
-7.785312e-005,-4.074016e-005
2.099749e-004,-4.398147e-005
3.790091e-004,-4.268495e-005
3.944053e-004,-4.236082e-005
2.861456e-004,-4.625038e-005
1.200286e-004,-5.516398e-005
-3.976777e-005,-7.056019e-005
-1.618029e-004,-9.405965e-005
-2.439701e-004,-1.217728e-004
-2.930758e-004,-1.498101e-004
-3.128478e-004,-1.731475e-004
-2.984240e-004,-1.870851e-004
-2.472114e-004,-1.890299e-004
-1.724993e-004,-1.793060e-004
-9.665270e-005,-1.637477e-004
-3.668853e-005,-1.494860e-004
8.527692e-006,-1.386276e-004
3.996837e-005,-1.308485e-004
5.115087e-005,-1.287416e-004
3.656499e-005,-1.316588e-004
-4.437533e-006,-1.334415e-004
-6.618442e-005,-1.319829e-004
-1.352242e-004,-1.251762e-004
-1.972953e-004,-1.107524e-004
-2.417012e-004,-9.162867e-005
-2.559629e-004,-7.201877e-005
-2.384598e-004,-5.289507e-005
-1.945401e-004,-3.215070e-005
-1.347380e-004,-6.382317e-006
-7.007399e-005,2.505836e-005
-8.975362e-006,5.666109e-005
4.239934e-005,7.772959e-005
8.259155e-005,8.405014e-005
1.159770e-004,7.691926e-005
1.492004e-004,6.832980e-005
1.914995e-004,6.849186e-005
2.516257e-004,8.242948e-005
3.201794e-004,1.049566e-004
3.744712e-004,1.266733e-004
3.947294e-004,1.372076e-004
3.769022e-004,1.326697e-004
3.389789e-004,1.208390e-004
3.109416e-004,1.112771e-004
3.206656e-004,1.096565e-004
3.875985e-004,1.109530e-004
5.078511e-004,1.080358e-004
6.533858e-004,9.798775e-005
7.731522e-004,8.161915e-005
8.305234e-004,6.622294e-005
8.133444e-004,5.990240e-005
7.315014e-004,6.541262e-005
6.000663e-004,7.967438e-005
4.347596e-004,1.009049e-004
2.517878e-004,1.300767e-004
5.585077e-005,1.634622e-004
-1.559686e-004,1.945787e-004
-3.849669e-004,2.174299e-004
-6.142893e-004,2.302331e-004
-8.092538e-004,2.328261e-004
-9.317751e-004,2.297469e-004
-9.551126e-004,2.261814e-004
-8.768350e-004,2.224539e-004
-7.207661e-004,2.166196e-004
-5.305015e-004,2.060853e-004
-3.502849e-004,1.906891e-004
-2.044261e-004,1.715654e-004
-9.049421e-005,1.517934e-004
4.962256e-006,1.368834e-004
8.956036e-005,1.294284e-004
1.602208e-004,1.250527e-004
2.067336e-004,1.150046e-004
2.211574e-004,9.474644e-005
2.000889e-004,6.768154e-005
1.443384e-004,3.850978e-005
6.703327e-005,1.160693e-005
-1.027188e-005,-9.947754e-006
-6.245691e-005,-2.469570e-005
-7.493595e-005,-3.150244e-005
-4.641245e-005,-3.117831e-005
2.116879e-005,-3.344723e-005
1.248906e-004,-4.187462e-005
2.511395e-004,-5.646050e-005
3.666921e-004,-7.299116e-005
4.373526e-004,-9.017008e-005
4.467524e-004,-1.067007e-004
3.905157e-004,-1.203142e-004
2.790148e-004,-1.318209e-004
1.368834e-004,-1.442999e-004
-3.858999e-007,-1.551583e-004
-9.843541e-005,-1.600202e-004
-1.397621e-004,-1.554824e-004
-1.334415e-004,-1.413827e-004
-1.031353e-004,-1.220970e-004
-7.526008e-005,-1.023250e-004
-5.840528e-005,-8.028410e-005
-4.787104e-005,-5.743289e-005
-2.745081e-005,-3.474375e-005
1.582063e-005,-1.189254e-005
7.918817e-005,1.193106e-005
1.402868e-004,3.624086e-005
1.769136e-004,5.828175e-005
1.986303e-004,7.465034e-005
2.457913e-004,7.659513e-005
3.487029e-004,5.795762e-005
4.908342e-004,1.922400e-005
6.201624e-004,-2.680255e-005
6.814231e-004,-6.731888e-005
6.443101e-004,-9.405965e-005
5.141716e-004,-1.067007e-004
3.311998e-004,-1.075111e-004
1.684862e-004,-9.956988e-005
8.939829e-005,-8.449780e-005
1.184080e-004,-6.456377e-005
2.339606e-004,-4.219875e-005
3.770643e-004,-2.210265e-005
4.730070e-004,-1.027188e-005
4.644175e-004,-9.299493e-006
3.358997e-004,-2.194059e-005
1.154908e-004,-4.398147e-005
-1.465688e-004,-6.780507e-005
-4.034423e-004,-8.806324e-005
-6.210960e-004,-1.029732e-004
-7.698719e-004,-1.070249e-004
-8.291878e-004,-9.973194e-005
-7.966127e-004,-7.882551e-005
-6.826808e-004,-4.592625e-005
-5.053814e-004,-6.220252e-006
-3.167374e-004,3.316162e-005
-1.956746e-004,6.557468e-005
-2.125294e-004,8.777764e-005
-3.841565e-004,1.017153e-004
-6.467023e-004,1.117633e-004
-8.886658e-004,1.211631e-004
-1.027394e-003,1.312112e-004
-1.035983e-003,1.406109e-004
-9.320992e-004,1.449867e-004
-7.607963e-004,1.407730e-004
-5.677765e-004,1.282940e-004
-3.890185e-004,1.107909e-004
-2.478596e-004,9.474644e-005
-1.554824e-004,8.696731e-005
-1.149661e-004,9.134307e-005
-1.060525e-004,1.116012e-004
-9.568031e-005,1.453108e-004
-5.305713e-005,1.848548e-004
3.867184e-005,2.175920e-004
1.652449e-004,2.376881e-004
2.945730e-004,2.430362e-004
3.948915e-004,2.341226e-004
4.530729e-004,2.166196e-004
4.736553e-004,1.989545e-004
4.710622e-004,1.884202e-004
4.619866e-004,1.830721e-004
4.590694e-004,1.769136e-004
4.726828e-004,1.650828e-004
4.992616e-004,1.560072e-004
5.298919e-004,1.517934e-004
5.514466e-004,1.508211e-004
5.454503e-004,1.456350e-004
4.939134e-004,1.338042e-004
3.913261e-004,1.140322e-004
2.509774e-004,9.134307e-005
1.109530e-004,7.173317e-005
9.824215e-006,5.504044e-005
-2.745081e-005,3.705119e-005
-2.492749e-006,1.517237e-005
6.751948e-005,-7.354709e-006
1.613553e-004,-2.615429e-005
2.561635e-004,-3.814712e-005
3.323342e-004,-4.738484e-005
3.775505e-004,-5.856735e-005
3.947294e-004,-7.558420e-005
3.961880e-004,-9.357346e-005
3.924605e-004,-1.042698e-004
3.858158e-004,-1.034594e-004
3.645853e-004,-9.276313e-005
3.036487e-004,-7.623246e-005
1.804790e-004,-6.018800e-005
-1.837515e-005,-5.127441e-005
-2.831898e-004,-5.581224e-005
-5.518941e-004,-7.607040e-005
-7.227109e-004,-1.070249e-004
-7.189835e-004,-1.378173e-004
-5.342290e-004,-1.629374e-004
-2.185258e-004,-1.780095e-004
1.493625e-004,-1.831956e-004
4.948858e-004,-1.767130e-004
7.598628e-004,-1.605064e-004
9.011839e-004,-1.405724e-004
8.872462e-004,-1.206384e-004
7.128638e-004,-1.008664e-004
4.190393e-004,-7.833932e-005
8.453633e-005,-4.916756e-005
-2.088019e-004,-1.480971e-005
-3.959873e-004,1.841368e-005
-4.423380e-004,4.207521e-005
-3.497987e-004,5.147500e-005
-1.593720e-004,4.807163e-005
6.557468e-005,4.288554e-005
2.563256e-004,4.402000e-005
3.417340e-004,5.552663e-005
2.673460e-004,7.351589e-005
4.126489e-005,8.875003e-005
-2.433218e-004,9.652917e-005
-4.664857e-004,9.620504e-005
-5.574043e-004,9.458438e-005
-5.211017e-004,9.977047e-005
-3.956632e-004,1.159770e-004
-2.220912e-004,1.399627e-004
-3.636440e-005,1.667035e-004
1.325077e-004,1.874478e-004
2.756114e-004,1.897167e-004
3.999155e-004,1.696206e-004
5.102821e-004,1.376938e-004
6.081695e-004,1.059290e-004
6.892023e-004,8.550872e-005
7.421977e-004,8.161915e-005
7.575939e-004,8.956036e-005
7.203188e-004,9.912221e-005
6.164349e-004,1.009049e-004
4.461041e-004,9.053275e-005
2.261814e-004,7.205730e-005
-1.043395e-005,5.828175e-005
-2.276015e-004,6.087479e-005
-3.976080e-004,8.113296e-005
-5.010056e-004,1.128978e-004
-5.335807e-004,1.461212e-004
-5.087847e-004,1.741585e-004
-4.577342e-004,1.919856e-004
-4.105732e-004,1.966855e-004
-3.804291e-004,1.895547e-004
-3.580640e-004,1.714034e-004
-3.243544e-004,1.457970e-004
-2.695764e-004,1.158149e-004
-2.031296e-004,8.502253e-005
-1.460826e-004,5.730935e-005
-1.130213e-004,3.494434e-005
-1.104282e-004,1.744129e-005
-1.361966e-004,2.623614e-007
-1.797922e-004,-1.740276e-005
-2.240360e-004,-3.377136e-005
-2.574215e-004,-4.803310e-005
-2.692523e-004,-5.791909e-005
-2.502906e-004,-6.083626e-005
-1.998883e-004,-5.889148e-005
-1.371690e-004,-5.127441e-005
-8.368748e-005,-4.414354e-005
-5.548811e-005,-4.252288e-005
-5.970181e-005,-4.511593e-005
-8.401160e-005,-5.095028e-005
-1.114006e-004,-5.889148e-005
-1.319829e-004,-7.007399e-005
-1.355484e-004,-8.449780e-005
-1.060525e-004,-9.713889e-005
-3.911951e-005,-9.875954e-005
5.277153e-005,-8.968389e-005
1.441764e-004,-7.688073e-005
2.099749e-004,-6.715681e-005
2.388225e-004,-6.504996e-005
2.355812e-004,-6.958779e-005
2.132162e-004,-8.077030e-005
1.944166e-004,-9.308726e-005
1.976579e-004,-9.892161e-005
2.253711e-004,-9.600444e-005
2.628082e-004,-8.692878e-005
2.945730e-004,-7.769106e-005
3.038107e-004,-7.412562e-005
2.731804e-004,-7.655660e-005
2.002510e-004,-8.044617e-005
9.328786e-005,-8.303922e-005
-4.090223e-005,-8.044617e-005
-1.896782e-004,-7.137051e-005
-3.162512e-004,-5.694670e-005
-3.694086e-004,-3.830919e-005
-3.165753e-004,-2.177852e-005
-1.788198e-004,-8.813297e-006
-1.837515e-005,4.313994e-006
9.069481e-005,1.938607e-005
9.717743e-005,3.688912e-005
-1.196227e-006,5.374392e-005
-1.658546e-004,6.622294e-005
-3.371576e-004,7.173317e-005
-4.656754e-004,7.076078e-005
-5.204534e-004,6.687121e-005
-4.907955e-004,6.914012e-005
-3.767015e-004,7.756752e-005
-1.945401e-004,8.469840e-005
1.695509e-005,8.534666e-005
2.033302e-004,8.113296e-005
3.132105e-004,7.789165e-005
3.342791e-004,7.870197e-005
3.017039e-004,8.664318e-005
2.670219e-004,1.030118e-004
2.632944e-004,1.257009e-004
2.832284e-004,1.470936e-004
2.926282e-004,1.608691e-004
2.692908e-004,1.639484e-004
2.102990e-004,1.568175e-004
1.370455e-004,1.427178e-004
7.935024e-005,1.286181e-004
5.552663e-005,1.169494e-004
6.508849e-005,1.101427e-004
9.652917e-005,1.101427e-004
1.359110e-004,1.156529e-004
1.702689e-004,1.208390e-004
1.897167e-004,1.229458e-004
1.911753e-004,1.205148e-004
1.791825e-004,1.174356e-004
1.623277e-004,1.158149e-004
1.449867e-004,1.221355e-004
1.302388e-004,1.326697e-004
1.184080e-004,1.419075e-004
1.081979e-004,1.417454e-004
9.296373e-005,1.268354e-004
5.893001e-005,9.701536e-005
5.934648e-006,5.844381e-005
-4.819517e-005,2.635488e-005
-8.417367e-005,8.527692e-006
-8.854943e-005,9.175954e-006
-5.937768e-005,2.343770e-005
-8.327101e-006,4.013043e-005
4.369587e-005,4.758544e-005
7.594687e-005,3.624086e-005
7.254349e-005,9.662150e-006
4.256141e-005,-2.242678e-005
1.501031e-005,-4.884343e-005
1.760335e-005,-6.456377e-005
5.439218e-005,-7.331530e-005
1.005808e-004,-8.514606e-005
1.315353e-004,-1.037836e-004
1.446626e-004,-1.258245e-004
1.508211e-004,-1.475412e-004
1.568175e-004,-1.679614e-004
1.543865e-004,-1.934057e-004
1.363972e-004,-2.271153e-004
9.280167e-005,-2.645523e-004
1.533444e-005,-2.979378e-004
-1.050801e-004,-3.193304e-004
-2.673075e-004,-3.284061e-004
-4.374760e-004,-3.237062e-004
-5.569181e-004,-3.044204e-004
-5.779866e-004,-2.692523e-004
-5.019780e-004,-2.219292e-004
-3.671397e-004,-1.699062e-004
-2.287359e-004,-1.182074e-004
-1.259865e-004,-7.250496e-005
-6.877746e-005,-3.911951e-005
-4.544006e-005,-1.869928e-005
-3.928157e-005,-3.951337e-006
-3.733679e-005,8.851824e-006
-2.988179e-005,1.760335e-005
-1.140634e-005,2.165498e-005
2.181705e-005,2.230325e-005
6.897806e-005,1.922400e-005
1.219734e-004,1.679302e-005
1.712413e-004,2.278944e-005
2.062474e-004,4.029250e-005
2.229401e-004,6.573675e-005
2.188885e-004,9.247754e-005
1.955511e-004,1.172735e-004
1.642725e-004,1.359110e-004
1.398006e-004,1.535762e-004
1.333180e-004,1.773998e-004
1.529279e-004,2.088404e-004
1.999268e-004,2.425500e-004
2.637806e-004,2.726942e-004
3.260137e-004,2.936006e-004
3.673404e-004,3.033245e-004
3.799815e-004,3.030004e-004
3.623164e-004,2.961937e-004
3.172622e-004,2.848491e-004
2.555152e-004,2.701012e-004
1.979821e-004,2.564877e-004
1.654069e-004,2.501671e-004
1.655690e-004,2.519498e-004
1.867996e-004,2.540567e-004
2.106232e-004,2.504913e-004
2.284504e-004,2.438466e-004
2.334744e-004,2.409294e-004
2.211574e-004,2.404432e-004
1.942546e-004,2.349330e-004
1.568175e-004,2.175920e-004
1.163011e-004,1.877720e-004
8.064677e-005,1.545486e-004
5.601284e-005,1.273216e-004
4.434413e-005,1.094944e-004
3.753739e-005,9.750156e-005
2.522042e-005,8.907416e-005
1.234753e-006,8.048470e-005
-3.215070e-005,6.832980e-005
-6.586029e-005,5.179914e-005
-9.179074e-005,3.218923e-005
-1.016767e-004,1.484824e-005
-9.243900e-005,1.396819e-006
-7.493595e-005,-7.678839e-006
-6.845333e-005,-1.221667e-005
-8.854943e-005,-1.156841e-005
-1.402483e-004,-7.678839e-006
-2.105846e-004,-2.006553e-006
-2.758969e-004,-2.168618e-006
-3.010170e-004,-1.351319e-005
-2.551526e-004,-3.733679e-005
-1.258245e-004,-6.586029e-005
7.157111e-005,-9.065628e-005
2.953834e-004,-1.065387e-004
4.914824e-004,-1.144799e-004
6.101143e-004,-1.178833e-004
6.185417e-004,-1.151281e-004
5.023408e-004,-1.078352e-004
2.764217e-004,-9.811128e-005
-9.461558e-006,-9.065628e-005
-2.810830e-004,-9.179074e-005
-4.747511e-004,-1.029732e-004
-5.703696e-004,-1.230693e-004
-5.770142e-004,-1.421931e-004
-5.267740e-004,-1.509446e-004
-4.583824e-004,-1.444620e-004
-4.034423e-004,-1.316588e-004
-3.669776e-004,-1.183694e-004
-3.478539e-004,-1.091317e-004
-3.697327e-004,-1.045939e-004
-4.614617e-004,-1.013526e-004
-6.142893e-004,-9.973194e-005
-7.645238e-004,-1.032974e-004
-8.381014e-004,-1.104282e-004
-8.086055e-004,-1.141558e-004
-7.003459e-004,-1.091317e-004
-5.642111e-004,-9.146661e-005
-4.463896e-004,-6.197072e-005
-3.627639e-004,-2.226472e-005
-2.948586e-004,1.922400e-005
-2.167431e-004,5.212327e-005
-1.190177e-004,6.978839e-005
-7.100305e-007,6.849186e-005
1.294284e-004,5.520250e-005
2.487085e-004,4.013043e-005
3.258516e-004,3.753739e-005
3.386548e-004,5.244739e-005
2.858215e-004,7.691926e-005
1.952270e-004,9.879808e-005
1.062531e-004,1.073875e-004
4.855783e-005,9.912221e-005
3.494434e-005,8.469840e-005
7.173317e-005,7.562274e-005
1.547106e-004,7.497447e-005
2.662116e-004,8.242948e-005
3.778746e-004,9.118101e-005
4.597176e-004,9.636710e-005
4.965065e-004,9.588091e-005
4.940755e-004,9.507057e-005
4.665244e-004,9.717743e-005
4.261701e-004,1.007429e-004
3.846814e-004,1.036600e-004
3.499994e-004,1.057669e-004
3.260137e-004,1.091703e-004
3.089969e-004,1.163011e-004
2.939248e-004,1.263492e-004
2.757735e-004,1.391524e-004
2.508154e-004,1.488763e-004
2.248849e-004,1.514693e-004
2.132162e-004,1.488763e-004
2.231022e-004,1.448246e-004
2.529222e-004,1.402868e-004
2.910076e-004,1.355869e-004
3.286068e-004,1.326697e-004
3.675024e-004,1.297526e-004
4.209840e-004,1.242423e-004
5.008822e-004,1.146805e-004
6.037938e-004,1.054428e-004
7.122156e-004,9.831188e-005
8.047550e-004,9.020862e-005
8.517539e-004,7.772959e-005
8.243649e-004,6.055066e-005
7.062191e-004,4.158902e-005
5.063924e-004,2.327564e-005
2.577842e-004,6.096713e-006
2.855407e-006,-1.075808e-005
-2.133397e-004,-2.647842e-005
-3.517435e-004,-4.365734e-005
-3.976080e-004,-6.586029e-005
-3.544986e-004,-9.211487e-005
-2.528836e-004,-1.156143e-004
-1.431655e-004,-1.310105e-004
-6.488790e-005,-1.352242e-004
-3.749886e-005,-1.302002e-004
-6.699475e-005,-1.151281e-004
-1.485136e-004,-9.114248e-005
-2.692523e-004,-6.391550e-005
-4.036044e-004,-3.960571e-005
-5.141329e-004,-2.226472e-005
-5.737729e-004,-1.237873e-005
-5.775004e-004,-9.299493e-006
-5.413599e-004,-1.367526e-005
-4.904714e-004,-2.501983e-005
-4.347209e-004,-4.106429e-005
-3.728119e-004,-5.808115e-005
-3.136581e-004,-7.201877e-005
-2.687660e-004,-8.206682e-005
-2.423494e-004,-9.146661e-005
-2.340841e-004,-1.026491e-004
-2.340841e-004,-1.141558e-004
-2.319772e-004,-1.271210e-004
-2.193361e-004,-1.386276e-004
-1.893541e-004,-1.438137e-004
-1.434896e-004,-1.405724e-004
-9.130454e-005,-1.279313e-004
-5.143648e-005,-1.052422e-004
-3.701266e-005,-7.866345e-005
-4.916756e-005,-5.483985e-005
-7.688073e-005,-3.474375e-005
-1.065387e-004,-1.837515e-005
-1.245279e-004,-6.058186e-006
-1.162626e-004,5.448452e-006
-7.120844e-005,2.116879e-005
1.419998e-005,4.094075e-005
1.239182e-004,5.795762e-005
2.300710e-004,6.914012e-005
3.030004e-004,7.805372e-005
3.315239e-004,8.712937e-005
3.203414e-004,9.701536e-005
2.869559e-004,1.067393e-004
2.483844e-004,1.143563e-004
2.184023e-004,1.198666e-004
2.106232e-004,1.242423e-004
2.315296e-004,1.284560e-004
2.751252e-004,1.346145e-004
3.261758e-004,1.448246e-004
3.589129e-004,1.568175e-004
3.525924e-004,1.663793e-004
3.010556e-004,1.712413e-004
2.237505e-004,1.699448e-004
1.560072e-004,1.647587e-004
1.222976e-004,1.564933e-004
1.088461e-004,1.482280e-004
6.930219e-005,1.402868e-004
-3.490581e-005,1.325077e-004
-1.925954e-004,1.248906e-004
-3.433161e-004,1.201907e-004
-4.155972e-004,1.214872e-004
-3.700569e-004,1.294284e-004
-2.139880e-004,1.394765e-004
3.503668e-006,1.498487e-004
2.122438e-004,1.605450e-004
3.606957e-004,1.673517e-004
4.389733e-004,1.668655e-004
4.683071e-004,1.551968e-004
4.713863e-004,1.362352e-004
4.665244e-004,1.132219e-004
4.559901e-004,9.182927e-005
4.345975e-004,7.465034e-005
3.969983e-004,6.541262e-005
3.303894e-004,6.444023e-005
2.162954e-004,6.816773e-005
3.883391e-005,7.140904e-005
-1.848162e-004,6.670914e-005
-4.018217e-004,5.179914e-005
-5.483287e-004,3.105477e-005
-5.800935e-004,8.689758e-006
-4.930644e-004,-1.156841e-005
-3.274337e-004,-2.696461e-005
-1.488377e-004,-3.717473e-005
-2.145439e-005,-4.560212e-005
1.695509e-005,-5.629844e-005
-2.890940e-005,-6.893953e-005
-1.287416e-004,-7.963584e-005
-2.395943e-004,-8.952183e-005
-3.201407e-004,-9.794922e-005
-3.486642e-004,-1.034594e-004
-3.262992e-004,-1.029732e-004
-2.778417e-004,-9.341139e-005
-2.327876e-004,-7.477388e-005
-2.100984e-004,-5.224680e-005
-2.130156e-004,-3.101625e-005
-2.311669e-004,-1.270286e-005
-2.493182e-004,3.017472e-006
-2.548284e-004,1.063454e-005
-2.447804e-004,7.069105e-006
-2.224154e-004,-2.492749e-006
-1.890299e-004,-8.651231e-006
-1.442999e-004,-1.043395e-005
-9.211487e-005,-1.092015e-005
-5.808115e-005,-1.513384e-005
-7.736692e-005,-2.307504e-005
-1.543479e-004,-3.296103e-005
-2.378116e-004,-4.381940e-005
-2.558008e-004,-5.629844e-005
-1.718510e-004,-6.326724e-005
-1.173047e-005,-6.213279e-005
1.675138e-004,-5.532604e-005
3.119140e-004,-4.462973e-005
3.942432e-004,-3.020592e-005
4.135290e-004,-1.626830e-005
3.799815e-004,-2.168618e-006
3.112658e-004,1.582063e-005
2.341226e-004,3.980630e-005
1.730240e-004,6.314371e-005
1.399627e-004,7.821578e-005
1.333180e-004,8.259155e-005
1.474177e-004,7.513654e-005
1.772377e-004,5.925414e-005
2.239125e-004,4.239934e-005
2.882525e-004,3.251336e-005
3.686369e-004,2.927205e-005
4.480489e-004,2.943412e-005
5.008822e-004,2.878586e-005
5.008822e-004,2.489629e-005
4.391353e-004,1.403791e-005
3.313618e-004,-2.492749e-006
2.059233e-004,-1.886135e-005
9.766362e-005,-2.501983e-005
3.526847e-005,-1.659243e-005
2.489629e-005,1.558884e-006
5.504044e-005,2.197911e-005
1.017153e-004,3.996837e-005
1.396385e-004,5.714729e-005
1.547106e-004,7.448828e-005
1.488763e-004,8.972242e-005
1.347766e-004,1.022015e-004
1.203528e-004,1.130598e-004
1.081979e-004,1.203528e-004
9.733949e-005,1.226217e-004
8.583286e-005,1.182459e-004
7.270556e-005,1.127357e-004
5.341979e-005,1.070634e-004
2.700314e-005,1.012291e-004
5.864920e-007,9.863601e-005
-1.529591e-005,1.005808e-004
-1.367526e-005,1.054428e-004
1.176900e-005,1.078737e-004
5.568870e-005,1.080358e-004
9.442231e-005,1.103047e-004
1.013911e-004,1.158149e-004
5.747142e-005,1.200286e-004
-2.550602e-005,1.153287e-004
-1.110765e-004,9.636710e-005
-1.666649e-004,6.573675e-005
-1.840059e-004,3.056858e-005
-1.773612e-004,-2.816880e-006
-1.679614e-004,-2.664048e-005
-1.689338e-004,-3.717473e-005
-1.812508e-004,-3.863332e-005
-1.984297e-004,-3.895745e-005
-2.120432e-004,-3.701266e-005
-2.224154e-004,-2.907146e-005
-2.297083e-004,-1.399939e-005
-2.363530e-004,3.665733e-006
-2.452666e-004,1.711715e-005
-2.566112e-004,2.295151e-005
-2.627696e-004,1.711715e-005
-2.567732e-004,3.503668e-006
-2.386219e-004,-1.010982e-005
-2.128535e-004,-2.226472e-005
-1.904885e-004,-2.923353e-005
-1.737958e-004,-3.215070e-005
-1.605064e-004,-3.393342e-005
-1.418689e-004,-3.587821e-005
-1.138316e-004,-4.074016e-005
-8.271508e-005,-4.965376e-005
-5.224680e-005,-6.586029e-005
-2.275091e-005,-8.773911e-005
6.420843e-006,-1.063766e-004
3.899597e-005,-1.157764e-004
7.902610e-005,-1.107524e-004
1.255389e-004,-9.892161e-005
1.699448e-004,-8.482193e-005
2.010613e-004,-7.315322e-005
2.067336e-004,-6.504996e-005
1.877720e-004,-5.889148e-005
1.590864e-004,-5.548811e-005
1.389903e-004,-5.516398e-005
1.412592e-004,-5.597430e-005
1.680000e-004,-5.905355e-005
2.151610e-004,-6.521203e-005
2.736666e-004,-7.380149e-005
3.235827e-004,-8.271508e-005
3.339549e-004,-8.725291e-005
2.837146e-004,-8.320128e-005
1.799928e-004,-6.602235e-005
6.541262e-005,-4.074016e-005
-4.113403e-006,-1.335113e-005
4.962256e-006,1.598270e-005
8.502253e-005,4.969229e-005
2.028440e-004,9.442231e-005
3.148312e-004,1.469315e-004
3.822504e-004,1.961994e-004
3.897054e-004,2.302331e-004
3.457857e-004,2.415777e-004
2.686426e-004,2.292607e-004
1.714034e-004,1.992786e-004
7.481241e-005,1.611932e-004
1.079661e-005,1.247285e-004
3.179537e-006,9.750156e-005
4.418206e-005,8.161915e-005
1.046324e-004,7.562274e-005
1.530900e-004,7.448828e-005
1.701068e-004,7.708133e-005
1.498487e-004,8.194328e-005
1.075496e-004,8.599492e-005
7.027458e-005,8.421220e-005
5.536457e-005,8.097089e-005
6.768154e-005,8.242948e-005
9.377406e-005,9.701536e-005
1.224596e-004,1.244044e-004
1.438522e-004,1.610312e-004
1.422316e-004,1.983062e-004
1.052807e-004,2.268297e-004
2.846173e-005,2.383363e-004
-8.692878e-005,2.295848e-004
-2.272773e-004,2.018716e-004
-3.593606e-004,1.610312e-004
-4.332623e-004,1.120874e-004
-4.224039e-004,6.298164e-005
-3.454229e-004,1.630683e-005
-2.415391e-004,-2.923353e-005
-1.519170e-004,-7.558420e-005
-1.096179e-004,-1.191798e-004
-1.180453e-004,-1.493239e-004
-1.473791e-004,-1.598582e-004
-1.656925e-004,-1.477033e-004
-1.572651e-004,-1.156143e-004
-1.222590e-004,-6.893953e-005
-6.958779e-005,-1.707863e-005
-1.399939e-005,2.635488e-005
2.748934e-005,5.050261e-005
4.353380e-005,5.455425e-005
3.834771e-005,4.515445e-005
2.035846e-005,3.235129e-005
-8.813297e-006,2.003433e-005
-4.673658e-005,8.527692e-006
-8.838737e-005,-3.951337e-006
-1.185315e-004,-1.788895e-005
-1.227452e-004,-3.231277e-005
-8.871149e-005,-4.641245e-005
-1.221667e-005,-6.164659e-005
1.017153e-004,-7.331530e-005
2.337985e-004,-7.590833e-005
3.527545e-004,-6.877746e-005
4.260080e-004,-5.613637e-005
4.258460e-004,-4.203669e-005
3.315239e-004,-2.988179e-005
1.438522e-004,-2.210265e-005
-9.908367e-005,-1.950961e-005
-3.277578e-004,-2.437157e-005
-4.726442e-004,-3.296103e-005
-5.086227e-004,-3.863332e-005
-4.622720e-004,-3.652646e-005
-3.882082e-004,-2.404744e-005
-3.459091e-004,2.623614e-007
-3.731361e-004,3.218923e-005
-4.864197e-004,6.265751e-005
-6.661501e-004,8.210535e-005
-8.397221e-004,9.020862e-005
-9.071412e-004,9.150514e-005
-8.099020e-004,9.182927e-005
-5.664800e-004,8.939829e-005
-2.580697e-004,8.032264e-005
2.359977e-005,6.346784e-005
2.219677e-004,4.564065e-005
3.276344e-004,3.235129e-005
3.636129e-004,2.473423e-005
3.645853e-004,2.457216e-005
3.597233e-004,3.105477e-005
3.606957e-004,4.110282e-005
3.678266e-004,5.714729e-005
3.804677e-004,7.999851e-005
3.929467e-004,1.078737e-004
4.085050e-004,1.380179e-004
4.418904e-004,1.654069e-004
4.971547e-004,1.867996e-004
5.624671e-004,2.005751e-004
6.135177e-004,2.052750e-004
6.271312e-004,2.030061e-004
5.905044e-004,1.934442e-004
5.114165e-004,1.765894e-004
4.107739e-004,1.542244e-004
3.180725e-004,1.304008e-004
2.644289e-004,1.067393e-004
2.590807e-004,8.372601e-005
2.869559e-004,6.444023e-005
3.187208e-004,5.115087e-005
3.273102e-004,4.385793e-005
3.049452e-004,4.369587e-005
2.650771e-004,5.196120e-005
2.316917e-004,6.670914e-005
2.140265e-004,8.323981e-005
2.085163e-004,9.231547e-005
2.081922e-004,8.842590e-005
2.149989e-004,7.011252e-005
2.313675e-004,4.304761e-005
2.548670e-004,1.614476e-005
2.786906e-004,-4.437533e-006
2.887387e-004,-1.659243e-005
2.756114e-004,-2.599222e-005
2.373639e-004,-4.203669e-005
1.808031e-004,-6.748094e-005
1.039842e-004,-9.940781e-005
-3.858999e-007,-1.310105e-004
-1.344139e-004,-1.533756e-004
-2.891863e-004,-1.668270e-004
-4.439586e-004,-1.689338e-004
-5.770142e-004,-1.590478e-004
-6.685811e-004,-1.428413e-004
-7.034251e-004,-1.271210e-004
-6.771705e-004,-1.130213e-004
-5.961379e-004,-1.013526e-004
-4.810716e-004,-9.341139e-005
-3.616295e-004,-8.935975e-005
-2.652006e-004,-8.676672e-005
-2.062088e-004,-8.384954e-005
-1.812508e-004,-8.336335e-005
-1.784957e-004,-8.563225e-005
-1.818991e-004,-9.000802e-005
-1.770371e-004,-9.519411e-005
-1.580754e-004,-9.892161e-005
-1.240417e-004,-1.002181e-004
-8.125649e-005,-9.843541e-005
-4.155049e-005,-9.146661e-005
-1.643037e-005,-8.174268e-005
-1.173047e-005,-7.169464e-005
-3.053005e-005,-6.213279e-005
-6.326724e-005,-4.997789e-005
-9.519411e-005,-2.988179e-005
-1.238797e-004,-2.006553e-006
-1.502963e-004,2.846173e-005
-1.692580e-004,5.179914e-005
-1.663408e-004,6.411610e-005
-1.285796e-004,6.735741e-005
-5.370539e-005,6.492643e-005
3.413401e-005,6.265751e-005
1.000946e-004,6.768154e-005
1.247285e-004,8.275361e-005
1.128978e-004,1.057669e-004
8.631905e-005,1.278078e-004
6.654708e-005,1.401247e-004
6.362991e-005,1.401247e-004
7.805372e-005,1.329939e-004
1.062531e-004,1.250527e-004
1.457970e-004,1.188942e-004
2.005751e-004,1.169494e-004
2.688046e-004,1.187321e-004
3.399513e-004,1.216493e-004
3.994293e-004,1.247285e-004
4.370285e-004,1.279698e-004
4.483731e-004,1.300767e-004
4.370285e-004,1.320215e-004
4.083429e-004,1.344524e-004
3.645853e-004,1.406109e-004
3.067279e-004,1.509831e-004
2.378501e-004,1.615174e-004
1.694586e-004,1.686482e-004
1.174356e-004,1.699448e-004
9.166720e-005,1.631380e-004
9.166720e-005,1.498487e-004
1.120874e-004,1.329939e-004
1.483901e-004,1.161391e-004
1.882582e-004,1.059290e-004
2.059233e-004,1.078737e-004
1.738343e-004,1.197045e-004
9.328786e-005,1.349386e-004
5.124321e-006,1.438522e-004
-3.960571e-005,1.393144e-004
-2.177852e-005,1.232699e-004
3.380988e-005,1.031738e-004
8.777764e-005,8.696731e-005
1.163011e-004,8.113296e-005
1.154908e-004,8.194328e-005
9.944634e-005,8.161915e-005
8.826383e-005,7.465034e-005
8.129502e-005,6.022653e-005
5.860588e-005,4.272347e-005
2.327564e-005,2.732727e-005
3.179537e-006,1.889987e-005
1.095867e-005,1.225520e-005
3.526847e-005,5.448452e-006
5.293359e-005,-5.571990e-006
4.904402e-005,-2.242678e-005
3.218923e-005,-4.446767e-005
1.906194e-005,-6.926366e-005
3.089271e-005,-9.017008e-005
7.756752e-005,-1.000561e-004
1.500107e-004,-9.843541e-005
2.174299e-004,-8.773911e-005
2.483844e-004,-7.315322e-005
2.263435e-004,-5.872941e-005
1.628139e-004,-4.932962e-005
8.761557e-005,-4.462973e-005
1.695509e-005,-4.414354e-005
-6.099833e-005,-4.770897e-005
-1.679614e-004,-5.775702e-005
-3.094444e-004,-7.072225e-005
-4.590307e-004,-8.303922e-005
-5.682627e-004,-9.162867e-005
-6.011620e-004,-9.843541e-005
-5.595111e-004,-1.032974e-004
-4.804233e-004,-1.063766e-004
-4.094387e-004,-1.096179e-004
-3.794566e-004,-1.148040e-004
-4.055492e-004,-1.238797e-004
-4.671340e-004,-1.358725e-004
-5.206155e-004,-1.485136e-004
-5.272602e-004,-1.575893e-004
-4.817198e-004,-1.629374e-004
-4.013355e-004,-1.635857e-004
-3.185201e-004,-1.524032e-004
-2.626076e-004,-1.272830e-004
-2.483458e-004,-8.725291e-005
-2.650386e-004,-3.668853e-005
-2.809209e-004,1.419998e-005
-2.630937e-004,5.520250e-005
-1.984297e-004,8.032264e-005
-1.039456e-004,8.696731e-005
-1.335113e-005,7.902610e-005
4.434413e-005,6.330578e-005
6.265751e-005,4.385793e-005
5.568870e-005,2.570662e-005
3.769945e-005,1.290346e-005
2.019640e-005,9.175954e-006
8.527692e-006,1.695509e-005
5.610517e-006,3.510641e-005
1.744129e-005,5.893001e-005
5.260946e-005,8.194328e-005
1.090082e-004,9.928428e-005
1.751309e-004,1.120874e-004
2.367157e-004,1.193804e-004
2.759355e-004,1.232699e-004
2.819319e-004,1.260251e-004
2.521119e-004,1.291043e-004
1.908512e-004,1.341283e-004
1.137081e-004,1.407730e-004
3.867184e-005,1.453108e-004
-1.853722e-005,1.410971e-004
-4.057810e-005,1.268354e-004
-1.788895e-005,1.051186e-004
4.045456e-005,8.161915e-005
1.151667e-004,6.249545e-005
1.880961e-004,5.747142e-005
2.525981e-004,6.914012e-005
3.149933e-004,9.118101e-005
3.825745e-004,1.135460e-004
4.504799e-004,1.294284e-004
5.018546e-004,1.404489e-004
5.268127e-004,1.470936e-004
5.310264e-004,1.532520e-004
5.268127e-004,1.605450e-004
5.188715e-004,1.702689e-004
5.002340e-004,1.814514e-004
4.585832e-004,1.905271e-004
3.837090e-004,1.879340e-004
2.804733e-004,1.704310e-004
1.649207e-004,1.435281e-004
5.714729e-005,1.145184e-004
-2.485776e-005,8.793970e-005
-6.715681e-005,6.460230e-005
-7.250496e-005,4.239934e-005
-5.727083e-005,2.505836e-005
-4.219875e-005,1.387585e-005
-3.571614e-005,8.689758e-006
-4.284701e-005,7.555301e-006
-5.548811e-005,4.800190e-006
-6.083626e-005,-3.627206e-006
-4.689865e-005,-1.950961e-005
-9.623623e-006,-4.041603e-005
4.693717e-005,-6.488790e-005
1.065772e-004,-8.887356e-005
1.472556e-004,-1.123730e-004
1.521176e-004,-1.373311e-004
1.295905e-004,-1.601823e-004
9.507057e-005,-1.767130e-004
5.844381e-005,-1.804405e-004
2.197911e-005,-1.702304e-004
-9.623623e-006,-1.507825e-004
-2.615429e-005,-1.272830e-004
-2.615429e-005,-1.052422e-004
-1.594417e-005,-8.773911e-005
-8.327101e-006,-7.347736e-005
-1.529591e-005,-6.213279e-005
-4.187462e-005,-5.856735e-005
-7.704279e-005,-6.715681e-005
-1.049180e-004,-8.514606e-005
-1.126972e-004,-1.023250e-004
-9.989401e-005,-1.086455e-004
-7.590833e-005,-1.003802e-004
-5.678463e-005,-8.158062e-005
-5.581224e-005,-6.326724e-005
-7.688073e-005,-5.046408e-005
-1.071869e-004,-4.203669e-005
-1.295519e-004,-3.441962e-005
-1.285796e-004,-1.967167e-005
-9.730096e-005,5.448452e-006
-4.689865e-005,3.137890e-005
-2.654814e-006,4.466826e-005
2.343770e-005,4.142696e-005
3.753739e-005,2.667901e-005
4.920609e-005,1.112074e-005
6.055066e-005,3.827799e-006
6.978839e-005,7.555301e-006
7.724339e-005,2.392390e-005
8.680524e-005,5.066468e-005
9.571884e-005,8.437427e-005
9.928428e-005,1.193804e-004
9.750156e-005,1.436902e-004
9.101894e-005,1.516314e-004
8.016057e-005,1.474177e-004
6.784360e-005,1.399627e-004
5.714729e-005,1.326697e-004
5.098881e-005,1.255389e-004
4.645098e-005,1.237561e-004
3.996837e-005,1.297526e-004
2.862379e-005,1.394765e-004
1.646890e-005,1.492004e-004
1.355172e-005,1.568175e-004
2.667901e-005,1.681620e-004
6.200925e-005,1.833962e-004
1.198666e-004,1.997648e-004
1.822617e-004,2.114335e-004
2.281262e-004,2.162954e-004
2.453052e-004,2.133783e-004
2.367157e-004,2.034923e-004
2.164575e-004,1.913374e-004
2.025199e-004,1.796687e-004
2.002510e-004,1.707551e-004
2.075439e-004,1.649207e-004
2.198609e-004,1.641104e-004
2.336365e-004,1.705930e-004
2.456293e-004,1.803169e-004
2.530843e-004,1.855030e-004
2.522740e-004,1.804790e-004
2.380122e-004,1.626518e-004
2.005751e-004,1.315353e-004
1.376938e-004,9.215340e-005
6.379197e-005,5.504044e-005
7.555301e-006,2.765140e-005
-1.092015e-005,1.290346e-005
1.883015e-006,2.531276e-006
2.311357e-005,-6.706447e-006
3.251336e-005,-1.270286e-005
2.894792e-005,-1.448558e-005
2.295151e-005,-1.221667e-005
1.857574e-005,-8.489166e-006
1.079661e-005,-7.354709e-006
-8.813297e-006,-1.043395e-005
-4.544006e-005,-1.529591e-005
-1.075111e-004,-2.437157e-005
-2.062088e-004,-4.057810e-005
-3.465574e-004,-6.278104e-005
-5.172121e-004,-8.790117e-005
-6.719845e-004,-1.076731e-004
-7.483172e-004,-1.143178e-004
-7.095836e-004,-1.052422e-004
-5.750695e-004,-8.660465e-005
-4.152731e-004,-6.764301e-005
-3.066893e-004,-5.402952e-005
-2.716832e-004,-4.706071e-005
-2.656868e-004,-4.738484e-005
-2.254946e-004,-5.597430e-005
-1.232314e-004,-7.623246e-005
2.003433e-005,-1.099421e-004
1.530900e-004,-1.517549e-004
2.328261e-004,-1.869231e-004
2.386605e-004,-2.049123e-004
1.748067e-004,-2.036158e-004
6.136099e-005,-1.900023e-004
-6.521203e-005,-1.731475e-004
-1.663408e-004,-1.592099e-004
-2.180396e-004,-1.517549e-004
-2.274394e-004,-1.511067e-004
-2.316531e-004,-1.530514e-004
-2.554767e-004,-1.540238e-004
-2.968033e-004,-1.511067e-004
-3.350507e-004,-1.483515e-004
-3.536883e-004,-1.494860e-004
-3.467195e-004,-1.506204e-004
-3.167374e-004,-1.491618e-004
-2.658489e-004,-1.485136e-004
-1.922712e-004,-1.489998e-004
-1.029732e-004,-1.451102e-004
-1.513384e-005,-1.308485e-004
5.212327e-005,-1.060525e-004
8.307774e-005,-7.234290e-005
6.427817e-005,-3.344723e-005
7.393236e-006,6.744974e-006
-4.495386e-005,4.434413e-005
-5.095028e-005,7.529860e-005
1.720949e-006,9.733949e-005
8.502253e-005,1.124116e-004
1.624898e-004,1.234320e-004
2.135403e-004,1.316974e-004
2.386605e-004,1.372076e-004
2.414156e-004,1.410971e-004
2.229401e-004,1.464453e-004
1.825859e-004,1.573037e-004
1.373696e-004,1.730240e-004
1.096565e-004,1.877720e-004
1.150046e-004,1.965235e-004
1.563313e-004,1.986303e-004
2.276400e-004,1.996027e-004
3.190449e-004,2.028440e-004
4.094774e-004,2.068957e-004
4.777069e-004,2.106232e-004
5.157923e-004,2.156472e-004
5.311884e-004,2.245608e-004
5.331332e-004,2.372019e-004
5.221128e-004,2.519498e-004
4.955341e-004,2.637806e-004
4.496696e-004,2.689667e-004
3.827366e-004,2.658874e-004
3.020280e-004,2.561635e-004
2.346088e-004,2.394708e-004
2.149989e-004,2.190506e-004
2.657254e-004,1.957132e-004
3.770643e-004,1.731861e-004
5.018546e-004,1.540623e-004
5.793219e-004,1.391524e-004
5.738117e-004,1.258630e-004
4.906721e-004,1.075496e-004
3.636129e-004,7.756752e-005
2.243987e-004,4.337174e-005
8.810177e-005,1.160693e-005
-3.182657e-005,-9.461558e-006
-1.170729e-004,-1.432352e-005
-1.627754e-004,-3.627206e-006
-1.784957e-004,8.851824e-006
-1.820611e-004,1.079661e-005
-1.948643e-004,-7.100305e-007
-2.311669e-004,-2.031993e-005
-2.859450e-004,-4.122636e-005
-3.450988e-004,-5.889148e-005
-3.946908e-004,-6.942573e-005
-4.202971e-004,-6.845333e-005
-4.141386e-004,-5.743289e-005
-3.716775e-004,-4.074016e-005
-2.966413e-004,-2.518189e-005
-2.036158e-004,-1.805102e-005
-1.131834e-004,-1.869928e-005
-3.847125e-005,-2.339918e-005
1.598270e-005,-3.020592e-005
4.223728e-005,-4.057810e-005
2.586868e-005,-5.273300e-005
-5.240886e-005,-6.116039e-005
-1.877334e-004,-6.197072e-005
-3.379679e-004,-5.483985e-005
-4.392588e-004,-4.300908e-005
-4.478482e-004,-3.312309e-005
-3.632501e-004,-3.085418e-005
-2.254946e-004,-3.620233e-005
-8.514606e-005,-4.381940e-005
2.376183e-005,-4.916756e-005
8.875003e-005,-5.338126e-005
1.154908e-004,-5.629844e-005
1.175977e-004,-5.565017e-005
1.028497e-004,-4.965376e-005
7.999851e-005,-3.814712e-005
6.055066e-005,-2.631635e-005
4.645098e-005,-1.675450e-005
2.927205e-005,-9.137427e-006
7.231170e-006,9.106227e-007
-9.947754e-006,1.695509e-005
-1.983374e-005,3.753739e-005
-2.437157e-005,5.763349e-005
-2.210265e-005,7.157111e-005
-1.156841e-005,7.805372e-005
1.014835e-005,8.291568e-005
4.110282e-005,9.085688e-005
7.076078e-005,1.017153e-004
8.972242e-005,1.114392e-004
9.344993e-005,1.171115e-004
8.599492e-005,1.145184e-004
7.302970e-005,1.052807e-004
5.439218e-005,9.312580e-005
2.943412e-005,8.680524e-005
-2.168618e-006,8.875003e-005
-3.522994e-005,9.636710e-005
-5.710876e-005,1.043083e-004
-4.851930e-005,1.083599e-004
-8.975362e-006,1.090082e-004
5.001642e-005,1.054428e-004
1.111150e-004,1.005808e-004
1.644345e-004,9.344993e-005
2.068957e-004,8.648112e-005
2.334744e-004,7.983644e-005
2.417397e-004,7.124698e-005
2.294227e-004,6.768154e-005
1.966855e-004,7.205730e-005
1.406109e-004,7.724339e-005
6.444023e-005,7.481241e-005
-1.124428e-005,6.217132e-005
-4.932962e-005,4.272347e-005
-2.258885e-005,1.873781e-005
7.302970e-005,-5.571990e-006
2.143507e-004,-3.053005e-005
3.623164e-004,-5.321920e-005
4.772207e-004,-6.731888e-005
5.332953e-004,-6.829127e-005
5.305402e-004,-5.840528e-005
4.916445e-004,-4.511593e-005
4.511282e-004,-2.939559e-005
4.376768e-004,-9.785688e-006
4.509661e-004,8.851824e-006
4.563143e-004,2.035846e-005
4.123946e-004,2.327564e-005
3.039728e-004,2.262738e-005
1.483901e-004,2.327564e-005
-1.173047e-005,2.359977e-005
-1.489998e-004,2.489629e-005
-2.588801e-004,3.154097e-005
-3.554710e-004,4.353380e-005
-4.488206e-004,5.487838e-005
-5.275843e-004,6.006447e-005
-5.723144e-004,5.601284e-005
-5.721523e-004,4.191315e-005
-5.306636e-004,1.873781e-005
-4.632444e-004,-1.156841e-005
-3.930701e-004,-4.219875e-005
-3.384541e-004,-6.553616e-005
-3.034480e-004,-7.720486e-005
-2.846485e-004,-8.255302e-005
-2.844864e-004,-8.692878e-005
-3.018274e-004,-9.276313e-005
-3.259751e-004,-1.020008e-004
-3.392644e-004,-1.088076e-004
-3.251648e-004,-1.047560e-004
-2.784900e-004,-8.838737e-005
-2.084778e-004,-6.861539e-005
-1.425172e-004,-5.646050e-005
-1.026491e-004,-5.921561e-005
-9.778715e-005,-7.671866e-005
-1.229073e-004,-9.940781e-005
-1.703924e-004,-1.170729e-004
-2.344082e-004,-1.274451e-004
-3.136581e-004,-1.352242e-004
-3.951770e-004,-1.392759e-004
-4.347209e-004,-1.392759e-004
-3.835083e-004,-1.340898e-004
-2.233878e-004,-1.198280e-004
1.646890e-005,-9.405965e-005
2.757735e-004,-5.662256e-005
4.896998e-004,-1.075808e-005
6.062248e-004,3.380988e-005
6.005525e-004,6.703327e-005
4.929411e-004,8.469840e-005
3.331446e-004,9.020862e-005
1.710792e-004,9.020862e-005
4.288554e-005,9.231547e-005
-3.636440e-005,9.896015e-005
-6.893953e-005,1.111150e-004
-6.521203e-005,1.281319e-004
-3.263690e-005,1.480659e-004
1.873781e-005,1.678379e-004
8.259155e-005,1.829100e-004
1.490383e-004,1.950649e-004
2.093267e-004,2.085163e-004
2.524360e-004,2.268297e-004
2.749631e-004,2.504913e-004
2.799871e-004,2.752873e-004
2.728562e-004,2.955454e-004
2.598910e-004,3.072141e-004
2.454672e-004,3.036487e-004
2.347709e-004,2.806354e-004
2.295848e-004,2.406053e-004
2.297469e-004,1.940925e-004
2.355812e-004,1.539003e-004
2.490327e-004,1.248906e-004
2.691288e-004,1.052807e-004
2.788527e-004,9.118101e-005
2.688046e-004,7.951231e-005
2.305572e-004,7.043665e-005
1.637863e-004,6.071273e-005
8.340187e-005,4.790957e-005
1.014835e-005,3.218923e-005
-4.268495e-005,1.241726e-005
-6.910160e-005,-1.318906e-005
-7.120844e-005,-3.960571e-005
-4.689865e-005,-6.002594e-005
4.313994e-006,-6.910160e-005
7.529860e-005,-6.926366e-005
1.440143e-004,-6.423963e-005
1.837203e-004,-6.018800e-005
1.790204e-004,-6.213279e-005
1.477418e-004,-7.088431e-005
1.287802e-004,-8.239095e-005
1.492004e-004,-9.341139e-005
2.004130e-004,-1.021629e-004
2.527602e-004,-1.067007e-004
2.843629e-004,-1.055663e-004
2.880904e-004,-1.005423e-004
2.705873e-004,-9.373552e-005
2.448189e-004,-8.709085e-005
2.180782e-004,-8.174268e-005
1.877720e-004,-7.752899e-005
1.492004e-004,-7.558420e-005
9.733949e-005,-7.736692e-005
3.380988e-005,-8.384954e-005
-3.328516e-005,-9.162867e-005
-9.470791e-005,-9.827335e-005
-1.410586e-004,-1.036215e-004
-1.712027e-004,-1.089697e-004
-1.874093e-004,-1.138316e-004
-1.934057e-004,-1.162626e-004
-1.985918e-004,-1.125351e-004
-2.092881e-004,-1.018388e-004
-2.241981e-004,-8.725291e-005
-2.347323e-004,-6.748094e-005
-2.335979e-004,-4.106429e-005
-2.224154e-004,-7.192643e-006
-2.112329e-004,2.765140e-005
-2.138259e-004,5.309566e-005
-2.334358e-004,6.168512e-005
-2.655248e-004,5.552663e-005
-3.018274e-004,4.207521e-005
-3.282440e-004,2.732727e-005
-3.316474e-004,2.003433e-005
-3.013411e-004,2.149292e-005
-2.379736e-004,3.137890e-005
-1.501342e-004,4.628891e-005
-4.738484e-005,6.087479e-005
6.087479e-005,7.335383e-005
1.569795e-004,8.259155e-005
2.232643e-004,8.858796e-005
2.576221e-004,9.020862e-005
2.713977e-004,8.648112e-005
2.807975e-004,7.594687e-005
2.919800e-004,5.925414e-005
3.015418e-004,3.915804e-005
3.106175e-004,2.408596e-005
3.245551e-004,1.954813e-005
3.451374e-004,2.457216e-005
3.718782e-004,3.656499e-005
3.893813e-004,5.455425e-005
3.819262e-004,7.659513e-005
3.355756e-004,1.007429e-004
2.457913e-004,1.234320e-004
1.156529e-004,1.415833e-004
-4.592625e-005,1.560072e-004
-2.227395e-004,1.647587e-004
-3.846427e-004,1.684862e-004
-4.857715e-004,1.692965e-004
-4.914437e-004,1.676758e-004
-4.002010e-004,1.631380e-004
-2.446183e-004,1.576278e-004
-7.688073e-005,1.524417e-004
5.795762e-005,1.504969e-004
1.383420e-004,1.524417e-004
1.657311e-004,1.586002e-004
1.574657e-004,1.673517e-004
1.307250e-004,1.728619e-004
8.826383e-005,1.710792e-004
1.744129e-005,1.623277e-004
-8.676672e-005,1.504969e-004
-2.023193e-004,1.352628e-004
-2.840002e-004,1.137081e-004
-2.880518e-004,8.923623e-005
-2.029675e-004,7.043665e-005
-4.884343e-005,6.152305e-005
1.323456e-004,6.249545e-005
2.936006e-004,6.865393e-005
3.944053e-004,7.027458e-005
4.196875e-004,6.298164e-005
3.799815e-004,4.969229e-005
2.932765e-004,3.850978e-005
1.759412e-004,3.316162e-005
4.126489e-005,3.494434e-005
-9.519411e-005,4.239934e-005
-2.133397e-004,4.742337e-005
-3.047445e-004,4.385793e-005
-3.674638e-004,3.186510e-005
-3.979321e-004,1.582063e-005
-3.888564e-004,-4.113403e-006
-3.429920e-004,-2.874733e-005
-2.825416e-004,-5.808115e-005
-2.318152e-004,-8.887356e-005
-2.066950e-004,-1.203142e-004
-1.992400e-004,-1.489998e-004
-1.835197e-004,-1.728234e-004
-1.374932e-004,-1.914609e-004
-6.018800e-005,-2.049123e-004
3.429608e-005,-2.105846e-004
1.175977e-004,-2.031296e-004
1.574657e-004,-1.797922e-004
1.427178e-004,-1.434896e-004
8.615699e-005,-1.078352e-004
1.257933e-005,-8.336335e-005
-5.824322e-005,-7.671866e-005
-1.073490e-004,-8.368748e-005
-1.227452e-004,-9.649064e-005
-1.023250e-004,-1.073490e-004
-5.646050e-005,-1.156143e-004
-6.176923e-008,-1.242038e-004
5.066468e-005,-1.344139e-004
8.469840e-005,-1.428413e-004
1.109530e-004,-1.470550e-004
1.339663e-004,-1.433275e-004
1.449867e-004,-1.253383e-004
1.300767e-004,-8.579432e-005
8.956036e-005,-2.647842e-005
3.283749e-005,4.304761e-005
-2.583016e-005,1.098185e-004
-7.931171e-005,1.616794e-004
-1.250141e-004,1.932822e-004
-1.588858e-004,2.002510e-004
-1.639098e-004,1.837203e-004
-1.212866e-004,1.488763e-004
-2.712668e-005,1.086841e-004
9.393612e-005,7.481241e-005
2.031682e-004,5.617490e-005
2.644289e-004,5.649903e-005
2.623220e-004,7.367795e-005
2.070577e-004,9.960841e-005
1.316974e-004,1.244044e-004
7.594687e-005,1.419075e-004
6.460230e-005,1.516314e-004
9.863601e-005,1.576278e-004
1.654069e-004,1.650828e-004
2.397949e-004,1.762653e-004
2.867939e-004,1.861513e-004
2.871180e-004,1.866375e-004
2.433604e-004,1.772377e-004
1.778860e-004,1.607070e-004
1.182459e-004,1.396385e-004
8.696731e-005,1.120874e-004
8.356394e-005,8.453633e-005
9.004655e-005,6.768154e-005
9.118101e-005,6.606088e-005
8.242948e-005,8.080883e-005
6.849186e-005,1.103047e-004
6.249545e-005,1.445005e-004
7.335383e-005,1.741585e-004
1.004187e-004,1.929580e-004
1.313732e-004,1.960373e-004
1.500107e-004,1.864754e-004
1.480659e-004,1.688103e-004
1.258630e-004,1.482280e-004
8.761557e-005,1.292664e-004
4.369587e-005,1.128978e-004
1.883015e-006,9.993253e-005
-3.296103e-005,8.891209e-005
-5.710876e-005,7.740546e-005
-6.553616e-005,6.168512e-005
-5.305713e-005,4.207521e-005
-1.156841e-005,2.295151e-005
5.925414e-005,9.500085e-006
1.428799e-004,1.234753e-006
2.106232e-004,-6.706447e-006
2.367157e-004,-2.145439e-005
2.059233e-004,-4.592625e-005
1.166253e-004,-7.785312e-005
-1.351319e-005,-1.060525e-004
-1.501342e-004,-1.222590e-004
-2.504527e-004,-1.261486e-004
-2.872415e-004,-1.243659e-004
-2.655248e-004,-1.245279e-004
-2.008607e-004,-1.295519e-004
-1.032974e-004,-1.337657e-004
1.128280e-005,-1.331174e-004
1.195424e-004,-1.272830e-004
1.997648e-004,-1.190177e-004
2.423880e-004,-1.120489e-004
2.470879e-004,-1.081593e-004
2.221298e-004,-1.065387e-004
1.694586e-004,-1.039456e-004
9.863601e-005,-9.730096e-005
3.607880e-005,-9.000802e-005
1.663096e-005,-8.676672e-005
4.839576e-005,-9.114248e-005
1.017153e-004,-1.021629e-004
1.328318e-004,-1.141558e-004
1.150046e-004,-1.206384e-004
4.564065e-005,-1.169109e-004
-5.986387e-005,-9.843541e-005
-1.810887e-004,-6.812920e-005
-3.040963e-004,-3.571614e-005
-4.258073e-004,-1.092015e-005
-5.355255e-004,4.476060e-006
-5.987309e-004,1.128280e-005
-5.825245e-004,1.338965e-005
-4.805854e-004,1.274139e-005
-3.172236e-004,1.031041e-005
-1.285796e-004,8.527692e-006
5.228533e-005,8.851824e-006
1.953890e-004,1.209313e-005
2.866318e-004,2.003433e-005
3.302274e-004,3.251336e-005
3.428685e-004,4.693717e-005
3.420582e-004,6.022653e-005
3.357376e-004,7.059871e-005
3.264999e-004,7.918817e-005
3.171001e-004,8.664318e-005
3.031625e-004,9.490851e-005
2.827423e-004,1.077117e-004
2.579462e-004,1.234320e-004
2.355812e-004,1.394765e-004
2.245608e-004,1.534141e-004
2.300710e-004,1.639484e-004
2.469258e-004,1.668655e-004
2.660495e-004,1.631380e-004
2.791768e-004,1.564933e-004
2.885766e-004,1.553589e-004
3.013798e-004,1.657311e-004
3.171001e-004,1.843686e-004
3.148312e-004,2.020337e-004
2.652392e-004,2.120818e-004
1.670276e-004,2.145127e-004
5.536457e-005,2.112714e-004
-9.947754e-006,2.021958e-004
9.500085e-006,1.882582e-004
1.017153e-004,1.686482e-004
2.192126e-004,1.425557e-004
3.159656e-004,1.119254e-004
3.720403e-004,8.145709e-005
3.966742e-004,5.649903e-005
4.060740e-004,4.126489e-005
4.156358e-004,3.299956e-005
4.271425e-004,2.667901e-005
4.292493e-004,2.522042e-005
4.057499e-004,3.170304e-005
3.409237e-004,4.304761e-005
2.261814e-004,5.358185e-005
6.281957e-005,5.633696e-005
-1.327933e-004,4.693717e-005
-3.356990e-004,2.489629e-005
-5.228845e-004,-3.141010e-006
-6.719845e-004,-3.134038e-005
-7.713305e-004,-5.548811e-005
-8.173570e-004,-7.931171e-005
-8.152502e-004,-1.050801e-004
-7.833233e-004,-1.319829e-004
-7.416725e-004,-1.600202e-004
-7.011562e-004,-1.849783e-004
-6.559400e-004,-2.029675e-004
-5.927345e-004,-2.052365e-004
-5.063537e-004,-1.901644e-004
-4.083043e-004,-1.648822e-004
-3.173856e-004,-1.402483e-004
-2.515871e-004,-1.242038e-004
-2.147983e-004,-1.175591e-004
-2.008607e-004,-1.209625e-004
-1.985918e-004,-1.274451e-004
-1.934057e-004,-1.298761e-004
-1.775233e-004,-1.253383e-004
-1.583996e-004,-1.138316e-004
-1.506204e-004,-1.000561e-004
-1.639098e-004,-8.790117e-005
-1.916230e-004,-8.077030e-005
-2.156086e-004,-7.720486e-005
-2.194982e-004,-7.412562e-005
-1.990780e-004,-6.586029e-005
-1.590478e-004,-4.900550e-005
-1.057284e-004,-2.356124e-005
-4.171256e-005,3.989864e-006
2.084466e-005,2.684107e-005
6.638502e-005,3.948217e-005
9.409818e-005,4.126489e-005
1.182459e-004,3.996837e-005
1.475797e-004,4.645098e-005
1.848548e-004,6.589881e-005
2.263435e-004,9.377406e-005
2.717218e-004,1.248906e-004
3.143450e-004,1.529279e-004
3.444891e-004,1.722137e-004
3.514580e-004,1.808031e-004
3.287688e-004,1.795066e-004
2.811216e-004,1.710792e-004
2.234263e-004,1.610312e-004
1.707551e-004,1.556830e-004
1.235941e-004,1.529279e-004
6.395404e-005,1.513072e-004
-1.562004e-005,1.509831e-004
-8.903562e-005,1.495245e-004
-1.144799e-004,1.451488e-004
-7.671866e-005,1.393144e-004
-1.844488e-006,1.375317e-004
5.909208e-005,1.417454e-004
5.698522e-005,1.487142e-004
-2.777494e-005,1.550348e-004
-1.616409e-004,1.618415e-004
-2.768693e-004,1.730240e-004
-3.151167e-004,1.846927e-004
-2.622834e-004,1.919856e-004
-1.519170e-004,1.921477e-004
-4.641245e-005,1.882582e-004
1.047248e-005,1.853410e-004
2.084466e-005,1.808031e-004
9.824215e-006,1.718896e-004
3.179537e-006,1.581140e-004
1.128280e-005,1.430419e-004
3.186510e-005,1.308870e-004
5.358185e-005,1.231079e-004
6.832980e-005,1.154908e-004
7.319176e-005,1.047945e-004
7.124698e-005,9.053275e-005
7.497447e-005,7.627100e-005
1.052807e-004,6.508849e-005
1.697827e-004,5.763349e-005
2.519498e-004,5.163707e-005
3.188828e-004,4.337174e-005
3.433547e-004,3.040651e-005
3.237448e-004,1.241726e-005
2.858215e-004,-1.173047e-005
2.629703e-004,-4.041603e-005
2.668598e-004,-6.910160e-005
2.861456e-004,-9.438378e-005
3.025142e-004,-1.167488e-004
3.112658e-004,-1.355484e-004
3.201794e-004,-1.455964e-004
3.350894e-004,-1.460826e-004
3.548613e-004,-1.428413e-004
3.739850e-004,-1.439758e-004
3.884089e-004,-1.509446e-004
4.002396e-004,-1.590478e-004
4.143393e-004,-1.634236e-004
4.232529e-004,-1.634236e-004
4.073705e-004,-1.639098e-004
3.540510e-004,-1.684476e-004
2.649151e-004,-1.755785e-004
1.597346e-004,-1.809267e-004
6.200925e-005,-1.817370e-004
-1.205460e-005,-1.747682e-004
-6.051213e-005,-1.613168e-004
-8.676672e-005,-1.428413e-004
-9.324933e-005,-1.203142e-004
-8.790117e-005,-9.713889e-005
-8.206682e-005,-8.044617e-005
-8.838737e-005,-7.299116e-005
-1.162626e-004,-7.218083e-005
-1.634236e-004,-6.926366e-005
-2.115570e-004,-5.678463e-005
-2.287359e-004,-3.182657e-005
-1.917850e-004,1.720949e-006
-9.665270e-005,4.175109e-005
4.175109e-005,8.129502e-005
1.845306e-004,1.120874e-004
2.874421e-004,1.318594e-004
3.135347e-004,1.445005e-004
2.542187e-004,1.526038e-004
1.349386e-004,1.597346e-004
4.800190e-006,1.641104e-004
-8.174268e-005,1.613553e-004
-9.551824e-005,1.521176e-004
-5.467778e-005,1.401247e-004
-9.785688e-006,1.295905e-004
-1.358292e-006,1.214872e-004
-3.490581e-005,1.128978e-004
-9.454585e-005,1.004187e-004
-1.556445e-004,8.323981e-005
-2.045882e-004,6.622294e-005
-2.264670e-004,5.504044e-005
-2.044261e-004,5.325772e-005
-1.415448e-004,6.281957e-005
-6.926366e-005,7.999851e-005
-1.821308e-005,9.814982e-005
4.151929e-006,1.098185e-004
1.014835e-005,1.094944e-004
2.651694e-005,9.750156e-005
7.594687e-005,7.935024e-005
1.555210e-004,6.152305e-005
2.372019e-004,4.936815e-005
2.911697e-004,4.953022e-005
3.015418e-004,6.168512e-005
2.702632e-004,8.437427e-005
2.111094e-004,1.119254e-004
1.367214e-004,1.352628e-004
5.601284e-005,1.470936e-004
-1.626830e-005,1.457970e-004
-6.213279e-005,1.362352e-004
-7.461182e-005,1.235941e-004
-5.321920e-005,1.125736e-004
-4.437533e-006,1.022015e-004
6.022653e-005,9.215340e-005
1.286181e-004,8.113296e-005
1.827479e-004,7.108491e-005
2.047888e-004,6.346784e-005
1.887444e-004,5.520250e-005
1.362352e-004,4.499239e-005
6.006447e-005,3.413401e-005
-1.805102e-005,2.100672e-005
-7.493595e-005,-5.479652e-007
-1.013526e-004,-3.117831e-005
-1.063766e-004,-6.294311e-005
-9.535618e-005,-9.017008e-005
-7.169464e-005,-1.045939e-004
-4.187462e-005,-1.044318e-004
-1.886135e-005,-9.389759e-005
-2.080613e-005,-7.623246e-005
-5.483985e-005,-5.402952e-005
-1.101041e-004,-2.923353e-005
-1.729855e-004,-7.516774e-006
-2.290601e-004,5.448452e-006
-2.643903e-004,4.151929e-006
-2.801106e-004,-9.137427e-006
-2.898345e-004,-3.231277e-005
-3.031239e-004,-6.213279e-005
-3.147926e-004,-9.422172e-005
-3.180339e-004,-1.190177e-004
-3.144685e-004,-1.287416e-004
-3.190063e-004,-1.246900e-004
-3.525538e-004,-1.133454e-004
-4.360174e-004,-1.028112e-004
-5.676145e-004,-9.762509e-005
-7.060182e-004,-9.454585e-005
-7.807303e-004,-9.017008e-005
-7.447518e-004,-8.255302e-005
-6.055377e-004,-6.861539e-005
-4.120317e-004,-4.803310e-005
-2.212809e-004,-2.194059e-005
-7.007399e-005,1.234753e-006
3.445814e-005,1.517237e-005
1.004187e-004,2.197911e-005
1.333180e-004,2.700314e-005
1.342904e-004,3.170304e-005
1.075496e-004,3.575467e-005
6.865393e-005,3.834771e-005
3.591673e-005,4.094075e-005
1.922400e-005,4.402000e-005
2.732727e-005,4.726130e-005
6.071273e-005,5.293359e-005
1.107909e-004,6.152305e-005
1.654069e-004,7.319176e-005
2.096508e-004,8.356394e-005
2.316917e-004,8.939829e-005
2.354192e-004,9.053275e-005
2.360674e-004,9.004655e-005
2.487085e-004,9.328786e-005
2.770700e-004,1.036600e-004
3.222862e-004,1.201907e-004
3.856538e-004,1.341283e-004
4.657141e-004,1.372076e-004
5.464226e-004,1.265113e-004
6.083316e-004,1.073875e-004
6.383138e-004,8.696731e-005
6.345862e-004,7.286763e-005
6.034696e-004,6.687121e-005
5.537156e-004,6.573675e-005
4.927790e-004,6.541262e-005
4.196875e-004,6.103686e-005
3.363859e-004,5.066468e-005
2.435224e-004,3.445814e-005
1.381800e-004,1.630683e-005
1.436204e-005,1.072688e-006
-1.214487e-004,-1.140634e-005
-2.457528e-004,-2.291298e-005
-3.280820e-004,-3.150244e-005
-3.480160e-004,-2.971972e-005
-3.040963e-004,-1.902341e-005
-2.128535e-004,-2.978945e-006
-9.940781e-005,1.484824e-005
9.013889e-006,3.170304e-005
9.134307e-005,4.661304e-005
1.396385e-004,5.844381e-005
1.569795e-004,6.687121e-005
1.482280e-004,7.205730e-005
1.179218e-004,7.108491e-005
7.529860e-005,6.816773e-005
3.056858e-005,6.152305e-005
-5.247859e-006,5.260946e-005
-2.210265e-005,4.612685e-005
-1.432352e-005,4.774750e-005
2.165498e-005,5.536457e-005
7.675720e-005,6.622294e-005
1.351007e-004,7.270556e-005
1.840444e-004,6.687121e-005
2.179161e-004,4.855783e-005
2.302331e-004,2.424803e-005
2.106232e-004,-2.330684e-006
1.516314e-004,-2.842320e-005
6.832980e-005,-5.321920e-005
-1.480971e-005,-7.493595e-005
-8.174268e-005,-9.146661e-005
-1.167488e-004,-9.859748e-005
-1.125351e-004,-9.454585e-005
-6.829127e-005,-8.077030e-005
2.045080e-006,-6.067420e-005
7.092284e-005,-3.976777e-005
1.172735e-004,-1.983374e-005
1.367214e-004,-4.113403e-006
1.339663e-004,5.772582e-006
1.182459e-004,1.063454e-005
9.215340e-005,1.095867e-005
5.066468e-005,4.800190e-006
-6.220252e-006,-7.192643e-006
-6.521203e-005,-2.258885e-005
-1.110765e-004,-3.587821e-005
-1.329553e-004,-4.462973e-005
-1.370070e-004,-4.381940e-005
-1.455964e-004,-3.053005e-005
-1.818991e-004,-4.275467e-006
-2.525595e-004,2.716521e-005
-3.621157e-004,5.828175e-005
-4.963057e-004,8.437427e-005
-6.142893e-004,1.026876e-004
-6.653398e-004,1.116012e-004
-6.160720e-004,1.120874e-004
-4.577342e-004,1.106288e-004
-2.204706e-004,1.143563e-004
3.364782e-005,1.198666e-004
2.466017e-004,1.200286e-004
3.788470e-004,1.114392e-004
4.198496e-004,9.766362e-005
3.851676e-004,8.534666e-005
3.086727e-004,7.497447e-005
